Data from USB4F104151__89__12-42-41-205.txt Node

Date: Fri Mar 14 12:42:41 EDT 2025
User: louis
Spectrometer: USB4F10415
Trigger mode: 4
Integration Time (sec): 3.000000E-2
Scans to average: 1
Electric dark correction enabled: true
Nonlinearity correction enabled: false
Boxcar width: 0
XAxis mode: Wavelengths
Number of Pixels in Spectrum: 3648
>>>>>Begin Spectral Data<<<<<
178.204	-121.17
178.424	-121.17
178.644	-121.17
178.864	-131.41
179.084	-131.41
179.304	-53.59
179.524	-59.73
179.744	-24.92
179.964	57
180.184	-2.39
180.404	7.85
180.624	50.86
180.844	1.71
181.064	-12.63
181.283	36.52
181.503	-29.01
181.723	28.33
181.943	-31.06
182.163	-6.49
182.383	59.05
182.602	32.43
182.822	5.8
183.042	65.19
183.262	11.95
183.482	63.15
183.701	52.91
183.921	9.9
184.141	-35.16
184.361	22.19
184.58	71.34
184.8	48.81
185.02	-4.44
185.239	57
185.459	9.9
185.679	48.81
185.898	-18.77
186.118	46.76
186.338	38.57
186.557	147.11
186.777	36.52
186.997	7.85
187.216	44.71
187.436	22.19
187.655	44.71
187.875	95.91
188.095	52.91
188.314	132.78
188.534	57
188.753	71.34
188.973	1.71
189.192	36.52
189.412	61.1
189.631	122.54
189.851	32.43
190.07	97.96
190.29	69.29
190.509	-43.35
190.729	-24.92
190.948	118.44
191.168	214.7
191.387	83.63
191.607	38.57
191.826	38.57
192.045	-4.44
192.265	26.28
192.484	67.24
192.704	5.8
192.923	30.38
193.142	18.09
193.362	81.58
193.581	69.29
193.8	110.25
194.02	42.67
194.239	71.34
194.458	-33.11
194.678	65.19
194.897	-35.16
195.116	36.52
195.335	42.67
195.555	48.81
195.774	63.15
195.993	-2.39
196.212	-22.87
196.432	69.29
196.651	-55.64
196.87	38.57
197.089	83.63
197.308	77.48
197.528	73.39
197.747	36.52
197.966	42.67
198.185	122.54
198.404	-22.87
198.623	28.33
198.842	48.81
199.062	91.82
199.281	-4.44
199.5	-4.44
199.719	34.47
199.938	124.58
200.157	81.58
200.376	54.95
200.595	118.44
200.814	71.34
201.033	71.34
201.252	44.71
201.471	-2.39
201.69	63.15
201.909	36.52
202.128	102.06
202.347	20.14
202.566	-20.82
202.785	102.06
203.004	-10.58
203.223	143.02
203.442	-0.34
203.661	52.91
203.879	48.81
204.098	63.15
204.317	11.95
204.536	85.67
204.755	145.06
204.974	130.73
205.193	28.33
205.411	46.76
205.63	-2.39
205.849	32.43
206.068	-39.25
206.287	73.39
206.505	57
206.724	30.38
206.943	52.91
207.162	48.81
207.381	132.78
207.599	81.58
207.818	73.39
208.037	-0.34
208.255	65.19
208.474	44.71
208.693	52.91
208.911	34.47
209.13	59.05
209.349	16.04
209.567	110.25
209.786	73.39
210.005	-37.2
210.223	-10.58
210.442	34.47
210.661	102.06
210.879	75.43
211.098	24.23
211.316	87.72
211.535	38.57
211.753	69.29
211.972	93.87
212.191	18.09
212.409	112.3
212.628	34.47
212.846	-12.63
213.065	104.11
213.283	124.58
213.502	104.11
213.72	59.05
213.938	57
214.157	75.43
214.375	48.81
214.594	52.91
214.812	128.68
215.031	-4.44
215.249	13.99
215.467	46.76
215.686	28.33
215.904	65.19
216.122	22.19
216.341	22.19
216.559	50.86
216.778	106.15
216.996	26.28
217.214	9.9
217.432	50.86
217.651	-4.44
217.869	30.38
218.087	38.57
218.306	11.95
218.524	87.72
218.742	-0.34
218.96	24.23
219.179	54.95
219.397	-2.39
219.615	110.25
219.833	73.39
220.051	9.9
220.27	16.04
220.488	69.29
220.706	67.24
220.924	7.85
221.142	-31.06
221.36	75.43
221.578	87.72
221.796	63.15
222.015	54.95
222.233	40.62
222.451	73.39
222.669	-16.73
222.887	-24.92
223.105	11.95
223.323	9.9
223.541	5.8
223.759	126.63
223.977	50.86
224.195	30.38
224.413	52.91
224.631	20.14
224.849	44.71
225.067	77.48
225.285	116.39
225.503	85.67
225.721	-2.39
225.939	-53.59
226.157	75.43
226.375	87.72
226.592	65.19
226.81	1.71
227.028	22.19
227.246	118.44
227.464	52.91
227.682	24.23
227.9	24.23
228.117	42.67
228.335	22.19
228.553	30.38
228.771	36.52
228.989	13.99
229.206	42.67
229.424	50.86
229.642	48.81
229.86	44.71
230.077	71.34
230.295	77.48
230.513	102.06
230.731	57
230.948	124.58
231.166	95.91
231.384	73.39
231.601	22.19
231.819	28.33
232.037	24.23
232.254	63.15
232.472	22.19
232.689	32.43
232.907	18.09
233.125	32.43
233.342	46.76
233.56	46.76
233.777	13.99
233.995	32.43
234.213	77.48
234.43	128.68
234.648	30.38
234.865	132.78
235.083	1.71
235.3	24.23
235.518	44.71
235.735	54.95
235.953	108.2
236.17	11.95
236.388	44.71
236.605	48.81
236.822	87.72
237.04	32.43
237.257	77.48
237.475	34.47
237.692	93.87
237.909	11.95
238.127	120.49
238.344	89.77
238.562	71.34
238.779	34.47
238.996	16.04
239.214	73.39
239.431	85.67
239.648	32.43
239.865	50.86
240.083	52.91
240.3	30.38
240.517	42.67
240.735	7.85
240.952	48.81
241.169	5.8
241.386	16.04
241.603	126.63
241.821	18.09
242.038	32.43
242.255	89.77
242.472	-26.96
242.689	18.09
242.907	65.19
243.124	-22.87
243.341	-4.44
243.558	-12.63
243.775	1.71
243.992	52.91
244.209	7.85
244.426	50.86
244.643	85.67
244.86	-16.73
245.078	67.24
245.295	85.67
245.512	63.15
245.729	71.34
245.946	52.91
246.163	34.47
246.38	22.19
246.597	16.04
246.814	71.34
247.031	13.99
247.248	26.28
247.464	-29.01
247.681	48.81
247.898	38.57
248.115	65.19
248.332	-18.77
248.549	114.34
248.766	110.25
248.983	52.91
249.2	5.8
249.417	120.49
249.633	5.8
249.85	65.19
250.067	-10.58
250.284	44.71
250.501	52.91
250.717	102.06
250.934	-76.12
251.151	42.67
251.368	7.85
251.585	73.39
251.801	85.67
252.018	-18.77
252.235	149.16
252.451	-0.34
252.668	9.9
252.885	30.38
253.102	100.01
253.318	65.19
253.535	-47.44
253.752	83.63
253.968	9.9
254.185	5.8
254.401	46.76
254.618	24.23
254.835	106.15
255.051	87.72
255.268	16.04
255.484	106.15
255.701	32.43
255.917	40.62
256.134	-29.01
256.351	81.58
256.567	36.52
256.784	-4.44
257	108.2
257.217	22.19
257.433	1.71
257.65	73.39
257.866	61.1
258.082	-22.87
258.299	9.9
258.515	71.34
258.732	-10.58
258.948	46.76
259.165	61.1
259.381	28.33
259.597	59.05
259.814	81.58
260.03	59.05
260.246	38.57
260.463	79.53
260.679	85.67
260.895	-4.44
261.112	110.25
261.328	34.47
261.544	28.33
261.761	173.74
261.977	54.95
262.193	52.91
262.409	122.54
262.626	79.53
262.842	26.28
263.058	16.04
263.274	52.91
263.49	-10.58
263.707	147.11
263.923	26.28
264.139	79.53
264.355	34.47
264.571	116.39
264.787	13.99
265.004	65.19
265.22	89.77
265.436	48.81
265.652	59.05
265.868	57
266.084	48.81
266.3	13.99
266.516	52.91
266.732	83.63
266.948	93.87
267.164	59.05
267.38	93.87
267.596	91.82
267.812	77.48
268.028	89.77
268.244	83.63
268.46	89.77
268.676	63.15
268.892	38.57
269.108	54.95
269.324	-2.39
269.54	3.75
269.756	57
269.972	67.24
270.188	20.14
270.403	38.57
270.619	91.82
270.835	52.91
271.051	48.81
271.267	52.91
271.483	77.48
271.698	42.67
271.914	11.95
272.13	57
272.346	32.43
272.562	26.28
272.777	128.68
272.993	104.11
273.209	22.19
273.425	59.05
273.64	57
273.856	79.53
274.072	-10.58
274.287	34.47
274.503	28.33
274.719	30.38
274.934	145.06
275.15	48.81
275.366	112.3
275.581	34.47
275.797	-35.16
276.012	26.28
276.228	16.04
276.444	-112.98
276.659	69.29
276.875	-22.87
277.09	122.54
277.306	16.04
277.521	83.63
277.737	75.43
277.952	89.77
278.168	89.77
278.383	93.87
278.599	95.91
278.814	122.54
279.03	87.72
279.245	93.87
279.461	-4.44
279.676	57
279.892	5.8
280.107	77.48
280.322	71.34
280.538	89.77
280.753	-18.77
280.969	34.47
281.184	54.95
281.399	126.63
281.615	26.28
281.83	143.02
282.045	73.39
282.26	16.04
282.476	26.28
282.691	30.38
282.906	65.19
283.122	13.99
283.337	-29.01
283.552	73.39
283.767	52.91
283.983	91.82
284.198	112.3
284.413	50.86
284.628	77.48
284.843	3.75
285.058	-31.06
285.274	11.95
285.489	-53.59
285.704	118.44
285.919	79.53
286.134	38.57
286.349	5.8
286.564	61.1
286.779	36.52
286.995	36.52
287.21	24.23
287.425	73.39
287.64	77.48
287.855	36.52
288.07	30.38
288.285	52.91
288.5	20.14
288.715	93.87
288.93	77.48
289.145	36.52
289.36	-37.2
289.575	48.81
289.79	9.9
290.004	59.05
290.219	122.54
290.434	-2.39
290.649	24.23
290.864	22.19
291.079	30.38
291.294	104.11
291.509	57
291.724	63.15
291.938	-2.39
292.153	104.11
292.368	50.86
292.583	-10.58
292.798	132.78
293.012	38.57
293.227	22.19
293.442	44.71
293.657	34.47
293.871	130.73
294.086	50.86
294.301	118.44
294.516	48.81
294.73	61.1
294.945	73.39
295.16	79.53
295.374	104.11
295.589	63.15
295.804	22.19
296.018	57
296.233	32.43
296.447	44.71
296.662	91.82
296.877	87.72
297.091	83.63
297.306	3.75
297.52	77.48
297.735	79.53
297.949	75.43
298.164	73.39
298.378	61.1
298.593	116.39
298.807	77.48
299.022	22.19
299.236	50.86
299.451	16.04
299.665	120.49
299.88	118.44
300.094	-8.53
300.309	71.34
300.523	16.04
300.737	61.1
300.952	57
301.166	42.67
301.381	46.76
301.595	52.91
301.809	38.57
302.024	71.34
302.238	26.28
302.452	20.14
302.667	50.86
302.881	50.86
303.095	-0.34
303.309	67.24
303.524	-47.44
303.738	44.71
303.952	26.28
304.166	20.14
304.381	18.09
304.595	93.87
304.809	42.67
305.023	36.52
305.237	7.85
305.452	57
305.666	48.81
305.88	108.2
306.094	63.15
306.308	79.53
306.522	89.77
306.736	57
306.95	77.48
307.164	13.99
307.379	61.1
307.593	59.05
307.807	16.04
308.021	61.1
308.235	87.72
308.449	32.43
308.663	30.38
308.877	57
309.091	83.63
309.305	67.24
309.519	-47.44
309.733	93.87
309.947	59.05
310.161	87.72
310.374	16.04
310.588	108.2
310.802	5.8
311.016	22.19
311.23	89.77
311.444	34.47
311.658	46.76
311.872	89.77
312.085	73.39
312.299	67.24
312.513	36.52
312.727	114.34
312.941	104.11
313.154	79.53
313.368	40.62
313.582	22.19
313.796	67.24
314.009	100.01
314.223	87.72
314.437	83.63
314.651	87.72
314.864	38.57
315.078	40.62
315.292	-31.06
315.505	48.81
315.719	91.82
315.933	20.14
316.146	-22.87
316.36	73.39
316.573	52.91
316.787	108.2
317.001	134.82
317.214	26.28
317.428	75.43
317.641	46.76
317.855	-4.44
318.068	20.14
318.282	44.71
318.495	73.39
318.709	122.54
318.922	50.86
319.136	104.11
319.349	46.76
319.563	50.86
319.776	77.48
319.99	20.14
320.203	-16.73
320.417	87.72
320.63	59.05
320.843	134.82
321.057	50.86
321.27	61.1
321.483	38.57
321.697	134.82
321.91	-0.34
322.124	52.91
322.337	79.53
322.55	65.19
322.763	20.14
322.977	75.43
323.19	-10.58
323.403	136.87
323.617	97.96
323.83	126.63
324.043	79.53
324.256	18.09
324.469	40.62
324.683	5.8
324.896	-12.63
325.109	138.92
325.322	30.38
325.535	85.67
325.748	57
325.962	65.19
326.175	26.28
326.388	46.76
326.601	118.44
326.814	-35.16
327.027	11.95
327.24	143.02
327.453	20.14
327.666	91.82
327.879	38.57
328.092	89.77
328.305	42.67
328.518	81.58
328.731	69.29
328.944	57
329.157	44.71
329.37	67.24
329.583	54.95
329.796	83.63
330.009	57
330.222	79.53
330.435	50.86
330.648	95.91
330.861	134.82
331.073	134.82
331.286	42.67
331.499	48.81
331.712	61.1
331.925	75.43
332.138	155.3
332.35	136.87
332.563	1.71
332.776	106.15
332.989	28.33
333.202	69.29
333.414	85.67
333.627	85.67
333.84	52.91
334.053	30.38
334.265	63.15
334.478	102.06
334.691	-2.39
334.903	48.81
335.116	42.67
335.329	44.71
335.541	157.35
335.754	143.02
335.966	-35.16
336.179	-4.44
336.392	9.9
336.604	63.15
336.817	104.11
337.029	93.87
337.242	40.62
337.454	73.39
337.667	65.19
337.88	83.63
338.092	81.58
338.305	61.1
338.517	85.67
338.729	71.34
338.942	65.19
339.154	34.47
339.367	16.04
339.579	71.34
339.792	-12.63
340.004	145.06
340.217	-39.25
340.429	87.72
340.641	57
340.854	57
341.066	124.58
341.278	71.34
341.491	155.3
341.703	36.52
341.915	1.71
342.128	67.24
342.34	16.04
342.552	83.63
342.764	61.1
342.977	-16.73
343.189	67.24
343.401	100.01
343.613	42.67
343.826	20.14
344.038	-12.63
344.25	124.58
344.462	38.57
344.674	46.76
344.886	67.24
345.099	67.24
345.311	59.05
345.523	81.58
345.735	42.67
345.947	69.29
346.159	9.9
346.371	42.67
346.583	40.62
346.795	22.19
347.007	87.72
347.219	22.19
347.431	46.76
347.643	77.48
347.855	7.85
348.067	71.34
348.279	40.62
348.491	57
348.703	79.53
348.915	61.1
349.127	67.24
349.339	44.71
349.551	95.91
349.763	116.39
349.975	77.48
350.187	100.01
350.399	63.15
350.61	65.19
350.822	-10.58
351.034	16.04
351.246	50.86
351.458	50.86
351.669	100.01
351.881	77.48
352.093	22.19
352.305	79.53
352.517	30.38
352.728	75.43
352.94	22.19
353.152	75.43
353.363	110.25
353.575	65.19
353.787	69.29
353.999	48.81
354.21	140.97
354.422	44.71
354.633	69.29
354.845	93.87
355.057	54.95
355.268	38.57
355.48	102.06
355.692	59.05
355.903	-12.63
356.115	36.52
356.326	-49.49
356.538	87.72
356.749	116.39
356.961	34.47
357.172	75.43
357.384	69.29
357.595	161.45
357.807	110.25
358.018	40.62
358.23	61.1
358.441	147.11
358.653	65.19
358.864	48.81
359.075	36.52
359.287	114.34
359.498	57
359.709	91.82
359.921	-16.73
360.132	-18.77
360.344	112.3
360.555	46.76
360.766	112.3
360.977	46.76
361.189	124.58
361.4	50.86
361.611	114.34
361.823	65.19
362.034	-31.06
362.245	48.81
362.456	3.75
362.667	120.49
362.879	112.3
363.09	95.91
363.301	110.25
363.512	114.34
363.723	100.01
363.935	36.52
364.146	145.06
364.357	26.28
364.568	85.67
364.779	61.1
364.99	138.92
365.201	38.57
365.412	102.06
365.623	38.57
365.834	100.01
366.045	40.62
366.256	124.58
366.467	61.1
366.678	97.96
366.889	46.76
367.1	40.62
367.311	87.72
367.522	122.54
367.733	128.68
367.944	136.87
368.155	57
368.366	126.63
368.577	79.53
368.788	63.15
368.999	24.23
369.209	79.53
369.42	130.73
369.631	89.77
369.842	34.47
370.053	81.58
370.264	69.29
370.474	61.1
370.685	122.54
370.896	95.91
371.107	67.24
371.317	73.39
371.528	30.38
371.739	118.44
371.95	63.15
372.16	71.34
372.371	155.3
372.582	89.77
372.792	91.82
373.003	63.15
373.214	188.07
373.424	104.11
373.635	32.43
373.846	69.29
374.056	32.43
374.267	34.47
374.477	71.34
374.688	85.67
374.898	36.52
375.109	77.48
375.319	73.39
375.53	167.59
375.74	97.96
375.951	38.57
376.161	85.67
376.372	46.76
376.582	50.86
376.793	116.39
377.003	26.28
377.214	67.24
377.424	91.82
377.635	46.76
377.845	42.67
378.055	73.39
378.266	104.11
378.476	149.16
378.686	108.2
378.897	75.43
379.107	46.76
379.317	116.39
379.528	89.77
379.738	63.15
379.948	-39.25
380.158	126.63
380.369	132.78
380.579	44.71
380.789	34.47
380.999	52.91
381.21	110.25
381.42	120.49
381.63	73.39
381.84	87.72
382.05	63.15
382.261	175.78
382.471	75.43
382.681	71.34
382.891	134.82
383.101	-8.53
383.311	89.77
383.521	42.67
383.731	52.91
383.941	124.58
384.151	120.49
384.361	40.62
384.571	130.73
384.781	28.33
384.991	108.2
385.201	110.25
385.411	61.1
385.621	24.23
385.831	52.91
386.041	116.39
386.251	52.91
386.461	116.39
386.671	91.82
386.881	50.86
387.091	13.99
387.301	171.69
387.511	32.43
387.72	83.63
387.93	85.67
388.14	69.29
388.35	32.43
388.56	183.98
388.769	126.63
388.979	173.74
389.189	100.01
389.399	93.87
389.609	89.77
389.818	85.67
390.028	104.11
390.238	67.24
390.447	100.01
390.657	63.15
390.867	85.67
391.076	97.96
391.286	26.28
391.496	110.25
391.705	104.11
391.915	155.3
392.125	114.34
392.334	120.49
392.544	85.67
392.753	100.01
392.963	32.43
393.172	85.67
393.382	71.34
393.591	91.82
393.801	81.58
394.01	140.97
394.22	122.54
394.429	95.91
394.639	48.81
394.848	188.07
395.058	91.82
395.267	159.4
395.477	63.15
395.686	100.01
395.895	177.83
396.105	173.74
396.314	163.5
396.524	83.63
396.733	89.77
396.942	192.17
397.152	97.96
397.361	159.4
397.57	169.64
397.78	108.2
397.989	116.39
398.198	106.15
398.407	175.78
398.617	194.22
398.826	118.44
399.035	75.43
399.244	130.73
399.453	229.03
399.663	253.61
399.872	134.82
400.081	145.06
400.29	169.64
400.499	155.3
400.708	241.32
400.917	194.22
401.127	200.36
401.336	112.3
401.545	237.22
401.754	177.83
401.963	216.74
402.172	188.07
402.381	140.97
402.59	245.41
402.799	175.78
403.008	138.92
403.217	155.3
403.426	192.17
403.635	183.98
403.844	214.7
404.053	239.27
404.262	276.13
404.471	210.6
404.68	267.94
404.888	229.03
405.097	255.65
405.306	175.78
405.515	249.51
405.724	220.84
405.933	249.51
406.142	237.22
406.35	241.32
406.559	333.48
406.768	255.65
406.977	282.28
407.185	341.67
407.394	298.66
407.603	251.56
407.812	360.1
408.02	317.09
408.229	259.75
408.438	382.63
408.646	325.29
408.855	362.15
409.064	319.14
409.272	374.44
409.481	423.59
409.69	515.75
409.898	464.55
410.107	489.12
410.315	392.87
410.524	474.79
410.733	448.16
410.941	509.6
411.15	517.79
411.358	571.04
411.567	593.57
411.775	581.28
411.984	620.19
412.192	698.02
412.401	687.78
412.609	648.86
412.818	720.54
413.026	741.02
413.234	796.32
413.443	667.3
413.651	833.18
413.86	747.17
414.068	894.62
414.276	927.39
414.485	915.1
414.693	927.39
414.901	972.44
415.11	958.11
415.318	1048.22
415.526	1031.83
415.734	1152.67
415.943	1089.18
416.151	1158.81
416.359	1259.16
416.567	1263.26
416.776	1238.68
416.984	1390.23
417.192	1390.23
417.4	1345.17
417.608	1359.51
417.817	1468.05
418.025	1687.18
418.233	1642.13
418.441	1586.83
418.649	1652.37
418.857	1859.21
419.065	1740.43
419.273	1873.55
419.481	2008.72
419.689	2088.59
419.897	2166.41
420.105	2154.12
420.313	2258.57
420.521	2430.6
420.729	2444.93
420.937	2516.61
421.145	2430.6
421.353	2645.63
421.561	2758.27
421.769	2928.25
421.977	3063.42
422.185	2905.73
422.393	3133.05
422.601	3391.09
422.809	3296.89
423.017	3319.42
423.224	3503.73
423.432	3581.56
423.64	3667.57
423.848	3942
424.056	3921.52
424.263	4146.8
424.471	4083.31
424.679	4144.75
424.887	4353.64
425.094	4505.19
425.302	4652.64
425.51	4834.91
425.718	4957.79
425.925	4972.13
426.133	5191.26
426.341	5467.74
426.548	5688.92
426.756	5736.02
426.964	5697.11
427.171	6045.26
427.379	6233.68
427.586	6192.72
427.794	6448.71
428.001	6940.22
428.209	7120.45
428.417	6846.02
428.624	7411.26
428.832	7622.2
429.039	7585.33
429.247	7689.78
429.454	8351.28
429.662	8775.2
429.869	8150.57
430.076	8773.16
430.284	8474.15
430.491	8795.68
430.699	9455.13
430.906	9375.26
431.114	9508.38
431.321	9991.7
431.528	10307.09
431.736	10921.48
431.943	11146.75
432.15	10767.88
432.358	11052.55
432.565	11711.99
432.772	11634.17
432.979	12299.76
433.187	12414.45
433.394	12473.84
433.601	13381.09
433.808	13479.39
434.016	13207.01
434.223	13909.46
434.43	14765.51
434.637	14525.9
434.844	15128
435.052	15613.37
435.259	15439.3
435.466	15570.37
435.673	15472.06
435.88	16287.15
436.087	17460.64
436.294	17601.95
436.501	17075.62
436.708	17296.8
436.915	17788.32
437.122	18466.19
437.329	18660.75
437.537	18908.55
437.743	19697.02
437.95	19318.15
438.157	20606.32
438.364	20903.28
438.571	21185.9
438.778	21380.45
438.985	23104.84
439.192	22209.88
439.399	23043.4
439.606	22568.27
439.813	23637.31
440.02	25007.41
440.227	24704.31
440.433	24732.98
440.64	25261.35
440.847	25085.23
441.054	25818.4
441.261	27673.86
441.467	26920.21
441.674	27839.75
441.881	28327.16
442.088	28783.86
442.294	28486.9
442.501	29310.19
442.708	29873.38
442.914	30905.56
443.121	32439.48
443.328	31554.76
443.534	33746.09
443.741	32490.68
443.948	32236.73
444.154	34380.96
444.361	34051.24
444.568	34634.91
444.774	34387.1
444.981	34743.45
445.187	35884.17
445.394	37485.68
445.6	37063.8
445.807	40252.48
446.013	38829.15
446.22	39244.88
446.426	41002.04
446.633	41346.1
446.839	42738.72
447.046	41106.49
447.252	43107.35
447.459	43117.59
447.665	43021.34
447.871	45341.69
448.078	46795.74
448.284	44950.52
448.491	45757.42
448.697	47748.05
448.903	48067.53
449.11	48501.7
449.316	47512.53
449.522	48978.88
449.728	49834.93
449.935	50064.3
450.141	50344.87
450.347	51809.17
450.553	49570.74
450.76	50801.57
450.966	52022.16
451.172	51702.68
451.378	52599.69
451.584	52042.64
451.791	52689.8
451.997	52835.2
452.203	53592.95
452.409	54104.95
452.615	53318.53
452.821	51561.37
453.027	51102.62
453.233	53384.06
453.44	51409.82
453.646	52384.65
453.852	52122.51
454.058	53023.62
454.264	51864.47
454.47	52716.42
454.676	51612.57
454.882	53162.88
455.088	49001.41
455.294	49793.97
455.5	50367.4
455.705	50850.72
455.911	48716.74
456.117	47940.56
456.323	47651.8
456.529	44932.09
456.735	46918.62
456.941	45575.16
457.147	45255.67
457.352	43744.27
457.558	43004.95
457.764	43107.35
457.97	42425.38
458.176	41641.01
458.381	41948.2
458.587	39318.61
458.793	39488.59
458.999	37588.08
459.204	40111.17
459.41	38972.5
459.616	36648.06
459.821	36424.83
460.027	36179.07
460.233	35265.68
460.438	33780.9
460.644	34225.31
460.85	32892.08
461.055	32214.21
461.261	32171.2
461.466	29547.75
461.672	28835.06
461.878	30653.65
462.083	28759.28
462.289	28321.02
462.494	28019.97
462.7	26750.23
462.905	26096.92
463.111	27041.04
463.316	27401.48
463.522	26531.09
463.727	26504.47
463.932	26483.99
464.138	26563.86
464.343	26443.03
464.549	25589.03
464.754	26352.92
464.959	26197.27
465.165	26092.83
465.37	25140.52
465.575	24231.22
465.781	25335.08
465.986	25189.67
466.191	24485.17
466.397	23866.69
466.602	22848.85
466.807	23797.06
467.012	23600.45
467.218	23522.63
467.423	23377.22
467.628	23317.83
467.833	24159.55
468.038	23147.85
468.244	22818.13
468.449	23590.21
468.654	22881.61
468.859	22979.92
469.064	22895.95
469.269	21876.06
469.474	22103.39
469.679	22187.35
469.885	21826.91
470.09	22091.1
470.295	21937.5
470.5	21376.36
470.705	21575.01
470.91	21089.64
471.115	21097.83
471.32	21189.99
471.525	21042.54
471.73	20559.22
471.935	20419.96
472.139	19852.67
472.344	20106.62
472.549	19832.19
472.754	19740.03
472.959	18910.6
473.164	18838.92
473.369	18707.85
473.574	19176.84
473.778	19107.21
473.983	18998.66
474.188	18759.05
474.393	17892.76
474.598	17964.44
474.802	17976.73
475.007	17673.63
475.212	18005.4
475.417	17014.18
475.621	16948.65
475.826	17284.51
476.031	17014.18
476.235	16496.05
476.44	16584.11
476.645	16209.33
476.849	16551.34
477.054	16262.58
477.259	16223.67
477.463	15977.91
477.668	15596.99
477.872	15809.98
478.077	15564.22
478.282	14982.6
478.486	15082.95
478.691	14835.14
478.895	14978.5
479.1	14839.24
479.304	14611.92
479.509	14327.25
479.713	14939.59
479.918	14243.28
480.122	14282.19
480.326	14427.6
480.531	14405.07
480.735	14245.33
480.94	14106.07
481.144	14503.37
481.348	13749.72
481.553	14104.02
481.757	13823.45
481.961	13788.63
482.166	13981.14
482.37	13917.65
482.574	13342.18
482.778	13598.17
482.983	14050.77
483.187	13637.08
483.391	13794.78
483.595	13694.43
483.8	13417.95
484.004	13501.92
484.208	14128.6
484.412	13813.21
484.616	13727.19
484.821	13794.78
485.025	13782.49
485.229	13702.62
485.433	13669.85
485.637	13616.6
485.841	13647.32
486.045	13768.15
486.249	13669.85
486.453	13372.89
486.657	13467.1
486.861	13749.72
487.065	13442.53
487.269	13673.95
487.473	13389.28
487.677	13655.51
487.881	13675.99
488.085	13510.11
488.289	13845.98
488.493	13407.71
488.697	13813.21
488.901	13624.79
489.105	13596.12
489.309	13581.79
489.512	13821.4
489.716	13854.17
489.92	14159.31
490.124	13694.43
490.328	13993.43
490.531	13841.88
490.735	13977.05
490.939	14325.2
491.143	13895.13
491.346	14134.74
491.55	14243.28
491.754	14077.4
491.958	14339.54
492.161	14417.36
492.365	14298.58
492.569	14343.63
492.772	14407.12
492.976	14298.58
493.18	14566.86
493.383	14722.51
493.587	14558.67
493.79	14794.18
493.994	14544.33
494.197	14759.37
494.401	15054.28
494.605	14906.82
494.808	15285.7
495.012	15373.76
495.215	15388.1
495.419	15418.82
495.622	15492.54
495.825	15650.24
496.029	15381.95
496.232	16203.19
496.436	15881.66
496.639	16405.94
496.843	16264.63
497.046	16551.34
497.249	16903.59
497.453	16831.91
497.656	17024.42
497.859	17071.53
498.063	17393.06
498.266	17409.44
498.469	17243.56
498.673	17722.78
498.876	17927.58
499.079	18378.13
499.282	18070.93
499.485	18515.34
499.689	18599.31
499.892	19006.86
500.095	19015.05
500.298	19297.67
500.501	19256.71
500.705	19756.41
500.908	20008.31
501.111	19920.25
501.314	20401.52
501.517	20508.02
501.72	20794.73
501.923	20696.43
502.126	21067.11
502.329	21544.29
502.532	21552.48
502.735	21701.98
502.938	22185.3
503.141	22035.8
503.344	22426.96
503.547	22639.95
503.75	22801.74
503.953	23369.03
504.156	23371.08
504.359	23373.13
504.562	23520.58
504.765	24300.86
504.968	24608.05
505.17	24642.87
505.373	24489.27
505.576	24905.01
505.779	25404.71
505.982	25629.99
506.185	25730.34
506.387	26307.87
506.59	26154.27
506.793	27022.61
506.996	26492.18
507.198	27286.79
507.401	27288.84
507.604	27776.26
507.807	27878.66
508.009	27890.95
508.212	28255.48
508.415	28716.28
508.617	29099.25
508.82	29148.4
509.022	28974.32
509.225	30037.22
509.428	29938.91
509.63	30123.23
509.833	30522.58
510.035	30934.23
510.238	31073.49
510.44	31093.97
510.643	31503.56
510.845	32287.93
511.048	31728.84
511.25	32312.51
511.453	32832.69
511.655	33557.67
511.858	33195.18
512.06	33332.4
512.262	33785
512.465	33979.56
512.667	34172.07
512.87	34524.32
513.072	34944.15
513.274	35302.54
513.477	35966.09
513.679	35851.4
513.881	36469.89
514.084	36572.28
514.286	36461.69
514.488	36871.29
514.69	37805.16
514.893	37674.09
515.095	37796.97
515.297	38337.63
515.499	38546.53
515.701	39019.61
515.904	39158.87
516.106	39265.36
516.308	39752.78
516.51	40080.46
516.712	40096.84
516.914	40512.58
517.116	41286.71
517.318	41497.65
517.52	41243.7
517.722	41995.31
517.925	42230.82
518.127	42462.24
518.329	42871.84
518.531	42810.4
518.733	43430.93
518.935	43680.78
519.136	43537.43
519.338	44336.13
519.54	44409.86
519.742	45165.56
519.944	44903.42
520.146	45333.49
520.348	45206.52
520.55	45956.08
520.752	46246.89
520.954	46945.25
521.155	46541.8
521.357	46775.26
521.559	47264.73
521.761	48458.7
521.963	48016.33
522.164	48180.17
522.366	48223.18
522.568	48440.26
522.77	48524.23
522.971	49304.51
523.173	49114.05
523.375	49589.17
523.576	49572.79
523.778	49793.97
523.98	50518.95
524.181	50531.24
524.383	50777
524.584	51024.8
524.786	50793.38
524.988	50576.29
525.189	51239.84
525.391	51452.83
525.592	51950.48
525.794	52276.11
525.995	52341.64
526.197	52366.22
526.398	52333.45
526.6	52824.96
526.801	52628.36
527.003	53009.28
527.204	53048.19
527.406	53269.37
527.607	53398.4
527.808	53873.52
528.01	52980.61
528.211	53341.05
528.412	54475.63
528.614	54057.84
528.815	53986.16
529.016	54508.39
529.218	54162.29
529.419	54117.23
529.62	54500.2
529.822	54231.92
530.023	54240.11
530.224	54174.58
530.425	54926.18
530.626	54582.12
530.828	54037.36
531.029	55382.88
531.23	54573.93
531.431	54840.17
531.632	54809.45
531.833	54922.08
532.035	54971.24
532.236	54848.36
532.437	55227.23
532.638	54879.08
532.839	55538.52
533.04	55139.17
533.241	54803.3
533.442	56138.58
533.643	55264.1
533.844	55323.49
534.045	55569.24
534.246	55102.31
534.447	55348.06
534.648	54954.85
534.849	55247.71
535.05	54891.37
535.251	55294.81
535.451	54741.86
535.652	55382.88
535.853	55202.66
536.054	55280.48
536.255	55255.9
536.456	54598.51
536.657	55376.73
536.857	55130.98
537.058	55036.77
537.259	55642.97
537.46	55057.25
537.66	55145.31
537.861	55245.66
538.062	55014.24
538.263	55421.79
538.463	54811.49
538.664	54713.19
538.865	54754.15
539.065	55602.01
539.266	54393.71
539.466	55415.65
539.667	54553.45
539.868	55597.91
540.068	54438.76
540.269	54909.8
540.469	55249.76
540.67	54862.69
540.87	54920.04
541.071	54457.2
541.271	55237.47
541.472	54987.62
541.672	54524.78
541.873	54709.1
542.073	54324.08
542.274	55069.54
542.474	54158.19
542.675	54268.78
542.875	55026.53
543.075	54567.79
543.276	54322.03
543.476	55022.44
543.676	54201.2
543.877	54752.1
544.077	54670.18
544.277	54203.25
544.478	54496.11
544.678	54641.51
544.878	54631.27
545.078	54500.2
545.279	54164.34
545.479	54215.54
545.679	54301.55
545.879	54553.45
546.079	54528.87
546.28	54160.24
546.48	53707.64
546.68	54315.89
546.88	54070.13
547.08	54279.02
547.28	54489.96
547.48	53857.14
547.68	54168.43
547.88	53762.93
548.081	54217.58
548.281	54266.73
548.481	53508.99
548.681	54594.41
548.881	54168.43
549.081	54172.53
549.28	54229.87
549.48	54106.99
549.68	53990.26
549.88	54543.21
550.08	53537.66
550.28	53746.55
550.48	53756.79
550.68	54264.69
550.88	53941.11
551.08	53814.13
551.279	54053.75
551.479	53607.29
551.679	53685.11
551.879	53375.87
552.079	53707.64
552.278	53341.05
552.478	53300.09
552.678	53934.96
552.878	53382.01
553.077	53371.77
553.277	53080.96
553.477	53773.17
553.676	53052.29
553.876	53302.14
554.076	53369.72
554.275	53087.1
554.475	52880.26
554.674	53146.5
554.874	53314.43
555.074	52933.51
555.273	52837.25
555.473	53472.12
555.672	52913.03
555.872	52994.95
556.071	53263.23
556.271	53076.86
556.47	52628.36
556.67	52462.47
556.869	52726.66
557.068	52728.71
557.268	52368.27
557.467	52611.98
557.667	52517.77
557.866	53220.22
558.065	52730.76
558.265	52542.34
558.464	51989.39
558.663	52697.99
558.863	52085.65
559.062	52935.55
559.261	51905.43
559.461	52413.32
559.66	51485.59
559.859	52274.06
560.058	51776.4
560.258	52079.5
560.457	51426.2
560.656	52188.05
560.855	51614.62
561.054	52376.46
561.253	51858.32
561.453	52255.63
561.652	51606.42
561.851	51583.9
562.05	51233.69
562.249	51061.66
562.448	51854.23
562.647	51653.53
562.846	51342.24
563.045	51143.58
563.244	50850.72
563.443	52003.73
563.642	50500.52
563.841	51260.32
564.04	50510.76
564.239	51258.27
564.438	50840.48
564.637	50860.96
564.836	50674.6
565.035	50170.8
565.234	50377.64
565.432	50559.91
565.631	50211.76
565.83	50619.3
566.029	50342.83
566.228	50205.61
566.427	50039.73
566.625	50072.49
566.824	49712.05
567.023	50187.18
567.222	49288.12
567.42	49750.96
567.619	49761.2
567.818	49308.6
568.016	49257.4
568.215	49777.59
568.414	49288.12
568.612	49925.04
568.811	49042.37
569.01	49658.8
569.208	48927.68
569.407	49298.36
569.605	48405.45
569.804	49411
570.002	48755.65
570.201	48812.99
570.4	48485.32
570.598	48401.35
570.797	48131.02
570.995	48442.31
571.193	47942.61
571.392	48321.48
571.59	48188.36
571.789	47809.49
571.987	47961.04
572.186	47750.1
572.384	47850.45
572.582	47938.51
572.781	48073.68
572.979	47279.07
573.177	47684.56
573.376	47467.48
573.574	47555.54
573.772	47346.65
573.971	47164.38
574.169	46926.81
574.367	47150.04
574.565	47244.25
574.763	46971.87
574.962	46248.94
575.16	46121.96
575.358	46820.32
575.556	45933.55
575.754	46461.93
575.952	45919.21
576.151	46306.28
576.349	45822.96
576.547	46306.28
576.745	46144.49
576.943	45829.1
577.141	45419.51
577.339	45704.18
577.537	45374.45
577.735	45245.43
577.933	45378.55
578.131	45267.96
578.329	45253.62
578.527	44928
578.725	45411.32
578.923	44952.57
579.121	44434.44
579.319	44678.14
579.516	45026.3
579.714	44663.81
579.912	44256.26
580.11	44585.99
580.308	44430.34
580.506	44147.72
580.704	43453.46
580.901	44299.27
581.099	44516.36
581.297	43416.6
581.495	43693.07
581.692	43815.95
581.89	43357.21
582.088	43719.7
582.285	43103.26
582.483	43392.02
582.681	42904.6
582.878	42990.62
583.076	42535.97
583.274	42941.47
583.471	42550.31
583.669	43013.15
583.866	42495.01
584.064	42476.58
584.262	42013.74
584.459	42269.73
584.657	41894.96
584.854	42460.19
585.052	41745.45
585.249	41794.6
585.447	41970.73
585.644	41573.42
585.841	41583.66
586.039	41843.76
586.236	41145.4
586.434	41192.5
586.631	41210.93
586.828	41006.14
587.026	40983.61
587.223	40696.89
587.42	40889.4
587.618	41114.68
587.815	40744
588.012	40141.89
588.21	40199.24
588.407	41049.14
588.604	40180.81
588.801	39652.43
588.999	40053.83
589.196	40154.18
589.393	39488.59
589.59	39437.39
589.787	39236.69
589.984	39566.41
590.182	38794.33
590.379	39390.29
590.576	39083.09
590.773	39308.37
590.97	38493.28
591.167	38931.54
591.364	38612.06
591.561	38978.65
591.758	38233.19
591.955	38138.98
592.152	38716.51
592.349	38204.52
592.546	38132.84
592.743	38308.96
592.94	37483.63
593.137	38024.29
593.334	37690.48
593.531	37473.39
593.727	37534.83
593.924	37575.79
594.121	37088.37
594.318	37469.29
594.515	36830.33
594.712	37196.92
594.908	36699.26
595.105	36809.85
595.302	36977.78
595.499	36510.85
595.696	36793.47
595.892	36439.17
596.089	36238.47
596.286	36328.58
596.482	36228.23
596.679	36041.86
596.876	36371.58
597.072	36002.95
597.269	35968.13
597.466	35521.68
597.662	35411.09
597.859	35613.84
598.055	35468.43
598.252	35081.36
598.448	35222.67
598.645	34966.68
598.841	34925.72
599.038	34905.24
599.234	34653.34
599.431	34600.09
599.627	34432.16
599.824	34567.32
600.02	34317.47
600.217	34329.76
600.413	34133.15
600.609	34202.78
600.806	33703.08
601.002	33733.8
601.198	33647.79
601.395	33273.01
601.591	33455.28
601.787	33692.84
601.984	33299.63
602.18	33602.73
602.376	33082.55
602.572	33100.98
602.769	32920.76
602.965	32830.65
603.161	32795.83
603.357	32478.4
603.553	32443.58
603.75	32496.83
603.946	32396.48
604.142	32443.58
604.338	32154.82
604.534	32363.71
604.73	31833.28
604.926	31964.35
605.122	32175.3
605.318	31579.34
605.514	31585.48
605.71	31470.79
605.906	31835.33
606.102	31907.01
606.298	31501.51
606.494	31628.49
606.69	31550.67
606.886	31417.55
607.082	30627.03
607.278	31407.31
607.474	30696.66
607.67	30975.19
607.866	30287.07
608.062	31057.1
608.257	30600.41
608.453	30696.66
608.649	30622.94
608.845	30500.06
609.041	30473.43
609.236	30567.64
609.432	30295.26
609.628	30328.03
609.824	30371.04
610.019	30053.6
610.215	30344.41
610.411	30215.39
610.606	30086.37
610.802	30172.38
610.998	29662.44
611.193	29924.58
611.389	29695.21
611.584	29424.87
611.78	29465.83
611.976	29607.14
612.171	29410.54
612.367	29584.62
612.562	29281.52
612.758	29011.18
612.953	29023.47
613.149	29586.66
613.344	28970.22
613.539	29535.46
613.735	28759.28
613.93	28759.28
614.126	28740.85
614.321	29101.29
614.517	29154.54
614.712	29060.34
614.907	28814.58
615.103	28898.55
615.298	28337.4
615.493	28992.75
615.688	28411.13
615.884	28964.08
616.079	28331.26
616.274	28888.31
616.47	28351.74
616.665	28529.91
616.86	28187.9
617.055	28372.22
617.25	27964.67
617.445	28534.01
617.641	27495.69
617.836	28085.5
618.031	27471.11
618.226	27788.55
618.421	27720.96
618.616	27919.62
618.811	27043.09
619.006	27905.28
619.201	27262.22
619.396	27428.1
619.591	26979.6
619.786	27280.65
619.981	26668.31
620.176	26975.5
620.371	26516.76
620.566	26733.84
620.761	26537.24
620.956	26529.05
621.151	26303.77
621.346	26234.14
621.541	25519.4
621.735	26101.02
621.93	25627.94
622.125	25777.44
622.32	25318.7
622.515	25570.6
622.709	25435.43
622.904	24610.1
623.099	24888.62
623.294	24933.68
623.488	24859.95
623.683	24614.2
623.878	24358.2
624.072	24812.85
624.267	24503.6
624.462	24145.21
624.656	24091.96
624.851	24118.59
625.046	23872.83
625.24	23780.67
625.435	23371.08
625.629	23469.38
625.824	23317.83
626.018	23143.75
626.213	22590.8
626.407	22838.61
626.602	22850.89
626.796	22648.15
626.991	22551.89
627.185	22576.47
627.38	22359.38
627.574	22254.94
627.768	22025.56
627.963	21779.81
628.157	21679.46
628.352	21949.79
628.546	21697.89
628.74	21556.58
628.935	21390.69
629.129	21394.79
629.323	20974.95
629.517	20923.76
629.712	21013.87
629.906	21120.36
630.1	20534.64
630.294	20403.57
630.489	20553.07
630.683	20630.9
630.877	19981.69
631.071	20321.65
631.265	20102.52
631.459	20030.84
631.653	19977.59
631.848	19676.54
632.042	19766.65
632.236	19737.98
632.43	19473.79
632.624	19598.72
632.818	19582.34
633.012	19129.73
633.206	19137.93
633.4	19072.39
633.594	18797.96
633.788	19008.9
633.982	18994.57
634.176	18656.65
634.369	18412.95
634.563	18492.82
634.757	18328.98
634.951	18509.2
635.145	18507.15
635.339	18163.09
635.533	18007.45
635.726	18136.47
635.92	17640.86
636.114	17780.12
636.308	17927.58
636.501	17626.53
636.695	17548.7
636.889	17601.95
637.083	17276.32
637.276	17358.24
637.47	17171.88
637.664	16897.45
637.857	16838.06
638.051	17110.44
638.244	16868.78
638.438	16483.76
638.632	16450.99
638.825	16565.68
639.019	16487.86
639.212	16149.94
639.406	16379.31
639.599	16293.3
639.793	16285.11
639.986	15791.55
640.18	16121.27
640.373	15715.77
640.567	15787.45
640.76	15705.53
640.954	15588.8
641.147	15580.6
641.34	15316.42
641.534	15449.53
641.727	15414.72
641.92	15453.63
642.114	15252.93
642.307	15214.02
642.5	15175.11
642.694	14882.25
642.887	14783.95
643.08	14996.93
643.273	14800.33
643.467	14740.94
643.66	14661.07
643.853	14431.69
644.046	14247.38
644.239	14505.42
644.432	14398.93
644.626	14128.6
644.819	14357.97
645.012	14018
645.205	13901.27
645.398	13886.93
645.591	13876.69
645.784	13999.57
645.977	13776.34
646.17	13778.39
646.363	13888.98
646.556	13473.25
646.749	13252.06
646.942	13295.07
647.135	13227.49
647.328	13219.3
647.521	13133.28
647.714	12914.15
647.907	13184.48
648.099	12770.79
648.292	13061.6
648.485	12891.62
648.678	12678.63
648.871	12672.49
649.064	12604.91
649.256	12770.79
649.449	12516.84
649.642	12582.38
649.835	12365.29
650.027	12273.14
650.22	12211.7
650.413	12217.84
650.605	12076.53
650.798	12002.8
650.991	11728.38
651.183	12088.82
651.376	11963.89
651.568	11853.3
651.761	11689.46
651.954	11492.86
652.146	11679.22
652.339	11605.5
652.531	11402.75
652.724	11640.31
652.916	11361.79
653.109	11480.57
653.301	11308.54
653.494	11412.99
653.686	10970.63
653.879	11267.58
654.071	11134.46
654.263	11007.49
654.456	11093.51
654.648	10931.72
654.84	10577.42
655.033	10814.98
655.225	10735.11
655.417	10456.59
655.61	10366.48
655.802	10728.97
655.994	10513.93
656.186	10429.96
656.379	10225.17
656.571	10333.71
656.763	10264.08
656.955	10210.83
657.148	10300.94
657.34	10143.25
657.532	10065.43
657.724	9940.5
657.916	9973.27
658.108	9944.59
658.3	9836.05
658.492	9733.65
658.684	9760.28
658.876	9874.96
659.068	9610.78
659.26	9371.16
659.452	9543.19
659.644	9307.68
659.836	9268.77
660.028	9436.7
660.22	9233.95
660.412	9537.05
660.604	9184.8
660.796	9317.92
660.988	9141.79
661.18	9143.84
661.372	8834.6
661.563	9106.98
661.755	8871.46
661.947	8883.75
662.139	8818.21
662.331	8787.49
662.522	8834.6
662.714	8662.57
662.906	8560.17
663.097	8611.37
663.289	8554.02
663.481	8441.39
663.673	8551.98
663.864	8437.29
664.056	8361.52
664.247	8437.29
664.439	8300.08
664.631	8341.04
664.822	8156.72
665.014	8209.97
665.205	8164.91
665.397	8101.42
665.588	8408.62
665.78	8048.18
665.971	7986.74
666.163	7986.74
666.354	7910.96
666.546	8033.84
666.737	7913.01
666.929	7822.9
667.12	7730.74
667.311	7880.24
667.503	7650.87
667.694	7747.12
667.885	7616.05
668.077	7751.22
668.268	7718.45
668.459	7341.63
668.651	7429.69
668.842	7564.86
669.033	7429.69
669.224	7380.54
669.416	7667.25
669.607	7272
669.798	7345.72
669.989	7319.1
670.18	7222.84
670.371	7003.71
670.563	7093.82
670.754	7110.21
670.945	7138.88
671.136	7134.78
671.327	6977.09
671.518	7022.14
671.709	7065.15
671.9	6981.18
672.091	7087.68
672.282	6936.13
672.473	6766.15
672.664	6899.27
672.855	6714.95
673.046	6776.39
673.237	6968.9
673.428	6884.93
673.619	6786.63
673.809	6522.44
674	6600.26
674.191	6708.8
674.382	6618.69
674.573	6624.84
674.764	6702.66
674.954	6514.25
675.145	6549.06
675.336	6364.75
675.527	6270.54
675.717	6516.3
675.908	6344.27
676.099	6428.23
676.289	6211.15
676.48	6350.41
676.671	6258.25
676.861	6209.1
677.052	6155.85
677.243	6012.49
677.433	6248.01
677.624	6200.91
677.814	6231.63
678.005	6243.92
678.195	6162
678.386	6254.16
678.576	6053.45
678.767	5973.58
678.957	5860.95
679.148	6106.7
679.338	5875.28
679.529	6016.59
679.719	5832.27
679.909	6143.56
680.1	6035.02
680.29	5906
680.481	5740.12
680.671	5879.38
680.861	5844.56
681.052	5901.9
681.242	5744.21
681.432	5903.95
681.622	5772.88
681.813	5725.78
682.003	5779.03
682.193	5791.31
682.383	5729.88
682.573	5693.01
682.764	5629.52
682.954	5590.61
683.144	5594.71
683.334	5592.66
683.524	5682.77
683.714	5512.79
683.904	5713.49
684.094	5643.86
684.284	5516.89
684.474	5613.14
684.664	5621.33
684.854	5459.54
685.044	5434.97
685.234	5422.68
685.424	5285.47
685.614	5369.43
685.804	5418.58
685.994	5357.14
686.184	5295.71
686.374	5371.48
686.564	5172.83
686.753	5324.38
686.943	5082.72
687.133	5258.84
687.323	5170.78
687.513	5164.64
687.702	4990.56
687.892	5121.63
688.082	5019.23
688.272	5209.69
688.461	5166.68
688.651	5027.42
688.841	4851.3
689.03	4943.46
689.22	5019.23
689.41	4877.92
689.599	4816.48
689.789	4935.26
689.979	4814.43
690.168	4931.17
690.358	4748.9
690.547	4736.61
690.737	4765.28
690.926	4902.5
691.116	4656.74
691.305	4816.48
691.495	4730.47
691.684	4494.95
691.874	4650.6
692.063	4591.2
692.252	4712.03
692.442	4673.12
692.631	4515.43
692.82	4537.96
693.01	4384.36
693.199	4437.61
693.388	4353.64
693.578	4404.84
693.767	4378.22
693.956	4298.35
694.146	4206.19
694.335	4398.7
694.524	4243.05
694.713	4351.59
694.902	4304.49
695.092	4329.06
695.281	4136.56
695.47	4376.17
695.659	4261.48
695.848	4167.28
696.037	4085.36
696.226	4150.89
696.415	4083.31
696.604	4089.45
696.793	4048.49
696.982	4056.68
697.171	4177.51
697.36	4126.32
697.549	4054.64
697.738	4118.12
697.927	3939.95
698.116	4015.73
698.305	3903.09
698.494	4001.39
698.683	3880.56
698.872	3921.52
699.061	3894.9
699.25	3815.02
699.438	3956.33
699.627	3825.26
699.816	3929.71
700.005	3802.74
700.193	3839.6
700.382	3855.98
700.571	3686
700.76	3636.85
700.948	3823.22
701.137	3765.87
701.326	3747.44
701.514	3788.4
701.703	3731.06
701.892	3677.81
702.08	3788.4
702.269	3630.71
702.457	3573.36
702.646	3683.95
702.834	3501.69
703.023	3585.65
703.212	3708.53
703.4	3657.33
703.589	3565.17
703.777	3624.56
703.965	3559.03
704.154	3690.1
704.342	3585.65
704.531	3585.65
704.719	3593.84
704.907	3599.99
705.096	3513.97
705.284	3597.94
705.472	3516.02
705.661	3587.7
705.849	3503.73
706.037	3620.47
706.226	3550.84
706.414	3495.54
706.602	3339.9
706.79	3630.71
706.979	3489.4
707.167	3397.24
707.355	3389.05
707.543	3491.45
707.731	3483.25
707.919	3380.86
708.107	3409.53
708.296	3337.85
708.484	3405.43
708.672	3292.79
708.86	3473.01
709.048	3522.16
709.236	3370.62
709.424	3448.44
709.612	3380.86
709.8	3266.17
709.988	3368.57
710.176	3368.57
710.364	3368.57
710.551	3446.39
710.739	3458.68
710.927	3350.14
711.115	3370.62
711.303	3333.75
711.491	3309.18
711.679	3411.57
711.866	3335.8
712.054	3286.65
712.242	3290.74
712.43	3327.61
712.617	3331.7
712.805	3163.77
712.993	3421.81
713.181	3341.94
713.368	3303.03
713.556	3315.32
713.744	3245.69
713.931	3231.35
714.119	3341.94
714.306	3264.12
714.494	3276.41
714.682	3264.12
714.869	3221.11
715.057	3151.48
715.244	3225.21
715.432	3163.77
715.619	3266.17
715.807	3085.95
715.994	3225.21
716.182	3227.26
716.369	3161.72
716.556	3249.79
716.744	3131
716.931	3131
717.119	3139.19
717.306	3255.93
717.493	3147.39
717.681	3194.49
717.868	3131
718.055	3217.02
718.242	3131
718.43	3210.87
718.617	3104.38
718.804	3184.25
718.991	3161.72
719.179	3137.15
719.366	3212.92
719.553	3161.72
719.74	3108.48
719.927	3241.59
720.114	3192.44
720.301	3163.77
720.488	2981.5
720.676	3143.29
720.863	3212.92
721.05	3274.36
721.237	3141.24
721.424	3092.09
721.611	3133.05
721.798	3143.29
721.985	3118.72
722.172	3182.2
722.358	3020.41
722.545	3208.83
722.732	3098.24
722.919	3212.92
723.106	3114.62
723.293	3137.15
723.48	3165.82
723.667	3169.91
723.853	3108.48
724.04	3149.43
724.227	3182.2
724.414	3159.67
724.6	3149.43
724.787	3214.97
724.974	3155.58
725.161	3171.96
725.347	3124.86
725.534	3155.58
725.72	3079.8
725.907	3157.63
726.094	3221.11
726.28	3182.2
726.467	3094.14
726.653	3141.24
726.84	3165.82
727.027	3196.54
727.213	3135.1
727.4	3143.29
727.586	3053.18
727.773	3139.19
727.959	3167.87
728.145	3307.13
728.332	3102.33
728.518	3163.77
728.705	3221.11
728.891	3110.52
729.077	3231.35
729.264	3192.44
729.45	3198.59
729.636	3255.93
729.823	3180.15
730.009	3108.48
730.195	3307.13
730.382	3108.48
730.568	3151.48
730.754	3214.97
730.94	3284.6
731.126	3288.7
731.313	3337.85
731.499	3260.02
731.685	3208.83
731.871	3296.89
732.057	3253.88
732.243	3348.09
732.429	3227.26
732.615	3376.76
732.801	3192.44
732.987	3253.88
733.173	3227.26
733.359	3212.92
733.545	3190.39
733.731	3112.57
733.917	3272.31
734.103	3440.25
734.289	3272.31
734.475	3235.45
734.661	3231.35
734.847	3327.61
735.033	3303.03
735.219	3204.73
735.404	3219.07
735.59	3186.3
735.776	3141.24
735.962	3296.89
736.148	3325.56
736.333	3323.51
736.519	3378.81
736.705	3323.51
736.89	3212.92
737.076	3278.46
737.262	3229.31
737.447	3327.61
737.633	3257.98
737.819	3378.81
738.004	3262.07
738.19	3272.31
738.375	3268.22
738.561	3241.59
738.747	3274.36
738.932	3354.23
739.118	3358.33
739.303	3362.42
739.489	3354.23
739.674	3190.39
739.859	3268.22
740.045	3319.42
740.23	3245.69
740.416	3145.34
740.601	3174.01
740.786	3206.78
740.972	3253.88
741.157	3284.6
741.342	3198.59
741.528	3208.83
741.713	3198.59
741.898	3257.98
742.084	3288.7
742.269	3128.95
742.454	3079.8
742.639	3368.57
742.824	3124.86
743.01	3159.67
743.195	3270.26
743.38	3221.11
743.565	3266.17
743.75	3139.19
743.935	3116.67
744.12	3210.87
744.305	3169.91
744.49	3061.37
744.675	3135.1
744.86	3094.14
745.045	3135.1
745.23	3171.96
745.415	3092.09
745.6	3147.39
745.785	3212.92
745.97	3114.62
746.155	3176.06
746.34	3243.64
746.525	3016.32
746.71	3157.63
746.895	3083.9
747.079	3065.47
747.264	2987.65
747.449	2987.65
747.634	2928.25
747.819	3044.99
748.003	2875.01
748.188	2883.2
748.373	2911.87
748.557	2928.25
748.742	2889.34
748.927	2918.01
749.111	2924.16
749.296	2819.71
749.481	2915.97
749.665	2739.84
749.85	2832
750.034	2817.66
750.219	2768.51
750.404	2725.51
750.588	2721.41
750.773	2698.88
750.957	2799.23
751.141	2702.98
751.326	2596.48
751.51	2754.18
751.695	2539.14
751.879	2772.61
752.064	2788.99
752.248	2647.68
752.432	2668.16
752.617	2621.06
752.801	2561.67
752.985	2614.91
753.17	2508.42
753.354	2594.44
753.538	2590.34
753.722	2457.22
753.907	2543.24
754.091	2477.7
754.275	2471.56
754.459	2469.51
754.643	2438.79
754.828	2395.78
755.012	2463.37
755.196	2365.06
755.38	2420.36
755.564	2348.68
755.748	2330.25
755.932	2432.65
756.116	2352.77
756.3	2277
756.484	2266.76
756.668	2272.9
756.852	2375.3
757.036	2188.94
757.22	2365.06
757.404	2225.8
757.588	2129.55
757.772	2299.53
757.956	2113.16
758.14	2229.9
758.323	2092.68
758.507	2193.03
758.691	2176.65
758.875	2248.33
759.059	2133.64
759.242	2057.87
759.426	2113.16
759.61	2059.92
759.794	2025.1
759.977	2092.68
760.161	2100.87
760.345	2021
760.528	2107.02
760.712	2029.2
760.895	2006.67
761.079	2061.96
761.263	1971.85
761.446	1998.48
761.63	1965.71
761.813	1984.14
761.997	2002.57
762.18	2021
762.364	1896.08
762.547	1838.73
762.731	1953.42
762.914	1844.88
763.098	1914.51
763.281	1820.3
763.464	2014.86
763.648	1898.13
763.831	1896.08
764.015	1779.34
764.198	1873.55
764.381	1928.85
764.564	1945.23
764.748	1851.02
764.931	1857.17
765.114	1920.65
765.297	1818.25
765.481	1693.33
765.664	1777.3
765.847	1808.02
766.03	1801.87
766.213	1728.14
766.397	1736.34
766.58	1672.85
766.763	1787.54
766.946	1781.39
767.129	1744.53
767.312	1724.05
767.495	1785.49
767.678	1701.52
767.861	1613.46
768.044	1644.18
768.227	1646.23
768.41	1515.16
768.593	1597.07
768.776	1678.99
768.959	1631.89
769.142	1668.75
769.324	1699.47
769.507	1627.79
769.69	1709.71
769.873	1615.51
770.056	1691.28
770.239	1644.18
770.421	1543.83
770.604	1607.31
770.787	1595.03
770.97	1547.92
771.152	1486.48
771.335	1607.31
771.518	1511.06
771.7	1601.17
771.883	1498.77
772.066	1490.58
772.248	1486.48
772.431	1396.37
772.613	1445.52
772.796	1484.44
772.978	1412.76
773.161	1584.79
773.343	1373.85
773.526	1336.98
773.708	1363.61
773.891	1414.81
774.073	1365.65
774.256	1451.67
774.438	1427.09
774.621	1357.46
774.803	1300.12
774.985	1365.65
775.168	1367.7
775.35	1359.51
775.532	1382.04
775.715	1216.15
775.897	1269.4
776.079	1201.82
776.261	1353.37
776.444	1308.31
776.626	1324.69
776.808	1361.56
776.99	1242.78
777.173	1222.3
777.355	1310.36
777.537	1179.29
777.719	1296.02
777.901	1287.83
778.083	1197.72
778.265	1142.43
778.447	1169.05
778.629	1156.76
778.811	1212.06
778.993	1099.42
779.175	1076.89
779.357	1130.14
779.539	1169.05
779.721	1095.32
779.903	1121.95
780.085	1042.07
780.267	1040.03
780.449	1097.37
780.631	1072.79
780.812	974.49
780.994	1029.79
781.176	958.11
781.358	1068.7
781.54	1058.46
781.721	1074.84
781.903	1040.03
782.085	978.59
782.267	1007.26
782.448	962.2
782.63	1021.6
782.812	964.25
782.993	925.34
783.175	923.29
783.357	931.48
783.538	898.72
783.72	878.24
783.901	896.67
784.083	913.05
784.264	1021.6
784.446	890.53
784.627	855.71
784.809	880.29
784.99	882.33
785.172	831.13
785.353	884.38
785.535	865.95
785.716	806.56
785.897	870.05
786.079	861.85
786.26	904.86
786.441	767.65
786.623	792.22
786.804	818.85
786.985	820.89
787.167	781.98
787.348	765.6
787.529	702.11
787.71	841.37
787.891	710.3
788.073	710.3
788.254	710.3
788.435	822.94
788.616	728.74
788.797	675.49
788.978	700.06
789.159	706.21
789.34	724.64
789.522	675.49
789.703	663.2
789.884	706.21
790.065	736.93
790.246	781.98
790.427	638.62
790.607	679.58
790.788	669.34
790.969	599.71
791.15	612
791.331	667.3
791.512	630.43
791.693	646.82
791.874	601.76
792.054	667.3
792.235	638.62
792.416	509.6
792.597	523.94
792.778	601.76
792.958	538.27
793.139	669.34
793.32	577.19
793.5	548.51
793.681	685.73
793.862	591.52
794.042	544.42
794.223	632.48
794.404	595.62
794.584	601.76
794.765	519.84
794.945	472.74
795.126	495.27
795.306	579.23
795.487	548.51
795.667	513.7
795.848	466.6
796.028	515.75
796.209	575.14
796.389	542.37
796.57	505.51
796.75	587.43
796.93	487.08
797.111	413.35
797.291	579.23
797.471	452.26
797.652	542.37
797.832	464.55
798.012	503.46
798.192	472.74
798.373	456.36
798.553	462.5
798.733	495.27
798.913	456.36
799.093	468.64
799.274	442.02
799.454	435.88
799.634	425.64
799.814	478.88
799.994	515.75
800.174	431.78
800.354	499.36
800.534	429.73
800.714	503.46
800.894	448.16
801.074	446.12
801.254	439.97
801.434	439.97
801.614	431.78
801.794	358.05
801.974	929.44
802.154	376.48
802.334	525.99
802.514	409.25
802.693	464.55
802.873	437.92
803.053	497.32
803.233	456.36
803.413	411.3
803.592	425.64
803.772	392.87
803.952	380.58
804.131	317.09
804.311	351.91
804.491	419.49
804.67	362.15
804.85	405.16
805.03	405.16
805.209	386.72
805.389	464.55
805.568	382.63
805.748	286.37
805.928	413.35
806.107	362.15
806.287	382.63
806.466	394.92
806.646	259.75
806.825	380.58
807.004	313
807.184	339.62
807.363	374.44
807.543	335.53
807.722	302.76
807.901	423.59
808.081	425.64
808.26	300.71
808.439	378.53
808.619	341.67
808.798	380.58
808.977	343.72
809.156	298.66
809.336	386.72
809.515	407.2
809.694	349.86
809.873	274.09
810.052	325.29
810.231	353.96
810.411	339.62
810.59	360.1
810.769	265.89
810.948	239.27
811.127	247.46
811.306	325.29
811.485	294.57
811.664	351.91
811.843	276.13
812.022	274.09
812.201	280.23
812.38	253.61
812.559	231.08
812.737	349.86
812.916	220.84
813.095	319.14
813.274	347.81
813.453	231.08
813.632	249.51
813.811	331.43
813.989	212.65
814.168	239.27
814.347	198.31
814.526	278.18
814.704	274.09
814.883	284.33
815.062	259.75
815.24	292.52
815.419	181.93
815.598	210.6
815.776	245.41
815.955	313
816.133	239.27
816.312	243.37
816.49	294.57
816.669	247.46
816.847	284.33
817.026	235.18
817.204	179.88
817.383	251.56
817.561	183.98
817.74	210.6
817.918	290.47
818.097	229.03
818.275	163.5
818.453	259.75
818.632	278.18
818.81	267.94
818.988	251.56
819.167	278.18
819.345	263.85
819.523	216.74
819.701	192.17
819.879	241.32
820.058	251.56
820.236	194.22
820.414	239.27
820.592	171.69
820.77	257.7
820.948	192.17
821.127	186.02
821.305	155.3
821.483	188.07
821.661	276.13
821.839	235.18
822.017	218.79
822.195	247.46
822.373	183.98
822.551	116.39
822.729	245.41
822.907	216.74
823.085	192.17
823.262	200.36
823.44	177.83
823.618	202.41
823.796	145.06
823.974	220.84
824.152	226.98
824.329	194.22
824.507	196.26
824.685	163.5
824.863	132.78
825.04	186.02
825.218	212.65
825.396	147.11
825.574	157.35
825.751	171.69
825.929	231.08
826.107	196.26
826.284	196.26
826.462	214.7
826.639	192.17
826.817	151.21
826.994	206.5
827.172	145.06
827.349	249.51
827.527	159.4
827.704	171.69
827.882	210.6
828.059	163.5
828.237	186.02
828.414	183.98
828.591	85.67
828.769	151.21
828.946	157.35
829.124	177.83
829.301	186.02
829.478	118.44
829.655	231.08
829.833	149.16
830.01	130.73
830.187	112.3
830.364	145.06
830.542	204.46
830.719	134.82
830.896	167.59
831.073	208.55
831.25	181.93
831.427	177.83
831.604	134.82
831.782	116.39
831.959	200.36
832.136	132.78
832.313	181.93
832.49	104.11
832.667	159.4
832.844	231.08
833.021	140.97
833.198	147.11
833.374	118.44
833.551	169.64
833.728	194.22
833.905	188.07
834.082	110.25
834.259	179.88
834.436	196.26
834.612	50.86
834.789	132.78
834.966	157.35
835.143	151.21
835.319	34.47
835.496	163.5
835.673	169.64
835.85	116.39
836.026	175.78
836.203	122.54
836.38	54.95
836.556	145.06
836.733	175.78
836.909	145.06
837.086	104.11
837.262	42.67
837.439	116.39
837.616	102.06
837.792	77.48
837.968	112.3
838.145	110.25
838.321	163.5
838.498	138.92
838.674	216.74
838.851	132.78
839.027	79.53
839.203	81.58
839.38	165.54
839.556	106.15
839.732	128.68
839.909	95.91
840.085	91.82
840.261	97.96
840.437	81.58
840.614	108.2
840.79	75.43
840.966	124.58
841.142	112.3
841.318	89.77
841.494	126.63
841.671	159.4
841.847	77.48
842.023	59.05
842.199	100.01
842.375	85.67
842.551	24.23
842.727	71.34
842.903	95.91
843.079	196.26
843.255	91.82
843.431	89.77
843.607	75.43
843.783	147.11
843.959	126.63
844.134	110.25
844.31	145.06
844.486	147.11
844.662	59.05
844.838	140.97
845.013	40.62
845.189	118.44
845.365	167.59
845.541	120.49
845.716	114.34
845.892	140.97
846.068	104.11
846.244	159.4
846.419	-6.49
846.595	91.82
846.77	30.38
846.946	20.14
847.122	118.44
847.297	69.29
847.473	122.54
847.648	110.25
847.824	157.35
847.999	24.23
848.175	24.23
848.35	130.73
848.526	130.73
848.701	120.49
848.876	32.43
849.052	155.3
849.227	175.78
849.403	44.71
849.578	89.77
849.753	75.43
849.929	75.43
850.104	32.43
850.279	59.05
850.454	153.26
850.63	32.43
850.805	54.95
850.98	32.43
851.155	52.91
851.33	13.99
851.505	44.71
851.681	108.2
851.856	22.19
852.031	102.06
852.206	130.73
852.381	40.62
852.556	161.45
852.731	106.15
852.906	132.78
853.081	136.87
853.256	71.34
853.431	48.81
853.606	28.33
853.781	34.47
853.956	50.86
854.131	63.15
854.305	108.2
854.48	61.1
854.655	-6.49
854.83	48.81
855.005	83.63
855.18	97.96
855.354	-8.53
855.529	26.28
855.704	138.92
855.879	63.15
856.053	13.99
856.228	57
856.403	36.52
856.577	85.67
856.752	-39.25
856.926	16.04
857.101	81.58
857.276	71.34
857.45	75.43
857.625	81.58
857.799	79.53
857.974	-0.34
858.148	38.57
858.323	13.99
858.497	75.43
858.672	89.77
858.846	18.09
859.02	124.58
859.195	-0.34
859.369	59.05
859.543	57
859.718	73.39
859.892	63.15
860.066	44.71
860.241	59.05
860.415	11.95
860.589	7.85
860.763	122.54
860.938	32.43
861.112	63.15
861.286	48.81
861.46	116.39
861.634	44.71
861.808	52.91
861.982	-20.82
862.157	46.76
862.331	34.47
862.505	13.99
862.679	48.81
862.853	42.67
863.027	9.9
863.201	50.86
863.375	26.28
863.549	91.82
863.722	114.34
863.896	85.67
864.07	46.76
864.244	85.67
864.418	102.06
864.592	-6.49
864.766	32.43
864.939	65.19
865.113	52.91
865.287	11.95
865.461	1.71
865.634	151.21
865.808	13.99
865.982	34.47
866.156	85.67
866.329	-29.01
866.503	-18.77
866.676	-0.34
866.85	75.43
867.024	18.09
867.197	28.33
867.371	77.48
867.544	22.19
867.718	48.81
867.891	71.34
868.065	-31.06
868.238	42.67
868.412	71.34
868.585	44.71
868.759	36.52
868.932	34.47
869.105	-14.68
869.279	13.99
869.452	59.05
869.625	85.67
869.799	69.29
869.972	22.19
870.145	24.23
870.319	46.76
870.492	69.29
870.665	18.09
870.838	11.95
871.011	-2.39
871.185	114.34
871.358	-43.35
871.531	18.09
871.704	65.19
871.877	26.28
872.05	22.19
872.223	32.43
872.396	100.01
872.569	-16.73
872.742	-0.34
872.915	-22.87
873.088	22.19
873.261	50.86
873.434	54.95
873.607	59.05
873.78	61.1
873.953	13.99
874.126	38.57
874.299	32.43
874.471	28.33
874.644	48.81
874.817	34.47
874.99	63.15
875.163	9.9
875.335	16.04
875.508	16.04
875.681	16.04
875.853	11.95
876.026	36.52
876.199	28.33
876.371	87.72
876.544	16.04
876.717	-0.34
876.889	85.67
877.062	50.86
877.234	42.67
877.407	40.62
877.579	79.53
877.752	65.19
877.924	5.8
878.097	63.15
878.269	52.91
878.442	83.63
878.614	-2.39
878.786	69.29
878.959	85.67
879.131	40.62
879.303	-37.2
879.476	93.87
879.648	93.87
879.82	42.67
879.993	69.29
880.165	61.1
880.337	18.09
880.509	73.39
880.681	-67.92
880.854	7.85
881.026	42.67
881.198	67.24
881.37	-63.83
881.542	34.47
881.714	30.38
881.886	-20.82
882.058	11.95
882.23	50.86
882.402	34.47
882.574	104.11
882.746	34.47
882.918	-0.34
883.09	44.71
883.262	1.71
883.434	52.91
883.606	-18.77
883.778	26.28
883.95	112.3
884.122	20.14
884.293	67.24
884.465	42.67
884.637	42.67
884.809	38.57
884.98	16.04
885.152	54.95
885.324	100.01
885.496	63.15
885.667	13.99
885.839	1.71
886.011	93.87
886.182	50.86
886.354	59.05
886.525	-0.34
886.697	-12.63
886.869	16.04
887.04	-2.39
887.212	46.76
887.383	122.54
887.555	83.63
887.726	11.95
887.897	52.91
888.069	-0.34
888.24	9.9
888.412	28.33
888.583	-33.11
888.754	65.19
888.926	-8.53
889.097	3.75
889.268	-10.58
889.44	16.04
889.611	18.09
889.782	63.15
889.953	-0.34
890.125	34.47
890.296	7.85
890.467	7.85
890.638	-8.53
890.809	71.34
890.98	-16.73
891.151	-18.77
891.323	52.91
891.494	3.75
891.665	79.53
891.836	75.43
892.007	40.62
892.178	44.71
892.349	20.14
892.52	-12.63
892.691	-10.58
892.862	-16.73
893.032	-20.82
893.203	-43.35
893.374	54.95
893.545	-4.44
893.716	-37.2
893.887	67.24
894.057	5.8
894.228	-10.58
894.399	87.72
894.57	59.05
894.74	75.43
894.911	46.76
895.082	16.04
895.253	54.95
895.423	42.67
895.594	136.87
895.764	77.48
895.935	-4.44
896.106	83.63
896.276	-39.25
896.447	26.28
896.617	-41.3
896.788	7.85
896.958	-18.77
897.129	28.33
897.299	-53.59
897.47	93.87
897.64	38.57
897.81	34.47
897.981	30.38
898.151	11.95
898.322	-4.44
898.492	-16.73
898.662	30.38
898.832	-41.3
899.003	30.38
899.173	-16.73
899.343	-78.16
899.513	-39.25
