Data from USB4F104151__41__12-41-23-783.txt Node

Date: Fri Mar 14 12:41:23 EDT 2025
User: louis
Spectrometer: USB4F10415
Trigger mode: 4
Integration Time (sec): 3.000000E-2
Scans to average: 1
Electric dark correction enabled: true
Nonlinearity correction enabled: false
Boxcar width: 0
XAxis mode: Wavelengths
Number of Pixels in Spectrum: 3648
>>>>>Begin Spectral Data<<<<<
178.204	-48.98
178.424	-48.98
178.644	-48.98
178.864	-118.61
179.084	-135
179.304	-10.07
179.524	-22.36
179.744	-96.08
179.964	8.36
180.184	10.41
180.404	-8.02
180.624	34.99
180.844	6.31
181.064	12.46
181.283	43.18
181.503	-20.31
181.723	41.13
181.943	-40.79
182.163	84.14
182.383	-44.88
182.602	73.9
182.822	59.56
183.042	2.22
183.262	26.79
183.482	30.89
183.701	2.22
183.921	37.03
184.141	41.13
184.361	55.47
184.58	-18.26
184.8	-16.21
185.02	-5.97
185.239	59.56
185.459	4.27
185.679	127.14
185.898	-34.64
186.118	22.7
186.338	-5.97
186.557	10.41
186.777	-5.97
186.997	98.47
187.216	67.75
187.436	104.62
187.655	32.94
187.875	45.23
188.095	30.89
188.314	102.57
188.534	127.14
188.753	55.47
188.973	69.8
189.192	12.46
189.412	-5.97
189.631	-20.31
189.851	-46.93
190.07	67.75
190.29	8.36
190.509	8.36
190.729	20.65
190.948	75.95
191.168	131.24
191.387	26.79
191.607	12.46
191.826	112.81
192.045	34.99
192.265	26.79
192.484	22.7
192.704	20.65
192.923	-87.89
193.142	110.76
193.362	59.56
193.581	45.23
193.8	32.94
194.02	71.85
194.239	22.7
194.458	65.71
194.678	30.89
194.897	-34.64
195.116	80.04
195.335	39.08
195.555	8.36
195.774	73.9
195.993	37.03
196.212	43.18
196.432	71.85
196.651	10.41
196.87	0.17
197.089	63.66
197.308	51.37
197.528	47.27
197.747	51.37
197.966	77.99
198.185	86.19
198.404	49.32
198.623	12.46
198.842	59.56
199.062	49.32
199.281	143.53
199.5	77.99
199.719	53.42
199.938	30.89
200.157	98.47
200.376	82.09
200.595	84.14
200.814	67.75
201.033	86.19
201.252	-3.93
201.471	63.66
201.69	129.19
201.909	22.7
202.128	-1.88
202.347	43.18
202.566	18.6
202.785	47.27
203.004	-10.07
203.223	108.71
203.442	43.18
203.661	6.31
203.879	84.14
204.098	127.14
204.317	-22.36
204.536	88.23
204.755	73.9
204.974	135.34
205.193	104.62
205.411	43.18
205.63	34.99
205.849	-36.69
206.068	20.65
206.287	47.27
206.505	125.1
206.724	0.17
206.943	6.31
207.162	73.9
207.381	30.89
207.599	18.6
207.818	43.18
208.037	30.89
208.255	34.99
208.474	53.42
208.693	8.36
208.911	39.08
209.13	102.57
209.349	86.19
209.567	129.19
209.786	65.71
210.005	-32.6
210.223	34.99
210.442	-38.74
210.661	106.67
210.879	24.75
211.098	51.37
211.316	47.27
211.535	82.09
211.753	22.7
211.972	12.46
212.191	30.89
212.409	-14.17
212.628	-8.02
212.846	-1.88
213.065	-20.31
213.283	110.76
213.502	45.23
213.72	100.52
213.938	32.94
214.157	18.6
214.375	86.19
214.594	65.71
214.812	75.95
215.031	-14.17
215.249	67.75
215.467	-16.21
215.686	39.08
215.904	-42.84
216.122	86.19
216.341	10.41
216.559	12.46
216.778	125.1
216.996	43.18
217.214	26.79
217.432	-34.64
217.651	12.46
217.869	51.37
218.087	80.04
218.306	-16.21
218.524	37.03
218.742	30.89
218.96	71.85
219.179	45.23
219.397	22.7
219.615	102.57
219.833	14.51
220.051	-73.56
220.27	80.04
220.488	77.99
220.706	34.99
220.924	12.46
221.142	34.99
221.36	59.56
221.578	49.32
221.796	16.55
222.015	65.71
222.233	141.48
222.451	43.18
222.669	39.08
222.887	51.37
223.105	77.99
223.323	18.6
223.541	26.79
223.759	84.14
223.977	77.99
224.195	75.95
224.413	0.17
224.631	12.46
224.849	22.7
225.067	127.14
225.285	88.23
225.503	77.99
225.721	102.57
225.939	75.95
226.157	77.99
226.375	127.14
226.592	45.23
226.81	14.51
227.028	121
227.246	30.89
227.464	32.94
227.682	57.51
227.9	37.03
228.117	-22.36
228.335	47.27
228.553	34.99
228.771	10.41
228.989	47.27
229.206	37.03
229.424	59.56
229.642	43.18
229.86	2.22
230.077	34.99
230.295	55.47
230.513	73.9
230.731	-16.21
230.948	63.66
231.166	14.51
231.384	67.75
231.601	16.55
231.819	94.38
232.037	-8.02
232.254	-20.31
232.472	-44.88
232.689	43.18
232.907	77.99
233.125	30.89
233.342	112.81
233.56	98.47
233.777	-1.88
233.995	55.47
234.213	139.43
234.43	86.19
234.648	41.13
234.865	-30.55
235.083	43.18
235.3	2.22
235.518	123.05
235.735	92.33
235.953	149.67
236.17	24.75
236.388	59.56
236.605	4.27
236.822	34.99
237.04	53.42
237.257	73.9
237.475	28.84
237.692	2.22
237.909	20.65
238.127	71.85
238.344	-3.93
238.562	-12.12
238.779	26.79
238.996	28.84
239.214	116.9
239.431	84.14
239.648	-1.88
239.865	12.46
240.083	61.61
240.3	75.95
240.517	43.18
240.735	94.38
240.952	43.18
241.169	139.43
241.386	-61.27
241.603	47.27
241.821	-48.98
242.038	49.32
242.255	20.65
242.472	28.84
242.689	20.65
242.907	45.23
243.124	84.14
243.341	61.61
243.558	67.75
243.775	24.75
243.992	37.03
244.209	84.14
244.426	80.04
244.643	65.71
244.86	86.19
245.078	61.61
245.295	61.61
245.512	34.99
245.729	-12.12
245.946	80.04
246.163	98.47
246.38	18.6
246.597	-8.02
246.814	125.1
247.031	30.89
247.248	65.71
247.464	4.27
247.681	47.27
247.898	37.03
248.115	34.99
248.332	69.8
248.549	49.32
248.766	65.71
248.983	118.95
249.2	12.46
249.417	26.79
249.633	-12.12
249.85	75.95
250.067	6.31
250.284	41.13
250.501	49.32
250.717	82.09
250.934	12.46
251.151	30.89
251.368	55.47
251.585	14.51
251.801	26.79
252.018	12.46
252.235	63.66
252.451	-5.97
252.668	73.9
252.885	77.99
253.102	116.9
253.318	4.27
253.535	26.79
253.752	8.36
253.968	51.37
254.185	80.04
254.401	16.55
254.618	45.23
254.835	67.75
255.051	108.71
255.268	49.32
255.484	32.94
255.701	82.09
255.917	34.99
256.134	55.47
256.351	100.52
256.567	-16.21
256.784	26.79
257	10.41
257.217	8.36
257.433	51.37
257.65	102.57
257.866	116.9
258.082	10.41
258.299	63.66
258.515	10.41
258.732	37.03
258.948	14.51
259.165	45.23
259.381	-73.56
259.597	61.61
259.814	24.75
260.03	71.85
260.246	37.03
260.463	69.8
260.679	57.51
260.895	4.27
261.112	71.85
261.328	-28.5
261.544	69.8
261.761	125.1
261.977	-12.12
262.193	39.08
262.409	59.56
262.626	100.52
262.842	6.31
263.058	-14.17
263.274	69.8
263.49	-28.5
263.707	55.47
263.923	49.32
264.139	-3.93
264.355	75.95
264.571	39.08
264.787	30.89
265.004	49.32
265.22	43.18
265.436	22.7
265.652	30.89
265.868	43.18
266.084	-3.93
266.3	28.84
266.516	8.36
266.732	141.48
266.948	20.65
267.164	22.7
267.38	94.38
267.596	86.19
267.812	92.33
268.028	20.65
268.244	10.41
268.46	-12.12
268.676	18.6
268.892	110.76
269.108	2.22
269.324	49.32
269.54	18.6
269.756	133.29
269.972	10.41
270.188	10.41
270.403	34.99
270.619	88.23
270.835	73.9
271.051	77.99
271.267	112.81
271.483	73.9
271.698	16.55
271.914	82.09
272.13	104.62
272.346	-14.17
272.562	43.18
272.777	149.67
272.993	14.51
273.209	55.47
273.425	39.08
273.64	18.6
273.856	49.32
274.072	-26.45
274.287	69.8
274.503	108.71
274.719	53.42
274.934	22.7
275.15	2.22
275.366	61.61
275.581	14.51
275.797	75.95
276.012	55.47
276.228	77.99
276.444	41.13
276.659	104.62
276.875	-32.6
277.09	61.61
277.306	53.42
277.521	10.41
277.737	34.99
277.952	-16.21
278.168	41.13
278.383	51.37
278.599	110.76
278.814	51.37
279.03	4.27
279.245	39.08
279.461	47.27
279.676	104.62
279.892	41.13
280.107	-38.74
280.322	75.95
280.538	59.56
280.753	55.47
280.969	61.61
281.184	26.79
281.399	28.84
281.615	4.27
281.83	8.36
282.045	-3.93
282.26	47.27
282.476	-1.88
282.691	71.85
282.906	69.8
283.122	55.47
283.337	63.66
283.552	45.23
283.767	-1.88
283.983	125.1
284.198	-28.5
284.413	4.27
284.628	82.09
284.843	88.23
285.058	45.23
285.274	-8.02
285.489	53.42
285.704	73.9
285.919	34.99
286.134	20.65
286.349	53.42
286.564	86.19
286.779	24.75
286.995	94.38
287.21	32.94
287.425	90.28
287.64	32.94
287.855	45.23
288.07	-26.45
288.285	98.47
288.5	32.94
288.715	86.19
288.93	22.7
289.145	102.57
289.36	82.09
289.575	-3.93
289.79	45.23
290.004	30.89
290.219	69.8
290.434	-65.36
290.649	53.42
290.864	51.37
291.079	18.6
291.294	45.23
291.509	-1.88
291.724	-30.55
291.938	-12.12
292.153	53.42
292.368	53.42
292.583	53.42
292.798	-3.93
293.012	86.19
293.227	100.52
293.442	-5.97
293.657	67.75
293.871	125.1
294.086	57.51
294.301	80.04
294.516	20.65
294.73	151.72
294.945	6.31
295.16	73.9
295.374	102.57
295.589	129.19
295.804	26.79
296.018	37.03
296.233	88.23
296.447	75.95
296.662	0.17
296.877	80.04
297.091	73.9
297.306	30.89
297.52	0.17
297.735	53.42
297.949	112.81
298.164	65.71
298.378	49.32
298.593	43.18
298.807	71.85
299.022	26.79
299.236	110.76
299.451	92.33
299.665	110.76
299.88	61.61
300.094	14.51
300.309	51.37
300.523	22.7
300.737	6.31
300.952	86.19
301.166	53.42
301.381	139.43
301.595	133.29
301.809	45.23
302.024	-32.6
302.238	77.99
302.452	59.56
302.667	24.75
302.881	168.1
303.095	26.79
303.309	39.08
303.524	34.99
303.738	22.7
303.952	63.66
304.166	30.89
304.381	37.03
304.595	149.67
304.809	57.51
305.023	112.81
305.237	20.65
305.452	47.27
305.666	69.8
305.88	75.95
306.094	94.38
306.308	88.23
306.522	51.37
306.736	53.42
306.95	47.27
307.164	80.04
307.379	22.7
307.593	71.85
307.807	61.61
308.021	-28.5
308.235	26.79
308.449	0.17
308.663	-3.93
308.877	125.1
309.091	88.23
309.305	69.8
309.519	57.51
309.733	32.94
309.947	45.23
310.161	24.75
310.374	39.08
310.588	57.51
310.802	63.66
311.016	24.75
311.23	59.56
311.444	-20.31
311.658	51.37
311.872	55.47
312.085	61.61
312.299	110.76
312.513	34.99
312.727	53.42
312.941	2.22
313.154	67.75
313.368	49.32
313.582	75.95
313.796	43.18
314.009	67.75
314.223	55.47
314.437	57.51
314.651	18.6
314.864	43.18
315.078	-26.45
315.292	47.27
315.505	-42.84
315.719	100.52
315.933	106.67
316.146	37.03
316.36	-5.97
316.573	84.14
316.787	137.38
317.001	86.19
317.214	4.27
317.428	61.61
317.641	-24.4
317.855	32.94
318.068	45.23
318.282	-44.88
318.495	28.84
318.709	155.82
318.922	49.32
319.136	84.14
319.349	59.56
319.563	125.1
319.776	102.57
319.99	-38.74
320.203	82.09
320.417	-12.12
320.63	51.37
320.843	88.23
321.057	92.33
321.27	49.32
321.483	69.8
321.697	75.95
321.91	131.24
322.124	65.71
322.337	123.05
322.55	75.95
322.763	6.31
322.977	63.66
323.19	57.51
323.403	51.37
323.617	59.56
323.83	69.8
324.043	96.43
324.256	22.7
324.469	4.27
324.683	18.6
324.896	45.23
325.109	84.14
325.322	49.32
325.535	30.89
325.748	77.99
325.962	67.75
326.175	98.47
326.388	75.95
326.601	75.95
326.814	20.65
327.027	24.75
327.24	137.38
327.453	-24.4
327.666	67.75
327.879	102.57
328.092	10.41
328.305	61.61
328.518	-40.79
328.731	45.23
328.944	6.31
329.157	20.65
329.37	82.09
329.583	98.47
329.796	139.43
330.009	49.32
330.222	41.13
330.435	16.55
330.648	108.71
330.861	30.89
331.073	28.84
331.286	94.38
331.499	63.66
331.712	88.23
331.925	94.38
332.138	45.23
332.35	0.17
332.563	6.31
332.776	53.42
332.989	-46.93
333.202	82.09
333.414	59.56
333.627	57.51
333.84	45.23
334.053	63.66
334.265	-12.12
334.478	47.27
334.691	-1.88
334.903	80.04
335.116	0.17
335.329	84.14
335.541	53.42
335.754	57.51
335.966	82.09
336.179	61.61
336.392	53.42
336.604	43.18
336.817	41.13
337.029	34.99
337.242	143.53
337.454	30.89
337.667	96.43
337.88	69.8
338.092	49.32
338.305	110.76
338.517	-44.88
338.729	73.9
338.942	37.03
339.154	30.89
339.367	2.22
339.579	80.04
339.792	75.95
340.004	135.34
340.217	65.71
340.429	45.23
340.641	67.75
340.854	39.08
341.066	34.99
341.278	65.71
341.491	92.33
341.703	94.38
341.915	39.08
342.128	90.28
342.34	100.52
342.552	-1.88
342.764	59.56
342.977	80.04
343.189	65.71
343.401	84.14
343.613	45.23
343.826	59.56
344.038	55.47
344.25	51.37
344.462	73.9
344.674	118.95
344.886	43.18
345.099	63.66
345.311	110.76
345.523	63.66
345.735	0.17
345.947	84.14
346.159	41.13
346.371	55.47
346.583	116.9
346.795	92.33
347.007	-18.26
347.219	80.04
347.431	30.89
347.643	155.82
347.855	24.75
348.067	96.43
348.279	55.47
348.491	69.8
348.703	77.99
348.915	100.52
349.127	10.41
349.339	53.42
349.551	4.27
349.763	2.22
349.975	39.08
350.187	116.9
350.399	96.43
350.61	20.65
350.822	86.19
351.034	108.71
351.246	73.9
351.458	80.04
351.669	129.19
351.881	88.23
352.093	77.99
352.305	102.57
352.517	90.28
352.728	84.14
352.94	92.33
353.152	114.86
353.363	-1.88
353.575	59.56
353.787	16.55
353.999	96.43
354.21	100.52
354.422	37.03
354.633	77.99
354.845	12.46
355.057	57.51
355.268	45.23
355.48	61.61
355.692	67.75
355.903	49.32
356.115	28.84
356.326	-3.93
356.538	143.53
356.749	37.03
356.961	157.86
357.172	2.22
357.384	16.55
357.595	112.81
357.807	32.94
358.018	39.08
358.23	84.14
358.441	104.62
358.653	147.62
358.864	8.36
359.075	51.37
359.287	106.67
359.498	110.76
359.709	61.61
359.921	86.19
360.132	53.42
360.344	28.84
360.555	100.52
360.766	69.8
360.977	0.17
361.189	75.95
361.4	26.79
361.611	108.71
361.823	69.8
362.034	137.38
362.245	53.42
362.456	67.75
362.667	71.85
362.879	104.62
363.09	125.1
363.301	67.75
363.512	59.56
363.723	39.08
363.935	71.85
364.146	51.37
364.357	59.56
364.568	59.56
364.779	-24.4
364.99	77.99
365.201	77.99
365.412	45.23
365.623	30.89
365.834	77.99
366.045	77.99
366.256	51.37
366.467	106.67
366.678	57.51
366.889	69.8
367.1	77.99
367.311	16.55
367.522	65.71
367.733	108.71
367.944	123.05
368.155	22.7
368.366	123.05
368.577	157.86
368.788	82.09
368.999	-24.4
369.209	110.76
369.42	166.06
369.631	198.82
369.842	141.48
370.053	8.36
370.264	108.71
370.474	32.94
370.685	53.42
370.896	69.8
371.107	75.95
371.317	63.66
371.528	49.32
371.739	30.89
371.95	73.9
372.16	39.08
372.371	41.13
372.582	104.62
372.792	106.67
373.003	55.47
373.214	30.89
373.424	82.09
373.635	94.38
373.846	51.37
374.056	37.03
374.267	110.76
374.477	116.9
374.688	75.95
374.898	86.19
375.109	63.66
375.319	157.86
375.53	41.13
375.74	135.34
375.951	49.32
376.161	34.99
376.372	125.1
376.582	57.51
376.793	71.85
377.003	6.31
377.214	41.13
377.424	151.72
377.635	80.04
377.845	65.71
378.055	49.32
378.266	-30.55
378.476	100.52
378.686	131.24
378.897	82.09
379.107	41.13
379.317	77.99
379.528	86.19
379.738	49.32
379.948	43.18
380.158	188.58
380.369	61.61
380.579	133.29
380.789	63.66
380.999	67.75
381.21	43.18
381.42	82.09
381.63	88.23
381.84	131.24
382.05	51.37
382.261	34.99
382.471	112.81
382.681	22.7
382.891	164.01
383.101	129.19
383.311	61.61
383.521	18.6
383.731	47.27
383.941	106.67
384.151	45.23
384.361	135.34
384.571	139.43
384.781	159.91
384.991	176.3
385.201	121
385.411	63.66
385.621	170.15
385.831	106.67
386.041	61.61
386.251	80.04
386.461	151.72
386.671	53.42
386.881	92.33
387.091	61.61
387.301	49.32
387.511	88.23
387.72	71.85
387.93	151.72
388.14	53.42
388.35	51.37
388.56	86.19
388.769	139.43
388.979	96.43
389.189	32.94
389.399	51.37
389.609	53.42
389.818	118.95
390.028	123.05
390.238	145.58
390.447	73.9
390.657	104.62
390.867	94.38
391.076	88.23
391.286	43.18
391.496	108.71
391.705	22.7
391.915	100.52
392.125	84.14
392.334	125.1
392.544	164.01
392.753	135.34
392.963	118.95
393.172	84.14
393.382	88.23
393.591	170.15
393.801	86.19
394.01	211.11
394.22	157.86
394.429	82.09
394.639	94.38
394.848	147.62
395.058	112.81
395.267	170.15
395.477	116.9
395.686	157.86
395.895	166.06
396.105	174.25
396.314	84.14
396.524	157.86
396.733	98.47
396.942	102.57
397.152	188.58
397.361	159.91
397.57	188.58
397.78	77.99
397.989	155.82
398.198	180.39
398.407	51.37
398.617	168.1
398.826	59.56
399.035	106.67
399.244	211.11
399.453	196.78
399.663	114.86
399.872	198.82
400.081	131.24
400.29	217.26
400.499	170.15
400.708	192.68
400.917	188.58
401.127	100.52
401.336	94.38
401.545	192.68
401.754	178.34
401.963	133.29
402.172	192.68
402.381	186.54
402.59	192.68
402.799	209.06
403.008	157.86
403.217	186.54
403.426	190.63
403.635	100.52
403.844	184.49
404.053	186.54
404.262	202.92
404.471	293.03
404.68	278.69
404.888	235.69
405.097	196.78
405.306	278.69
405.515	254.12
405.724	217.26
405.933	327.85
406.142	286.89
406.35	305.32
406.559	288.93
406.768	245.93
406.977	321.7
407.185	303.27
407.394	299.17
407.603	284.84
407.812	362.66
408.02	374.95
408.229	436.39
408.438	288.93
408.646	387.24
408.855	319.65
409.064	372.9
409.272	446.63
409.481	477.35
409.69	481.44
409.898	438.44
410.107	385.19
410.315	454.82
410.524	618.66
410.733	524.45
410.941	524.45
411.15	569.51
411.358	592.03
411.567	604.32
411.775	577.7
411.984	655.52
412.192	743.58
412.401	618.66
412.609	725.15
412.818	741.54
413.026	733.34
413.234	778.4
413.443	850.08
413.651	747.68
413.86	798.88
414.068	1024.16
414.276	985.24
414.485	1005.72
414.693	1015.96
414.901	1069.21
415.11	1075.35
415.318	1052.83
415.526	1134.75
415.734	1112.22
415.943	1257.62
416.151	1319.06
416.359	1276.06
416.567	1370.26
416.776	1333.4
416.984	1527.96
417.192	1618.07
417.4	1419.41
417.608	1511.57
417.817	1575.06
418.025	1732.75
418.233	1845.39
418.441	1806.48
418.649	1826.96
418.857	2001.04
419.065	2021.52
419.273	2001.04
419.481	2132.11
419.689	2285.7
419.897	2379.91
420.105	2322.57
420.313	2451.59
420.521	2551.94
420.729	2590.85
420.937	2627.71
421.145	2852.99
421.353	2928.77
421.561	2953.34
421.769	3201.15
421.977	3188.86
422.185	3172.47
422.393	3438.71
422.601	3743.86
422.809	3530.87
423.017	3537.01
423.224	3858.54
423.432	4020.33
423.64	4065.39
423.848	4288.62
424.056	4178.03
424.263	4462.69
424.471	4491.37
424.679	4599.91
424.887	5056.61
425.094	5050.46
425.302	4999.26
425.51	5181.53
425.718	5351.51
425.925	5521.49
426.133	5591.13
426.341	5793.87
426.548	6084.69
426.756	6385.74
426.964	6361.16
427.171	6617.16
427.379	6678.6
427.586	6957.12
427.794	7168.06
428.001	7477.3
428.209	7714.87
428.417	7565.37
428.624	8329.26
428.832	8206.38
429.039	8044.59
429.247	8118.32
429.454	8923.17
429.662	9558.04
429.869	8888.36
430.076	9644.06
430.284	9248.8
430.491	9865.24
430.699	10375.18
430.906	10323.98
431.114	10405.9
431.321	10940.42
431.528	11134.98
431.736	11673.59
431.943	12185.58
432.15	11986.93
432.358	12072.95
432.565	12791.78
432.772	12543.98
432.979	13273.06
433.187	13623.26
433.394	13721.56
433.601	14604.24
433.808	14647.24
434.016	14440.4
434.223	15263.68
434.43	16052.15
434.637	15853.5
434.844	16656.3
435.052	17153.96
435.259	16791.47
435.466	17121.19
435.673	17104.81
435.88	17991.58
436.087	19113.86
436.294	19109.77
436.501	18771.85
436.708	18808.72
436.915	19670.91
437.122	20254.58
437.329	20318.07
437.537	21096.3
437.743	21358.44
437.95	21405.54
438.157	22421.33
438.364	23193.42
438.571	23201.61
438.778	23254.86
438.985	25243.43
439.192	24299.32
439.399	25169.71
439.606	24657.71
439.813	26009.37
440.02	27445
440.227	26988.3
440.433	26799.89
440.64	27813.63
440.847	27410.18
441.054	28206.84
441.261	30156.51
441.467	29691.62
441.674	30373.6
441.881	31477.45
442.088	31409.87
442.294	31348.43
442.501	31887.04
442.708	32779.96
442.914	33986.21
443.121	35231.38
443.328	34023.08
443.534	36564.6
443.741	35595.92
443.948	35083.92
444.154	37473.9
444.361	37488.24
444.568	37946.98
444.774	37801.58
444.981	38383.2
445.187	39368.27
445.394	41006.65
445.6	40087.11
445.807	44047.88
446.013	42421.8
446.22	42913.31
446.426	44736
446.633	45338.1
446.839	46622.18
447.046	44594.69
447.252	47162.84
447.459	47193.56
447.665	47001.05
447.871	49548.73
448.078	51162.53
448.284	48813.51
448.491	49735.09
448.697	51922.32
448.903	52710.79
449.11	52903.3
449.316	52280.72
449.522	52850.05
449.728	54369.65
449.935	54658.41
450.141	54711.66
450.347	56073.56
450.553	54039.92
450.76	54855.01
450.966	56560.97
451.172	56005.97
451.378	57249.09
451.584	56180.05
451.791	57279.81
451.997	57468.22
452.203	58066.23
452.409	57976.12
452.615	58549.55
452.821	56253.78
453.027	55526.75
453.233	58039.61
453.44	56399.18
453.646	56665.42
453.852	56556.88
454.058	57554.24
454.264	56175.95
454.47	57050.44
454.676	55950.68
454.882	57789.75
455.088	53480.83
455.294	53814.65
455.5	54445.42
455.705	54889.83
455.911	53214.59
456.117	51846.55
456.323	51131.81
456.529	48590.28
456.735	50628.01
456.941	49438.14
457.147	49130.94
457.352	47699.41
457.558	46826.98
457.764	47033.82
457.97	46450.15
458.176	44758.53
458.381	45307.38
458.587	42815.01
458.793	42763.81
458.999	40492.61
459.204	43826.7
459.41	42526.24
459.616	39700.04
459.821	40085.06
460.027	39644.75
460.233	38766.17
460.438	36771.45
460.644	37133.94
460.85	35423.89
461.055	34715.29
461.261	35317.39
461.466	32374.46
461.672	31182.54
461.878	33820.33
462.083	31844.04
462.289	30987.99
462.494	30543.58
462.7	29308.65
462.905	28520.18
463.111	29390.57
463.316	29279.98
463.522	28907.25
463.727	29009.65
463.932	28978.93
464.138	28575.48
464.343	28540.66
464.549	28141.31
464.754	29032.18
464.959	28421.88
465.165	28514.04
465.37	27293.45
465.575	26527.51
465.781	27363.08
465.986	27903.74
466.191	26461.97
466.397	26132.25
466.602	24540.98
466.807	25849.63
467.012	25921.31
467.218	25952.03
467.423	25593.64
467.628	25517.86
467.833	26738.45
468.038	25710.37
468.244	24907.57
468.449	26119.96
468.654	25022.25
468.859	24907.57
469.064	24717.11
469.269	23803.71
469.474	23902.01
469.679	24260.41
469.885	23975.74
470.09	24274.74
470.295	24014.65
470.5	23271.24
470.705	23406.41
470.91	23113.55
471.115	22710.1
471.32	23234.38
471.525	23078.73
471.73	22710.1
471.935	22505.3
472.139	21608.29
472.344	21940.06
472.549	21737.31
472.754	21366.63
472.959	21387.11
473.164	20574.06
473.369	20352.88
473.574	21000.04
473.778	21047.15
473.983	20555.63
474.188	20584.3
474.393	19681.15
474.598	19707.77
474.802	19801.98
475.007	19341.19
475.212	19351.43
475.417	18718.61
475.621	18632.59
475.826	18845.58
476.031	18462.61
476.235	18163.61
476.44	18321.3
476.645	17901.47
476.849	18069.4
477.054	17657.76
477.259	17434.53
477.463	17489.82
477.668	16920.49
477.872	17256.36
478.077	16850.86
478.282	16490.42
478.486	16449.46
478.691	16521.13
478.895	16502.7
479.1	16398.26
479.304	16160.69
479.509	15757.24
479.713	16101.3
479.918	15699.9
480.122	15548.35
480.326	15720.38
480.531	15593.4
480.735	15273.92
480.94	15337.41
481.144	15706.04
481.348	14989.25
481.553	15189.95
481.757	15044.55
481.961	15198.15
482.166	15622.08
482.37	15093.7
482.574	14936.01
482.778	15040.45
482.983	15278.02
483.187	14878.66
483.391	15280.07
483.595	14577.61
483.8	14946.25
484.004	15151.04
484.208	15263.68
484.412	14858.18
484.616	15058.88
484.821	14936.01
485.025	14778.31
485.229	14862.28
485.433	15103.94
485.637	14800.84
485.841	14680.01
486.045	14956.49
486.249	14950.34
486.453	14845.9
486.657	14972.87
486.861	14913.48
487.065	14749.64
487.269	14858.18
487.473	14796.74
487.677	15210.43
487.881	15140.8
488.085	14774.22
488.289	14936.01
488.493	14888.9
488.697	15060.93
488.901	15245.25
489.105	14962.63
489.309	15445.95
489.512	15069.12
489.716	15255.49
489.92	15181.76
490.124	14915.53
490.328	15400.9
490.531	15245.25
490.735	15288.26
490.939	15421.38
491.143	15185.86
491.346	15077.32
491.55	15714.23
491.754	15269.83
491.958	15589.31
492.161	15384.51
492.365	15630.27
492.569	15548.35
492.772	15646.65
492.976	15626.17
493.18	15826.87
493.383	16109.49
493.587	16158.64
493.79	16281.52
493.994	16136.12
494.197	16230.32
494.401	16558
494.605	16502.7
494.808	16768.94
495.012	16861.1
495.215	16715.69
495.419	16977.83
495.622	16916.39
495.825	17280.93
496.029	17065.89
496.232	17446.82
496.436	17444.77
496.639	17946.52
496.843	17747.87
497.046	18120.6
497.249	18356.11
497.453	18392.98
497.656	18630.54
497.859	18835.34
498.063	18696.08
498.266	19410.82
498.469	19285.89
498.673	19642.24
498.876	19691.39
499.079	19517.31
499.282	19812.22
499.485	20297.59
499.689	20256.63
499.892	20412.28
500.095	20785.01
500.298	21086.06
500.501	20746.09
500.705	21675.87
500.908	21540.71
501.111	21972.83
501.314	21860.19
501.517	22286.17
501.72	22753.1
501.923	22613.84
502.126	22847.31
502.329	23174.99
502.532	23297.86
502.735	23701.31
502.938	24115
503.141	24465.21
503.344	24577.84
503.547	24452.92
503.75	25085.74
503.953	25378.6
504.156	25349.93
504.359	25696.03
504.562	25886.5
504.765	26240.79
504.968	26281.75
505.17	26550.04
505.373	26924.82
505.576	27537.16
505.779	27614.98
505.982	27852.55
506.185	28448.5
506.387	28354.3
506.59	28673.78
506.793	28929.78
506.996	29249.26
507.198	29976.29
507.401	29634.28
507.604	30074.59
507.807	30758.61
508.009	30637.78
508.212	31035.09
508.415	31172.3
508.617	31682.25
508.82	31721.16
509.022	31747.78
509.225	32251.58
509.428	32581.31
509.63	32757.43
509.833	33259.18
510.035	33523.37
510.238	33803.94
510.44	33920.68
510.643	34160.29
510.845	34832.02
511.048	34969.24
511.25	35006.1
511.453	35538.57
511.655	36763.26
511.858	36099.72
512.06	36546.17
512.262	36798.07
512.465	36902.52
512.667	37385.84
512.87	37955.18
513.072	37455.47
513.274	38800.99
513.477	39171.67
513.679	38872.67
513.881	39384.66
514.084	39624.27
514.286	39657.04
514.488	40044.1
514.69	41414.19
514.893	40797.76
515.095	40971.83
515.297	41494.07
515.499	42057.26
515.701	42067.5
515.904	42640.93
516.106	42817.05
516.308	43240.98
516.51	43742.74
516.712	43843.09
516.914	44170.76
517.116	44570.11
517.318	44340.74
517.52	44809.73
517.722	45063.68
517.925	45207.03
518.127	45749.74
518.329	46349.8
518.531	45667.83
518.733	46937.57
518.935	47472.09
519.136	47402.46
519.338	47873.49
519.54	47863.25
519.742	48678.34
519.944	48926.14
520.146	49137.08
520.348	49268.15
520.55	49642.93
520.752	49714.61
520.954	50455.98
521.155	50247.08
521.357	51303.84
521.559	51004.83
521.761	51830.16
521.963	51709.33
522.164	51821.97
522.366	52221.33
522.568	52108.69
522.77	52907.4
522.971	53237.12
523.173	52669.83
523.375	53554.55
523.576	53374.33
523.778	53599.61
523.98	54220.14
524.181	54203.76
524.383	54578.54
524.584	54433.13
524.786	54951.27
524.988	54805.86
525.189	55194.98
525.391	55592.28
525.592	55838.04
525.794	55627.1
525.995	55739.74
526.197	55631.19
526.398	56132.95
526.6	56802.63
526.801	56603.98
527.003	56825.16
527.204	56534.35
527.406	57066.82
527.607	56882.5
527.808	57578.81
528.01	56583.5
528.211	57314.62
528.412	57754.94
528.614	57724.22
528.815	57824.57
529.016	58330.42
529.218	57826.62
529.419	58176.82
529.62	57972.02
529.822	58170.68
530.023	58230.07
530.224	58279.22
530.425	58043.7
530.626	58309.94
530.828	57822.52
531.029	58993.96
531.23	58512.69
531.431	58133.81
531.632	58250.55
531.833	58893.61
532.035	58588.46
532.236	58778.92
532.437	58684.72
532.638	58856.74
532.839	58451.25
533.04	58934.57
533.241	58422.58
533.442	59487.52
533.643	58989.86
533.844	58817.83
534.045	58520.88
534.246	58414.38
534.447	59090.21
534.648	58688.81
534.849	58711.34
535.05	58115.38
535.251	58627.37
535.451	58660.14
535.652	58967.33
535.853	58715.43
536.054	59106.6
536.255	59047.21
536.456	58398
536.657	58893.61
536.857	58754.35
537.058	58506.54
537.259	59016.49
537.46	58617.13
537.66	58633.52
537.861	58977.57
538.062	58322.22
538.263	58594.6
538.463	58371.38
538.664	58330.42
538.865	58561.84
539.065	58914.09
539.266	58359.09
539.466	59045.16
539.667	58213.68
539.868	58633.52
540.068	58398
540.269	58285.36
540.469	58819.88
540.67	58197.3
540.87	58320.18
541.071	58459.44
541.271	58273.07
541.472	58721.58
541.672	58107.19
541.873	58189.11
542.073	57208.13
542.274	58529.07
542.474	58088.76
542.675	57666.87
542.875	58365.23
543.075	58236.21
543.276	57789.75
543.476	58328.37
543.676	57967.93
543.877	58320.18
544.077	58023.22
544.277	58178.87
544.478	57208.13
544.678	58123.57
544.878	57978.17
545.078	57953.59
545.279	57830.71
545.479	57613.63
545.679	58004.79
545.879	57689.4
546.079	58125.62
546.28	57652.54
546.48	57654.59
546.68	57777.47
546.88	57480.51
547.08	57908.54
547.28	57552.19
547.48	57191.75
547.68	57666.87
547.88	57027.91
548.081	57996.6
548.281	57582.91
548.481	57333.06
548.681	57857.34
548.881	57369.92
549.081	57312.58
549.28	57462.08
549.48	57285.95
549.68	57525.56
549.88	57722.17
550.08	57208.13
550.28	57578.81
550.48	57095.49
550.68	57808.18
550.88	57075.01
551.08	57087.3
551.279	57361.73
551.479	56841.54
551.679	56851.78
551.879	56909.13
552.079	57404.73
552.278	56677.71
552.478	57429.31
552.678	56587.6
552.878	57560.38
553.077	56923.46
553.277	56606.03
553.477	57341.25
553.676	56962.37
553.876	57259.33
554.076	56802.63
554.275	56835.4
554.475	56202.58
554.674	56890.69
554.874	56933.7
555.074	56354.13
555.273	56563.02
555.473	56831.3
555.672	56227.15
555.872	56317.26
556.071	56595.79
556.271	56679.75
556.47	56259.92
556.67	56151.38
556.869	56481.1
557.068	56419.66
557.268	55698.78
557.467	56046.93
557.667	56130.9
557.866	56229.2
558.065	56261.97
558.265	55907.67
558.464	55747.93
558.663	55987.54
558.863	55334.24
559.062	56063.32
559.261	55391.58
559.461	56208.72
559.66	55258.46
559.859	55321.95
560.058	55235.94
560.258	55457.12
560.457	55369.05
560.656	55674.2
560.855	55166.3
561.054	55352.67
561.253	54492.52
561.453	55606.62
561.652	55258.46
561.851	55463.26
562.05	54945.12
562.249	54852.97
562.448	55162.21
562.647	54576.49
562.846	54662.5
563.045	54752.62
563.244	54594.92
563.443	55278.94
563.642	54189.42
563.841	54207.86
564.04	54238.58
564.239	54981.99
564.438	53935.48
564.637	54371.69
564.836	54371.69
565.035	53931.38
565.234	54615.4
565.432	53708.15
565.631	54146.42
565.83	54001.01
566.029	53710.2
566.228	53419.39
566.427	53917.04
566.625	53534.07
566.824	53118.34
567.023	53751.16
567.222	52626.82
567.42	53839.22
567.619	53443.96
567.818	53116.29
568.016	53183.87
568.215	53308.8
568.414	53173.63
568.612	53241.21
568.811	52954.5
569.01	53015.94
569.208	52645.26
569.407	52895.11
569.605	51928.47
569.804	53024.13
570.002	52004.24
570.201	52729.22
570.4	52448.65
570.598	52145.55
570.797	52141.46
570.995	52256.14
571.193	51871.12
571.392	51918.23
571.59	51518.87
571.789	51692.95
571.987	51742.1
572.186	51457.43
572.384	51389.85
572.582	51494.3
572.781	51367.32
572.979	50656.68
573.177	51570.07
573.376	51416.47
573.574	51074.46
573.772	51037.6
573.971	50967.97
574.169	50908.58
574.367	50306.48
574.565	51070.37
574.763	50480.55
574.962	50267.56
575.16	50306.48
575.358	50341.29
575.556	49548.73
575.754	50683.3
575.952	49806.77
576.151	50531.75
576.349	49475
576.547	49520.06
576.745	49894.83
576.943	49819.06
577.141	49315.26
577.339	49302.97
577.537	49458.62
577.735	49327.55
577.933	48899.52
578.131	49485.24
578.329	48621
578.527	48672.2
578.725	48532.93
578.923	49155.52
579.121	48502.21
579.319	48610.76
579.516	48352.71
579.714	48303.56
579.912	48225.74
580.11	48256.46
580.308	48342.47
580.506	47810
580.704	47158.75
580.901	47269.34
581.099	48244.17
581.297	47414.74
581.495	47273.43
581.692	47568.34
581.89	46638.56
582.088	47488.47
582.285	46188.01
582.483	47396.31
582.681	46970.33
582.878	46708.19
583.076	46441.96
583.274	46882.27
583.471	45979.12
583.669	46392.81
583.866	45972.97
584.064	46247.4
584.262	45944.3
584.459	45774.32
584.657	45610.48
584.854	46032.36
585.052	45311.48
585.249	45706.74
585.447	45241.85
585.644	45295.1
585.841	45184.51
586.039	45082.11
586.236	44500.48
586.434	44840.45
586.631	44453.38
586.828	44819.97
587.026	44686.85
587.223	44381.7
587.42	44244.49
587.618	44322.31
587.815	44011.02
588.012	43898.38
588.21	43693.58
588.407	44647.94
588.604	43580.95
588.801	43204.12
588.999	43148.82
589.196	43238.93
589.393	43648.53
589.59	42798.62
589.787	43048.47
589.984	43077.15
590.182	42661.41
590.379	42888.73
590.576	42485.28
590.773	42534.43
590.97	42165.8
591.167	42370.6
591.364	41989.67
591.561	42429.99
591.758	41872.94
591.955	41922.09
592.152	41897.52
592.349	41397.81
592.546	41584.18
592.743	41770.54
592.94	40926.78
593.137	41190.97
593.334	41403.95
593.531	40597.06
593.727	41457.2
593.924	40879.67
594.121	40511.04
594.318	40951.35
594.515	40355.39
594.712	40982.07
594.908	40003.14
595.105	40134.21
595.302	39511.63
595.499	39958.09
595.696	40058.44
595.892	39628.37
596.089	39927.37
596.286	39417.43
596.482	39321.17
596.679	39714.38
596.876	39274.07
597.072	38852.19
597.269	39089.75
597.466	38706.78
597.662	38540.89
597.859	39073.37
598.055	38295.14
598.252	38368.87
598.448	38315.62
598.645	37942.89
598.841	37934.7
599.038	37992.04
599.234	37934.7
599.431	37568.11
599.627	37451.38
599.824	37854.83
600.02	37430.9
600.217	37510.77
600.413	37641.84
600.609	37459.57
600.806	36884.09
601.002	37174.9
601.198	36771.45
601.395	36689.53
601.591	36486.78
601.787	36738.68
601.984	36277.89
602.18	36509.31
602.376	36423.29
602.572	35907.21
602.769	36107.91
602.965	35788.42
603.161	36155.01
603.357	35344.02
603.553	35708.55
603.75	35665.55
603.946	35276.43
604.142	35497.61
604.338	35092.12
604.534	35337.87
604.73	34989.72
604.926	34498.2
605.122	35282.58
605.318	34649.75
605.514	34692.76
605.71	34383.52
605.906	34776.73
606.102	34866.84
606.298	34172.58
606.494	34287.26
606.69	34213.54
606.886	34133.67
607.082	33353.39
607.278	34180.77
607.474	33517.23
607.67	33719.98
607.866	33205.94
608.062	33867.43
608.257	33339.05
608.453	33525.42
608.649	33570.47
608.845	33085.11
609.041	33265.33
609.236	33193.65
609.432	33275.57
609.628	33343.15
609.824	33097.39
610.019	32949.94
610.215	32847.54
610.411	33029.81
610.606	32753.33
610.802	32718.52
610.998	32605.88
611.193	32607.93
611.389	32241.34
611.584	32579.26
611.78	32235.2
611.976	32337.6
612.171	32206.53
612.367	32306.88
612.562	32405.18
612.758	31862.47
612.953	31915.72
613.149	32337.6
613.344	31749.83
613.539	32034.5
613.735	31735.49
613.93	31954.63
614.126	31479.5
614.321	31690.44
614.517	31561.42
614.712	31721.16
614.907	31469.26
615.103	31608.52
615.298	31051.47
615.493	31491.79
615.688	31033.04
615.884	31663.82
616.079	30973.65
616.274	31530.7
616.47	30744.28
616.665	30736.09
616.86	30916.31
617.055	31041.23
617.25	30789.33
617.445	30897.88
617.641	30144.22
617.836	30793.43
618.031	30582.49
618.226	30783.19
618.421	30291.68
618.616	30480.09
618.811	29988.58
619.006	30160.61
619.201	30254.81
619.396	29693.67
619.591	29406.95
619.786	29996.77
619.981	29155.05
620.176	29554.41
620.371	29200.11
620.566	28954.35
620.761	28821.23
620.956	29236.97
621.151	28663.54
621.346	28927.73
621.541	28450.55
621.735	28471.03
621.93	28002.05
622.125	28067.58
622.32	27932.42
622.515	28079.87
622.709	27737.86
622.904	27631.37
623.099	27531.01
623.294	27670.28
623.488	27420.42
623.683	27012.88
623.878	26816.27
624.072	26930.96
624.267	26767.12
624.462	26488.6
624.656	26439.45
624.851	26648.34
625.046	26195.74
625.24	26314.52
625.435	25771.81
625.629	25726.75
625.824	25491.24
626.018	25440.04
626.213	25227.05
626.407	24948.53
626.602	24932.14
626.796	24856.37
626.991	25151.27
627.185	24799.02
627.38	24518.45
627.574	24590.13
627.768	24264.5
627.963	23859.01
628.157	23850.81
628.352	24104.76
628.546	23662.4
628.74	24055.61
628.935	23318.34
629.129	23551.81
629.323	23170.89
629.517	22931.28
629.712	22902.61
629.906	23195.46
630.1	22761.3
630.294	22613.84
630.489	22439.76
630.683	22452.05
630.877	22148.95
631.071	22380.37
631.265	22325.08
631.459	22073.18
631.653	22017.88
631.848	21813.09
632.042	21735.26
632.236	21688.16
632.43	21385.06
632.624	21647.2
632.818	21501.79
633.012	21051.24
633.206	21200.74
633.4	20993.9
633.594	20930.41
633.788	20637.55
633.982	20832.11
634.176	20768.62
634.369	20225.91
634.563	20598.64
634.757	20199.29
634.951	19986.3
635.145	19847.04
635.339	19861.37
635.533	19859.32
635.726	20053.88
635.92	19462.02
636.114	19470.21
636.308	19343.24
636.501	19277.7
636.695	19167.11
636.889	19064.71
637.083	18947.98
637.276	18714.51
637.47	18997.13
637.664	18876.3
637.857	18616.21
638.051	18671.5
638.244	18565.01
638.438	18257.81
638.632	18249.62
638.825	18247.57
639.019	18241.43
639.212	17848.22
639.406	17815.45
639.599	17819.55
639.793	17653.66
639.986	17735.58
640.18	17526.69
640.373	17516.45
640.567	17395.62
640.76	17342.37
640.954	16912.3
641.147	17020.84
641.34	17002.41
641.534	16922.54
641.727	16945.06
641.92	17102.76
642.114	16601.01
642.307	16574.38
642.5	16547.76
642.694	16381.87
642.887	16369.58
643.08	16310.19
643.273	16205.75
643.467	16048.05
643.66	15951.8
643.853	15931.32
644.046	15722.43
644.239	15859.64
644.432	15577.02
644.626	15638.46
644.819	15812.54
645.012	15611.84
645.205	15648.7
645.398	15310.79
645.591	15149
645.784	14954.44
645.977	15112.13
646.17	15157.19
646.363	14761.93
646.556	14913.48
646.749	14897.1
646.942	15017.93
647.135	14602.19
647.328	14596.04
647.521	14489.55
647.714	14469.07
647.907	14360.53
648.099	14487.5
648.292	14241.75
648.485	14276.56
648.678	13934.55
648.871	14266.32
649.064	13995.99
649.256	13912.02
649.449	13899.73
649.642	13909.97
649.835	13660.12
650.027	13430.75
650.22	13371.36
650.413	13307.87
650.605	13295.58
650.798	13115.36
650.991	13129.7
651.183	13039.59
651.376	12890.09
651.568	12795.88
651.761	12896.23
651.954	13015.01
652.146	12574.7
652.339	12580.84
652.531	12795.88
652.724	12513.26
652.916	12212.21
653.109	12595.18
653.301	12328.94
653.494	12429.29
653.686	12158.96
653.879	12419.05
654.071	12120.05
654.263	12060.66
654.456	12093.43
654.648	12156.91
654.84	11855.86
655.033	11747.32
655.225	11718.65
655.417	11726.84
655.61	11552.76
655.802	11831.29
655.994	11368.45
656.186	11569.15
656.379	11294.72
656.571	11323.39
656.763	11323.39
656.955	11276.29
657.148	11161.6
657.34	11048.96
657.532	11112.45
657.724	10891.27
657.916	11091.97
658.108	10792.97
658.3	10844.17
658.492	10995.71
658.684	10563.59
658.876	10897.41
659.068	10549.26
659.26	10414.09
659.452	10514.44
659.644	10432.52
659.836	10403.85
660.028	10522.63
660.22	10266.64
660.412	10260.49
660.604	10012.69
660.796	10176.53
660.988	10100.75
661.18	9957.39
661.372	10022.93
661.563	9977.87
661.755	9809.94
661.947	9650.2
662.139	9725.97
662.331	9834.52
662.522	9633.82
662.714	9654.3
662.906	9414.68
663.097	9508.89
663.289	9402.4
663.481	9422.87
663.673	9244.7
663.864	9279.52
664.056	9078.82
664.247	9320.48
664.439	9000.99
664.631	9150.5
664.822	9238.56
665.014	8935.46
665.205	8966.18
665.397	8974.37
665.588	9099.3
665.78	8919.07
665.971	8878.12
666.163	8857.64
666.354	8749.09
666.546	8673.32
666.737	8505.38
666.929	8519.72
667.12	8591.4
667.311	8585.26
667.503	8314.92
667.694	8597.54
667.885	8280.11
668.077	8470.57
668.268	8249.39
668.459	8423.47
668.651	8255.53
668.842	8196.14
669.033	8134.7
669.224	7995.44
669.416	8126.51
669.607	8001.58
669.798	7970.87
669.989	7817.27
670.18	7909.43
670.371	7819.32
670.563	7960.63
670.754	7831.6
670.945	7841.84
671.136	7571.51
671.327	7647.29
671.518	7759.92
671.709	7632.95
671.9	7620.66
672.091	7546.94
672.282	7546.94
672.473	7501.88
672.664	7591.99
672.855	7442.49
673.046	7485.5
673.237	7456.82
673.428	7399.48
673.619	7376.95
673.809	7356.47
674	7180.35
674.191	7118.91
674.382	7151.68
674.573	7284.8
674.764	7034.94
674.954	7229.5
675.145	7063.61
675.336	7045.18
675.527	7022.66
675.717	6832.19
675.908	6867.01
676.099	6862.91
676.289	6977.6
676.48	6895.68
676.671	6887.49
676.861	6619.21
677.052	6731.84
677.243	6754.37
677.433	6842.43
677.624	6729.8
677.814	6629.45
678.005	6776.9
678.195	6574.15
678.386	6727.75
678.576	6561.86
678.767	6553.67
678.957	6473.8
679.148	6627.4
679.338	6561.86
679.529	6438.98
679.719	6377.55
679.909	6522.95
680.1	6381.64
680.29	6463.56
680.481	6328.39
680.671	6305.87
680.861	6107.21
681.052	6301.77
681.242	6326.35
681.432	6371.4
681.622	6320.2
681.813	6281.29
682.003	6344.78
682.193	6242.38
682.383	6283.34
682.573	6197.32
682.764	6105.17
682.954	6170.7
683.144	6074.45
683.334	5849.17
683.524	5990.48
683.714	6076.49
683.904	6051.92
684.094	6023.25
684.284	5922.9
684.474	6010.96
684.664	5771.35
684.854	6043.73
685.044	5933.14
685.234	5875.79
685.424	5824.59
685.614	5617.75
685.804	5705.81
685.994	5765.2
686.184	5703.76
686.374	5695.57
686.564	5689.43
686.753	5607.51
686.943	5646.42
687.133	5509.21
687.323	5677.14
687.513	5662.8
687.702	5478.49
687.892	5584.98
688.082	5472.34
688.272	5394.52
688.461	5482.58
688.651	5419.1
688.841	5269.59
689.03	5320.79
689.22	5230.68
689.41	5236.83
689.599	5206.11
689.789	5257.31
689.979	5120.09
690.168	5068.89
690.358	5210.2
690.547	5056.61
690.737	5124.19
690.926	5064.8
691.116	4991.07
691.305	5015.65
691.495	5015.65
691.684	4892.77
691.874	4868.19
692.063	4827.23
692.252	4827.23
692.442	4874.34
692.631	4653.16
692.82	4903.01
693.01	4786.27
693.199	4638.82
693.388	4567.14
693.578	4675.68
693.767	4601.96
693.956	4597.86
694.146	4657.25
694.335	4571.24
694.524	4460.65
694.713	4507.75
694.902	4536.42
695.092	4382.82
695.281	4360.3
695.47	4419.69
695.659	4583.52
695.848	4360.3
696.037	4307.05
696.226	4421.74
696.415	4257.9
696.604	4548.71
696.793	4229.23
696.982	4276.33
697.171	4345.96
697.36	4210.79
697.549	4251.75
697.738	4157.55
697.927	4233.32
698.116	4149.36
698.305	3987.57
698.494	3926.13
698.683	3922.03
698.872	4042.86
699.061	3989.61
699.25	4026.48
699.438	4006
699.627	3942.51
699.816	3946.61
700.005	3969.13
700.193	4071.53
700.382	4063.34
700.571	3967.09
700.76	3899.5
700.948	3930.22
701.137	3926.13
701.326	3903.6
701.514	3731.57
701.703	3809.39
701.892	3903.6
702.08	3856.5
702.269	3827.82
702.457	3739.76
702.646	3612.79
702.834	3709.04
703.023	3723.38
703.212	3831.92
703.4	3557.49
703.589	3770.48
703.777	3649.65
703.965	3614.84
704.154	3774.58
704.342	3614.84
704.531	3582.07
704.719	3616.88
704.907	3661.94
705.096	3436.66
705.284	3537.01
705.472	3575.92
705.661	3510.39
705.849	3604.6
706.037	3522.68
706.226	3592.31
706.414	3446.9
706.602	3285.11
706.79	3463.29
706.979	3405.94
707.167	3553.4
707.355	3451
707.543	3514.49
707.731	3494.01
707.919	3455.09
708.107	3635.32
708.296	3293.3
708.484	3375.22
708.672	3270.78
708.86	3338.36
709.048	3383.42
709.236	3412.09
709.424	3401.85
709.612	3369.08
709.8	3448.95
709.988	3266.68
710.176	3391.61
710.364	3199.1
710.551	3291.26
710.739	3373.18
710.927	3330.17
711.115	3244.15
711.303	3389.56
711.491	3299.45
711.679	3340.41
711.866	3315.83
712.054	3264.63
712.242	3362.94
712.43	3250.3
712.617	3129.47
712.805	3250.3
712.993	3235.96
713.181	3182.71
713.368	3176.57
713.556	3293.3
713.744	3252.35
713.931	3315.83
714.119	3197.05
714.306	3074.17
714.494	3156.09
714.682	3219.58
714.869	3162.23
715.057	3248.25
715.244	3229.82
715.432	3215.48
715.619	3180.67
715.807	3039.36
715.994	3154.04
716.182	3149.95
716.369	3162.23
716.556	3221.63
716.744	2996.35
716.931	2945.15
717.119	3195
717.306	3080.32
717.493	3098.75
717.681	3121.28
717.868	3123.32
718.055	3063.93
718.242	3041.4
718.43	3098.75
718.617	3127.42
718.804	2992.25
718.991	3002.49
719.179	3063.93
719.366	3053.69
719.553	3080.32
719.74	3164.28
719.927	2842.75
720.114	2982.01
720.301	3080.32
720.488	3100.8
720.676	3061.88
720.863	3041.4
721.05	3022.97
721.237	3102.84
721.424	3068.03
721.611	2959.49
721.798	2959.49
721.985	2945.15
722.172	2900.09
722.358	3033.21
722.545	3061.88
722.732	2889.85
722.919	2959.49
723.106	2941.05
723.293	2943.1
723.48	3047.55
723.667	2871.42
723.853	2902.14
724.04	3012.73
724.227	2943.1
724.414	2982.01
724.6	3020.92
724.787	2902.14
724.974	2992.25
725.161	2996.35
725.347	3123.32
725.534	3004.54
725.72	3022.97
725.907	2963.58
726.094	2926.72
726.28	2977.92
726.467	2801.79
726.653	2881.66
726.84	3139.71
727.027	2928.77
727.213	2918.53
727.4	2928.77
727.586	2918.53
727.773	3053.69
727.959	3000.44
728.145	3020.92
728.332	2934.91
728.518	2861.18
728.705	3043.45
728.891	2885.76
729.077	2936.96
729.264	2965.63
729.45	2945.15
729.636	3004.54
729.823	2902.14
730.009	3080.32
730.195	3055.74
730.382	3117.18
730.568	2891.9
730.754	2998.4
730.94	3041.4
731.126	3031.16
731.313	3108.99
731.499	2926.72
731.685	3020.92
731.871	2916.48
732.057	3061.88
732.243	3014.78
732.429	2967.68
732.615	3088.51
732.801	3094.65
732.987	2967.68
733.173	3006.59
733.359	3018.88
733.545	3133.56
733.731	3121.28
733.917	3084.41
734.103	3045.5
734.289	3207.29
734.475	3020.92
734.661	3000.44
734.847	3025.02
735.033	3068.03
735.219	3141.75
735.404	3121.28
735.59	2828.42
735.776	3035.26
735.962	3068.03
736.148	3041.4
736.333	3147.9
736.519	2990.21
736.705	3117.18
736.89	2986.11
737.076	2975.87
737.262	2943.1
737.447	3115.13
737.633	3045.5
737.819	3012.73
738.004	3065.98
738.19	3104.89
738.375	3053.69
738.561	3108.99
738.747	3025.02
738.932	3047.55
739.118	3156.09
739.303	3010.68
739.489	3141.75
739.674	3043.45
739.859	3049.6
740.045	3068.03
740.23	3108.99
740.416	3090.56
740.601	3133.56
740.786	3006.59
740.972	3012.73
741.157	3014.78
741.342	2920.57
741.528	3027.07
741.713	3035.26
741.898	2951.29
742.084	2979.97
742.269	3029.12
742.454	3068.03
742.639	3000.44
742.824	2994.3
743.01	3000.44
743.195	3014.78
743.38	2949.25
743.565	2959.49
743.75	2967.68
743.935	2867.33
744.12	2959.49
744.305	2941.05
744.49	2992.25
744.675	2910.33
744.86	2877.57
745.045	3029.12
745.23	2918.53
745.415	2902.14
745.6	3025.02
745.785	2867.33
745.97	2926.72
746.155	2979.97
746.34	2930.81
746.525	2910.33
746.71	3031.16
746.895	2785.41
747.079	2926.72
747.264	2846.85
747.449	2861.18
747.634	2742.4
747.819	2760.83
748.003	2848.9
748.188	2752.64
748.373	2709.63
748.557	2703.49
748.742	2830.46
748.927	2635.91
749.111	2619.52
749.296	2666.63
749.481	2787.46
749.665	2672.77
749.85	2711.68
750.034	2617.47
750.219	2683.01
750.404	2713.73
750.588	2670.72
750.773	2603.14
750.957	2605.19
751.141	2576.52
751.326	2586.76
751.51	2574.47
751.695	2560.13
751.879	2592.9
752.064	2523.27
752.248	2486.4
752.432	2568.32
752.617	2527.36
752.801	2474.12
752.985	2379.91
753.17	2564.23
753.354	2402.44
753.538	2470.02
753.722	2375.81
753.907	2316.42
754.091	2351.24
754.275	2445.45
754.459	2295.94
754.643	2324.62
754.828	2347.14
755.012	2367.62
755.196	2341
755.38	2283.66
755.564	2179.21
755.748	2281.61
755.932	2310.28
756.116	2230.41
756.3	2240.65
756.484	2132.11
756.668	2246.79
756.852	2080.91
757.036	2220.17
757.22	2117.77
757.404	2119.82
757.588	2121.87
757.772	2091.15
757.956	2082.95
758.14	2162.83
758.323	2017.42
758.507	2105.48
758.691	2123.91
758.875	1970.32
759.059	2035.85
759.242	2058.38
759.426	2044.04
759.61	1980.56
759.794	1953.93
759.977	1953.93
760.161	2050.19
760.345	2050.19
760.528	1915.02
760.712	1923.21
760.895	1939.6
761.079	1921.17
761.263	1839.25
761.446	1843.34
761.63	1878.16
761.813	1890.45
761.997	1900.69
762.18	1845.39
762.364	2009.23
762.547	1837.2
762.731	1878.16
762.914	1824.91
763.098	1876.11
763.281	1820.81
763.464	1816.72
763.648	1786
763.831	1820.81
764.015	1691.79
764.198	1697.94
764.381	1826.96
764.564	1788.05
764.748	1757.33
764.931	1755.28
765.114	1685.65
765.297	1747.09
765.481	1663.12
765.664	1722.51
765.847	1626.26
766.03	1603.73
766.213	1691.79
766.397	1675.41
766.58	1730.7
766.763	1661.07
766.946	1609.87
767.129	1716.37
767.312	1581.2
767.495	1613.97
767.678	1585.3
767.861	1663.12
768.044	1669.27
768.227	1599.63
768.41	1691.79
768.593	1677.46
768.776	1550.48
768.959	1542.29
769.142	1659.03
769.324	1517.72
769.507	1642.64
769.69	1603.73
769.873	1585.3
770.056	1589.39
770.239	1421.46
770.421	1577.11
770.604	1427.6
770.787	1532.05
770.97	1462.42
771.152	1478.8
771.335	1495.19
771.518	1435.8
771.7	1482.9
771.883	1554.58
772.066	1433.75
772.248	1345.69
772.431	1427.6
772.613	1443.99
772.796	1458.32
772.978	1491.09
773.161	1472.66
773.343	1366.17
773.526	1333.4
773.708	1298.58
773.891	1456.28
774.073	1325.21
774.256	1419.41
774.438	1466.52
774.621	1439.89
774.803	1294.49
774.985	1355.93
775.168	1228.95
775.35	1339.54
775.532	1251.48
775.715	1284.25
775.897	1345.69
776.079	1235.1
776.261	1298.58
776.444	1337.49
776.626	1263.77
776.808	1194.14
776.99	1183.9
777.173	1235.1
777.355	1181.85
777.537	1077.4
777.719	1101.98
777.901	1122.46
778.083	1210.52
778.265	1149.08
778.447	1228.95
778.629	1097.88
778.811	1147.03
778.993	1085.59
779.175	1030.3
779.357	1087.64
779.539	1038.49
779.721	1140.89
779.903	1134.75
780.085	1009.82
780.267	1067.16
780.449	1003.68
780.631	1056.92
780.812	1048.73
780.994	1013.92
781.176	962.72
781.358	1101.98
781.54	1026.2
781.721	972.96
781.903	985.24
782.085	979.1
782.267	946.33
782.448	882.85
782.63	968.86
782.812	966.81
782.993	884.89
783.175	981.15
783.357	837.79
783.538	817.31
783.72	829.6
783.901	829.6
784.083	899.23
784.264	848.03
784.446	841.89
784.627	809.12
784.809	841.89
784.99	843.93
785.172	768.16
785.353	868.51
785.535	712.86
785.716	833.69
785.897	782.49
786.079	854.17
786.26	809.12
786.441	802.97
786.623	737.44
786.804	800.93
786.985	743.58
787.167	813.21
787.348	817.31
787.529	706.72
787.71	721.06
787.891	700.58
788.073	766.11
788.254	690.34
788.435	755.87
788.616	696.48
788.797	657.57
788.978	669.86
789.159	622.75
789.34	735.39
789.522	692.38
789.703	721.06
789.884	696.48
790.065	719.01
790.246	682.14
790.427	630.95
790.607	626.85
790.788	682.14
790.969	725.15
791.15	643.23
791.331	510.11
791.512	632.99
791.693	608.42
791.874	592.03
792.054	643.23
792.235	647.33
792.416	657.57
792.597	594.08
792.778	587.94
792.958	587.94
793.139	612.51
793.32	567.46
793.5	540.83
793.681	645.28
793.862	534.69
794.042	516.26
794.223	583.84
794.404	518.31
794.584	553.12
794.765	477.35
794.945	458.92
795.126	614.56
795.306	514.21
795.487	512.16
795.667	456.87
795.848	489.64
796.028	479.4
796.209	495.78
796.389	544.93
796.57	526.5
796.75	567.46
796.93	469.16
797.111	420
797.291	518.31
797.471	516.26
797.652	546.98
797.832	481.44
798.012	465.06
798.192	491.68
798.373	434.34
798.553	501.92
798.733	430.24
798.913	403.62
799.093	407.72
799.274	432.29
799.454	471.2
799.634	442.53
799.814	432.29
799.994	485.54
800.174	424.1
800.354	393.38
800.534	391.33
800.714	417.96
800.894	409.76
801.074	395.43
801.254	454.82
801.434	485.54
801.614	389.28
801.794	430.24
801.974	1085.59
802.154	430.24
802.334	428.2
802.514	370.85
802.693	403.62
802.873	428.2
803.053	497.83
803.233	430.24
803.413	381.09
803.592	305.32
803.772	266.41
803.952	401.57
804.131	389.28
804.311	458.92
804.491	434.34
804.67	346.28
804.85	340.13
805.03	424.1
805.209	430.24
805.389	336.04
805.568	293.03
805.748	397.48
805.928	374.95
806.107	381.09
806.287	346.28
806.466	284.84
806.646	331.94
806.825	327.85
807.004	352.42
807.184	368.81
807.363	350.37
807.543	311.46
807.722	381.09
807.901	325.8
808.081	426.15
808.26	327.85
808.439	288.93
808.619	362.66
808.798	354.47
808.977	274.6
809.156	374.95
809.336	288.93
809.515	342.18
809.694	231.59
809.873	260.26
810.052	381.09
810.231	383.14
810.411	239.78
810.59	254.12
810.769	325.8
810.948	317.61
811.127	284.84
811.306	276.65
811.485	288.93
811.664	319.65
811.843	288.93
812.022	262.31
812.201	299.17
812.38	262.31
812.559	215.21
812.737	274.6
812.916	250.02
813.095	180.39
813.274	370.85
813.453	293.03
813.632	270.5
813.811	229.54
813.989	213.16
814.168	268.45
814.347	229.54
814.526	237.74
814.704	311.46
814.883	293.03
815.062	213.16
815.24	321.7
815.419	266.41
815.598	258.21
815.776	194.73
815.955	207.02
816.133	202.92
816.312	200.87
816.49	237.74
816.669	288.93
816.847	227.5
817.026	250.02
817.204	223.4
817.383	274.6
817.561	168.1
817.74	237.74
817.918	252.07
818.097	252.07
818.275	184.49
818.453	223.4
818.632	239.78
818.81	184.49
818.988	164.01
819.167	282.79
819.345	192.68
819.523	217.26
819.701	176.3
819.879	250.02
820.058	217.26
820.236	209.06
820.414	260.26
820.592	184.49
820.77	184.49
820.948	137.38
821.127	145.58
821.305	219.3
821.483	170.15
821.661	247.97
821.839	145.58
822.017	182.44
822.195	241.83
822.373	299.17
822.551	172.2
822.729	164.01
822.907	237.74
823.085	313.51
823.262	200.87
823.44	196.78
823.618	260.26
823.796	153.77
823.974	151.72
824.152	86.19
824.329	182.44
824.507	176.3
824.685	221.35
824.863	198.82
825.04	172.2
825.218	256.17
825.396	180.39
825.574	168.1
825.751	121
825.929	166.06
826.107	112.81
826.284	161.96
826.462	207.02
826.639	198.82
826.817	172.2
826.994	104.62
827.172	104.62
827.349	299.17
827.527	147.62
827.704	182.44
827.882	151.72
828.059	129.19
828.237	108.71
828.414	182.44
828.591	116.9
828.769	155.82
828.946	139.43
829.124	125.1
829.301	186.54
829.478	168.1
829.655	174.25
829.833	102.57
830.01	145.58
830.187	188.58
830.364	100.52
830.542	168.1
830.719	188.58
830.896	139.43
831.073	84.14
831.25	151.72
831.427	147.62
831.604	129.19
831.782	139.43
831.959	233.64
832.136	149.67
832.313	141.48
832.49	151.72
832.667	114.86
832.844	137.38
833.021	147.62
833.198	129.19
833.374	131.24
833.551	184.49
833.728	194.73
833.905	166.06
834.082	112.81
834.259	125.1
834.436	178.34
834.612	59.56
834.789	188.58
834.966	207.02
835.143	145.58
835.319	116.9
835.496	198.82
835.673	112.81
835.85	172.2
836.026	112.81
836.203	80.04
836.38	141.48
836.556	159.91
836.733	92.33
836.909	221.35
837.086	147.62
837.262	112.81
837.439	106.67
837.616	88.23
837.792	155.82
837.968	102.57
838.145	65.71
838.321	98.47
838.498	88.23
838.674	100.52
838.851	192.68
839.027	26.79
839.203	186.54
839.38	98.47
839.556	84.14
839.732	67.75
839.909	112.81
840.085	100.52
840.261	6.31
840.437	114.86
840.614	73.9
840.79	157.86
840.966	88.23
841.142	131.24
841.318	92.33
841.494	77.99
841.671	104.62
841.847	53.42
842.023	69.8
842.199	133.29
842.375	75.95
842.551	39.08
842.727	104.62
842.903	159.91
843.079	61.61
843.255	82.09
843.431	127.14
843.607	84.14
843.783	82.09
843.959	178.34
844.134	57.51
844.31	137.38
844.486	73.9
844.662	80.04
844.838	39.08
845.013	106.67
845.189	24.75
845.365	63.66
845.541	82.09
845.716	22.7
845.892	108.71
846.068	94.38
846.244	118.95
846.419	100.52
846.595	49.32
846.77	53.42
846.946	125.1
847.122	55.47
847.297	37.03
847.473	139.43
847.648	30.89
847.824	63.66
847.999	-32.6
848.175	41.13
848.35	24.75
848.526	55.47
848.701	30.89
848.876	135.34
849.052	65.71
849.227	94.38
849.403	0.17
849.578	20.65
849.753	67.75
849.929	73.9
850.104	4.27
850.279	73.9
850.454	114.86
850.63	125.1
850.805	90.28
850.98	127.14
851.155	104.62
851.33	47.27
851.505	59.56
851.681	75.95
851.856	41.13
852.031	110.76
852.206	88.23
852.381	26.79
852.556	26.79
852.731	94.38
852.906	92.33
853.081	96.43
853.256	57.51
853.431	53.42
853.606	84.14
853.781	114.86
853.956	61.61
854.131	55.47
854.305	43.18
854.48	53.42
854.655	32.94
854.83	43.18
855.005	69.8
855.18	84.14
855.354	53.42
855.529	47.27
855.704	-8.02
855.879	98.47
856.053	16.55
856.228	57.51
856.403	-36.69
856.577	55.47
856.752	41.13
856.926	51.37
857.101	10.41
857.276	100.52
857.45	49.32
857.625	108.71
857.799	94.38
857.974	98.47
858.148	98.47
858.323	96.43
858.497	39.08
858.672	-16.21
858.846	-16.21
859.02	131.24
859.195	47.27
859.369	65.71
859.543	71.85
859.718	22.7
859.892	28.84
860.066	90.28
860.241	37.03
860.415	63.66
860.589	59.56
860.763	114.86
860.938	55.47
861.112	14.51
861.286	57.51
861.46	98.47
861.634	-1.88
861.808	57.51
861.982	45.23
862.157	45.23
862.331	4.27
862.505	-12.12
862.679	-55.12
862.853	26.79
863.027	-18.26
863.201	71.85
863.375	0.17
863.549	6.31
863.722	53.42
863.896	100.52
864.07	-24.4
864.244	43.18
864.418	-24.4
864.592	53.42
864.766	133.29
864.939	32.94
865.113	6.31
865.287	114.86
865.461	98.47
865.634	77.99
865.808	28.84
865.982	69.8
866.156	12.46
866.329	18.6
866.503	92.33
866.676	77.99
866.85	106.67
867.024	10.41
867.197	57.51
867.371	69.8
867.544	22.7
867.718	10.41
867.891	69.8
868.065	-30.55
868.238	82.09
868.412	34.99
868.585	73.9
868.759	131.24
868.932	-5.97
869.105	-8.02
869.279	28.84
869.452	63.66
869.625	12.46
869.799	53.42
869.972	-28.5
870.145	26.79
870.319	12.46
870.492	100.52
870.665	80.04
870.838	106.67
871.011	24.75
871.185	63.66
871.358	-1.88
871.531	98.47
871.704	14.51
871.877	51.37
872.05	8.36
872.223	34.99
872.396	43.18
872.569	41.13
872.742	6.31
872.915	63.66
873.088	0.17
873.261	18.6
873.434	108.71
873.607	53.42
873.78	37.03
873.953	10.41
874.126	-16.21
874.299	51.37
874.471	14.51
874.644	67.75
874.817	69.8
874.99	75.95
875.163	14.51
875.335	8.36
875.508	-12.12
875.681	71.85
875.853	30.89
876.026	86.19
876.199	6.31
876.371	53.42
876.544	20.65
876.717	39.08
876.889	45.23
877.062	43.18
877.234	0.17
877.407	28.84
877.579	-5.97
877.752	57.51
877.924	102.57
878.097	2.22
878.269	24.75
878.442	-8.02
878.614	4.27
878.786	53.42
878.959	34.99
879.131	106.67
879.303	14.51
879.476	80.04
879.648	18.6
879.82	26.79
879.993	-8.02
880.165	-28.5
880.337	-22.36
880.509	4.27
880.681	-1.88
880.854	-3.93
881.026	20.65
881.198	61.61
881.37	39.08
881.542	77.99
881.714	14.51
881.886	37.03
882.058	-10.07
882.23	86.19
882.402	14.51
882.574	-85.84
882.746	39.08
882.918	-16.21
883.09	55.47
883.262	-30.55
883.434	-1.88
883.606	-5.97
883.778	37.03
883.95	20.65
884.122	4.27
884.293	30.89
884.465	55.47
884.637	65.71
884.809	45.23
884.98	-30.55
885.152	-22.36
885.324	55.47
885.496	-32.6
885.667	24.75
885.839	32.94
886.011	63.66
886.182	30.89
886.354	51.37
886.525	22.7
886.697	53.42
886.869	-34.64
887.04	-20.31
887.212	96.43
887.383	67.75
887.555	0.17
887.726	-42.84
887.897	22.7
888.069	77.99
888.24	-5.97
888.412	51.37
888.583	18.6
888.754	26.79
888.926	-59.22
889.097	63.66
889.268	-57.17
889.44	30.89
889.611	-40.79
889.782	12.46
889.953	37.03
890.125	69.8
890.296	-44.88
890.467	14.51
890.638	-26.45
890.809	14.51
890.98	-10.07
891.151	-42.84
891.323	16.55
891.494	-22.36
891.665	-59.22
891.836	53.42
892.007	59.56
892.178	67.75
892.349	-5.97
892.52	22.7
892.691	6.31
892.862	22.7
893.032	-10.07
893.203	-3.93
893.374	-48.98
893.545	94.38
893.716	-94.04
893.887	30.89
894.057	-28.5
894.228	34.99
894.399	12.46
894.57	-51.03
894.74	-26.45
894.911	16.55
895.082	14.51
895.253	-53.08
895.423	-26.45
895.594	77.99
895.764	-18.26
895.935	-20.31
896.106	100.52
896.276	-24.4
896.447	-59.22
896.617	0.17
896.788	14.51
896.958	-5.97
897.129	39.08
897.299	26.79
897.47	14.51
897.64	90.28
897.81	-26.45
897.981	10.41
898.151	-12.12
898.322	2.22
898.492	12.46
898.662	88.23
898.832	-16.21
899.003	16.55
899.173	51.37
899.343	61.61
899.513	26.79
