Data from USB4F104151__13__12-41-01-136.txt Node

Date: Fri Mar 14 12:41:01 EDT 2025
User: louis
Spectrometer: USB4F10415
Trigger mode: 4
Integration Time (sec): 3.000000E-2
Scans to average: 1
Electric dark correction enabled: true
Nonlinearity correction enabled: false
Boxcar width: 0
XAxis mode: Wavelengths
Number of Pixels in Spectrum: 3648
>>>>>Begin Spectral Data<<<<<
178.204	-85.5
178.424	-85.5
178.644	-85.5
178.864	-171.52
179.084	-136.7
179.304	-13.82
179.524	4.61
179.744	-56.83
179.964	4.61
180.184	-38.4
180.404	-9.73
180.624	16.9
180.844	43.52
181.064	-11.78
181.283	37.38
181.503	16.9
181.723	6.66
181.943	-71.17
182.163	-28.16
182.383	12.8
182.602	-30.21
182.822	51.71
183.042	-24.06
183.262	-50.69
183.482	31.23
183.701	37.38
183.921	74.24
184.141	47.62
184.361	39.42
184.58	-79.36
184.8	37.38
185.02	53.76
185.239	76.29
185.459	55.81
185.679	78.33
185.898	-28.16
186.118	102.91
186.338	61.95
186.557	18.94
186.777	31.23
186.997	43.52
187.216	-3.58
187.436	57.86
187.655	45.57
187.875	14.85
188.095	68.09
188.314	55.81
188.534	129.53
188.753	72.19
188.973	-15.87
189.192	76.29
189.412	14.85
189.631	20.99
189.851	45.57
190.07	-9.73
190.29	18.94
190.509	-1.54
190.729	-11.78
190.948	31.23
191.168	125.44
191.387	0.51
191.607	-19.97
191.826	41.47
192.045	64
192.265	27.14
192.484	119.29
192.704	-9.73
192.923	-26.11
193.142	94.72
193.362	14.85
193.581	39.42
193.8	8.7
194.02	86.53
194.239	14.85
194.458	80.38
194.678	2.56
194.897	10.75
195.116	27.14
195.335	59.9
195.555	-5.63
195.774	31.23
195.993	12.8
196.212	68.09
196.432	4.61
196.651	-52.74
196.87	-22.02
197.089	72.19
197.308	25.09
197.528	86.53
197.747	-130.56
197.966	14.85
198.185	55.81
198.404	-15.87
198.623	-5.63
198.842	98.81
199.062	33.28
199.281	64
199.5	2.56
199.719	41.47
199.938	-13.82
200.157	-3.58
200.376	45.57
200.595	23.04
200.814	64
201.033	-34.3
201.252	45.57
201.471	31.23
201.69	-7.68
201.909	43.52
202.128	20.99
202.347	72.19
202.566	12.8
202.785	-5.63
203.004	33.28
203.223	90.62
203.442	37.38
203.661	27.14
203.879	-22.02
204.098	64
204.317	-13.82
204.536	88.57
204.755	12.8
204.974	23.04
205.193	74.24
205.411	70.14
205.63	74.24
205.849	25.09
206.068	23.04
206.287	27.14
206.505	109.05
206.724	76.29
206.943	-60.93
207.162	78.33
207.381	-36.35
207.599	2.56
207.818	20.99
208.037	10.75
208.255	80.38
208.474	-36.35
208.693	64
208.911	25.09
209.13	23.04
209.349	61.95
209.567	14.85
209.786	55.81
210.005	88.57
210.223	76.29
210.442	-56.83
210.661	16.9
210.879	10.75
211.098	61.95
211.316	37.38
211.535	72.19
211.753	12.8
211.972	8.7
212.191	31.23
212.409	55.81
212.628	18.94
212.846	70.14
213.065	35.33
213.283	-13.82
213.502	31.23
213.72	6.66
213.938	14.85
214.157	-7.68
214.375	20.99
214.594	-1.54
214.812	51.71
215.031	55.81
215.249	-83.45
215.467	16.9
215.686	53.76
215.904	90.62
216.122	43.52
216.341	49.66
216.559	23.04
216.778	29.18
216.996	16.9
217.214	33.28
217.432	25.09
217.651	-3.58
217.869	2.56
218.087	8.7
218.306	4.61
218.524	100.86
218.742	-11.78
218.96	10.75
219.179	12.8
219.397	23.04
219.615	141.82
219.833	45.57
220.051	39.42
220.27	68.09
220.488	-9.73
220.706	33.28
220.924	86.53
221.142	70.14
221.36	55.81
221.578	41.47
221.796	25.09
222.015	61.95
222.233	53.76
222.451	37.38
222.669	-32.26
222.887	23.04
223.105	29.18
223.323	14.85
223.541	68.09
223.759	-11.78
223.977	31.23
224.195	-3.58
224.413	33.28
224.631	150.01
224.849	49.66
225.067	43.52
225.285	47.62
225.503	53.76
225.721	-120.32
225.939	-13.82
226.157	12.8
226.375	96.77
226.592	66.05
226.81	31.23
227.028	25.09
227.246	131.58
227.464	16.9
227.682	55.81
227.9	-5.63
228.117	18.94
228.335	25.09
228.553	25.09
228.771	-36.35
228.989	29.18
229.206	-5.63
229.424	41.47
229.642	39.42
229.86	-26.11
230.077	2.56
230.295	10.75
230.513	55.81
230.731	33.28
230.948	66.05
231.166	27.14
231.384	-7.68
231.601	-1.54
231.819	111.1
232.037	18.94
232.254	-26.11
232.472	-48.64
232.689	-26.11
232.907	-24.06
233.125	-24.06
233.342	88.57
233.56	64
233.777	16.9
233.995	82.43
234.213	82.43
234.43	70.14
234.648	16.9
234.865	-44.54
235.083	18.94
235.3	51.71
235.518	121.34
235.735	27.14
235.953	55.81
236.17	72.19
236.388	90.62
236.605	25.09
236.822	104.96
237.04	20.99
237.257	59.9
237.475	-3.58
237.692	4.61
237.909	20.99
238.127	20.99
238.344	49.66
238.562	-32.26
238.779	14.85
238.996	10.75
239.214	12.8
239.431	27.14
239.648	82.43
239.865	55.81
240.083	111.1
240.3	2.56
240.517	76.29
240.735	41.47
240.952	74.24
241.169	43.52
241.386	10.75
241.603	51.71
241.821	18.94
242.038	59.9
242.255	64
242.472	76.29
242.689	23.04
242.907	64
243.124	-19.97
243.341	-22.02
243.558	-15.87
243.775	-5.63
243.992	25.09
244.209	66.05
244.426	143.87
244.643	76.29
244.86	14.85
245.078	29.18
245.295	66.05
245.512	45.57
245.729	-5.63
245.946	23.04
246.163	31.23
246.38	-9.73
246.597	35.33
246.814	27.14
247.031	14.85
247.248	-26.11
247.464	45.57
247.681	61.95
247.898	12.8
248.115	25.09
248.332	14.85
248.549	35.33
248.766	49.66
248.983	51.71
249.2	57.86
249.417	27.14
249.633	14.85
249.85	51.71
250.067	6.66
250.284	0.51
250.501	70.14
250.717	154.11
250.934	-28.16
251.151	33.28
251.368	43.52
251.585	102.91
251.801	33.28
252.018	-3.58
252.235	78.33
252.451	18.94
252.668	-44.54
252.885	64
253.102	-15.87
253.318	53.76
253.535	-7.68
253.752	25.09
253.968	37.38
254.185	-65.02
254.401	45.57
254.618	-11.78
254.835	4.61
255.051	82.43
255.268	14.85
255.484	100.86
255.701	-22.02
255.917	43.52
256.134	33.28
256.351	16.9
256.567	18.94
256.784	14.85
257	-3.58
257.217	92.67
257.433	37.38
257.65	49.66
257.866	12.8
258.082	-56.83
258.299	12.8
258.515	47.62
258.732	-79.36
258.948	-56.83
259.165	47.62
259.381	-42.5
259.597	90.62
259.814	117.25
260.03	-32.26
260.246	61.95
260.463	14.85
260.679	33.28
260.895	-13.82
261.112	82.43
261.328	-32.26
261.544	35.33
261.761	125.44
261.977	6.66
262.193	39.42
262.409	29.18
262.626	20.99
262.842	115.2
263.058	64
263.274	31.23
263.49	92.67
263.707	66.05
263.923	6.66
264.139	43.52
264.355	96.77
264.571	12.8
264.787	25.09
265.004	25.09
265.22	107.01
265.436	12.8
265.652	51.71
265.868	27.14
266.084	45.57
266.3	57.86
266.516	-17.92
266.732	18.94
266.948	37.38
267.164	59.9
267.38	23.04
267.596	23.04
267.812	80.38
268.028	72.19
268.244	-5.63
268.46	23.04
268.676	-7.68
268.892	53.76
269.108	-22.02
269.324	84.48
269.54	23.04
269.756	82.43
269.972	47.62
270.188	70.14
270.403	78.33
270.619	45.57
270.835	57.86
271.051	-28.16
271.267	33.28
271.483	39.42
271.698	107.01
271.914	78.33
272.13	-13.82
272.346	31.23
272.562	-15.87
272.777	57.86
272.993	64
273.209	-15.87
273.425	61.95
273.64	41.47
273.856	43.52
274.072	64
274.287	10.75
274.503	43.52
274.719	-30.21
274.934	68.09
275.15	18.94
275.366	-28.16
275.581	8.7
275.797	49.66
276.012	68.09
276.228	66.05
276.444	-13.82
276.659	88.57
276.875	33.28
277.09	111.1
277.306	59.9
277.521	41.47
277.737	51.71
277.952	14.85
278.168	-11.78
278.383	78.33
278.599	-30.21
278.814	37.38
279.03	39.42
279.245	78.33
279.461	53.76
279.676	-11.78
279.892	-40.45
280.107	-54.78
280.322	35.33
280.538	25.09
280.753	86.53
280.969	31.23
281.184	49.66
281.399	82.43
281.615	16.9
281.83	43.52
282.045	37.38
282.26	-22.02
282.476	-3.58
282.691	0.51
282.906	102.91
283.122	57.86
283.337	0.51
283.552	29.18
283.767	18.94
283.983	53.76
284.198	49.66
284.413	57.86
284.628	-1.54
284.843	51.71
285.058	51.71
285.274	43.52
285.489	8.7
285.704	72.19
285.919	47.62
286.134	12.8
286.349	12.8
286.564	6.66
286.779	18.94
286.995	-11.78
287.21	-38.4
287.425	-9.73
287.64	49.66
287.855	6.66
288.07	55.81
288.285	82.43
288.5	33.28
288.715	133.63
288.93	25.09
289.145	74.24
289.36	66.05
289.575	6.66
289.79	111.1
290.004	25.09
290.219	88.57
290.434	4.61
290.649	-26.11
290.864	-24.06
291.079	-17.92
291.294	18.94
291.509	45.57
291.724	2.56
291.938	74.24
292.153	8.7
292.368	25.09
292.583	51.71
292.798	68.09
293.012	29.18
293.227	102.91
293.442	68.09
293.657	-22.02
293.871	80.38
294.086	143.87
294.301	92.67
294.516	6.66
294.73	121.34
294.945	39.42
295.16	57.86
295.374	61.95
295.589	119.29
295.804	8.7
296.018	-54.78
296.233	59.9
296.447	-65.02
296.662	33.28
296.877	27.14
297.091	35.33
297.306	29.18
297.52	-52.74
297.735	33.28
297.949	111.1
298.164	57.86
298.378	10.75
298.593	-24.06
298.807	-32.26
299.022	-1.54
299.236	80.38
299.451	25.09
299.665	8.7
299.88	6.66
300.094	35.33
300.309	-11.78
300.523	86.53
300.737	59.9
300.952	-13.82
301.166	27.14
301.381	49.66
301.595	16.9
301.809	78.33
302.024	70.14
302.238	0.51
302.452	111.1
302.667	-19.97
302.881	82.43
303.095	35.33
303.309	82.43
303.524	18.94
303.738	53.76
303.952	72.19
304.166	82.43
304.381	-50.69
304.595	59.9
304.809	-1.54
305.023	49.66
305.237	14.85
305.452	8.7
305.666	45.57
305.88	113.15
306.094	25.09
306.308	16.9
306.522	107.01
306.736	72.19
306.95	76.29
307.164	12.8
307.379	0.51
307.593	10.75
307.807	117.25
308.021	8.7
308.235	76.29
308.449	59.9
308.663	64
308.877	98.81
309.091	49.66
309.305	12.8
309.519	-5.63
309.733	88.57
309.947	-1.54
310.161	147.97
310.374	18.94
310.588	78.33
310.802	29.18
311.016	2.56
311.23	66.05
311.444	90.62
311.658	78.33
311.872	61.95
312.085	12.8
312.299	102.91
312.513	49.66
312.727	72.19
312.941	2.56
313.154	-15.87
313.368	-36.35
313.582	82.43
313.796	74.24
314.009	64
314.223	59.9
314.437	66.05
314.651	47.62
314.864	23.04
315.078	10.75
315.292	27.14
315.505	-30.21
315.719	27.14
315.933	20.99
316.146	86.53
316.36	10.75
316.573	41.47
316.787	82.43
317.001	33.28
317.214	45.57
317.428	41.47
317.641	-24.06
317.855	137.73
318.068	76.29
318.282	10.75
318.495	96.77
318.709	45.57
318.922	41.47
319.136	135.68
319.349	86.53
319.563	0.51
319.776	47.62
319.99	45.57
320.203	66.05
320.417	66.05
320.63	74.24
320.843	86.53
321.057	12.8
321.27	76.29
321.483	51.71
321.697	12.8
321.91	-15.87
322.124	-22.02
322.337	59.9
322.55	43.52
322.763	84.48
322.977	90.62
323.19	39.42
323.403	33.28
323.617	27.14
323.83	64
324.043	37.38
324.256	64
324.469	-22.02
324.683	80.38
324.896	45.57
325.109	31.23
325.322	31.23
325.535	123.39
325.748	37.38
325.962	113.15
326.175	43.52
326.388	43.52
326.601	16.9
326.814	39.42
327.027	-26.11
327.24	121.34
327.453	-9.73
327.666	84.48
327.879	-26.11
328.092	53.76
328.305	39.42
328.518	27.14
328.731	10.75
328.944	59.9
329.157	37.38
329.37	-15.87
329.583	113.15
329.796	72.19
330.009	-7.68
330.222	31.23
330.435	-34.3
330.648	72.19
330.861	88.57
331.073	53.76
331.286	20.99
331.499	98.81
331.712	-34.3
331.925	-24.06
332.138	23.04
332.35	72.19
332.563	-1.54
332.776	43.52
332.989	86.53
333.202	45.57
333.414	31.23
333.627	16.9
333.84	43.52
334.053	2.56
334.265	39.42
334.478	10.75
334.691	49.66
334.903	51.71
335.116	78.33
335.329	35.33
335.541	70.14
335.754	88.57
335.966	29.18
336.179	55.81
336.392	41.47
336.604	88.57
336.817	12.8
337.029	109.05
337.242	113.15
337.454	10.75
337.667	8.7
337.88	94.72
338.092	0.51
338.305	102.91
338.517	-3.58
338.729	129.53
338.942	115.2
339.154	59.9
339.367	27.14
339.579	72.19
339.792	41.47
340.004	100.86
340.217	12.8
340.429	-1.54
340.641	25.09
340.854	-19.97
341.066	104.96
341.278	43.52
341.491	170.49
341.703	43.52
341.915	29.18
342.128	25.09
342.34	25.09
342.552	88.57
342.764	59.9
342.977	-1.54
343.189	45.57
343.401	119.29
343.613	47.62
343.826	125.44
344.038	107.01
344.25	111.1
344.462	41.47
344.674	20.99
344.886	39.42
345.099	100.86
345.311	74.24
345.523	74.24
345.735	25.09
345.947	6.66
346.159	2.56
346.371	68.09
346.583	107.01
346.795	98.81
347.007	82.43
347.219	53.76
347.431	16.9
347.643	64
347.855	18.94
348.067	66.05
348.279	6.66
348.491	45.57
348.703	78.33
348.915	0.51
349.127	-7.68
349.339	117.25
349.551	55.81
349.763	55.81
349.975	104.96
350.187	43.52
350.399	96.77
350.61	76.29
350.822	-50.69
351.034	55.81
351.246	104.96
351.458	80.38
351.669	119.29
351.881	64
352.093	10.75
352.305	76.29
352.517	72.19
352.728	68.09
352.94	-5.63
353.152	4.61
353.363	-19.97
353.575	45.57
353.787	68.09
353.999	29.18
354.21	143.87
354.422	0.51
354.633	29.18
354.845	4.61
355.057	23.04
355.268	78.33
355.48	25.09
355.692	84.48
355.903	74.24
356.115	33.28
356.326	14.85
356.538	92.67
356.749	51.71
356.961	45.57
357.172	47.62
357.384	-24.06
357.595	139.77
357.807	57.86
358.018	16.9
358.23	64
358.441	92.67
358.653	53.76
358.864	61.95
359.075	-11.78
359.287	94.72
359.498	111.1
359.709	111.1
359.921	80.38
360.132	33.28
360.344	59.9
360.555	41.47
360.766	59.9
360.977	88.57
361.189	14.85
361.4	10.75
361.611	72.19
361.823	111.1
362.034	10.75
362.245	-36.35
362.456	82.43
362.667	76.29
362.879	98.81
363.09	-1.54
363.301	51.71
363.512	-26.11
363.723	76.29
363.935	-1.54
364.146	88.57
364.357	125.44
364.568	66.05
364.779	18.94
364.99	113.15
365.201	51.71
365.412	94.72
365.623	31.23
365.834	96.77
366.045	12.8
366.256	4.61
366.467	125.44
366.678	43.52
366.889	66.05
367.1	25.09
367.311	104.96
367.522	59.9
367.733	76.29
367.944	107.01
368.155	39.42
368.366	43.52
368.577	10.75
368.788	45.57
368.999	84.48
369.209	-15.87
369.42	96.77
369.631	117.25
369.842	127.49
370.053	139.77
370.264	111.1
370.474	47.62
370.685	66.05
370.896	102.91
371.107	82.43
371.317	55.81
371.528	113.15
371.739	39.42
371.95	37.38
372.16	37.38
372.371	31.23
372.582	53.76
372.792	94.72
373.003	68.09
373.214	68.09
373.424	143.87
373.635	49.66
373.846	86.53
374.056	70.14
374.267	123.39
374.477	23.04
374.688	47.62
374.898	37.38
375.109	53.76
375.319	88.57
375.53	66.05
375.74	-22.02
375.951	111.1
376.161	55.81
376.372	125.44
376.582	41.47
376.793	27.14
377.003	-13.82
377.214	-44.54
377.424	107.01
377.635	37.38
377.845	-11.78
378.055	64
378.266	14.85
378.476	16.9
378.686	88.57
378.897	14.85
379.107	94.72
379.317	66.05
379.528	-3.58
379.738	96.77
379.948	-15.87
380.158	129.53
380.369	102.91
380.579	16.9
380.789	35.33
380.999	64
381.21	33.28
381.42	53.76
381.63	59.9
381.84	131.58
382.05	76.29
382.261	143.87
382.471	121.34
382.681	55.81
382.891	154.11
383.101	119.29
383.311	20.99
383.521	74.24
383.731	27.14
383.941	102.91
384.151	45.57
384.361	96.77
384.571	74.24
384.781	45.57
384.991	100.86
385.201	182.78
385.411	29.18
385.621	55.81
385.831	74.24
386.041	55.81
386.251	74.24
386.461	113.15
386.671	-22.02
386.881	113.15
387.091	82.43
387.301	102.91
387.511	141.82
387.72	92.67
387.93	96.77
388.14	12.8
388.35	-30.21
388.56	102.91
388.769	88.57
388.979	14.85
389.189	74.24
389.399	92.67
389.609	31.23
389.818	143.87
390.028	72.19
390.238	74.24
390.447	55.81
390.657	45.57
390.867	150.01
391.076	92.67
391.286	80.38
391.496	78.33
391.705	-17.92
391.915	92.67
392.125	64
392.334	100.86
392.544	180.73
392.753	74.24
392.963	47.62
393.172	113.15
393.382	49.66
393.591	59.9
393.801	72.19
394.01	172.54
394.22	82.43
394.429	31.23
394.639	117.25
394.848	127.49
395.058	39.42
395.267	66.05
395.477	80.38
395.686	41.47
395.895	195.07
396.105	143.87
396.314	154.11
396.524	127.49
396.733	111.1
396.942	107.01
397.152	152.06
397.361	61.95
397.57	82.43
397.78	78.33
397.989	72.19
398.198	231.93
398.407	115.2
398.617	84.48
398.826	84.48
399.035	143.87
399.244	143.87
399.453	88.57
399.663	102.91
399.872	98.81
400.081	64
400.29	154.11
400.499	80.38
400.708	117.25
400.917	135.68
401.127	156.16
401.336	188.93
401.545	174.59
401.754	188.93
401.963	166.4
402.172	184.83
402.381	135.68
402.59	152.06
402.799	135.68
403.008	186.88
403.217	156.16
403.426	168.45
403.635	109.05
403.844	180.73
404.053	123.39
404.262	162.3
404.471	186.88
404.68	143.87
404.888	211.45
405.097	141.82
405.306	197.12
405.515	221.69
405.724	178.69
405.933	262.65
406.142	168.45
406.35	213.5
406.559	236.03
406.768	190.97
406.977	344.57
407.185	240.12
407.394	227.84
407.603	201.21
407.812	236.03
408.02	270.84
408.229	260.6
408.438	281.08
408.646	252.41
408.855	399.87
409.064	285.18
409.272	264.7
409.481	303.61
409.69	334.33
409.898	395.77
410.107	365.05
410.315	408.06
410.524	438.78
410.733	475.64
410.941	455.16
411.15	487.93
411.358	586.23
411.567	541.18
411.775	483.83
411.984	512.5
412.192	578.04
412.401	563.7
412.609	625.14
412.818	680.44
413.026	645.62
413.234	639.48
413.443	664.05
413.651	686.58
413.86	672.25
414.068	752.12
414.276	838.13
414.485	842.23
414.693	829.94
414.901	834.04
415.11	885.23
415.318	844.28
415.526	961.01
415.734	973.3
415.943	973.3
416.151	1106.42
416.359	1098.22
416.567	1038.83
416.776	1114.61
416.984	1227.25
417.192	1262.06
417.4	1217.01
417.608	1204.72
417.817	1331.69
418.025	1296.88
418.233	1479.15
418.441	1538.54
418.649	1452.52
418.857	1597.93
419.065	1683.94
419.273	1704.42
419.481	1759.72
419.689	1735.14
419.897	1933.79
420.105	1927.65
420.313	1948.13
420.521	2064.86
420.729	2056.67
420.937	2073.06
421.145	2257.37
421.353	2269.66
421.561	2537.95
421.769	2445.79
421.977	2642.39
422.185	2507.23
422.393	2773.46
422.601	2898.39
422.809	2957.78
423.017	2968.02
423.224	2990.55
423.432	3105.23
423.64	3430.86
423.848	3443.15
424.056	3256.78
424.263	3631.56
424.471	3609.03
424.679	3688.9
424.887	3897.8
425.094	4028.87
425.302	4092.35
425.51	4186.56
425.718	4252.1
425.925	4504
426.133	4444.6
426.341	4768.18
426.548	4925.88
426.756	4856.25
426.964	4977.08
427.171	5411.25
427.379	5431.73
427.586	5751.21
427.794	5867.94
428.001	6046.12
428.209	6410.65
428.417	6115.75
428.624	6482.33
428.832	6689.18
429.039	6586.78
429.247	6701.47
429.454	7405.97
429.662	7780.75
429.869	7152.02
430.076	7584.14
430.284	7526.8
430.491	7833.99
430.699	8405.38
430.906	8382.85
431.114	8391.04
431.321	8909.18
431.528	8839.55
431.736	9441.65
431.943	9935.21
432.15	9716.08
432.358	9961.83
432.565	10297.7
432.772	10260.84
432.979	10891.61
433.187	10864.99
433.394	11080.02
433.601	11712.85
433.808	11940.17
434.016	11848.01
434.223	12409.15
434.43	12859.71
434.637	12609.86
434.844	13484.34
435.052	13592.88
435.259	13701.42
435.466	13955.37
435.673	13652.27
435.88	14512.42
436.087	15489.3
436.294	15448.34
436.501	14934.3
436.708	15405.33
436.915	15632.66
437.122	16582.91
437.329	16355.59
437.537	17131.77
437.743	17256.7
437.95	17295.61
438.157	18376.94
438.364	18878.69
438.571	18825.44
438.778	18870.5
438.985	20443.34
439.192	19564.76
439.399	20246.73
439.606	20074.7
439.813	21252.28
440.02	22026.42
440.227	22014.13
440.433	21561.53
440.64	22417.58
440.847	22784.16
441.054	22886.56
441.261	24197.26
441.467	23771.29
441.674	24260.75
441.881	25104.51
442.088	25440.38
442.294	25233.53
442.501	25497.72
442.708	26472.56
442.914	27537.5
443.121	28710.99
443.328	28057.68
443.534	29653.05
443.741	28641.35
443.948	28274.77
444.154	30230.58
444.361	30488.62
444.568	30631.98
444.774	30564.4
444.981	31150.12
445.187	31813.66
445.394	33331.2
445.6	32686.09
445.807	36026.33
446.013	34109.43
446.22	35289.06
446.426	36022.23
446.633	36153.3
446.839	37906.37
447.046	36155.35
447.252	38113.21
447.459	38256.57
447.665	38318.01
447.871	39794.59
448.078	41682.82
448.284	39788.45
448.491	41129.87
448.697	42624.89
448.903	42985.33
449.11	43118.45
449.316	42407.8
449.522	43177.84
449.728	44492.63
449.935	44877.65
450.141	44765.01
450.347	45639.5
450.553	44138.33
450.76	44848.98
450.966	46303.04
451.172	45977.41
451.378	46442.3
451.584	45854.53
451.791	46778.17
451.997	46753.59
452.203	47470.38
452.409	47675.18
452.615	47333.17
452.821	45666.12
453.027	45258.57
453.233	47320.88
453.44	46065.47
453.646	46069.57
453.852	46712.63
454.058	47265.58
454.264	45922.12
454.47	46982.96
454.676	45621.06
454.882	47200.05
455.088	43038.58
455.294	44044.13
455.5	44296.03
455.705	44928.85
455.911	43358.06
456.117	42393.47
456.323	41719.68
456.529	39706.53
456.735	41588.61
456.941	40589.2
457.147	39559.08
457.352	38369.21
457.558	38264.76
457.764	38170.55
457.97	37437.38
458.176	36939.72
458.381	36673.49
458.587	35096.55
458.793	34938.86
458.999	33024.01
459.204	35401.7
459.41	34447.35
459.616	31989.78
459.821	32090.13
460.027	32073.75
460.233	31305.76
460.438	30130.23
460.644	30003.25
460.85	28557.39
461.055	28522.57
461.261	28346.45
461.466	26173.55
461.672	25411.71
461.878	27777.11
462.083	25487.48
462.289	24938.63
462.494	24502.41
462.7	23640.22
462.905	23214.24
463.111	23814.29
463.316	24010.9
463.522	23128.22
463.727	23570.58
463.932	23546.01
464.138	23128.22
464.343	23232.67
464.549	22458.54
464.754	23410.84
464.959	23386.27
465.165	22935.71
465.37	21969.07
465.575	21272.76
465.781	22407.34
465.986	22358.19
466.191	21573.81
466.397	21067.97
466.602	19886.29
466.807	21283
467.012	20885.7
467.218	20850.88
467.423	20433.1
467.628	20873.41
467.833	21741.75
468.038	20789.44
468.244	20271.31
468.449	20955.33
468.654	20295.88
468.859	20517.06
469.064	20093.13
469.269	19298.52
469.474	19546.33
469.679	19800.27
469.885	19402.97
470.09	19691.73
470.295	19472.6
470.5	19015.9
470.705	18944.22
470.91	18852.06
471.115	18405.61
471.32	19122.4
471.525	18874.59
471.73	18131.18
471.935	18043.12
472.139	17543.41
472.344	17799.41
472.549	17608.95
472.754	17264.89
472.959	16984.32
473.164	16433.41
473.369	16761.09
473.574	16824.58
473.778	16834.82
473.983	16550.15
474.188	16875.77
474.393	16001.29
474.598	16021.77
474.802	15597.84
475.007	15681.81
475.212	15798.54
475.417	15411.48
475.621	15214.87
475.826	15290.65
476.031	15048.99
476.235	14684.45
476.44	14932.25
476.645	14778.65
476.849	14672.16
477.054	14377.25
477.259	14385.44
477.463	14182.7
477.668	13836.59
477.872	14061.87
478.077	13807.92
478.282	13416.76
478.486	13441.33
478.691	13142.33
478.895	13076.79
479.1	13103.42
479.304	13228.34
479.509	12796.22
479.713	12792.12
479.918	12687.68
480.122	12437.83
480.326	12601.66
480.531	12550.46
480.735	12478.79
480.94	12560.7
481.144	12822.84
481.348	12190.02
481.553	12579.14
481.757	12097.86
481.961	12501.31
482.166	12362.05
482.37	12237.13
482.574	12161.35
482.778	11872.59
482.983	12267.84
483.187	12241.22
483.391	12433.73
483.595	12261.7
483.8	11950.41
484.004	12378.44
484.208	12425.54
484.412	12204.36
484.616	11888.97
484.821	12237.13
485.025	12050.76
485.229	12233.03
485.433	12273.99
485.637	12273.99
485.841	12147.01
486.045	12245.32
486.249	12265.8
486.453	12034.38
486.657	12069.19
486.861	12362.05
487.065	11938.12
487.269	12233.03
487.473	11663.69
487.677	12327.24
487.881	12261.7
488.085	12417.35
488.289	11989.32
488.493	12128.58
488.697	12222.79
488.901	12339.52
489.105	12171.59
489.309	12149.06
489.512	12040.52
489.716	12331.33
489.92	12273.99
490.124	12474.69
490.328	12429.63
490.531	12495.17
490.735	12368.2
490.939	12673.34
491.143	12335.43
491.346	12470.59
491.55	12826.94
491.754	12538.18
491.958	12833.08
492.161	12671.29
492.365	12845.37
492.569	12869.95
492.772	12828.99
492.976	13082.94
493.18	12931.39
493.383	13082.94
493.587	13017.4
493.79	13457.71
493.994	13058.36
494.197	13220.15
494.401	13670.7
494.605	13402.42
494.808	13668.66
495.012	13746.48
495.215	13678.9
495.419	14012.71
495.622	13752.62
495.825	14338.34
496.029	13953.32
496.232	14383.4
496.436	14426.4
496.639	14690.59
496.843	14534.95
497.046	14971.16
497.249	15059.23
497.453	14977.31
497.656	15175.96
497.859	15141.14
498.063	15636.75
498.266	15857.93
498.469	15720.72
498.673	15946
498.876	16161.03
499.079	16191.75
499.282	16304.39
499.485	16621.83
499.689	16818.43
499.892	16754.94
500.095	16716.03
500.298	17447.16
500.501	17182.97
500.705	17703.15
500.908	17811.7
501.111	17838.32
501.314	18286.82
501.517	18333.93
501.72	18538.73
501.923	18514.15
502.126	19044.57
502.329	19278.04
502.532	19335.38
502.735	19310.81
502.938	19718.36
503.141	19716.31
503.344	20312.27
503.547	20291.79
503.75	20431.05
503.953	20873.41
504.156	20977.86
504.359	21141.69
504.562	21235.9
504.765	21739.7
504.968	22098.09
505.17	22216.88
505.373	21999.79
505.576	22581.42
505.779	22694.05
505.982	23292.06
506.185	23443.61
506.387	23478.43
506.59	23779.48
506.793	24006.8
506.996	24006.8
507.198	24541.32
507.401	24778.89
507.604	24957.06
507.807	25196.67
508.009	25337.98
508.212	25784.44
508.415	26003.57
508.617	26464.36
508.82	26194.03
509.022	26159.22
509.225	27138.15
509.428	27080.8
509.63	27469.92
509.833	27625.56
510.035	28031.06
510.238	27943
510.44	28500.05
510.643	28510.28
510.845	28768.33
511.048	28753.99
511.25	29055.04
511.453	29390.91
511.655	30347.31
511.858	30111.8
512.06	30410.8
512.262	30498.86
512.465	30838.83
512.667	31256.61
512.87	31334.43
513.072	31516.7
513.274	31950.87
513.477	32589.84
513.679	32380.95
513.881	32907.27
514.084	33107.97
514.286	33093.64
514.488	33439.75
514.69	34385.91
514.893	34459.63
515.095	34326.52
515.297	34768.88
515.499	35274.73
515.701	35327.97
515.904	35557.35
516.106	35571.68
516.308	36102.11
516.51	36450.26
516.712	36640.72
516.914	36927.44
517.116	37713.86
517.318	37597.12
517.52	38092.73
517.722	37676.99
517.925	38647.73
518.127	39063.47
518.329	39086
518.531	38916.01
518.733	39489.45
518.935	39671.71
519.136	39837.6
519.338	41082.77
519.54	40554.39
519.742	41260.94
519.944	41330.57
520.146	42137.47
520.348	42104.7
520.55	42112.89
520.752	42710.9
520.954	42729.33
521.155	42614.65
521.357	43110.25
521.559	43646.82
521.761	44085.09
521.963	44148.57
522.164	44353.37
522.366	44599.13
522.568	44738.39
522.77	45119.31
522.971	45776.71
523.173	45449.03
523.375	45655.88
523.576	45868.87
523.778	45651.78
523.98	46298.94
524.181	46583.61
524.383	46792.5
524.584	47136.56
524.786	47071.03
524.988	47187.76
525.189	47482.67
525.391	47955.75
525.592	47650.6
525.794	48140.07
525.995	48539.42
526.197	48226.08
526.398	48336.67
526.6	49215.25
526.801	48412.45
527.003	49123.09
527.204	49108.75
527.406	49585.93
527.607	49483.53
527.808	49942.28
528.01	49211.15
528.211	49854.22
528.412	50208.51
528.614	49735.43
528.815	50210.56
529.016	50528
529.218	50171.65
529.419	50695.93
529.62	50679.55
529.822	50568.96
530.023	50929.4
530.224	51173.11
530.425	50274.05
530.626	50403.07
530.828	50306.82
531.029	51513.07
531.23	50712.31
531.431	50988.79
531.632	51011.32
531.833	51173.11
532.035	51193.59
532.236	51250.93
532.437	51654.38
532.638	50968.31
532.839	51443.44
533.04	51554.03
533.241	50865.91
533.442	52147.94
533.643	50962.17
533.844	51062.52
534.045	51744.49
534.246	51302.13
534.447	51857.13
534.648	51166.96
534.849	51558.13
535.05	51295.99
535.251	51758.83
535.451	51443.44
535.652	51906.28
535.853	51472.11
536.054	51629.8
536.255	51386.1
536.456	51453.68
536.657	52217.57
536.857	51785.45
537.058	51508.97
537.259	51916.52
537.46	51242.74
537.66	51300.08
537.861	51701.48
538.062	50923.25
538.263	51767.02
538.463	51709.67
538.664	51568.37
538.865	51754.73
539.065	51990.25
539.266	51185.39
539.466	51799.79
539.667	51062.52
539.868	52029.16
540.068	51166.96
540.269	51584.75
540.469	51726.06
540.67	51171.06
540.87	51582.7
541.071	51517.17
541.271	51605.23
541.472	51449.58
541.672	51257.07
541.873	51076.85
542.073	50566.91
542.274	51681
542.474	51021.56
542.675	50855.67
542.875	51295.99
543.075	51234.55
543.276	50890.49
543.476	51314.42
543.676	50519.81
543.877	51586.8
544.077	51326.7
544.277	50767.61
544.478	50984.69
544.678	51721.96
544.878	51017.46
545.078	51341.04
545.279	50921.21
545.479	50972.41
545.679	51252.98
545.879	50765.56
546.079	51158.77
546.28	50609.92
546.48	50685.69
546.68	51076.85
546.88	50865.91
547.08	51013.37
547.28	51222.26
547.48	50347.78
547.68	50933.49
547.88	50454.27
548.081	50849.53
548.281	50579.2
548.481	50675.45
548.681	50870.01
548.881	50726.65
549.081	50956.02
549.28	50452.22
549.48	51042.04
549.68	50816.76
549.88	51060.47
550.08	50183.94
550.28	50679.55
550.48	50558.72
550.68	51164.92
550.88	50272
551.08	50450.17
551.279	50464.51
551.479	50276.1
551.679	50892.54
551.879	50468.61
552.079	50767.61
552.278	50491.13
552.478	50788.09
552.678	50308.86
552.878	50120.45
553.077	50042.63
553.277	49788.68
553.477	51095.28
553.676	50587.39
553.876	50472.7
554.076	50284.29
554.275	50196.23
554.475	49604.36
554.674	50431.74
554.874	50274.05
555.074	49852.17
555.273	50173.7
555.473	50321.15
555.672	50091.78
555.872	49800.97
556.071	49823.5
556.271	50231.04
556.47	49770.25
556.67	49393.42
556.869	49688.33
557.068	49999.62
557.268	49307.41
557.467	49725.19
557.667	49669.9
557.866	49397.52
558.065	49399.57
558.265	49299.22
558.464	48969.49
558.663	49520.4
558.863	48975.64
559.062	49655.56
559.261	48840.47
559.461	49690.38
559.66	48840.47
559.859	49125.14
560.058	48594.71
560.258	49118.99
560.457	48910.1
560.656	48877.33
560.855	48187.17
561.054	48776.98
561.253	48355.1
561.453	48594.71
561.652	48838.42
561.851	48568.09
562.05	48500.51
562.249	47990.56
562.448	48291.62
562.647	48160.55
562.846	48123.68
563.045	48203.55
563.244	47855.4
563.443	48406.3
563.642	47716.14
563.841	48099.11
564.04	47652.65
564.239	48232.22
564.438	47390.51
564.637	47781.67
564.836	47765.29
565.035	47044.4
565.234	47486.76
565.432	47195.95
565.631	47220.53
565.83	47189.81
566.029	47025.97
566.228	46968.63
566.427	46614.33
566.625	47101.75
566.824	46151.49
567.023	46905.14
567.222	46421.82
567.42	47116.08
567.619	46810.93
567.818	46163.78
568.016	46194.5
568.215	46901.04
568.414	46217.02
568.612	46495.55
568.811	46061.38
569.01	46171.97
569.208	45750.09
569.407	46303.04
569.605	45573.96
569.804	46276.41
570.002	45682.5
570.201	45524.81
570.4	45442.89
570.598	45678.41
570.797	45229.9
570.995	45201.23
571.193	44902.23
571.392	45279.05
571.59	45147.98
571.789	44734.29
571.987	44947.28
572.186	44891.99
572.384	44390.23
572.582	45006.67
572.781	44834.64
572.979	44154.72
573.177	44533.59
573.376	44429.15
573.574	44011.36
573.772	44027.74
573.971	43804.52
574.169	43945.83
574.367	43661.16
574.565	43927.39
574.763	43599.72
574.962	43044.72
575.16	43329.39
575.358	43353.96
575.556	42915.7
575.754	43798.37
575.952	42864.5
576.151	43341.67
576.349	42764.15
576.547	42426.23
576.745	42368.89
576.943	42381.18
577.141	42573.69
577.339	42698.61
577.537	42362.75
577.735	42069.89
577.933	42370.94
578.131	42035.07
578.329	41584.52
578.527	41760.64
578.725	41674.63
578.923	42018.69
579.121	41492.36
579.319	41271.18
579.516	41404.3
579.714	41654.15
579.912	41187.21
580.11	41148.3
580.308	40806.29
580.506	41281.42
580.704	40404.89
580.901	40998.8
581.099	41207.69
581.297	40527.77
581.495	40400.79
581.692	40918.93
581.89	39970.72
582.088	40441.75
582.285	40011.68
582.483	40822.67
582.681	39806.88
582.878	40058.78
583.076	39376.81
583.274	39884.7
583.471	39421.86
583.669	39851.94
583.866	39544.74
584.064	39538.6
584.262	39190.44
584.459	39626.66
584.657	39196.59
584.854	39325.61
585.052	38494.13
585.249	39155.63
585.447	38975.41
585.644	38469.56
585.841	38913.97
586.039	39143.34
586.236	38463.41
586.434	38254.52
586.631	38000.57
586.828	38496.18
587.026	38117.31
587.223	37988.28
587.42	37738.43
587.618	37851.07
587.815	37541.83
588.012	37115.85
588.21	37560.26
588.407	37859.26
588.604	37334.98
588.801	36743.12
588.999	36763.6
589.196	37060.55
589.393	36665.3
589.59	36460.5
589.787	36734.93
589.984	36771.79
590.182	35956.7
590.379	36259.8
590.576	35891.16
590.773	36083.67
590.97	35878.88
591.167	36335.57
591.364	35598.3
591.561	35708.9
591.758	35448.8
591.955	35442.66
592.152	35796.96
592.349	35272.68
592.546	35434.47
592.743	35268.58
592.94	34463.73
593.137	35289.06
593.334	35198.95
593.531	34312.18
593.727	34897.9
593.924	34895.85
594.121	34566.13
594.318	34736.11
594.515	34041.85
594.712	34537.46
594.908	34134.01
595.105	34107.38
595.302	34045.94
595.499	33990.65
595.696	34052.09
595.892	33691.65
596.089	33744.89
596.286	33449.99
596.482	33343.49
596.679	33495.04
596.876	33349.64
597.072	32942.09
597.269	32981
597.466	32759.82
597.662	32536.59
597.859	32897.03
598.055	33093.64
598.252	32497.68
598.448	32417.81
598.645	32305.17
598.841	32385.04
599.038	32358.42
599.234	32210.96
599.431	31764.51
599.627	31756.32
599.824	32090.13
600.02	31836.19
600.217	31746.08
600.413	31576.09
600.609	31815.71
600.806	31324.19
601.002	31424.54
601.198	31359.01
601.395	30914.6
601.591	30711.85
601.787	30842.92
601.984	30890.02
602.18	31275.04
602.376	30507.05
602.572	30623.79
602.769	30230.58
602.965	30292.02
603.161	30398.51
603.357	29874.23
603.553	30001.21
603.75	30095.41
603.946	29710.39
604.142	29917.24
604.338	29442.11
604.534	29980.73
604.73	29843.51
604.926	29337.66
605.122	29722.68
605.318	29274.18
605.514	29509.69
605.71	29112.39
605.906	28979.27
606.102	29177.92
606.298	29216.83
606.494	29132.87
606.69	28866.63
606.886	28946.5
607.082	28518.48
607.278	28608.59
607.474	28411.98
607.67	28745.8
607.866	28033.11
608.062	28704.84
608.257	28080.21
608.453	28037.2
608.649	28475.47
608.845	28086.36
609.041	28465.23
609.236	27805.78
609.432	28221.52
609.628	28094.55
609.824	27953.24
610.019	27861.08
610.215	27699.29
610.411	27879.51
610.606	27648.09
610.802	27439.2
610.998	27361.37
611.193	27697.24
611.389	27211.87
611.584	27250.78
611.78	27457.63
611.976	27476.06
612.171	27267.17
612.367	27326.56
612.562	27183.2
612.758	26687.59
612.953	26740.84
613.149	27201.63
613.344	26689.64
613.539	26908.77
613.735	27213.92
613.93	27095.14
614.126	26882.15
614.321	26820.71
614.517	26650.73
614.712	26708.07
614.907	26456.17
615.103	26833
615.298	26456.17
615.493	26660.97
615.688	26161.26
615.884	26486.89
616.079	26181.74
616.274	26507.37
616.47	26286.19
616.665	26151.02
616.86	25993.33
617.055	26196.08
617.25	26138.74
617.445	26130.55
617.641	25540.73
617.836	25935.99
618.031	25454.72
618.226	25852.02
618.421	25413.76
618.616	25913.46
618.811	25233.53
619.006	25712.76
619.201	24979.59
619.396	25256.06
619.591	24641.67
619.786	25012.35
619.981	24709.25
620.176	25020.55
620.371	24629.38
620.566	24600.71
620.761	24227.98
620.956	24651.91
621.151	23957.65
621.346	24344.72
621.541	23908.5
621.735	24219.79
621.93	23464.09
622.125	23840.92
622.32	23472.28
622.515	23402.65
622.709	23185.57
622.904	23210.14
623.099	23054.5
623.294	23279.77
623.488	22909.09
623.683	23179.42
623.878	22337.71
624.072	22538.41
624.267	22251.69
624.462	22599.85
624.656	22020.27
624.851	22102.19
625.046	22173.87
625.24	21907.63
625.435	21723.32
625.629	21891.25
625.824	21514.42
626.018	21530.81
626.213	20920.51
626.407	21287.1
626.602	20957.38
626.796	21407.93
626.991	20869.31
627.185	20773.06
627.38	20558.02
627.574	20439.24
627.768	20433.1
627.963	20357.32
628.157	20271.31
628.352	20437.19
628.546	19931.34
628.74	20316.36
628.935	19775.7
629.129	19544.28
629.323	19484.89
629.517	19198.17
629.712	19370.2
629.906	19464.41
630.1	19058.91
630.294	19405.02
630.489	19134.68
630.683	18983.13
630.877	18747.62
631.071	18704.61
631.265	18909.41
631.459	18530.53
631.653	18469.09
631.848	18462.95
632.042	18391.27
632.236	18223.34
632.43	17938.67
632.624	18020.59
632.818	17787.12
633.012	17701.11
633.206	17645.81
633.4	17697.01
633.594	17352.95
633.788	17596.66
633.982	17514.74
634.176	17332.47
634.369	17164.54
634.563	17135.87
634.757	16918.78
634.951	17082.62
635.145	16779.52
635.339	16836.86
635.533	16922.88
635.726	16593.15
635.92	16582.91
636.114	16357.64
636.308	16359.69
636.501	16351.49
636.695	16046.35
636.889	16011.53
637.083	15952.14
637.276	16029.96
637.47	15733.01
637.664	15827.21
637.857	15837.45
638.051	15427.86
638.244	15501.59
638.438	15581.46
638.632	15298.84
638.825	15268.12
639.019	15130.91
639.212	15108.38
639.406	14987.55
639.599	15032.6
639.793	15096.09
639.986	14739.74
640.18	14848.29
640.373	14639.39
640.567	14623.01
640.76	14635.3
640.954	14395.68
641.147	14233.89
641.34	14278.95
641.534	14326.05
641.727	14221.61
641.92	14084.39
642.114	13930.8
642.307	13895.98
642.5	13709.61
642.694	13605.17
642.887	13627.7
643.08	13572.4
643.273	13576.5
643.467	13496.63
643.66	13343.03
643.853	13144.38
644.046	13238.58
644.239	13082.94
644.432	13224.25
644.626	12960.06
644.819	13058.36
645.012	13132.09
645.205	12955.96
645.398	12835.13
645.591	12661.05
645.784	12716.35
645.977	12515.65
646.17	12519.74
646.363	12491.07
646.556	12327.24
646.749	12333.38
646.942	12216.65
647.135	12169.54
647.328	12151.11
647.521	12192.07
647.714	12097.86
647.907	12171.59
648.099	12036.42
648.292	12005.7
648.485	11901.26
648.678	11555.15
648.871	11518.29
649.064	11688.27
649.256	11620.69
649.449	11561.3
649.642	11540.82
649.835	11559.25
650.027	11311.44
650.22	11008.34
650.413	11462.99
650.605	11219.28
650.798	11207
650.991	11002.2
651.183	11075.93
651.376	10946.9
651.568	10942.81
651.761	10758.49
651.954	10643.81
652.146	10674.53
652.339	10768.73
652.531	10606.94
652.724	10486.11
652.916	10305.89
653.109	10439.01
653.301	10385.76
653.494	10516.83
653.686	10150.25
653.879	10344.8
654.071	10133.86
654.263	10197.35
654.456	9881.96
654.648	10258.79
654.84	9994.6
655.033	10084.71
655.225	9797.99
655.417	9816.43
655.61	9877.87
655.802	9806.19
655.994	9671.02
656.186	9613.68
656.379	9562.48
656.571	9564.53
656.763	9443.7
656.955	9365.87
657.148	9326.96
657.34	9267.57
657.532	9271.67
657.724	9359.73
657.916	9228.66
658.108	9195.89
658.3	9193.84
658.492	9099.64
658.684	8862.07
658.876	9068.92
659.068	9017.72
659.26	8798.59
659.452	9030.01
659.644	8716.67
659.836	8792.44
660.028	8890.74
660.22	8329.6
660.412	8776.06
660.604	8466.81
660.796	8489.34
660.988	8384.9
661.18	8354.18
661.372	8487.29
661.563	8573.31
661.755	8208.77
661.947	8219.01
662.139	8208.77
662.331	8214.91
662.522	8171.91
662.714	8083.84
662.906	8092.04
663.097	7901.58
663.289	7856.52
663.481	7889.29
663.673	7977.35
663.864	7805.32
664.056	7760.27
664.247	7743.88
664.439	7569.8
664.631	7657.87
664.822	7635.34
665.014	7602.57
665.205	7629.2
665.397	7453.07
665.588	7567.76
665.78	7444.88
665.971	7465.36
666.163	7528.85
666.354	7235.99
666.546	7371.15
666.737	7342.48
666.929	7412.11
667.12	7025.04
667.311	7031.19
667.503	7117.2
667.694	7147.92
667.885	7045.52
668.077	7199.12
668.268	6996.37
668.459	7012.76
668.651	6986.13
668.842	6963.61
669.033	6810.01
669.224	6744.47
669.416	6891.93
669.607	6959.51
669.798	6738.33
669.989	6848.92
670.18	6640.03
670.371	6799.77
670.563	6560.16
670.754	6832.54
670.945	6543.77
671.136	6496.67
671.327	6676.89
671.518	6369.69
671.709	6603.16
671.9	6476.19
672.091	6461.85
672.282	6345.12
672.473	6371.74
672.664	6308.26
672.855	6500.76
673.046	6351.26
673.237	6381.98
673.428	6341.02
673.619	6488.48
673.809	6361.5
674	6232.48
674.191	6304.16
674.382	6181.28
674.573	6132.13
674.764	6238.62
674.954	6138.27
675.145	6064.55
675.336	6099.36
675.527	6115.75
675.717	6123.94
675.908	5927.33
676.099	5927.33
676.289	5945.77
676.48	6060.45
676.671	5915.05
676.861	6119.84
677.052	5689.77
677.243	5886.37
677.433	5966.24
677.624	5908.9
677.814	5695.91
678.005	5708.2
678.195	5700.01
678.386	5845.41
678.576	5763.5
678.767	5632.43
678.957	5730.73
679.148	5763.5
679.338	5460.4
679.529	5640.62
679.719	5558.7
679.909	5829.03
680.1	5548.46
680.29	5667.24
680.481	5409.2
680.671	5679.53
680.861	5415.34
681.052	5661.1
681.242	5489.07
681.432	5491.12
681.622	5417.39
681.813	5364.14
682.003	5495.21
682.193	5495.21
682.383	5454.25
682.573	5314.99
682.764	5405.1
682.954	5257.65
683.144	5296.56
683.334	5345.71
683.524	5267.89
683.714	5339.57
683.904	5265.84
684.094	5380.53
684.284	5298.61
684.474	5265.84
684.664	5220.78
684.854	5235.12
685.044	5163.44
685.234	5153.2
685.424	5134.77
685.614	4993.46
685.804	5106.1
685.994	5226.93
686.184	5169.59
686.374	4981.17
686.564	4807.09
686.753	5097.91
686.943	4858.29
687.133	4979.12
687.323	4786.61
687.513	4835.77
687.702	4809.14
687.892	4776.38
688.082	4915.64
688.272	4798.9
688.461	4776.38
688.651	5114.29
688.841	4667.83
689.03	4897.21
689.22	4661.69
689.41	4659.64
689.599	4755.9
689.789	4551.1
689.979	4622.78
690.168	4725.18
690.358	4561.34
690.547	4569.53
690.737	4661.69
690.926	4581.82
691.116	4446.65
691.305	4657.59
691.495	4393.4
691.684	4499.9
691.874	4417.98
692.063	4356.54
692.252	4407.74
692.442	4395.45
692.631	4311.49
692.82	4360.64
693.01	4235.71
693.199	4307.39
693.388	4211.14
693.578	4108.74
693.767	4168.13
693.956	4051.39
694.146	4057.54
694.335	4067.78
694.524	4188.61
694.713	4022.72
694.902	4159.94
695.092	4106.69
695.281	4157.89
695.47	4100.55
695.659	4194.75
695.848	3965.38
696.037	3981.76
696.226	3953.09
696.415	3883.46
696.604	3787.21
696.793	3963.33
696.982	4096.45
697.171	3867.08
697.36	3885.51
697.549	3748.29
697.738	3815.88
697.927	3828.17
698.116	3953.09
698.305	3830.21
698.494	3840.45
698.683	3703.24
698.872	3750.34
699.061	3819.97
699.25	3826.12
699.438	3746.25
699.627	3686.86
699.816	3744.2
700.005	3707.34
700.193	3822.02
700.382	3682.76
700.571	3627.46
700.76	3805.64
700.948	3693
701.137	3647.94
701.326	3713.48
701.514	3518.92
701.703	3686.86
701.892	3625.42
702.08	3652.04
702.269	3709.38
702.457	3582.41
702.646	3709.38
702.834	3738.05
703.023	3678.66
703.212	3625.42
703.4	3594.7
703.589	3563.98
703.777	3627.46
703.965	3588.55
704.154	3506.63
704.342	3662.28
704.531	3488.2
704.719	3506.63
704.907	3656.14
705.096	3514.83
705.284	3523.02
705.472	3549.64
705.661	3486.15
705.849	3662.28
706.037	3596.75
706.226	3549.64
706.414	3394
706.602	3418.57
706.79	3484.11
706.979	3437
707.167	3465.68
707.355	3285.45
707.543	3441.1
707.731	3482.06
707.919	3488.2
708.107	3391.95
708.296	3320.27
708.484	3537.35
708.672	3342.8
708.86	3516.87
709.048	3533.26
709.236	3416.52
709.424	3396.04
709.612	3543.5
709.8	3469.77
709.988	3434.96
710.176	3322.32
710.364	3457.48
710.551	3201.49
710.739	3371.47
710.927	3445.2
711.115	3367.37
711.303	3365.32
711.491	3326.41
711.679	3400.14
711.866	3291.6
712.054	3310.03
712.242	3291.6
712.43	3318.22
712.617	3369.42
712.805	3320.27
712.993	3402.19
713.181	3338.7
713.368	3310.03
713.556	3381.71
713.744	3258.83
713.931	3342.8
714.119	3275.21
714.306	3287.5
714.494	3232.21
714.682	3252.69
714.869	3203.54
715.057	3250.64
715.244	3242.45
715.432	3355.08
715.619	3150.29
715.807	3197.39
715.994	3209.68
716.182	3185.1
716.369	3314.13
716.556	3269.07
716.744	3205.58
716.931	3346.89
717.119	3232.21
717.306	3318.22
717.493	3260.88
717.681	3246.54
717.868	3164.62
718.055	3043.79
718.242	3205.58
718.43	3299.79
718.617	3254.73
718.804	3138
718.991	3297.74
719.179	3154.38
719.366	3103.18
719.553	3148.24
719.74	3086.8
719.927	3217.87
720.114	3224.01
720.301	3168.72
720.488	3140.05
720.676	3176.91
720.863	3174.86
721.05	3211.73
721.237	3152.34
721.424	3289.55
721.611	3201.49
721.798	3033.55
721.985	3097.04
722.172	3002.83
722.358	3103.18
722.545	3203.54
722.732	3074.51
722.919	3260.88
723.106	3181.01
723.293	3133.9
723.48	3172.82
723.667	3350.99
723.853	3234.25
724.04	3080.66
724.227	3117.52
724.414	3146.19
724.6	3103.18
724.787	3156.43
724.974	3131.86
725.161	3105.23
725.347	3099.09
725.534	3131.86
725.72	3064.27
725.907	3148.24
726.094	3217.87
726.28	3228.11
726.467	3070.42
726.653	3148.24
726.84	3097.04
727.027	3224.01
727.213	3013.07
727.4	3109.33
727.586	3191.25
727.773	3127.76
727.959	3125.71
728.145	3219.92
728.332	3199.44
728.518	3154.38
728.705	3162.58
728.891	3058.13
729.077	3193.3
729.264	3070.42
729.45	3109.33
729.636	3275.21
729.823	3074.51
730.009	3262.93
730.195	3088.85
730.382	3195.34
730.568	3008.98
730.754	3244.49
730.94	3144.14
731.126	3310.03
731.313	3213.77
731.499	3111.38
731.685	3160.53
731.871	3123.66
732.057	3152.34
732.243	3154.38
732.429	3113.42
732.615	3228.11
732.801	3160.53
732.987	3170.77
733.173	3205.58
733.359	3191.25
733.545	3203.54
733.731	3168.72
733.917	3183.06
734.103	3193.3
734.289	3291.6
734.475	3250.64
734.661	3201.49
734.847	3119.57
735.033	3213.77
735.219	3150.29
735.404	3041.75
735.59	3199.44
735.776	3015.12
735.962	3232.21
736.148	3314.13
736.333	3074.51
736.519	3117.52
736.705	3094.99
736.89	3224.01
737.076	3076.56
737.262	3058.13
737.447	3271.12
737.633	3185.1
737.819	3158.48
738.004	3082.7
738.19	3154.38
738.375	3140.05
738.561	3183.06
738.747	2968.02
738.932	3094.99
739.118	3037.65
739.303	3107.28
739.489	3123.66
739.674	3002.83
739.859	3224.01
740.045	3201.49
740.23	3088.85
740.416	3021.27
740.601	3107.28
740.786	3039.7
740.972	3058.13
741.157	3025.36
741.342	3097.04
741.528	3088.85
741.713	2986.45
741.898	2959.83
742.084	2959.83
742.269	2976.21
742.454	3119.57
742.639	3047.89
742.824	2965.97
743.01	2970.07
743.195	3082.7
743.38	2963.92
743.565	3070.42
743.75	3045.84
743.935	3004.88
744.12	3031.51
744.305	2892.24
744.49	2920.92
744.675	2847.19
744.86	2988.5
745.045	2849.24
745.23	3002.83
745.415	2873.81
745.6	2861.52
745.785	2859.48
745.97	2894.29
746.155	2755.03
746.34	2789.85
746.525	2761.17
746.71	3015.12
746.895	2818.52
747.079	2847.19
747.264	2705.88
747.449	2755.03
747.634	2728.41
747.819	2728.41
748.003	2673.11
748.188	2669.02
748.373	2687.45
748.557	2619.86
748.742	2712.02
748.927	2785.75
749.111	2736.6
749.296	2605.53
749.481	2525.66
749.665	2740.69
749.85	2513.37
750.034	2623.96
750.219	2585.05
750.404	2480.6
750.588	2591.19
750.773	2480.6
750.957	2542.04
751.141	2564.57
751.326	2484.7
751.51	2390.49
751.695	2570.71
751.879	2419.16
752.064	2490.84
752.248	2351.58
752.432	2470.36
752.617	2386.4
752.801	2347.48
752.985	2410.97
753.17	2343.39
753.354	2300.38
753.538	2271.71
753.722	2316.76
753.907	2265.57
754.091	2204.13
754.275	2204.13
754.459	2163.17
754.643	2202.08
754.828	2230.75
755.012	2144.74
755.196	2279.9
755.38	2191.84
755.564	2236.89
755.748	2103.78
755.932	2173.41
756.116	2021.86
756.3	1984.99
756.484	2122.21
756.668	2175.45
756.852	2087.39
757.036	2083.3
757.22	2081.25
757.404	1968.61
757.588	1919.46
757.772	1978.85
757.956	2058.72
758.14	2097.63
758.323	1829.35
758.507	2091.49
758.691	1946.08
758.875	1962.47
759.059	1997.28
759.242	1962.47
759.426	1851.88
759.61	1882.6
759.794	1837.54
759.977	1941.99
760.161	1980.9
760.345	1923.55
760.528	1841.64
760.712	1792.48
760.895	1812.96
761.079	1714.66
761.263	1716.71
761.446	1767.91
761.63	1741.29
761.813	1757.67
761.997	1698.28
762.18	1767.91
762.364	1724.9
762.547	1720.81
762.731	1741.29
762.914	1747.43
763.098	1831.4
763.281	1823.2
763.464	1632.74
763.648	1761.77
763.831	1610.22
764.015	1665.51
764.198	1685.99
764.381	1745.38
764.564	1692.13
764.748	1708.52
764.931	1669.61
765.114	1626.6
765.297	1651.17
765.481	1628.65
765.664	1698.28
765.847	1559.02
766.03	1618.41
766.213	1528.3
766.397	1477.1
766.58	1479.15
766.763	1675.75
766.946	1516.01
767.129	1516.01
767.312	1595.88
767.495	1501.67
767.678	1522.15
767.861	1647.08
768.044	1348.08
768.227	1567.21
768.41	1397.23
768.593	1516.01
768.776	1483.24
768.959	1462.76
769.142	1565.16
769.324	1468.91
769.507	1495.53
769.69	1341.93
769.873	1415.66
770.056	1395.18
770.239	1499.63
770.421	1442.28
770.604	1386.99
770.787	1346.03
770.97	1429.99
771.152	1378.79
771.335	1354.22
771.518	1346.03
771.7	1409.51
771.883	1489.39
772.066	1429.99
772.248	1380.84
772.431	1333.74
772.613	1278.44
772.796	1321.45
772.978	1444.33
773.161	1356.27
773.343	1288.68
773.526	1321.45
773.708	1317.36
773.891	1133.04
774.073	1278.44
774.256	1178.09
774.438	1307.12
774.621	1268.2
774.803	1243.63
774.985	1268.2
775.168	1174
775.35	1176.05
775.532	1184.24
775.715	1153.52
775.897	1212.91
776.079	1139.18
776.261	1210.86
776.444	1034.74
776.626	1128.94
776.808	1108.46
776.99	1130.99
777.173	1147.37
777.355	1118.7
777.537	1106.42
777.719	1065.46
777.901	1100.27
778.083	1063.41
778.265	1040.88
778.447	1118.7
778.629	985.58
778.811	1010.16
778.993	1044.98
779.175	932.34
779.357	1016.3
779.539	952.82
779.721	1022.45
779.903	1014.26
780.085	1010.16
780.267	903.67
780.449	1075.7
780.631	993.78
780.812	965.11
780.994	977.39
781.176	977.39
781.358	918
781.54	952.82
781.721	911.86
781.903	913.91
782.085	954.87
782.267	836.08
782.448	930.29
782.63	862.71
782.812	741.88
782.993	766.45
783.175	840.18
783.357	801.27
783.538	883.19
783.72	795.12
783.901	797.17
784.083	741.88
784.264	780.79
784.446	729.59
784.627	657.91
784.809	817.65
784.99	690.68
785.172	817.65
785.353	766.45
785.535	762.36
785.716	795.12
785.897	700.92
786.079	678.39
786.26	774.64
786.441	739.83
786.623	684.53
786.804	711.16
786.985	737.78
787.167	752.12
787.348	604.66
787.529	680.44
787.71	799.22
787.891	668.15
788.073	696.82
788.254	596.47
788.435	639.48
788.616	594.42
788.797	727.54
788.978	666.1
789.159	623.09
789.34	608.76
789.522	520.7
789.703	606.71
789.884	653.81
790.065	621.05
790.246	666.1
790.427	627.19
790.607	635.38
790.788	668.15
790.969	553.46
791.15	575.99
791.331	594.42
791.512	557.56
791.693	547.32
791.874	524.79
792.054	641.53
792.235	606.71
792.416	457.21
792.597	471.54
792.778	606.71
792.958	516.6
793.139	602.61
793.32	510.46
793.5	442.87
793.681	606.71
793.862	471.54
794.042	545.27
794.223	416.25
794.404	524.79
794.584	498.17
794.765	432.63
794.945	535.03
795.126	522.74
795.306	455.16
795.487	541.18
795.667	489.98
795.848	498.17
796.028	530.94
796.209	408.06
796.389	489.98
796.57	532.98
796.75	352.76
796.93	485.88
797.111	498.17
797.291	455.16
797.471	475.64
797.652	461.3
797.832	451.07
798.012	373.24
798.192	360.95
798.373	389.63
798.553	420.35
798.733	475.64
798.913	440.83
799.093	449.02
799.274	383.48
799.454	483.83
799.634	426.49
799.814	397.82
799.994	442.87
800.174	383.48
800.354	397.82
800.534	393.72
800.714	387.58
800.894	328.19
801.074	313.85
801.254	391.67
801.434	500.22
801.614	348.67
801.794	354.81
801.974	1032.69
802.154	346.62
802.334	387.58
802.514	377.34
802.693	328.19
802.873	313.85
803.053	440.83
803.233	395.77
803.413	346.62
803.592	344.57
803.772	391.67
803.952	338.43
804.131	293.37
804.311	334.33
804.491	332.28
804.67	246.27
804.85	356.86
805.03	367.1
805.209	358.91
805.389	326.14
805.568	367.1
805.748	375.29
805.928	356.86
806.107	414.2
806.287	307.71
806.466	266.75
806.646	307.71
806.825	360.95
807.004	334.33
807.184	305.66
807.363	303.61
807.543	393.72
807.722	244.22
807.901	336.38
808.081	340.47
808.26	279.04
808.439	334.33
808.619	354.81
808.798	317.95
808.977	227.84
809.156	342.52
809.336	201.21
809.515	369.15
809.694	223.74
809.873	246.27
810.052	244.22
810.231	375.29
810.411	244.22
810.59	338.43
810.769	244.22
810.948	287.23
811.127	158.21
811.306	252.41
811.485	221.69
811.664	334.33
811.843	254.46
812.022	195.07
812.201	152.06
812.38	311.8
812.559	180.73
812.737	260.6
812.916	215.55
813.095	131.58
813.274	164.35
813.453	291.32
813.632	283.13
813.811	311.8
813.989	211.45
814.168	297.47
814.347	174.59
814.526	164.35
814.704	119.29
814.883	254.46
815.062	213.5
815.24	272.89
815.419	223.74
815.598	279.04
815.776	240.12
815.955	221.69
816.133	233.98
816.312	201.21
816.49	250.36
816.669	244.22
816.847	219.64
817.026	211.45
817.204	174.59
817.383	238.08
817.561	207.36
817.74	258.56
817.918	207.36
818.097	195.07
818.275	59.9
818.453	221.69
818.632	268.8
818.81	285.18
818.988	209.4
819.167	166.4
819.345	238.08
819.523	109.05
819.701	156.16
819.879	178.69
820.058	233.98
820.236	135.68
820.414	178.69
820.592	225.79
820.77	221.69
820.948	197.12
821.127	170.49
821.305	182.78
821.483	154.11
821.661	154.11
821.839	139.77
822.017	190.97
822.195	178.69
822.373	176.64
822.551	225.79
822.729	205.31
822.907	129.53
823.085	246.27
823.262	195.07
823.44	150.01
823.618	154.11
823.796	205.31
823.974	229.88
824.152	98.81
824.329	211.45
824.507	199.16
824.685	150.01
824.863	90.62
825.04	92.67
825.218	121.34
825.396	150.01
825.574	156.16
825.751	139.77
825.929	172.54
826.107	139.77
826.284	123.39
826.462	184.83
826.639	80.38
826.817	64
826.994	100.86
827.172	186.88
827.349	246.27
827.527	184.83
827.704	164.35
827.882	227.84
828.059	219.64
828.237	129.53
828.414	131.58
828.591	109.05
828.769	123.39
828.946	117.25
829.124	129.53
829.301	168.45
829.478	180.73
829.655	111.1
829.833	215.55
830.01	160.25
830.187	180.73
830.364	158.21
830.542	51.71
830.719	233.98
830.896	129.53
831.073	143.87
831.25	162.3
831.427	84.48
831.604	92.67
831.782	55.81
831.959	168.45
832.136	121.34
832.313	154.11
832.49	74.24
832.667	150.01
832.844	147.97
833.021	162.3
833.198	154.11
833.374	84.48
833.551	162.3
833.728	86.53
833.905	174.59
834.082	160.25
834.259	82.43
834.436	172.54
834.612	107.01
834.789	154.11
834.966	156.16
835.143	82.43
835.319	74.24
835.496	115.2
835.673	121.34
835.85	166.4
836.026	201.21
836.203	49.66
836.38	70.14
836.556	86.53
836.733	51.71
836.909	139.77
837.086	43.52
837.262	78.33
837.439	121.34
837.616	76.29
837.792	119.29
837.968	43.52
838.145	2.56
838.321	70.14
838.498	82.43
838.674	127.49
838.851	59.9
839.027	66.05
839.203	117.25
839.38	70.14
839.556	125.44
839.732	64
839.909	80.38
840.085	143.87
840.261	141.82
840.437	45.57
840.614	78.33
840.79	98.81
840.966	141.82
841.142	59.9
841.318	104.96
841.494	104.96
841.671	113.15
841.847	78.33
842.023	-5.63
842.199	74.24
842.375	80.38
842.551	49.66
842.727	113.15
842.903	104.96
843.079	78.33
843.255	127.49
843.431	59.9
843.607	55.81
843.783	10.75
843.959	82.43
844.134	43.52
844.31	102.91
844.486	33.28
844.662	39.42
844.838	55.81
845.013	84.48
845.189	76.29
845.365	90.62
845.541	59.9
845.716	74.24
845.892	129.53
846.068	78.33
846.244	20.99
846.419	98.81
846.595	14.85
846.77	31.23
846.946	53.76
847.122	55.81
847.297	12.8
847.473	96.77
847.648	2.56
847.824	18.94
847.999	109.05
848.175	92.67
848.35	86.53
848.526	94.72
848.701	43.52
848.876	94.72
849.052	72.19
849.227	18.94
849.403	8.7
849.578	51.71
849.753	49.66
849.929	98.81
850.104	47.62
850.279	82.43
850.454	27.14
850.63	41.47
850.805	-3.58
850.98	100.86
851.155	57.86
851.33	43.52
851.505	0.51
851.681	131.58
851.856	12.8
852.031	23.04
852.206	117.25
852.381	-34.3
852.556	84.48
852.731	20.99
852.906	92.67
853.081	-1.54
853.256	61.95
853.431	29.18
853.606	20.99
853.781	49.66
853.956	55.81
854.131	-26.11
854.305	-19.97
854.48	29.18
854.655	39.42
854.83	-1.54
855.005	-1.54
855.18	-9.73
855.354	107.01
855.529	94.72
855.704	-3.58
855.879	82.43
856.053	-9.73
856.228	66.05
856.403	10.75
856.577	57.86
856.752	57.86
856.926	37.38
857.101	59.9
857.276	14.85
857.45	31.23
857.625	66.05
857.799	31.23
857.974	80.38
858.148	14.85
858.323	64
858.497	68.09
858.672	82.43
858.846	70.14
859.02	133.63
859.195	12.8
859.369	53.76
859.543	25.09
859.718	47.62
859.892	-5.63
860.066	100.86
860.241	47.62
860.415	29.18
860.589	25.09
860.763	20.99
860.938	-15.87
861.112	64
861.286	82.43
861.46	92.67
861.634	66.05
861.808	-5.63
861.982	18.94
862.157	74.24
862.331	35.33
862.505	45.57
862.679	41.47
862.853	18.94
863.027	-40.45
863.201	6.66
863.375	-52.74
863.549	80.38
863.722	0.51
863.896	90.62
864.07	-17.92
864.244	18.94
864.418	53.76
864.592	107.01
864.766	51.71
864.939	82.43
865.113	-28.16
865.287	70.14
865.461	53.76
865.634	80.38
865.808	-17.92
865.982	-26.11
866.156	35.33
866.329	-17.92
866.503	90.62
866.676	92.67
866.85	51.71
867.024	-9.73
867.197	31.23
867.371	98.81
867.544	-9.73
867.718	14.85
867.891	43.52
868.065	-9.73
868.238	68.09
868.412	45.57
868.585	-1.54
868.759	16.9
868.932	68.09
869.105	70.14
869.279	-5.63
869.452	16.9
869.625	98.81
869.799	33.28
869.972	-19.97
870.145	-22.02
870.319	12.8
870.492	-22.02
870.665	0.51
870.838	-22.02
871.011	-11.78
871.185	-1.54
871.358	6.66
871.531	53.76
871.704	-1.54
871.877	55.81
872.05	57.86
872.223	18.94
872.396	51.71
872.569	74.24
872.742	10.75
872.915	39.42
873.088	-17.92
873.261	27.14
873.434	64
873.607	6.66
873.78	-32.26
873.953	2.56
874.126	0.51
874.299	20.99
874.471	37.38
874.644	14.85
874.817	55.81
874.99	143.87
875.163	18.94
875.335	-7.68
875.508	-77.31
875.681	18.94
875.853	57.86
876.026	-42.5
876.199	-32.26
876.371	68.09
876.544	14.85
876.717	35.33
876.889	-19.97
877.062	68.09
877.234	14.85
877.407	27.14
877.579	-24.06
877.752	37.38
877.924	-26.11
878.097	20.99
878.269	16.9
878.442	4.61
878.614	35.33
878.786	-24.06
878.959	16.9
879.131	41.47
879.303	-44.54
879.476	43.52
879.648	6.66
879.82	8.7
879.993	0.51
880.165	-11.78
880.337	-5.63
880.509	14.85
880.681	-26.11
880.854	20.99
881.026	-32.26
881.198	49.66
881.37	2.56
881.542	80.38
881.714	-75.26
881.886	-9.73
882.058	-48.64
882.23	47.62
882.402	31.23
882.574	41.47
882.746	-30.21
882.918	109.05
883.09	-30.21
883.262	51.71
883.434	84.48
883.606	14.85
883.778	72.19
883.95	66.05
884.122	-3.58
884.293	2.56
884.465	-48.64
884.637	8.7
884.809	16.9
884.98	-17.92
885.152	57.86
885.324	6.66
885.496	35.33
885.667	29.18
885.839	35.33
886.011	84.48
886.182	25.09
886.354	45.57
886.525	16.9
886.697	-46.59
886.869	12.8
887.04	20.99
887.212	41.47
887.383	25.09
887.555	-34.3
887.726	18.94
887.897	-15.87
888.069	0.51
888.24	109.05
888.412	27.14
888.583	39.42
888.754	0.51
888.926	-15.87
889.097	-32.26
889.268	-28.16
889.44	-30.21
889.611	2.56
889.782	-24.06
889.953	-7.68
890.125	0.51
890.296	0.51
890.467	0.51
890.638	41.47
890.809	-42.5
890.98	-38.4
891.151	-28.16
891.323	18.94
891.494	43.52
891.665	-22.02
891.836	33.28
892.007	61.95
892.178	55.81
892.349	-17.92
892.52	2.56
892.691	49.66
892.862	-15.87
893.032	-58.88
893.203	-9.73
893.374	66.05
893.545	61.95
893.716	37.38
893.887	86.53
894.057	-52.74
894.228	-30.21
894.399	-46.59
894.57	27.14
894.74	23.04
894.911	-32.26
895.082	-48.64
895.253	-130.56
895.423	-26.11
895.594	-13.82
895.764	-36.35
895.935	35.33
896.106	-1.54
896.276	-7.68
896.447	4.61
896.617	-24.06
896.788	8.7
896.958	59.9
897.129	37.38
897.299	4.61
897.47	51.71
897.64	8.7
897.81	84.48
897.981	43.52
898.151	-67.07
898.322	12.8
898.492	23.04
898.662	8.7
898.832	39.42
899.003	29.18
899.173	14.85
899.343	-9.73
899.513	16.9
