Data from USB4F104151__99__12-43-03-492.txt Node

Date: Fri Mar 14 12:43:03 EDT 2025
User: louis
Spectrometer: USB4F10415
Trigger mode: 4
Integration Time (sec): 3.000000E-2
Scans to average: 1
Electric dark correction enabled: true
Nonlinearity correction enabled: false
Boxcar width: 0
XAxis mode: Wavelengths
Number of Pixels in Spectrum: 3648
>>>>>Begin Spectral Data<<<<<
178.204	-176.47
178.424	-176.47
178.644	-176.47
178.864	-117.08
179.084	-108.88
179.304	11.95
179.524	52.91
179.744	-82.26
179.964	-0.34
180.184	-10.58
180.404	28.33
180.624	-51.54
180.844	38.57
181.064	-14.68
181.283	-55.64
181.503	28.33
181.723	54.95
181.943	5.8
182.163	54.95
182.383	28.33
182.602	5.8
182.822	67.24
183.042	40.62
183.262	32.43
183.482	73.39
183.701	11.95
183.921	42.67
184.141	-0.34
184.361	93.87
184.58	93.87
184.8	38.57
185.02	9.9
185.239	63.15
185.459	-22.87
185.679	63.15
185.898	-6.49
186.118	28.33
186.338	87.72
186.557	122.54
186.777	42.67
186.997	13.99
187.216	79.53
187.436	100.01
187.655	81.58
187.875	87.72
188.095	44.71
188.314	95.91
188.534	89.77
188.753	9.9
188.973	28.33
189.192	110.25
189.412	77.48
189.631	11.95
189.851	5.8
190.07	79.53
190.29	-20.82
190.509	-8.53
190.729	22.19
190.948	36.52
191.168	206.5
191.387	5.8
191.607	93.87
191.826	11.95
192.045	-10.58
192.265	71.34
192.484	87.72
192.704	-35.16
192.923	36.52
193.142	67.24
193.362	18.09
193.581	95.91
193.8	81.58
194.02	95.91
194.239	63.15
194.458	-18.77
194.678	36.52
194.897	54.95
195.116	3.75
195.335	-6.49
195.555	63.15
195.774	85.67
195.993	83.63
196.212	7.85
196.432	-24.92
196.651	28.33
196.87	-8.53
197.089	130.73
197.308	85.67
197.528	110.25
197.747	-53.59
197.966	32.43
198.185	63.15
198.404	34.47
198.623	7.85
198.842	118.44
199.062	87.72
199.281	36.52
199.5	44.71
199.719	61.1
199.938	42.67
200.157	91.82
200.376	9.9
200.595	61.1
200.814	26.28
201.033	-10.58
201.252	91.82
201.471	-0.34
201.69	67.24
201.909	3.75
202.128	61.1
202.347	65.19
202.566	61.1
202.785	-10.58
203.004	-53.59
203.223	163.5
203.442	71.34
203.661	44.71
203.879	67.24
204.098	85.67
204.317	-61.78
204.536	48.81
204.755	20.14
204.974	118.44
205.193	-20.82
205.411	87.72
205.63	85.67
205.849	61.1
206.068	136.87
206.287	69.29
206.505	85.67
206.724	24.23
206.943	63.15
207.162	46.76
207.381	85.67
207.599	65.19
207.818	13.99
208.037	46.76
208.255	5.8
208.474	36.52
208.693	52.91
208.911	-24.92
209.13	77.48
209.349	44.71
209.567	85.67
209.786	46.76
210.005	108.2
210.223	32.43
210.442	5.8
210.661	44.71
210.879	32.43
211.098	16.04
211.316	24.23
211.535	32.43
211.753	75.43
211.972	44.71
212.191	22.19
212.409	44.71
212.628	22.19
212.846	52.91
213.065	63.15
213.283	77.48
213.502	44.71
213.72	20.14
213.938	93.87
214.157	-10.58
214.375	83.63
214.594	61.1
214.812	85.67
215.031	126.63
215.249	18.09
215.467	13.99
215.686	18.09
215.904	118.44
216.122	75.43
216.341	95.91
216.559	104.11
216.778	59.05
216.996	71.34
217.214	85.67
217.432	26.28
217.651	46.76
217.869	-8.53
218.087	28.33
218.306	40.62
218.524	61.1
218.742	59.05
218.96	48.81
219.179	22.19
219.397	65.19
219.615	87.72
219.833	36.52
220.051	20.14
220.27	20.14
220.488	75.43
220.706	-20.82
220.924	13.99
221.142	59.05
221.36	61.1
221.578	69.29
221.796	102.06
222.015	-0.34
222.233	-24.92
222.451	136.87
222.669	20.14
222.887	54.95
223.105	9.9
223.323	22.19
223.541	81.58
223.759	3.75
223.977	-8.53
224.195	87.72
224.413	118.44
224.631	32.43
224.849	93.87
225.067	157.35
225.285	-35.16
225.503	63.15
225.721	11.95
225.939	100.01
226.157	48.81
226.375	110.25
226.592	36.52
226.81	3.75
227.028	61.1
227.246	65.19
227.464	16.04
227.682	50.86
227.9	24.23
228.117	13.99
228.335	18.09
228.553	46.76
228.771	-22.87
228.989	-41.3
229.206	77.48
229.424	32.43
229.642	7.85
229.86	9.9
230.077	9.9
230.295	42.67
230.513	79.53
230.731	48.81
230.948	36.52
231.166	73.39
231.384	18.09
231.601	26.28
231.819	108.2
232.037	-26.96
232.254	-14.68
232.472	83.63
232.689	-0.34
232.907	79.53
233.125	48.81
233.342	-2.39
233.56	65.19
233.777	73.39
233.995	-35.16
234.213	130.73
234.43	59.05
234.648	44.71
234.865	67.24
235.083	48.81
235.3	48.81
235.518	95.91
235.735	50.86
235.953	130.73
236.17	-18.77
236.388	71.34
236.605	50.86
236.822	87.72
237.04	46.76
237.257	-35.16
237.475	-41.3
237.692	95.91
237.909	9.9
238.127	20.14
238.344	108.2
238.562	36.52
238.779	-6.49
238.996	32.43
239.214	32.43
239.431	79.53
239.648	9.9
239.865	89.77
240.083	-14.68
240.3	46.76
240.517	18.09
240.735	61.1
240.952	79.53
241.169	87.72
241.386	110.25
241.603	65.19
241.821	81.58
242.038	89.77
242.255	5.8
242.472	-4.44
242.689	75.43
242.907	79.53
243.124	108.2
243.341	134.82
243.558	79.53
243.775	42.67
243.992	-12.63
244.209	104.11
244.426	110.25
244.643	18.09
244.86	9.9
245.078	9.9
245.295	-4.44
245.512	57
245.729	40.62
245.946	11.95
246.163	61.1
246.38	102.06
246.597	-31.06
246.814	61.1
247.031	-8.53
247.248	24.23
247.464	52.91
247.681	24.23
247.898	83.63
248.115	36.52
248.332	7.85
248.549	104.11
248.766	93.87
248.983	106.15
249.2	40.62
249.417	63.15
249.633	32.43
249.85	100.01
250.067	-2.39
250.284	22.19
250.501	48.81
250.717	77.48
250.934	5.8
251.151	9.9
251.368	108.2
251.585	69.29
251.801	16.04
252.018	-35.16
252.235	71.34
252.451	34.47
252.668	13.99
252.885	97.96
253.102	52.91
253.318	3.75
253.535	30.38
253.752	5.8
253.968	50.86
254.185	36.52
254.401	30.38
254.618	20.14
254.835	26.28
255.051	1.71
255.268	38.57
255.484	63.15
255.701	13.99
255.917	110.25
256.134	26.28
256.351	50.86
256.567	97.96
256.784	106.15
257	-4.44
257.217	63.15
257.433	46.76
257.65	104.11
257.866	83.63
258.082	85.67
258.299	54.95
258.515	44.71
258.732	-12.63
258.948	7.85
259.165	69.29
259.381	48.81
259.597	61.1
259.814	11.95
260.03	44.71
260.246	65.19
260.463	108.2
260.679	38.57
260.895	-8.53
261.112	32.43
261.328	71.34
261.544	-16.73
261.761	149.16
261.977	77.48
262.193	16.04
262.409	69.29
262.626	93.87
262.842	63.15
263.058	9.9
263.274	52.91
263.49	73.39
263.707	13.99
263.923	81.58
264.139	-0.34
264.355	118.44
264.571	75.43
264.787	46.76
265.004	-12.63
265.22	48.81
265.436	34.47
265.652	-0.34
265.868	61.1
266.084	-6.49
266.3	28.33
266.516	3.75
266.732	-24.92
266.948	24.23
267.164	54.95
267.38	69.29
267.596	48.81
267.812	44.71
268.028	46.76
268.244	75.43
268.46	75.43
268.676	11.95
268.892	63.15
269.108	24.23
269.324	36.52
269.54	26.28
269.756	28.33
269.972	22.19
270.188	81.58
270.403	18.09
270.619	9.9
270.835	46.76
271.051	57
271.267	71.34
271.483	69.29
271.698	-10.58
271.914	30.38
272.13	79.53
272.346	100.01
272.562	54.95
272.777	73.39
272.993	89.77
273.209	89.77
273.425	44.71
273.64	50.86
273.856	24.23
274.072	26.28
274.287	57
274.503	106.15
274.719	122.54
274.934	32.43
275.15	61.1
275.366	87.72
275.581	28.33
275.797	-16.73
276.012	79.53
276.228	57
276.444	65.19
276.659	69.29
276.875	61.1
277.09	48.81
277.306	38.57
277.521	44.71
277.737	95.91
277.952	46.76
278.168	20.14
278.383	40.62
278.599	73.39
278.814	38.57
279.03	9.9
279.245	46.76
279.461	20.14
279.676	63.15
279.892	149.16
280.107	34.47
280.322	-18.77
280.538	24.23
280.753	57
280.969	-12.63
281.184	26.28
281.399	91.82
281.615	9.9
281.83	143.02
282.045	36.52
282.26	44.71
282.476	22.19
282.691	57
282.906	71.34
283.122	57
283.337	-2.39
283.552	44.71
283.767	-43.35
283.983	79.53
284.198	110.25
284.413	44.71
284.628	-55.64
284.843	50.86
285.058	77.48
285.274	57
285.489	-14.68
285.704	7.85
285.919	26.28
286.134	54.95
286.349	36.52
286.564	-14.68
286.779	3.75
286.995	52.91
287.21	61.1
287.425	81.58
287.64	93.87
287.855	118.44
288.07	1.71
288.285	54.95
288.5	54.95
288.715	145.06
288.93	93.87
289.145	-12.63
289.36	54.95
289.575	-10.58
289.79	110.25
290.004	44.71
290.219	59.05
290.434	-33.11
290.649	-31.06
290.864	73.39
291.079	1.71
291.294	83.63
291.509	54.95
291.724	24.23
291.938	-33.11
292.153	75.43
292.368	73.39
292.583	16.04
292.798	155.3
293.012	102.06
293.227	9.9
293.442	65.19
293.657	-4.44
293.871	18.09
294.086	34.47
294.301	46.76
294.516	16.04
294.73	83.63
294.945	-65.88
295.16	9.9
295.374	67.24
295.589	30.38
295.804	13.99
296.018	110.25
296.233	-2.39
296.447	95.91
296.662	61.1
296.877	87.72
297.091	16.04
297.306	-2.39
297.52	34.47
297.735	46.76
297.949	52.91
298.164	91.82
298.378	20.14
298.593	-22.87
298.807	48.81
299.022	89.77
299.236	69.29
299.451	-6.49
299.665	59.05
299.88	81.58
300.094	36.52
300.309	71.34
300.523	30.38
300.737	38.57
300.952	57
301.166	83.63
301.381	-59.73
301.595	52.91
301.809	24.23
302.024	89.77
302.238	-31.06
302.452	75.43
302.667	3.75
302.881	26.28
303.095	124.58
303.309	118.44
303.524	-43.35
303.738	-4.44
303.952	50.86
304.166	34.47
304.381	11.95
304.595	106.15
304.809	36.52
305.023	-4.44
305.237	59.05
305.452	24.23
305.666	69.29
305.88	112.3
306.094	151.21
306.308	61.1
306.522	28.33
306.736	71.34
306.95	54.95
307.164	24.23
307.379	-45.4
307.593	52.91
307.807	71.34
308.021	83.63
308.235	128.68
308.449	120.49
308.663	9.9
308.877	114.34
309.091	36.52
309.305	32.43
309.519	-8.53
309.733	24.23
309.947	61.1
310.161	104.11
310.374	48.81
310.588	149.16
310.802	32.43
311.016	75.43
311.23	138.92
311.444	79.53
311.658	50.86
311.872	108.2
312.085	108.2
312.299	122.54
312.513	46.76
312.727	118.44
312.941	26.28
313.154	136.87
313.368	13.99
313.582	87.72
313.796	40.62
314.009	38.57
314.223	40.62
314.437	71.34
314.651	-8.53
314.864	57
315.078	57
315.292	104.11
315.505	38.57
315.719	77.48
315.933	-14.68
316.146	-18.77
316.36	54.95
316.573	112.3
316.787	155.3
317.001	7.85
317.214	30.38
317.428	95.91
317.641	91.82
317.855	38.57
318.068	40.62
318.282	-14.68
318.495	118.44
318.709	112.3
318.922	71.34
319.136	85.67
319.349	30.38
319.563	32.43
319.776	87.72
319.99	22.19
320.203	63.15
320.417	40.62
320.63	46.76
320.843	65.19
321.057	130.73
321.27	79.53
321.483	61.1
321.697	134.82
321.91	26.28
322.124	93.87
322.337	75.43
322.55	85.67
322.763	100.01
322.977	32.43
323.19	36.52
323.403	65.19
323.617	77.48
323.83	89.77
324.043	120.49
324.256	132.78
324.469	28.33
324.683	48.81
324.896	52.91
325.109	46.76
325.322	50.86
325.535	71.34
325.748	30.38
325.962	28.33
326.175	18.09
326.388	22.19
326.601	46.76
326.814	71.34
327.027	18.09
327.24	95.91
327.453	-4.44
327.666	106.15
327.879	87.72
328.092	44.71
328.305	85.67
328.518	91.82
328.731	3.75
328.944	65.19
329.157	24.23
329.37	26.28
329.583	157.35
329.796	124.58
330.009	-10.58
330.222	61.1
330.435	97.96
330.648	73.39
330.861	69.29
331.073	28.33
331.286	50.86
331.499	57
331.712	65.19
331.925	30.38
332.138	7.85
332.35	69.29
332.563	18.09
332.776	48.81
332.989	18.09
333.202	26.28
333.414	-4.44
333.627	100.01
333.84	5.8
334.053	83.63
334.265	-0.34
334.478	63.15
334.691	140.97
334.903	48.81
335.116	16.04
335.329	48.81
335.541	143.02
335.754	95.91
335.966	28.33
336.179	87.72
336.392	87.72
336.604	48.81
336.817	67.24
337.029	112.3
337.242	44.71
337.454	48.81
337.667	38.57
337.88	63.15
338.092	132.78
338.305	85.67
338.517	75.43
338.729	97.96
338.942	100.01
339.154	83.63
339.367	-6.49
339.579	112.3
339.792	75.43
340.004	73.39
340.217	28.33
340.429	32.43
340.641	44.71
340.854	71.34
341.066	61.1
341.278	18.09
341.491	100.01
341.703	-18.77
341.915	104.11
342.128	44.71
342.34	48.81
342.552	5.8
342.764	20.14
342.977	52.91
343.189	63.15
343.401	75.43
343.613	30.38
343.826	89.77
344.038	67.24
344.25	32.43
344.462	-33.11
344.674	71.34
344.886	83.63
345.099	95.91
345.311	20.14
345.523	122.54
345.735	40.62
345.947	71.34
346.159	48.81
346.371	7.85
346.583	30.38
346.795	40.62
347.007	38.57
347.219	89.77
347.431	73.39
347.643	147.11
347.855	75.43
348.067	108.2
348.279	-51.54
348.491	77.48
348.703	83.63
348.915	93.87
349.127	46.76
349.339	77.48
349.551	13.99
349.763	7.85
349.975	63.15
350.187	85.67
350.399	59.05
350.61	7.85
350.822	32.43
351.034	38.57
351.246	104.11
351.458	7.85
351.669	52.91
351.881	132.78
352.093	89.77
352.305	61.1
352.517	106.15
352.728	224.94
352.94	40.62
353.152	134.82
353.363	44.71
353.575	124.58
353.787	97.96
353.999	50.86
354.21	149.16
354.422	11.95
354.633	67.24
354.845	77.48
355.057	83.63
355.268	69.29
355.48	59.05
355.692	1.71
355.903	79.53
356.115	57
356.326	59.05
356.538	52.91
356.749	40.62
356.961	118.44
357.172	52.91
357.384	79.53
357.595	128.68
357.807	61.1
358.018	-4.44
358.23	42.67
358.441	91.82
358.653	102.06
358.864	40.62
359.075	91.82
359.287	95.91
359.498	28.33
359.709	116.39
359.921	65.19
360.132	28.33
360.344	114.34
360.555	52.91
360.766	61.1
360.977	122.54
361.189	122.54
361.4	153.26
361.611	73.39
361.823	93.87
362.034	85.67
362.245	3.75
362.456	77.48
362.667	87.72
362.879	69.29
363.09	89.77
363.301	38.57
363.512	52.91
363.723	52.91
363.935	26.28
364.146	57
364.357	42.67
364.568	48.81
364.779	106.15
364.99	77.48
365.201	-41.3
365.412	108.2
365.623	16.04
365.834	151.21
366.045	22.19
366.256	126.63
366.467	22.19
366.678	20.14
366.889	91.82
367.1	75.43
367.311	93.87
367.522	-18.77
367.733	85.67
367.944	89.77
368.155	69.29
368.366	24.23
368.577	120.49
368.788	73.39
368.999	-24.92
369.209	87.72
369.42	3.75
369.631	128.68
369.842	44.71
370.053	91.82
370.264	130.73
370.474	69.29
370.685	-4.44
370.896	81.58
371.107	167.59
371.317	42.67
371.528	36.52
371.739	97.96
371.95	81.58
372.16	183.98
372.371	13.99
372.582	95.91
372.792	106.15
373.003	81.58
373.214	63.15
373.424	106.15
373.635	126.63
373.846	95.91
374.056	54.95
374.267	28.33
374.477	89.77
374.688	34.47
374.898	26.28
375.109	54.95
375.319	77.48
375.53	87.72
375.74	1.71
375.951	95.91
376.161	85.67
376.372	128.68
376.582	57
376.793	36.52
377.003	57
377.214	40.62
377.424	46.76
377.635	126.63
377.845	-49.49
378.055	52.91
378.266	122.54
378.476	20.14
378.686	102.06
378.897	63.15
379.107	130.73
379.317	69.29
379.528	46.76
379.738	40.62
379.948	85.67
380.158	46.76
380.369	149.16
380.579	81.58
380.789	57
380.999	65.19
381.21	85.67
381.42	9.9
381.63	-6.49
381.84	95.91
382.05	106.15
382.261	95.91
382.471	89.77
382.681	122.54
382.891	83.63
383.101	116.39
383.311	48.81
383.521	54.95
383.731	112.3
383.941	95.91
384.151	42.67
384.361	54.95
384.571	34.47
384.781	63.15
384.991	81.58
385.201	102.06
385.411	59.05
385.621	118.44
385.831	114.34
386.041	130.73
386.251	67.24
386.461	36.52
386.671	50.86
386.881	59.05
387.091	87.72
387.301	77.48
387.511	63.15
387.72	36.52
387.93	83.63
388.14	32.43
388.35	122.54
388.56	-20.82
388.769	54.95
388.979	42.67
389.189	34.47
389.399	22.19
389.609	151.21
389.818	77.48
390.028	16.04
390.238	61.1
390.447	50.86
390.657	126.63
390.867	100.01
391.076	87.72
391.286	52.91
391.496	122.54
391.705	44.71
391.915	118.44
392.125	102.06
392.334	130.73
392.544	95.91
392.753	83.63
392.963	16.04
393.172	87.72
393.382	100.01
393.591	183.98
393.801	106.15
394.01	132.78
394.22	61.1
394.429	57
394.639	93.87
394.848	85.67
395.058	118.44
395.267	59.05
395.477	112.3
395.686	151.21
395.895	83.63
396.105	134.82
396.314	89.77
396.524	71.34
396.733	122.54
396.942	159.4
397.152	128.68
397.361	143.02
397.57	85.67
397.78	126.63
397.989	165.54
398.198	194.22
398.407	104.11
398.617	134.82
398.826	67.24
399.035	175.78
399.244	157.35
399.453	114.34
399.663	26.28
399.872	93.87
400.081	48.81
400.29	85.67
400.499	124.58
400.708	134.82
400.917	81.58
401.127	93.87
401.336	183.98
401.545	216.74
401.754	167.59
401.963	120.49
402.172	114.34
402.381	120.49
402.59	89.77
402.799	48.81
403.008	151.21
403.217	194.22
403.426	124.58
403.635	48.81
403.844	128.68
404.053	161.45
404.262	173.74
404.471	196.26
404.68	114.34
404.888	183.98
405.097	124.58
405.306	177.83
405.515	177.83
405.724	163.5
405.933	255.65
406.142	198.31
406.35	263.85
406.559	204.46
406.768	210.6
406.977	241.32
407.185	216.74
407.394	269.99
407.603	169.64
407.812	163.5
408.02	269.99
408.229	198.31
408.438	306.85
408.646	136.87
408.855	282.28
409.064	282.28
409.272	186.02
409.481	323.24
409.69	272.04
409.898	308.9
410.107	337.57
410.315	343.72
410.524	319.14
410.733	333.48
410.941	310.95
411.15	405.16
411.358	378.53
411.567	380.58
411.775	353.96
411.984	415.4
412.192	396.96
412.401	431.78
412.609	470.69
412.818	487.08
413.026	593.57
413.234	462.5
413.443	511.65
413.651	612
413.86	521.89
414.068	552.61
414.276	614.05
414.485	675.49
414.693	663.2
414.901	652.96
415.11	706.21
415.318	618.15
415.526	700.06
415.734	751.26
415.943	794.27
416.151	781.98
416.359	781.98
416.567	831.13
416.776	796.32
416.984	1035.93
417.192	908.96
417.4	999.07
417.608	947.87
417.817	970.4
418.025	1072.79
418.233	1148.57
418.441	1093.27
418.649	1195.67
418.857	1234.58
419.065	1253.02
419.273	1224.34
419.481	1289.88
419.689	1379.99
419.897	1509.01
420.105	1521.3
420.313	1558.16
420.521	1521.3
420.729	1527.44
420.937	1552.02
421.145	1627.79
421.353	1848.97
421.561	1803.92
421.769	1932.94
421.977	1971.85
422.185	2025.1
422.393	2127.5
422.601	2254.47
422.809	2174.6
423.017	2266.76
423.224	2363.01
423.432	2430.6
423.64	2465.41
423.848	2643.59
424.056	2522.76
424.263	2690.69
424.471	2735.74
424.679	2758.27
424.887	2903.68
425.094	3067.52
425.302	3022.46
425.51	3174.01
425.718	3233.4
425.925	3323.51
426.133	3526.26
426.341	3546.74
426.548	3835.5
426.756	3829.36
426.964	3821.17
427.171	4204.14
427.379	3985.01
427.586	4208.23
427.794	4351.59
428.001	4501.09
428.209	4798.05
428.417	4615.78
428.624	5150.3
428.832	5062.24
429.039	4988.51
429.247	4986.46
429.454	5699.16
429.662	5836.37
429.869	5574.23
430.076	6053.45
430.284	5697.11
430.491	5940.82
430.699	6121.04
430.906	6217.29
431.114	6426.18
431.321	6706.76
431.528	6684.23
431.736	7224.89
431.943	7380.54
432.15	7280.19
432.358	7157.31
432.565	7661.11
432.772	7562.81
432.979	8107.57
433.187	8259.12
433.394	8281.64
433.601	8810.02
433.808	8957.47
434.016	8787.49
434.223	9238.05
434.43	9635.35
434.637	9709.08
434.844	10225.17
435.052	10284.56
435.259	10212.88
435.466	10544.65
435.673	10286.61
435.88	11138.56
436.087	11589.11
436.294	11552.25
436.501	11269.63
436.708	11607.55
436.915	11847.16
437.122	12508.65
437.329	12578.28
437.537	12879.33
437.743	13077.99
437.95	13084.13
438.157	13553.12
438.364	13903.32
438.571	13989.33
438.778	14079.44
438.985	15312.32
439.192	14945.73
439.399	15441.34
439.606	14863.82
439.813	15637.95
440.02	16907.69
440.227	16420.27
440.433	16166.32
440.64	16807.34
440.847	16676.27
441.054	17130.92
441.261	18511.25
441.467	17915.29
441.674	18075.03
441.881	18959.75
442.088	18990.47
442.294	19088.78
442.501	19279.24
442.708	19899.77
442.914	20807.02
443.121	21357.92
443.328	20917.61
443.534	22293.85
443.741	21593.44
443.948	21247.33
444.154	22912.33
444.361	22863.18
444.568	22691.15
444.774	22979.92
444.981	23188.81
445.187	24063.29
445.394	25064.75
445.6	24821.04
445.807	27014.41
446.013	25601.32
446.22	26135.84
446.426	27290.89
446.633	27458.82
446.839	28624.12
447.046	27176.2
447.252	28943.6
447.459	28646.65
447.665	28843.25
447.871	30305.5
448.078	31362.25
448.284	29857
448.491	30747.86
448.697	31714.5
448.903	32222.4
449.11	32658.62
449.316	31853.76
449.522	32701.62
449.728	33457.32
449.935	33563.82
450.141	33434.8
450.347	34258.08
450.553	33303.73
450.76	33879.21
450.966	34876.57
451.172	34247.84
451.378	35400.85
451.584	34552.99
451.791	35517.58
451.997	35052.69
452.203	35921.03
452.409	36260.99
452.615	35554.44
452.821	34282.66
453.027	34114.72
453.233	35812.49
453.44	34505.88
453.646	35036.31
453.852	34952.34
454.058	35949.7
454.264	34606.23
454.47	35185.81
454.676	34534.56
454.882	35695.75
455.088	32302.27
455.294	33006.77
455.5	33389.74
455.705	33754.28
455.911	32507.07
456.117	31812.81
456.323	31423.69
456.529	30137.57
456.735	31102.16
456.941	30205.15
457.147	29754.6
457.352	28810.48
457.558	28474.62
457.764	28812.53
457.97	28153.09
458.176	27606.28
458.381	27487.5
458.587	25849.12
458.793	26141.98
458.999	24741.17
459.204	26561.81
459.41	25814.3
459.616	24223.03
459.821	24479.03
460.027	24073.53
460.233	23514.44
460.438	22613.33
460.644	22642
460.85	21792.09
461.055	21284.2
461.261	21345.64
461.466	19735.93
461.672	19082.63
461.878	20477.3
462.083	19002.76
462.289	18926.99
462.494	18589.07
462.7	17692.06
462.905	17218.98
463.111	17845.66
463.316	17780.12
463.522	17536.42
463.727	17395.11
463.932	17448.35
464.138	17345.95
464.343	17528.22
464.549	17122.73
464.754	17386.91
464.959	17401.25
465.165	17202.6
465.37	16510.38
465.575	16211.38
465.781	16633.26
465.986	16760.23
466.191	16049.59
466.397	15834.55
466.602	14974.41
466.807	15627.71
467.012	15629.76
467.218	15545.79
467.423	15515.07
467.628	15543.74
467.833	16246.19
468.038	15504.83
468.244	15293.89
468.449	15744.44
468.654	15113.67
468.859	15402.43
469.064	14835.14
469.269	14366.16
469.474	14656.97
469.679	14783.95
469.885	14587.34
470.09	14851.53
470.295	14480.85
470.5	14161.36
470.705	14554.57
470.91	14061.01
471.115	13931.99
471.32	14108.12
471.525	14110.16
471.73	13776.34
471.935	13659.61
472.139	13270.5
472.344	13340.13
472.549	13473.25
472.754	12889.57
472.959	13034.98
473.164	12768.74
473.369	12166.64
473.574	13010.4
473.778	12860.9
473.983	12557.8
474.188	12461.55
474.393	11904.5
474.598	12160.5
474.802	11892.21
475.007	11640.31
475.212	12037.62
475.417	11300.35
475.621	11400.7
475.826	11535.87
476.031	11224.58
476.235	11038.21
476.44	11202.05
476.645	11200
476.849	10987.01
477.054	10968.58
477.259	10755.59
477.463	10554.89
477.668	10507.79
477.872	10548.75
478.077	10448.4
478.282	10212.88
478.486	10044.95
478.691	10090
478.895	9940.5
479.1	9897.49
479.304	9897.49
479.509	9702.93
479.713	9649.69
479.918	9625.11
480.122	9358.88
480.326	9772.57
480.531	9487.9
480.735	9692.69
480.94	9332.25
481.144	9674.26
481.348	9262.62
481.553	9322.01
481.757	9287.2
481.961	9195.04
482.166	9350.68
482.37	9305.63
482.574	9104.93
482.778	9375.26
482.983	9395.74
483.187	9205.28
483.391	9264.67
483.595	9123.36
483.8	9141.79
484.004	9172.51
484.208	9272.86
484.412	9217.57
484.616	9141.79
484.821	9037.34
485.025	9149.98
485.229	9201.18
485.433	9106.98
485.637	9111.07
485.841	9033.25
486.045	8990.24
486.249	9324.06
486.453	9145.89
486.657	9295.39
486.861	9020.96
487.065	9104.93
487.269	9217.57
487.473	8943.14
487.677	9233.95
487.881	9260.57
488.085	9119.26
488.289	9135.65
488.493	9082.4
488.697	9424.41
488.901	9344.54
489.105	9317.92
489.309	9123.36
489.512	9164.32
489.716	9430.55
489.92	9328.16
490.124	9229.85
490.328	9614.87
490.531	9348.64
490.735	9342.49
490.939	9510.43
491.143	9172.51
491.346	9666.07
491.55	9508.38
491.754	9477.66
491.958	9596.44
492.161	9621.02
492.365	9696.79
492.569	9680.41
492.772	9768.47
492.976	9940.5
493.18	9774.61
493.383	9946.64
493.587	9899.54
493.79	10090
493.994	9852.44
494.197	9977.36
494.401	10247.69
494.605	10122.77
494.808	10245.65
495.012	10270.22
495.215	10331.66
495.419	10620.42
495.622	10427.92
495.825	10683.91
496.029	10601.99
496.232	10952.2
496.436	10554.89
496.639	11034.11
496.843	10991.11
497.046	11372.03
497.249	11193.86
497.453	11224.58
497.656	11513.34
497.859	11597.31
498.063	11582.97
498.266	11832.82
498.469	11935.22
498.673	12004.85
498.876	12041.71
499.079	12363.25
499.282	12000.76
499.485	12647.91
499.689	12555.76
499.892	12948.97
500.095	12854.76
500.298	13241.82
500.501	13104.61
500.705	13219.3
500.908	13635.03
501.111	13540.83
501.314	13571.55
501.517	13712.86
501.72	13960.66
501.923	13997.53
502.126	14286.29
502.329	14353.87
502.532	14527.95
502.735	14777.8
502.938	14945.73
503.141	14988.74
503.344	15064.52
503.547	15162.82
503.75	15617.47
503.953	15506.88
504.156	15791.55
504.359	15799.74
504.562	15887.8
504.765	16246.19
504.968	16534.96
505.17	16500.14
505.373	16604.59
505.576	17089.96
505.779	16999.85
505.982	17407.39
506.185	17651.1
506.387	17626.53
506.59	17644.96
506.793	18126.23
506.996	18048.41
507.198	18470.29
507.401	18218.39
507.604	18781.58
507.807	18759.05
508.009	19037.58
508.212	19250.56
508.415	19443.07
508.617	19594.62
508.82	19750.27
509.022	19725.69
509.225	20217.21
509.428	20372.85
509.63	20381.04
509.833	20518.26
510.035	21005.67
510.238	20915.56
510.44	21226.85
510.643	21443.94
510.845	21370.21
511.048	21665.12
511.25	21921.12
511.453	21896.54
511.655	23041.36
511.858	22345.05
512.06	22496.6
512.262	22738.26
512.465	23012.68
512.667	23266.63
512.87	23840.06
513.072	23541.06
513.274	23872.83
513.477	24044.86
513.679	24204.6
513.881	24474.93
514.084	24782.13
514.286	24620.34
514.488	24749.36
514.69	25546.02
514.893	25636.13
515.095	25640.23
515.297	26043.68
515.499	25953.57
515.701	26402.07
515.904	26604.82
516.106	26547.48
516.308	27217.16
516.51	27176.2
516.712	27043.09
516.914	27593.99
517.116	27714.82
517.318	27847.94
517.52	27847.94
517.722	28110.08
517.925	28681.46
518.127	29152.49
518.329	29076.72
518.531	28976.37
518.733	28910.83
518.935	29295.85
519.136	29998.3
519.338	30039.26
519.54	30145.76
519.742	30272.73
519.944	30274.78
520.146	30917.84
520.348	31261.9
520.55	31352.01
520.752	31296.72
520.954	31558.86
521.155	31616.2
521.357	32144.58
521.559	32150.72
521.761	32462.01
521.963	32443.58
522.164	32591.03
522.366	32771.25
522.568	32922.8
522.77	32779.45
522.971	33701.03
523.173	33227.95
523.375	33807.53
523.576	33361.07
523.778	33608.87
523.98	34399.39
524.181	34213.02
524.383	34452.64
524.584	34544.8
524.786	34538.65
524.988	34577.56
525.189	34864.28
525.391	35153.04
525.592	35642.51
525.794	35171.47
525.995	35642.51
526.197	35609.74
526.398	35384.46
526.6	35366.03
526.801	35685.51
527.003	35867.78
527.204	35871.88
527.406	36000.9
527.607	36336.77
527.808	36486.27
528.01	36009.09
528.211	36136.07
528.412	36795.51
528.614	36613.24
528.815	36551.8
529.016	36932.73
529.218	36705.4
529.419	36641.92
529.62	36883.58
529.822	36811.9
530.023	36797.56
530.224	36998.26
530.425	37102.71
530.626	36639.87
530.828	36689.02
531.029	37514.35
531.23	36869.24
531.431	37143.67
531.632	37055.61
531.833	37524.59
532.035	37364.85
532.236	37139.57
532.437	37411.95
532.638	36838.52
532.839	37338.22
533.04	37379.18
533.241	36684.92
533.442	37751.91
533.643	37123.19
533.844	37362.8
534.045	37540.97
534.246	36922.49
534.447	37504.11
534.648	37381.23
534.849	37655.66
535.05	37256.31
535.251	37334.13
535.451	37272.69
535.652	37194.87
535.853	37405.81
536.054	37108.85
536.255	37807.21
536.456	37106.8
536.657	37760.11
536.857	37246.07
537.058	36795.51
537.259	37794.92
537.46	37414
537.66	37053.56
537.861	37637.23
538.062	37340.27
538.263	37686.38
538.463	37387.38
538.664	37125.24
538.865	37520.49
539.065	37346.42
539.266	37295.22
539.466	37733.48
539.667	36883.58
539.868	37080.18
540.068	37063.8
540.269	37020.79
540.469	37315.7
540.67	37182.58
540.87	37375.09
541.071	37178.48
541.271	36983.93
541.472	36963.45
541.672	36729.98
541.873	36707.45
542.073	36564.09
542.274	37080.18
542.474	36803.71
542.675	36734.07
542.875	37358.7
543.075	36957.3
543.276	36476.03
543.476	37000.31
543.676	36789.37
543.877	36924.54
544.077	36967.54
544.277	36949.11
544.478	36641.92
544.678	36985.97
544.878	36652.16
545.078	36854.9
545.279	36664.44
545.479	36859
545.679	36754.55
545.879	36670.59
546.079	36938.87
546.28	36631.68
546.48	36332.67
546.68	36906.1
546.88	36793.47
547.08	36926.58
547.28	36605.05
547.48	36570.24
547.68	36613.24
547.88	36293.76
548.081	36381.82
548.281	36170.88
548.481	36836.47
548.681	36891.77
548.881	36234.37
549.081	36279.43
549.28	36551.8
549.48	36328.58
549.68	36379.78
549.88	36975.73
550.08	36150.4
550.28	36289.66
550.48	36736.12
550.68	36551.8
550.88	36347.01
551.08	36076.68
551.279	36189.31
551.479	35773.58
551.679	36484.22
551.879	36230.27
552.079	36480.13
552.278	36097.16
552.478	36531.33
552.678	36369.54
552.878	36656.25
553.077	36166.79
553.277	35949.7
553.477	36314.24
553.676	36285.57
553.876	36009.09
554.076	35703.95
554.275	35949.7
554.475	35699.85
554.674	36273.28
554.874	36148.36
555.074	36039.81
555.273	35716.23
555.473	36039.81
555.672	35517.58
555.872	35705.99
556.071	35892.36
556.271	36291.71
556.47	35478.67
556.67	35191.95
556.869	35646.6
557.068	35884.17
557.268	35591.31
557.467	35773.58
557.667	35439.76
557.866	35628.17
558.065	35628.17
558.265	35245.2
558.464	35275.92
558.663	35699.85
558.863	35482.77
559.062	35443.85
559.261	34931.86
559.461	35589.26
559.66	35329.17
559.859	35206.29
560.058	34991.25
560.258	35189.91
560.457	34784.41
560.656	35396.75
560.855	35253.39
561.054	35323.02
561.253	34614.43
561.453	35097.75
561.652	34706.59
561.851	34976.92
562.05	34737.3
562.249	34305.18
562.448	34757.78
562.647	34860.18
562.846	34802.84
563.045	35052.69
563.244	34301.09
563.443	35036.31
563.642	34434.21
563.841	34565.28
564.04	34319.52
564.239	34735.26
564.438	34340
564.637	34358.43
564.836	34426.01
565.035	34184.35
565.234	34096.29
565.432	34215.07
565.631	33922.21
565.83	34389.15
566.029	33909.93
566.228	34094.24
566.427	33819.81
566.625	33760.42
566.824	33942.69
567.023	34016.42
567.222	33182.9
567.42	33850.53
567.619	33549.48
567.818	33811.62
568.016	33408.17
568.215	33574.06
568.414	33342.64
568.612	33514.67
568.811	33285.29
569.01	33715.37
569.208	32941.24
569.407	33696.94
569.605	33082.55
569.804	33524.91
570.002	33248.43
570.201	32974
570.4	33137.84
570.598	32775.35
570.797	32781.49
570.995	33031.35
571.193	32437.44
571.392	33043.63
571.59	32595.13
571.789	32644.28
571.987	32498.87
572.186	32359.61
572.384	32310.46
572.582	32881.84
572.781	32607.42
572.979	31911.11
573.177	32095.42
573.376	32550.07
573.574	31937.73
573.772	32283.84
573.971	32160.96
574.169	31890.63
574.367	31569.1
574.565	31960.26
574.763	32054.47
574.962	31698.12
575.16	31583.43
575.358	31292.62
575.556	31124.69
575.754	32036.03
575.952	31300.81
576.151	31876.29
576.349	31429.84
576.547	31106.26
576.745	31474.89
576.943	31380.68
577.141	30897.36
577.339	30962.9
577.537	30682.33
577.735	31534.28
577.933	30620.89
578.131	31149.26
578.329	30905.56
578.527	30311.64
578.725	30538.97
578.923	30772.44
579.121	30289.12
579.319	30313.69
579.516	30588.12
579.714	30629.08
579.912	30244.06
580.11	30291.16
580.308	30391.51
580.506	29836.52
580.704	29611.24
580.901	29648.1
581.099	30317.79
581.297	29662.44
581.495	29674.73
581.692	29902.05
581.89	29308.14
582.088	29730.02
582.285	29480.17
582.483	29371.63
582.681	29418.73
582.878	29312.24
583.076	28949.74
583.274	29324.52
583.471	28609.78
583.669	28830.96
583.866	29039.86
584.064	29009.14
584.262	28431.61
584.459	28894.45
584.657	28833.01
584.854	28753.14
585.052	28321.02
585.249	28427.51
585.447	28509.43
585.644	28425.46
585.841	28564.73
586.039	28312.83
586.236	28011.78
586.434	28044.54
586.631	27759.88
586.828	28159.23
587.026	27913.47
587.223	27813.12
587.42	27800.83
587.618	28013.82
587.815	27370.76
588.012	27589.89
588.21	27200.78
588.407	27618.57
588.604	27170.06
588.801	27018.51
588.999	27229.45
589.196	27221.26
589.393	27266.31
589.59	27229.45
589.787	26834.19
589.984	27059.47
590.182	26455.32
590.379	26920.21
590.576	26459.41
590.773	26879.25
590.97	26219.8
591.167	26664.21
591.364	26473.75
591.561	26246.43
591.758	26090.78
591.955	26078.49
592.152	26254.62
592.349	26070.3
592.546	26039.58
592.743	25998.62
592.94	25500.97
593.137	25994.53
593.334	25726.24
593.531	25402.66
593.727	25503.01
593.924	25599.27
594.121	25064.75
594.318	25161
594.515	24939.82
594.712	25562.4
594.908	25027.88
595.105	25208.11
595.302	24870.19
595.499	24870.19
595.696	24847.66
595.892	24816.94
596.089	24718.64
596.286	24706.35
596.482	24452.41
596.679	24896.81
596.876	24552.76
597.072	24382.77
597.269	24546.61
597.466	24104.25
597.662	23881.02
597.859	23956.8
598.055	24053.05
598.252	23930.17
598.448	23840.06
598.645	24044.86
598.841	23592.26
599.038	23612.74
599.234	23534.92
599.431	23309.64
599.627	23309.64
599.824	23366.98
600.02	23334.21
600.217	23358.79
600.413	23530.82
600.609	23000.4
600.806	22924.62
601.002	23063.88
601.198	23104.84
601.395	22689.1
601.591	22807.89
601.787	23065.93
601.984	22678.86
602.18	22736.21
602.376	22881.61
602.572	22351.19
602.769	22293.85
602.965	22029.66
603.161	22523.22
603.357	22584.66
603.553	22164.82
603.75	22226.26
603.946	22005.08
604.142	22080.86
604.338	21957.98
604.534	22019.42
604.73	21595.49
604.926	21532
605.122	21863.77
605.318	21470.56
605.514	21642.59
605.71	21593.44
605.906	21452.13
606.102	21445.99
606.298	21519.71
606.494	21398.88
606.69	21337.45
606.886	21353.83
607.082	21192.04
607.278	21079.4
607.474	20870.51
607.67	20956.52
607.866	20725.1
608.062	21149.03
608.257	20899.18
608.453	20991.34
608.649	21128.55
608.845	20768.11
609.041	20647.28
609.236	20739.44
609.432	20852.08
609.628	20675.95
609.824	20755.82
610.019	20364.66
610.215	20508.02
610.411	20542.83
610.606	20274.55
610.802	20751.73
610.998	20206.97
611.193	20413.81
611.389	20172.15
611.584	20172.15
611.78	20006.27
611.976	20151.67
612.171	20051.32
612.367	20094.33
612.562	20020.6
612.758	19848.57
612.953	19780.99
613.149	20055.42
613.344	19664.25
613.539	20094.33
613.735	19953.02
613.93	20186.49
614.126	19643.77
614.321	19914.11
614.517	19744.13
614.712	19604.86
614.907	19576.19
615.103	19746.17
615.298	19402.11
615.493	19864.96
615.688	19467.65
615.884	19785.08
616.079	19574.14
616.274	19293.57
616.47	19445.12
616.665	19488.13
616.86	19033.48
617.055	19361.16
617.25	19125.64
617.445	19297.67
617.641	18924.94
617.836	19318.15
618.031	18808.2
618.226	19074.44
618.421	18939.27
618.616	19099.02
618.811	18826.64
619.006	19023.24
619.201	18533.78
619.396	18673.04
619.591	18275.73
619.786	18460.05
619.981	18148.76
620.176	18591.12
620.371	18224.53
620.566	18169.24
620.761	18208.15
620.956	18083.22
621.151	18021.78
621.346	17964.44
621.541	17690.01
621.735	17995.16
621.93	17487.26
622.125	17579.42
622.32	17247.65
622.515	17485.22
622.709	17286.56
622.904	17216.93
623.099	17188.26
623.294	17239.46
623.488	17118.63
623.683	16891.3
623.878	16588.21
624.072	16788.91
624.267	16549.29
624.462	16551.34
624.656	16457.14
624.851	16541.1
625.046	16305.59
625.24	15951.29
625.435	16068.02
625.629	15857.08
625.824	16055.73
626.018	15893.94
626.213	15472.06
626.407	15781.31
626.602	15328.7
626.796	15500.73
626.991	15549.89
627.185	15306.18
627.38	15207.87
627.574	15125.96
627.768	15021.51
627.963	15160.77
628.157	14738.89
628.352	14859.72
628.546	14687.69
628.74	14798.28
628.935	14624.2
629.129	14632.4
629.323	14552.52
629.517	14155.22
629.712	14427.6
629.906	14421.45
630.1	13823.45
630.294	14396.88
630.489	14011.86
630.683	13956.57
630.877	13823.45
631.071	13628.89
631.265	13710.81
631.459	13764.06
631.653	13551.07
631.848	13606.36
632.042	13614.55
632.236	13352.41
632.43	13319.65
632.624	13313.5
632.818	13139.43
633.012	12957.16
633.206	12727.78
633.4	13098.47
633.594	12811.75
633.788	12879.33
633.982	12758.5
634.176	13057.51
634.369	12565.99
634.563	12848.61
634.757	12490.22
634.951	12731.88
635.145	12391.92
635.339	12439.02
635.533	12449.26
635.726	12396.01
635.92	12150.26
636.114	12170.74
636.308	12017.14
636.501	12228.08
636.695	11984.37
636.889	11924.98
637.083	11836.92
637.276	11646.46
637.47	11810.29
637.664	11640.31
637.857	11484.67
638.051	11568.63
638.244	11380.22
638.438	11462.14
638.632	11361.79
638.825	11361.79
639.019	11224.58
639.212	11261.44
639.406	11122.18
639.599	11062.79
639.793	11027.97
639.986	10933.76
640.18	10886.66
640.373	10872.32
640.567	10892.8
640.76	10661.38
640.954	10767.88
641.147	10606.09
641.34	10434.06
641.534	10485.26
641.727	10479.11
641.92	10495.5
642.114	10417.68
642.307	10436.11
642.5	10247.69
642.694	10135.06
642.887	10202.64
643.08	10276.37
643.273	10077.71
643.467	10163.73
643.66	9639.45
643.853	9766.42
644.046	9715.22
644.239	9694.74
644.432	9819.67
644.626	9512.47
644.819	9719.32
645.012	9633.3
645.205	9522.71
645.398	9508.38
645.591	9547.29
645.784	9451.03
645.977	9328.16
646.17	9336.35
646.363	9227.81
646.556	9115.17
646.749	9268.77
646.942	9098.78
647.135	9174.56
647.328	9109.02
647.521	9051.68
647.714	8932.9
647.907	8889.89
648.099	9014.82
648.292	8826.4
648.485	8699.43
648.678	8810.02
648.871	8754.73
649.064	8535.59
649.256	8527.4
649.449	8605.22
649.642	8431.15
649.835	8365.61
650.027	8498.73
650.22	8388.14
650.413	8263.21
650.605	8451.63
650.798	8277.55
650.991	8203.82
651.183	8263.21
651.376	8089.14
651.568	8123.95
651.761	7933.49
651.954	8162.86
652.146	7910.96
652.339	7867.95
652.531	7763.51
652.724	7783.99
652.916	7786.04
653.109	7771.7
653.301	7910.96
653.494	7616.05
653.686	7501.37
653.879	7614.01
654.071	7548.47
654.263	7347.77
654.456	7597.62
654.648	7376.44
654.84	7272
655.033	7435.83
655.225	7415.35
655.417	7218.75
655.61	7300.67
655.802	7349.82
655.994	7079.49
656.186	7280.19
656.379	6927.94
656.571	6964.8
656.763	6954.56
656.955	7034.43
657.148	6960.7
657.34	6962.75
657.532	6739.52
657.724	6729.28
657.916	6876.74
658.108	6686.28
658.3	6516.3
658.492	6856.26
658.684	6487.62
658.876	6557.25
659.068	6547.01
659.26	6475.34
659.452	6499.91
659.644	6491.72
659.836	6366.79
660.028	6514.25
660.22	6280.78
660.412	6334.03
660.604	6366.79
660.796	6317.64
660.988	6221.39
661.18	6010.45
661.372	6239.82
661.563	6233.68
661.755	6135.37
661.947	6059.6
662.139	6041.17
662.331	6118.99
662.522	5938.77
662.714	5975.63
662.906	5998.16
663.097	5787.22
663.289	5789.27
663.481	5822.03
663.673	5949.01
663.864	5830.23
664.056	5779.03
664.247	5688.92
664.439	5537.37
664.631	5650
664.822	5682.77
665.014	5443.16
665.205	5500.5
665.397	5516.89
665.588	5686.87
665.78	5394.01
665.971	5430.87
666.163	5260.89
666.354	5383.77
666.546	5477.98
666.737	5338.71
666.929	5385.82
667.12	5191.26
667.311	5174.88
667.503	5201.5
667.694	5400.15
667.885	5267.03
668.077	5256.79
668.268	5156.44
668.459	5207.64
668.651	5082.72
668.842	5115.48
669.033	4894.3
669.224	4845.15
669.416	4965.98
669.607	5035.61
669.798	4918.88
669.989	4929.12
670.18	4931.17
670.371	4763.23
670.563	4796
670.754	4902.5
670.945	4750.95
671.136	4863.58
671.327	4750.95
671.518	4607.59
671.709	4712.03
671.9	4669.03
672.091	4783.71
672.282	4548.2
672.473	4531.81
672.664	4484.71
672.855	4574.82
673.046	4560.49
673.237	4566.63
673.428	4544.1
673.619	4535.91
673.809	4511.33
674	4517.48
674.191	4531.81
674.382	4423.27
674.573	4427.37
674.764	4398.7
674.954	4406.89
675.145	4255.34
675.336	4284.01
675.527	4386.41
675.717	4286.06
675.908	4177.51
676.099	4341.35
676.289	4204.14
676.48	4214.38
676.671	4216.43
676.861	4169.32
677.052	4042.35
677.243	4118.12
677.433	4216.43
677.624	4068.97
677.814	4116.08
678.005	4101.74
678.195	4159.08
678.386	4107.88
678.576	4054.64
678.767	3946.09
678.957	4048.49
679.148	4036.21
679.338	4042.35
679.529	3864.18
679.719	3968.62
679.909	3982.96
680.1	3876.46
680.29	4056.68
680.481	3796.59
680.671	3833.46
680.861	3954.29
681.052	3827.31
681.242	3962.48
681.432	3784.3
681.622	3661.43
681.813	3845.74
682.003	3751.54
682.193	3597.94
682.383	3837.55
682.573	3636.85
682.764	3655.28
682.954	3579.51
683.144	3688.05
683.334	3614.32
683.524	3616.37
683.714	3694.19
683.904	3575.41
684.094	3692.15
684.284	3565.17
684.474	3673.71
684.664	3567.22
684.854	3489.4
685.044	3612.28
685.234	3520.12
685.424	3350.14
685.614	3409.53
685.804	3495.54
685.994	3397.24
686.184	3409.53
686.374	3438.2
686.564	3407.48
686.753	3178.11
686.943	3432.05
687.133	3229.31
687.323	3343.99
687.513	3370.62
687.702	3255.93
687.892	3343.99
688.082	3139.19
688.272	3268.22
688.461	3272.31
688.651	3202.68
688.841	3178.11
689.03	3169.91
689.22	3120.76
689.41	3204.73
689.599	3200.63
689.789	3034.75
689.979	3169.91
690.168	3145.34
690.358	3128.95
690.547	3100.28
690.737	3135.1
690.926	3077.76
691.116	2997.88
691.305	3077.76
691.495	2971.26
691.684	2875.01
691.874	2946.69
692.063	3051.13
692.252	2911.87
692.442	2940.54
692.631	2977.41
692.82	2793.09
693.01	2887.29
693.199	2803.33
693.388	2778.75
693.578	2788.99
693.767	2842.24
693.956	2633.35
694.146	2668.16
694.335	2735.74
694.524	2651.78
694.713	2825.86
694.902	2657.92
695.092	2578.05
695.281	2614.91
695.47	2645.63
695.659	2715.27
695.848	2576
696.037	2514.56
696.226	2571.91
696.415	2547.33
696.604	2645.63
696.793	2553.48
696.982	2666.11
697.171	2662.02
697.36	2559.62
697.549	2403.97
697.738	2524.8
697.927	2477.7
698.116	2489.99
698.305	2467.46
698.494	2313.86
698.683	2363.01
698.872	2520.71
699.061	2369.16
699.25	2514.56
699.438	2510.47
699.627	2272.9
699.816	2473.6
700.005	2365.06
700.193	2262.66
700.382	2393.73
700.571	2277
700.76	2324.1
700.948	2338.44
701.137	2324.1
701.326	2281.1
701.514	2219.66
701.703	2248.33
701.892	2330.25
702.08	2379.4
702.269	2317.96
702.457	2307.72
702.646	2186.89
702.834	2184.84
703.023	2141.83
703.212	2240.14
703.4	2129.55
703.589	2182.79
703.777	2117.26
703.965	2195.08
704.154	2152.07
704.342	2137.74
704.531	2182.79
704.719	2166.41
704.907	2233.99
705.096	1978
705.284	2143.88
705.472	2190.99
705.661	2166.41
705.849	2119.31
706.037	2096.78
706.226	2102.92
706.414	2012.81
706.602	2145.93
706.79	2059.92
706.979	2162.31
707.167	2010.76
707.355	2057.87
707.543	2018.96
707.731	2086.54
707.919	2066.06
708.107	1953.42
708.296	2023.05
708.484	1980.04
708.672	2090.63
708.86	2021
709.048	1967.76
709.236	2021
709.424	2018.96
709.612	1945.23
709.8	1965.71
709.988	2004.62
710.176	1992.33
710.364	1992.33
710.551	1877.65
710.739	1992.33
710.927	2070.16
711.115	1922.7
711.303	1912.46
711.491	1939.09
711.679	1871.5
711.866	1883.79
712.054	2035.34
712.242	1869.45
712.43	1949.32
712.617	1908.37
712.805	1877.65
712.993	1939.09
713.181	1836.69
713.368	1900.17
713.556	1879.69
713.744	1785.49
713.931	1885.84
714.119	1853.07
714.306	1990.28
714.494	1879.69
714.682	1969.8
714.869	1914.51
715.057	1859.21
715.244	1818.25
715.432	1797.78
715.619	1818.25
715.807	1908.37
715.994	1871.5
716.182	1812.11
716.369	1918.61
716.556	1924.75
716.744	1789.58
716.931	1799.82
717.119	1799.82
717.306	1754.77
717.493	1855.12
717.681	1812.11
717.868	1918.61
718.055	1883.79
718.242	1713.81
718.43	1855.12
718.617	1707.66
718.804	1734.29
718.991	1711.76
719.179	1726.1
719.366	1836.69
719.553	1922.7
719.74	1816.21
719.927	1851.02
720.114	1758.86
720.301	1851.02
720.488	1801.87
720.676	1767.06
720.863	1773.2
721.05	1771.15
721.237	1889.93
721.424	1728.14
721.611	1744.53
721.798	1666.71
721.985	1683.09
722.172	1683.09
722.358	1767.06
722.545	1744.53
722.732	1758.86
722.919	1762.96
723.106	1758.86
723.293	1767.06
723.48	1738.38
723.667	1697.42
723.853	1691.28
724.04	1808.02
724.227	1734.29
724.414	1728.14
724.6	1762.96
724.787	1758.86
724.974	1818.25
725.161	1746.58
725.347	1767.06
725.534	1734.29
725.72	1728.14
725.907	1756.82
726.094	1617.55
726.28	1724.05
726.467	1697.42
726.653	1605.27
726.84	1668.75
727.027	1891.98
727.213	1736.34
727.4	1676.95
727.586	1719.95
727.773	1783.44
727.959	1691.28
728.145	1642.13
728.332	1672.85
728.518	1732.24
728.705	1810.06
728.891	1635.99
729.077	1810.06
729.264	1646.23
729.45	1590.93
729.636	1783.44
729.823	1605.27
730.009	1750.67
730.195	1627.79
730.382	1619.6
730.568	1752.72
730.754	1654.42
730.94	1730.19
731.126	1685.14
731.313	1797.78
731.499	1793.68
731.685	1717.9
731.871	1740.43
732.057	1607.31
732.243	1654.42
732.429	1726.1
732.615	1719.95
732.801	1644.18
732.987	1654.42
733.173	1678.99
733.359	1683.09
733.545	1678.99
733.731	1652.37
733.917	1715.86
734.103	1625.75
734.289	1674.9
734.475	1668.75
734.661	1797.78
734.847	1705.62
735.033	1750.67
735.219	1588.88
735.404	1773.2
735.59	1617.55
735.776	1685.14
735.962	1642.13
736.148	1687.18
736.333	1693.33
736.519	1674.9
736.705	1654.42
736.89	1801.87
737.076	1654.42
737.262	1678.99
737.447	1701.52
737.633	1658.51
737.819	1701.52
738.004	1556.11
738.19	1717.9
738.375	1758.86
738.561	1744.53
738.747	1601.17
738.932	1633.94
739.118	1805.97
739.303	1666.71
739.489	1658.51
739.674	1564.31
739.859	1805.97
740.045	1668.75
740.23	1584.79
740.416	1504.92
740.601	1808.02
740.786	1627.79
740.972	1687.18
741.157	1498.77
741.342	1668.75
741.528	1595.03
741.713	1726.1
741.898	1629.84
742.084	1627.79
742.269	1711.76
742.454	1644.18
742.639	1740.43
742.824	1627.79
743.01	1676.95
743.195	1650.32
743.38	1525.4
743.565	1525.4
743.75	1558.16
743.935	1681.04
744.12	1711.76
744.305	1564.31
744.49	1595.03
744.675	1535.64
744.86	1441.43
745.045	1527.44
745.23	1597.07
745.415	1724.05
745.6	1564.31
745.785	1592.98
745.97	1539.73
746.155	1562.26
746.34	1484.44
746.525	1558.16
746.71	1590.93
746.895	1511.06
747.079	1541.78
747.264	1570.45
747.449	1543.83
747.634	1517.2
747.819	1513.11
748.003	1414.81
748.188	1476.24
748.373	1480.34
748.557	1502.87
748.742	1459.86
748.927	1431.19
749.111	1453.72
749.296	1480.34
749.481	1547.92
749.665	1431.19
749.85	1433.24
750.034	1459.86
750.219	1439.38
750.404	1447.57
750.588	1367.7
750.773	1435.28
750.957	1431.19
751.141	1359.51
751.326	1445.52
751.51	1334.93
751.695	1400.47
751.879	1345.17
752.064	1408.66
752.248	1433.24
752.432	1273.5
752.617	1425.04
752.801	1351.32
752.985	1349.27
753.17	1318.55
753.354	1341.08
753.538	1371.8
753.722	1310.36
753.907	1259.16
754.091	1244.82
754.275	1351.32
754.459	1224.34
754.643	1214.1
754.828	1273.5
755.012	1220.25
755.196	1228.44
755.38	1207.96
755.564	1226.39
755.748	1248.92
755.932	1253.02
756.116	1279.64
756.3	1257.11
756.484	1162.9
756.668	1191.58
756.852	1253.02
757.036	1160.86
757.22	1152.67
757.404	1066.65
757.588	1152.67
757.772	1226.39
757.956	1140.38
758.14	1144.47
758.323	1179.29
758.507	1134.23
758.691	1105.56
758.875	1109.66
759.059	1083.03
759.242	1062.55
759.426	1033.88
759.61	1105.56
759.794	1054.36
759.977	1062.55
760.161	1167
760.345	1117.85
760.528	1152.67
760.712	972.44
760.895	962.2
761.079	1037.98
761.263	992.92
761.446	999.07
761.63	1044.12
761.813	1023.64
761.997	1037.98
762.18	997.02
762.364	1009.31
762.547	1087.13
762.731	968.35
762.914	1035.93
763.098	937.63
763.281	1109.66
763.464	978.59
763.648	876.19
763.831	966.3
764.015	986.78
764.198	1044.12
764.381	978.59
764.564	970.4
764.748	949.92
764.931	1007.26
765.114	886.43
765.297	990.88
765.481	949.92
765.664	999.07
765.847	919.2
766.03	951.96
766.213	921.24
766.397	925.34
766.58	970.4
766.763	982.68
766.946	919.2
767.129	941.72
767.312	908.96
767.495	859.81
767.678	908.96
767.861	917.15
768.044	859.81
768.227	859.81
768.41	878.24
768.593	962.2
768.776	841.37
768.959	851.61
769.142	863.9
769.324	761.5
769.507	859.81
769.69	863.9
769.873	923.29
770.056	876.19
770.239	908.96
770.421	849.57
770.604	796.32
770.787	841.37
770.97	851.61
771.152	841.37
771.335	829.09
771.518	777.89
771.7	788.13
771.883	810.65
772.066	831.13
772.248	798.37
772.431	874.14
772.613	814.75
772.796	786.08
772.978	802.46
773.161	841.37
773.343	781.98
773.526	691.87
773.708	706.21
773.891	700.06
774.073	814.75
774.256	747.17
774.438	876.19
774.621	777.89
774.803	812.7
774.985	687.78
775.168	792.22
775.35	726.69
775.532	687.78
775.715	695.97
775.897	655.01
776.079	657.06
776.261	763.55
776.444	757.41
776.626	726.69
776.808	718.5
776.99	689.82
777.173	736.93
777.355	698.02
777.537	607.91
777.719	638.62
777.901	620.19
778.083	616.1
778.265	683.68
778.447	730.78
778.629	577.19
778.811	659.1
778.993	650.91
779.175	568.99
779.357	575.14
779.539	659.1
779.721	636.58
779.903	671.39
780.085	636.58
780.267	560.8
780.449	628.39
780.631	650.91
780.812	685.73
780.994	618.15
781.176	587.43
781.358	593.57
781.54	579.23
781.721	552.61
781.903	513.7
782.085	528.03
782.267	607.91
782.448	568.99
782.63	509.6
782.812	507.55
782.993	542.37
783.175	560.8
783.357	444.07
783.538	474.79
783.72	493.22
783.901	466.6
784.083	472.74
784.264	415.4
784.446	421.54
784.627	528.03
784.809	577.19
784.99	521.89
785.172	587.43
785.353	612
785.535	427.68
785.716	458.4
785.897	450.21
786.079	439.97
786.26	476.84
786.441	462.5
786.623	415.4
786.804	403.11
786.985	356.01
787.167	450.21
787.348	419.49
787.529	431.78
787.71	491.17
787.891	349.86
788.073	437.92
788.254	433.83
788.435	478.88
788.616	388.77
788.797	310.95
788.978	390.82
789.159	384.68
789.34	503.46
789.522	353.96
789.703	366.25
789.884	384.68
790.065	386.72
790.246	417.44
790.427	351.91
790.607	411.3
790.788	435.88
790.969	372.39
791.15	364.2
791.331	437.92
791.512	341.67
791.693	288.42
791.874	294.57
792.054	433.83
792.235	308.9
792.416	351.91
792.597	458.4
792.778	339.62
792.958	380.58
793.139	378.53
793.32	362.15
793.5	384.68
793.681	341.67
793.862	315.05
794.042	388.77
794.223	286.37
794.404	386.72
794.584	310.95
794.765	335.53
794.945	358.05
795.126	382.63
795.306	308.9
795.487	358.05
795.667	292.52
795.848	339.62
796.028	351.91
796.209	376.48
796.389	335.53
796.57	327.33
796.75	153.26
796.93	257.7
797.111	407.2
797.291	298.66
797.471	241.32
797.652	290.47
797.832	294.57
798.012	347.81
798.192	292.52
798.373	370.34
798.553	267.94
798.733	247.46
798.913	259.75
799.093	288.42
799.274	220.84
799.454	284.33
799.634	337.57
799.814	200.36
799.994	269.99
800.174	315.05
800.354	261.8
800.534	186.02
800.714	276.13
800.894	290.47
801.074	198.31
801.254	229.03
801.434	323.24
801.614	186.02
801.794	208.55
801.974	796.32
802.154	186.02
802.334	249.51
802.514	163.5
802.693	243.37
802.873	235.18
803.053	298.66
803.233	229.03
803.413	198.31
803.592	210.6
803.772	171.69
803.952	292.52
804.131	218.79
804.311	206.5
804.491	224.94
804.67	106.15
804.85	179.88
805.03	274.09
805.209	226.98
805.389	214.7
805.568	222.89
805.748	265.89
805.928	243.37
806.107	93.87
806.287	296.61
806.466	231.08
806.646	159.4
806.825	198.31
807.004	173.74
807.184	130.73
807.363	272.04
807.543	194.22
807.722	173.74
807.901	190.12
808.081	130.73
808.26	106.15
808.439	229.03
808.619	200.36
808.798	235.18
808.977	235.18
809.156	251.56
809.336	229.03
809.515	216.74
809.694	206.5
809.873	120.49
810.052	210.6
810.231	188.07
810.411	218.79
810.59	200.36
810.769	165.54
810.948	226.98
811.127	136.87
811.306	157.35
811.485	61.1
811.664	243.37
811.843	169.64
812.022	116.39
812.201	118.44
812.38	157.35
812.559	126.63
812.737	177.83
812.916	67.24
813.095	175.78
813.274	134.82
813.453	237.22
813.632	147.11
813.811	231.08
813.989	161.45
814.168	128.68
814.347	208.55
814.526	253.61
814.704	204.46
814.883	114.34
815.062	97.96
815.24	183.98
815.419	190.12
815.598	81.58
815.776	138.92
815.955	177.83
816.133	126.63
816.312	112.3
816.49	249.51
816.669	210.6
816.847	177.83
817.026	104.11
817.204	143.02
817.383	183.98
817.561	126.63
817.74	181.93
817.918	138.92
818.097	190.12
818.275	130.73
818.453	116.39
818.632	165.54
818.81	183.98
818.988	147.11
819.167	165.54
819.345	169.64
819.523	175.78
819.701	167.59
819.879	79.53
820.058	116.39
820.236	204.46
820.414	114.34
820.592	171.69
820.77	163.5
820.948	89.77
821.127	192.17
821.305	140.97
821.483	126.63
821.661	155.3
821.839	44.71
822.017	147.11
822.195	97.96
822.373	157.35
822.551	151.21
822.729	143.02
822.907	128.68
823.085	165.54
823.262	132.78
823.44	143.02
823.618	69.29
823.796	153.26
823.974	153.26
824.152	102.06
824.329	138.92
824.507	165.54
824.685	157.35
824.863	171.69
825.04	163.5
825.218	159.4
825.396	110.25
825.574	136.87
825.751	95.91
825.929	140.97
826.107	87.72
826.284	44.71
826.462	97.96
826.639	171.69
826.817	171.69
826.994	116.39
827.172	95.91
827.349	161.45
827.527	75.43
827.704	104.11
827.882	194.22
828.059	93.87
828.237	63.15
828.414	65.19
828.591	59.05
828.769	173.74
828.946	54.95
829.124	71.34
829.301	118.44
829.478	165.54
829.655	104.11
829.833	194.22
830.01	-2.39
830.187	112.3
830.364	128.68
830.542	140.97
830.719	124.58
830.896	126.63
831.073	104.11
831.25	126.63
831.427	95.91
831.604	89.77
831.782	44.71
831.959	122.54
832.136	54.95
832.313	100.01
832.49	69.29
832.667	91.82
832.844	69.29
833.021	108.2
833.198	59.05
833.374	95.91
833.551	48.81
833.728	36.52
833.905	97.96
834.082	48.81
834.259	132.78
834.436	145.06
834.612	106.15
834.789	110.25
834.966	93.87
835.143	145.06
835.319	67.24
835.496	75.43
835.673	132.78
835.85	95.91
836.026	159.4
836.203	116.39
836.38	38.57
836.556	126.63
836.733	95.91
836.909	169.64
837.086	52.91
837.262	61.1
837.439	-10.58
837.616	63.15
837.792	30.38
837.968	77.48
838.145	24.23
838.321	63.15
838.498	169.64
838.674	75.43
838.851	114.34
839.027	138.92
839.203	132.78
839.38	145.06
839.556	16.04
839.732	50.86
839.909	143.02
840.085	61.1
840.261	85.67
840.437	87.72
840.614	75.43
840.79	120.49
840.966	91.82
841.142	38.57
841.318	44.71
841.494	145.06
841.671	28.33
841.847	-2.39
842.023	140.97
842.199	13.99
842.375	85.67
842.551	-2.39
842.727	52.91
842.903	220.84
843.079	69.29
843.255	95.91
843.431	-6.49
843.607	95.91
843.783	52.91
843.959	54.95
844.134	-12.63
844.31	97.96
844.486	67.24
844.662	77.48
844.838	81.58
845.013	130.73
845.189	57
845.365	44.71
845.541	42.67
845.716	112.3
845.892	7.85
846.068	63.15
846.244	38.57
846.419	52.91
846.595	81.58
846.77	34.47
846.946	73.39
847.122	-2.39
847.297	87.72
847.473	100.01
847.648	16.04
847.824	77.48
847.999	38.57
848.175	116.39
848.35	69.29
848.526	140.97
848.701	124.58
848.876	132.78
849.052	40.62
849.227	52.91
849.403	63.15
849.578	108.2
849.753	63.15
849.929	83.63
850.104	77.48
850.279	71.34
850.454	50.86
850.63	89.77
850.805	13.99
850.98	-4.44
851.155	42.67
851.33	85.67
851.505	-6.49
851.681	167.59
851.856	102.06
852.031	122.54
852.206	122.54
852.381	-24.92
852.556	30.38
852.731	65.19
852.906	75.43
853.081	81.58
853.256	140.97
853.431	95.91
853.606	75.43
853.781	3.75
853.956	44.71
854.131	91.82
854.305	81.58
854.48	3.75
854.655	-2.39
854.83	46.76
855.005	124.58
855.18	-20.82
855.354	24.23
855.529	-8.53
855.704	46.76
855.879	100.01
856.053	20.14
856.228	50.86
856.403	44.71
856.577	79.53
856.752	42.67
856.926	54.95
857.101	46.76
857.276	1.71
857.45	-18.77
857.625	30.38
857.799	40.62
857.974	-18.77
858.148	-24.92
858.323	149.16
858.497	57
858.672	-18.77
858.846	-33.11
859.02	46.76
859.195	73.39
859.369	38.57
859.543	38.57
859.718	63.15
859.892	81.58
860.066	13.99
860.241	34.47
860.415	28.33
860.589	11.95
860.763	-22.87
860.938	59.05
861.112	104.11
861.286	69.29
861.46	-6.49
861.634	65.19
861.808	11.95
861.982	79.53
862.157	-35.16
862.331	-20.82
862.505	-4.44
862.679	28.33
862.853	28.33
863.027	32.43
863.201	75.43
863.375	-16.73
863.549	87.72
863.722	-4.44
863.896	116.39
864.07	61.1
864.244	-6.49
864.418	32.43
864.592	83.63
864.766	24.23
864.939	-8.53
865.113	-6.49
865.287	50.86
865.461	20.14
865.634	54.95
865.808	30.38
865.982	59.05
866.156	26.28
866.329	-59.73
866.503	-10.58
866.676	91.82
866.85	42.67
867.024	95.91
867.197	44.71
867.371	-4.44
867.544	44.71
867.718	114.34
867.891	97.96
868.065	61.1
868.238	30.38
868.412	-65.88
868.585	44.71
868.759	7.85
868.932	75.43
869.105	-37.2
869.279	-55.64
869.452	-31.06
869.625	75.43
869.799	97.96
869.972	13.99
870.145	5.8
870.319	34.47
870.492	54.95
870.665	-26.96
870.838	-24.92
871.011	1.71
871.185	3.75
871.358	36.52
871.531	83.63
871.704	36.52
871.877	97.96
872.05	-0.34
872.223	3.75
872.396	54.95
872.569	36.52
872.742	-10.58
872.915	97.96
873.088	-0.34
873.261	-43.35
873.434	16.04
873.607	52.91
873.78	30.38
873.953	-78.16
874.126	46.76
874.299	104.11
874.471	9.9
874.644	-6.49
874.817	11.95
874.99	71.34
875.163	11.95
875.335	40.62
875.508	61.1
875.681	46.76
875.853	24.23
876.026	16.04
876.199	1.71
876.371	28.33
876.544	32.43
876.717	-18.77
876.889	65.19
877.062	54.95
877.234	30.38
877.407	3.75
877.579	-4.44
877.752	48.81
877.924	59.05
878.097	52.91
878.269	81.58
878.442	3.75
878.614	71.34
878.786	75.43
878.959	42.67
879.131	75.43
879.303	-59.73
879.476	89.77
879.648	95.91
879.82	28.33
879.993	11.95
880.165	9.9
880.337	-35.16
880.509	24.23
880.681	1.71
880.854	5.8
881.026	1.71
881.198	-6.49
881.37	16.04
881.542	22.19
881.714	28.33
881.886	44.71
882.058	-26.96
882.23	3.75
882.402	71.34
882.574	32.43
882.746	79.53
882.918	54.95
883.09	34.47
883.262	46.76
883.434	59.05
883.606	16.04
883.778	1.71
883.95	46.76
884.122	57
884.293	18.09
884.465	-12.63
884.637	69.29
884.809	1.71
884.98	-2.39
885.152	-16.73
885.324	5.8
885.496	48.81
885.667	-29.01
885.839	-14.68
886.011	91.82
886.182	9.9
886.354	-10.58
886.525	75.43
886.697	36.52
886.869	42.67
887.04	-31.06
887.212	32.43
887.383	73.39
887.555	52.91
887.726	-18.77
887.897	44.71
888.069	112.3
888.24	-12.63
888.412	3.75
888.583	32.43
888.754	30.38
888.926	24.23
889.097	54.95
889.268	7.85
889.44	-18.77
889.611	-49.49
889.782	112.3
889.953	-8.53
890.125	89.77
890.296	24.23
890.467	36.52
890.638	-6.49
890.809	65.19
890.98	-18.77
891.151	104.11
891.323	24.23
891.494	-4.44
891.665	22.19
891.836	30.38
892.007	11.95
892.178	-37.2
892.349	30.38
892.52	16.04
892.691	22.19
892.862	13.99
893.032	18.09
893.203	-12.63
893.374	34.47
893.545	11.95
893.716	30.38
893.887	9.9
894.057	-8.53
894.228	38.57
894.399	-39.25
894.57	-4.44
894.74	54.95
894.911	79.53
895.082	71.34
895.253	32.43
895.423	38.57
895.594	48.81
895.764	34.47
895.935	-35.16
896.106	20.14
896.276	54.95
896.447	24.23
896.617	-14.68
896.788	18.09
896.958	-37.2
897.129	24.23
897.299	24.23
897.47	40.62
897.64	50.86
897.81	20.14
897.981	3.75
898.151	9.9
898.322	13.99
898.492	16.04
898.662	-4.44
898.832	-22.87
899.003	26.28
899.173	34.47
899.343	-4.44
899.513	-14.68
