Data from USB4F104151__51__12-41-44-001.txt Node

Date: Fri Mar 14 12:41:44 EDT 2025
User: louis
Spectrometer: USB4F10415
Trigger mode: 4
Integration Time (sec): 3.000000E-2
Scans to average: 1
Electric dark correction enabled: true
Nonlinearity correction enabled: false
Boxcar width: 0
XAxis mode: Wavelengths
Number of Pixels in Spectrum: 3648
>>>>>Begin Spectral Data<<<<<
178.204	-88.75
178.424	-88.75
178.644	-88.75
178.864	-131.75
179.084	-55.98
179.304	-35.5
179.524	-92.84
179.744	58.71
179.964	-29.35
180.184	-27.31
180.404	7.51
180.624	-29.35
180.844	1.37
181.064	-19.11
181.283	38.23
181.503	54.61
181.723	73.04
181.943	-101.03
182.163	46.42
182.383	-2.73
182.602	58.71
182.822	-10.92
183.042	3.41
183.262	27.99
183.482	21.85
183.701	-29.35
183.921	-68.27
184.141	27.99
184.361	77.14
184.58	48.47
184.8	9.56
185.02	11.61
185.239	75.09
185.459	81.24
185.679	103.76
185.898	-41.64
186.118	1.37
186.338	5.46
186.557	27.99
186.777	-55.98
186.997	25.94
187.216	25.94
187.436	54.61
187.655	142.68
187.875	56.66
188.095	11.61
188.314	11.61
188.534	44.37
188.753	105.81
188.973	44.37
189.192	66.9
189.412	11.61
189.631	25.94
189.851	1.37
190.07	132.44
190.29	-4.78
190.509	66.9
190.729	40.28
190.948	105.81
191.168	169.3
191.387	58.71
191.607	60.76
191.826	66.9
192.045	23.89
192.265	32.08
192.484	25.94
192.704	36.18
192.923	-4.78
193.142	73.04
193.362	11.61
193.581	62.8
193.8	-39.59
194.02	91.48
194.239	5.46
194.458	15.7
194.678	40.28
194.897	64.85
195.116	58.71
195.335	52.56
195.555	73.04
195.774	23.89
195.993	66.9
196.212	-33.45
196.432	-6.83
196.651	34.13
196.87	23.89
197.089	97.62
197.308	42.32
197.528	38.23
197.747	17.75
197.966	66.9
198.185	77.14
198.404	-10.92
198.623	46.42
198.842	44.37
199.062	93.52
199.281	89.43
199.5	19.8
199.719	15.7
199.938	50.52
200.157	48.47
200.376	83.28
200.595	34.13
200.814	-21.16
201.033	68.95
201.252	73.04
201.471	77.14
201.69	9.56
201.909	48.47
202.128	19.8
202.347	17.75
202.566	15.7
202.785	5.46
203.004	42.32
203.223	126.29
203.442	56.66
203.661	-37.55
203.879	13.65
204.098	73.04
204.317	1.37
204.536	64.85
204.755	103.76
204.974	15.7
205.193	-6.83
205.411	34.13
205.63	19.8
205.849	-8.87
206.068	11.61
206.287	56.66
206.505	66.9
206.724	-51.88
206.943	-76.46
207.162	11.61
207.381	38.23
207.599	21.85
207.818	73.04
208.037	-49.83
208.255	-4.78
208.474	52.56
208.693	-23.21
208.911	-39.59
209.13	15.7
209.349	-0.68
209.567	-35.5
209.786	52.56
210.005	77.14
210.223	42.32
210.442	-2.73
210.661	23.89
210.879	42.32
211.098	1.37
211.316	17.75
211.535	107.86
211.753	15.7
211.972	36.18
212.191	50.52
212.409	32.08
212.628	17.75
212.846	-15.02
213.065	77.14
213.283	101.72
213.502	34.13
213.72	60.76
213.938	34.13
214.157	-2.73
214.375	64.85
214.594	17.75
214.812	34.13
215.031	11.61
215.249	-23.21
215.467	9.56
215.686	64.85
215.904	62.8
216.122	91.48
216.341	62.8
216.559	60.76
216.778	50.52
216.996	62.8
217.214	9.56
217.432	-31.4
217.651	5.46
217.869	32.08
218.087	48.47
218.306	58.71
218.524	21.85
218.742	7.51
218.96	52.56
219.179	9.56
219.397	95.57
219.615	132.44
219.833	40.28
220.051	60.76
220.27	40.28
220.488	107.86
220.706	87.38
220.924	1.37
221.142	-58.03
221.36	89.43
221.578	54.61
221.796	48.47
222.015	60.76
222.233	-35.5
222.451	21.85
222.669	-8.87
222.887	21.85
223.105	9.56
223.323	-12.97
223.541	-2.73
223.759	42.32
223.977	-8.87
224.195	103.76
224.413	-33.45
224.631	30.04
224.849	-12.97
225.067	140.63
225.285	-15.02
225.503	30.04
225.721	-49.83
225.939	44.37
226.157	9.56
226.375	30.04
226.592	17.75
226.81	-12.97
227.028	58.71
227.246	62.8
227.464	11.61
227.682	1.37
227.9	32.08
228.117	81.24
228.335	3.41
228.553	17.75
228.771	46.42
228.989	130.39
229.206	48.47
229.424	79.19
229.642	13.65
229.86	-17.07
230.077	36.18
230.295	-6.83
230.513	1.37
230.731	30.04
230.948	38.23
231.166	60.76
231.384	-10.92
231.601	42.32
231.819	62.8
232.037	-15.02
232.254	-60.07
232.472	56.66
232.689	-66.22
232.907	64.85
233.125	40.28
233.342	-17.07
233.56	7.51
233.777	52.56
233.995	17.75
234.213	97.62
234.43	-2.73
234.648	25.94
234.865	46.42
235.083	85.33
235.3	30.04
235.518	21.85
235.735	109.91
235.953	109.91
236.17	3.41
236.388	1.37
236.605	17.75
236.822	60.76
237.04	54.61
237.257	40.28
237.475	-10.92
237.692	56.66
237.909	111.96
238.127	60.76
238.344	34.13
238.562	27.99
238.779	-23.21
238.996	11.61
239.214	56.66
239.431	-8.87
239.648	21.85
239.865	64.85
240.083	11.61
240.3	93.52
240.517	34.13
240.735	-6.83
240.952	56.66
241.169	101.72
241.386	46.42
241.603	60.76
241.821	-37.55
242.038	132.44
242.255	97.62
242.472	-47.79
242.689	-37.55
242.907	103.76
243.124	99.67
243.341	5.46
243.558	11.61
243.775	40.28
243.992	44.37
244.209	85.33
244.426	126.29
244.643	34.13
244.86	17.75
245.078	1.37
245.295	71
245.512	99.67
245.729	-4.78
245.946	85.33
246.163	95.57
246.38	-29.35
246.597	-33.45
246.814	32.08
247.031	56.66
247.248	27.99
247.464	19.8
247.681	-25.26
247.898	-29.35
248.115	40.28
248.332	73.04
248.549	40.28
248.766	103.76
248.983	19.8
249.2	7.51
249.417	54.61
249.633	-10.92
249.85	42.32
250.067	38.23
250.284	17.75
250.501	40.28
250.717	-0.68
250.934	40.28
251.151	52.56
251.368	-4.78
251.585	-49.83
251.801	17.75
252.018	-55.98
252.235	77.14
252.451	48.47
252.668	-35.5
252.885	17.75
253.102	138.58
253.318	64.85
253.535	-2.73
253.752	-29.35
253.968	93.52
254.185	-66.22
254.401	-74.41
254.618	50.52
254.835	19.8
255.051	23.89
255.268	83.28
255.484	17.75
255.701	75.09
255.917	118.1
256.134	-74.41
256.351	54.61
256.567	-55.98
256.784	79.19
257	58.71
257.217	111.96
257.433	50.52
257.65	68.95
257.866	40.28
258.082	42.32
258.299	-49.83
258.515	3.41
258.732	-4.78
258.948	66.9
259.165	25.94
259.381	25.94
259.597	15.7
259.814	40.28
260.03	54.61
260.246	13.65
260.463	62.8
260.679	-8.87
260.895	-19.11
261.112	99.67
261.328	23.89
261.544	60.76
261.761	118.1
261.977	44.37
262.193	25.94
262.409	71
262.626	-12.97
262.842	62.8
263.058	36.18
263.274	81.24
263.49	56.66
263.707	138.58
263.923	58.71
264.139	19.8
264.355	7.51
264.571	120.15
264.787	50.52
265.004	34.13
265.22	-12.97
265.436	64.85
265.652	42.32
265.868	30.04
266.084	-4.78
266.3	-0.68
266.516	-98.99
266.732	32.08
266.948	3.41
267.164	3.41
267.38	40.28
267.596	105.81
267.812	101.72
268.028	-10.92
268.244	5.46
268.46	-6.83
268.676	42.32
268.892	30.04
269.108	21.85
269.324	91.48
269.54	-0.68
269.756	48.47
269.972	3.41
270.188	21.85
270.403	9.56
270.619	34.13
270.835	30.04
271.051	21.85
271.267	-27.31
271.483	122.2
271.698	23.89
271.914	19.8
272.13	-23.21
272.346	19.8
272.562	-39.59
272.777	42.32
272.993	19.8
273.209	9.56
273.425	87.38
273.64	-31.4
273.856	111.96
274.072	42.32
274.287	-47.79
274.503	91.48
274.719	1.37
274.934	62.8
275.15	-41.64
275.366	5.46
275.581	-29.35
275.797	95.57
276.012	13.65
276.228	52.56
276.444	-6.83
276.659	95.57
276.875	73.04
277.09	17.75
277.306	19.8
277.521	85.33
277.737	42.32
277.952	23.89
278.168	95.57
278.383	81.24
278.599	-43.69
278.814	66.9
279.03	-29.35
279.245	58.71
279.461	40.28
279.676	46.42
279.892	21.85
280.107	19.8
280.322	15.7
280.538	132.44
280.753	1.37
280.969	130.39
281.184	36.18
281.399	91.48
281.615	58.71
281.83	83.28
282.045	-12.97
282.26	23.89
282.476	19.8
282.691	17.75
282.906	19.8
283.122	-21.16
283.337	50.52
283.552	34.13
283.767	7.51
283.983	54.61
284.198	19.8
284.413	9.56
284.628	52.56
284.843	128.34
285.058	79.19
285.274	75.09
285.489	19.8
285.704	48.47
285.919	25.94
286.134	-27.31
286.349	36.18
286.564	62.8
286.779	46.42
286.995	54.61
287.21	44.37
287.425	60.76
287.64	21.85
287.855	19.8
288.07	-15.02
288.285	75.09
288.5	-21.16
288.715	54.61
288.93	56.66
289.145	-21.16
289.36	34.13
289.575	48.47
289.79	111.96
290.004	-53.93
290.219	27.99
290.434	-29.35
290.649	3.41
290.864	38.23
291.079	-29.35
291.294	7.51
291.509	-43.69
291.724	77.14
291.938	64.85
292.153	44.37
292.368	7.51
292.583	93.52
292.798	42.32
293.012	75.09
293.227	3.41
293.442	17.75
293.657	46.42
293.871	97.62
294.086	21.85
294.301	107.86
294.516	42.32
294.73	-37.55
294.945	-19.11
295.16	15.7
295.374	56.66
295.589	58.71
295.804	-15.02
296.018	-25.26
296.233	71
296.447	38.23
296.662	-12.97
296.877	73.04
297.091	-4.78
297.306	66.9
297.52	-23.21
297.735	91.48
297.949	34.13
298.164	23.89
298.378	52.56
298.593	1.37
298.807	95.57
299.022	44.37
299.236	79.19
299.451	46.42
299.665	36.18
299.88	91.48
300.094	1.37
300.309	66.9
300.523	60.76
300.737	-17.07
300.952	-31.4
301.166	95.57
301.381	36.18
301.595	64.85
301.809	19.8
302.024	42.32
302.238	44.37
302.452	107.86
302.667	50.52
302.881	3.41
303.095	60.76
303.309	89.43
303.524	-21.16
303.738	60.76
303.952	48.47
304.166	56.66
304.381	1.37
304.595	77.14
304.809	62.8
305.023	32.08
305.237	1.37
305.452	19.8
305.666	77.14
305.88	54.61
306.094	-2.73
306.308	42.32
306.522	159.06
306.736	-0.68
306.95	66.9
307.164	77.14
307.379	68.95
307.593	163.15
307.807	79.19
308.021	27.99
308.235	52.56
308.449	-10.92
308.663	75.09
308.877	109.91
309.091	40.28
309.305	44.37
309.519	-64.17
309.733	75.09
309.947	5.46
310.161	36.18
310.374	95.57
310.588	93.52
310.802	27.99
311.016	62.8
311.23	27.99
311.444	66.9
311.658	44.37
311.872	87.38
312.085	50.52
312.299	95.57
312.513	21.85
312.727	62.8
312.941	36.18
313.154	-2.73
313.368	-41.64
313.582	-2.73
313.796	83.28
314.009	44.37
314.223	9.56
314.437	62.8
314.651	3.41
314.864	21.85
315.078	-25.26
315.292	30.04
315.505	46.42
315.719	150.87
315.933	5.46
316.146	15.7
316.36	58.71
316.573	124.24
316.787	99.67
317.001	-39.59
317.214	25.94
317.428	30.04
317.641	9.56
317.855	71
318.068	-6.83
318.282	128.34
318.495	103.76
318.709	130.39
318.922	52.56
319.136	46.42
319.349	7.51
319.563	17.75
319.776	-21.16
319.99	-15.02
320.203	50.52
320.417	-6.83
320.63	79.19
320.843	50.52
321.057	68.95
321.27	-2.73
321.483	62.8
321.697	130.39
321.91	83.28
322.124	5.46
322.337	9.56
322.55	-8.87
322.763	118.1
322.977	1.37
323.19	34.13
323.403	36.18
323.617	-6.83
323.83	73.04
324.043	15.7
324.256	66.9
324.469	-33.45
324.683	52.56
324.896	-15.02
325.109	15.7
325.322	-37.55
325.535	66.9
325.748	-19.11
325.962	30.04
326.175	103.76
326.388	34.13
326.601	136.53
326.814	81.24
327.027	52.56
327.24	79.19
327.453	-25.26
327.666	56.66
327.879	50.52
328.092	1.37
328.305	71
328.518	-41.64
328.731	13.65
328.944	114
329.157	34.13
329.37	83.28
329.583	73.04
329.796	89.43
330.009	1.37
330.222	122.2
330.435	-6.83
330.648	-29.35
330.861	32.08
331.073	32.08
331.286	1.37
331.499	19.8
331.712	21.85
331.925	48.47
332.138	42.32
332.35	34.13
332.563	30.04
332.776	66.9
332.989	46.42
333.202	-8.87
333.414	17.75
333.627	120.15
333.84	-17.07
334.053	75.09
334.265	-29.35
334.478	-68.27
334.691	73.04
334.903	27.99
335.116	-27.31
335.329	58.71
335.541	-55.98
335.754	134.48
335.966	54.61
336.179	77.14
336.392	36.18
336.604	21.85
336.817	44.37
337.029	5.46
337.242	19.8
337.454	30.04
337.667	42.32
337.88	-0.68
338.092	-31.4
338.305	44.37
338.517	77.14
338.729	-31.4
338.942	73.04
339.154	58.71
339.367	-33.45
339.579	75.09
339.792	-6.83
340.004	-15.02
340.217	48.47
340.429	83.28
340.641	81.24
340.854	25.94
341.066	-17.07
341.278	38.23
341.491	27.99
341.703	23.89
341.915	40.28
342.128	19.8
342.34	95.57
342.552	58.71
342.764	11.61
342.977	27.99
343.189	27.99
343.401	-4.78
343.613	38.23
343.826	73.04
344.038	11.61
344.25	56.66
344.462	-2.73
344.674	11.61
344.886	50.52
345.099	48.47
345.311	89.43
345.523	68.95
345.735	-29.35
345.947	56.66
346.159	36.18
346.371	71
346.583	19.8
346.795	42.32
347.007	54.61
347.219	11.61
347.431	40.28
347.643	52.56
347.855	81.24
348.067	48.47
348.279	54.61
348.491	25.94
348.703	42.32
348.915	36.18
349.127	-27.31
349.339	56.66
349.551	-15.02
349.763	27.99
349.975	-74.41
350.187	56.66
350.399	52.56
350.61	107.86
350.822	103.76
351.034	32.08
351.246	101.72
351.458	-2.73
351.669	93.52
351.881	109.91
352.093	5.46
352.305	68.95
352.517	3.41
352.728	126.29
352.94	73.04
353.152	25.94
353.363	19.8
353.575	56.66
353.787	23.89
353.999	73.04
354.21	130.39
354.422	27.99
354.633	68.95
354.845	62.8
355.057	142.68
355.268	75.09
355.48	73.04
355.692	75.09
355.903	27.99
356.115	81.24
356.326	-41.64
356.538	68.95
356.749	21.85
356.961	27.99
357.172	62.8
357.384	56.66
357.595	85.33
357.807	77.14
358.018	54.61
358.23	36.18
358.441	134.48
358.653	81.24
358.864	97.62
359.075	-0.68
359.287	21.85
359.498	-2.73
359.709	126.29
359.921	40.28
360.132	52.56
360.344	97.62
360.555	-10.92
360.766	-31.4
360.977	13.65
361.189	32.08
361.4	15.7
361.611	40.28
361.823	7.51
362.034	17.75
362.245	15.7
362.456	-23.21
362.667	79.19
362.879	44.37
363.09	-31.4
363.301	62.8
363.512	60.76
363.723	36.18
363.935	3.41
364.146	150.87
364.357	77.14
364.568	13.65
364.779	5.46
364.99	58.71
365.201	9.56
365.412	128.34
365.623	-21.16
365.834	21.85
366.045	13.65
366.256	62.8
366.467	48.47
366.678	60.76
366.889	9.56
367.1	17.75
367.311	36.18
367.522	87.38
367.733	58.71
367.944	44.37
368.155	103.76
368.366	71
368.577	-8.87
368.788	159.06
368.999	11.61
369.209	50.52
369.42	154.96
369.631	134.48
369.842	21.85
370.053	128.34
370.264	103.76
370.474	9.56
370.685	30.04
370.896	54.61
371.107	58.71
371.317	56.66
371.528	-47.79
371.739	105.81
371.95	107.86
372.16	79.19
372.371	60.76
372.582	-2.73
372.792	50.52
373.003	11.61
373.214	54.61
373.424	50.52
373.635	13.65
373.846	97.62
374.056	52.56
374.267	36.18
374.477	89.43
374.688	44.37
374.898	42.32
375.109	91.48
375.319	77.14
375.53	32.08
375.74	114
375.951	30.04
376.161	91.48
376.372	138.58
376.582	50.52
376.793	91.48
377.003	42.32
377.214	36.18
377.424	58.71
377.635	97.62
377.845	21.85
378.055	91.48
378.266	36.18
378.476	36.18
378.686	52.56
378.897	118.1
379.107	40.28
379.317	71
379.528	27.99
379.738	89.43
379.948	66.9
380.158	64.85
380.369	93.52
380.579	95.57
380.789	-27.31
380.999	58.71
381.21	75.09
381.42	97.62
381.63	23.89
381.84	101.72
382.05	-2.73
382.261	60.76
382.471	13.65
382.681	27.99
382.891	48.47
383.101	122.2
383.311	25.94
383.521	13.65
383.731	-2.73
383.941	126.29
384.151	36.18
384.361	11.61
384.571	-19.11
384.781	114
384.991	60.76
385.201	56.66
385.411	116.05
385.621	81.24
385.831	52.56
386.041	3.41
386.251	48.47
386.461	85.33
386.671	79.19
386.881	107.86
387.091	77.14
387.301	130.39
387.511	1.37
387.72	1.37
387.93	23.89
388.14	30.04
388.35	75.09
388.56	75.09
388.769	64.85
388.979	79.19
389.189	5.46
389.399	34.13
389.609	52.56
389.818	138.58
390.028	40.28
390.238	83.28
390.447	-29.35
390.657	138.58
390.867	38.23
391.076	-49.83
391.286	105.81
391.496	42.32
391.705	79.19
391.915	111.96
392.125	122.2
392.334	46.42
392.544	140.63
392.753	44.37
392.963	56.66
393.172	142.68
393.382	68.95
393.591	64.85
393.801	-17.07
394.01	159.06
394.22	36.18
394.429	44.37
394.639	44.37
394.848	36.18
395.058	60.76
395.267	83.28
395.477	56.66
395.686	89.43
395.895	89.43
396.105	169.3
396.314	130.39
396.524	126.29
396.733	73.04
396.942	124.24
397.152	52.56
397.361	161.11
397.57	66.9
397.78	83.28
397.989	116.05
398.198	224.59
398.407	42.32
398.617	38.23
398.826	66.9
399.035	109.91
399.244	142.68
399.453	56.66
399.663	89.43
399.872	173.39
400.081	138.58
400.29	134.48
400.499	95.57
400.708	138.58
400.917	32.08
401.127	62.8
401.336	148.82
401.545	105.81
401.754	124.24
401.963	77.14
402.172	111.96
402.381	66.9
402.59	56.66
402.799	77.14
403.008	132.44
403.217	116.05
403.426	124.24
403.635	107.86
403.844	134.48
404.053	136.53
404.262	167.25
404.471	161.11
404.68	142.68
404.888	216.4
405.097	64.85
405.306	179.54
405.515	224.59
405.724	202.07
405.933	202.07
406.142	114
406.35	251.22
406.559	206.16
406.768	165.2
406.977	218.45
407.185	220.5
407.394	218.45
407.603	245.07
407.812	277.84
408.02	322.9
408.229	243.03
408.438	263.51
408.646	183.63
408.855	181.59
409.064	300.37
409.272	216.4
409.481	296.27
409.69	292.18
409.898	261.46
410.107	320.85
410.315	331.09
410.524	306.51
410.733	283.99
410.941	251.22
411.15	349.52
411.358	396.62
411.567	400.72
411.775	318.8
411.984	374.1
412.192	513.36
412.401	400.72
412.609	582.99
412.818	537.93
413.026	515.41
413.234	580.94
413.443	531.79
413.651	601.42
413.86	652.62
414.068	605.52
414.276	679.24
414.485	531.79
414.693	644.43
414.901	695.63
415.11	769.35
415.318	728.39
415.526	697.67
415.734	859.46
415.943	808.27
416.151	933.19
416.359	884.04
416.567	894.28
416.776	957.77
416.984	955.72
417.192	941.38
417.4	1015.11
417.608	1017.16
417.817	976.2
418.025	1111.36
418.233	1047.88
418.441	1217.86
418.649	1211.71
418.857	1281.35
419.065	1303.87
419.273	1322.31
419.481	1305.92
419.689	1475.9
419.897	1500.48
420.105	1559.87
420.313	1600.83
420.521	1701.18
420.729	1711.42
420.937	1688.89
421.145	1838.39
421.353	1928.5
421.561	1965.37
421.769	2020.66
421.977	2071.86
422.185	2086.2
422.393	2209.08
422.601	2204.98
422.809	2397.49
423.017	2356.53
423.224	2448.69
423.432	2561.33
423.64	2534.7
423.848	2884.91
424.056	2776.36
424.263	2882.86
424.471	2882.86
424.679	3003.69
424.887	3145
425.094	3241.25
425.302	3288.36
425.51	3290.4
425.718	3495.2
425.925	3560.73
426.133	3763.48
426.341	3931.42
426.548	4072.73
426.756	3958.04
426.964	4039.96
427.171	4373.78
427.379	4431.12
427.586	4392.21
427.794	4719.89
428.001	4930.83
428.209	4910.35
428.417	5020.94
428.624	5393.67
428.832	5354.76
429.039	5219.59
429.247	5311.75
429.454	5848.32
429.662	6141.18
429.869	5774.59
430.076	6171.9
430.284	6175.99
430.491	6405.36
430.699	6640.88
430.906	6794.48
431.114	6759.66
431.321	6866.16
431.528	7204.07
431.736	7537.89
431.943	7970.01
432.15	7863.52
432.358	7881.95
432.565	8072.41
432.772	8273.11
432.979	8824.01
433.187	8803.53
433.394	8742.1
433.601	9594.05
433.808	9516.23
434.016	9442.5
434.223	9807.04
434.43	10380.47
434.637	10298.55
434.844	10818.74
435.052	11173.03
435.259	10910.89
435.466	10986.67
435.673	10810.54
435.88	11795.62
436.087	12338.33
436.294	12256.41
436.501	12125.34
436.708	12096.67
436.915	12649.62
437.122	13356.17
437.329	13345.93
437.537	13591.69
437.743	13839.49
437.95	13913.22
438.157	14400.63
438.364	14920.82
438.571	14916.72
438.778	15109.23
438.985	16274.53
439.192	15789.16
439.399	16221.28
439.606	16014.43
439.813	16974.93
440.02	17982.53
440.227	17355.85
440.433	17351.76
440.64	17949.76
440.847	17910.85
441.054	18072.64
441.261	19379.25
441.467	19170.35
441.674	19541.04
441.881	20151.33
442.088	20546.59
442.294	20212.77
442.501	20679.71
442.708	21015.57
442.914	21783.56
443.121	22858.74
443.328	22045.7
443.534	23819.24
443.741	23036.92
443.948	22598.65
444.154	24431.58
444.361	24443.87
444.568	24656.86
444.774	24566.75
444.981	24656.86
445.187	25592.78
445.394	26684.35
445.6	25908.17
445.807	28691.36
446.013	27511.73
446.22	28089.26
446.426	29031.32
446.633	29363.09
446.839	30491.52
447.046	29254.55
447.252	30630.79
447.459	30753.66
447.665	30491.52
447.871	31759.22
448.078	33305.43
448.284	31746.93
448.491	33282.91
448.697	33794.9
448.903	34431.82
449.11	34632.52
449.316	34116.43
449.522	34511.69
449.728	35445.56
449.935	35783.48
450.141	35855.15
450.347	36410.15
450.553	35703.6
450.76	35978.03
450.966	36973.35
451.172	36692.77
451.378	37702.42
451.584	36866.85
451.791	37604.12
451.997	37612.31
452.203	38730.5
452.409	38476.55
452.615	38179.6
452.821	37077.79
453.027	36617
453.233	38675.21
453.44	36918.05
453.646	37186.33
453.852	37364.51
454.058	38093.58
454.264	36760.36
454.47	38060.82
454.676	36608.81
454.882	38036.24
455.088	34892.61
455.294	35248.96
455.5	35932.98
455.705	35975.98
455.911	34597.7
456.117	33821.52
456.323	33977.17
456.529	31480.69
456.735	33194.84
456.941	32473.96
457.147	31857.52
457.352	30524.29
457.558	30518.15
457.764	30469
457.97	30051.21
458.176	29631.38
458.381	29457.3
458.587	28009.39
458.793	27886.51
458.999	26778.56
459.204	28269.48
459.41	27577.26
459.616	25811.92
459.821	26055.62
460.027	25648.08
460.233	25015.26
460.438	23897.06
460.644	24210.4
460.85	23038.97
461.055	22959.1
461.261	22815.74
461.466	20874.26
461.672	20405.28
461.878	21810.18
462.083	20214.82
462.289	19776.55
462.494	19840.04
462.7	18967.6
462.905	18353.21
463.111	18885.69
463.316	19213.36
463.522	18828.34
463.727	18594.87
463.932	18701.37
464.138	18523.19
464.343	18580.54
464.549	17777.73
464.754	18592.83
464.959	18299.97
465.165	18383.93
465.37	17628.23
465.575	17235.02
465.781	17718.34
465.986	18334.78
466.191	17235.02
466.397	16917.59
466.602	15963.23
466.807	16882.77
467.012	16835.67
467.218	16798.81
467.423	16174.17
467.628	16387.16
467.833	17251.41
468.038	16700.5
468.244	16065.63
468.449	16610.39
468.654	16190.56
468.859	15977.57
469.064	15897.7
469.269	15279.21
469.474	15488.1
469.679	15668.33
469.885	15158.38
470.09	15541.35
470.295	15602.79
470.5	14892.15
470.705	15125.61
470.91	14703.73
471.115	14662.77
471.32	14828.66
471.525	14705.78
471.73	14294.14
471.935	14498.94
472.139	13831.3
472.344	14148.73
472.549	13984.9
472.754	14042.24
472.959	13352.07
473.164	13372.55
473.369	13122.7
473.574	13452.42
473.778	13313.16
473.983	13030.54
474.188	13239.44
474.393	12567.7
474.598	12661.91
474.802	12573.85
475.007	12534.93
475.212	12657.81
475.417	11938.98
475.621	12108.96
475.826	12078.24
476.031	11687.08
476.235	11807.91
476.44	12045.47
476.645	11513
476.849	11541.67
477.054	11453.61
477.259	11265.19
477.463	11416.74
477.668	10826.93
477.872	11119.79
478.077	10968.24
478.282	10564.79
478.486	10572.98
478.691	10667.19
478.895	10292.41
479.1	10495.16
479.304	10476.73
479.509	10353.85
479.713	10507.44
479.918	10108.09
480.122	9714.88
480.326	10024.12
480.531	9981.12
480.735	9895.1
480.94	9848
481.144	10067.13
481.348	9616.58
481.553	9794.75
481.757	9544.9
481.961	9759.94
482.166	9831.62
482.37	9661.63
482.574	9667.78
482.778	9555.14
482.983	9772.22
483.187	9735.36
483.391	9712.83
483.595	9596.1
483.8	9680.07
484.004	9569.48
484.208	9462.98
484.412	9538.76
484.616	9891.01
484.821	9510.08
485.025	9536.71
485.229	9714.88
485.433	9477.32
485.637	9856.19
485.841	9639.11
486.045	9553.09
486.249	9438.41
486.453	9755.84
486.657	9622.72
486.861	9741.5
487.065	9327.82
487.269	9589.95
487.473	9356.49
487.677	9741.5
487.881	9620.67
488.085	9606.34
488.289	9643.2
488.493	9643.2
488.697	9829.57
488.901	9813.18
489.105	9620.67
489.309	9665.73
489.512	9690.31
489.716	9874.62
489.92	9821.38
490.124	9612.48
490.328	10048.7
490.531	9821.38
490.735	9784.51
490.939	10009.79
491.143	10122.43
491.346	9817.28
491.55	10075.32
491.754	9952.45
491.958	9962.69
492.161	10069.18
492.365	10130.62
492.569	9972.93
492.772	10273.98
492.976	10185.91
493.18	10147
493.383	10458.29
493.587	10417.33
493.79	10562.74
493.994	10427.57
494.197	10722.48
494.401	10661.04
494.605	10640.56
494.808	10833.07
495.012	10855.6
495.215	10960.05
495.419	11064.49
495.622	10861.74
495.825	11119.79
496.029	11056.3
496.232	11390.12
496.436	11226.28
496.639	11453.61
496.843	11406.5
497.046	11746.47
497.249	11836.58
497.453	11943.07
497.656	11879.58
497.859	11855.01
498.063	12068
498.266	12483.73
498.469	12307.61
498.673	12358.81
498.876	12469.4
499.079	12768.4
499.282	12719.25
499.485	12991.63
499.689	13106.32
499.892	13319.31
500.095	13360.27
500.298	13665.41
500.501	13669.51
500.705	14085.25
500.908	14019.71
501.111	14148.73
501.314	14433.4
501.517	14290.04
501.72	14359.67
501.923	14568.57
502.126	14869.62
502.329	15273.07
502.532	15416.43
502.735	15199.34
502.938	15565.93
503.141	15762.53
503.344	15701.09
503.547	15821.92
503.75	16051.3
503.953	16262.24
504.156	16424.03
504.359	16602.2
504.562	16647.26
504.765	17116.24
504.968	17212.49
505.17	17232.97
505.373	17775.69
505.576	18007.11
505.779	17990.72
505.982	17865.8
506.185	18373.69
506.387	18533.43
506.59	18453.56
506.793	18873.4
506.996	18586.68
507.198	19188.78
507.401	19018.8
507.604	19538.99
507.807	19786.79
508.009	19928.1
508.212	20005.92
508.415	20198.43
508.617	20610.07
508.82	20829.21
509.022	20575.26
509.225	21046.29
509.428	21365.78
509.63	21113.88
509.833	21580.81
510.035	21963.78
510.238	21859.34
510.44	22129.67
510.643	22363.14
510.845	22574.08
511.048	22563.84
511.25	22750.2
511.453	22983.67
511.655	23852.01
511.858	23493.61
512.06	23604.21
512.262	23938.02
512.465	23919.59
512.667	24251.36
512.87	24398.82
513.072	24734.68
513.274	25252.82
513.477	25463.76
513.679	25461.71
513.881	25586.64
514.084	25740.24
514.286	25897.93
514.488	26127.3
514.69	26710.97
514.893	26704.83
515.095	26780.6
515.297	26938.3
515.499	26934.2
515.701	27487.15
515.904	27679.66
516.106	27909.04
516.308	28091.3
516.51	28173.22
516.712	28484.51
516.914	28801.95
517.116	29184.92
517.318	29451.16
517.52	29141.91
517.722	29508.5
517.925	29911.95
518.127	30356.36
518.329	30208.9
518.531	30294.92
518.733	30671.75
518.935	31015.8
519.136	30854.01
519.338	31744.88
519.54	31499.12
519.742	32054.12
519.944	31947.63
520.146	32441.19
520.348	32580.45
520.55	32484.2
520.752	32703.33
520.954	33024.86
521.155	32932.7
521.357	33432.41
521.559	33807.19
521.761	34188.11
521.963	34155.34
522.164	34130.76
522.366	34374.47
522.568	34368.33
522.77	34583.37
522.971	35461.94
523.173	35117.89
523.375	35113.79
523.576	35517.24
523.778	35410.74
523.98	35740.47
524.181	36143.92
524.383	36051.76
524.584	36412.2
524.786	36356.91
524.988	36105.01
525.189	36694.82
525.391	36750.12
525.592	36938.53
525.794	36715.3
525.995	37108.51
526.197	37337.88
526.398	37450.52
526.6	37716.76
526.801	37821.2
527.003	37839.64
527.204	37624.6
527.406	38183.69
527.607	38157.07
527.808	38306.57
528.01	37706.52
528.211	38304.52
528.412	38755.08
528.614	38736.65
528.815	38558.47
529.016	38789.89
529.218	38609.67
529.419	38621.96
529.62	38771.46
529.822	38892.29
530.023	39017.22
530.224	39070.47
530.425	39211.78
530.626	38736.65
530.828	38800.13
531.029	39557.88
531.23	38843.14
531.431	39226.11
531.632	39381.76
531.833	39207.68
532.035	39523.07
532.236	39035.65
532.437	39656.18
532.638	38863.62
532.839	39412.48
533.04	39406.33
533.241	39090.94
533.442	39879.41
533.643	39406.33
533.844	39435
534.045	39131.9
534.246	39267.07
534.447	39682.81
534.648	39463.68
534.849	39410.43
535.05	39369.47
535.251	39201.54
535.451	39136
535.652	39371.52
535.853	39310.08
536.054	39705.34
536.255	39680.76
536.456	38931.2
536.657	40012.53
536.857	39107.33
537.058	38972.16
537.259	39424.76
537.46	39281.41
537.66	38908.68
537.861	39443.2
538.062	39435
538.263	39469.82
538.463	38988.55
538.664	39287.55
538.865	39703.29
539.065	39611.13
539.266	38968.07
539.466	39451.39
539.667	39058.18
539.868	39387.9
540.068	39133.95
540.269	39115.52
540.469	39234.3
540.67	38750.98
540.87	39031.55
541.071	38787.85
541.271	39195.39
541.472	38759.17
541.672	39176.96
541.873	38537.99
542.073	38755.08
542.274	39199.49
542.474	38683.4
542.675	38423.31
542.875	39131.9
543.075	38871.81
543.276	38509.32
543.476	38941.44
543.676	38519.56
543.877	39420.67
544.077	38492.94
544.277	39015.17
544.478	38759.17
544.678	38494.99
544.878	38716.17
545.078	38834.95
545.279	38685.45
545.479	38648.58
545.679	38695.69
545.879	38497.03
546.079	38525.71
546.28	38675.21
546.48	38451.98
546.68	38892.29
546.88	38871.81
547.08	38834.95
547.28	38597.38
547.48	38075.15
547.68	38445.83
547.88	38124.3
548.081	38972.16
548.281	38275.85
548.481	38429.45
548.681	38818.57
548.881	38552.33
549.081	38664.97
549.28	38566.66
549.48	38769.41
549.68	38394.64
549.88	38804.23
550.08	38107.92
550.28	38212.37
550.48	38308.62
550.68	38710.02
550.88	38370.06
551.08	38345.48
551.279	38376.2
551.479	38019.86
551.679	38296.33
551.879	38390.54
552.079	38277.9
552.278	38105.87
552.478	38339.34
552.678	38382.35
552.878	38040.34
553.077	37874.45
553.277	37856.02
553.477	38312.72
553.676	38048.53
553.876	38028.05
554.076	37597.98
554.275	38232.85
554.475	37632.79
554.674	37747.48
554.874	37841.68
555.074	37559.06
555.273	37870.36
555.473	37804.82
555.672	37550.87
555.872	37761.81
556.071	37720.85
556.271	37894.93
556.47	37640.98
556.67	37503.77
556.869	37096.22
557.068	37827.35
557.268	37303.07
557.467	37350.17
557.667	37640.98
557.866	37225.25
558.065	37315.36
558.265	37315.36
558.464	36862.75
558.663	37514.01
558.863	36887.33
559.062	37679.89
559.261	36776.74
559.461	37659.41
559.66	36711.21
559.859	37104.42
560.058	36993.82
560.258	36930.34
560.457	36883.23
560.656	37071.65
560.855	36848.42
561.054	37292.83
561.253	36485.93
561.453	36537.13
561.652	37045.02
561.851	36893.47
562.05	36660.01
562.249	36315.95
562.448	36553.51
562.647	36459.31
562.846	36389.67
563.045	36690.73
563.244	36217.64
563.443	36385.58
563.642	35797.81
563.841	35801.91
564.04	35984.18
564.239	36244.27
564.438	36209.45
564.637	35971.89
564.836	36412.2
565.035	35509.05
565.234	36010.8
565.432	35955.5
565.631	35711.8
565.83	35756.85
566.029	35609.4
566.228	35629.88
566.427	35300.15
566.625	35185.47
566.824	35361.59
567.023	35552.05
567.222	34982.72
567.42	35326.78
567.619	35117.89
567.818	35291.96
568.016	35148.6
568.215	35353.4
568.414	35177.28
568.612	35341.11
568.811	34908.99
569.01	34792.26
569.208	34747.2
569.407	34577.22
569.605	34442.06
569.804	35040.06
570.002	34532.17
570.201	34714.44
570.4	34284.36
570.598	34560.84
570.797	34138.96
570.995	34493.25
571.193	33991.5
571.392	34593.61
571.59	33991.5
571.789	34052.94
571.987	33796.95
572.186	33936.21
572.384	33794.9
572.582	33938.26
572.781	33776.47
572.979	33274.71
573.177	33557.33
573.376	33882.96
573.574	33315.67
573.772	33426.26
573.971	33364.82
574.169	33403.74
574.367	32879.46
574.565	33463.13
574.763	33049.44
574.962	32949.09
575.16	32723.81
575.358	33311.58
575.556	32732
575.754	33219.42
575.952	32500.58
576.151	32990.05
576.349	32582.5
576.547	32152.43
576.745	32557.92
576.943	32809.82
577.141	32336.74
577.339	32742.24
577.537	32533.35
577.735	32201.58
577.933	31943.53
578.131	32023.4
578.329	31943.53
578.527	32019.31
578.725	32064.36
578.923	31744.88
579.121	31583.09
579.319	31185.79
579.516	31921.01
579.714	31566.71
579.912	31421.3
580.11	31130.49
580.308	31181.69
580.506	31007.61
580.704	30794.62
580.901	31062.91
581.099	31413.11
581.297	30673.79
581.495	30901.12
581.692	30968.7
581.89	30657.41
582.088	30600.07
582.285	30497.67
582.483	30997.37
582.681	30499.72
582.878	30673.79
583.076	30425.99
583.274	30505.86
583.471	30198.66
583.669	30116.75
583.866	30245.77
584.064	30155.66
584.262	29604.75
584.459	30182.28
584.657	29862.8
584.854	30223.24
585.052	29203.35
585.249	29418.39
585.447	29684.62
585.644	29293.46
585.841	29508.5
586.039	29684.62
586.236	29268.89
586.434	29354.9
586.631	28920.73
586.828	29131.67
587.026	29103
587.223	28709.79
587.42	28816.29
587.618	28933.02
587.815	28429.22
588.012	28775.33
588.21	28421.03
588.407	28881.82
588.604	28089.26
588.801	28392.36
588.999	28083.11
589.196	28269.48
589.393	28236.71
589.59	27970.47
589.787	27904.94
589.984	27872.17
590.182	27704.24
590.379	27706.29
590.576	27464.63
590.773	27685.81
590.97	27278.26
591.167	27622.32
591.364	26964.92
591.561	27528.11
591.758	26893.24
591.955	27042.74
592.152	27270.07
592.349	27042.74
592.546	27085.75
592.743	27042.74
592.94	26426.31
593.137	26536.9
593.334	26792.89
593.531	26381.25
593.727	26756.03
593.924	26633.15
594.121	26235.85
594.318	26442.69
594.515	25856.97
594.712	26211.27
594.908	25627.6
595.105	26164.17
595.302	26076.1
595.499	25695.18
595.696	25732.04
595.892	25543.63
596.089	25615.31
596.286	25670.61
596.482	25398.23
596.679	25353.17
596.876	25615.31
597.072	25316.31
597.269	24847.32
597.466	24990.68
597.662	25179.09
597.859	24986.58
598.055	24738.78
598.252	24722.4
598.448	24802.27
598.645	24923.1
598.841	24724.44
599.038	24579.04
599.234	24566.75
599.431	24441.82
599.627	24218.6
599.824	24267.75
600.02	24288.23
600.217	24085.48
600.413	24069.09
600.609	24073.19
600.806	23917.54
601.002	23899.11
601.198	23694.32
601.395	23579.63
601.591	23716.84
601.787	23743.47
601.984	23376.88
602.18	23710.7
602.376	23542.77
602.572	23315.44
602.769	23337.97
602.965	23100.4
603.161	23170.04
603.357	23215.09
603.553	22834.17
603.75	23460.85
603.946	22926.33
604.142	22985.72
604.338	22563.84
604.534	22723.58
604.73	22338.56
604.926	22324.22
605.122	22629.37
605.318	22506.49
605.514	22205.44
605.71	22324.22
605.906	22072.32
606.102	22270.98
606.298	22146.05
606.494	21910.53
606.69	21908.49
606.886	22076.42
607.082	21801.99
607.278	21906.44
607.474	21568.52
607.67	21658.63
607.866	21707.79
608.062	22008.84
608.257	21726.22
608.453	21672.97
608.649	21634.06
608.845	21328.91
609.041	21333.01
609.236	21677.07
609.432	21216.27
609.628	21324.82
609.824	21363.73
610.019	21206.03
610.215	21132.31
610.411	21226.51
610.606	21058.58
610.802	21140.5
610.998	20847.64
611.193	20993.04
611.389	21034
611.584	20900.89
611.78	20808.73
611.976	21025.81
612.171	20745.24
612.367	20780.06
612.562	21046.29
612.758	20354.08
612.953	20462.62
613.149	20782.1
613.344	20401.18
613.539	20825.11
613.735	20577.31
613.93	20415.52
614.126	20427.81
614.321	20493.34
614.517	20483.1
614.712	20233.25
614.907	20282.4
615.103	20513.82
615.298	20116.51
615.493	20472.86
615.688	20093.99
615.884	20640.79
616.079	19940.39
616.274	20233.25
616.47	20001.83
616.665	20126.75
616.86	19817.51
617.055	19887.14
617.25	19633.19
617.445	19815.46
617.641	19532.84
617.836	19932.2
618.031	19389.49
618.226	19567.66
618.421	19420.2
618.616	19907.62
618.811	19379.25
619.006	19424.3
619.201	19143.73
619.396	19174.45
619.591	18953.27
619.786	19041.33
619.981	18687.03
620.176	19020.85
620.371	18764.85
620.566	18662.46
620.761	18555.96
620.956	18809.91
621.151	18439.23
621.346	18539.58
621.541	18203.71
621.735	18428.99
621.93	18142.27
622.125	18439.23
622.32	17736.77
622.515	17986.63
622.709	18052.16
622.904	17728.58
623.099	17499.21
623.294	17724.49
623.488	17321.04
623.683	17470.54
623.878	17042.51
624.072	17208.4
624.267	17087.57
624.462	16985.17
624.656	16841.81
624.851	16788.57
625.046	16690.26
625.24	16821.33
625.435	16739.41
625.629	16417.88
625.824	16526.43
626.018	16540.76
626.213	15901.79
626.407	16094.3
626.602	16190.56
626.796	15922.27
626.991	15916.13
627.185	15711.33
627.38	15776.87
627.574	15551.59
627.768	15514.73
627.963	15457.39
628.157	15156.33
628.352	15418.47
628.546	15172.72
628.74	15287.4
628.935	15064.18
629.129	15033.46
629.323	14537.85
629.517	15051.89
629.712	14871.67
629.906	14810.23
630.1	14656.63
630.294	14619.77
630.489	14453.88
630.683	14439.55
630.877	14494.84
631.071	14007.42
631.265	14163.07
631.459	14316.67
631.653	14105.73
631.848	13978.75
632.042	13872.26
632.236	14093.44
632.43	13739.14
632.624	13583.49
632.818	13812.87
633.012	13292.68
633.206	13304.97
633.4	13511.82
633.594	13218.96
633.788	13159.56
633.982	13421.7
634.176	13302.92
634.369	12995.73
634.563	13055.12
634.757	12874.9
634.951	12725.4
635.145	12905.62
635.339	12835.99
635.533	13073.55
635.726	12709.01
635.92	12567.7
636.114	12477.59
636.308	12477.59
636.501	12387.48
636.695	12385.43
636.889	12305.56
637.083	11977.89
637.276	11992.22
637.47	12057.76
637.664	11943.07
637.857	12043.42
638.051	12113.05
638.244	11664.55
638.438	11719.84
638.632	11826.34
638.825	11457.7
639.019	11822.24
639.212	11263.15
639.406	11545.77
639.599	11390.12
639.793	11820.19
639.986	11146.41
640.18	11175.08
640.373	11242.67
640.567	11035.82
640.76	11127.98
640.954	11142.32
641.147	10910.89
641.34	10720.43
641.534	10855.6
641.727	10826.93
641.92	10859.7
642.114	10796.21
642.307	10699.95
642.5	10646.71
642.694	10486.97
642.887	10478.77
643.08	10777.78
643.273	10396.85
643.467	10359.99
643.66	10341.56
643.853	10349.75
644.046	10101.95
644.239	10230.97
644.432	10036.41
644.626	10063.04
644.819	9893.05
645.012	9958.59
645.205	9821.38
645.398	9792.7
645.591	9833.66
645.784	9561.28
645.977	9690.31
646.17	9512.13
646.363	9514.18
646.556	9229.51
646.749	9356.49
646.942	9405.64
647.135	9241.8
647.328	9364.68
647.521	9376.97
647.714	9264.33
647.907	9092.3
648.099	9018.57
648.292	9303.24
648.485	9237.7
648.678	8991.95
648.871	8774.86
649.064	8694.99
649.256	8989.9
649.449	8738
649.642	8832.21
649.835	8758.48
650.027	8799.44
650.22	8522.96
650.413	8574.16
650.605	8543.44
650.798	8578.26
650.991	8502.48
651.183	8203.48
651.376	8387.8
651.568	8412.37
651.761	8213.72
651.954	8246.49
652.146	8275.16
652.339	8113.37
652.531	8166.62
652.724	8117.47
652.916	7791.84
653.109	8033.5
653.301	7972.06
653.494	7881.95
653.686	7650.53
653.879	7900.38
654.071	7714.02
654.263	7613.67
654.456	7718.11
654.648	7695.58
654.84	7638.24
655.033	7634.14
655.225	7615.71
655.417	7480.55
655.61	7640.29
655.802	7378.15
655.994	7394.53
656.186	7406.82
656.379	7187.69
656.571	7310.57
656.763	7159.02
656.955	7060.71
657.148	7085.29
657.34	7081.19
657.532	6964.46
657.724	6986.99
657.916	7070.95
658.108	6849.77
658.3	6857.96
658.492	6943.98
658.684	6935.79
658.876	6765.81
659.068	6831.34
659.26	6663.41
659.452	6608.11
659.644	6597.87
659.836	6677.74
660.028	6837.48
660.22	6661.36
660.412	6626.54
660.604	6599.92
660.796	6563.06
660.988	6481.14
661.18	6348.02
661.372	6358.26
661.563	6431.99
661.755	6282.49
661.947	6448.37
662.139	6204.66
662.331	6280.44
662.522	6036.73
662.714	6098.17
662.906	5989.63
663.097	5942.52
663.289	6186.23
663.481	6061.3
663.673	6118.65
663.864	6028.54
664.056	5866.75
664.247	5926.14
664.439	5883.13
664.631	5881.08
664.822	5698.81
665.014	5874.94
665.205	5885.18
665.397	5668.09
665.588	5799.16
665.78	5680.38
665.971	5711.1
666.163	5723.39
666.354	5596.42
666.546	5754.11
666.737	5520.64
666.929	5557.5
667.12	5692.67
667.311	5453.06
667.503	5457.15
667.694	5543.17
667.885	5405.95
668.077	5348.61
668.268	5391.62
668.459	5319.94
668.651	5197.06
668.842	5250.31
669.033	5264.64
669.224	5375.24
669.416	5371.14
669.607	5164.29
669.798	5176.58
669.989	5080.33
670.18	5248.26
670.371	5215.49
670.563	5109
670.754	5158.15
670.945	5242.12
671.136	5164.29
671.327	4996.36
671.518	4996.36
671.709	5156.1
671.9	4887.82
672.091	4994.31
672.282	4889.87
672.473	4826.38
672.664	4756.75
672.855	4986.12
673.046	4947.21
673.237	4889.87
673.428	4740.36
673.619	4951.31
673.809	4723.98
674	4685.07
674.191	4752.65
674.382	4646.16
674.573	4726.03
674.764	4783.37
674.954	4685.07
675.145	4623.63
675.336	4459.79
675.527	4697.36
675.717	4551.95
675.908	4494.61
676.099	4492.56
676.289	4564.24
676.48	4482.32
676.671	4470.03
676.861	4416.79
677.052	4437.27
677.243	4396.31
677.433	4502.8
677.624	4484.37
677.814	4371.73
678.005	4367.63
678.195	4482.32
678.386	4295.96
678.576	4453.65
678.767	4322.58
678.957	4420.88
679.148	4351.25
679.338	4353.3
679.529	4431.12
679.719	4349.2
679.909	4447.51
680.1	4330.77
680.29	4203.8
680.481	4263.19
680.671	4328.72
680.861	4273.43
681.052	4334.87
681.242	4164.89
681.432	4185.37
681.622	4111.64
681.813	4095.25
682.003	4248.85
682.193	4105.49
682.383	4179.22
682.573	4218.13
682.764	4074.78
682.954	4144.41
683.144	4039.96
683.334	4152.6
683.524	3939.61
683.714	3962.14
683.904	4136.21
684.094	4025.62
684.284	4144.41
684.474	4158.74
684.664	3992.86
684.854	4042.01
685.044	4007.19
685.234	3976.47
685.424	4009.24
685.614	4033.82
685.804	3847.45
685.994	3947.8
686.184	3951.9
686.374	3865.88
686.564	3904.79
686.753	3906.84
686.943	3704.09
687.133	3937.56
687.323	3757.34
687.513	3804.44
687.702	3706.14
687.892	3714.33
688.082	3747.1
688.272	3833.11
688.461	3745.05
688.651	3798.3
688.841	3491.1
689.03	3693.85
689.22	3575.07
689.41	3616.03
689.599	3509.54
689.789	3675.42
689.979	3487.01
690.168	3513.63
690.358	3489.06
690.547	3468.58
690.737	3519.78
690.926	3544.35
691.116	3448.1
691.305	3499.3
691.495	3433.76
691.684	3384.61
691.874	3439.9
692.063	3366.18
692.252	3343.65
692.442	3396.9
692.631	3366.18
692.82	3226.92
693.01	3198.24
693.199	3292.45
693.388	3216.68
693.578	3249.44
693.767	3323.17
693.956	3247.4
694.146	3161.38
694.335	3247.4
694.524	3173.67
694.713	3185.96
694.902	3165.48
695.092	3175.72
695.281	2956.58
695.47	3071.27
695.659	2909.48
695.848	3159.33
696.037	3038.5
696.226	2989.35
696.415	2944.3
696.604	2964.78
696.793	3001.64
696.982	2848.04
697.171	2942.25
697.36	2966.82
697.549	2934.06
697.738	2872.62
697.927	2907.43
698.116	2839.85
698.305	2829.61
698.494	2827.56
698.683	2891.05
698.872	2944.3
699.061	2837.8
699.25	2868.52
699.438	2813.23
699.627	2776.36
699.816	2882.86
700.005	2762.03
700.193	2802.99
700.382	2635.05
700.571	2770.22
700.76	2800.94
700.948	2759.98
701.137	2661.68
701.326	2770.22
701.514	2628.91
701.703	2661.68
701.892	2671.92
702.08	2704.68
702.269	2671.92
702.457	2663.72
702.646	2622.77
702.834	2612.53
703.023	2575.66
703.212	2557.23
703.4	2653.48
703.589	2598.19
703.777	2549.04
703.965	2610.48
704.154	2676.01
704.342	2530.61
704.531	2606.38
704.719	2569.52
704.907	2471.22
705.096	2499.89
705.284	2514.22
705.472	2590
705.661	2565.42
705.849	2481.46
706.037	2528.56
706.226	2493.74
706.414	2444.59
706.602	2667.82
706.79	2526.51
706.979	2456.88
707.167	2409.78
707.355	2432.3
707.543	2590
707.731	2510.13
707.919	2579.76
708.107	2430.26
708.296	2432.3
708.484	2491.7
708.672	2555.18
708.86	2405.68
709.048	2458.93
709.236	2372.91
709.424	2442.54
709.612	2506.03
709.8	2526.51
709.988	2485.55
710.176	2561.33
710.364	2422.06
710.551	2524.46
710.739	2460.98
710.927	2465.07
711.115	2329.91
711.303	2469.17
711.491	2399.54
711.679	2372.91
711.866	2352.43
712.054	2377.01
712.242	2450.74
712.43	2460.98
712.617	2422.06
712.805	2374.96
712.993	2452.78
713.181	2397.49
713.368	2450.74
713.556	2397.49
713.744	2313.52
713.931	2381.1
714.119	2374.96
714.306	2403.63
714.494	2317.62
714.682	2407.73
714.869	2383.15
715.057	2362.67
715.244	2409.78
715.432	2430.26
715.619	2358.58
715.807	2331.95
715.994	2364.72
716.182	2389.3
716.369	2471.22
716.556	2385.2
716.744	2295.09
716.931	2288.95
717.119	2354.48
717.306	2295.09
717.493	2444.59
717.681	2313.52
717.868	2399.54
718.055	2346.29
718.242	2344.24
718.43	2395.44
718.617	2309.43
718.804	2372.91
718.991	2360.63
719.179	2417.97
719.366	2379.06
719.553	2409.78
719.74	2377.01
719.927	2377.01
720.114	2420.02
720.301	2356.53
720.488	2311.47
720.676	2334
720.863	2448.69
721.05	2358.58
721.237	2385.2
721.424	2426.16
721.611	2336.05
721.798	2450.74
721.985	2319.67
722.172	2256.18
722.358	2260.27
722.545	2334
722.732	2317.62
722.919	2426.16
723.106	2381.1
723.293	2268.47
723.48	2503.98
723.667	2432.3
723.853	2360.63
724.04	2387.25
724.227	2460.98
724.414	2331.95
724.6	2422.06
724.787	2354.48
724.974	2352.43
725.161	2329.91
725.347	2512.18
725.534	2616.62
725.72	2327.86
725.907	2473.26
726.094	2389.3
726.28	2491.7
726.467	2407.73
726.653	2407.73
726.84	2551.09
727.027	2633.01
727.213	2413.87
727.4	2481.46
727.586	2411.82
727.773	2399.54
727.959	2325.81
728.145	2446.64
728.332	2379.06
728.518	2374.96
728.705	2577.71
728.891	2370.87
729.077	2467.12
729.264	2495.79
729.45	2444.59
729.636	2473.26
729.823	2551.09
730.009	2393.39
730.195	2481.46
730.382	2542.89
730.568	2430.26
730.754	2499.89
730.94	2540.85
731.126	2456.88
731.313	2506.03
731.499	2506.03
731.685	2612.53
731.871	2444.59
732.057	2438.45
732.243	2542.89
732.429	2581.81
732.615	2590
732.801	2549.04
732.987	2551.09
733.173	2639.15
733.359	2536.75
733.545	2540.85
733.731	2420.02
733.917	2567.47
734.103	2534.7
734.289	2645.29
734.475	2639.15
734.661	2602.29
734.847	2530.61
735.033	2524.46
735.219	2561.33
735.404	2587.95
735.59	2663.72
735.776	2512.18
735.962	2719.02
736.148	2645.29
736.333	2594.09
736.519	2721.07
736.705	2708.78
736.89	2694.44
737.076	2653.48
737.262	2514.22
737.447	2653.48
737.633	2587.95
737.819	2719.02
738.004	2534.7
738.19	2561.33
738.375	2553.13
738.561	2768.17
738.747	2637.1
738.932	2604.33
739.118	2630.96
739.303	2733.36
739.489	2624.81
739.674	2678.06
739.859	2633.01
740.045	2645.29
740.23	2639.15
740.416	2544.94
740.601	2628.91
740.786	2714.92
740.972	2716.97
741.157	2676.01
741.342	2628.91
741.528	2655.53
741.713	2618.67
741.898	2780.46
742.084	2655.53
742.269	2579.76
742.454	2616.62
742.639	2684.2
742.824	2590
743.01	2712.88
743.195	2659.63
743.38	2596.14
743.565	2618.67
743.75	2616.62
743.935	2542.89
744.12	2630.96
744.305	2563.37
744.49	2678.06
744.675	2512.18
744.86	2534.7
745.045	2596.14
745.23	2536.75
745.415	2528.56
745.6	2540.85
745.785	2481.46
745.97	2444.59
746.155	2516.27
746.34	2649.39
746.525	2399.54
746.71	2604.33
746.895	2483.5
747.079	2526.51
747.264	2530.61
747.449	2450.74
747.634	2567.47
747.819	2465.07
748.003	2358.58
748.188	2362.67
748.373	2575.66
748.557	2417.97
748.742	2563.37
748.927	2377.01
749.111	2446.64
749.296	2460.98
749.481	2428.21
749.665	2309.43
749.85	2305.33
750.034	2436.4
750.219	2237.75
750.404	2270.51
750.588	2334
750.773	2313.52
750.957	2346.29
751.141	2284.85
751.326	2243.89
751.51	2133.3
751.695	2256.18
751.879	2268.47
752.064	2172.21
752.248	2141.49
752.432	2311.47
752.617	2174.26
752.801	2153.78
752.985	2184.5
753.17	2250.03
753.354	2168.12
753.538	2159.92
753.722	2151.73
753.907	2096.44
754.091	2188.6
754.275	2123.06
754.459	2018.61
754.643	2008.37
754.828	2108.73
755.012	2057.53
755.196	2049.33
755.38	1953.08
755.564	1991.99
755.748	2067.77
755.932	2037.05
756.116	1983.8
756.3	2063.67
756.484	1889.59
756.668	2028.85
756.852	1914.17
757.036	1914.17
757.22	1813.82
757.404	1791.29
757.588	1965.37
757.772	1912.12
757.956	1893.69
758.14	1905.98
758.323	1758.52
758.507	1842.49
758.691	1865.02
758.875	1826.11
759.059	1613.12
759.242	1805.63
759.426	1905.98
759.61	1707.32
759.794	1834.3
759.977	1772.86
760.161	1869.11
760.345	1684.8
760.528	1752.38
760.712	1727.8
760.895	1717.56
761.079	1641.79
761.263	1654.08
761.446	1744.19
761.63	1635.64
761.813	1660.22
761.997	1682.75
762.18	1566.01
762.364	1707.32
762.547	1662.27
762.731	1590.59
762.914	1705.28
763.098	1549.63
763.281	1609.02
763.464	1662.27
763.648	1672.51
763.831	1602.88
764.015	1656.12
764.198	1529.15
764.381	1559.87
764.564	1535.29
764.748	1533.25
764.931	1578.3
765.114	1506.62
765.297	1568.06
765.481	1480
765.664	1549.63
765.847	1553.73
766.03	1523.01
766.213	1463.62
766.397	1486.14
766.58	1518.91
766.763	1484.09
766.946	1488.19
767.129	1414.46
767.312	1387.84
767.495	1506.62
767.678	1412.42
767.861	1461.57
768.044	1391.94
768.227	1377.6
768.41	1459.52
768.593	1375.55
768.776	1459.52
768.959	1377.6
769.142	1436.99
769.324	1383.74
769.507	1422.66
769.69	1377.6
769.873	1375.55
770.056	1402.18
770.239	1467.71
770.421	1318.21
770.604	1303.87
770.787	1330.5
770.97	1379.65
771.152	1344.83
771.335	1361.22
771.518	1299.78
771.7	1348.93
771.883	1340.74
772.066	1207.62
772.248	1326.4
772.431	1324.35
772.613	1361.22
772.796	1262.91
772.978	1172.8
773.161	1322.31
773.343	1262.91
773.526	1127.75
773.708	1226.05
773.891	1160.52
774.073	1291.59
774.256	1168.71
774.438	1228.1
774.621	1215.81
774.803	1189.19
774.985	1111.36
775.168	1144.13
775.35	1156.42
775.532	1164.61
775.715	1197.38
775.897	1185.09
776.079	1099.08
776.261	1123.65
776.444	988.49
776.626	1094.98
776.808	1066.31
776.99	1056.07
777.173	1092.93
777.355	972.1
777.537	1076.55
777.719	1094.98
777.901	1041.73
778.083	1084.74
778.265	898.38
778.447	982.34
778.629	1025.35
778.811	976.2
778.993	1070.4
779.175	1043.78
779.357	884.04
779.539	986.44
779.721	965.96
779.903	947.53
780.085	896.33
780.267	865.61
780.449	902.47
780.631	963.91
780.812	746.83
780.994	798.03
781.176	884.04
781.358	908.62
781.54	888.14
781.721	879.94
781.903	869.7
782.085	765.26
782.267	904.52
782.448	767.31
782.63	816.46
782.812	806.22
782.993	888.14
783.175	859.46
783.357	781.64
783.538	841.03
783.72	841.03
783.901	779.59
784.083	851.27
784.264	771.4
784.446	675.15
784.627	748.87
784.809	820.55
784.99	697.67
785.172	748.87
785.353	726.35
785.535	738.63
785.716	660.81
785.897	765.26
786.079	771.4
786.26	734.54
786.441	685.39
786.623	607.56
786.804	677.19
786.985	709.96
787.167	617.8
787.348	720.2
787.529	619.85
787.71	605.52
787.891	630.09
788.073	718.15
788.254	568.65
788.435	632.14
788.616	578.89
788.797	589.13
788.978	593.23
789.159	630.09
789.34	580.94
789.522	654.67
789.703	449.87
789.884	552.27
790.065	562.51
790.246	619.85
790.427	662.86
790.607	564.56
790.788	519.5
790.969	589.13
791.15	601.42
791.331	484.69
791.512	574.8
791.693	533.84
791.874	505.17
792.054	613.71
792.235	587.08
792.416	593.23
792.597	503.12
792.778	548.17
792.958	437.58
793.139	523.6
793.32	482.64
793.5	488.78
793.681	513.36
793.862	601.42
794.042	437.58
794.223	421.2
794.404	488.78
794.584	509.26
794.765	476.49
794.945	427.34
795.126	441.68
795.306	529.74
795.487	427.34
795.667	453.97
795.848	370
796.028	480.59
796.209	441.68
796.389	425.29
796.57	462.16
796.75	443.73
796.93	413.01
797.111	447.82
797.291	435.53
797.471	378.19
797.652	402.77
797.832	402.77
798.012	480.59
798.192	396.62
798.373	460.11
798.553	343.38
798.733	376.14
798.913	349.52
799.093	382.29
799.274	339.28
799.454	413.01
799.634	386.38
799.814	345.42
799.994	398.67
800.174	384.34
800.354	374.1
800.534	296.27
800.714	394.58
800.894	335.18
801.074	286.03
801.254	335.18
801.434	427.34
801.614	374.1
801.794	380.24
801.974	1000.77
802.154	296.27
802.334	402.77
802.514	296.27
802.693	351.57
802.873	302.42
803.053	355.66
803.233	367.95
803.413	324.94
803.592	341.33
803.772	292.18
803.952	335.18
804.131	324.94
804.311	361.81
804.491	376.14
804.67	349.52
804.85	298.32
805.03	306.51
805.209	224.59
805.389	329.04
805.568	279.89
805.748	310.61
805.928	181.59
806.107	365.9
806.287	245.07
806.466	382.29
806.646	329.04
806.825	302.42
807.004	267.6
807.184	300.37
807.363	386.38
807.543	363.86
807.722	333.14
807.901	324.94
808.081	257.36
808.26	310.61
808.439	312.66
808.619	261.46
808.798	279.89
808.977	240.98
809.156	234.83
809.336	324.94
809.515	310.61
809.694	273.75
809.873	224.59
810.052	236.88
810.231	253.27
810.411	259.41
810.59	283.99
810.769	208.21
810.948	238.93
811.127	265.55
811.306	275.79
811.485	234.83
811.664	341.33
811.843	212.31
812.022	224.59
812.201	255.31
812.38	245.07
812.559	226.64
812.737	302.42
812.916	210.26
813.095	189.78
813.274	208.21
813.453	294.22
813.632	240.98
813.811	257.36
813.989	216.4
814.168	216.4
814.347	238.93
814.526	288.08
814.704	208.21
814.883	232.79
815.062	132.44
815.24	273.75
815.419	210.26
815.598	288.08
815.776	226.64
815.955	208.21
816.133	128.34
816.312	204.11
816.49	257.36
816.669	161.11
816.847	175.44
817.026	197.97
817.204	185.68
817.383	230.74
817.561	128.34
817.74	169.3
817.918	240.98
818.097	247.12
818.275	218.45
818.453	187.73
818.632	130.39
818.81	204.11
818.988	142.68
819.167	230.74
819.345	140.63
819.523	175.44
819.701	191.83
819.879	220.5
820.058	175.44
820.236	64.85
820.414	185.68
820.592	116.05
820.77	175.44
820.948	251.22
821.127	159.06
821.305	122.2
821.483	193.87
821.661	159.06
821.839	259.41
822.017	120.15
822.195	181.59
822.373	204.11
822.551	183.63
822.729	114
822.907	173.39
823.085	171.35
823.262	214.35
823.44	83.28
823.618	83.28
823.796	118.1
823.974	128.34
824.152	193.87
824.329	111.96
824.507	163.15
824.685	169.3
824.863	122.2
825.04	107.86
825.218	116.05
825.396	152.92
825.574	181.59
825.751	236.88
825.929	253.27
826.107	161.11
826.284	126.29
826.462	161.11
826.639	116.05
826.817	128.34
826.994	79.19
827.172	183.63
827.349	165.2
827.527	99.67
827.704	118.1
827.882	183.63
828.059	114
828.237	136.53
828.414	193.87
828.591	66.9
828.769	152.92
828.946	79.19
829.124	218.45
829.301	212.31
829.478	93.52
829.655	144.72
829.833	122.2
830.01	134.48
830.187	114
830.364	73.04
830.542	128.34
830.719	150.87
830.896	134.48
831.073	97.62
831.25	154.96
831.427	200.02
831.604	140.63
831.782	101.72
831.959	58.71
832.136	93.52
832.313	87.38
832.49	154.96
832.667	144.72
832.844	114
833.021	109.91
833.198	128.34
833.374	64.85
833.551	202.07
833.728	44.37
833.905	146.77
834.082	91.48
834.259	81.24
834.436	189.78
834.612	77.14
834.789	97.62
834.966	50.52
835.143	114
835.319	101.72
835.496	93.52
835.673	34.13
835.85	87.38
836.026	142.68
836.203	81.24
836.38	103.76
836.556	93.52
836.733	128.34
836.909	99.67
837.086	93.52
837.262	132.44
837.439	19.8
837.616	81.24
837.792	91.48
837.968	130.39
838.145	54.61
838.321	111.96
838.498	126.29
838.674	91.48
838.851	134.48
839.027	50.52
839.203	71
839.38	52.56
839.556	89.43
839.732	99.67
839.909	124.24
840.085	87.38
840.261	68.95
840.437	179.54
840.614	146.77
840.79	97.62
840.966	66.9
841.142	95.57
841.318	93.52
841.494	150.87
841.671	89.43
841.847	62.8
842.023	79.19
842.199	136.53
842.375	107.86
842.551	46.42
842.727	9.56
842.903	89.43
843.079	89.43
843.255	136.53
843.431	58.71
843.607	144.72
843.783	3.41
843.959	114
844.134	99.67
844.31	54.61
844.486	38.23
844.662	54.61
844.838	66.9
845.013	56.66
845.189	118.1
845.365	-8.87
845.541	60.76
845.716	62.8
845.892	73.04
846.068	9.56
846.244	48.47
846.419	111.96
846.595	25.94
846.77	81.24
846.946	42.32
847.122	17.75
847.297	68.95
847.473	97.62
847.648	23.89
847.824	64.85
847.999	-17.07
848.175	66.9
848.35	40.28
848.526	81.24
848.701	99.67
848.876	25.94
849.052	68.95
849.227	79.19
849.403	-12.97
849.578	81.24
849.753	97.62
849.929	126.29
850.104	25.94
850.279	5.46
850.454	97.62
850.63	93.52
850.805	103.76
850.98	111.96
851.155	56.66
851.33	146.77
851.505	-12.97
851.681	116.05
851.856	71
852.031	93.52
852.206	-0.68
852.381	68.95
852.556	-8.87
852.731	71
852.906	85.33
853.081	101.72
853.256	60.76
853.431	36.18
853.606	58.71
853.781	11.61
853.956	-43.69
854.131	97.62
854.305	27.99
854.48	73.04
854.655	89.43
854.83	11.61
855.005	-60.07
855.18	48.47
855.354	44.37
855.529	99.67
855.704	142.68
855.879	89.43
856.053	58.71
856.228	-0.68
856.403	-17.07
856.577	9.56
856.752	25.94
856.926	9.56
857.101	11.61
857.276	48.47
857.45	3.41
857.625	62.8
857.799	44.37
857.974	56.66
858.148	44.37
858.323	46.42
858.497	13.65
858.672	64.85
858.846	50.52
859.02	66.9
859.195	-12.97
859.369	9.56
859.543	27.99
859.718	56.66
859.892	83.28
860.066	97.62
860.241	5.46
860.415	27.99
860.589	3.41
860.763	13.65
860.938	36.18
861.112	52.56
861.286	44.37
861.46	40.28
861.634	9.56
861.808	13.65
861.982	-19.11
862.157	40.28
862.331	-58.03
862.505	19.8
862.679	-21.16
862.853	38.23
863.027	-12.97
863.201	122.2
863.375	1.37
863.549	17.75
863.722	32.08
863.896	66.9
864.07	-51.88
864.244	64.85
864.418	-8.87
864.592	40.28
864.766	3.41
864.939	32.08
865.113	56.66
865.287	25.94
865.461	30.04
865.634	27.99
865.808	36.18
865.982	-8.87
866.156	-21.16
866.329	60.76
866.503	7.51
866.676	36.18
866.85	-17.07
867.024	25.94
867.197	34.13
867.371	111.96
867.544	15.7
867.718	-49.83
867.891	91.48
868.065	-21.16
868.238	11.61
868.412	38.23
868.585	30.04
868.759	11.61
868.932	-21.16
869.105	-23.21
869.279	32.08
869.452	64.85
869.625	42.32
869.799	-25.26
869.972	19.8
870.145	-12.97
870.319	40.28
870.492	-43.69
870.665	34.13
870.838	7.51
871.011	5.46
871.185	58.71
871.358	-12.97
871.531	17.75
871.704	30.04
871.877	46.42
872.05	-6.83
872.223	52.56
872.396	58.71
872.569	66.9
872.742	-66.22
872.915	25.94
873.088	-45.74
873.261	7.51
873.434	-98.99
873.607	-23.21
873.78	163.15
873.953	-31.4
874.126	27.99
874.299	64.85
874.471	42.32
874.644	7.51
874.817	15.7
874.99	89.43
875.163	-15.02
875.335	101.72
875.508	-17.07
875.681	36.18
875.853	25.94
876.026	11.61
876.199	38.23
876.371	27.99
876.544	1.37
876.717	46.42
876.889	-27.31
877.062	-2.73
877.234	-17.07
877.407	21.85
877.579	3.41
877.752	27.99
877.924	73.04
878.097	13.65
878.269	81.24
878.442	56.66
878.614	103.76
878.786	68.95
878.959	56.66
879.131	83.28
879.303	-53.93
879.476	-21.16
879.648	64.85
879.82	-10.92
879.993	-10.92
880.165	71
880.337	-21.16
880.509	-10.92
880.681	27.99
880.854	54.61
881.026	40.28
881.198	83.28
881.37	23.89
881.542	97.62
881.714	40.28
881.886	-47.79
882.058	42.32
882.23	-21.16
882.402	1.37
882.574	46.42
882.746	68.95
882.918	-0.68
883.09	46.42
883.262	-23.21
883.434	30.04
883.606	5.46
883.778	-2.73
883.95	122.2
884.122	-25.26
884.293	60.76
884.465	-6.83
884.637	23.89
884.809	44.37
884.98	42.32
885.152	-6.83
885.324	48.47
885.496	34.13
885.667	11.61
885.839	27.99
886.011	44.37
886.182	58.71
886.354	66.9
886.525	58.71
886.697	68.95
886.869	15.7
887.04	-10.92
887.212	17.75
887.383	-27.31
887.555	50.52
887.726	83.28
887.897	-41.64
888.069	54.61
888.24	42.32
888.412	56.66
888.583	62.8
888.754	-51.88
888.926	-17.07
889.097	5.46
889.268	-2.73
889.44	107.86
889.611	-25.26
889.782	-19.11
889.953	-41.64
890.125	9.56
890.296	23.89
890.467	-17.07
890.638	34.13
890.809	-49.83
890.98	-53.93
891.151	17.75
891.323	62.8
891.494	19.8
891.665	-8.87
891.836	-47.79
892.007	-12.97
892.178	19.8
892.349	56.66
892.52	-23.21
892.691	23.89
892.862	3.41
893.032	32.08
893.203	-31.4
893.374	-10.92
893.545	163.15
893.716	-23.21
893.887	83.28
894.057	-21.16
894.228	-39.59
894.399	-51.88
894.57	50.52
894.74	-29.35
894.911	73.04
895.082	-17.07
895.253	-33.45
895.423	11.61
895.594	25.94
895.764	-0.68
895.935	9.56
896.106	-51.88
896.276	30.04
896.447	101.72
896.617	60.76
896.788	13.65
896.958	-4.78
897.129	-6.83
897.299	91.48
897.47	1.37
897.64	-21.16
897.81	-47.79
897.981	34.13
898.151	3.41
898.322	7.51
898.492	5.46
898.662	13.65
898.832	-23.21
899.003	54.61
899.173	38.23
899.343	46.42
899.513	-55.98
