Data from USB4F104151__45__12-41-30-952.txt Node

Date: Fri Mar 14 12:41:30 EDT 2025
User: louis
Spectrometer: USB4F10415
Trigger mode: 4
Integration Time (sec): 3.000000E-2
Scans to average: 1
Electric dark correction enabled: true
Nonlinearity correction enabled: false
Boxcar width: 0
XAxis mode: Wavelengths
Number of Pixels in Spectrum: 3648
>>>>>Begin Spectral Data<<<<<
178.204	-159.74
178.424	-159.74
178.644	-159.74
178.864	-174.08
179.084	-155.65
179.304	-45.06
179.524	-55.3
179.744	10.24
179.964	-12.29
180.184	2.05
180.404	-4.1
180.624	-12.29
180.844	61.44
181.064	-38.91
181.283	69.63
181.503	4.1
181.723	20.48
181.943	-38.91
182.163	22.53
182.383	-53.25
182.602	104.45
182.822	8.19
183.042	24.58
183.262	14.34
183.482	8.19
183.701	-57.34
183.921	-12.29
184.141	-30.72
184.361	47.1
184.58	-16.38
184.8	-16.38
185.02	22.53
185.239	92.16
185.459	-24.58
185.679	30.72
185.898	-47.1
186.118	40.96
186.338	22.53
186.557	112.64
186.777	-53.25
186.997	55.3
187.216	10.24
187.436	14.34
187.655	-6.14
187.875	81.92
188.095	45.06
188.314	22.53
188.534	30.72
188.753	14.34
188.973	57.34
189.192	57.34
189.412	63.49
189.631	28.67
189.851	-28.67
190.07	14.34
190.29	-8.19
190.509	18.43
190.729	20.48
190.948	16.38
191.168	104.45
191.387	57.34
191.607	49.15
191.826	63.49
192.045	-32.77
192.265	-4.1
192.484	-14.34
192.704	49.15
192.923	2.05
193.142	69.63
193.362	12.29
193.581	2.05
193.8	32.77
194.02	24.58
194.239	-8.19
194.458	-49.15
194.678	18.43
194.897	20.48
195.116	-14.34
195.335	30.72
195.555	-2.05
195.774	-22.53
195.993	2.05
196.212	24.58
196.432	-40.96
196.651	2.05
196.87	-10.24
197.089	75.77
197.308	40.96
197.528	10.24
197.747	-40.96
197.966	53.25
198.185	30.72
198.404	0
198.623	-6.14
198.842	77.82
199.062	43.01
199.281	-40.96
199.5	14.34
199.719	-63.49
199.938	43.01
200.157	10.24
200.376	-12.29
200.595	98.3
200.814	34.82
201.033	34.82
201.252	81.92
201.471	57.34
201.69	102.4
201.909	24.58
202.128	-4.1
202.347	0
202.566	-26.62
202.785	24.58
203.004	-38.91
203.223	110.59
203.442	20.48
203.661	79.87
203.879	-32.77
204.098	63.49
204.317	-32.77
204.536	38.91
204.755	-4.1
204.974	67.58
205.193	79.87
205.411	75.77
205.63	57.34
205.849	36.86
206.068	-12.29
206.287	124.93
206.505	10.24
206.724	24.58
206.943	18.43
207.162	43.01
207.381	10.24
207.599	-6.14
207.818	-12.29
208.037	-26.62
208.255	-45.06
208.474	6.14
208.693	79.87
208.911	32.77
209.13	38.91
209.349	-22.53
209.567	0
209.786	43.01
210.005	-28.67
210.223	-55.3
210.442	10.24
210.661	22.53
210.879	-16.38
211.098	88.06
211.316	22.53
211.535	-6.14
211.753	-14.34
211.972	83.97
212.191	40.96
212.409	10.24
212.628	49.15
212.846	-34.82
213.065	0
213.283	59.39
213.502	-6.14
213.72	34.82
213.938	-10.24
214.157	-57.34
214.375	59.39
214.594	-79.87
214.812	38.91
215.031	-49.15
215.249	-2.05
215.467	-43.01
215.686	24.58
215.904	45.06
216.122	34.82
216.341	18.43
216.559	8.19
216.778	-10.24
216.996	-32.77
217.214	53.25
217.432	-65.53
217.651	14.34
217.869	10.24
218.087	98.3
218.306	-26.62
218.524	26.62
218.742	43.01
218.96	63.49
219.179	-30.72
219.397	40.96
219.615	59.39
219.833	92.16
220.051	36.86
220.27	104.45
220.488	67.58
220.706	47.1
220.924	-34.82
221.142	79.87
221.36	30.72
221.578	12.29
221.796	-57.34
222.015	8.19
222.233	55.3
222.451	73.73
222.669	-14.34
222.887	24.58
223.105	6.14
223.323	22.53
223.541	0
223.759	22.53
223.977	16.38
224.195	22.53
224.413	26.62
224.631	-14.34
224.849	-18.43
225.067	69.63
225.285	38.91
225.503	-20.48
225.721	6.14
225.939	57.34
226.157	86.01
226.375	196.61
226.592	-38.91
226.81	28.67
227.028	-10.24
227.246	22.53
227.464	38.91
227.682	36.86
227.9	22.53
228.117	32.77
228.335	16.38
228.553	-32.77
228.771	-10.24
228.989	90.11
229.206	38.91
229.424	67.58
229.642	-22.53
229.86	22.53
230.077	-28.67
230.295	40.96
230.513	14.34
230.731	-8.19
230.948	10.24
231.166	30.72
231.384	22.53
231.601	20.48
231.819	4.1
232.037	-24.58
232.254	14.34
232.472	-34.82
232.689	-14.34
232.907	32.77
233.125	53.25
233.342	22.53
233.56	-34.82
233.777	-63.49
233.995	67.58
234.213	45.06
234.43	34.82
234.648	36.86
234.865	14.34
235.083	34.82
235.3	-20.48
235.518	0
235.735	45.06
235.953	47.1
236.17	16.38
236.388	65.54
236.605	-43.01
236.822	79.87
237.04	55.3
237.257	20.48
237.475	6.14
237.692	8.19
237.909	4.1
238.127	-73.73
238.344	12.29
238.562	-8.19
238.779	-36.86
238.996	55.3
239.214	30.72
239.431	49.15
239.648	-36.86
239.865	26.62
240.083	24.58
240.3	40.96
240.517	-16.38
240.735	-30.72
240.952	137.21
241.169	-4.1
241.386	67.58
241.603	67.58
241.821	18.43
242.038	94.21
242.255	63.49
242.472	-55.3
242.689	0
242.907	96.25
243.124	-38.91
243.341	38.91
243.558	36.86
243.775	61.44
243.992	49.15
244.209	36.86
244.426	53.25
244.643	112.64
244.86	45.06
245.078	28.67
245.295	30.72
245.512	69.63
245.729	34.82
245.946	2.05
246.163	26.62
246.38	32.77
246.597	-38.91
246.814	49.15
247.031	8.19
247.248	22.53
247.464	-40.96
247.681	69.63
247.898	-4.1
248.115	-8.19
248.332	-53.25
248.549	30.72
248.766	65.54
248.983	69.63
249.2	36.86
249.417	47.1
249.633	-22.53
249.85	43.01
250.067	-8.19
250.284	79.87
250.501	55.3
250.717	40.96
250.934	-12.29
251.151	-8.19
251.368	-30.72
251.585	51.2
251.801	40.96
252.018	30.72
252.235	30.72
252.451	81.92
252.668	26.62
252.885	59.39
253.102	-20.48
253.318	51.2
253.535	-24.58
253.752	0
253.968	10.24
254.185	30.72
254.401	26.62
254.618	8.19
254.835	-43.01
255.051	86.01
255.268	83.97
255.484	63.49
255.701	40.96
255.917	8.19
256.134	-30.72
256.351	73.73
256.567	-36.86
256.784	-2.05
257	45.06
257.217	-2.05
257.433	43.01
257.65	32.77
257.866	49.15
258.082	-22.53
258.299	67.58
258.515	0
258.732	-18.43
258.948	-38.91
259.165	47.1
259.381	-24.58
259.597	-51.2
259.814	30.72
260.03	55.3
260.246	-4.1
260.463	32.77
260.679	18.43
260.895	45.06
261.112	-10.24
261.328	57.34
261.544	-28.67
261.761	86.01
261.977	12.29
262.193	-40.96
262.409	69.63
262.626	-49.15
262.842	53.25
263.058	4.1
263.274	-47.1
263.49	28.67
263.707	-24.58
263.923	96.25
264.139	30.72
264.355	10.24
264.571	77.82
264.787	30.72
265.004	59.39
265.22	-40.96
265.436	4.1
265.652	22.53
265.868	-47.1
266.084	-20.48
266.3	53.25
266.516	0
266.732	-10.24
266.948	-2.05
267.164	51.2
267.38	-6.14
267.596	20.48
267.812	139.26
268.028	-2.05
268.244	-10.24
268.46	51.2
268.676	-4.1
268.892	-34.82
269.108	59.39
269.324	12.29
269.54	12.29
269.756	69.63
269.972	12.29
270.188	55.3
270.403	12.29
270.619	-49.15
270.835	8.19
271.051	75.77
271.267	-26.62
271.483	40.96
271.698	10.24
271.914	12.29
272.13	-24.58
272.346	47.1
272.562	-51.2
272.777	36.86
272.993	36.86
273.209	79.87
273.425	-51.2
273.64	-16.38
273.856	-22.53
274.072	30.72
274.287	40.96
274.503	-32.77
274.719	26.62
274.934	28.67
275.15	-47.1
275.366	63.49
275.581	-45.06
275.797	43.01
276.012	-28.67
276.228	-24.58
276.444	30.72
276.659	18.43
276.875	-57.34
277.09	20.48
277.306	49.15
277.521	10.24
277.737	-14.34
277.952	32.77
278.168	-47.1
278.383	10.24
278.599	-24.58
278.814	43.01
279.03	28.67
279.245	32.77
279.461	-32.77
279.676	32.77
279.892	-8.19
280.107	12.29
280.322	20.48
280.538	20.48
280.753	12.29
280.969	34.82
281.184	43.01
281.399	38.91
281.615	16.38
281.83	8.19
282.045	-34.82
282.26	28.67
282.476	38.91
282.691	14.34
282.906	53.25
283.122	-28.67
283.337	22.53
283.552	67.58
283.767	-18.43
283.983	4.1
284.198	8.19
284.413	51.2
284.628	40.96
284.843	71.68
285.058	40.96
285.274	6.14
285.489	30.72
285.704	47.1
285.919	22.53
286.134	2.05
286.349	-49.15
286.564	47.1
286.779	67.58
286.995	-14.34
287.21	-63.49
287.425	51.2
287.64	20.48
287.855	59.39
288.07	-49.15
288.285	57.34
288.5	8.19
288.715	18.43
288.93	57.34
289.145	26.62
289.36	28.67
289.575	-2.05
289.79	59.39
290.004	49.15
290.219	34.82
290.434	12.29
290.649	63.49
290.864	-6.14
291.079	-22.53
291.294	45.06
291.509	30.72
291.724	12.29
291.938	55.3
292.153	20.48
292.368	2.05
292.583	8.19
292.798	65.54
293.012	30.72
293.227	10.24
293.442	-49.15
293.657	36.86
293.871	71.68
294.086	-6.14
294.301	59.39
294.516	63.49
294.73	49.15
294.945	0
295.16	-6.14
295.374	69.63
295.589	-18.43
295.804	-12.29
296.018	-8.19
296.233	79.87
296.447	-8.19
296.662	14.34
296.877	6.14
297.091	20.48
297.306	-34.82
297.52	-30.72
297.735	30.72
297.949	59.39
298.164	-4.1
298.378	100.35
298.593	-45.06
298.807	47.1
299.022	10.24
299.236	63.49
299.451	0
299.665	65.54
299.88	98.3
300.094	53.25
300.309	30.72
300.523	34.82
300.737	49.15
300.952	12.29
301.166	-22.53
301.381	69.63
301.595	34.82
301.809	2.05
302.024	-30.72
302.238	10.24
302.452	2.05
302.667	69.63
302.881	26.62
303.095	47.1
303.309	-67.58
303.524	-32.77
303.738	-10.24
303.952	4.1
304.166	20.48
304.381	-34.82
304.595	4.1
304.809	-18.43
305.023	24.58
305.237	-4.1
305.452	38.91
305.666	-2.05
305.88	67.58
306.094	83.97
306.308	59.39
306.522	75.77
306.736	-6.14
306.95	47.1
307.164	-30.72
307.379	-4.1
307.593	-4.1
307.807	-18.43
308.021	63.49
308.235	24.58
308.449	8.19
308.663	0
308.877	106.49
309.091	34.82
309.305	18.43
309.519	67.58
309.733	90.11
309.947	16.38
310.161	155.65
310.374	-14.34
310.588	57.34
310.802	55.3
311.016	45.06
311.23	77.82
311.444	-40.96
311.658	2.05
311.872	77.82
312.085	12.29
312.299	38.91
312.513	100.35
312.727	57.34
312.941	8.19
313.154	-26.62
313.368	40.96
313.582	36.86
313.796	51.2
314.009	8.19
314.223	-24.58
314.437	-8.19
314.651	30.72
314.864	26.62
315.078	34.82
315.292	-24.58
315.505	24.58
315.719	12.29
315.933	73.73
316.146	69.63
316.36	12.29
316.573	8.19
316.787	38.91
317.001	18.43
317.214	14.34
317.428	-18.43
317.641	16.38
317.855	18.43
318.068	-53.25
318.282	40.96
318.495	-69.63
318.709	43.01
318.922	79.87
319.136	22.53
319.349	61.44
319.563	-24.58
319.776	49.15
319.99	63.49
320.203	-22.53
320.417	-65.53
320.63	26.62
320.843	22.53
321.057	14.34
321.27	12.29
321.483	61.44
321.697	92.16
321.91	-20.48
322.124	32.77
322.337	34.82
322.55	32.77
322.763	22.53
322.977	16.38
323.19	18.43
323.403	-6.14
323.617	-4.1
323.83	55.3
324.043	45.06
324.256	69.63
324.469	53.25
324.683	49.15
324.896	20.48
325.109	6.14
325.322	-10.24
325.535	92.16
325.748	24.58
325.962	40.96
326.175	8.19
326.388	24.58
326.601	73.73
326.814	14.34
327.027	94.21
327.24	8.19
327.453	-16.38
327.666	40.96
327.879	124.93
328.092	8.19
328.305	24.58
328.518	22.53
328.731	26.62
328.944	-4.1
329.157	86.01
329.37	16.38
329.583	49.15
329.796	131.07
330.009	-40.96
330.222	65.54
330.435	32.77
330.648	-2.05
330.861	24.58
331.073	137.21
331.286	2.05
331.499	0
331.712	18.43
331.925	65.54
332.138	22.53
332.35	73.73
332.563	51.2
332.776	106.49
332.989	18.43
333.202	-20.48
333.414	-2.05
333.627	2.05
333.84	-16.38
334.053	47.1
334.265	32.77
334.478	24.58
334.691	36.86
334.903	49.15
335.116	32.77
335.329	86.01
335.541	34.82
335.754	4.1
335.966	38.91
336.179	2.05
336.392	26.62
336.604	-67.58
336.817	-6.14
337.029	38.91
337.242	59.39
337.454	6.14
337.667	61.44
337.88	53.25
338.092	53.25
338.305	38.91
338.517	122.88
338.729	75.77
338.942	73.73
339.154	40.96
339.367	18.43
339.579	53.25
339.792	36.86
340.004	75.77
340.217	22.53
340.429	-10.24
340.641	20.48
340.854	51.2
341.066	-30.72
341.278	6.14
341.491	86.01
341.703	75.77
341.915	-30.72
342.128	55.3
342.34	65.54
342.552	28.67
342.764	47.1
342.977	6.14
343.189	20.48
343.401	22.53
343.613	-16.38
343.826	14.34
344.038	22.53
344.25	79.87
344.462	18.43
344.674	14.34
344.886	-28.67
345.099	67.58
345.311	57.34
345.523	-49.15
345.735	-65.53
345.947	-22.53
346.159	22.53
346.371	34.82
346.583	49.15
346.795	57.34
347.007	8.19
347.219	-4.1
347.431	-18.43
347.643	45.06
347.855	-24.58
348.067	34.82
348.279	10.24
348.491	83.97
348.703	-8.19
348.915	16.38
349.127	30.72
349.339	28.67
349.551	-16.38
349.763	-2.05
349.975	8.19
350.187	57.34
350.399	92.16
350.61	45.06
350.822	-63.49
351.034	36.86
351.246	75.77
351.458	86.01
351.669	86.01
351.881	63.49
352.093	40.96
352.305	36.86
352.517	12.29
352.728	61.44
352.94	-10.24
353.152	28.67
353.363	57.34
353.575	-2.05
353.787	112.64
353.999	26.62
354.21	104.45
354.422	0
354.633	49.15
354.845	-6.14
355.057	26.62
355.268	16.38
355.48	-22.53
355.692	32.77
355.903	26.62
356.115	12.29
356.326	32.77
356.538	96.25
356.749	6.14
356.961	57.34
357.172	88.06
357.384	26.62
357.595	98.3
357.807	16.38
358.018	26.62
358.23	71.68
358.441	81.92
358.653	75.77
358.864	18.43
359.075	32.77
359.287	118.78
359.498	8.19
359.709	20.48
359.921	24.58
360.132	30.72
360.344	43.01
360.555	18.43
360.766	151.55
360.977	-34.82
361.189	57.34
361.4	24.58
361.611	34.82
361.823	79.87
362.034	16.38
362.245	36.86
362.456	22.53
362.667	-18.43
362.879	-59.39
363.09	55.3
363.301	43.01
363.512	12.29
363.723	16.38
363.935	6.14
364.146	12.29
364.357	20.48
364.568	14.34
364.779	-16.38
364.99	98.3
365.201	40.96
365.412	14.34
365.623	-26.62
365.834	2.05
366.045	81.92
366.256	104.45
366.467	26.62
366.678	67.58
366.889	-32.77
367.1	24.58
367.311	53.25
367.522	-61.44
367.733	90.11
367.944	57.34
368.155	24.58
368.366	47.1
368.577	-2.05
368.788	71.68
368.999	-14.34
369.209	90.11
369.42	110.59
369.631	57.34
369.842	-18.43
370.053	53.25
370.264	10.24
370.474	-18.43
370.685	36.86
370.896	34.82
371.107	30.72
371.317	49.15
371.528	-8.19
371.739	133.12
371.95	6.14
372.16	53.25
372.371	-30.72
372.582	12.29
372.792	92.16
373.003	4.1
373.214	22.53
373.424	-75.77
373.635	16.38
373.846	12.29
374.056	55.3
374.267	53.25
374.477	61.44
374.688	12.29
374.898	-14.34
375.109	71.68
375.319	-32.77
375.53	100.35
375.74	-18.43
375.951	8.19
376.161	122.88
376.372	45.06
376.582	-34.82
376.793	28.67
377.003	83.97
377.214	20.48
377.424	40.96
377.635	53.25
377.845	-8.19
378.055	20.48
378.266	16.38
378.476	57.34
378.686	12.29
378.897	20.48
379.107	112.64
379.317	18.43
379.528	-6.14
379.738	43.01
379.948	2.05
380.158	118.78
380.369	63.49
380.579	67.58
380.789	32.77
380.999	83.97
381.21	-12.29
381.42	77.82
381.63	24.58
381.84	45.06
382.05	20.48
382.261	51.2
382.471	167.93
382.681	-20.48
382.891	57.34
383.101	38.91
383.311	-6.14
383.521	16.38
383.731	24.58
383.941	67.58
384.151	104.45
384.361	83.97
384.571	20.48
384.781	86.01
384.991	51.2
385.201	129.02
385.411	65.54
385.621	40.96
385.831	67.58
386.041	18.43
386.251	47.1
386.461	45.06
386.671	83.97
386.881	-28.67
387.091	30.72
387.301	86.01
387.511	-10.24
387.72	55.3
387.93	96.25
388.14	26.62
388.35	94.21
388.56	83.97
388.769	73.73
388.979	108.54
389.189	-63.49
389.399	63.49
389.609	163.84
389.818	8.19
390.028	49.15
390.238	63.49
390.447	-20.48
390.657	63.49
390.867	24.58
391.076	22.53
391.286	114.69
391.496	20.48
391.705	61.44
391.915	45.06
392.125	38.91
392.334	129.02
392.544	110.59
392.753	36.86
392.963	0
393.172	120.83
393.382	83.97
393.591	90.11
393.801	59.39
394.01	83.97
394.22	59.39
394.429	34.82
394.639	40.96
394.848	98.3
395.058	14.34
395.267	102.4
395.477	83.97
395.686	79.87
395.895	86.01
396.105	114.69
396.314	90.11
396.524	65.54
396.733	40.96
396.942	135.17
397.152	63.49
397.361	116.73
397.57	2.05
397.78	75.77
397.989	116.73
398.198	120.83
398.407	129.02
398.617	45.06
398.826	69.63
399.035	149.5
399.244	96.25
399.453	98.3
399.663	92.16
399.872	106.49
400.081	38.91
400.29	118.78
400.499	55.3
400.708	75.77
400.917	143.36
401.127	57.34
401.336	51.2
401.545	126.97
401.754	114.69
401.963	157.69
402.172	131.07
402.381	79.87
402.59	55.3
402.799	92.16
403.008	151.55
403.217	155.65
403.426	163.84
403.635	71.68
403.844	88.06
404.053	196.61
404.262	96.25
404.471	122.88
404.68	98.3
404.888	135.17
405.097	124.93
405.306	141.31
405.515	83.97
405.724	135.17
405.933	143.36
406.142	114.69
406.35	165.89
406.559	221.18
406.768	169.98
406.977	215.04
407.185	143.36
407.394	192.51
407.603	190.46
407.812	167.93
408.02	239.61
408.229	147.45
408.438	190.46
408.646	182.27
408.855	225.28
409.064	219.13
409.272	145.41
409.481	301.05
409.69	301.05
409.898	294.91
410.107	245.76
410.315	315.39
410.524	331.77
410.733	303.1
410.941	325.63
411.15	303.1
411.358	356.35
411.567	331.77
411.775	411.64
411.984	309.24
412.192	450.55
412.401	372.73
412.609	399.35
412.818	503.8
413.026	403.45
413.234	438.27
413.443	483.32
413.651	438.27
413.86	497.66
414.068	569.34
414.276	638.97
414.485	561.14
414.693	593.91
414.901	661.49
415.11	591.86
415.318	616.44
415.526	681.97
415.734	679.93
415.943	612.34
416.151	767.99
416.359	786.42
416.567	856.05
416.776	788.47
416.984	854
417.192	935.92
417.4	960.5
417.608	851.96
417.817	962.55
418.025	987.12
418.233	1021.94
418.441	999.41
418.649	1107.95
418.857	1196.01
419.065	1265.64
419.273	1155.05
419.481	1243.12
419.689	1343.47
419.897	1402.86
420.105	1339.37
420.313	1480.68
420.521	1505.26
420.729	1441.77
420.937	1423.34
421.145	1646.57
421.353	1630.18
421.561	1779.68
421.769	1834.98
421.977	1873.89
422.185	1871.84
422.393	2078.69
422.601	2101.22
422.809	2168.8
423.017	2101.22
423.224	2185.18
423.432	2283.49
423.64	2287.58
423.848	2469.85
424.056	2428.89
424.263	2623.45
424.471	2506.71
424.679	2641.88
424.887	2844.63
425.094	2920.4
425.302	2996.18
425.51	3059.67
425.718	3164.11
425.925	3162.06
426.133	3241.93
426.341	3502.03
426.548	3639.24
426.756	3610.57
426.964	3567.56
427.171	3862.47
427.379	4038.59
427.586	3981.25
427.794	4181.95
428.001	4517.82
428.209	4534.2
428.417	4466.62
428.624	4786.1
428.832	4730.81
429.039	4730.81
429.247	4884.41
429.454	5283.76
429.662	5502.89
429.869	5226.42
430.076	5777.32
430.284	5525.42
430.491	5746.6
430.699	6135.71
430.906	5955.49
431.114	6129.57
431.321	6426.53
431.528	6401.95
431.736	6848.41
431.943	7223.19
432.15	6864.79
432.358	7075.73
432.565	7534.48
432.772	7376.78
432.979	7731.08
433.187	7903.11
433.394	7948.17
433.601	8400.77
433.808	8437.63
434.016	8255.36
434.223	8992.63
434.43	9383.79
434.637	9338.74
434.844	9918.31
435.052	9998.18
435.259	9930.6
435.466	9975.66
435.673	10026.85
435.88	10575.71
436.087	10923.87
436.294	11075.41
436.501	10712.92
436.708	11155.29
436.915	11534.16
437.122	11847.5
437.329	11855.69
437.537	12375.88
437.743	12611.39
437.95	12474.18
438.157	13049.66
438.364	13600.56
438.571	13498.16
438.778	13475.63
438.985	14792.48
439.192	14137.13
439.399	14589.73
439.606	14489.38
439.813	15165.21
440.02	16301.83
440.227	15927.05
440.433	15580.95
440.64	16111.37
440.847	15912.72
441.054	16381.7
441.261	17434.36
441.467	17305.34
441.674	17747.7
441.881	18554.6
442.088	18523.88
442.294	17743.6
442.501	18677.47
442.708	18800.35
442.914	19787.47
443.121	20596.42
443.328	20029.13
443.534	21395.13
443.741	20907.71
443.948	20430.54
444.154	21792.44
444.361	21878.45
444.568	22140.59
444.774	21921.46
444.981	22326.96
445.187	23010.98
445.394	24041.11
445.6	23828.12
445.807	25865.85
446.013	24678.02
446.22	25163.39
446.426	26283.63
446.633	26039.92
446.839	27080.29
447.046	26322.54
447.252	27885.14
447.459	27774.55
447.665	27305.57
447.871	28999.24
448.078	30377.52
448.284	28442.19
448.491	29337.15
448.697	30557.74
448.903	31213.09
449.11	30981.67
449.316	30850.6
449.522	31141.41
449.728	31911.45
449.935	32269.84
450.141	32024.09
450.347	33105.41
450.553	32128.53
450.76	32443.92
450.966	33367.55
451.172	33246.72
451.378	33947.13
451.584	33078.79
451.791	34067.96
451.997	33885.69
452.203	34571.76
452.409	34878.96
452.615	34477.55
452.821	33056.26
453.027	32982.54
453.233	34475.51
453.44	32964.1
453.646	33461.76
453.852	33654.27
454.058	34053.62
454.264	33113.61
454.47	33938.94
454.676	32945.67
454.882	34323.96
455.088	31010.34
455.294	31823.39
455.5	32079.38
455.705	32224.79
455.911	31364.64
456.117	30668.33
456.323	30117.43
456.529	29046.34
456.735	29808.19
456.941	29163.07
457.147	28309.07
457.352	28028.5
457.558	27430.49
457.764	27719.26
457.97	27170.4
458.176	26431.08
458.381	26633.83
458.587	24872.58
458.793	25269.89
458.999	23738.01
459.204	25271.93
459.41	24905.35
459.616	23209.63
459.821	23127.71
460.027	23013.02
460.233	22687.4
460.438	21587.64
460.644	21565.11
460.85	20973.25
461.055	20475.59
461.261	20330.19
461.466	18749.15
461.672	18185.96
461.878	19719.89
462.083	18104.04
462.289	17880.82
462.494	17755.89
462.7	17041.15
462.905	16463.62
463.111	17153.79
463.316	17127.16
463.522	16756.48
463.727	16748.29
463.932	16740.1
464.138	16635.65
464.343	16690.95
464.549	16226.06
464.754	16686.85
464.959	16697.09
465.165	16551.68
465.37	15593.23
465.575	15249.18
465.781	16097.03
465.986	16080.65
466.191	15613.71
466.397	15003.42
466.602	14579.49
466.807	14964.51
467.012	14923.55
467.218	14737.18
467.423	14733.09
467.628	14956.32
467.833	15597.33
468.038	15091.48
468.244	14427.94
468.449	15079.19
468.654	14292.77
468.859	14577.44
469.064	14401.32
469.269	13954.86
469.474	13915.95
469.679	14208.81
469.885	13911.85
470.09	13987.63
470.295	13846.32
470.5	13430.58
470.705	13868.84
470.91	13537.07
471.115	13211.45
471.32	13406
471.525	13170.49
471.73	12955.45
471.935	12879.68
472.139	12445.51
472.344	12506.95
472.549	12502.85
472.754	12425.03
472.959	12189.51
473.164	11845.45
473.369	11775.82
473.574	12107.59
473.778	12074.82
473.983	12050.25
474.188	11896.65
474.393	11431.76
474.598	11247.44
474.802	11304.79
475.007	11327.32
475.212	11208.53
475.417	10899.29
475.621	10905.43
475.826	10848.09
476.031	10694.49
476.235	10489.7
476.44	10397.54
476.645	10336.1
476.849	10565.47
477.054	10092.39
477.259	10172.26
477.463	10131.3
477.668	9910.12
477.872	10149.73
478.077	9850.73
478.282	9777
478.486	9742.19
478.691	9494.38
478.895	9357.17
479.1	9283.44
479.304	9424.75
479.509	9035.64
479.713	9434.99
479.918	8988.53
480.122	9004.92
480.326	9078.65
480.531	8957.82
480.735	8918.9
480.94	8865.66
481.144	9158.52
481.348	8763.26
481.553	8802.17
481.757	8763.26
481.961	8781.69
482.166	8931.19
482.37	8667
482.574	8542.08
482.778	8863.61
482.983	8890.23
483.187	8777.59
483.391	8798.07
483.595	8787.83
483.8	8626.04
484.004	8714.11
484.208	8697.72
484.412	8691.58
484.616	8744.83
484.821	8781.69
485.025	8437.63
485.229	8576.89
485.433	8710.01
485.637	8593.28
485.841	8521.6
486.045	8808.31
486.249	8626.04
486.453	8609.66
486.657	8638.33
486.861	8753.02
487.065	8568.7
487.269	8695.68
487.473	8439.68
487.677	9006.97
487.881	8636.28
488.085	8593.28
488.289	8566.65
488.493	8695.68
488.697	8712.06
488.901	8750.97
489.105	8619.9
489.309	8771.45
489.512	8908.66
489.716	8675.2
489.92	8681.34
490.124	8707.96
490.328	8826.75
490.531	8763.26
490.735	8920.95
490.939	9088.89
491.143	8888.18
491.346	9002.87
491.55	9201.52
491.754	9013.11
491.958	9062.26
492.161	9101.17
492.365	9074.55
492.569	9095.03
492.772	9097.08
492.976	9211.76
493.18	9299.83
493.383	9564.01
493.587	9492.34
493.79	9455.47
493.994	9488.24
494.197	9543.53
494.401	9762.67
494.605	9682.8
494.808	9860.97
495.012	9641.84
495.215	9762.67
495.419	9938.79
495.622	9895.78
495.825	9901.93
496.029	9885.55
496.232	10268.52
496.436	10385.25
496.639	10471.26
496.843	10348.39
497.046	10618.72
497.249	10790.75
497.453	10739.55
497.656	10870.62
497.859	10745.69
498.063	11075.41
498.266	11439.95
498.469	11171.67
498.673	11284.31
498.876	11421.52
499.079	11509.58
499.282	11802.44
499.485	11888.46
499.689	11806.54
499.892	12087.11
500.095	12189.51
500.298	12328.77
500.501	12396.35
500.705	12703.55
500.908	12838.72
501.111	12816.19
501.314	13088.57
501.517	12988.22
501.72	13360.95
501.923	13324.08
502.126	13635.38
502.329	13817.65
502.532	13915.95
502.735	13995.82
502.938	14149.42
503.141	14335.78
503.344	14409.51
503.547	14513.95
503.75	14720.8
503.953	14753.57
504.156	15005.47
504.359	15013.66
504.562	15124.25
504.765	15392.53
504.968	15750.93
505.17	15580.95
505.373	15669.01
505.576	16088.84
505.779	16295.69
505.982	16492.29
506.185	16627.46
506.387	16375.56
506.59	16989.95
506.793	17069.82
506.996	16885.5
507.198	17657.59
507.401	17422.07
507.604	17731.31
507.807	18278.12
508.009	18349.8
508.212	18357.99
508.415	18417.38
508.617	18824.93
508.82	18657
509.022	18800.35
509.225	19461.85
509.428	19140.32
509.63	19287.77
509.833	19472.09
510.035	20002.51
510.238	19986.13
510.44	20387.53
510.643	20149.96
510.845	20537.03
511.048	20502.22
511.25	21135.04
511.453	20909.76
511.655	21714.61
511.858	21468.86
512.06	21749.43
512.262	21692.08
512.465	21776.05
512.667	22193.84
512.87	22273.71
513.072	22539.94
513.274	23064.22
513.477	22863.52
513.679	23213.73
513.881	23500.44
514.084	23492.25
514.286	23420.57
514.488	23762.58
514.69	24422.03
514.893	24684.17
515.095	24516.23
515.297	24880.77
515.499	24860.29
515.701	25286.27
515.904	25370.24
516.106	25390.72
516.308	25517.69
516.51	25867.89
516.712	25869.94
516.914	26222.19
517.116	26601.07
517.318	26816.1
517.52	26769
517.722	26973.8
517.925	27170.4
518.127	27502.17
518.329	27766.36
518.531	27713.11
518.733	28190.29
518.935	28044.88
519.136	28325.46
519.338	28450.38
519.54	28773.96
519.742	29120.07
519.944	28890.7
520.146	29386.3
520.348	29765.18
520.55	30006.84
520.752	29998.65
520.954	30596.65
521.155	30043.7
521.357	30772.78
521.559	30684.72
521.761	30897.7
521.963	31073.83
522.164	30809.64
522.366	31360.55
522.568	31688.22
522.77	31723.04
522.971	32362
523.173	31979.03
523.375	32529.94
523.576	31966.74
523.778	32019.99
523.98	32888.33
524.181	32615.95
524.383	32562.7
524.584	33058.31
524.786	32982.54
524.988	33256.96
525.189	33256.96
525.391	33355.27
525.592	34082.3
525.794	33707.52
525.995	33873.4
526.197	34119.16
526.398	34186.74
526.6	34348.53
526.801	34059.77
527.003	34567.66
527.204	34670.06
527.406	34690.54
527.607	34809.32
527.808	35050.99
528.01	34678.25
528.211	34582
528.412	35184.1
528.614	35284.45
528.815	35124.71
529.016	35446.24
529.218	35300.84
529.419	35595.74
529.62	35358.18
529.822	35583.46
530.023	35294.69
530.224	35659.23
530.425	35624.42
530.626	35356.13
530.828	35300.84
531.029	35642.85
531.23	35991
531.431	35698.14
531.632	36021.72
531.833	35757.53
532.035	36091.35
532.236	35898.84
532.437	35847.64
532.638	35771.87
532.839	35999.19
533.04	35929.56
533.241	35823.07
533.442	36539.86
533.643	36056.54
533.844	35761.63
534.045	35911.13
534.246	35456.48
534.447	36240.85
534.648	35845.6
534.849	36134.36
535.05	35749.34
535.251	36011.48
535.451	35524.07
535.652	36177.37
535.853	36062.68
536.054	35812.83
536.255	35861.98
536.456	35620.32
536.657	36353.49
536.857	36097.5
537.058	35395.04
537.259	35956.19
537.46	36195.8
537.66	36201.94
537.861	36060.63
538.062	35751.39
538.263	36206.04
538.463	35767.77
538.664	35730.91
538.865	36160.98
539.065	36027.87
539.266	35696.1
539.466	36025.82
539.667	35202.53
539.868	36328.92
540.068	35845.6
540.269	35919.32
540.469	35995.1
540.67	36066.78
540.87	35847.64
541.071	35587.55
541.271	36034.01
541.472	35685.86
541.672	35796.45
541.873	35610.08
542.073	35327.46
542.274	36070.87
542.474	35747.29
542.675	35511.78
542.875	35677.66
543.075	35630.56
543.276	35278.31
543.476	35802.59
543.676	35558.88
543.877	35544.55
544.077	35261.93
544.277	35352.04
544.478	35765.73
544.678	35904.99
544.878	35411.43
545.078	35808.73
545.279	35272.17
545.479	35259.88
545.679	35468.77
545.879	35356.13
546.079	35583.46
546.28	35149.29
546.48	35069.42
546.68	35315.17
546.88	35218.92
547.08	35237.35
547.28	35446.24
547.48	34850.28
547.68	35534.31
547.88	35233.25
548.081	35313.13
548.281	35339.75
548.481	35137
548.681	35108.33
548.881	35063.27
549.081	34854.38
549.28	34944.49
549.48	35491.3
549.68	35020.27
549.88	36007.39
550.08	34586.1
550.28	35294.69
550.48	34735.6
550.68	35597.79
550.88	35014.12
551.08	34973.16
551.279	34786.8
551.479	34928.11
551.679	34772.46
551.879	34676.21
552.079	35270.12
552.278	34698.73
552.478	35331.56
552.678	35173.86
552.878	35210.73
553.077	34938.35
553.277	34596.34
553.477	35380.71
553.676	34784.75
553.876	34977.26
554.076	34651.63
554.275	34555.38
554.475	34360.82
554.674	34907.63
554.874	34534.9
555.074	34518.51
555.273	34792.94
555.473	35061.22
555.672	34610.67
555.872	34719.21
556.071	34332.15
556.271	35042.79
556.47	34076.15
556.67	34151.93
556.869	34508.27
557.068	34678.25
557.268	33857.02
557.467	34033.14
557.667	34239.99
557.866	34510.32
558.065	34018.81
558.265	34100.73
558.464	33840.64
558.663	34117.11
558.863	33744.38
559.062	34588.14
559.261	33891.83
559.461	34391.54
559.66	33646.08
559.859	33836.54
560.058	33512.96
560.258	33926.65
560.457	33437.19
560.656	33435.14
560.855	33586.69
561.054	33648.13
561.253	33345.03
561.453	33750.52
561.652	33805.82
561.851	33357.31
562.05	33357.31
562.249	33127.94
562.448	33617.41
562.647	33334.79
562.846	33209.86
563.045	33099.27
563.244	33234.44
563.443	33402.37
563.642	32955.91
563.841	33173
564.04	33000.97
564.239	33756.67
564.438	32826.89
564.637	33003.02
564.836	33228.29
565.035	32667.15
565.234	32704.01
565.432	32595.47
565.631	32816.65
565.83	32620.05
566.029	32665.1
566.228	32622.09
566.427	32681.49
566.625	32462.35
566.824	31985.18
567.023	32445.97
567.222	32013.85
567.42	32609.81
567.619	32405.01
567.818	32159.25
568.016	32146.97
568.215	32331.28
568.414	31919.64
568.612	32179.73
568.811	31723.04
569.01	31675.93
569.208	31847.96
569.407	31780.38
569.605	31569.44
569.804	31942.17
570.002	31573.53
570.201	31637.02
570.4	31145.51
570.598	31161.89
570.797	31131.17
570.995	31706.65
571.193	31204.9
571.392	31518.24
571.59	30862.89
571.789	30760.49
571.987	31245.86
572.186	31059.49
572.384	30955.05
572.582	31299.11
572.781	30914.09
572.979	30387.76
573.177	30541.36
573.376	30971.43
573.574	30346.8
573.772	30799.4
573.971	30490.16
574.169	30522.93
574.367	30623.28
574.565	30428.72
574.763	30297.65
574.962	30129.72
575.16	30170.68
575.358	30099
575.556	29414.98
575.754	30473.77
575.952	29759.03
576.151	30113.33
576.349	29427.26
576.547	29877.82
576.745	29767.23
576.943	29705.79
577.141	29423.17
577.339	29548.09
577.537	29302.34
577.735	29576.76
577.933	29144.64
578.131	29087.3
578.329	29247.04
578.527	29040.2
578.725	29312.58
578.923	29038.15
579.121	29066.82
579.319	28849.74
579.516	29126.21
579.714	28933.7
579.912	28595.79
580.11	28868.17
580.308	28925.51
580.506	28479.05
580.704	28120.66
580.901	28446.29
581.099	28300.88
581.297	28423.76
581.495	28077.65
581.692	28239.44
581.89	28350.03
582.088	27885.14
582.285	27860.57
582.483	27749.98
582.681	27778.65
582.878	27684.44
583.076	27426.4
583.274	27872.85
583.471	27313.76
583.669	27483.74
583.866	27528.8
584.064	27586.14
584.262	27070.05
584.459	27309.66
584.657	27369.05
584.854	27686.49
585.052	26771.05
585.249	27250.27
585.447	27299.42
585.644	26781.29
585.841	26709.61
586.039	27129.44
586.236	26525.29
586.434	26861.16
586.631	26725.99
586.828	26377.84
587.026	26478.19
587.223	26506.86
587.42	26379.89
587.618	26396.27
587.815	25998.96
588.012	25892.47
588.21	26183.28
588.407	26482.28
588.604	25589.37
588.801	25777.78
588.999	25732.73
589.196	25685.62
589.393	25718.39
589.59	25429.63
589.787	25495.16
589.984	25206.4
590.182	24952.45
590.379	25364.09
590.576	25095.81
590.773	25183.87
590.97	24761.99
591.167	25157.25
591.364	24768.13
591.561	25036.42
591.758	24747.65
591.955	24749.7
592.152	25028.23
592.349	24434.32
592.546	25054.85
592.743	24585.86
592.94	24391.31
593.137	24331.92
593.334	24641.16
593.531	24385.16
593.727	24458.89
593.924	24395.4
594.121	24061.58
594.318	24209.04
594.515	23551.64
594.712	23979.67
594.908	23920.27
595.105	23850.64
595.302	23627.42
595.499	23723.67
595.696	23559.83
595.892	23457.43
596.089	23432.86
596.286	23324.32
596.482	23273.12
596.679	23013.02
596.876	23293.6
597.072	22945.44
597.269	22908.58
597.466	22873.76
597.662	22935.2
597.859	22791.84
598.055	22857.38
598.252	22603.43
598.448	22417.07
598.645	22558.38
598.841	22466.22
599.038	22523.56
599.234	22345.39
599.431	22140.59
599.627	22294.19
599.824	22386.35
600.02	21974.7
600.217	22124.21
600.413	22228.65
600.609	22068.91
600.806	21798.58
601.002	21651.13
601.198	21800.63
601.395	21595.83
601.591	21628.6
601.787	21462.71
601.984	21391.03
602.18	21663.41
602.376	21089.98
602.572	21292.73
602.769	21479.1
602.965	21038.78
603.161	21032.64
603.357	21026.5
603.553	20870.85
603.75	21010.11
603.946	20889.28
604.142	20993.73
604.338	20502.22
604.534	20690.63
604.73	20666.05
604.926	20481.74
605.122	20379.34
605.318	20643.52
605.514	20129.48
605.71	20258.51
605.906	20041.42
606.102	20274.89
606.298	20182.73
606.494	20051.66
606.69	20156.11
606.886	20066
607.082	20092.62
607.278	20127.44
607.474	19889.87
607.67	19902.16
607.866	19584.73
608.062	19898.06
608.257	19844.82
608.453	19760.85
608.649	19846.87
608.845	19597.01
609.041	19564.25
609.236	19685.08
609.432	19721.94
609.628	19451.61
609.824	19478.23
610.019	19214.04
610.215	19207.9
610.411	19355.35
610.606	19220.19
610.802	19252.95
610.998	19504.85
611.193	19644.12
611.389	19029.73
611.584	19293.91
611.78	19011.29
611.976	18947.81
612.171	19150.56
612.367	19050.21
612.562	18912.99
612.758	18722.53
612.953	18591.46
613.149	18921.18
613.344	18980.57
613.539	19011.29
613.735	18700
613.93	18857.7
614.126	18681.57
614.321	18876.13
614.517	18689.76
614.712	18519.78
614.907	18401
615.103	18652.9
615.298	18433.77
615.493	18800.35
615.688	18179.82
615.884	18505.45
616.079	18106.09
616.274	18407.14
616.47	18235.11
616.665	18161.39
616.86	18300.65
617.055	18437.86
617.25	17981.17
617.445	18319.08
617.641	17921.77
617.836	17893.1
618.031	17897.2
618.226	18040.56
618.421	17811.18
618.616	17911.53
618.811	17473.27
619.006	17917.68
619.201	17479.41
619.396	17585.91
619.591	17202.94
619.786	17612.53
619.981	17225.47
620.176	17368.82
620.371	17024.76
620.566	17291
620.761	17116.92
620.956	17135.35
621.151	16789.25
621.346	17022.72
621.541	16721.66
621.735	17010.43
621.93	16449.28
622.125	16256.78
622.32	16217.86
622.515	16387.85
622.709	16252.68
622.904	16152.33
623.099	16074.51
623.294	16060.17
623.488	15896.33
623.683	15818.51
623.878	15759.12
624.072	15740.69
624.267	15644.43
624.462	15560.47
624.656	15404.82
624.851	15451.92
625.046	15300.37
625.24	15068.95
625.435	14874.4
625.629	15118.11
625.824	15015.71
626.018	15165.21
626.213	14704.42
626.407	14923.55
626.602	14593.83
626.796	14481.19
626.991	14571.3
627.185	14391.08
627.38	14272.29
627.574	14153.51
627.768	14313.25
627.963	14233.38
628.157	14165.8
628.352	13963.05
628.546	13924.14
628.74	13961
628.935	13535.03
629.129	13590.32
629.323	13580.08
629.517	13582.13
629.712	13440.82
629.906	13453.11
630.1	13258.55
630.294	13315.89
630.489	13180.73
630.683	13418.29
630.877	12947.26
631.071	12914.49
631.265	13076.28
631.459	12902.2
631.653	12910.4
631.848	12955.45
632.042	12914.49
632.236	12580.67
632.43	12633.92
632.624	12392.26
632.818	12263.24
633.012	12224.33
633.206	12146.5
633.4	12410.69
633.594	12197.7
633.788	11992.9
633.982	12246.85
634.176	11913.03
634.369	11964.23
634.563	11933.51
634.757	11685.71
634.951	11794.25
635.145	11714.38
635.339	12001.1
635.533	11464.53
635.726	11646.8
635.92	11265.88
636.114	11509.58
636.308	11269.97
636.501	11128.66
636.695	11339.6
636.889	11302.74
637.083	11122.52
637.276	11095.89
637.47	10989.4
637.664	10884.95
637.857	10981.21
638.051	10698.59
638.244	10680.16
638.438	10827.61
638.632	10547.04
638.825	10526.56
639.019	10454.88
639.212	10506.08
639.406	10493.79
639.599	10477.41
639.793	10497.89
639.986	10209.12
640.18	10323.81
640.373	10211.17
640.567	10248.04
640.76	10168.16
640.954	9957.22
641.147	9940.84
641.34	9777
641.534	9969.51
641.727	9889.64
641.92	9736.04
642.114	9842.54
642.307	9863.02
642.5	9576.3
642.694	9525.1
642.887	9480.05
643.08	9613.17
643.273	9557.87
643.467	9527.15
643.66	9310.07
643.853	9316.21
644.046	9105.27
644.239	9355.12
644.432	9246.58
644.626	9168.76
644.819	8980.34
645.012	9127.8
645.205	9119.6
645.398	9115.51
645.591	8968.06
645.784	8716.16
645.977	8898.42
646.17	8755.07
646.363	8519.55
646.556	8460.16
646.749	8603.52
646.942	8681.34
647.135	8486.78
647.328	8378.24
647.521	8480.64
647.714	8269.7
647.907	8497.02
648.099	8339.33
648.292	8265.6
648.485	8355.71
648.678	8142.72
648.871	8210.31
649.064	8183.68
649.256	8277.89
649.449	8198.02
649.642	7954.31
649.835	8021.89
650.027	7843.72
650.22	7892.87
650.413	7909.26
650.605	7765.9
650.798	7640.97
650.991	7563.15
651.183	7718.79
651.376	7610.25
651.568	7589.77
651.761	7567.24
651.954	7604.11
652.146	7391.12
652.339	7552.91
652.531	7387.02
652.724	7311.25
652.916	7296.91
653.109	7155.6
653.301	7235.47
653.494	7415.69
653.686	6872.98
653.879	7249.81
654.071	7047.06
654.263	7022.48
654.456	6961.05
654.648	7149.46
654.84	6721.43
655.033	6664.09
655.225	6811.54
655.417	6885.27
655.61	6778.78
655.802	6758.3
655.994	6645.66
656.186	6758.3
656.379	6426.53
656.571	6610.84
656.763	6555.55
656.955	6594.46
657.148	6440.86
657.34	6399.9
657.532	6358.94
657.724	6332.32
657.916	6440.86
658.108	6594.46
658.3	6262.69
658.492	6328.22
658.684	6086.56
658.876	6236.06
659.068	6186.91
659.26	6086.56
659.452	6059.94
659.644	5959.59
659.836	6055.84
660.028	6055.84
660.22	5898.15
660.412	5869.48
660.604	5822.38
660.796	6010.79
660.988	5818.28
661.18	5769.13
661.372	5904.29
661.563	5922.73
661.755	5642.15
661.947	5980.07
662.139	5799.85
662.331	5654.44
662.522	5707.69
662.714	5787.56
662.906	5648.3
663.097	5576.62
663.289	5476.27
663.481	5408.69
663.673	5455.79
663.864	5332.91
664.056	5529.52
664.247	5328.81
664.439	5312.43
664.631	5363.63
664.822	5330.86
665.014	5289.9
665.205	5212.08
665.397	5296.05
665.588	5138.35
665.78	5113.78
665.971	5193.65
666.163	5263.28
666.354	5105.59
666.546	5046.19
666.737	5029.81
666.929	5121.97
667.12	5033.91
667.311	5021.62
667.503	4999.09
667.694	4976.56
667.885	4958.13
668.077	4865.97
668.268	4990.9
668.459	4775.86
668.651	4722.62
668.842	4865.97
669.033	4874.17
669.224	4827.06
669.416	4829.11
669.607	4728.76
669.798	4759.48
669.989	4642.75
670.18	4589.5
670.371	4706.23
670.563	4542.39
670.754	4775.86
670.945	4712.38
671.136	4759.48
671.327	4833.21
671.518	4593.59
671.709	4618.17
671.9	4538.3
672.091	4661.18
672.282	4472.76
672.473	4409.28
672.664	4356.03
672.855	4491.2
673.046	4485.05
673.237	4421.56
673.428	4536.25
673.619	4503.48
673.809	4335.55
674	4425.66
674.191	4370.37
674.382	4132.8
674.573	4319.17
674.764	4218.82
674.954	4265.92
675.145	4315.07
675.336	4390.85
675.527	4149.18
675.717	4212.67
675.908	4155.33
676.099	4087.75
676.289	4177.86
676.48	4036.55
676.671	4171.71
676.861	4184
677.052	4079.55
677.243	4001.73
677.433	4171.71
677.624	4028.35
677.814	4120.51
678.005	3964.87
678.195	3915.72
678.386	3962.82
678.576	4011.97
678.767	3989.44
678.957	4016.07
679.148	4100.03
679.338	3917.76
679.529	3870.66
679.719	3878.85
679.909	3911.62
680.1	4081.6
680.29	3973.06
680.481	3831.75
680.671	4009.92
680.861	3905.48
681.052	4034.5
681.242	3798.98
681.432	3841.99
681.622	3833.8
681.813	3921.86
682.003	3796.93
682.193	3653.58
682.383	3755.97
682.573	3936.2
682.764	3882.95
682.954	3823.56
683.144	3852.23
683.334	3731.4
683.524	3672.01
683.714	3872.71
683.904	3727.3
684.094	3760.07
684.284	3520.46
684.474	3827.65
684.664	3596.23
684.854	3725.26
685.044	3680.2
685.234	3762.12
685.424	3575.75
685.614	3579.85
685.804	3637.19
685.994	3559.37
686.184	3596.23
686.374	3561.42
686.564	3620.81
686.753	3487.69
686.943	3448.78
687.133	3530.7
687.323	3479.5
687.513	3596.23
687.702	3422.16
687.892	3352.52
688.082	3385.29
688.272	3440.59
688.461	3377.1
688.651	3391.44
688.841	3315.66
689.03	3346.38
689.22	3465.16
689.41	3362.76
689.599	3432.4
689.789	3254.22
689.979	3356.62
690.168	3239.89
690.358	3213.26
690.547	3110.86
690.737	3262.41
690.926	3246.03
691.116	3153.87
691.305	3284.94
691.495	3069.91
691.684	3143.63
691.874	3104.72
692.063	3162.06
692.252	3024.85
692.442	3131.34
692.631	2967.51
692.82	2987.99
693.01	3114.96
693.199	2861.01
693.388	3121.1
693.578	3053.52
693.767	3061.71
693.956	2957.27
694.146	2904.02
694.335	2912.21
694.524	2918.36
694.713	2979.79
694.902	2797.53
695.092	2891.73
695.281	2914.26
695.47	2873.3
695.659	2867.16
695.848	2854.87
696.037	2826.2
696.226	2772.95
696.415	2688.98
696.604	2793.43
696.793	2625.5
696.982	2734.04
697.171	2746.33
697.36	2789.33
697.549	2654.17
697.738	2596.82
697.927	2486.23
698.116	2643.93
698.305	2637.78
698.494	2703.32
698.683	2619.35
698.872	2639.83
699.061	2580.44
699.25	2600.92
699.438	2629.59
699.627	2629.59
699.816	2564.06
700.005	2475.99
700.193	2596.82
700.382	2578.39
700.571	2607.06
700.76	2609.11
700.948	2547.67
701.137	2633.69
701.326	2584.54
701.514	2418.65
701.703	2500.57
701.892	2402.27
702.08	2566.1
702.269	2525.15
702.457	2508.76
702.646	2486.23
702.834	2508.76
703.023	2457.56
703.212	2449.37
703.4	2416.6
703.589	2279.39
703.777	2547.67
703.965	2365.4
704.154	2553.82
704.342	2426.84
704.531	2340.83
704.719	2342.88
704.907	2527.19
705.096	2375.64
705.284	2326.49
705.472	2301.92
705.661	2432.99
705.849	2478.04
706.037	2473.95
706.226	2369.5
706.414	2398.17
706.602	2416.6
706.79	2342.88
706.979	2303.96
707.167	2310.11
707.355	2197.47
707.543	2385.88
707.731	2357.21
707.919	2371.55
708.107	2332.64
708.296	2490.33
708.484	2316.25
708.672	2279.39
708.86	2295.77
709.048	2322.4
709.236	2271.2
709.424	2224.09
709.612	2324.44
709.8	2289.63
709.988	2277.34
710.176	2346.97
710.364	2344.92
710.551	2279.39
710.739	2252.77
710.927	2197.47
711.115	2322.4
711.303	2377.69
711.491	2222.05
711.679	2234.33
711.866	2220
712.054	2297.82
712.242	2301.92
712.43	2306.01
712.617	2297.82
712.805	2207.71
712.993	2283.49
713.181	2144.22
713.368	2293.73
713.556	2250.72
713.744	2320.35
713.931	2318.3
714.119	2289.63
714.306	2297.82
714.494	2226.14
714.682	2306.01
714.869	2138.08
715.057	2361.31
715.244	2201.57
715.432	2299.87
715.619	2181.09
715.807	2336.73
715.994	2285.53
716.182	2222.05
716.369	2215.9
716.556	2189.28
716.744	2136.03
716.931	2287.58
717.119	2254.81
717.306	2351.07
717.493	2279.39
717.681	2349.02
717.868	2232.29
718.055	2156.51
718.242	2318.3
718.43	2289.63
718.617	2320.35
718.804	2334.68
718.991	2220
719.179	2359.26
719.366	2156.51
719.553	2349.02
719.74	2195.42
719.927	2195.42
720.114	2170.85
720.301	2162.65
720.488	2308.06
720.676	2215.9
720.863	2260.96
721.05	2334.68
721.237	2320.35
721.424	2258.91
721.611	2324.44
721.798	2209.76
721.985	2260.96
722.172	2228.19
722.358	2166.75
722.545	2281.44
722.732	2256.86
722.919	2332.64
723.106	2306.01
723.293	2252.77
723.48	2310.11
723.667	2244.57
723.853	2353.12
724.04	2306.01
724.227	2306.01
724.414	2383.84
724.6	2346.97
724.787	2346.97
724.974	2285.53
725.161	2320.35
725.347	2242.53
725.534	2205.66
725.72	2279.39
725.907	2322.4
726.094	2308.06
726.28	2392.03
726.467	2336.73
726.653	2205.66
726.84	2314.2
727.027	2316.25
727.213	2351.07
727.4	2371.55
727.586	2246.62
727.773	2367.45
727.959	2387.93
728.145	2267.1
728.332	2263.01
728.518	2459.61
728.705	2381.79
728.891	2381.79
729.077	2334.68
729.264	2322.4
729.45	2353.12
729.636	2396.12
729.823	2463.71
730.009	2367.45
730.195	2422.75
730.382	2363.36
730.568	2420.7
730.754	2508.76
730.94	2402.27
731.126	2451.42
731.313	2424.8
731.499	2437.08
731.685	2416.6
731.871	2373.6
732.057	2389.98
732.243	2504.67
732.429	2455.51
732.615	2523.1
732.801	2408.41
732.987	2410.46
733.173	2504.67
733.359	2527.19
733.545	2478.04
733.731	2480.09
733.917	2508.76
734.103	2537.43
734.289	2463.71
734.475	2484.19
734.661	2562.01
734.847	2365.4
735.033	2480.09
735.219	2525.15
735.404	2525.15
735.59	2602.97
735.776	2478.04
735.962	2508.76
736.148	2580.44
736.333	2553.82
736.519	2584.54
736.705	2514.91
736.89	2611.16
737.076	2416.6
737.262	2482.14
737.447	2564.06
737.633	2529.24
737.819	2568.15
738.004	2598.87
738.19	2625.5
738.375	2516.95
738.561	2650.07
738.747	2602.97
738.932	2584.54
739.118	2682.84
739.303	2547.67
739.489	2652.12
739.674	2576.34
739.859	2576.34
740.045	2504.67
740.23	2645.98
740.416	2572.25
740.601	2617.3
740.786	2547.67
740.972	2488.28
741.157	2633.69
741.342	2469.85
741.528	2510.81
741.713	2625.5
741.898	2621.4
742.084	2629.59
742.269	2475.99
742.454	2623.45
742.639	2607.06
742.824	2416.6
743.01	2564.06
743.195	2680.79
743.38	2594.78
743.565	2566.1
743.75	2607.06
743.935	2521.05
744.12	2670.55
744.305	2625.5
744.49	2514.91
744.675	2516.95
744.86	2656.22
745.045	2609.11
745.23	2435.03
745.415	2602.97
745.6	2551.77
745.785	2445.27
745.97	2510.81
746.155	2475.99
746.34	2598.87
746.525	2420.7
746.71	2541.53
746.895	2482.14
747.079	2529.24
747.264	2457.56
747.449	2467.8
747.634	2447.32
747.819	2422.75
748.003	2430.94
748.188	2588.63
748.373	2398.17
748.557	2389.98
748.742	2392.03
748.927	2332.64
749.111	2340.83
749.296	2379.74
749.481	2400.22
749.665	2367.45
749.85	2332.64
750.034	2289.63
750.219	2172.89
750.404	2240.48
750.588	2308.06
750.773	2224.09
750.957	2291.68
751.141	2281.44
751.326	2318.3
751.51	2142.18
751.695	2217.95
751.879	2183.13
752.064	2271.2
752.248	2166.75
752.432	2164.7
752.617	2242.53
752.801	2238.43
752.985	2138.08
753.17	2162.65
753.354	2107.36
753.538	2074.59
753.722	2095.07
753.907	2140.13
754.091	2154.46
754.275	2088.93
754.459	2009.06
754.643	2045.92
754.828	2058.21
755.012	1923.04
755.196	1988.58
755.38	2009.06
755.564	2011.11
755.748	1986.53
755.932	1923.04
756.116	1959.91
756.3	1890.28
756.484	1935.33
756.668	1806.31
756.852	1814.5
757.036	1859.56
757.22	1857.51
757.404	1751.01
757.588	1800.16
757.772	1783.78
757.956	1742.82
758.14	1845.22
758.323	1834.98
758.507	1859.56
758.691	1849.32
758.875	1810.4
759.059	1839.08
759.242	1816.55
759.426	1732.58
759.61	1712.1
759.794	1728.49
759.977	1722.34
760.161	1783.78
760.345	1703.91
760.528	1699.81
760.712	1585.13
760.895	1787.88
761.079	1667.05
761.263	1687.53
761.446	1531.88
761.63	1701.86
761.813	1665
761.997	1597.42
762.18	1535.98
762.364	1601.51
762.547	1597.42
762.731	1587.18
762.914	1593.32
763.098	1611.75
763.281	1499.11
763.464	1624.04
763.648	1617.9
763.831	1593.32
764.015	1589.22
764.198	1576.94
764.381	1558.5
764.564	1568.74
764.748	1558.5
764.931	1591.27
765.114	1538.02
765.297	1484.78
765.481	1495.02
765.664	1540.07
765.847	1366
766.03	1468.39
766.213	1462.25
766.397	1441.77
766.58	1431.53
766.763	1521.64
766.946	1394.67
767.129	1431.53
767.312	1372.14
767.495	1464.3
767.678	1417.19
767.861	1515.5
768.044	1417.19
768.227	1484.78
768.41	1353.71
768.593	1490.92
768.776	1437.67
768.959	1343.47
769.142	1421.29
769.324	1312.75
769.507	1325.04
769.69	1269.74
769.873	1343.47
770.056	1394.67
770.239	1241.07
770.421	1327.08
770.604	1310.7
770.787	1370.09
770.97	1370.09
771.152	1269.74
771.335	1316.84
771.518	1171.44
771.7	1417.19
771.883	1263.6
772.066	1239.02
772.248	1230.83
772.431	1308.65
772.613	1138.67
772.796	1216.49
772.978	1294.32
773.161	1327.08
773.343	1261.55
773.526	1226.73
773.708	1171.44
773.891	1087.47
774.073	1175.53
774.256	1214.45
774.438	1159.15
774.621	1222.64
774.803	1144.81
774.985	1155.05
775.168	1112.05
775.35	1200.11
775.532	1107.95
775.715	1077.23
775.897	1218.54
776.079	1040.37
776.261	1130.48
776.444	1130.48
776.626	1099.76
776.808	1083.38
776.99	903.15
777.173	1030.13
777.355	1089.52
777.537	1060.85
777.719	987.12
777.901	948.21
778.083	1054.7
778.265	948.21
778.447	948.21
778.629	903.15
778.811	972.79
778.993	974.83
779.175	921.59
779.357	1005.55
779.539	1001.46
779.721	915.44
779.903	903.15
780.085	829.43
780.267	890.87
780.449	858.1
780.631	876.53
780.812	802.8
780.994	872.43
781.176	841.72
781.358	829.43
781.54	819.19
781.721	798.71
781.903	843.76
782.085	841.72
782.267	849.91
782.448	811
782.63	825.33
782.812	790.52
782.993	886.77
783.175	784.37
783.357	776.18
783.538	868.34
783.72	745.46
783.901	765.94
784.083	710.65
784.264	778.23
784.446	722.93
784.627	679.93
784.809	696.31
784.99	673.78
785.172	782.32
785.353	788.47
785.535	686.07
785.716	702.45
785.897	634.87
786.079	722.93
786.26	673.78
786.441	681.97
786.623	555
786.804	671.73
786.985	645.11
787.167	598.01
787.348	628.73
787.529	573.43
787.71	657.4
787.891	673.78
788.073	665.59
788.254	559.1
788.435	616.44
788.616	552.95
788.797	530.42
788.978	563.19
789.159	632.82
789.34	593.91
789.522	563.19
789.703	479.22
789.884	559.1
790.065	546.81
790.246	567.29
790.427	542.71
790.607	524.28
790.788	579.58
790.969	522.23
791.15	595.96
791.331	471.03
791.512	456.7
791.693	446.46
791.874	464.89
792.054	593.91
792.235	540.66
792.416	473.08
792.597	475.13
792.778	442.36
792.958	542.71
793.139	479.22
793.32	595.96
793.5	460.79
793.681	583.67
793.862	411.64
794.042	507.9
794.223	419.83
794.404	497.66
794.584	415.74
794.765	378.87
794.945	528.38
795.126	440.31
795.306	573.43
795.487	464.89
795.667	356.35
795.848	405.5
796.028	462.84
796.209	360.44
796.389	475.13
796.57	407.55
796.75	360.44
796.93	450.55
797.111	421.88
797.291	360.44
797.471	501.75
797.652	399.35
797.832	395.26
798.012	393.21
798.192	372.73
798.373	358.39
798.553	382.97
798.733	407.55
798.913	409.59
799.093	358.39
799.274	370.68
799.454	325.63
799.634	430.07
799.814	417.79
799.994	385.02
800.174	366.59
800.354	374.78
800.534	376.83
800.714	346.11
800.894	325.63
801.074	264.19
801.254	270.33
801.434	352.25
801.614	323.58
801.794	325.63
801.974	985.07
802.154	323.58
802.334	333.82
802.514	305.15
802.693	305.15
802.873	362.49
803.053	327.67
803.233	374.78
803.413	272.38
803.592	358.39
803.772	210.94
803.952	348.15
804.131	288.76
804.311	344.06
804.491	335.87
804.67	266.24
804.85	219.13
805.03	350.2
805.209	284.67
805.389	280.57
805.568	342.01
805.748	286.72
805.928	260.09
806.107	272.38
806.287	294.91
806.466	331.77
806.646	260.09
806.825	276.48
807.004	264.19
807.184	276.48
807.363	268.28
807.543	251.9
807.722	235.52
807.901	247.8
808.081	276.48
808.26	235.52
808.439	290.81
808.619	223.23
808.798	239.61
808.977	299
809.156	262.14
809.336	288.76
809.515	276.48
809.694	200.7
809.873	184.32
810.052	286.72
810.231	317.44
810.411	256
810.59	303.1
810.769	278.52
810.948	194.56
811.127	157.69
811.306	219.13
811.485	208.89
811.664	272.38
811.843	126.97
812.022	198.65
812.201	268.28
812.38	262.14
812.559	200.7
812.737	235.52
812.916	198.65
813.095	178.17
813.274	225.28
813.453	309.24
813.632	237.56
813.811	260.09
813.989	202.75
814.168	186.37
814.347	133.12
814.526	233.47
814.704	270.33
814.883	301.05
815.062	161.79
815.24	225.28
815.419	268.28
815.598	161.79
815.776	169.98
815.955	192.51
816.133	98.3
816.312	176.13
816.49	239.61
816.669	155.65
816.847	184.32
817.026	184.32
817.204	139.26
817.383	204.8
817.561	104.45
817.74	149.5
817.918	206.84
818.097	223.23
818.275	217.08
818.453	247.8
818.632	188.41
818.81	79.87
818.988	174.08
819.167	229.37
819.345	139.26
819.523	126.97
819.701	137.21
819.879	264.19
820.058	196.61
820.236	229.37
820.414	180.22
820.592	188.41
820.77	131.07
820.948	163.84
821.127	131.07
821.305	135.17
821.483	96.25
821.661	120.83
821.839	178.17
822.017	202.75
822.195	169.98
822.373	126.97
822.551	217.08
822.729	237.56
822.907	77.82
823.085	145.41
823.262	43.01
823.44	186.37
823.618	186.37
823.796	186.37
823.974	100.35
824.152	178.17
824.329	71.68
824.507	172.03
824.685	155.65
824.863	190.46
825.04	116.73
825.218	124.93
825.396	149.5
825.574	139.26
825.751	114.69
825.929	174.08
826.107	86.01
826.284	147.45
826.462	145.41
826.639	229.37
826.817	75.77
826.994	94.21
827.172	100.35
827.349	196.61
827.527	161.79
827.704	147.45
827.882	178.17
828.059	176.13
828.237	122.88
828.414	139.26
828.591	118.78
828.769	131.07
828.946	124.93
829.124	112.64
829.301	147.45
829.478	151.55
829.655	147.45
829.833	83.97
830.01	92.16
830.187	124.93
830.364	69.63
830.542	65.54
830.719	139.26
830.896	38.91
831.073	124.93
831.25	176.13
831.427	182.27
831.604	92.16
831.782	79.87
831.959	100.35
832.136	65.54
832.313	137.21
832.49	110.59
832.667	92.16
832.844	65.54
833.021	24.58
833.198	167.93
833.374	139.26
833.551	59.39
833.728	124.93
833.905	161.79
834.082	129.02
834.259	81.92
834.436	176.13
834.612	92.16
834.789	133.12
834.966	65.54
835.143	116.73
835.319	55.3
835.496	104.45
835.673	129.02
835.85	90.11
836.026	22.53
836.203	122.88
836.38	79.87
836.556	149.5
836.733	63.49
836.909	157.69
837.086	55.3
837.262	86.01
837.439	129.02
837.616	47.1
837.792	32.77
837.968	61.44
838.145	73.73
838.321	51.2
838.498	83.97
838.674	176.13
838.851	94.21
839.027	149.5
839.203	110.59
839.38	65.54
839.556	149.5
839.732	137.21
839.909	51.2
840.085	186.37
840.261	73.73
840.437	98.3
840.614	110.59
840.79	120.83
840.966	137.21
841.142	59.39
841.318	32.77
841.494	26.62
841.671	110.59
841.847	12.29
842.023	-38.91
842.199	59.39
842.375	49.15
842.551	81.92
842.727	18.43
842.903	86.01
843.079	79.87
843.255	110.59
843.431	8.19
843.607	114.69
843.783	-10.24
843.959	75.77
844.134	61.44
844.31	100.35
844.486	38.91
844.662	47.1
844.838	43.01
845.013	83.97
845.189	77.82
845.365	14.34
845.541	8.19
845.716	108.54
845.892	69.63
846.068	28.67
846.244	40.96
846.419	116.73
846.595	45.06
846.77	98.3
846.946	124.93
847.122	96.25
847.297	0
847.473	102.4
847.648	38.91
847.824	92.16
847.999	8.19
848.175	112.64
848.35	71.68
848.526	122.88
848.701	96.25
848.876	65.54
849.052	94.21
849.227	71.68
849.403	77.82
849.578	63.49
849.753	16.38
849.929	59.39
850.104	-20.48
850.279	79.87
850.454	-57.34
850.63	73.73
850.805	77.82
850.98	59.39
851.155	26.62
851.33	-6.14
851.505	67.58
851.681	73.73
851.856	69.63
852.031	100.35
852.206	69.63
852.381	86.01
852.556	32.77
852.731	43.01
852.906	40.96
853.081	43.01
853.256	77.82
853.431	24.58
853.606	-2.05
853.781	-4.1
853.956	24.58
854.131	24.58
854.305	34.82
854.48	75.77
854.655	24.58
854.83	12.29
855.005	-18.43
855.18	53.25
855.354	61.44
855.529	-26.62
855.704	-22.53
855.879	69.63
856.053	-38.91
856.228	53.25
856.403	28.67
856.577	28.67
856.752	-32.77
856.926	2.05
857.101	61.44
857.276	-14.34
857.45	43.01
857.625	57.34
857.799	14.34
857.974	100.35
858.148	-10.24
858.323	90.11
858.497	18.43
858.672	4.1
858.846	51.2
859.02	-14.34
859.195	20.48
859.369	55.3
859.543	-2.05
859.718	55.3
859.892	22.53
860.066	65.54
860.241	12.29
860.415	59.39
860.589	30.72
860.763	69.63
860.938	73.73
861.112	30.72
861.286	-8.19
861.46	24.58
861.634	32.77
861.808	71.68
861.982	26.62
862.157	43.01
862.331	40.96
862.505	12.29
862.679	0
862.853	61.44
863.027	79.87
863.201	114.69
863.375	20.48
863.549	38.91
863.722	-2.05
863.896	12.29
864.07	2.05
864.244	-6.14
864.418	-14.34
864.592	26.62
864.766	59.39
864.939	43.01
865.113	30.72
865.287	38.91
865.461	12.29
865.634	45.06
865.808	-61.44
865.982	-6.14
866.156	-6.14
866.329	24.58
866.503	8.19
866.676	73.73
866.85	86.01
867.024	116.73
867.197	34.82
867.371	-10.24
867.544	47.1
867.718	-20.48
867.891	71.68
868.065	-10.24
868.238	0
868.412	4.1
868.585	-32.77
868.759	-73.73
868.932	-24.58
869.105	-6.14
869.279	-18.43
869.452	-16.38
869.625	10.24
869.799	-2.05
869.972	2.05
870.145	20.48
870.319	34.82
870.492	-6.14
870.665	-28.67
870.838	-53.25
871.011	-34.82
871.185	4.1
871.358	22.53
871.531	20.48
871.704	-16.38
871.877	43.01
872.05	-4.1
872.223	-94.21
872.396	32.77
872.569	16.38
872.742	0
872.915	30.72
873.088	-14.34
873.261	61.44
873.434	38.91
873.607	-22.53
873.78	49.15
873.953	69.63
874.126	-18.43
874.299	-14.34
874.471	0
874.644	32.77
874.817	-40.96
874.99	118.78
875.163	-63.49
875.335	65.54
875.508	-38.91
875.681	49.15
875.853	-18.43
876.026	-69.63
876.199	-16.38
876.371	38.91
876.544	-30.72
876.717	-67.58
876.889	57.34
877.062	-59.39
877.234	-26.62
877.407	0
877.579	-8.19
877.752	-10.24
877.924	-16.38
878.097	18.43
878.269	26.62
878.442	34.82
878.614	-28.67
878.786	16.38
878.959	4.1
879.131	40.96
879.303	-49.15
879.476	137.21
879.648	47.1
879.82	-16.38
879.993	30.72
880.165	-49.15
880.337	26.62
880.509	0
880.681	-38.91
880.854	-20.48
881.026	55.3
881.198	69.63
881.37	-28.67
881.542	65.54
881.714	-88.06
881.886	-14.34
882.058	24.58
882.23	-12.29
882.402	-10.24
882.574	-65.53
882.746	-45.06
882.918	20.48
883.09	20.48
883.262	14.34
883.434	-22.53
883.606	-47.1
883.778	-2.05
883.95	-63.49
884.122	2.05
884.293	4.1
884.465	40.96
884.637	59.39
884.809	2.05
884.98	49.15
885.152	45.06
885.324	-8.19
885.496	-55.3
885.667	8.19
885.839	-2.05
886.011	40.96
886.182	-14.34
886.354	65.54
886.525	57.34
886.697	16.38
886.869	-22.53
887.04	81.92
887.212	-8.19
887.383	49.15
887.555	-2.05
887.726	14.34
887.897	-38.91
888.069	28.67
888.24	2.05
888.412	-8.19
888.583	10.24
888.754	6.14
888.926	-22.53
889.097	-63.49
889.268	-8.19
889.44	-12.29
889.611	-49.15
889.782	-8.19
889.953	-36.86
890.125	22.53
890.296	-75.77
890.467	-22.53
890.638	6.14
890.809	-4.1
890.98	-8.19
891.151	-10.24
891.323	59.39
891.494	30.72
891.665	10.24
891.836	-28.67
892.007	26.62
892.178	-28.67
892.349	-12.29
892.52	22.53
892.691	4.1
892.862	-47.1
893.032	-55.3
893.203	-2.05
893.374	32.77
893.545	-6.14
893.716	-34.82
893.887	2.05
894.057	28.67
894.228	-10.24
894.399	-67.58
894.57	-12.29
894.74	-22.53
894.911	36.86
895.082	-10.24
895.253	-24.58
895.423	-16.38
895.594	73.73
895.764	-30.72
895.935	-100.35
896.106	38.91
896.276	-49.15
896.447	-69.63
896.617	8.19
896.788	-53.25
896.958	16.38
897.129	-122.88
897.299	6.14
897.47	38.91
897.64	-30.72
897.81	-86.01
897.981	36.86
898.151	-14.34
898.322	-45.06
898.492	-26.62
898.662	-26.62
898.832	-79.87
899.003	-38.91
899.173	0
899.343	-8.19
899.513	-110.59
