Data from USB4F104151__65__12-42-10-428.txt Node

Date: Fri Mar 14 12:42:10 EDT 2025
User: louis
Spectrometer: USB4F10415
Trigger mode: 4
Integration Time (sec): 3.000000E-2
Scans to average: 1
Electric dark correction enabled: true
Nonlinearity correction enabled: false
Boxcar width: 0
XAxis mode: Wavelengths
Number of Pixels in Spectrum: 3648
>>>>>Begin Spectral Data<<<<<
178.204	-162.64
178.424	-162.64
178.644	-162.64
178.864	-121.68
179.084	-191.31
179.304	-17.24
179.524	-39.76
179.744	-41.81
179.964	27.82
180.184	-39.76
180.404	29.87
180.624	3.24
180.844	38.06
181.064	-7
181.283	25.77
181.503	-25.43
181.723	46.25
181.943	-29.52
182.163	74.92
182.383	9.39
182.602	40.11
182.822	62.63
183.042	31.91
183.262	25.77
183.482	38.06
183.701	25.77
183.921	27.82
184.141	1.19
184.361	81.07
184.58	-9.05
184.8	3.24
185.02	-2.9
185.239	81.07
185.459	-41.81
185.679	62.63
185.898	7.34
186.118	31.91
186.338	3.24
186.557	60.59
186.777	17.58
186.997	31.91
187.216	62.63
187.436	48.3
187.655	97.45
187.875	17.58
188.095	-25.43
188.314	83.11
188.534	7.34
188.753	-9.05
188.973	-2.9
189.192	103.59
189.412	-2.9
189.631	-43.86
189.851	-4.95
190.07	23.72
190.29	-7
190.509	-7
190.729	-15.19
190.948	89.26
191.168	93.35
191.387	31.91
191.607	66.73
191.826	15.53
192.045	50.35
192.265	46.25
192.484	31.91
192.704	31.91
192.923	-52.05
193.142	91.31
193.362	101.55
193.581	79.02
193.8	13.48
194.02	81.07
194.239	-17.24
194.458	-31.57
194.678	31.91
194.897	74.92
195.116	56.49
195.335	50.35
195.555	7.34
195.774	42.15
195.993	50.35
196.212	15.53
196.432	103.59
196.651	48.3
196.87	33.96
197.089	31.91
197.308	89.26
197.528	42.15
197.747	-56.15
197.966	81.07
198.185	91.31
198.404	-31.57
198.623	62.63
198.842	38.06
199.062	66.73
199.281	19.63
199.5	91.31
199.719	36.01
199.938	50.35
200.157	19.63
200.376	31.91
200.595	64.68
200.814	29.87
201.033	42.15
201.252	74.92
201.471	7.34
201.69	62.63
201.909	36.01
202.128	44.2
202.347	-4.95
202.566	38.06
202.785	-35.67
203.004	-33.62
203.223	130.22
203.442	36.01
203.661	44.2
203.879	40.11
204.098	76.97
204.317	66.73
204.536	31.91
204.755	46.25
204.974	107.69
205.193	60.59
205.411	38.06
205.63	46.25
205.849	9.39
206.068	87.21
206.287	-7
206.505	29.87
206.724	64.68
206.943	3.24
207.162	33.96
207.381	79.02
207.599	25.77
207.818	23.72
208.037	-43.86
208.255	13.48
208.474	83.11
208.693	64.68
208.911	-25.43
209.13	29.87
209.349	50.35
209.567	89.26
209.786	31.91
210.005	1.19
210.223	15.53
210.442	1.19
210.661	19.63
210.879	-33.62
211.098	42.15
211.316	81.07
211.535	33.96
211.753	42.15
211.972	-15.19
212.191	50.35
212.409	54.44
212.628	44.2
212.846	9.39
213.065	-2.9
213.283	81.07
213.502	-31.57
213.72	44.2
213.938	-4.95
214.157	48.3
214.375	17.58
214.594	-4.95
214.812	56.49
215.031	52.39
215.249	-17.24
215.467	48.3
215.686	-39.76
215.904	89.26
216.122	-7
216.341	81.07
216.559	81.07
216.778	99.5
216.996	76.97
217.214	15.53
217.432	-35.67
217.651	93.35
217.869	19.63
218.087	-66.39
218.306	56.49
218.524	-23.38
218.742	3.24
218.96	58.54
219.179	44.2
219.397	23.72
219.615	46.25
219.833	85.16
220.051	33.96
220.27	42.15
220.488	-2.9
220.706	52.39
220.924	44.2
221.142	40.11
221.36	21.67
221.578	99.5
221.796	31.91
222.015	93.35
222.233	36.01
222.451	99.5
222.669	15.53
222.887	50.35
223.105	-80.72
223.323	33.96
223.541	25.77
223.759	3.24
223.977	9.39
224.195	31.91
224.413	103.59
224.631	48.3
224.849	-9.05
225.067	56.49
225.285	-7
225.503	31.91
225.721	38.06
225.939	19.63
226.157	29.87
226.375	187.56
226.592	-72.53
226.81	44.2
227.028	64.68
227.246	52.39
227.464	68.78
227.682	95.4
227.9	54.44
228.117	-9.05
228.335	-35.67
228.553	89.26
228.771	66.73
228.989	81.07
229.206	31.91
229.424	-15.19
229.642	19.63
229.86	81.07
230.077	83.11
230.295	42.15
230.513	64.68
230.731	42.15
230.948	64.68
231.166	115.88
231.384	33.96
231.601	42.15
231.819	62.63
232.037	81.07
232.254	-39.76
232.472	-13.14
232.689	1.19
232.907	15.53
233.125	-23.38
233.342	107.69
233.56	-0.85
233.777	-62.29
233.995	40.11
234.213	19.63
234.43	50.35
234.648	15.53
234.865	72.87
235.083	83.11
235.3	40.11
235.518	44.2
235.735	126.12
235.953	56.49
236.17	38.06
236.388	64.68
236.605	13.48
236.822	17.58
237.04	54.44
237.257	13.48
237.475	17.58
237.692	38.06
237.909	9.39
238.127	40.11
238.344	38.06
238.562	107.69
238.779	-17.24
238.996	33.96
239.214	81.07
239.431	23.72
239.648	25.77
239.865	36.01
240.083	-19.29
240.3	97.45
240.517	-15.19
240.735	64.68
240.952	76.97
241.169	23.72
241.386	-0.85
241.603	23.72
241.821	31.91
242.038	60.59
242.255	40.11
242.472	-4.95
242.689	21.67
242.907	25.77
243.124	54.44
243.341	17.58
243.558	52.39
243.775	74.92
243.992	-25.43
244.209	-7
244.426	124.07
244.643	13.48
244.86	27.82
245.078	-13.14
245.295	42.15
245.512	70.83
245.729	42.15
245.946	54.44
246.163	68.78
246.38	56.49
246.597	52.39
246.814	107.69
247.031	-7
247.248	13.48
247.464	93.35
247.681	113.83
247.898	44.2
248.115	60.59
248.332	40.11
248.549	74.92
248.766	93.35
248.983	130.22
249.2	1.19
249.417	36.01
249.633	23.72
249.85	23.72
250.067	117.93
250.284	105.64
250.501	-11.09
250.717	87.21
250.934	13.48
251.151	56.49
251.368	-13.14
251.585	66.73
251.801	-23.38
252.018	46.25
252.235	60.59
252.451	-23.38
252.668	81.07
252.885	95.4
253.102	11.43
253.318	9.39
253.535	21.67
253.752	-2.9
253.968	-2.9
254.185	-82.77
254.401	11.43
254.618	79.02
254.835	44.2
255.051	91.31
255.268	52.39
255.484	13.48
255.701	68.78
255.917	5.29
256.134	40.11
256.351	36.01
256.567	-0.85
256.784	23.72
257	-17.24
257.217	81.07
257.433	-37.72
257.65	-17.24
257.866	15.53
258.082	83.11
258.299	-13.14
258.515	17.58
258.732	83.11
258.948	76.97
259.165	-9.05
259.381	-41.81
259.597	21.67
259.814	29.87
260.03	-60.24
260.246	36.01
260.463	15.53
260.679	60.59
260.895	42.15
261.112	23.72
261.328	-17.24
261.544	13.48
261.761	60.59
261.977	66.73
262.193	23.72
262.409	87.21
262.626	11.43
262.842	33.96
263.058	-13.14
263.274	111.78
263.49	-21.33
263.707	107.69
263.923	31.91
264.139	33.96
264.355	66.73
264.571	50.35
264.787	33.96
265.004	81.07
265.22	-76.63
265.436	68.78
265.652	15.53
265.868	44.2
266.084	17.58
266.3	-21.33
266.516	-52.05
266.732	93.35
266.948	54.44
267.164	89.26
267.38	50.35
267.596	103.59
267.812	126.12
268.028	5.29
268.244	-31.57
268.46	81.07
268.676	5.29
268.892	52.39
269.108	3.24
269.324	-29.52
269.54	-2.9
269.756	113.83
269.972	9.39
270.188	21.67
270.403	9.39
270.619	54.44
270.835	62.63
271.051	-21.33
271.267	25.77
271.483	-0.85
271.698	85.16
271.914	33.96
272.13	119.98
272.346	-25.43
272.562	13.48
272.777	68.78
272.993	52.39
273.209	79.02
273.425	27.82
273.64	54.44
273.856	46.25
274.072	42.15
274.287	-56.15
274.503	25.77
274.719	3.24
274.934	-17.24
275.15	-58.2
275.366	83.11
275.581	-62.29
275.797	19.63
276.012	-27.48
276.228	25.77
276.444	70.83
276.659	42.15
276.875	-68.44
277.09	-2.9
277.306	25.77
277.521	52.39
277.737	89.26
277.952	56.49
278.168	31.91
278.383	27.82
278.599	13.48
278.814	117.93
279.03	-9.05
279.245	76.97
279.461	44.2
279.676	1.19
279.892	-11.09
280.107	74.92
280.322	46.25
280.538	81.07
280.753	36.01
280.969	60.59
281.184	31.91
281.399	21.67
281.615	79.02
281.83	31.91
282.045	-39.76
282.26	62.63
282.476	-19.29
282.691	21.67
282.906	23.72
283.122	27.82
283.337	3.24
283.552	21.67
283.767	23.72
283.983	-0.85
284.198	56.49
284.413	58.54
284.628	-27.48
284.843	74.92
285.058	17.58
285.274	79.02
285.489	85.16
285.704	70.83
285.919	-19.29
286.134	21.67
286.349	58.54
286.564	-23.38
286.779	38.06
286.995	29.87
287.21	-4.95
287.425	9.39
287.64	-60.24
287.855	62.63
288.07	38.06
288.285	91.31
288.5	68.78
288.715	97.45
288.93	21.67
289.145	21.67
289.36	40.11
289.575	7.34
289.79	54.44
290.004	40.11
290.219	29.87
290.434	64.68
290.649	-33.62
290.864	25.77
291.079	21.67
291.294	-23.38
291.509	-15.19
291.724	46.25
291.938	-29.52
292.153	9.39
292.368	7.34
292.583	56.49
292.798	89.26
293.012	66.73
293.227	21.67
293.442	7.34
293.657	13.48
293.871	42.15
294.086	44.2
294.301	72.87
294.516	64.68
294.73	50.35
294.945	60.59
295.16	44.2
295.374	72.87
295.589	50.35
295.804	50.35
296.018	33.96
296.233	113.83
296.447	89.26
296.662	-15.19
296.877	119.98
297.091	48.3
297.306	7.34
297.52	54.44
297.735	56.49
297.949	60.59
298.164	105.64
298.378	19.63
298.593	-29.52
298.807	33.96
299.022	7.34
299.236	58.54
299.451	7.34
299.665	68.78
299.88	81.07
300.094	13.48
300.309	29.87
300.523	48.3
300.737	-23.38
300.952	9.39
301.166	70.83
301.381	62.63
301.595	48.3
301.809	11.43
302.024	5.29
302.238	9.39
302.452	105.64
302.667	50.35
302.881	7.34
303.095	64.68
303.309	124.07
303.524	5.29
303.738	56.49
303.952	-47.96
304.166	21.67
304.381	25.77
304.595	85.16
304.809	72.87
305.023	38.06
305.237	-35.67
305.452	21.67
305.666	103.59
305.88	64.68
306.094	-4.95
306.308	56.49
306.522	99.5
306.736	50.35
306.95	103.59
307.164	-0.85
307.379	54.44
307.593	56.49
307.807	76.97
308.021	50.35
308.235	31.91
308.449	-56.15
308.663	23.72
308.877	70.83
309.091	21.67
309.305	13.48
309.519	-0.85
309.733	25.77
309.947	5.29
310.161	72.87
310.374	-9.05
310.588	97.45
310.802	-31.57
311.016	-7
311.23	48.3
311.444	-2.9
311.658	111.78
311.872	79.02
312.085	64.68
312.299	27.82
312.513	40.11
312.727	62.63
312.941	-2.9
313.154	-13.14
313.368	33.96
313.582	19.63
313.796	128.17
314.009	95.4
314.223	-21.33
314.437	54.44
314.651	76.97
314.864	11.43
315.078	7.34
315.292	-37.72
315.505	9.39
315.719	87.21
315.933	-33.62
316.146	31.91
316.36	15.53
316.573	13.48
316.787	29.87
317.001	-29.52
317.214	5.29
317.428	62.63
317.641	-35.67
317.855	48.3
318.068	64.68
318.282	56.49
318.495	13.48
318.709	105.64
318.922	31.91
319.136	70.83
319.349	68.78
319.563	25.77
319.776	83.11
319.99	-9.05
320.203	38.06
320.417	36.01
320.63	13.48
320.843	72.87
321.057	33.96
321.27	109.74
321.483	-0.85
321.697	132.26
321.91	33.96
322.124	27.82
322.337	40.11
322.55	56.49
322.763	74.92
322.977	58.54
323.19	-52.05
323.403	21.67
323.617	19.63
323.83	66.73
324.043	25.77
324.256	36.01
324.469	52.39
324.683	76.97
324.896	25.77
325.109	115.88
325.322	25.77
325.535	40.11
325.748	21.67
325.962	74.92
326.175	33.96
326.388	87.21
326.601	7.34
326.814	76.97
327.027	76.97
327.24	58.54
327.453	29.87
327.666	72.87
327.879	33.96
328.092	95.4
328.305	93.35
328.518	97.45
328.731	48.3
328.944	9.39
329.157	33.96
329.37	99.5
329.583	91.31
329.796	107.69
330.009	9.39
330.222	27.82
330.435	58.54
330.648	48.3
330.861	89.26
331.073	7.34
331.286	109.74
331.499	58.54
331.712	31.91
331.925	54.44
332.138	68.78
332.35	25.77
332.563	52.39
332.776	-39.76
332.989	83.11
333.202	101.55
333.414	-54.1
333.627	52.39
333.84	-2.9
334.053	56.49
334.265	29.87
334.478	7.34
334.691	44.2
334.903	33.96
335.116	38.06
335.329	21.67
335.541	13.48
335.754	72.87
335.966	1.19
336.179	27.82
336.392	66.73
336.604	50.35
336.817	87.21
337.029	-7
337.242	103.59
337.454	36.01
337.667	13.48
337.88	91.31
338.092	76.97
338.305	42.15
338.517	76.97
338.729	7.34
338.942	36.01
339.154	7.34
339.367	23.72
339.579	76.97
339.792	33.96
340.004	42.15
340.217	68.78
340.429	1.19
340.641	9.39
340.854	5.29
341.066	23.72
341.278	36.01
341.491	29.87
341.703	19.63
341.915	23.72
342.128	87.21
342.34	46.25
342.552	50.35
342.764	54.44
342.977	81.07
343.189	27.82
343.401	31.91
343.613	3.24
343.826	81.07
344.038	-45.91
344.25	105.64
344.462	42.15
344.674	91.31
344.886	40.11
345.099	23.72
345.311	70.83
345.523	33.96
345.735	5.29
345.947	46.25
346.159	3.24
346.371	31.91
346.583	27.82
346.795	140.46
347.007	-29.52
347.219	-0.85
347.431	13.48
347.643	50.35
347.855	-31.57
348.067	171.18
348.279	17.58
348.491	68.78
348.703	76.97
348.915	31.91
349.127	19.63
349.339	5.29
349.551	33.96
349.763	15.53
349.975	15.53
350.187	-13.14
350.399	72.87
350.61	25.77
350.822	64.68
351.034	99.5
351.246	81.07
351.458	44.2
351.669	81.07
351.881	29.87
352.093	42.15
352.305	62.63
352.517	-0.85
352.728	91.31
352.94	91.31
353.152	-0.85
353.363	33.96
353.575	1.19
353.787	23.72
353.999	113.83
354.21	58.54
354.422	56.49
354.633	5.29
354.845	66.73
355.057	13.48
355.268	46.25
355.48	48.3
355.692	29.87
355.903	-4.95
356.115	48.3
356.326	50.35
356.538	134.31
356.749	89.26
356.961	122.02
357.172	48.3
357.384	74.92
357.595	111.78
357.807	79.02
358.018	72.87
358.23	7.34
358.441	101.55
358.653	79.02
358.864	11.43
359.075	36.01
359.287	38.06
359.498	107.69
359.709	-29.52
359.921	25.77
360.132	19.63
360.344	27.82
360.555	40.11
360.766	76.97
360.977	-52.05
361.189	87.21
361.4	19.63
361.611	-19.29
361.823	117.93
362.034	54.44
362.245	11.43
362.456	15.53
362.667	15.53
362.879	68.78
363.09	27.82
363.301	81.07
363.512	52.39
363.723	15.53
363.935	-7
364.146	68.78
364.357	25.77
364.568	17.58
364.779	-0.85
364.99	74.92
365.201	29.87
365.412	85.16
365.623	81.07
365.834	119.98
366.045	81.07
366.256	40.11
366.467	91.31
366.678	56.49
366.889	36.01
367.1	56.49
367.311	29.87
367.522	-0.85
367.733	105.64
367.944	50.35
368.155	62.63
368.366	99.5
368.577	13.48
368.788	101.55
368.999	17.58
369.209	76.97
369.42	81.07
369.631	107.69
369.842	48.3
370.053	11.43
370.264	122.02
370.474	50.35
370.685	-47.96
370.896	138.41
371.107	40.11
371.317	15.53
371.528	58.54
371.739	62.63
371.95	107.69
372.16	25.77
372.371	3.24
372.582	38.06
372.792	21.67
373.003	122.02
373.214	-19.29
373.424	13.48
373.635	76.97
373.846	103.59
374.056	36.01
374.267	117.93
374.477	19.63
374.688	46.25
374.898	42.15
375.109	-11.09
375.319	15.53
375.53	54.44
375.74	-9.05
375.951	27.82
376.161	54.44
376.372	91.31
376.582	66.73
376.793	54.44
377.003	76.97
377.214	-13.14
377.424	79.02
377.635	85.16
377.845	3.24
378.055	44.2
378.266	48.3
378.476	46.25
378.686	89.26
378.897	52.39
379.107	142.5
379.317	109.74
379.528	58.54
379.738	105.64
379.948	-43.86
380.158	140.46
380.369	-7
380.579	103.59
380.789	81.07
380.999	134.31
381.21	27.82
381.42	99.5
381.63	79.02
381.84	87.21
382.05	107.69
382.261	66.73
382.471	103.59
382.681	95.4
382.891	52.39
383.101	62.63
383.311	31.91
383.521	95.4
383.731	85.16
383.941	9.39
384.151	152.74
384.361	62.63
384.571	13.48
384.781	52.39
384.991	111.78
385.201	126.12
385.411	97.45
385.621	48.3
385.831	93.35
386.041	9.39
386.251	36.01
386.461	97.45
386.671	44.2
386.881	62.63
387.091	60.59
387.301	54.44
387.511	89.26
387.72	60.59
387.93	107.69
388.14	42.15
388.35	62.63
388.56	25.77
388.769	15.53
388.979	21.67
389.189	56.49
389.399	42.15
389.609	91.31
389.818	48.3
390.028	19.63
390.238	93.35
390.447	58.54
390.657	95.4
390.867	99.5
391.076	76.97
391.286	58.54
391.496	29.87
391.705	119.98
391.915	115.88
392.125	74.92
392.334	19.63
392.544	81.07
392.753	107.69
392.963	60.59
393.172	33.96
393.382	60.59
393.591	146.6
393.801	79.02
394.01	128.17
394.22	11.43
394.429	50.35
394.639	9.39
394.848	29.87
395.058	81.07
395.267	64.68
395.477	89.26
395.686	95.4
395.895	91.31
396.105	81.07
396.314	40.11
396.524	93.35
396.733	95.4
396.942	85.16
397.152	122.02
397.361	148.65
397.57	56.49
397.78	107.69
397.989	64.68
398.198	160.94
398.407	93.35
398.617	105.64
398.826	107.69
399.035	56.49
399.244	142.5
399.453	117.93
399.663	132.26
399.872	40.11
400.081	99.5
400.29	138.41
400.499	23.72
400.708	224.42
400.917	29.87
401.127	64.68
401.336	62.63
401.545	156.84
401.754	165.03
401.963	179.37
402.172	113.83
402.381	40.11
402.59	140.46
402.799	89.26
403.008	175.27
403.217	79.02
403.426	103.59
403.635	44.2
403.844	74.92
404.053	160.94
404.262	193.7
404.471	185.51
404.68	214.18
404.888	191.66
405.097	152.74
405.306	189.61
405.515	214.18
405.724	134.31
405.933	162.98
406.142	144.55
406.35	171.18
406.559	236.71
406.768	95.4
406.977	246.95
407.185	251.05
407.394	124.07
407.603	79.02
407.812	222.38
408.02	232.62
408.229	205.99
408.438	273.57
408.646	240.81
408.855	287.91
409.064	228.52
409.272	224.42
409.481	341.16
409.69	279.72
409.898	269.48
410.107	390.31
410.315	261.29
410.524	304.29
410.733	367.78
410.941	320.68
411.15	443.56
411.358	435.36
411.567	386.21
411.775	427.17
411.984	404.64
412.192	421.03
412.401	404.64
412.609	478.37
412.818	464.04
413.026	443.56
413.234	464.04
413.443	548
413.651	591.01
413.86	531.62
414.068	570.53
414.276	599.2
414.485	644.26
414.693	728.22
414.901	707.74
415.11	717.98
415.318	740.51
415.526	801.95
415.734	793.76
415.943	883.87
416.151	808.09
416.359	883.87
416.567	853.15
416.776	847.01
416.984	908.44
417.192	1037.47
417.4	969.88
417.608	908.44
417.817	1008.8
418.025	1072.28
418.233	1156.25
418.441	1150.11
418.649	1213.59
418.857	1281.18
419.065	1350.81
419.273	1297.56
419.481	1342.61
419.689	1504.4
419.897	1571.99
420.105	1569.94
420.313	1496.21
420.521	1703.06
420.729	1645.71
420.937	1701.01
421.145	1744.02
421.353	1961.1
421.561	1997.96
421.769	1977.48
421.977	2100.36
422.185	1938.57
422.393	2180.23
422.601	2374.79
422.809	2290.82
423.017	2260.1
423.224	2385.03
423.432	2567.3
423.64	2593.92
423.848	2657.41
424.056	2712.71
424.263	2782.34
424.471	2866.3
424.679	3097.72
424.887	3140.73
425.094	3179.64
425.302	3247.23
425.51	3458.17
425.718	3355.77
425.925	3462.26
426.133	3517.56
426.341	3871.86
426.548	4039.79
426.756	4025.45
426.964	4185.19
427.171	4144.24
427.379	4346.98
427.586	4459.62
427.794	4566.12
428.001	4908.13
428.209	5024.86
428.417	4883.55
428.624	5233.75
428.832	5325.91
429.039	5293.15
429.247	5262.43
429.454	5715.03
429.662	5952.59
429.869	5680.21
430.076	6085.71
430.284	6083.66
430.491	6212.68
430.699	6569.03
430.906	6573.13
431.114	6653
431.321	6974.53
431.528	6913.09
431.736	7566.39
431.943	7928.88
432.15	7603.25
432.358	7627.83
432.565	8195.12
432.772	8049.71
432.979	8696.87
433.187	8698.92
433.394	8789.03
433.601	9290.78
433.808	9444.38
434.016	9305.12
434.223	9935.89
434.43	10218.51
434.637	9903.12
434.844	10820.61
435.052	11041.79
435.259	10798.09
435.466	10937.35
435.673	10837
435.88	11592.7
436.087	12170.22
436.294	12202.99
436.501	11877.37
436.708	12047.35
436.915	12442.6
437.122	13263.84
437.329	12753.9
437.537	13435.87
437.743	13470.69
437.95	13601.76
438.157	14367.7
438.364	14889.93
438.571	14468.05
438.778	14949.32
438.985	16231.35
439.192	15608.76
439.399	16272.31
439.606	15655.87
439.813	16581.55
440.02	17587.1
440.227	17212.32
440.433	17185.7
440.64	17681.31
440.847	17642.4
441.054	17779.61
441.261	19004.3
441.467	19147.65
441.674	19444.61
441.881	19932.03
442.088	19882.88
442.294	19837.82
442.501	20421.49
442.708	20650.86
442.914	21523.3
443.121	22602.58
443.328	21724
443.534	23616.32
443.741	23040.84
443.948	22567.76
444.154	24079.16
444.361	24052.54
444.568	24281.91
444.774	24525.62
444.981	24494.9
445.187	25338.66
445.394	26235.67
445.6	25797.41
445.807	28529.4
446.013	27040.53
446.22	27896.58
446.426	28893.94
446.633	29233.9
446.839	29782.76
447.046	29057.78
447.252	30169.82
447.459	30116.58
447.665	30753.49
447.871	31593.16
448.078	33188.53
448.284	31341.26
448.491	32430.78
448.697	33606.31
448.903	34159.27
449.11	34073.25
449.316	33702.57
449.522	33921.7
449.728	35144.34
449.935	35345.04
450.141	35455.63
450.347	36149.89
450.553	35037.84
450.76	35830.41
450.966	36786.81
451.172	36375.17
451.378	37014.13
451.584	36829.82
451.791	37268.08
451.997	37124.72
452.203	37931.62
452.409	37993.06
452.615	37739.11
452.821	36201.09
453.027	35871.37
453.233	38132.32
453.44	36291.2
453.646	36717.18
453.852	37175.92
454.058	37796.46
454.264	36530.81
454.47	36999.8
454.676	36375.17
454.882	37692.01
455.088	34513.56
455.294	34622.11
455.5	35293.84
455.705	35941
455.911	34445.98
456.117	33520.3
456.323	33159.86
456.529	31285.97
456.735	32914.1
456.941	31802.05
457.147	31306.44
457.352	30943.95
457.558	30358.24
457.764	30401.24
457.97	29784.8
458.176	29381.35
458.381	28936.95
458.587	27605.77
458.793	27859.71
458.999	26290.97
459.204	28349.18
459.41	27652.87
459.616	25707.3
459.821	25652
460.027	25568.04
460.233	24777.52
460.438	23855.93
460.644	24062.78
460.85	22811.47
461.055	22598.48
461.261	22606.67
461.466	20640.62
461.672	20083.58
461.878	21736.29
462.083	20482.93
462.289	19899.26
462.494	19469.19
462.7	18566.03
462.905	18269.08
463.111	18688.91
463.316	19041.16
463.522	18606.99
463.727	18629.52
463.932	18516.88
464.138	18518.93
464.343	18355.09
464.549	17922.97
464.754	18715.53
464.959	18185.11
465.165	18060.18
465.37	17384.35
465.575	17116.07
465.781	17812.38
465.986	17935.26
466.191	17380.26
466.397	16858.03
466.602	15842.23
466.807	16575.41
467.012	16700.33
467.218	16386.99
467.423	16296.88
467.628	16366.51
467.833	17101.73
468.038	16499.63
468.244	15991.73
468.449	16526.25
468.654	16174
468.859	16022.45
469.064	15868.86
469.269	15225.79
469.474	15563.71
469.679	15541.18
469.885	15049.67
470.09	15676.35
470.295	15346.62
470.5	14947.27
470.705	15190.98
470.91	14873.54
471.115	14543.82
471.32	15055.81
471.525	14842.82
471.73	14457.81
471.935	14406.61
472.139	13679.58
472.344	14005.2
472.549	13974.49
472.754	13976.53
472.959	13456.35
473.164	13196.26
473.369	13280.22
473.574	13528.03
473.778	13241.31
473.983	13282.27
474.188	13100
474.393	12688.36
474.598	12604.39
474.802	12684.27
475.007	12344.3
475.212	12643.31
475.417	12143.6
475.621	11985.91
475.826	12047.35
476.031	11838.45
476.235	11379.71
476.44	11826.17
476.645	11551.74
476.849	11580.41
477.054	11197.44
477.259	11107.33
477.463	11363.33
477.668	10892.29
477.872	11297.79
478.077	11099.14
478.282	10683.4
478.486	10671.11
478.691	10458.12
478.895	10343.44
479.1	10415.12
479.304	10425.36
479.509	9987.09
479.713	10298.38
479.918	10114.06
480.122	9677.85
480.326	10058.77
480.531	10130.45
480.735	9913.36
480.94	9819.16
481.144	10325.01
481.348	9716.76
481.553	9997.33
481.757	9718.81
481.961	9765.91
482.166	9909.27
482.37	9780.25
482.574	9452.57
482.778	9569.3
482.983	9706.52
483.187	9595.93
483.391	9700.37
483.595	9714.71
483.8	9493.53
484.004	9559.06
484.208	9720.85
484.412	9667.61
484.616	9700.37
484.821	9692.18
485.025	9655.32
485.229	9681.94
485.433	9505.82
485.637	9561.11
485.841	9634.84
486.045	9667.61
486.249	9538.59
486.453	9499.67
486.657	9698.33
486.861	9727
487.065	9440.28
487.269	9483.29
487.473	9491.48
487.677	9604.12
487.881	9548.82
488.085	9643.03
488.289	9745.43
488.493	9503.77
488.697	9829.4
488.901	9782.29
489.105	9612.31
489.309	9739.29
489.512	9696.28
489.716	9692.18
489.92	9602.07
490.124	9683.99
490.328	9770.01
490.531	9749.53
490.735	9843.73
490.939	9813.01
491.143	9964.56
491.346	9874.45
491.55	10009.62
491.754	9939.99
491.958	10011.67
492.161	10003.47
492.365	10255.37
492.569	10056.72
492.772	10138.64
492.976	10245.13
493.18	10290.19
493.383	10327.05
493.587	10433.55
493.79	10544.14
493.994	10341.39
494.197	10437.64
494.401	10658.82
494.605	10411.02
494.808	10841.09
495.012	10695.69
495.215	10837
495.419	11021.31
495.622	10890.24
495.825	11066.37
496.029	11092.99
496.232	11463.68
496.436	11260.93
496.639	11572.22
496.843	11731.96
497.046	11537.4
497.249	12020.72
497.453	11852.79
497.656	11992.05
497.859	12135.41
498.063	12164.08
498.266	12266.48
498.469	12327.92
498.673	12420.08
498.876	12682.22
499.079	12948.45
499.282	12563.43
499.485	13009.89
499.689	12901.35
499.892	13300.7
500.095	13196.26
500.298	13779.93
500.501	13487.07
500.705	13755.35
500.908	13863.9
501.111	14185.43
501.314	14398.41
501.517	14576.59
501.72	14476.24
501.923	14353.36
502.126	14941.13
502.329	15147.97
502.532	15246.27
502.735	15045.57
502.938	15559.61
503.141	15631.29
503.344	15797.18
503.547	15825.85
503.75	16196.53
503.953	16303.03
504.156	16251.83
504.359	16843.69
504.562	16952.23
504.765	17054.63
504.968	17230.76
505.17	17472.42
505.373	17408.93
505.576	17804.19
505.779	17654.69
505.982	18150.29
506.185	18297.75
506.387	18602.89
506.59	18422.67
506.793	19053.45
506.996	18772.88
507.198	19018.63
507.401	19295.11
507.604	19186.57
507.807	19708.8
508.009	20124.54
508.212	19952.51
508.415	20448.11
508.617	20573.04
508.82	20568.94
509.022	20495.22
509.225	20939.63
509.428	21484.39
509.63	21332.84
509.833	21515.11
510.035	21644.13
510.238	21850.97
510.44	22109.02
510.643	22387.54
510.845	22455.12
511.048	22780.75
511.25	23008.08
511.453	22960.97
511.655	23812.93
511.858	23520.07
512.06	23634.75
512.262	23950.14
512.465	23964.48
512.667	24587.06
512.87	24791.86
513.072	24832.82
513.274	24959.79
513.477	25283.37
513.679	25246.51
513.881	25844.51
514.084	25721.63
514.286	26120.99
514.488	26147.61
514.69	26544.92
514.893	26878.74
515.095	26710.8
515.297	27124.49
515.499	27323.15
515.701	27405.06
515.904	27910.91
516.106	27765.51
516.308	28273.4
516.51	28431.1
516.712	28572.41
516.914	28644.09
517.116	29045.49
517.318	29264.62
517.52	29358.83
517.722	29604.58
517.925	29659.88
518.127	30360.28
518.329	30413.53
518.531	30296.8
518.733	30751.45
518.935	30974.67
519.136	30692.05
519.338	31539.91
519.54	31261.39
519.742	31656.65
519.944	31922.88
520.146	32459.45
520.348	32539.32
520.55	32672.44
520.752	32832.18
520.954	33432.24
521.155	32965.3
521.357	33608.36
521.559	33450.67
521.761	34126.5
521.963	34116.26
522.164	34368.16
522.366	34253.47
522.568	34382.49
522.77	34704.03
522.971	35115.67
523.173	34929.3
523.375	35429.01
523.576	35308.18
523.778	35379.85
523.98	35951.24
524.181	36127.36
524.383	36176.51
524.584	36158.08
524.786	36143.75
524.988	36031.11
525.189	36852.34
525.391	36682.36
525.592	36932.22
525.794	37036.66
525.995	37155.44
526.197	37356.14
526.398	37282.42
526.6	37689.96
526.801	37911.14
527.003	38036.07
527.204	37642.86
527.406	38040.17
527.607	38031.97
527.808	38773.34
528.01	37747.31
528.211	37935.72
528.412	39033.43
528.614	38652.51
528.815	38421.09
529.016	39004.76
529.218	38470.24
529.419	38648.41
529.62	39184.98
529.822	38818.39
530.023	38879.83
530.224	38910.55
530.425	38986.33
530.626	38453.86
530.828	38537.82
531.029	39725.64
531.23	38902.36
531.431	38924.89
531.632	39391.83
531.833	38920.79
532.035	39221.84
532.236	39281.24
532.437	39334.48
532.638	39397.97
532.839	39168.6
533.04	39543.38
533.241	39260.76
533.442	39647.82
533.643	39426.64
533.844	39291.48
534.045	39574.09
534.246	39584.33
534.447	39586.38
534.648	39234.13
534.849	39451.22
535.05	39172.69
535.251	39608.91
535.451	39449.17
535.652	39565.9
535.853	39422.55
536.054	39580.24
536.255	39715.4
536.456	39021.14
536.657	40004.17
536.857	38828.63
537.058	39178.84
537.259	39643.73
537.46	39367.25
537.66	39643.73
537.861	39307.86
538.062	39324.24
538.263	39670.35
538.463	38961.75
538.664	39311.95
538.865	39588.43
539.065	40186.44
539.266	39271
539.466	40004.17
539.667	39066.2
539.868	39770.7
540.068	39514.7
540.269	39658.06
540.469	39367.25
540.67	39565.9
540.87	39103.06
541.071	39070.29
541.271	39570
541.472	39121.49
541.672	39123.54
541.873	38910.55
542.073	38759
542.274	39557.71
542.474	39187.03
542.675	39162.45
542.875	39215.7
543.075	39367.25
543.276	39051.86
543.476	39363.15
543.676	38718.04
543.877	39105.11
544.077	39049.81
544.277	39119.45
544.478	38754.91
544.678	39264.85
544.878	39230.04
545.078	39006.81
545.279	38595.17
545.479	38994.52
545.679	39365.2
545.879	38976.09
546.079	39244.37
546.28	38849.11
546.48	38783.58
546.68	39019.1
546.88	39238.23
547.08	38765.15
547.28	38681.18
547.48	38376.03
547.68	38646.36
547.88	38527.58
548.081	38943.32
548.281	38842.97
548.481	38541.92
548.681	38783.58
548.881	38441.57
549.081	38658.65
549.28	38408.8
549.48	39086.68
549.68	38464.1
549.88	39320.15
550.08	38558.3
550.28	38677.08
550.48	38343.27
550.68	38713.95
550.88	38353.51
551.08	38470.24
551.279	38447.71
551.479	38521.44
551.679	38607.45
551.879	38322.79
552.079	38494.82
552.278	38435.42
552.478	38199.91
552.678	38464.1
552.878	38279.78
553.077	38253.15
553.277	37958.25
553.477	38543.97
553.676	38040.17
553.876	38650.46
554.076	38177.38
554.275	38156.9
554.475	37980.78
554.674	38525.53
554.874	38361.7
555.074	37872.23
555.273	38523.49
555.473	38232.68
555.672	37888.62
555.872	38107.75
556.071	38021.73
556.271	38341.22
556.47	37775.98
556.67	37702.25
556.869	37823.08
557.068	37993.06
557.268	37712.49
557.467	37466.73
557.667	37515.89
557.866	37818.99
558.065	37988.97
558.265	37687.92
558.464	37296.75
558.663	37644.91
558.863	37007.99
559.062	37560.94
559.261	37284.47
559.461	37845.61
559.66	37263.99
559.859	37313.14
560.058	37079.67
560.258	37134.96
560.457	36989.56
560.656	37345.9
560.855	37169.78
561.054	37196.4
561.253	36729.47
561.453	37083.76
561.652	37331.57
561.851	37081.72
562.05	36866.68
562.249	36741.75
562.448	37057.14
562.647	36508.29
562.846	36780.67
563.045	36991.61
563.244	36659.84
563.443	37018.23
563.642	36127.36
563.841	36541.05
564.04	36153.99
564.239	36543.1
564.438	36414.08
564.637	36651.64
564.836	36795
565.035	35811.98
565.234	35961.48
565.432	36139.65
565.631	35902.09
565.83	36356.74
566.029	35832.46
566.228	35539.6
566.427	35582.6
566.625	35584.65
566.824	35551.88
567.023	36119.17
567.222	35062.42
567.42	35633.8
567.619	35617.42
567.818	35302.03
568.016	35375.76
568.215	35766.92
568.414	35273.36
568.612	35685
568.811	35336.85
569.01	35492.49
569.208	34998.93
569.407	35306.13
569.605	34661.02
569.804	35248.78
570.002	34935.45
570.201	35306.13
570.4	34704.03
570.598	34288.29
570.797	34370.21
570.995	34632.35
571.193	34224.8
571.392	34409.12
571.59	34501.28
571.789	34331.29
571.987	34235.04
572.186	34620.06
572.384	34011.81
572.582	34429.6
572.781	34290.34
572.979	33856.17
573.177	34251.42
573.376	34249.38
573.574	33645.23
573.772	33751.72
573.971	33542.83
574.169	33426.09
574.367	33256.11
574.565	33667.75
574.763	33209.01
574.962	33125.04
575.16	33217.2
575.358	33219.25
575.556	33063.6
575.754	33462.96
575.952	32809.65
576.151	33329.84
576.349	32709.3
576.547	33006.26
576.745	32602.81
576.943	33010.35
577.141	32441.02
577.339	32651.96
577.537	32608.95
577.735	32664.25
577.933	32193.22
578.131	32742.07
578.329	32447.16
578.527	32066.24
578.725	32090.82
578.923	32187.07
579.121	32408.25
579.319	32033.47
579.516	32076.48
579.714	32105.15
579.912	31802.05
580.11	31759.05
580.308	31486.67
580.506	31480.52
580.704	31025.87
580.901	31242.96
581.099	31773.38
581.297	31263.44
581.495	31220.43
581.692	31476.43
581.89	30880.47
582.088	30982.87
582.285	31023.83
582.483	31128.27
582.681	31113.94
582.878	30839.51
583.076	30644.95
583.274	30888.66
583.471	30110.43
583.669	30460.63
583.866	30212.83
584.064	30696.15
584.262	29860.58
584.459	30458.59
584.657	30106.34
584.854	30223.07
585.052	29840.1
585.249	30261.98
585.447	29891.3
585.644	29756.13
585.841	29934.31
586.039	30001.89
586.236	29754.08
586.434	29559.53
586.631	29289.2
586.828	29209.32
587.026	29278.96
587.223	29405.93
587.42	29317.87
587.618	29059.82
587.815	28893.94
588.012	29172.46
588.21	28719.86
588.407	28963.57
588.604	28850.93
588.801	28617.46
588.999	28416.76
589.196	28824.31
589.393	28281.6
589.59	28291.83
589.787	28191.48
589.984	28144.38
590.182	28050.17
590.379	28408.57
590.576	27908.86
590.773	28017.41
590.97	27640.58
591.167	27917.06
591.364	27585.29
591.561	27677.44
591.758	27192.08
591.955	27499.27
592.152	27534.09
592.349	27280.14
592.546	27253.51
592.743	27394.82
592.94	26876.69
593.137	26962.7
593.334	27351.82
593.531	26696.47
593.727	26856.21
593.924	26571.54
594.121	26739.47
594.318	26825.49
594.515	26696.47
594.712	26788.63
594.908	26290.97
595.105	26161.95
595.302	25879.33
595.499	26145.56
595.696	25977.63
595.892	25934.62
596.089	25893.66
596.286	25955.1
596.482	25617.19
596.679	26108.7
596.876	25717.54
597.072	25819.94
597.269	25250.6
597.466	25471.78
597.662	25221.93
597.859	25234.22
598.055	25404.2
598.252	25334.57
598.448	25142.06
598.645	25150.25
598.841	24771.38
599.038	24937.26
599.234	24972.08
599.431	24656.69
599.627	24494.9
599.824	25002.8
600.02	24585.01
600.217	24480.57
600.413	24451.89
600.609	24423.22
600.806	24279.86
601.002	24046.4
601.198	24167.23
601.395	23860.03
601.591	24017.72
601.787	24046.4
601.984	23786.3
602.18	23898.94
602.376	23694.15
602.572	23626.56
602.769	23176.01
602.965	23352.13
603.161	23556.93
603.357	23491.4
603.553	23354.18
603.75	23331.65
603.946	23061.32
604.142	23237.45
604.338	22885.2
604.534	23104.33
604.73	22549.33
604.926	22868.81
605.122	22756.18
605.318	22768.46
605.514	22790.99
605.71	22358.87
605.906	22405.97
606.102	22645.59
606.298	22491.99
606.494	22416.21
606.69	22291.29
606.886	22209.37
607.082	22106.97
607.278	21910.36
607.474	21807.97
607.67	22068.06
607.866	21789.53
608.062	22348.63
608.257	22004.57
608.453	22031.19
608.649	21902.17
608.845	21859.17
609.041	21785.44
609.236	21732.19
609.432	21785.44
609.628	21721.95
609.824	21771.1
610.019	21607.26
610.215	21468
610.411	21447.52
610.606	21363.56
610.802	21484.39
610.998	21349.22
611.193	21398.37
611.389	21314.41
611.584	21257.06
611.78	21173.1
611.976	21347.17
612.171	21443.43
612.367	20982.63
612.562	21128.04
612.758	20470.64
612.953	20751.21
613.149	21171.05
613.344	20921.2
613.539	21074.79
613.735	20788.08
613.93	20984.68
614.126	20681.58
614.321	20652.91
614.517	20556.66
614.712	20761.45
614.907	20558.7
615.103	20353.91
615.298	20558.7
615.493	20667.25
615.688	20339.57
615.884	20777.84
616.079	20300.66
616.274	20728.69
616.47	20183.93
616.665	20290.42
616.86	20157.3
617.055	20095.86
617.25	20054.9
617.445	20169.59
617.641	19919.74
617.836	20255.61
618.031	19723.13
618.226	19893.12
618.421	19587.97
618.616	19946.36
618.811	19547.01
619.006	19987.32
619.201	19463.04
619.396	19661.69
619.591	19227.53
619.786	19307.4
619.981	19176.33
620.176	19135.37
620.371	19008.39
620.566	19116.93
620.761	18897.8
620.956	18942.86
621.151	18637.71
621.346	18787.21
621.541	18725.77
621.735	18908.04
621.93	18394
622.125	18596.75
622.32	18054.04
622.515	18174.87
622.709	18101.14
622.904	18148.25
623.099	17918.87
623.294	17947.54
623.488	17525.66
623.683	17892.25
623.878	17413.02
624.072	17554.33
624.267	17464.22
624.462	17398.69
624.656	17470.37
624.851	17257.38
625.046	17138.6
625.24	17228.71
625.435	17075.11
625.629	16612.27
625.824	16767.91
626.018	16792.49
626.213	16262.07
626.407	16532.4
626.602	16419.76
626.796	16593.84
626.991	16233.39
627.185	15942.58
627.38	16032.69
627.574	15948.73
627.768	15666.11
627.963	15745.98
628.157	15553.47
628.352	15442.88
628.546	15457.21
628.74	15610.81
628.935	15383.49
629.129	15309.76
629.323	14877.64
629.517	15170.5
629.712	14855.11
629.906	14957.51
630.1	14797.77
630.294	15010.76
630.489	14736.33
630.683	14658.51
630.877	14453.71
631.071	14517.2
631.265	14392.27
631.459	14402.51
631.653	14207.95
631.848	14226.39
632.042	14334.93
632.236	14193.62
632.43	14017.49
632.624	14113.75
632.818	13923.29
633.012	13689.82
633.206	13728.73
633.4	13865.94
633.594	13523.93
633.788	13941.72
633.982	13353.95
634.176	13439.97
634.369	13292.51
634.563	13462.49
634.757	13081.57
634.951	13274.08
635.145	13149.15
635.339	13165.54
635.533	13024.23
635.726	13036.52
635.92	12729.32
636.114	12798.95
636.308	12610.54
636.501	12594.15
636.695	12788.71
636.889	12479.47
637.083	12536.81
637.276	12352.49
637.47	12323.82
637.664	12164.08
637.857	12131.31
638.051	12268.53
638.244	12100.59
638.438	12145.65
638.632	12055.54
638.825	12143.6
639.019	11680.76
639.212	11824.12
639.406	11588.6
639.599	11756.54
639.793	11686.9
639.986	11430.91
640.18	11480.06
640.373	11744.25
640.567	11295.74
640.76	11318.27
640.954	11219.97
641.147	10968.07
641.34	11080.71
641.534	11004.93
641.727	11271.17
641.92	11027.46
642.114	10816.52
642.307	10871.81
642.5	10857.48
642.694	10712.07
642.887	10712.07
643.08	10658.82
643.273	10695.69
643.467	10480.65
643.66	10435.6
643.853	10411.02
644.046	10345.48
644.239	10271.76
644.432	10212.37
644.626	10083.34
644.819	10224.65
645.012	10243.09
645.205	10060.82
645.398	10116.11
645.591	9946.13
645.784	9929.75
645.977	9671.7
646.17	9753.62
646.363	9808.92
646.556	9481.24
646.749	9624.6
646.942	9514.01
647.135	9616.41
647.328	9477.15
647.521	9296.92
647.714	9266.21
647.907	9442.33
648.099	9268.25
648.292	9315.36
648.485	9348.12
648.678	9016.35
648.871	9235.49
649.064	9124.9
649.256	8938.53
649.449	8959.01
649.642	9014.31
649.835	8811.56
650.027	8840.23
650.22	8743.97
650.413	8750.12
650.605	8895.52
650.798	8713.25
650.991	8492.07
651.183	8692.77
651.376	8561.7
651.568	8485.93
651.761	8363.05
651.954	8395.82
652.146	8537.13
652.339	8303.66
652.531	8479.79
652.724	8248.36
652.916	8213.55
653.109	8150.06
653.301	8193.07
653.494	8229.93
653.686	7978.03
653.879	8051.76
654.071	7932.98
654.263	7961.65
654.456	7922.74
654.648	7892.02
654.84	7650.36
655.033	7613.49
655.225	7828.53
655.417	7568.44
655.61	7633.97
655.802	7683.13
655.994	7521.34
656.186	7519.29
656.379	7242.81
656.571	7494.71
656.763	7369.79
656.955	7287.87
657.148	7226.43
657.34	7361.59
657.532	7347.26
657.724	7222.33
657.916	7187.52
658.108	7195.71
658.3	6966.34
658.492	7212.09
658.684	6900.8
658.876	6929.47
659.068	7044.16
659.26	6831.17
659.452	6822.98
659.644	6802.5
659.836	6884.42
660.028	6820.93
660.22	6583.37
660.412	6792.26
660.604	6632.52
660.796	6653
660.988	6685.76
661.18	6562.89
661.372	6538.31
661.563	6423.62
661.755	6380.62
661.947	6425.67
662.139	6433.86
662.331	6257.74
662.522	6317.13
662.714	6284.36
662.906	6272.07
663.097	6300.75
663.289	6177.87
663.481	6001.74
663.673	6200.4
663.864	6069.33
664.056	6059.09
664.247	6075.47
664.439	5960.78
664.631	5854.29
664.822	6032.46
665.014	5985.36
665.205	6001.74
665.397	5784.66
665.588	5805.14
665.78	5727.32
665.971	5788.75
666.163	5702.74
666.354	5743.7
666.546	5817.43
666.737	5528.66
666.929	5641.3
667.12	5735.51
667.311	5569.62
667.503	5563.48
667.694	5583.96
667.885	5364.82
668.077	5618.77
668.268	5432.41
668.459	5467.22
668.651	5354.58
668.842	5448.79
669.033	5377.11
669.224	5375.06
669.416	5301.34
669.607	5278.81
669.798	5100.64
669.989	5325.91
670.18	5137.5
670.371	5182.56
670.563	5084.25
670.754	5076.06
670.945	5076.06
671.136	5151.84
671.327	5112.92
671.518	5067.87
671.709	5035.1
671.9	5037.15
672.091	4934.75
672.282	5031.01
672.473	4846.69
672.664	4850.78
672.855	4961.37
673.046	5020.77
673.237	4897.89
673.428	4863.07
673.619	4764.77
673.809	4715.62
674	4703.33
674.191	4740.19
674.382	4697.19
674.573	4607.08
674.764	4803.68
674.954	4699.23
675.145	4609.12
675.336	4623.46
675.527	4586.6
675.717	4682.85
675.908	4523.11
676.099	4676.71
676.289	4508.77
676.48	4381.8
676.671	4455.53
676.861	4504.68
677.052	4441.19
677.243	4473.96
677.433	4228.2
677.624	4428.9
677.814	4306.02
678.005	4433
678.195	4467.81
678.386	4332.65
678.576	4232.3
678.767	4308.07
678.957	4277.35
679.148	4338.79
679.338	4445.29
679.529	4381.8
679.719	4215.91
679.909	4349.03
680.1	4246.63
680.29	4232.3
680.481	4138.09
680.671	4191.34
680.861	4082.8
681.052	4201.58
681.242	4148.33
681.432	4158.57
681.622	4045.93
681.813	4144.24
682.003	4160.62
682.193	4019.31
682.383	4041.84
682.573	4058.22
682.764	4113.52
682.954	4088.94
683.144	4181.1
683.334	3970.16
683.524	3953.77
683.714	3988.59
683.904	3961.97
684.094	3978.35
684.284	3912.81
684.474	3982.45
684.664	4097.13
684.854	3918.96
685.044	3890.29
685.234	3906.67
685.424	3746.93
685.614	3765.36
685.804	3800.18
685.994	3880.05
686.184	3880.05
686.374	3826.8
686.564	3755.12
686.753	3769.46
686.943	3816.56
687.133	3693.68
687.323	3646.58
687.513	3726.45
687.702	3601.52
687.892	3503.22
688.082	3546.23
688.272	3687.54
688.461	3601.52
688.651	3654.77
688.841	3511.41
689.03	3517.56
689.22	3460.21
689.41	3439.73
689.599	3449.97
689.789	3458.17
689.979	3513.46
690.168	3492.98
690.358	3361.91
690.547	3435.64
690.737	3400.82
690.926	3492.98
691.116	3386.49
691.305	3404.92
691.495	3333.24
691.684	3335.29
691.874	3271.8
692.063	3392.63
692.252	3181.69
692.442	3275.9
692.631	3218.55
692.82	3259.51
693.01	3314.81
693.199	3189.88
693.388	3216.51
693.578	3173.5
693.767	3054.72
693.956	3071.1
694.146	3146.87
694.335	3089.53
694.524	3062.91
694.713	3077.24
694.902	2944.13
695.092	2989.18
695.281	2999.42
695.47	3034.24
695.659	3050.62
695.848	2976.89
696.037	2897.02
696.226	2960.51
696.415	2753.66
696.604	2851.97
696.793	3036.28
696.982	2862.21
697.171	3032.19
697.36	2866.3
697.549	2903.17
697.738	2718.85
697.927	2839.68
698.116	2788.48
698.305	2913.41
698.494	2870.4
698.683	2813.06
698.872	2817.15
699.061	2706.56
699.25	2720.9
699.438	2675.84
699.627	2798.72
699.816	2745.47
700.005	2552.96
700.193	2743.42
700.382	2751.62
700.571	2593.92
700.76	2706.56
700.948	2692.23
701.137	2739.33
701.326	2688.13
701.514	2602.11
701.703	2624.64
701.892	2585.73
702.08	2618.5
702.269	2573.44
702.457	2509.96
702.646	2622.59
702.834	2458.76
703.023	2509.96
703.212	2530.44
703.4	2565.25
703.589	2600.07
703.777	2557.06
703.965	2452.61
704.154	2595.97
704.342	2546.82
704.531	2471.04
704.719	2464.9
704.907	2585.73
705.096	2460.81
705.284	2399.37
705.472	2473.09
705.661	2555.01
705.849	2438.28
706.037	2440.33
706.226	2499.72
706.414	2497.67
706.602	2499.72
706.79	2483.33
706.979	2389.13
707.167	2565.25
707.355	2532.48
707.543	2466.95
707.731	2436.23
707.919	2411.65
708.107	2448.52
708.296	2413.7
708.484	2432.13
708.672	2411.65
708.86	2370.69
709.048	2425.99
709.236	2430.09
709.424	2460.81
709.612	2378.89
709.8	2329.74
709.988	2352.26
710.176	2411.65
710.364	2425.99
710.551	2456.71
710.739	2389.13
710.927	2331.78
711.115	2305.16
711.303	2466.95
711.491	2251.91
711.679	2323.59
711.866	2387.08
712.054	2483.33
712.242	2317.45
712.43	2407.56
712.617	2425.99
712.805	2315.4
712.993	2256.01
713.181	2292.87
713.368	2294.92
713.556	2319.5
713.744	2409.61
713.931	2262.15
714.119	2387.08
714.306	2196.62
714.494	2243.72
714.682	2370.69
714.869	2294.92
715.057	2309.26
715.244	2370.69
715.432	2219.14
715.619	2346.12
715.807	2282.63
715.994	2409.61
716.182	2360.45
716.369	2348.17
716.556	2409.61
716.744	2153.61
716.931	2213
717.119	2260.1
717.306	2237.58
717.493	2292.87
717.681	2350.21
717.868	2229.38
718.055	2309.26
718.242	2301.06
718.43	2385.03
718.617	2301.06
718.804	2350.21
718.991	2204.81
719.179	2253.96
719.366	2233.48
719.553	2372.74
719.74	2198.67
719.927	2276.49
720.114	2217.1
720.301	2262.15
720.488	2169.99
720.676	2315.4
720.863	2270.34
721.05	2221.19
721.237	2301.06
721.424	2296.97
721.611	2432.13
721.798	2202.76
721.985	2141.32
722.172	2290.82
722.358	2376.84
722.545	2323.59
722.732	2292.87
722.919	2307.21
723.106	2333.83
723.293	2253.96
723.48	2307.21
723.667	2258.06
723.853	2204.81
724.04	2352.26
724.227	2247.82
724.414	2229.38
724.6	2317.45
724.787	2194.57
724.974	2284.68
725.161	2288.78
725.347	2284.68
725.534	2346.12
725.72	2389.13
725.907	2325.64
726.094	2284.68
726.28	2288.78
726.467	2360.45
726.653	2239.62
726.84	2368.65
727.027	2419.85
727.213	2268.3
727.4	2278.54
727.586	2337.93
727.773	2266.25
727.959	2354.31
728.145	2235.53
728.332	2290.82
728.518	2288.78
728.705	2393.22
728.891	2323.59
729.077	2296.97
729.264	2321.54
729.45	2389.13
729.636	2403.46
729.823	2391.17
730.009	2409.61
730.195	2337.93
730.382	2284.68
730.568	2368.65
730.754	2247.82
730.94	2335.88
731.126	2311.3
731.313	2260.1
731.499	2528.39
731.685	2436.23
731.871	2380.93
732.057	2323.59
732.243	2368.65
732.429	2452.61
732.615	2438.28
732.801	2313.35
732.987	2454.66
733.173	2403.46
733.359	2397.32
733.545	2401.41
733.731	2309.26
733.917	2362.5
734.103	2487.43
734.289	2397.32
734.475	2407.56
734.661	2479.24
734.847	2413.7
735.033	2385.03
735.219	2509.96
735.404	2417.8
735.59	2274.44
735.776	2432.13
735.962	2430.09
736.148	2389.13
736.333	2475.14
736.519	2473.09
736.705	2499.72
736.89	2550.92
737.076	2454.66
737.262	2348.17
737.447	2397.32
737.633	2456.71
737.819	2446.47
738.004	2448.52
738.19	2456.71
738.375	2432.13
738.561	2389.13
738.747	2421.89
738.932	2397.32
739.118	2415.75
739.303	2512
739.489	2512
739.674	2471.04
739.859	2442.37
740.045	2444.42
740.23	2464.9
740.416	2339.97
740.601	2507.91
740.786	2536.58
740.972	2364.55
741.157	2432.13
741.342	2432.13
741.528	2403.46
741.713	2411.65
741.898	2499.72
742.084	2399.37
742.269	2475.14
742.454	2538.63
742.639	2440.33
742.824	2376.84
743.01	2518.15
743.195	2546.82
743.38	2389.13
743.565	2469
743.75	2423.94
743.935	2270.34
744.12	2469
744.305	2262.15
744.49	2391.17
744.675	2327.69
744.86	2405.51
745.045	2473.09
745.23	2270.34
745.415	2309.26
745.6	2325.64
745.785	2311.3
745.97	2378.89
746.155	2421.89
746.34	2399.37
746.525	2294.92
746.71	2434.18
746.895	2307.21
747.079	2354.31
747.264	2253.96
747.449	2360.45
747.634	2342.02
747.819	2223.24
748.003	2176.14
748.188	2313.35
748.373	2188.43
748.557	2278.54
748.742	2247.82
748.927	2102.41
749.111	2149.51
749.296	2215.05
749.481	2231.43
749.665	2126.99
749.85	2163.85
750.034	2141.32
750.219	2079.88
750.404	2086.03
750.588	2204.81
750.773	2120.84
750.957	2133.13
751.141	2202.76
751.326	2063.5
751.51	2110.6
751.695	2092.17
751.879	2077.83
752.064	2131.08
752.248	2038.92
752.432	2131.08
752.617	2018.44
752.801	2004.11
752.985	1993.87
753.17	2036.88
753.354	2040.97
753.538	1983.63
753.722	2018.44
753.907	1846.41
754.091	1944.72
754.275	1969.29
754.459	1856.65
754.643	1887.37
754.828	1934.48
755.012	1866.89
755.196	1901.71
755.38	1838.22
755.564	1864.85
755.748	1825.93
755.932	1830.03
756.116	1858.7
756.3	1873.04
756.484	1758.35
756.668	1754.26
756.852	1799.31
757.036	1823.89
757.22	1750.16
757.404	1744.02
757.588	1713.3
757.772	1733.78
757.956	1819.79
758.14	1733.78
758.323	1696.91
758.507	1756.3
758.691	1643.67
758.875	1690.77
759.059	1770.64
759.242	1705.1
759.426	1658
759.61	1662.1
759.794	1651.86
759.977	1660.05
760.161	1686.67
760.345	1678.48
760.528	1705.1
760.712	1490.07
760.895	1637.52
761.079	1596.56
761.263	1580.18
761.446	1563.79
761.63	1612.95
761.813	1588.37
761.997	1592.47
762.18	1518.74
762.364	1571.99
762.547	1514.64
762.731	1510.55
762.914	1543.32
763.098	1428.63
763.281	1504.4
763.464	1447.06
763.648	1416.34
763.831	1428.63
764.015	1442.96
764.198	1557.65
764.381	1502.36
764.564	1459.35
764.748	1467.54
764.931	1488.02
765.114	1504.4
765.297	1502.36
765.481	1387.67
765.664	1408.15
765.847	1432.72
766.03	1379.48
766.213	1422.48
766.397	1457.3
766.58	1342.61
766.763	1420.44
766.946	1287.32
767.129	1406.1
767.312	1301.65
767.495	1328.28
767.678	1287.32
767.861	1447.06
768.044	1256.6
768.227	1287.32
768.41	1291.41
768.593	1377.43
768.776	1283.22
768.959	1389.72
769.142	1340.57
769.324	1283.22
769.507	1399.96
769.69	1268.89
769.873	1299.61
770.056	1258.65
770.239	1225.88
770.421	1262.74
770.604	1236.12
770.787	1238.17
770.97	1270.94
771.152	1275.03
771.335	1223.83
771.518	1211.54
771.7	1281.18
771.883	1295.51
772.066	1227.93
772.248	1207.45
772.431	1211.54
772.613	1078.43
772.796	1207.45
772.978	1131.67
773.161	1260.7
773.343	1154.2
773.526	1217.69
773.708	1160.34
773.891	1148.06
774.073	1221.78
774.256	1109.15
774.438	1219.74
774.621	1186.97
774.803	1203.35
774.985	1193.11
775.168	1123.48
775.35	1066.14
775.532	1098.91
775.715	1062.04
775.897	1074.33
776.079	937.12
776.261	1080.47
776.444	996.51
776.626	1037.47
776.808	939.16
776.99	1057.95
777.173	1025.18
777.355	959.64
777.537	984.22
777.719	1031.32
777.901	971.93
778.083	992.41
778.265	865.44
778.447	1033.37
778.629	961.69
778.811	935.07
778.993	973.98
779.175	969.88
779.357	1004.7
779.539	908.44
779.721	924.83
779.903	1010.84
780.085	906.4
780.267	953.5
780.449	836.77
780.631	896.16
780.812	873.63
780.994	793.76
781.176	896.16
781.358	787.61
781.54	801.95
781.721	892.06
781.903	881.82
782.085	832.67
782.267	789.66
782.448	765.09
782.63	810.14
782.812	754.85
782.993	849.05
783.175	746.66
783.357	750.75
783.538	777.37
783.72	756.9
783.901	709.79
784.083	881.82
784.264	758.94
784.446	709.79
784.627	742.56
784.809	674.98
784.99	687.26
785.172	744.61
785.353	736.42
785.535	687.26
785.716	674.98
785.897	568.48
786.079	742.56
786.26	654.5
786.441	654.5
786.623	597.15
786.804	627.87
786.985	576.67
787.167	672.93
787.348	670.88
787.529	582.82
787.71	560.29
787.891	621.73
788.073	617.63
788.254	545.95
788.435	670.88
788.616	574.63
788.797	504.99
788.978	556.19
789.159	558.24
789.34	531.62
789.522	490.66
789.703	558.24
789.884	595.11
790.065	568.48
790.246	486.56
790.427	574.63
790.607	601.25
790.788	519.33
790.969	539.81
791.15	519.33
791.331	496.8
791.512	507.04
791.693	492.71
791.874	568.48
792.054	582.82
792.235	459.94
792.416	507.04
792.597	451.75
792.778	531.62
792.958	517.28
793.139	537.76
793.32	509.09
793.5	459.94
793.681	476.32
793.862	459.94
794.042	496.8
794.223	404.64
794.404	427.17
794.584	447.65
794.765	437.41
794.945	394.4
795.126	421.03
795.306	461.99
795.487	437.41
795.667	457.89
795.848	371.88
796.028	435.36
796.209	496.8
796.389	423.08
796.57	437.41
796.75	324.77
796.93	367.78
797.111	375.97
797.291	453.8
797.471	371.88
797.652	386.21
797.832	433.32
798.012	400.55
798.192	406.69
798.373	328.87
798.553	351.4
798.733	337.06
798.913	347.3
799.093	361.64
799.274	400.55
799.454	388.26
799.634	433.32
799.814	353.45
799.994	392.36
800.174	380.07
800.354	365.73
800.534	328.87
800.714	320.68
800.894	349.35
801.074	298.15
801.254	341.16
801.434	435.36
801.614	310.44
801.794	296.1
801.974	945.31
802.154	314.53
802.334	392.36
802.514	398.5
802.693	382.12
802.873	312.49
803.053	427.17
803.233	285.86
803.413	343.21
803.592	214.18
803.772	386.21
803.952	382.12
804.131	361.64
804.311	277.67
804.491	343.21
804.67	257.19
804.85	222.38
805.03	246.95
805.209	285.86
805.389	287.91
805.568	179.37
805.748	275.62
805.928	320.68
806.107	375.97
806.287	285.86
806.466	244.9
806.646	228.52
806.825	267.43
807.004	269.48
807.184	306.34
807.363	304.29
807.543	306.34
807.722	275.62
807.901	355.49
808.081	238.76
808.26	304.29
808.439	203.94
808.619	271.53
808.798	232.62
808.977	306.34
809.156	324.77
809.336	255.14
809.515	269.48
809.694	199.85
809.873	273.57
810.052	212.14
810.231	320.68
810.411	292.01
810.59	259.24
810.769	205.99
810.948	283.81
811.127	179.37
811.306	177.32
811.485	228.52
811.664	296.1
811.843	201.9
812.022	255.14
812.201	232.62
812.38	259.24
812.559	205.99
812.737	249
812.916	306.34
813.095	242.85
813.274	273.57
813.453	234.66
813.632	138.41
813.811	212.14
813.989	212.14
814.168	251.05
814.347	165.03
814.526	197.8
814.704	224.42
814.883	197.8
815.062	265.38
815.24	238.76
815.419	191.66
815.598	210.09
815.776	160.94
815.955	187.56
816.133	113.83
816.312	269.48
816.49	119.98
816.669	199.85
816.847	218.28
817.026	265.38
817.204	130.22
817.383	177.32
817.561	175.27
817.74	150.7
817.918	179.37
818.097	162.98
818.275	208.04
818.453	199.85
818.632	253.09
818.81	203.94
818.988	111.78
819.167	253.09
819.345	197.8
819.523	130.22
819.701	72.87
819.879	222.38
820.058	113.83
820.236	234.66
820.414	195.75
820.592	165.03
820.77	162.98
820.948	76.97
821.127	160.94
821.305	214.18
821.483	150.7
821.661	148.65
821.839	251.05
822.017	101.55
822.195	76.97
822.373	173.22
822.551	148.65
822.729	154.79
822.907	224.42
823.085	255.14
823.262	162.98
823.44	140.46
823.618	181.42
823.796	97.45
823.974	83.11
824.152	40.11
824.329	124.07
824.507	101.55
824.685	134.31
824.863	76.97
825.04	146.6
825.218	162.98
825.396	128.17
825.574	167.08
825.751	76.97
825.929	210.09
826.107	101.55
826.284	136.36
826.462	162.98
826.639	152.74
826.817	111.78
826.994	105.64
827.172	105.64
827.349	185.51
827.527	175.27
827.704	171.18
827.882	148.65
828.059	148.65
828.237	105.64
828.414	158.89
828.591	119.98
828.769	105.64
828.946	117.93
829.124	130.22
829.301	138.41
829.478	119.98
829.655	156.84
829.833	99.5
830.01	111.78
830.187	74.92
830.364	167.08
830.542	111.78
830.719	251.05
830.896	156.84
831.073	76.97
831.25	162.98
831.427	162.98
831.604	109.74
831.782	132.26
831.959	179.37
832.136	138.41
832.313	111.78
832.49	107.69
832.667	128.17
832.844	142.5
833.021	126.12
833.198	13.48
833.374	95.4
833.551	79.02
833.728	165.03
833.905	107.69
834.082	64.68
834.259	124.07
834.436	50.35
834.612	138.41
834.789	56.49
834.966	105.64
835.143	119.98
835.319	62.63
835.496	160.94
835.673	44.2
835.85	138.41
836.026	62.63
836.203	158.89
836.38	17.58
836.556	103.59
836.733	62.63
836.909	216.23
837.086	95.4
837.262	21.67
837.439	52.39
837.616	42.15
837.792	85.16
837.968	66.73
838.145	64.68
838.321	48.3
838.498	117.93
838.674	85.16
838.851	79.02
839.027	89.26
839.203	74.92
839.38	97.45
839.556	87.21
839.732	144.55
839.909	-0.85
840.085	11.43
840.261	93.35
840.437	117.93
840.614	60.59
840.79	109.74
840.966	117.93
841.142	27.82
841.318	130.22
841.494	52.39
841.671	183.46
841.847	11.43
842.023	115.88
842.199	95.4
842.375	85.16
842.551	132.26
842.727	64.68
842.903	122.02
843.079	15.53
843.255	91.31
843.431	115.88
843.607	113.83
843.783	-45.91
843.959	109.74
844.134	126.12
844.31	64.68
844.486	64.68
844.662	89.26
844.838	54.44
845.013	64.68
845.189	130.22
845.365	58.54
845.541	124.07
845.716	89.26
845.892	126.12
846.068	74.92
846.244	50.35
846.419	66.73
846.595	56.49
846.77	91.31
846.946	60.59
847.122	-25.43
847.297	103.59
847.473	58.54
847.648	31.91
847.824	119.98
847.999	-7
848.175	9.39
848.35	60.59
848.526	89.26
848.701	52.39
848.876	138.41
849.052	122.02
849.227	56.49
849.403	64.68
849.578	33.96
849.753	50.35
849.929	70.83
850.104	40.11
850.279	119.98
850.454	74.92
850.63	36.01
850.805	66.73
850.98	68.78
851.155	56.49
851.33	74.92
851.505	70.83
851.681	113.83
851.856	5.29
852.031	48.3
852.206	29.87
852.381	7.34
852.556	21.67
852.731	38.06
852.906	31.91
853.081	25.77
853.256	111.78
853.431	79.02
853.606	-27.48
853.781	48.3
853.956	-41.81
854.131	23.72
854.305	54.44
854.48	31.91
854.655	56.49
854.83	23.72
855.005	11.43
855.18	33.96
855.354	107.69
855.529	93.35
855.704	52.39
855.879	91.31
856.053	81.07
856.228	13.48
856.403	25.77
856.577	74.92
856.752	42.15
856.926	21.67
857.101	93.35
857.276	23.72
857.45	-4.95
857.625	48.3
857.799	56.49
857.974	109.74
858.148	46.25
858.323	76.97
858.497	38.06
858.672	66.73
858.846	62.63
859.02	33.96
859.195	19.63
859.369	-7
859.543	101.55
859.718	74.92
859.892	31.91
860.066	54.44
860.241	-41.81
860.415	48.3
860.589	36.01
860.763	76.97
860.938	29.87
861.112	72.87
861.286	58.54
861.46	25.77
861.634	-2.9
861.808	128.17
861.982	81.07
862.157	7.34
862.331	58.54
862.505	21.67
862.679	-0.85
862.853	29.87
863.027	72.87
863.201	117.93
863.375	-7
863.549	76.97
863.722	60.59
863.896	-7
864.07	-13.14
864.244	54.44
864.418	132.26
864.592	46.25
864.766	46.25
864.939	48.3
865.113	-7
865.287	70.83
865.461	15.53
865.634	52.39
865.808	42.15
865.982	-2.9
866.156	52.39
866.329	-29.52
866.503	25.77
866.676	66.73
866.85	-11.09
867.024	17.58
867.197	9.39
867.371	38.06
867.544	19.63
867.718	-31.57
867.891	-0.85
868.065	60.59
868.238	54.44
868.412	105.64
868.585	-13.14
868.759	-25.43
868.932	27.82
869.105	13.48
869.279	27.82
869.452	27.82
869.625	46.25
869.799	-41.81
869.972	-9.05
870.145	33.96
870.319	91.31
870.492	-41.81
870.665	13.48
870.838	50.35
871.011	-9.05
871.185	-15.19
871.358	-9.05
871.531	66.73
871.704	11.43
871.877	66.73
872.05	7.34
872.223	9.39
872.396	21.67
872.569	101.55
872.742	11.43
872.915	54.44
873.088	-64.34
873.261	-54.1
873.434	-2.9
873.607	-17.24
873.78	25.77
873.953	-76.63
874.126	36.01
874.299	83.11
874.471	-33.62
874.644	81.07
874.817	21.67
874.99	79.02
875.163	-2.9
875.335	72.87
875.508	52.39
875.681	46.25
875.853	70.83
876.026	15.53
876.199	52.39
876.371	-9.05
876.544	5.29
876.717	46.25
876.889	29.87
877.062	66.73
877.234	36.01
877.407	1.19
877.579	38.06
877.752	23.72
877.924	19.63
878.097	-109.4
878.269	-60.24
878.442	-35.67
878.614	21.67
878.786	33.96
878.959	-13.14
879.131	50.35
879.303	-25.43
879.476	11.43
879.648	93.35
879.82	-9.05
879.993	-0.85
880.165	66.73
880.337	-39.76
880.509	5.29
880.681	-2.9
880.854	-33.62
881.026	15.53
881.198	36.01
881.37	74.92
881.542	124.07
881.714	25.77
881.886	29.87
882.058	23.72
882.23	-9.05
882.402	-45.91
882.574	56.49
882.746	-21.33
882.918	15.53
883.09	64.68
883.262	-13.14
883.434	9.39
883.606	-31.57
883.778	46.25
883.95	42.15
884.122	-15.19
884.293	44.2
884.465	81.07
884.637	42.15
884.809	9.39
884.98	60.59
885.152	-9.05
885.324	42.15
885.496	-13.14
885.667	-0.85
885.839	134.31
886.011	72.87
886.182	-19.29
886.354	19.63
886.525	11.43
886.697	60.59
886.869	46.25
887.04	-7
887.212	25.77
887.383	44.2
887.555	-11.09
887.726	-7
887.897	9.39
888.069	-0.85
888.24	91.31
888.412	1.19
888.583	15.53
888.754	52.39
888.926	-31.57
889.097	42.15
889.268	5.29
889.44	13.48
889.611	-17.24
889.782	-2.9
889.953	1.19
890.125	119.98
890.296	46.25
890.467	-4.95
890.638	-80.72
890.809	25.77
890.98	-4.95
891.151	-11.09
891.323	-35.67
891.494	5.29
891.665	56.49
891.836	83.11
892.007	27.82
892.178	-25.43
892.349	66.73
892.52	-25.43
892.691	31.91
892.862	101.55
893.032	-41.81
893.203	93.35
893.374	-27.48
893.545	15.53
893.716	19.63
893.887	-35.67
894.057	-15.19
894.228	-23.38
894.399	42.15
894.57	-39.76
894.74	27.82
894.911	56.49
895.082	9.39
895.253	-13.14
895.423	-7
895.594	40.11
895.764	13.48
895.935	33.96
896.106	-2.9
896.276	31.91
896.447	17.58
896.617	38.06
896.788	-105.3
896.958	5.29
897.129	5.29
897.299	-45.91
897.47	58.54
897.64	58.54
897.81	11.43
897.981	33.96
898.151	13.48
898.322	76.97
898.492	29.87
898.662	9.39
898.832	-62.29
899.003	-4.95
899.173	-23.38
899.343	-15.19
899.513	-21.33
