Data from USB4F104151__62__12-42-02-059.txt Node

Date: Fri Mar 14 12:42:02 EDT 2025
User: louis
Spectrometer: USB4F10415
Trigger mode: 4
Integration Time (sec): 3.000000E-2
Scans to average: 1
Electric dark correction enabled: true
Nonlinearity correction enabled: false
Boxcar width: 0
XAxis mode: Wavelengths
Number of Pixels in Spectrum: 3648
>>>>>Begin Spectral Data<<<<<
178.204	-141.82
178.424	-141.82
178.644	-141.82
178.864	-123.39
179.084	-227.84
179.304	-61.95
179.524	-27.14
179.744	3.58
179.964	105.98
180.184	-51.71
180.404	-0.51
180.624	11.78
180.844	48.64
181.064	-61.95
181.283	44.54
181.503	-37.38
181.723	26.11
181.943	30.21
182.163	40.45
182.383	-31.23
182.602	26.11
182.822	24.06
183.042	44.54
183.262	-18.94
183.482	13.82
183.701	1.54
183.921	22.02
184.141	-31.23
184.361	32.26
184.58	5.63
184.8	-33.28
185.02	-20.99
185.239	34.3
185.459	112.13
185.679	83.45
185.898	-45.57
186.118	11.78
186.338	-18.94
186.557	15.87
186.777	15.87
186.997	-10.75
187.216	24.06
187.436	32.26
187.655	-6.66
187.875	79.36
188.095	85.5
188.314	97.79
188.534	99.84
188.753	-41.47
188.973	30.21
189.192	5.63
189.412	17.92
189.631	34.3
189.851	-4.61
190.07	65.02
190.29	38.4
190.509	13.82
190.729	-59.9
190.948	60.93
191.168	128.51
191.387	-16.9
191.607	15.87
191.826	-6.66
192.045	58.88
192.265	5.63
192.484	17.92
192.704	32.26
192.923	32.26
193.142	122.37
193.362	46.59
193.581	44.54
193.8	69.12
194.02	40.45
194.239	9.73
194.458	22.02
194.678	-12.8
194.897	-53.76
195.116	-27.14
195.335	-29.18
195.555	-6.66
195.774	-31.23
195.993	28.16
196.212	71.17
196.432	-27.14
196.651	34.3
196.87	-49.66
197.089	83.45
197.308	13.82
197.528	97.79
197.747	-33.28
197.966	-0.51
198.185	24.06
198.404	30.21
198.623	-47.62
198.842	19.97
199.062	-20.99
199.281	71.17
199.5	-41.47
199.719	42.5
199.938	32.26
200.157	-0.51
200.376	-0.51
200.595	75.26
200.814	-27.14
201.033	-39.42
201.252	112.13
201.471	22.02
201.69	85.5
201.909	13.82
202.128	62.98
202.347	34.3
202.566	-0.51
202.785	48.64
203.004	-70.14
203.223	28.16
203.442	38.4
203.661	-33.28
203.879	122.37
204.098	46.59
204.317	-64
204.536	101.89
204.755	1.54
204.974	-39.42
205.193	44.54
205.411	62.98
205.63	-47.62
205.849	73.21
206.068	-6.66
206.287	75.26
206.505	-84.48
206.724	5.63
206.943	52.74
207.162	-25.09
207.381	-2.56
207.599	9.73
207.818	32.26
208.037	-53.76
208.255	-66.05
208.474	151.04
208.693	-4.61
208.911	9.73
209.13	-12.8
209.349	40.45
209.567	24.06
209.786	58.88
210.005	-14.85
210.223	-0.51
210.442	-33.28
210.661	56.83
210.879	-51.71
211.098	52.74
211.316	-0.51
211.535	60.93
211.753	-20.99
211.972	32.26
212.191	-20.99
212.409	-8.7
212.628	19.97
212.846	-14.85
213.065	15.87
213.283	101.89
213.502	-47.62
213.72	-33.28
213.938	32.26
214.157	-33.28
214.375	15.87
214.594	118.27
214.812	26.11
215.031	73.21
215.249	-25.09
215.467	48.64
215.686	-14.85
215.904	-33.28
216.122	42.5
216.341	75.26
216.559	26.11
216.778	38.4
216.996	79.36
217.214	15.87
217.432	-37.38
217.651	-27.14
217.869	69.12
218.087	-10.75
218.306	-29.18
218.524	13.82
218.742	9.73
218.96	42.5
219.179	73.21
219.397	-16.9
219.615	85.5
219.833	36.35
220.051	15.87
220.27	-14.85
220.488	36.35
220.706	46.59
220.924	-39.42
221.142	24.06
221.36	22.02
221.578	83.45
221.796	-27.14
222.015	-20.99
222.233	52.74
222.451	32.26
222.669	-55.81
222.887	44.54
223.105	19.97
223.323	34.3
223.541	-37.38
223.759	42.5
223.977	-66.05
224.195	32.26
224.413	-14.85
224.631	-41.47
224.849	32.26
225.067	52.74
225.285	15.87
225.503	54.78
225.721	-10.75
225.939	-53.76
226.157	17.92
226.375	91.65
226.592	1.54
226.81	9.73
227.028	95.74
227.246	108.03
227.464	-31.23
227.682	114.17
227.9	5.63
228.117	19.97
228.335	-35.33
228.553	-72.19
228.771	13.82
228.989	-0.51
229.206	-0.51
229.424	-6.66
229.642	-39.42
229.86	52.74
230.077	52.74
230.295	-27.14
230.513	52.74
230.731	52.74
230.948	42.5
231.166	69.12
231.384	-0.51
231.601	52.74
231.819	36.35
232.037	-47.62
232.254	-25.09
232.472	-14.85
232.689	-6.66
232.907	11.78
233.125	-2.56
233.342	75.26
233.56	-57.86
233.777	-0.51
233.995	15.87
234.213	-2.56
234.43	48.64
234.648	-4.61
234.865	-0.51
235.083	81.41
235.3	-10.75
235.518	17.92
235.735	77.31
235.953	99.84
236.17	-25.09
236.388	-4.61
236.605	5.63
236.822	17.92
237.04	-14.85
237.257	13.82
237.475	-45.57
237.692	32.26
237.909	-10.75
238.127	-20.99
238.344	56.83
238.562	-39.42
238.779	-16.9
238.996	-23.04
239.214	30.21
239.431	50.69
239.648	-10.75
239.865	-8.7
240.083	24.06
240.3	-6.66
240.517	13.82
240.735	103.93
240.952	30.21
241.169	79.36
241.386	44.54
241.603	1.54
241.821	-25.09
242.038	52.74
242.255	17.92
242.472	-2.56
242.689	1.54
242.907	-18.94
243.124	32.26
243.341	5.63
243.558	-57.86
243.775	-61.95
243.992	-47.62
244.209	30.21
244.426	89.6
244.643	58.88
244.86	-23.04
245.078	56.83
245.295	22.02
245.512	26.11
245.729	-16.9
245.946	-64
246.163	32.26
246.38	58.88
246.597	5.63
246.814	13.82
247.031	-6.66
247.248	52.74
247.464	-12.8
247.681	7.68
247.898	-0.51
248.115	-0.51
248.332	-10.75
248.549	36.35
248.766	24.06
248.983	-33.28
249.2	-29.18
249.417	46.59
249.633	7.68
249.85	-8.7
250.067	-4.61
250.284	-53.76
250.501	15.87
250.717	99.84
250.934	15.87
251.151	15.87
251.368	3.58
251.585	28.16
251.801	50.69
252.018	34.3
252.235	77.31
252.451	-27.14
252.668	-0.51
252.885	50.69
253.102	-2.56
253.318	22.02
253.535	-35.33
253.752	-72.19
253.968	7.68
254.185	-92.67
254.401	7.68
254.618	30.21
254.835	15.87
255.051	48.64
255.268	32.26
255.484	1.54
255.701	-20.99
255.917	11.78
256.134	-51.71
256.351	-2.56
256.567	26.11
256.784	116.22
257	-10.75
257.217	13.82
257.433	42.5
257.65	-33.28
257.866	48.64
258.082	48.64
258.299	-51.71
258.515	110.08
258.732	-14.85
258.948	17.92
259.165	3.58
259.381	7.68
259.597	28.16
259.814	-86.53
260.03	77.31
260.246	-18.94
260.463	128.51
260.679	48.64
260.895	46.59
261.112	46.59
261.328	-2.56
261.544	60.93
261.761	30.21
261.977	5.63
262.193	1.54
262.409	112.13
262.626	40.45
262.842	87.55
263.058	-66.05
263.274	62.98
263.49	5.63
263.707	34.3
263.923	-6.66
264.139	-104.96
264.355	15.87
264.571	30.21
264.787	34.3
265.004	87.55
265.22	-2.56
265.436	-18.94
265.652	36.35
265.868	-25.09
266.084	9.73
266.3	-27.14
266.516	-61.95
266.732	32.26
266.948	-10.75
267.164	-51.71
267.38	19.97
267.596	50.69
267.812	130.56
268.028	58.88
268.244	-16.9
268.46	15.87
268.676	5.63
268.892	46.59
269.108	7.68
269.324	9.73
269.54	40.45
269.756	81.41
269.972	-20.99
270.188	-2.56
270.403	11.78
270.619	1.54
270.835	13.82
271.051	17.92
271.267	-37.38
271.483	-6.66
271.698	26.11
271.914	75.26
272.13	-53.76
272.346	5.63
272.562	-33.28
272.777	7.68
272.993	-29.18
273.209	-18.94
273.425	-25.09
273.64	-20.99
273.856	71.17
274.072	5.63
274.287	26.11
274.503	44.54
274.719	-16.9
274.934	19.97
275.15	3.58
275.366	-2.56
275.581	-14.85
275.797	-31.23
276.012	67.07
276.228	-8.7
276.444	-35.33
276.659	-0.51
276.875	-35.33
277.09	-14.85
277.306	-102.91
277.521	44.54
277.737	67.07
277.952	-53.76
278.168	56.83
278.383	-12.8
278.599	79.36
278.814	9.73
279.03	-8.7
279.245	75.26
279.461	32.26
279.676	28.16
279.892	15.87
280.107	1.54
280.322	-33.28
280.538	22.02
280.753	7.68
280.969	38.4
281.184	5.63
281.399	32.26
281.615	26.11
281.83	19.97
282.045	-14.85
282.26	-68.09
282.476	-8.7
282.691	-23.04
282.906	44.54
283.122	-41.47
283.337	87.55
283.552	-23.04
283.767	-74.24
283.983	34.3
284.198	26.11
284.413	42.5
284.628	48.64
284.843	3.58
285.058	38.4
285.274	-2.56
285.489	-53.76
285.704	38.4
285.919	-70.14
286.134	24.06
286.349	-16.9
286.564	-45.57
286.779	32.26
286.995	28.16
287.21	-0.51
287.425	81.41
287.64	48.64
287.855	5.63
288.07	-2.56
288.285	19.97
288.5	-14.85
288.715	67.07
288.93	-18.94
289.145	52.74
289.36	52.74
289.575	-31.23
289.79	140.8
290.004	65.02
290.219	17.92
290.434	-18.94
290.649	-12.8
290.864	7.68
291.079	3.58
291.294	38.4
291.509	17.92
291.724	7.68
291.938	7.68
292.153	32.26
292.368	-20.99
292.583	118.27
292.798	77.31
293.012	24.06
293.227	1.54
293.442	-8.7
293.657	62.98
293.871	48.64
294.086	3.58
294.301	101.89
294.516	48.64
294.73	-20.99
294.945	-37.38
295.16	7.68
295.374	71.17
295.589	52.74
295.804	-0.51
296.018	56.83
296.233	60.93
296.447	7.68
296.662	-10.75
296.877	-51.71
297.091	-16.9
297.306	52.74
297.52	13.82
297.735	5.63
297.949	40.45
298.164	-0.51
298.378	7.68
298.593	13.82
298.807	79.36
299.022	1.54
299.236	-23.04
299.451	-27.14
299.665	54.78
299.88	46.59
300.094	30.21
300.309	62.98
300.523	17.92
300.737	79.36
300.952	9.73
301.166	40.45
301.381	24.06
301.595	50.69
301.809	-8.7
302.024	-14.85
302.238	5.63
302.452	62.98
302.667	38.4
302.881	65.02
303.095	22.02
303.309	-27.14
303.524	11.78
303.738	46.59
303.952	28.16
304.166	62.98
304.381	-31.23
304.595	97.79
304.809	-2.56
305.023	50.69
305.237	1.54
305.452	3.58
305.666	-8.7
305.88	105.98
306.094	9.73
306.308	-37.38
306.522	79.36
306.736	9.73
306.95	44.54
307.164	-25.09
307.379	22.02
307.593	60.93
307.807	32.26
308.021	46.59
308.235	91.65
308.449	34.3
308.663	5.63
308.877	87.55
309.091	56.83
309.305	89.6
309.519	-41.47
309.733	22.02
309.947	-88.57
310.161	32.26
310.374	67.07
310.588	44.54
310.802	3.58
311.016	62.98
311.23	58.88
311.444	58.88
311.658	-0.51
311.872	19.97
312.085	24.06
312.299	110.08
312.513	73.21
312.727	15.87
312.941	32.26
313.154	9.73
313.368	22.02
313.582	15.87
313.796	-8.7
314.009	105.98
314.223	38.4
314.437	17.92
314.651	83.45
314.864	13.82
315.078	-31.23
315.292	3.58
315.505	26.11
315.719	114.17
315.933	-14.85
316.146	5.63
316.36	5.63
316.573	97.79
316.787	-29.18
317.001	56.83
317.214	-39.42
317.428	38.4
317.641	24.06
317.855	-47.62
318.068	-25.09
318.282	93.69
318.495	79.36
318.709	-2.56
318.922	-43.52
319.136	44.54
319.349	56.83
319.563	1.54
319.776	-6.66
319.99	56.83
320.203	48.64
320.417	-29.18
320.63	95.74
320.843	130.56
321.057	85.5
321.27	-109.05
321.483	54.78
321.697	11.78
321.91	15.87
322.124	32.26
322.337	103.93
322.55	-8.7
322.763	11.78
322.977	-10.75
323.19	3.58
323.403	5.63
323.617	-6.66
323.83	50.69
324.043	48.64
324.256	32.26
324.469	-33.28
324.683	26.11
324.896	95.74
325.109	1.54
325.322	5.63
325.535	44.54
325.748	48.64
325.962	52.74
326.175	-10.75
326.388	7.68
326.601	24.06
326.814	-4.61
327.027	60.93
327.24	79.36
327.453	30.21
327.666	13.82
327.879	54.78
328.092	114.17
328.305	-31.23
328.518	-68.09
328.731	-0.51
328.944	-6.66
329.157	-4.61
329.37	38.4
329.583	122.37
329.796	52.74
330.009	1.54
330.222	105.98
330.435	-12.8
330.648	44.54
330.861	15.87
331.073	62.98
331.286	32.26
331.499	56.83
331.712	56.83
331.925	15.87
332.138	-39.42
332.35	7.68
332.563	-27.14
332.776	77.31
332.989	30.21
333.202	58.88
333.414	30.21
333.627	-18.94
333.84	30.21
334.053	24.06
334.265	13.82
334.478	48.64
334.691	75.26
334.903	40.45
335.116	-16.9
335.329	7.68
335.541	65.02
335.754	95.74
335.966	-35.33
336.179	-68.09
336.392	34.3
336.604	-20.99
336.817	44.54
337.029	91.65
337.242	22.02
337.454	-2.56
337.667	62.98
337.88	46.59
338.092	44.54
338.305	5.63
338.517	34.3
338.729	58.88
338.942	144.89
339.154	9.73
339.367	-45.57
339.579	30.21
339.792	-20.99
340.004	19.97
340.217	-6.66
340.429	15.87
340.641	36.35
340.854	-10.75
341.066	-25.09
341.278	105.98
341.491	-0.51
341.703	17.92
341.915	50.69
342.128	91.65
342.34	-16.9
342.552	-6.66
342.764	81.41
342.977	56.83
343.189	136.7
343.401	42.5
343.613	-37.38
343.826	9.73
344.038	-39.42
344.25	11.78
344.462	38.4
344.674	97.79
344.886	-18.94
345.099	-16.9
345.311	110.08
345.523	15.87
345.735	-51.71
345.947	9.73
346.159	108.03
346.371	81.41
346.583	-74.24
346.795	81.41
347.007	-39.42
347.219	42.5
347.431	42.5
347.643	17.92
347.855	44.54
348.067	11.78
348.279	34.3
348.491	-31.23
348.703	-0.51
348.915	17.92
349.127	19.97
349.339	48.64
349.551	19.97
349.763	40.45
349.975	-20.99
350.187	87.55
350.399	-8.7
350.61	46.59
350.822	7.68
351.034	56.83
351.246	22.02
351.458	-2.56
351.669	91.65
351.881	32.26
352.093	93.69
352.305	-10.75
352.517	5.63
352.728	71.17
352.94	-35.33
353.152	-16.9
353.363	-10.75
353.575	32.26
353.787	83.45
353.999	-6.66
354.21	48.64
354.422	11.78
354.633	50.69
354.845	3.58
355.057	42.5
355.268	32.26
355.48	26.11
355.692	-16.9
355.903	-49.66
356.115	62.98
356.326	-27.14
356.538	-6.66
356.749	-33.28
356.961	62.98
357.172	-20.99
357.384	-61.95
357.595	132.61
357.807	19.97
358.018	11.78
358.23	-2.56
358.441	-8.7
358.653	24.06
358.864	26.11
359.075	50.69
359.287	-8.7
359.498	36.35
359.709	-16.9
359.921	73.21
360.132	32.26
360.344	73.21
360.555	36.35
360.766	32.26
360.977	48.64
361.189	24.06
361.4	-6.66
361.611	19.97
361.823	1.54
362.034	15.87
362.245	3.58
362.456	-18.94
362.667	52.74
362.879	116.22
363.09	26.11
363.301	65.02
363.512	7.68
363.723	15.87
363.935	32.26
364.146	75.26
364.357	17.92
364.568	-14.85
364.779	-20.99
364.99	87.55
365.201	26.11
365.412	17.92
365.623	-2.56
365.834	1.54
366.045	60.93
366.256	65.02
366.467	93.69
366.678	40.45
366.889	108.03
367.1	67.07
367.311	108.03
367.522	19.97
367.733	7.68
367.944	24.06
368.155	-35.33
368.366	17.92
368.577	58.88
368.788	65.02
368.999	-33.28
369.209	7.68
369.42	81.41
369.631	116.22
369.842	28.16
370.053	40.45
370.264	83.45
370.474	-8.7
370.685	40.45
370.896	3.58
371.107	56.83
371.317	46.59
371.528	19.97
371.739	93.69
371.95	-16.9
372.16	-51.71
372.371	28.16
372.582	28.16
372.792	89.6
373.003	71.17
373.214	38.4
373.424	118.27
373.635	7.68
373.846	73.21
374.056	32.26
374.267	97.79
374.477	15.87
374.688	-49.66
374.898	-0.51
375.109	-0.51
375.319	30.21
375.53	40.45
375.74	58.88
375.951	-35.33
376.161	58.88
376.372	97.79
376.582	-31.23
376.793	52.74
377.003	-66.05
377.214	1.54
377.424	32.26
377.635	38.4
377.845	1.54
378.055	34.3
378.266	-12.8
378.476	7.68
378.686	5.63
378.897	56.83
379.107	22.02
379.317	15.87
379.528	62.98
379.738	54.78
379.948	-10.75
380.158	85.5
380.369	60.93
380.579	93.69
380.789	-2.56
380.999	46.59
381.21	42.5
381.42	75.26
381.63	91.65
381.84	58.88
382.05	60.93
382.261	101.89
382.471	60.93
382.681	73.21
382.891	24.06
383.101	75.26
383.311	-18.94
383.521	28.16
383.731	34.3
383.941	79.36
384.151	28.16
384.361	50.69
384.571	9.73
384.781	77.31
384.991	79.36
385.201	22.02
385.411	108.03
385.621	-20.99
385.831	48.64
386.041	54.78
386.251	32.26
386.461	65.02
386.671	-4.61
386.881	5.63
387.091	85.5
387.301	73.21
387.511	79.36
387.72	13.82
387.93	11.78
388.14	44.54
388.35	67.07
388.56	32.26
388.769	71.17
388.979	-27.14
389.189	77.31
389.399	67.07
389.609	65.02
389.818	40.45
390.028	56.83
390.238	71.17
390.447	-12.8
390.657	24.06
390.867	83.45
391.076	71.17
391.286	122.37
391.496	30.21
391.705	65.02
391.915	44.54
392.125	-33.28
392.334	22.02
392.544	22.02
392.753	44.54
392.963	65.02
393.172	24.06
393.382	83.45
393.591	132.61
393.801	-8.7
394.01	44.54
394.22	44.54
394.429	26.11
394.639	91.65
394.848	-16.9
395.058	101.89
395.267	-39.42
395.477	75.26
395.686	114.17
395.895	91.65
396.105	89.6
396.314	83.45
396.524	-16.9
396.733	56.83
396.942	67.07
397.152	118.27
397.361	110.08
397.57	124.41
397.78	19.97
397.989	110.08
398.198	54.78
398.407	15.87
398.617	81.41
398.826	101.89
399.035	56.83
399.244	71.17
399.453	60.93
399.663	120.32
399.872	54.78
400.081	138.75
400.29	169.47
400.499	48.64
400.708	155.13
400.917	26.11
401.127	93.69
401.336	17.92
401.545	116.22
401.754	175.61
401.963	144.89
402.172	71.17
402.381	22.02
402.59	65.02
402.799	75.26
403.008	13.82
403.217	163.33
403.426	50.69
403.635	124.41
403.844	81.41
404.053	118.27
404.262	140.8
404.471	122.37
404.68	138.75
404.888	153.09
405.097	142.85
405.306	67.07
405.515	187.9
405.724	153.09
405.933	179.71
406.142	165.37
406.35	212.48
406.559	105.98
406.768	200.19
406.977	161.28
407.185	181.76
407.394	232.96
407.603	146.94
407.812	202.24
408.02	208.38
408.229	185.85
408.438	175.61
408.646	134.65
408.855	189.95
409.064	253.44
409.272	241.15
409.481	273.92
409.69	265.72
409.898	185.85
410.107	218.62
410.315	253.44
410.524	192
410.733	282.11
410.941	245.24
411.15	355.83
411.358	341.5
411.567	370.17
411.775	306.68
411.984	431.61
412.192	404.99
412.401	437.75
412.609	458.23
412.818	501.24
413.026	462.33
413.234	464.38
413.443	435.71
413.651	476.66
413.86	511.48
414.068	562.68
414.276	648.69
414.485	568.82
414.693	585.21
414.901	673.27
415.11	695.8
415.318	634.36
415.526	802.29
415.734	806.39
415.943	757.24
416.151	826.87
416.359	814.58
416.567	888.31
416.776	851.44
416.984	867.83
417.192	919.03
417.4	835.06
417.608	972.27
417.817	865.78
418.025	1058.29
418.233	1086.96
418.441	994.8
418.649	1193.45
418.857	1172.97
419.065	1310.19
419.273	1271.28
419.481	1287.66
419.689	1478.12
419.897	1545.7
420.105	1377.77
420.313	1510.89
420.521	1557.99
420.729	1547.75
420.937	1658.34
421.145	1742.31
421.353	1824.23
421.561	1920.48
421.769	1969.63
421.977	2002.4
422.185	2063.84
422.393	2031.07
422.601	2225.63
422.809	2231.77
423.017	2246.11
423.224	2239.97
423.432	2473.43
423.64	2477.53
423.848	2782.68
424.056	2653.66
424.263	2854.36
424.471	2829.78
424.679	2786.77
424.887	3089.87
425.094	3089.87
425.302	3061.2
425.51	3259.85
425.718	3419.6
425.925	3399.12
426.133	3450.32
426.341	3784.13
426.548	3904.96
426.756	3933.64
426.964	3970.5
427.171	4179.39
427.379	4345.28
427.586	4419
427.794	4414.91
428.001	4820.41
428.209	4914.61
428.417	4842.93
428.624	5100.98
428.832	5186.99
429.039	5125.55
429.247	4984.24
429.454	5471.66
429.662	5934.5
429.869	5524.91
430.076	6032.8
430.284	5924.26
430.491	6204.83
430.699	6565.28
430.906	6524.32
431.114	6596
431.321	6747.55
431.528	7042.45
431.736	7292.3
431.943	7640.46
432.15	7566.73
432.358	7710.09
432.565	7998.85
432.772	7943.56
432.979	8285.57
433.187	8516.99
433.394	8562.05
433.601	8934.78
433.808	9127.28
434.016	9024.89
434.223	9389.42
434.43	10100.07
434.637	9839.98
434.844	10411.36
435.052	10700.12
435.259	10587.49
435.466	10937.69
435.673	10464.61
435.88	11134.29
436.087	11973.96
436.294	11863.37
436.501	11666.77
436.708	12119.37
436.915	12033.35
437.122	12838.2
437.329	12614.98
437.537	13249.85
437.743	13391.16
437.95	13432.12
438.157	13907.24
438.364	14411.04
438.571	14302.5
438.778	14423.33
438.985	15977.74
439.192	15267.1
439.399	15684.88
439.606	15250.71
439.813	16264.46
440.02	17442.04
440.227	16993.53
440.433	16735.49
440.64	17362.17
440.847	17208.57
441.054	17370.36
441.261	18918.62
441.467	18834.66
441.674	19158.24
441.881	19707.09
442.088	19809.49
442.294	19342.55
442.501	19903.7
442.708	20604.1
442.914	21198.01
443.121	22062.26
443.328	21482.68
443.534	23022.75
443.741	22123.69
443.948	22342.83
444.154	23698.58
444.361	23403.67
444.568	23964.82
444.774	23757.97
444.981	24065.17
445.187	24743.05
445.394	25302.14
445.6	25525.37
445.807	27835.48
446.013	26571.88
446.22	26813.54
446.426	28247.12
446.633	28435.53
446.839	29551.68
447.046	27905.11
447.252	29506.62
447.459	29606.97
447.665	29467.71
447.871	31036.45
448.078	32543.76
448.284	31159.33
448.491	31677.47
448.697	32861.19
448.903	33369.09
449.11	33131.53
449.316	32777.23
449.522	33528.83
449.728	34251.77
449.935	34829.29
450.141	34876.4
450.347	35572.71
450.553	34327.54
450.76	35118.06
450.966	36471.76
451.172	35607.52
451.378	36537.3
451.584	35716.06
451.791	36930.51
451.997	36586.45
452.203	36983.76
452.409	37483.46
452.615	36975.56
452.821	35877.85
453.027	35257.32
453.233	37166.02
453.44	35752.93
453.646	35922.91
453.852	36287.45
454.058	37280.71
454.264	35920.86
454.47	36475.86
454.676	35609.57
454.882	36783.05
455.088	33805.31
455.294	33930.23
455.5	34827.24
455.705	34829.29
455.911	33928.19
456.117	33141.77
456.323	32517.14
456.529	31349.79
456.735	32400.4
456.941	31474.72
457.147	31038.5
457.352	30055.48
457.558	29705.27
457.764	30102.58
457.97	29193.28
458.176	28597.32
458.381	28462.16
458.587	26965.09
458.793	27298.91
458.999	25883.77
459.204	27671.64
459.41	26743.91
459.616	24632.46
459.821	25154.69
460.027	25164.93
460.233	24243.34
460.438	23225.5
460.644	23860.37
460.85	22516.9
461.055	22166.7
461.261	22160.56
461.466	20597.96
461.672	19934.42
461.878	21228.73
462.083	19664.08
462.289	19371.22
462.494	19262.68
462.7	18316.52
462.905	17847.54
463.111	18717.92
463.316	18578.66
463.522	18087.15
463.727	18183.4
463.932	18164.97
464.138	18095.34
464.343	18138.35
464.549	17374.45
464.754	18160.87
464.959	17820.91
465.165	17898.73
465.37	17272.06
465.575	16508.16
465.781	17288.44
465.986	17433.85
466.191	16798.98
466.397	16723.2
466.602	15736.08
466.807	16305.42
467.012	16368.9
467.218	16030.99
467.423	16008.46
467.628	16291.08
467.833	16807.17
468.038	16143.63
468.244	16010.51
468.449	16059.66
468.654	15910.16
468.859	15766.8
469.064	15684.88
469.269	14910.75
469.474	15197.46
469.679	15293.72
469.885	15203.61
470.09	15463.7
470.295	14957.85
470.5	15072.54
470.705	15043.87
470.91	14615.84
471.115	14464.29
471.32	14748.96
471.525	14529.83
471.73	14322.98
471.935	14181.67
472.139	13397.3
472.344	14036.27
472.549	13864.24
472.754	13434.16
472.959	13303.09
473.164	12793.15
473.369	12969.27
473.574	13346.1
473.778	13088.06
473.983	13010.23
474.188	13190.45
474.393	12371.27
474.598	12481.86
474.802	12539.2
475.007	12129.61
475.212	12223.81
475.417	11785.55
475.621	11992.39
475.826	11963.72
476.031	11683.15
476.235	11335
476.44	11607.37
476.645	11246.93
476.849	11283.8
477.054	11054.42
477.259	10925.4
477.463	11013.46
477.668	10648.93
477.872	11019.61
478.077	10599.77
478.282	10315.11
478.486	10276.2
478.691	10505.57
478.895	10370.4
479.1	10206.56
479.304	10272.1
479.509	9962.86
479.713	10136.93
479.918	9946.47
480.122	9854.31
480.326	9938.28
480.531	9905.51
480.735	9643.37
480.94	9540.97
481.144	10116.45
481.348	9491.82
481.553	9647.47
481.757	9500.02
481.961	9665.9
482.166	9586.03
482.37	9692.52
482.574	9293.17
482.778	9493.87
482.983	9813.35
483.187	9450.86
483.391	9260.4
483.595	9409.9
483.8	9387.38
484.004	9452.91
484.208	9573.74
484.412	9700.72
484.616	9753.96
484.821	9626.99
485.025	9303.41
485.229	9567.6
485.433	9405.81
485.637	9385.33
485.841	9358.71
486.045	9364.85
486.249	9493.87
486.453	9538.93
486.657	9475.44
486.861	9362.8
487.065	9205.11
487.269	9463.15
487.473	9239.92
487.677	9327.99
487.881	9545.07
488.085	9358.71
488.289	9307.51
488.493	9375.09
488.697	9532.78
488.901	9442.67
489.105	9532.78
489.309	9573.74
489.512	9557.36
489.716	9448.82
489.92	9577.84
490.124	9457.01
490.328	9717.1
490.531	9651.56
490.735	9639.28
490.939	9626.99
491.143	9700.72
491.346	9631.09
491.55	9905.51
491.754	9729.39
491.958	9874.79
492.161	9764.2
492.365	9917.8
492.569	9813.35
492.772	9936.23
492.976	10067.3
493.18	10083.69
493.383	10190.18
493.587	10290.53
493.79	10327.39
493.994	10169.7
494.197	10278.24
494.401	10521.95
494.605	10618.21
494.808	10716.51
495.012	10792.28
495.215	10827.1
495.419	10732.89
495.622	10816.86
495.825	10722.65
496.029	10911.07
496.232	11019.61
496.436	11113.81
496.639	11447.63
496.843	11248.98
497.046	11605.33
497.249	11711.82
497.453	11812.17
497.656	11625.81
497.859	11803.98
498.063	11873.61
498.266	12154.18
498.469	12143.94
498.673	12346.69
498.876	12336.45
499.079	12594.5
499.282	12547.39
499.485	12811.58
499.689	12692.8
499.892	13165.88
500.095	13155.64
500.298	13374.77
500.501	13161.78
500.705	13661.49
500.908	13710.64
501.111	13999.4
501.314	13983.02
501.517	14146.86
501.72	14378.28
501.923	14234.92
502.126	14841.12
502.329	14794.01
502.532	14767.39
502.735	15037.72
502.938	15267.1
503.141	15422.74
503.344	15770.9
503.547	15594.77
503.75	15844.62
503.953	15871.25
504.156	16139.53
504.359	16514.31
504.562	16495.88
504.765	16788.74
504.968	17036.54
505.17	17169.66
505.373	16930.05
505.576	17249.53
505.779	17622.26
505.982	17515.76
506.185	18078.96
506.387	18099.44
506.59	18185.45
506.793	18476.26
506.996	18621.67
507.198	18789.6
507.401	18853.09
507.604	19346.65
507.807	19418.33
508.009	19838.16
508.212	19530.97
508.415	20096.21
508.617	20178.12
508.82	20221.13
509.022	19950.8
509.225	20710.6
509.428	20692.16
509.63	21042.37
509.833	20985.02
510.035	21591.22
510.238	21224.64
510.44	21855.41
510.643	22029.49
510.845	22348.97
511.048	21959.86
511.25	22332.59
511.453	22600.87
511.655	23356.57
511.858	23039.14
512.06	23481.5
512.262	23899.28
512.465	23274.65
512.667	24138.9
512.87	24558.73
513.072	24353.93
513.274	24700.04
513.477	24677.51
513.679	24939.65
513.881	25246.85
514.084	25126.02
514.286	25533.56
514.488	25437.31
514.69	26119.28
514.893	26344.56
515.095	26324.08
515.297	26698.86
515.499	26991.72
515.701	26969.19
515.904	27294.82
516.106	27462.75
516.308	27894.87
516.51	28042.32
516.712	28003.41
516.914	28122.19
517.116	28703.82
517.318	28800.07
517.52	28988.49
517.722	28816.46
517.925	29228.1
518.127	29500.48
518.329	30090.29
518.531	29692.99
518.733	30202.93
518.935	30575.66
519.136	30620.72
519.338	30669.87
519.54	31329.31
519.742	31251.49
519.944	31415.33
520.146	31605.79
520.348	31869.98
520.55	31931.42
520.752	32195.6
520.954	32678.93
521.155	32386.07
521.357	33068.04
521.559	33162.25
521.761	33633.28
521.963	33631.23
522.164	33895.42
522.366	33827.84
522.568	34630.64
522.77	34440.18
522.971	35046.38
523.173	34243.57
523.375	34829.29
523.576	34999.27
523.778	34890.73
523.98	35410.92
524.181	35521.51
524.383	35578.85
524.584	35705.82
524.786	35693.54
524.988	35638.24
525.189	36269.01
525.391	36299.73
525.592	36033.5
525.794	36453.33
525.995	36656.08
526.197	36568.02
526.398	36819.92
526.6	36858.83
526.801	37147.59
527.003	37073.87
527.204	37336.01
527.406	37696.45
527.607	37606.34
527.808	37915.58
528.01	37409.73
528.211	37624.77
528.412	38314.94
528.614	38245.3
528.815	37983.16
529.016	38206.39
529.218	38153.15
529.419	38380.47
529.62	37989.31
529.822	37995.45
530.023	37829.57
530.224	38814.64
530.425	38173.63
530.626	38077.37
530.828	38112.19
531.029	38783.92
531.23	38409.14
531.431	38460.34
531.632	38198.2
531.833	38929.33
532.035	38679.47
532.236	38874.03
532.437	38921.13
532.638	38675.38
532.839	38890.41
533.04	38816.69
533.241	38955.95
533.442	39418.79
533.643	38777.78
533.844	38699.95
534.045	39289.77
534.246	38816.69
534.447	39119.79
534.648	39048.11
534.849	38994.86
535.05	38714.29
535.251	39109.55
535.451	38777.78
535.652	39119.79
535.853	39173.03
536.054	38728.63
536.255	38890.41
536.456	38810.54
536.657	39254.95
536.857	39097.26
537.058	38958
537.259	38947.76
537.46	39084.97
537.66	38785.97
537.861	39269.29
538.062	38773.68
538.263	38851.5
538.463	38781.87
538.664	38759.34
538.865	38958
539.065	39027.63
539.266	38708.15
539.466	38800.3
539.667	38577.08
539.868	38970.29
540.068	38882.22
540.269	38859.7
540.469	38740.91
540.67	38601.65
540.87	38843.31
541.071	38718.39
541.271	38986.67
541.472	38697.91
541.672	38433.72
541.873	38618.03
542.073	38040.51
542.274	39048.11
542.474	38972.33
542.675	38411.19
542.875	39021.48
543.075	38855.6
543.276	38347.7
543.476	38790.06
543.676	38511.54
543.877	38646.71
544.077	38630.32
544.277	38523.83
544.478	38460.34
544.678	38728.63
544.878	38273.98
545.078	38337.46
545.279	38226.87
545.479	38421.43
545.679	38661.04
545.879	38785.97
546.079	38583.22
546.28	38441.91
546.48	38034.36
546.68	38103.99
546.88	38437.81
547.08	38257.59
547.28	38366.13
547.48	37981.12
547.68	38433.72
547.88	37716.93
548.081	38230.97
548.281	38908.85
548.481	37966.78
548.681	38493.11
548.881	38079.42
549.081	37823.42
549.28	38103.99
549.48	38089.66
549.68	38067.13
549.88	38425.53
550.08	38007.74
550.28	37694.4
550.48	38321.08
550.68	38620.08
550.88	37923.77
551.08	37870.53
551.279	37968.83
551.479	37761.98
551.679	37753.79
551.879	37778.37
552.079	38134.71
552.278	37956.54
552.478	38005.69
552.678	37598.15
552.878	38362.04
553.077	37915.58
553.277	37481.41
553.477	37831.61
553.676	37712.83
553.876	37452.74
554.076	37313.48
554.275	37753.79
554.475	37372.87
554.674	37510.08
554.874	37604.29
555.074	37405.64
555.273	37688.26
555.473	37526.47
555.672	37454.79
555.872	37348.29
556.071	37419.97
556.271	37374.92
556.47	37348.29
556.67	37213.13
556.869	37475.27
557.068	37317.57
557.268	37039.05
557.467	37180.36
557.667	37186.5
557.866	37321.67
558.065	37135.31
558.265	36953.04
558.464	36676.56
558.663	37219.27
558.863	36621.27
559.062	37123.02
559.261	36586.45
559.461	37456.84
559.66	36488.15
559.859	36709.33
560.058	36479.96
560.258	37016.52
560.457	36170.71
560.656	36740.05
560.855	36375.51
561.054	36705.23
561.253	36373.46
561.453	36318.17
561.652	36406.23
561.851	36527.06
562.05	36344.79
562.249	36434.9
562.448	36649.94
562.647	36107.23
562.846	36232.15
563.045	36252.63
563.244	35750.88
563.443	36260.82
563.642	35695.58
563.841	35611.62
564.04	35881.95
564.239	36299.73
564.438	35417.06
564.637	36164.57
564.836	35990.49
565.035	35662.82
565.234	35888.09
565.432	35185.64
565.631	35316.71
565.83	35927
566.029	35359.72
566.228	35498.98
566.427	35390.44
566.625	34833.39
566.824	34941.93
567.023	35386.34
567.222	34538.48
567.42	35263.46
567.619	34864.11
567.818	34833.39
568.016	34788.33
568.215	34952.17
568.414	34616.3
568.612	34976.75
568.811	34518
569.01	34923.5
569.208	34667.5
569.407	34776.05
569.605	34198.52
569.804	34440.18
570.002	34020.34
570.201	34223.09
570.4	34173.94
570.598	34302.96
570.797	34137.08
570.995	34255.86
571.193	33799.16
571.392	34065.4
571.59	33727.49
571.789	33805.31
571.987	33887.23
572.186	33522.69
572.384	33502.21
572.582	33659.9
572.781	33459.2
572.979	33272.84
573.177	33498.11
573.376	33731.58
573.574	33297.41
573.772	33285.12
573.971	32941.07
574.169	32865.29
574.367	32881.67
574.565	33045.51
574.763	32941.07
574.962	32916.49
575.16	32484.37
575.358	33088.52
575.556	32269.33
575.754	32824.33
575.952	32261.14
576.151	32797.71
576.349	32255
576.547	32459.79
576.745	32154.65
576.943	32279.57
577.141	32119.83
577.339	32226.32
577.537	32087.06
577.735	32046.1
577.933	31609.89
578.131	32166.93
578.329	31972.38
578.527	31695.9
578.725	31554.59
578.923	31618.08
579.121	31507.49
579.319	31577.12
579.516	31595.55
579.714	31450.14
579.912	31347.75
580.11	31599.65
580.308	31151.14
580.506	30993.45
580.704	30815.27
580.901	31052.84
581.099	31054.89
581.297	30792.75
581.495	31153.19
581.692	30886.95
581.89	30622.76
582.088	30811.18
582.285	30481.45
582.483	30624.81
582.681	30430.26
582.878	30256.18
583.076	29957.17
583.274	30405.68
583.471	29848.63
583.669	30282.8
583.866	29887.54
584.064	30188.6
584.262	29727.8
584.459	29983.8
584.657	29828.15
584.854	29684.8
585.052	29414.46
585.249	29719.61
585.447	29418.56
585.644	29244.48
585.841	29324.35
586.039	29586.49
586.236	28963.91
586.434	28941.38
586.631	29025.35
586.828	29000.77
587.026	28925
587.223	28650.57
587.42	28732.49
587.618	28785.74
587.815	28202.07
588.012	28486.73
588.21	28341.33
588.407	28566.6
588.604	28318.8
588.801	28023.89
588.999	28134.48
589.196	28167.25
589.393	27993.17
589.59	27980.89
589.787	27858.01
589.984	27825.24
590.182	27565.15
590.379	27698.27
590.576	27569.24
590.773	27231.33
590.97	27257.95
591.167	27599.96
591.364	27108.45
591.561	27243.62
591.758	27245.66
591.955	27253.86
592.152	27040.87
592.349	26999.91
592.546	26946.66
592.743	26891.37
592.94	26594.41
593.137	26748.01
593.334	26862.69
593.531	26195.06
593.727	26512.49
593.924	26518.64
594.121	26156.14
594.318	26410.09
594.515	26156.14
594.712	26274.93
594.908	25846.9
595.105	25994.36
595.302	25928.82
595.499	25431.16
595.696	25670.78
595.892	25681.02
596.089	25678.97
596.286	25859.19
596.482	25590.91
596.679	25437.31
596.876	25377.92
597.072	25101.44
597.269	25281.66
597.466	25048.19
597.662	25017.47
597.859	24935.56
598.055	24849.54
598.252	25048.19
598.448	24816.77
598.645	24538.25
598.841	24564.87
599.038	24243.34
599.234	24364.17
599.431	24286.35
599.627	24128.66
599.824	24343.69
600.02	24079.5
600.217	24229.01
600.413	23973.01
600.609	23966.87
600.806	23729.3
601.002	24186
601.198	23938.19
601.395	23622.81
601.591	23473.31
601.787	23854.23
601.984	23377.05
602.18	23676.05
602.376	23430.3
602.572	23127.2
602.769	23524.51
602.965	23137.44
603.161	23211.17
603.357	22799.52
603.553	22758.56
603.75	23116.96
603.946	22854.82
604.142	22854.82
604.338	22285.48
604.534	22527.14
604.73	22586.54
604.926	22535.34
605.122	22768.8
605.318	22123.69
605.514	22174.89
605.71	22486.18
605.906	22176.94
606.102	22297.77
606.298	22135.98
606.494	21884.08
606.69	22062.26
606.886	22092.97
607.082	21703.86
607.278	21916.85
607.474	21781.68
607.67	21787.83
607.866	21386.43
608.062	21980.34
608.257	21546.17
608.453	21531.83
608.649	21394.62
608.845	21593.27
609.041	21378.23
609.236	21552.31
609.432	21214.4
609.628	21263.55
609.824	21261.5
610.019	21040.32
610.215	21165.25
610.411	21247.16
610.606	21136.57
610.802	21107.9
610.998	21210.3
611.193	20925.63
611.389	20950.21
611.584	20915.39
611.78	20890.82
611.976	20843.71
612.171	20765.89
612.367	20434.12
612.562	20544.71
612.758	20364.49
612.953	20341.96
613.149	20839.62
613.344	20327.63
613.539	20776.13
613.735	20356.3
613.93	20313.29
614.126	20325.58
614.321	20698.31
614.517	20536.52
614.712	20194.51
614.907	20528.33
615.103	20593.86
615.298	20137.16
615.493	20333.77
615.688	20212.94
615.884	20233.42
616.079	19891.41
616.274	20081.87
616.47	20022.48
616.665	19756.24
616.86	19952.85
617.055	19877.07
617.25	19848.4
617.445	19975.38
617.641	19748.05
617.836	19707.09
618.031	19520.73
618.226	19915.98
618.421	19557.59
618.616	19674.32
618.811	19127.52
619.006	19449.05
619.201	19465.43
619.396	19137.76
619.591	18722.02
619.786	19121.37
619.981	18703.59
620.176	19133.66
620.371	18709.73
620.566	18709.73
620.761	18633.96
620.956	18969.82
621.151	18601.19
621.346	18488.55
621.541	18271.47
621.735	18416.87
621.93	18224.36
622.125	18203.88
622.32	17894.64
622.515	17960.17
622.709	17802.48
622.904	17937.65
623.099	17652.98
623.294	17648.88
623.488	17599.73
623.683	17450.23
623.878	17251.58
624.072	17265.91
624.267	17384.69
624.462	17282.3
624.656	17044.73
624.851	16884.99
625.046	16858.37
625.24	16706.82
625.435	16821.5
625.629	16942.33
625.824	16420.1
626.018	16203.02
626.213	16219.4
626.407	16149.77
626.602	15885.58
626.796	16387.33
626.991	16053.52
627.185	16112.91
627.38	15602.96
627.574	15559.95
627.768	15619.35
627.963	15418.64
628.157	15275.29
628.352	15379.73
628.546	15146.26
628.74	15373.59
628.935	14826.78
629.129	14984.48
629.323	14701.86
629.517	14822.69
629.712	14849.31
629.906	14550.31
630.1	14474.53
630.294	14611.75
630.489	14574.88
630.683	14542.11
630.877	14259.49
631.071	14265.64
631.265	14497.06
631.459	14290.21
631.653	14275.88
631.848	13991.21
632.042	13890.86
632.236	13960.49
632.43	13741.36
632.624	13600.05
632.818	13673.78
633.012	13657.39
633.206	13493.55
633.4	13516.08
633.594	13270.33
633.788	13212.98
633.982	13407.54
634.176	13167.93
634.369	13165.88
634.563	13034.81
634.757	13030.71
634.951	12954.94
635.145	12735.81
635.339	12817.72
635.533	12784.96
635.726	12901.69
635.92	12387.65
636.114	12506.43
636.308	12705.09
636.501	12580.16
636.695	12465.47
636.889	12205.38
637.083	12156.23
637.276	12313.92
637.47	12080.46
637.664	12098.89
637.857	11910.47
638.051	12252.49
638.244	12072.26
638.438	11943.24
638.632	11894.09
638.825	11664.72
639.019	11640.14
639.212	11552.08
639.406	11617.61
639.599	11349.33
639.793	11572.56
639.986	11554.13
640.18	11390.29
640.373	11314.52
640.567	10837.34
640.76	11261.27
640.954	11240.79
641.147	11003.22
641.34	10872.15
641.534	10978.65
641.727	10747.23
641.92	10745.18
642.114	10677.6
642.307	10792.28
642.5	10700.12
642.694	10550.62
642.887	10540.38
643.08	10796.38
643.273	10425.7
643.467	10575.2
643.66	10368.35
643.853	10214.76
644.046	10091.88
644.239	10298.72
644.432	10081.64
644.626	9928.04
644.819	9887.08
645.012	9872.75
645.205	9876.84
645.398	9950.57
645.591	9839.98
645.784	9946.47
645.977	9557.36
646.17	9655.66
646.363	9414
646.556	9510.25
646.749	9420.14
646.942	9577.84
647.135	9272.69
647.328	9172.34
647.521	9420.14
647.714	9184.63
647.907	9280.88
648.099	9274.74
648.292	9244.02
648.485	9227.64
648.678	8787.32
648.871	8902.01
649.064	8955.26
649.256	8940.92
649.449	8693.12
649.642	8607.1
649.835	8564.09
650.027	8701.31
650.22	8830.33
650.413	8435.07
650.605	8488.32
650.798	8592.76
650.991	8549.76
651.183	8392.06
651.376	8365.44
651.568	8394.11
651.761	8267.14
651.954	8170.88
652.146	8222.08
652.339	8267.14
652.531	8158.6
652.724	8252.8
652.916	7935.37
653.109	7927.18
653.301	7988.61
653.494	7904.65
653.686	7789.96
653.879	7898.5
654.071	7884.17
654.263	7665.04
654.456	7812.49
654.648	7759.24
654.84	7566.73
655.033	7638.41
655.225	7538.06
655.417	7490.96
655.61	7462.29
655.802	7275.92
655.994	7572.88
656.186	7619.98
656.379	7355.79
656.571	7239.06
656.763	7198.1
656.955	7282.06
657.148	7202.19
657.34	7165.33
657.532	7153.04
657.724	6985.11
657.916	7011.73
658.108	7101.84
658.3	6933.91
658.492	7013.78
658.684	6835.61
658.876	7026.07
659.068	6784.41
659.26	6641.05
659.452	6747.55
659.644	6909.33
659.836	6710.68
660.028	6669.72
660.22	6448.54
660.412	6643.1
660.604	6602.14
660.796	6436.25
660.988	6458.78
661.18	6387.1
661.372	6378.91
661.563	6540.7
661.755	6229.41
661.947	6073.76
662.139	6235.55
662.331	6180.26
662.522	6069.67
662.714	6307.23
662.906	6180.26
663.097	6198.69
663.289	6157.73
663.481	6061.48
663.673	6038.95
663.864	6157.73
664.056	5932.45
664.247	5789.1
664.439	5850.53
664.631	5942.69
664.822	5834.15
665.014	5678.51
665.205	5813.67
665.397	5686.7
665.588	5840.29
665.78	5672.36
665.971	5635.5
666.163	5647.79
666.354	5727.66
666.546	5498.28
666.737	5752.23
666.929	5445.04
667.12	5524.91
667.311	5416.37
667.503	5350.83
667.694	5506.48
667.885	5465.52
668.077	5387.69
668.268	5356.97
668.459	5273.01
668.651	5393.84
668.842	5287.34
669.033	5268.91
669.224	5234.1
669.416	5279.15
669.607	5277.1
669.798	5002.68
669.989	5240.24
670.18	5066.16
670.371	4976.05
670.563	5057.97
670.754	4902.33
670.945	5057.97
671.136	5000.63
671.327	5060.02
671.518	5125.55
671.709	5164.47
671.9	4990.39
672.091	4851.13
672.282	4836.79
672.473	4799.93
672.664	4890.04
672.855	4863.41
673.046	4832.69
673.237	4814.26
673.428	4627.9
673.619	4816.31
673.809	4713.91
674	4629.95
674.191	4767.16
674.382	4726.2
674.573	4689.34
674.764	4765.11
674.954	4656.57
675.145	4660.66
675.336	4554.17
675.527	4599.23
675.717	4539.83
675.908	4421.05
676.099	4509.12
676.289	4398.52
676.48	4433.34
676.671	4480.44
676.861	4523.45
677.052	4382.14
677.243	4486.59
677.433	4392.38
677.624	4386.24
677.814	4357.57
678.005	4378.05
678.195	4511.16
678.386	4230.59
678.576	4285.89
678.767	4249.02
678.957	4324.8
679.148	4384.19
679.338	4189.63
679.529	4210.11
679.719	4249.02
679.909	4277.69
680.1	4226.5
680.29	4169.15
680.481	4330.94
680.671	4136.38
680.861	4134.34
681.052	4253.12
681.242	4023.75
681.432	4087.23
681.622	4070.85
681.813	4122.05
682.003	4163.01
682.193	4158.91
682.383	3993.03
682.573	3964.36
682.764	3947.97
682.954	4074.95
683.144	4142.53
683.334	3857.86
683.524	4019.65
683.714	4060.61
683.904	3997.12
684.094	4017.6
684.284	3966.4
684.474	3923.4
684.664	3894.72
684.854	3878.34
685.044	4003.27
685.234	3902.92
685.424	3812.81
685.614	3849.67
685.804	3976.64
685.994	3872.2
686.184	3796.42
686.374	3816.9
686.564	3800.52
686.753	3638.73
686.943	3788.23
687.133	3630.54
687.323	3671.5
687.513	3812.81
687.702	3612.1
687.892	3636.68
688.082	3638.73
688.272	3501.51
688.461	3542.47
688.651	3741.13
688.841	3614.15
689.03	3622.34
689.22	3450.32
689.41	3524.04
689.599	3483.08
689.789	3528.14
689.979	3390.92
690.168	3526.09
690.358	3536.33
690.547	3440.08
690.737	3429.84
690.926	3392.97
691.116	3370.44
691.305	3487.18
691.495	3345.87
691.684	3329.49
691.874	3272.14
692.063	3356.11
692.252	3317.2
692.442	3386.83
692.631	3116.5
692.82	3266
693.01	3132.88
693.199	3114.45
693.388	3071.44
693.578	3177.94
693.767	3169.74
693.956	3204.56
694.146	3087.82
694.335	3149.26
694.524	3061.2
694.713	3157.46
694.902	3083.73
695.092	2975.19
695.281	2930.13
695.47	2956.75
695.659	2975.19
695.848	2952.66
696.037	2911.7
696.226	2840.02
696.415	3026.39
696.604	2858.45
696.793	2799.06
696.982	2966.99
697.171	2932.18
697.36	2934.23
697.549	2883.03
697.738	2854.36
697.927	2821.59
698.116	2758.1
698.305	2932.18
698.494	2719.19
698.683	2815.45
698.872	2823.64
699.061	2667.99
699.25	2735.57
699.438	2801.11
699.627	2803.16
699.816	2725.33
700.005	2618.84
700.193	2725.33
700.382	2780.63
700.571	2887.12
700.76	2559.45
700.948	2758.1
701.137	2612.7
701.326	2743.77
701.514	2512.35
701.703	2696.66
701.892	2622.94
702.08	2698.71
702.269	2567.64
702.457	2557.4
702.646	2545.11
702.834	2577.88
703.023	2545.11
703.212	2553.31
703.4	2491.87
703.589	2498.01
703.777	2606.55
703.965	2391.52
704.154	2481.63
704.342	2493.91
704.531	2549.21
704.719	2485.72
704.907	2489.82
705.096	2575.83
705.284	2450.91
705.472	2450.91
705.661	2559.45
705.849	2444.76
706.037	2500.06
706.226	2487.77
706.414	2452.95
706.602	2379.23
706.79	2520.54
706.979	2446.81
707.167	2397.66
707.355	2473.43
707.543	2444.76
707.731	2471.39
707.919	2379.23
708.107	2473.43
708.296	2586.07
708.484	2303.45
708.672	2461.15
708.86	2366.94
709.048	2368.99
709.236	2303.45
709.424	2336.22
709.612	2428.38
709.8	2317.79
709.988	2293.21
710.176	2368.99
710.364	2424.28
710.551	2389.47
710.739	2434.52
710.927	2217.44
711.115	2313.69
711.303	2172.38
711.491	2323.93
711.679	2356.7
711.866	2323.93
712.054	2444.76
712.242	2356.7
712.43	2403.8
712.617	2252.25
712.805	2262.49
712.993	2325.98
713.181	2346.46
713.368	2352.6
713.556	2309.6
713.744	2336.22
713.931	2412
714.119	2434.52
714.306	2194.91
714.494	2266.59
714.682	2340.32
714.869	2352.6
715.057	2227.68
715.244	2151.9
715.432	2348.51
715.619	2227.68
715.807	2266.59
715.994	2280.93
716.182	2227.68
716.369	2287.07
716.556	2252.25
716.744	2299.36
716.931	2315.74
717.119	2317.79
717.306	2348.51
717.493	2391.52
717.681	2301.4
717.868	2321.88
718.055	2256.35
718.242	2332.12
718.43	2448.86
718.617	2293.21
718.804	2246.11
718.991	2248.16
719.179	2237.92
719.366	2319.84
719.553	2223.58
719.74	2297.31
719.927	2307.55
720.114	2436.57
720.301	2205.15
720.488	2235.87
720.676	2278.88
720.863	2395.61
721.05	2317.79
721.237	2426.33
721.424	2317.79
721.611	2260.45
721.798	2084.32
721.985	2274.78
722.172	2246.11
722.358	2227.68
722.545	2389.47
722.732	2256.35
722.919	2352.6
723.106	2352.6
723.293	2256.35
723.48	2352.6
723.667	2268.64
723.853	2278.88
724.04	2289.12
724.227	2350.56
724.414	2309.6
724.6	2368.99
724.787	2366.94
724.974	2371.04
725.161	2276.83
725.347	2354.65
725.534	2403.8
725.72	2348.51
725.907	2264.54
726.094	2336.22
726.28	2270.69
726.467	2242.01
726.653	2219.49
726.84	2354.65
727.027	2436.57
727.213	2299.36
727.4	2360.8
727.586	2307.55
727.773	2368.99
727.959	2360.8
728.145	2348.51
728.332	2350.56
728.518	2352.6
728.705	2399.71
728.891	2430.43
729.077	2385.37
729.264	2332.12
729.45	2358.75
729.636	2323.93
729.823	2381.28
730.009	2381.28
730.195	2389.47
730.382	2434.52
730.568	2323.93
730.754	2479.58
730.94	2289.12
731.126	2450.91
731.313	2371.04
731.499	2366.94
731.685	2387.42
731.871	2401.76
732.057	2307.55
732.243	2412
732.429	2459.1
732.615	2498.01
732.801	2432.47
732.987	2414.04
733.173	2420.19
733.359	2438.62
733.545	2409.95
733.731	2479.58
733.917	2422.24
734.103	2471.39
734.289	2534.87
734.475	2463.19
734.661	2573.78
734.847	2448.86
735.033	2448.86
735.219	2577.88
735.404	2504.15
735.59	2584.02
735.776	2375.13
735.962	2518.49
736.148	2584.02
736.333	2526.68
736.519	2377.18
736.705	2522.59
736.89	2371.04
737.076	2543.07
737.262	2600.41
737.447	2528.73
737.633	2520.54
737.819	2596.31
738.004	2438.62
738.19	2463.19
738.375	2471.39
738.561	2569.69
738.747	2573.78
738.932	2434.52
739.118	2512.35
739.303	2557.4
739.489	2510.3
739.674	2518.49
739.859	2477.53
740.045	2422.24
740.23	2571.74
740.416	2524.63
740.601	2590.17
740.786	2538.97
740.972	2520.54
741.157	2604.5
741.342	2541.02
741.528	2530.78
741.713	2500.06
741.898	2432.47
742.084	2418.14
742.269	2485.72
742.454	2485.72
742.639	2567.64
742.824	2387.42
743.01	2498.01
743.195	2485.72
743.38	2520.54
743.565	2336.22
743.75	2541.02
743.935	2479.58
744.12	2409.95
744.305	2356.7
744.49	2506.2
744.675	2442.71
744.86	2317.79
745.045	2442.71
745.23	2559.45
745.415	2508.25
745.6	2403.8
745.785	2469.34
745.97	2360.8
746.155	2461.15
746.34	2405.85
746.525	2412
746.71	2457.05
746.895	2352.6
747.079	2409.95
747.264	2422.24
747.449	2385.37
747.634	2242.01
747.819	2442.71
748.003	2223.58
748.188	2301.4
748.373	2342.36
748.557	2293.21
748.742	2336.22
748.927	2250.21
749.111	2182.62
749.296	2235.87
749.481	2260.45
749.665	2289.12
749.85	2201.05
750.034	2287.07
750.219	2156
750.404	2131.42
750.588	2182.62
750.773	2143.71
750.957	2209.25
751.141	2096.61
751.326	2293.21
751.51	2115.04
751.695	2186.72
751.879	2106.85
752.064	2176.48
752.248	2059.74
752.432	2106.85
752.617	2055.65
752.801	2069.98
752.985	2125.28
753.17	2004.45
753.354	1996.26
753.538	2112.99
753.722	2063.84
753.907	1873.38
754.091	2110.94
754.275	2110.94
754.459	2029.03
754.643	1916.39
754.828	1977.83
755.012	1959.39
755.196	2012.64
755.38	2008.55
755.564	1805.8
755.748	1928.67
755.932	1973.73
756.116	1928.67
756.3	1897.96
756.484	1906.15
756.668	1844.71
756.852	1785.32
757.036	1818.08
757.22	1721.83
757.404	1750.5
757.588	1680.87
757.772	1775.08
757.956	1826.28
758.14	1910.24
758.323	1654.25
758.507	1840.61
758.691	1768.93
758.875	1693.16
759.059	1684.97
759.242	1742.31
759.426	1699.3
759.61	1586.66
759.794	1637.86
759.977	1662.44
760.161	1693.16
760.345	1582.57
760.528	1598.95
760.712	1801.7
760.895	1678.82
761.079	1619.43
761.263	1635.82
761.446	1572.33
761.63	1498.6
761.813	1598.95
761.997	1527.27
762.18	1576.42
762.364	1474.03
762.547	1543.66
762.731	1615.34
762.914	1582.57
763.098	1527.27
763.281	1490.41
763.464	1461.74
763.648	1523.18
763.831	1474.03
764.015	1474.03
764.198	1572.33
764.381	1426.92
764.564	1426.92
764.748	1486.31
764.931	1480.17
765.114	1533.42
765.297	1476.07
765.481	1416.68
765.664	1431.02
765.847	1396.2
766.03	1428.97
766.213	1363.44
766.397	1467.88
766.58	1453.55
766.763	1527.27
766.946	1316.33
767.129	1375.72
767.312	1394.15
767.495	1345
767.678	1412.59
767.861	1394.15
768.044	1406.44
768.227	1394.15
768.41	1369.58
768.593	1330.67
768.776	1340.91
768.959	1367.53
769.142	1357.29
769.324	1295.85
769.507	1400.3
769.69	1297.9
769.873	1302
770.056	1369.58
770.239	1295.85
770.421	1406.44
770.604	1345
770.787	1308.14
770.97	1299.95
771.152	1250.8
771.335	1215.98
771.518	1203.69
771.7	1258.99
771.883	1310.19
772.066	1332.72
772.248	1193.45
772.431	1181.17
772.613	1324.52
772.796	1177.07
772.978	1172.97
773.161	1183.21
773.343	1201.65
773.526	1160.69
773.708	1033.71
773.891	1150.45
774.073	1078.77
774.256	1177.07
774.438	1140.21
774.621	1111.54
774.803	1156.59
774.985	1158.64
775.168	1129.97
775.35	1111.54
775.532	1138.16
775.715	1025.52
775.897	1111.54
776.079	972.27
776.261	1005.04
776.444	974.32
776.626	1048.05
776.808	1048.05
776.99	1084.91
777.173	1048.05
777.355	1005.04
777.537	1021.42
777.719	998.9
777.901	957.94
778.083	1037.81
778.265	931.31
778.447	914.93
778.629	947.7
778.811	949.75
778.993	882.16
779.175	962.03
779.357	1007.09
779.539	923.12
779.721	867.83
779.903	912.88
780.085	884.21
780.267	921.07
780.449	880.11
780.631	863.73
780.812	775.67
780.994	906.74
781.176	755.19
781.358	841.2
781.54	812.53
781.721	798.2
781.903	835.06
782.085	785.91
782.267	810.48
782.448	798.2
782.63	753.14
782.812	753.14
782.993	798.2
783.175	884.21
783.357	824.82
783.538	800.24
783.72	742.9
783.901	802.29
784.083	747
784.264	722.42
784.446	601.59
784.627	757.24
784.809	828.92
784.99	660.98
785.172	794.1
785.353	769.52
785.535	736.76
785.716	687.61
785.897	607.73
786.079	587.26
786.26	607.73
786.441	632.31
786.623	611.83
786.804	601.59
786.985	622.07
787.167	609.78
787.348	599.54
787.529	611.83
787.71	630.26
787.891	609.78
788.073	562.68
788.254	552.44
788.435	581.11
788.616	529.91
788.797	603.64
788.978	579.06
789.159	556.54
789.34	577.02
789.522	521.72
789.703	529.91
789.884	583.16
790.065	544.25
790.246	552.44
790.427	493.05
790.607	527.86
790.788	525.82
790.969	468.47
791.15	568.82
791.331	548.34
791.512	468.47
791.693	474.62
791.874	540.15
792.054	531.96
792.235	529.91
792.416	523.77
792.597	529.91
792.778	540.15
792.958	464.38
793.139	507.38
793.32	421.37
793.5	482.81
793.681	491
793.862	431.61
794.042	456.19
794.223	419.32
794.404	421.37
794.584	378.36
794.765	388.6
794.945	503.29
795.126	411.13
795.306	480.76
795.487	349.69
795.667	423.42
795.848	368.12
796.028	499.19
796.209	462.33
796.389	423.42
796.57	386.55
796.75	357.88
796.93	421.37
797.111	355.83
797.291	335.35
797.471	427.51
797.652	361.98
797.832	388.6
798.012	435.71
798.192	314.88
798.373	370.17
798.553	370.17
798.733	343.55
798.913	347.64
799.093	390.65
799.274	404.99
799.454	429.56
799.634	413.18
799.814	364.03
799.994	386.55
800.174	339.45
800.354	323.07
800.534	380.41
800.714	351.74
800.894	327.16
801.074	323.07
801.254	353.79
801.434	374.27
801.614	308.73
801.794	259.58
801.974	892.4
802.154	341.5
802.334	376.31
802.514	337.4
802.693	290.3
802.873	298.49
803.053	200.19
803.233	286.2
803.413	290.3
803.592	267.77
803.772	257.53
803.952	282.11
804.131	290.3
804.311	331.26
804.491	341.5
804.67	251.39
804.85	337.4
805.03	312.83
805.209	349.69
805.389	304.64
805.568	339.45
805.748	212.48
805.928	245.24
806.107	237.05
806.287	378.36
806.466	171.52
806.646	243.2
806.825	259.58
807.004	185.85
807.184	278.01
807.363	292.35
807.543	312.83
807.722	271.87
807.901	290.3
808.081	241.15
808.26	259.58
808.439	261.63
808.619	202.24
808.798	187.9
808.977	255.48
809.156	263.68
809.336	249.34
809.515	290.3
809.694	241.15
809.873	251.39
810.052	300.54
810.231	333.31
810.411	273.92
810.59	228.86
810.769	261.63
810.948	292.35
811.127	144.89
811.306	275.96
811.485	189.95
811.664	261.63
811.843	194.05
812.022	269.82
812.201	161.28
812.38	222.72
812.559	171.52
812.737	216.57
812.916	185.85
813.095	351.74
813.274	243.2
813.453	245.24
813.632	202.24
813.811	261.63
813.989	159.23
814.168	251.39
814.347	118.27
814.526	202.24
814.704	142.85
814.883	230.91
815.062	206.33
815.24	155.13
815.419	210.43
815.598	284.16
815.776	185.85
815.955	95.74
816.133	183.81
816.312	251.39
816.49	196.09
816.669	232.96
816.847	79.36
817.026	175.61
817.204	165.37
817.383	216.57
817.561	146.94
817.74	192
817.918	146.94
818.097	247.29
818.275	153.09
818.453	196.09
818.632	177.66
818.81	161.28
818.988	112.13
819.167	144.89
819.345	224.76
819.523	132.61
819.701	284.16
819.879	177.66
820.058	93.69
820.236	169.47
820.414	128.51
820.592	136.7
820.77	202.24
820.948	148.99
821.127	171.52
821.305	108.03
821.483	118.27
821.661	171.52
821.839	124.41
822.017	151.04
822.195	153.09
822.373	165.37
822.551	148.99
822.729	130.56
822.907	132.61
823.085	196.09
823.262	81.41
823.44	79.36
823.618	54.78
823.796	103.93
823.974	144.89
824.152	85.5
824.329	60.93
824.507	101.89
824.685	169.47
824.863	108.03
825.04	126.46
825.218	196.09
825.396	120.32
825.574	157.18
825.751	146.94
825.929	159.23
826.107	134.65
826.284	179.71
826.462	105.98
826.639	89.6
826.817	62.98
826.994	165.37
827.172	108.03
827.349	173.57
827.527	93.69
827.704	157.18
827.882	79.36
828.059	130.56
828.237	101.89
828.414	60.93
828.591	128.51
828.769	138.75
828.946	105.98
829.124	185.85
829.301	124.41
829.478	110.08
829.655	91.65
829.833	144.89
830.01	38.4
830.187	103.93
830.364	103.93
830.542	122.37
830.719	155.13
830.896	73.21
831.073	105.98
831.25	138.75
831.427	142.85
831.604	97.79
831.782	89.6
831.959	130.56
832.136	151.04
832.313	110.08
832.49	26.11
832.667	83.45
832.844	87.55
833.021	60.93
833.198	155.13
833.374	136.7
833.551	144.89
833.728	40.45
833.905	105.98
834.082	26.11
834.259	81.41
834.436	136.7
834.612	85.5
834.789	28.16
834.966	130.56
835.143	120.32
835.319	79.36
835.496	134.65
835.673	165.37
835.85	95.74
836.026	153.09
836.203	87.55
836.38	73.21
836.556	62.98
836.733	38.4
836.909	99.84
837.086	34.3
837.262	42.5
837.439	65.02
837.616	48.64
837.792	48.64
837.968	69.12
838.145	17.92
838.321	85.5
838.498	110.08
838.674	99.84
838.851	73.21
839.027	15.87
839.203	126.46
839.38	69.12
839.556	91.65
839.732	114.17
839.909	67.07
840.085	167.42
840.261	36.35
840.437	91.65
840.614	48.64
840.79	116.22
840.966	28.16
841.142	5.63
841.318	91.65
841.494	91.65
841.671	138.75
841.847	54.78
842.023	65.02
842.199	126.46
842.375	15.87
842.551	-4.61
842.727	11.78
842.903	95.74
843.079	75.26
843.255	114.17
843.431	-4.61
843.607	105.98
843.783	-29.18
843.959	67.07
844.134	-27.14
844.31	97.79
844.486	114.17
844.662	48.64
844.838	32.26
845.013	75.26
845.189	112.13
845.365	42.5
845.541	22.02
845.716	122.37
845.892	24.06
846.068	17.92
846.244	19.97
846.419	105.98
846.595	5.63
846.77	-23.04
846.946	81.41
847.122	40.45
847.297	46.59
847.473	179.71
847.648	17.92
847.824	114.17
847.999	67.07
848.175	87.55
848.35	11.78
848.526	67.07
848.701	-2.56
848.876	155.13
849.052	22.02
849.227	36.35
849.403	17.92
849.578	79.36
849.753	77.31
849.929	89.6
850.104	-2.56
850.279	50.69
850.454	-25.09
850.63	87.55
850.805	-8.7
850.98	28.16
851.155	-0.51
851.33	11.78
851.505	19.97
851.681	-8.7
851.856	52.74
852.031	38.4
852.206	81.41
852.381	11.78
852.556	19.97
852.731	58.88
852.906	24.06
853.081	75.26
853.256	40.45
853.431	17.92
853.606	30.21
853.781	42.5
853.956	-18.94
854.131	-16.9
854.305	-20.99
854.48	1.54
854.655	-59.9
854.83	-12.8
855.005	44.54
855.18	11.78
855.354	52.74
855.529	138.75
855.704	7.68
855.879	7.68
856.053	-25.09
856.228	15.87
856.403	3.58
856.577	11.78
856.752	-49.66
856.926	40.45
857.101	71.17
857.276	-45.57
857.45	105.98
857.625	122.37
857.799	9.73
857.974	-33.28
858.148	3.58
858.323	7.68
858.497	13.82
858.672	-37.38
858.846	-8.7
859.02	40.45
859.195	-70.14
859.369	40.45
859.543	-0.51
859.718	-0.51
859.892	-6.66
860.066	28.16
860.241	50.69
860.415	101.89
860.589	42.5
860.763	-23.04
860.938	48.64
861.112	-14.85
861.286	60.93
861.46	46.59
861.634	-0.51
861.808	95.74
861.982	30.21
862.157	5.63
862.331	71.17
862.505	60.93
862.679	-61.95
862.853	1.54
863.027	28.16
863.201	17.92
863.375	71.17
863.549	9.73
863.722	-4.61
863.896	65.02
864.07	34.3
864.244	-6.66
864.418	69.12
864.592	73.21
864.766	19.97
864.939	-35.33
865.113	7.68
865.287	42.5
865.461	-47.62
865.634	56.83
865.808	87.55
865.982	89.6
866.156	-43.52
866.329	-31.23
866.503	19.97
866.676	28.16
866.85	58.88
867.024	95.74
867.197	50.69
867.371	62.98
867.544	-61.95
867.718	-25.09
867.891	69.12
868.065	-51.71
868.238	7.68
868.412	-55.81
868.585	-2.56
868.759	-4.61
868.932	-2.56
869.105	-33.28
869.279	9.73
869.452	-2.56
869.625	19.97
869.799	9.73
869.972	7.68
870.145	67.07
870.319	114.17
870.492	5.63
870.665	-25.09
870.838	7.68
871.011	-45.57
871.185	-2.56
871.358	-43.52
871.531	-29.18
871.704	-12.8
871.877	-4.61
872.05	-27.14
872.223	-61.95
872.396	5.63
872.569	50.69
872.742	-66.05
872.915	42.5
873.088	58.88
873.261	-16.9
873.434	91.65
873.607	32.26
873.78	11.78
873.953	-18.94
874.126	36.35
874.299	-33.28
874.471	-23.04
874.644	46.59
874.817	-20.99
874.99	56.83
875.163	-45.57
875.335	48.64
875.508	-20.99
875.681	17.92
875.853	30.21
876.026	-18.94
876.199	83.45
876.371	22.02
876.544	-35.33
876.717	-6.66
876.889	-6.66
877.062	48.64
877.234	9.73
877.407	28.16
877.579	-2.56
877.752	-66.05
877.924	-10.75
878.097	9.73
878.269	38.4
878.442	-55.81
878.614	-6.66
878.786	26.11
878.959	3.58
879.131	11.78
879.303	-104.96
879.476	-45.57
879.648	-45.57
879.82	-20.99
879.993	-31.23
880.165	-29.18
880.337	-49.66
880.509	28.16
880.681	-55.81
880.854	-23.04
881.026	11.78
881.198	99.84
881.37	1.54
881.542	-12.8
881.714	-41.47
881.886	-31.23
882.058	-39.42
882.23	54.78
882.402	-80.38
882.574	-18.94
882.746	22.02
882.918	22.02
883.09	34.3
883.262	-23.04
883.434	-61.95
883.606	-25.09
883.778	-47.62
883.95	9.73
884.122	24.06
884.293	-43.52
884.465	-8.7
884.637	-18.94
884.809	-12.8
884.98	1.54
885.152	-4.61
885.324	-23.04
885.496	-51.71
885.667	-29.18
885.839	-72.19
886.011	56.83
886.182	73.21
886.354	40.45
886.525	-6.66
886.697	15.87
886.869	24.06
887.04	26.11
887.212	22.02
887.383	13.82
887.555	24.06
887.726	13.82
887.897	-51.71
888.069	-41.47
888.24	52.74
888.412	46.59
888.583	-41.47
888.754	36.35
888.926	-68.09
889.097	3.58
889.268	-20.99
889.44	-61.95
889.611	-25.09
889.782	-10.75
889.953	32.26
890.125	58.88
890.296	-51.71
890.467	71.17
890.638	75.26
890.809	42.5
890.98	-39.42
891.151	13.82
891.323	17.92
891.494	-0.51
891.665	32.26
891.836	3.58
892.007	1.54
892.178	-31.23
892.349	-64
892.52	-47.62
892.691	-16.9
892.862	-31.23
893.032	7.68
893.203	56.83
893.374	-47.62
893.545	40.45
893.716	-68.09
893.887	-2.56
894.057	-51.71
894.228	-23.04
894.399	44.54
894.57	38.4
894.74	-49.66
894.911	-0.51
895.082	1.54
895.253	56.83
895.423	7.68
895.594	54.78
895.764	19.97
895.935	-6.66
896.106	73.21
896.276	-33.28
896.447	-94.72
896.617	-41.47
896.788	-39.42
896.958	-23.04
897.129	-4.61
897.299	-59.9
897.47	-27.14
897.64	-37.38
897.81	-49.66
897.981	36.35
898.151	-39.42
898.322	24.06
898.492	15.87
898.662	-49.66
898.832	-82.43
899.003	-4.61
899.173	48.64
899.343	-59.9
899.513	-33.28
