Data from USB4F104151__46__12-41-38-422.txt Node

Date: Fri Mar 14 12:41:38 EDT 2025
User: louis
Spectrometer: USB4F10415
Trigger mode: 4
Integration Time (sec): 3.000000E-2
Scans to average: 1
Electric dark correction enabled: true
Nonlinearity correction enabled: false
Boxcar width: 0
XAxis mode: Wavelengths
Number of Pixels in Spectrum: 3648
>>>>>Begin Spectral Data<<<<<
178.204	-95.23
178.424	-95.23
178.644	-95.23
178.864	-115.71
179.084	-132.09
179.304	-84.99
179.524	80.89
179.744	17.41
179.964	-3.07
180.184	-1.02
180.404	-31.74
180.624	5.12
180.844	78.85
181.064	-138.24
181.283	-7.17
181.503	3.07
181.723	80.89
181.943	-82.94
182.163	70.65
182.383	23.55
182.602	15.36
182.822	113.66
183.042	62.46
183.262	95.23
183.482	27.65
183.701	15.36
183.921	130.05
184.141	-9.22
184.361	132.09
184.58	41.98
184.8	50.18
185.02	44.03
185.239	52.22
185.459	101.37
185.679	25.6
185.898	5.12
186.118	17.41
186.338	-23.55
186.557	33.79
186.777	109.57
186.997	113.66
187.216	56.32
187.436	66.56
187.655	31.74
187.875	152.57
188.095	-7.17
188.314	70.65
188.534	31.74
188.753	-27.65
188.973	-13.31
189.192	128
189.412	99.33
189.631	97.28
189.851	25.6
190.07	72.7
190.29	89.09
190.509	50.18
190.729	1.02
190.948	3.07
191.168	185.34
191.387	37.89
191.607	48.13
191.826	76.8
192.045	44.03
192.265	56.32
192.484	103.42
192.704	56.32
192.923	-37.89
193.142	105.47
193.362	52.22
193.581	62.46
193.8	-41.98
194.02	46.08
194.239	17.41
194.458	121.85
194.678	-13.31
194.897	17.41
195.116	1.02
195.335	31.74
195.555	35.84
195.774	33.79
195.993	162.81
196.212	101.37
196.432	-7.17
196.651	37.89
196.87	50.18
197.089	60.42
197.308	60.42
197.528	25.6
197.747	-41.98
197.966	80.89
198.185	93.18
198.404	-27.65
198.623	-17.41
198.842	41.98
199.062	58.37
199.281	31.74
199.5	39.94
199.719	80.89
199.938	82.94
200.157	70.65
200.376	84.99
200.595	33.79
200.814	54.27
201.033	29.7
201.252	48.13
201.471	84.99
201.69	107.52
201.909	84.99
202.128	21.5
202.347	41.98
202.566	1.02
202.785	21.5
203.004	58.37
203.223	136.19
203.442	39.94
203.661	37.89
203.879	23.55
204.098	33.79
204.317	35.84
204.536	29.7
204.755	50.18
204.974	31.74
205.193	29.7
205.411	95.23
205.63	13.31
205.849	66.56
206.068	72.7
206.287	35.84
206.505	48.13
206.724	37.89
206.943	29.7
207.162	82.94
207.381	37.89
207.599	35.84
207.818	7.17
208.037	29.7
208.255	13.31
208.474	95.23
208.693	123.9
208.911	50.18
209.13	64.51
209.349	103.42
209.567	84.99
209.786	78.85
210.005	130.05
210.223	64.51
210.442	37.89
210.661	21.5
210.879	-21.5
211.098	17.41
211.316	50.18
211.535	37.89
211.753	19.46
211.972	87.04
212.191	-1.02
212.409	37.89
212.628	39.94
212.846	62.46
213.065	89.09
213.283	78.85
213.502	31.74
213.72	31.74
213.938	62.46
214.157	25.6
214.375	87.04
214.594	5.12
214.812	13.31
215.031	107.52
215.249	3.07
215.467	76.8
215.686	91.13
215.904	19.46
216.122	89.09
216.341	76.8
216.559	66.56
216.778	87.04
216.996	80.89
217.214	64.51
217.432	64.51
217.651	5.12
217.869	119.81
218.087	19.46
218.306	78.85
218.524	95.23
218.742	80.89
218.96	91.13
219.179	58.37
219.397	29.7
219.615	99.33
219.833	46.08
220.051	7.17
220.27	136.19
220.488	19.46
220.706	103.42
220.924	37.89
221.142	29.7
221.36	23.55
221.578	41.98
221.796	41.98
222.015	72.7
222.233	66.56
222.451	64.51
222.669	39.94
222.887	80.89
223.105	-3.07
223.323	68.61
223.541	60.42
223.759	105.47
223.977	48.13
224.195	60.42
224.413	97.28
224.631	101.37
224.849	1.02
225.067	70.65
225.285	56.32
225.503	13.31
225.721	35.84
225.939	97.28
226.157	60.42
226.375	84.99
226.592	27.65
226.81	13.31
227.028	97.28
227.246	50.18
227.464	3.07
227.682	101.37
227.9	39.94
228.117	105.47
228.335	27.65
228.553	19.46
228.771	84.99
228.989	27.65
229.206	60.42
229.424	-3.07
229.642	33.79
229.86	70.65
230.077	44.03
230.295	31.74
230.513	80.89
230.731	134.14
230.948	62.46
231.166	54.27
231.384	19.46
231.601	11.26
231.819	29.7
232.037	31.74
232.254	87.04
232.472	23.55
232.689	13.31
232.907	109.57
233.125	58.37
233.342	33.79
233.56	9.22
233.777	25.6
233.995	60.42
234.213	25.6
234.43	87.04
234.648	41.98
234.865	21.5
235.083	23.55
235.3	19.46
235.518	27.65
235.735	37.89
235.953	74.75
236.17	48.13
236.388	23.55
236.605	52.22
236.822	89.09
237.04	76.8
237.257	19.46
237.475	60.42
237.692	107.52
237.909	60.42
238.127	15.36
238.344	60.42
238.562	95.23
238.779	41.98
238.996	39.94
239.214	17.41
239.431	72.7
239.648	95.23
239.865	89.09
240.083	56.32
240.3	31.74
240.517	-19.46
240.735	17.41
240.952	146.43
241.169	95.23
241.386	44.03
241.603	52.22
241.821	1.02
242.038	72.7
242.255	48.13
242.472	52.22
242.689	109.57
242.907	109.57
243.124	23.55
243.341	25.6
243.558	41.98
243.775	95.23
243.992	78.85
244.209	27.65
244.426	72.7
244.643	125.95
244.86	70.65
245.078	103.42
245.295	130.05
245.512	78.85
245.729	37.89
245.946	95.23
246.163	-5.12
246.38	58.37
246.597	89.09
246.814	128
247.031	3.07
247.248	-3.07
247.464	39.94
247.681	56.32
247.898	78.85
248.115	105.47
248.332	29.7
248.549	130.05
248.766	97.28
248.983	58.37
249.2	70.65
249.417	72.7
249.633	68.61
249.85	136.19
250.067	103.42
250.284	25.6
250.501	113.66
250.717	82.94
250.934	13.31
251.151	19.46
251.368	17.41
251.585	109.57
251.801	48.13
252.018	50.18
252.235	74.75
252.451	50.18
252.668	50.18
252.885	119.81
253.102	39.94
253.318	62.46
253.535	-5.12
253.752	89.09
253.968	41.98
254.185	39.94
254.401	41.98
254.618	105.47
254.835	17.41
255.051	99.33
255.268	58.37
255.484	66.56
255.701	17.41
255.917	128
256.134	138.24
256.351	-21.5
256.567	-29.7
256.784	60.42
257	60.42
257.217	62.46
257.433	21.5
257.65	37.89
257.866	33.79
258.082	44.03
258.299	-17.41
258.515	41.98
258.732	11.26
258.948	-27.65
259.165	15.36
259.381	132.09
259.597	78.85
259.814	111.61
260.03	-1.02
260.246	9.22
260.463	27.65
260.679	95.23
260.895	21.5
261.112	27.65
261.328	68.61
261.544	52.22
261.761	105.47
261.977	27.65
262.193	37.89
262.409	87.04
262.626	78.85
262.842	44.03
263.058	60.42
263.274	52.22
263.49	144.38
263.707	50.18
263.923	99.33
264.139	56.32
264.355	84.99
264.571	97.28
264.787	44.03
265.004	101.37
265.22	68.61
265.436	33.79
265.652	-48.13
265.868	70.65
266.084	39.94
266.3	82.94
266.516	-19.46
266.732	54.27
266.948	80.89
267.164	-3.07
267.38	37.89
267.596	103.42
267.812	80.89
268.028	23.55
268.244	56.32
268.46	111.61
268.676	9.22
268.892	50.18
269.108	-41.98
269.324	41.98
269.54	19.46
269.756	76.8
269.972	-11.26
270.188	117.76
270.403	13.31
270.619	31.74
270.835	64.51
271.051	66.56
271.267	33.79
271.483	68.61
271.698	78.85
271.914	60.42
272.13	-17.41
272.346	9.22
272.562	99.33
272.777	44.03
272.993	35.84
273.209	35.84
273.425	37.89
273.64	-7.17
273.856	50.18
274.072	68.61
274.287	-48.13
274.503	70.65
274.719	87.04
274.934	15.36
275.15	5.12
275.366	76.8
275.581	84.99
275.797	50.18
276.012	17.41
276.228	60.42
276.444	95.23
276.659	23.55
276.875	-7.17
277.09	64.51
277.306	46.08
277.521	89.09
277.737	80.89
277.952	68.61
278.168	50.18
278.383	29.7
278.599	64.51
278.814	29.7
279.03	78.85
279.245	115.71
279.461	99.33
279.676	17.41
279.892	78.85
280.107	-29.7
280.322	56.32
280.538	97.28
280.753	-1.02
280.969	1.02
281.184	76.8
281.399	123.9
281.615	5.12
281.83	97.28
282.045	17.41
282.26	58.37
282.476	119.81
282.691	146.43
282.906	60.42
283.122	115.71
283.337	-3.07
283.552	25.6
283.767	72.7
283.983	64.51
284.198	37.89
284.413	111.61
284.628	31.74
284.843	23.55
285.058	7.17
285.274	54.27
285.489	-9.22
285.704	74.75
285.919	27.65
286.134	37.89
286.349	87.04
286.564	44.03
286.779	171.01
286.995	39.94
287.21	7.17
287.425	78.85
287.64	1.02
287.855	107.52
288.07	17.41
288.285	3.07
288.5	58.37
288.715	128
288.93	27.65
289.145	87.04
289.36	46.08
289.575	66.56
289.79	44.03
290.004	31.74
290.219	56.32
290.434	23.55
290.649	52.22
290.864	62.46
291.079	41.98
291.294	95.23
291.509	31.74
291.724	74.75
291.938	60.42
292.153	95.23
292.368	54.27
292.583	52.22
292.798	78.85
293.012	74.75
293.227	33.79
293.442	-1.02
293.657	-3.07
293.871	211.96
294.086	101.37
294.301	119.81
294.516	78.85
294.73	128
294.945	50.18
295.16	48.13
295.374	46.08
295.589	68.61
295.804	87.04
296.018	23.55
296.233	80.89
296.447	115.71
296.662	-21.5
296.877	-1.02
297.091	64.51
297.306	46.08
297.52	15.36
297.735	39.94
297.949	39.94
298.164	31.74
298.378	-7.17
298.593	-1.02
298.807	39.94
299.022	103.42
299.236	74.75
299.451	82.94
299.665	-44.03
299.88	52.22
300.094	128
300.309	64.51
300.523	29.7
300.737	60.42
300.952	109.57
301.166	31.74
301.381	-9.22
301.595	29.7
301.809	70.65
302.024	113.66
302.238	33.79
302.452	76.8
302.667	70.65
302.881	46.08
303.095	113.66
303.309	39.94
303.524	11.26
303.738	103.42
303.952	11.26
304.166	93.18
304.381	29.7
304.595	111.61
304.809	9.22
305.023	72.7
305.237	-58.37
305.452	60.42
305.666	52.22
305.88	117.76
306.094	93.18
306.308	89.09
306.522	105.47
306.736	64.51
306.95	50.18
307.164	84.99
307.379	31.74
307.593	62.46
307.807	-41.98
308.021	23.55
308.235	60.42
308.449	-3.07
308.663	105.47
308.877	44.03
309.091	91.13
309.305	41.98
309.519	-37.89
309.733	154.62
309.947	54.27
310.161	111.61
310.374	46.08
310.588	121.85
310.802	56.32
311.016	23.55
311.23	80.89
311.444	72.7
311.658	-7.17
311.872	62.46
312.085	56.32
312.299	136.19
312.513	72.7
312.727	132.09
312.941	56.32
313.154	66.56
313.368	74.75
313.582	78.85
313.796	130.05
314.009	62.46
314.223	84.99
314.437	5.12
314.651	5.12
314.864	29.7
315.078	-7.17
315.292	48.13
315.505	31.74
315.719	5.12
315.933	97.28
316.146	27.65
316.36	-9.22
316.573	156.67
316.787	54.27
317.001	29.7
317.214	-48.13
317.428	101.37
317.641	58.37
317.855	21.5
318.068	99.33
318.282	9.22
318.495	148.48
318.709	105.47
318.922	66.56
319.136	87.04
319.349	70.65
319.563	70.65
319.776	58.37
319.99	-3.07
320.203	50.18
320.417	64.51
320.63	48.13
320.843	150.53
321.057	80.89
321.27	103.42
321.483	29.7
321.697	142.33
321.91	84.99
322.124	117.76
322.337	60.42
322.55	-13.31
322.763	62.46
322.977	46.08
323.19	25.6
323.403	27.65
323.617	54.27
323.83	101.37
324.043	21.5
324.256	31.74
324.469	35.84
324.683	128
324.896	35.84
325.109	3.07
325.322	33.79
325.535	62.46
325.748	123.9
325.962	50.18
326.175	125.95
326.388	46.08
326.601	103.42
326.814	37.89
327.027	23.55
327.24	95.23
327.453	23.55
327.666	9.22
327.879	76.8
328.092	25.6
328.305	84.99
328.518	64.51
328.731	60.42
328.944	41.98
329.157	39.94
329.37	-13.31
329.583	119.81
329.796	107.52
330.009	-64.51
330.222	72.7
330.435	31.74
330.648	117.76
330.861	107.52
331.073	68.61
331.286	95.23
331.499	50.18
331.712	11.26
331.925	46.08
332.138	-21.5
332.35	117.76
332.563	87.04
332.776	50.18
332.989	5.12
333.202	76.8
333.414	109.57
333.627	95.23
333.84	-25.6
334.053	68.61
334.265	41.98
334.478	64.51
334.691	103.42
334.903	64.51
335.116	29.7
335.329	56.32
335.541	109.57
335.754	115.71
335.966	15.36
336.179	72.7
336.392	-5.12
336.604	35.84
336.817	93.18
337.029	103.42
337.242	35.84
337.454	64.51
337.667	89.09
337.88	37.89
338.092	37.89
338.305	80.89
338.517	70.65
338.729	62.46
338.942	29.7
339.154	89.09
339.367	35.84
339.579	136.19
339.792	35.84
340.004	52.22
340.217	64.51
340.429	41.98
340.641	82.94
340.854	7.17
341.066	62.46
341.278	78.85
341.491	17.41
341.703	17.41
341.915	66.56
342.128	60.42
342.34	52.22
342.552	17.41
342.764	37.89
342.977	70.65
343.189	84.99
343.401	84.99
343.613	54.27
343.826	64.51
344.038	21.5
344.25	19.46
344.462	35.84
344.674	125.95
344.886	60.42
345.099	78.85
345.311	9.22
345.523	11.26
345.735	78.85
345.947	193.53
346.159	52.22
346.371	35.84
346.583	101.37
346.795	113.66
347.007	41.98
347.219	121.85
347.431	74.75
347.643	56.32
347.855	19.46
348.067	89.09
348.279	52.22
348.491	60.42
348.703	-1.02
348.915	23.55
349.127	33.79
349.339	105.47
349.551	13.31
349.763	74.75
349.975	56.32
350.187	101.37
350.399	132.09
350.61	74.75
350.822	50.18
351.034	19.46
351.246	107.52
351.458	64.51
351.669	-17.41
351.881	128
352.093	117.76
352.305	117.76
352.517	25.6
352.728	84.99
352.94	99.33
353.152	58.37
353.363	56.32
353.575	68.61
353.787	68.61
353.999	25.6
354.21	95.23
354.422	37.89
354.633	7.17
354.845	113.66
355.057	64.51
355.268	84.99
355.48	105.47
355.692	19.46
355.903	66.56
356.115	-13.31
356.326	54.27
356.538	136.19
356.749	17.41
356.961	150.53
357.172	87.04
357.384	27.65
357.595	125.95
357.807	41.98
358.018	29.7
358.23	58.37
358.441	148.48
358.653	52.22
358.864	37.89
359.075	66.56
359.287	64.51
359.498	138.24
359.709	66.56
359.921	15.36
360.132	25.6
360.344	29.7
360.555	19.46
360.766	142.33
360.977	62.46
361.189	105.47
361.4	80.89
361.611	-9.22
361.823	37.89
362.034	95.23
362.245	-1.02
362.456	46.08
362.667	78.85
362.879	99.33
363.09	76.8
363.301	52.22
363.512	105.47
363.723	46.08
363.935	54.27
364.146	119.81
364.357	-25.6
364.568	37.89
364.779	-13.31
364.99	27.65
365.201	46.08
365.412	52.22
365.623	31.74
365.834	-25.6
366.045	107.52
366.256	99.33
366.467	82.94
366.678	39.94
366.889	91.13
367.1	48.13
367.311	130.05
367.522	35.84
367.733	68.61
367.944	173.05
368.155	15.36
368.366	136.19
368.577	33.79
368.788	91.13
368.999	50.18
369.209	152.57
369.42	123.9
369.631	177.15
369.842	68.61
370.053	15.36
370.264	111.61
370.474	25.6
370.685	50.18
370.896	132.09
371.107	35.84
371.317	82.94
371.528	13.31
371.739	54.27
371.95	70.65
372.16	76.8
372.371	25.6
372.582	103.42
372.792	89.09
373.003	121.85
373.214	66.56
373.424	13.31
373.635	62.46
373.846	156.67
374.056	15.36
374.267	39.94
374.477	97.28
374.688	134.14
374.898	48.13
375.109	17.41
375.319	93.18
375.53	46.08
375.74	76.8
375.951	7.17
376.161	101.37
376.372	29.7
376.582	70.65
376.793	140.29
377.003	-21.5
377.214	68.61
377.424	37.89
377.635	66.56
377.845	64.51
378.055	46.08
378.266	48.13
378.476	29.7
378.686	80.89
378.897	68.61
379.107	111.61
379.317	154.62
379.528	-15.36
379.738	117.76
379.948	33.79
380.158	56.32
380.369	113.66
380.579	99.33
380.789	62.46
380.999	78.85
381.21	95.23
381.42	138.24
381.63	-1.02
381.84	97.28
382.05	1.02
382.261	117.76
382.471	121.85
382.681	5.12
382.891	58.37
383.101	64.51
383.311	-1.02
383.521	52.22
383.731	70.65
383.941	117.76
384.151	44.03
384.361	95.23
384.571	29.7
384.781	109.57
384.991	121.85
385.201	136.19
385.411	148.48
385.621	46.08
385.831	134.14
386.041	125.95
386.251	64.51
386.461	93.18
386.671	31.74
386.881	121.85
387.091	107.52
387.301	187.39
387.511	23.55
387.72	107.52
387.93	136.19
388.14	60.42
388.35	117.76
388.56	128
388.769	177.15
388.979	56.32
389.189	56.32
389.399	87.04
389.609	37.89
389.818	115.71
390.028	29.7
390.238	60.42
390.447	84.99
390.657	121.85
390.867	19.46
391.076	58.37
391.286	-25.6
391.496	101.37
391.705	99.33
391.915	160.77
392.125	113.66
392.334	115.71
392.544	128
392.753	70.65
392.963	66.56
393.172	72.7
393.382	64.51
393.591	113.66
393.801	64.51
394.01	162.81
394.22	89.09
394.429	154.62
394.639	56.32
394.848	140.29
395.058	91.13
395.267	82.94
395.477	121.85
395.686	177.15
395.895	74.75
396.105	132.09
396.314	101.37
396.524	187.39
396.733	80.89
396.942	70.65
397.152	177.15
397.361	103.42
397.57	187.39
397.78	41.98
397.989	171.01
398.198	254.97
398.407	64.51
398.617	193.53
398.826	121.85
399.035	121.85
399.244	66.56
399.453	136.19
399.663	125.95
399.872	144.38
400.081	29.7
400.29	183.29
400.499	109.57
400.708	130.05
400.917	119.81
401.127	171.01
401.336	195.58
401.545	150.53
401.754	111.61
401.963	107.52
402.172	33.79
402.381	164.86
402.59	121.85
402.799	82.94
403.008	203.77
403.217	193.53
403.426	111.61
403.635	158.72
403.844	125.95
404.053	211.96
404.262	187.39
404.471	252.92
404.68	128
404.888	199.68
405.097	101.37
405.306	177.15
405.515	66.56
405.724	220.16
405.933	236.54
406.142	216.06
406.35	195.58
406.559	234.49
406.768	199.68
406.977	291.84
407.185	250.88
407.394	250.88
407.603	232.44
407.812	240.64
408.02	218.11
408.229	338.94
408.438	226.3
408.646	248.83
408.855	347.13
409.064	306.17
409.272	257.02
409.481	279.55
409.69	238.59
409.898	334.84
410.107	361.47
410.315	338.94
410.524	265.21
410.733	424.95
410.941	367.61
411.15	406.52
411.358	463.86
411.567	496.63
411.775	510.97
411.984	435.19
412.192	416.76
412.401	488.44
412.609	476.15
412.818	576.5
413.026	547.83
413.234	556.02
413.443	607.22
413.651	500.73
413.86	592.89
414.068	672.76
414.276	652.28
414.485	687.09
414.693	703.48
414.901	719.86
415.11	730.1
415.318	740.34
415.526	740.34
415.734	758.77
415.943	855.03
416.151	947.19
416.359	826.36
416.567	910.32
416.776	877.55
416.984	951.28
417.192	1035.25
417.4	1016.82
417.608	1051.63
417.817	1004.53
418.025	1170.41
418.233	1238
418.441	1229.81
418.649	1301.48
418.857	1344.49
419.065	1391.59
419.273	1379.31
419.481	1428.46
419.689	1512.42
419.897	1598.44
420.105	1688.55
420.313	1672.17
420.521	1627.11
420.729	1823.72
420.937	1760.23
421.145	1799.14
421.353	1924.07
421.561	2042.85
421.769	2221.02
421.977	2208.73
422.185	2171.87
422.393	2329.56
422.601	2407.39
422.809	2440.15
423.017	2460.63
423.224	2472.92
423.432	2745.3
423.64	2710.49
423.848	2763.73
424.056	2796.5
424.263	3062.74
424.471	3152.85
424.679	3122.13
424.887	3232.72
425.094	3343.31
425.302	3247.05
425.51	3408.84
425.718	3660.74
425.925	3783.62
426.133	3677.13
426.341	4189.12
426.548	4166.59
426.756	4070.34
426.964	4180.93
427.171	4289.47
427.379	4418.49
427.586	4522.94
427.794	4731.83
428.001	5020.6
428.209	5284.78
428.417	5114.8
428.624	5518.25
428.832	5491.63
429.039	5442.48
429.247	5325.74
429.454	5946.28
429.662	6314.91
429.869	5923.75
430.076	6222.75
430.284	6120.35
430.491	6423.45
430.699	6933.4
430.906	6886.29
431.114	7035.8
431.321	7164.82
431.528	7250.83
431.736	7721.87
431.943	8242.05
432.15	7850.89
432.358	8049.54
432.565	8391.55
432.772	8291.2
432.979	8915.83
433.187	8905.59
433.394	8936.31
433.601	9745.26
433.808	9628.53
434.016	9614.19
434.223	10007.4
434.43	10439.52
434.637	10298.21
434.844	11090.77
435.052	11213.65
435.259	11107.16
435.466	11268.95
435.673	11187.03
435.88	11866.95
436.087	12643.14
436.294	12745.53
436.501	12092.23
436.708	12784.44
436.915	12958.52
437.122	13529.91
437.329	13558.58
437.537	13951.79
437.743	14310.18
437.95	14050.09
438.157	15002.4
438.364	15397.65
438.571	15385.37
438.778	15291.16
438.985	16745.22
439.192	16151.31
439.399	16782.08
439.606	16208.65
439.813	17310.46
440.02	18060.01
440.227	17924.85
440.433	17609.46
440.64	18393.83
440.847	18148.08
441.054	18549.48
441.261	19915.47
441.467	19651.28
441.674	20079.31
441.881	20783.81
442.088	20865.73
442.294	20568.77
442.501	21258.94
442.708	21723.83
442.914	22252.2
443.121	22938.27
443.328	22520.49
443.534	24421
443.741	23730.84
443.948	23548.57
444.154	25025.15
444.361	24656.52
444.568	25076.35
444.774	25432.7
444.981	25342.59
445.187	26241.65
445.394	27077.22
445.6	27234.91
445.807	29422.14
446.013	28203.6
446.22	28643.91
446.426	30044.73
446.633	29823.54
446.839	31214.12
447.046	29755.96
447.252	31349.28
447.459	31470.11
447.665	31461.92
447.871	32817.68
448.078	34281.97
448.284	32283.16
448.491	33612.29
448.697	34769.39
448.903	35590.62
449.11	35508.71
449.316	34904.56
449.522	35791.33
449.728	36557.27
449.935	36682.19
450.141	36688.34
450.347	37859.77
450.553	36274.65
450.76	37179.85
450.966	37990.84
451.172	37523.91
451.378	38484.4
451.584	38056.38
451.791	38863.28
451.997	38601.14
452.203	39049.64
452.409	39291.3
452.615	38924.72
452.821	37644.74
453.027	37079.5
453.233	38998.44
453.44	37401.03
453.646	37994.94
453.852	38175.16
454.058	38830.51
454.264	37681.6
454.47	38529.46
454.676	37611.97
454.882	38343.09
455.088	35799.52
455.294	35717.6
455.5	36559.31
455.705	36661.71
455.911	35400.16
456.117	34943.47
456.323	34488.82
456.529	32674.32
456.735	34013.69
456.941	33178.12
457.147	32311.83
457.352	31586.85
457.558	31019.56
457.764	31181.35
457.97	30790.19
458.176	30442.03
458.381	29944.38
458.587	28475.98
458.793	28328.53
458.999	27286.11
459.204	29278.79
459.41	28373.58
459.616	26397.29
459.821	26485.36
460.027	26382.96
460.233	25641.59
460.438	24367.76
460.644	24664.71
460.85	23505.56
461.055	23296.67
461.261	23376.54
461.466	21516.98
461.672	20814.53
461.878	22014.64
462.083	21164.73
462.289	20331.21
462.494	20501.19
462.7	19352.28
462.905	18940.64
463.111	19555.03
463.316	19645.14
463.522	19247.83
463.727	19362.52
463.932	19127
464.138	18936.54
464.343	19149.53
464.549	18547.43
464.754	18873.06
464.959	18741.99
465.165	18795.23
465.37	17990.38
465.575	17500.92
465.781	18291.43
465.986	18447.08
466.191	17427.19
466.397	17468.15
466.602	16638.72
466.807	17087.23
467.012	17275.64
467.218	16880.38
467.423	16880.38
467.628	16941.82
467.833	17662.71
468.038	16849.66
468.244	16540.42
468.449	17246.97
468.654	16759.55
468.859	16366.34
469.064	16495.36
469.269	15723.28
469.474	15743.76
469.679	16360.2
469.885	15643.41
470.09	15874.83
470.295	16071.43
470.5	15543.06
470.705	15469.33
470.91	14996.25
471.115	15059.74
471.32	15285.01
471.525	15160.09
471.73	14754.59
471.935	14840.61
472.139	14148.39
472.344	14488.35
472.549	14519.07
472.754	14369.57
472.959	13839.15
473.164	13337.4
473.369	13495.09
473.574	13937.45
473.778	13568.82
473.983	13597.49
474.188	13351.73
474.393	12907.32
474.598	13153.08
474.802	13079.35
475.007	12806.97
475.212	12860.22
475.417	12387.14
475.621	12258.12
475.826	12419.91
476.031	12088.14
476.235	11899.72
476.44	12149.57
476.645	11914.06
476.849	11852.62
477.054	11660.11
477.259	11447.12
477.463	11492.18
477.668	11156.31
477.872	11457.36
478.077	11072.34
478.282	10910.55
478.486	11029.34
478.691	10863.45
478.895	10820.44
479.1	10736.48
479.304	11006.81
479.509	10259.3
479.713	10601.31
479.918	10369.89
480.122	10214.24
480.326	10290.02
480.531	10181.48
480.735	10161
480.94	10300.26
481.144	10369.89
481.348	9898.86
481.553	9853.8
481.757	9868.14
481.961	10034.02
482.166	10279.78
482.37	10247.01
482.574	9818.99
482.778	9948.01
482.983	10070.89
483.187	10023.78
483.391	10150.76
483.595	9837.42
483.8	9804.65
484.004	9917.29
484.208	10064.74
484.412	9657.2
484.616	9995.11
484.821	10068.84
485.025	10005.35
485.229	9767.79
485.433	9804.65
485.637	9866.09
485.841	9886.57
486.045	9847.66
486.249	9786.22
486.453	9884.52
486.657	9954.15
486.861	9732.97
487.065	9775.98
487.269	9804.65
487.473	9507.69
487.677	9853.8
487.881	9902.95
488.085	9556.85
488.289	9800.55
488.493	9739.12
488.697	10083.17
488.901	9927.53
489.105	9722.73
489.309	9958.25
489.512	9972.58
489.716	9816.94
489.92	9935.72
490.124	9732.97
490.328	10117.99
490.531	9970.54
490.735	10015.59
490.939	10134.37
491.143	10224.48
491.346	10066.79
491.55	10294.11
491.754	10189.67
491.958	10398.56
492.161	10148.71
492.365	10435.42
492.569	10226.53
492.772	10189.67
492.976	10533.73
493.18	10505.06
493.383	10488.67
493.587	10685.28
493.79	10759
493.994	10675.04
494.197	10716
494.401	10845.02
494.605	10777.44
494.808	11088.73
495.012	11115.35
495.215	11240.28
495.419	11027.29
495.622	11172.69
495.825	11498.32
496.029	11242.32
496.232	11543.38
496.436	11475.79
496.639	11746.12
496.843	11713.36
497.046	11891.53
497.249	11750.22
497.453	12182.34
497.656	12217.16
497.859	12264.26
498.063	12221.25
498.266	12696.38
498.469	12528.45
498.673	12763.97
498.876	13069.11
499.079	13032.25
499.282	13075.26
499.485	13298.49
499.689	13341.49
499.892	13615.92
500.095	13624.11
500.298	13867.82
500.501	13656.88
500.705	14207.78
500.908	14205.74
501.111	14379.81
501.314	14594.85
501.517	14707.49
501.72	14836.51
501.923	14953.24
502.126	15096.6
502.329	15418.13
502.532	15516.44
502.735	15432.47
502.938	15782.67
503.141	15905.55
503.344	16098.06
503.547	16243.46
503.75	16292.62
503.953	16757.5
504.156	16691.97
504.359	16941.82
504.562	17357.56
504.765	17281.78
504.968	17490.68
505.17	17939.18
505.373	17959.66
505.576	18088.68
505.779	18395.88
505.982	18219.75
506.185	18479.85
506.387	18592.48
506.59	18914.02
506.793	19292.89
506.996	19159.77
507.198	19784.4
507.401	19540.69
507.604	19860.18
507.807	19938
508.009	20171.47
508.212	20488.9
508.415	20556.49
508.617	21045.95
508.82	21041.85
509.022	20970.18
509.225	21398.2
509.428	21502.65
509.63	21899.95
509.833	21541.56
510.035	22266.54
510.238	22164.14
510.44	22315.69
510.643	22862.5
510.845	23085.73
511.048	23075.49
511.25	23362.2
511.453	23313.05
511.655	24486.54
511.858	23765.65
512.06	24124.05
512.262	24318.6
512.465	24353.42
512.667	24935.04
512.87	24933
513.072	25049.73
513.274	25619.07
513.477	25809.53
513.679	25760.37
513.881	26217.07
514.084	26415.72
514.286	26348.14
514.488	26794.6
514.69	27220.58
514.893	27411.04
515.095	27222.62
515.297	27787.86
515.499	27832.92
515.701	27808.34
515.904	28435.02
516.106	28275.28
516.308	28592.72
516.51	29131.33
516.712	29000.26
516.914	28944.97
517.116	29694.52
517.318	29495.87
517.52	29962.81
517.722	29925.94
517.925	30556.72
518.127	30671.4
518.329	30732.84
518.531	30906.92
518.733	31152.68
518.935	31586.85
519.136	31834.65
519.338	31588.89
519.54	31883.8
519.742	32170.52
519.944	32137.75
520.146	32834.06
520.348	33243.65
520.55	33098.25
520.752	33182.21
520.954	33896.95
521.155	33643.01
521.357	33999.35
521.559	34144.76
521.761	34269.69
521.963	34150.9
522.164	34736.62
522.366	34927.08
522.568	35138.02
522.77	35359.2
522.971	35590.62
523.173	35686.88
523.375	35985.88
523.576	36063.71
523.778	35770.85
523.98	36651.47
524.181	36547.03
524.383	36428.24
524.584	37011.92
524.786	36968.91
524.988	36870.61
525.189	37040.59
525.391	37155.27
525.592	37779.9
525.794	37595.59
525.995	37865.92
526.197	37521.86
526.398	37908.93
526.6	38244.79
526.801	38146.49
527.003	38062.52
527.204	38427.06
527.406	38623.67
527.607	38599.09
527.808	39029.16
528.01	38496.69
528.211	38599.09
528.412	39250.35
528.614	38764.98
528.815	39426.47
529.016	39657.89
529.218	38930.86
529.419	39434.66
529.62	39524.77
529.822	39119.28
530.023	39459.24
530.224	39449
530.425	39807.39
530.626	39205.29
530.828	39162.28
531.029	40085.92
531.23	39530.92
531.431	39975.33
531.632	39989.66
531.833	39678.37
532.035	39877.02
532.236	39569.83
532.437	40036.77
532.638	39760.29
532.839	40171.93
533.04	39762.34
533.241	39475.62
533.442	40530.33
533.643	39891.36
533.844	39893.41
534.045	39909.79
534.246	39748
534.447	39952.8
534.648	40194.46
534.849	40055.2
535.05	39418.28
535.251	40186.27
535.451	39909.79
535.652	39868.83
535.853	40059.29
536.054	39956.89
536.255	40296.86
536.456	39557.54
536.657	40386.97
536.857	39741.86
537.058	39985.57
537.259	40159.64
537.46	39846.3
537.66	39960.99
537.861	40165.79
538.062	39659.94
538.263	39989.66
538.463	39580.07
538.664	39508.39
538.865	40184.22
539.065	40108.44
539.266	39563.68
539.466	40505.75
539.667	39567.78
539.868	39971.23
540.068	39553.44
540.269	39739.81
540.469	39776.67
540.67	39739.81
540.87	39926.17
541.071	39741.86
541.271	39813.54
541.472	39840.16
541.672	39416.23
541.873	39661.99
542.073	38916.53
542.274	39889.31
542.474	39506.34
542.675	39297.45
542.875	39874.98
543.075	39344.55
543.276	38922.67
543.476	39610.79
543.676	39399.85
543.877	39430.57
544.077	39485.86
544.277	39336.36
544.478	39109.04
544.678	39567.78
544.878	39453.09
545.078	39580.07
545.279	39018.92
545.479	39129.51
545.679	39373.22
545.879	39231.91
546.079	39334.31
546.28	39512.49
546.48	38887.85
546.68	39307.69
546.88	39608.74
547.08	39217.58
547.28	38984.11
547.48	38924.72
547.68	39106.99
547.88	38894
548.081	39352.74
548.281	38928.81
548.481	38963.63
548.681	39596.45
548.881	39258.54
549.081	38785.46
549.28	39025.07
549.48	39319.98
549.68	39168.43
549.88	39213.48
550.08	38449.59
550.28	39211.43
550.48	38793.65
550.68	39000.49
550.88	38859.18
551.08	38603.19
551.279	38758.83
551.479	38896.05
551.679	38814.13
551.879	38697.39
552.079	39227.82
552.278	38840.75
552.478	38752.69
552.678	38902.19
552.878	38840.75
553.077	38709.68
553.277	38396.34
553.477	39102.89
553.676	38537.65
553.876	38515.12
554.076	38465.97
554.275	38361.53
554.475	38140.35
554.674	38865.33
554.874	38547.89
555.074	38449.59
555.273	38123.96
555.473	38525.36
555.672	38011.32
555.872	38295.99
556.071	38668.72
556.271	38515.12
556.47	38054.33
556.67	38003.13
556.869	37839.29
557.068	37966.27
557.268	37802.43
557.467	37888.45
557.667	38173.11
557.866	38113.72
558.065	38027.71
558.265	37749.18
558.464	37556.67
558.663	37896.64
558.863	37259.72
559.062	38371.77
559.261	37327.3
559.461	37867.97
559.66	37417.41
559.859	37597.63
560.058	37550.53
560.258	37460.42
560.457	37171.66
560.656	37786.05
560.855	37415.37
561.054	37691.84
561.253	37071.31
561.453	37243.34
561.652	37296.58
561.851	37562.82
562.05	37317.06
562.249	36872.65
562.448	37364.17
562.647	37161.42
562.846	36780.49
563.045	37249.48
563.244	36829.65
563.443	37216.71
563.642	36467.16
563.841	36790.73
564.04	36692.43
564.239	36768.21
564.438	36274.65
564.637	36465.11
564.836	36610.51
565.035	35946.97
565.234	36463.06
565.432	36282.84
565.631	36119
565.83	36573.65
566.029	35934.68
566.228	36522.45
566.427	36381.14
566.625	35779.04
566.824	36030.94
567.023	36119
567.222	35443.17
567.42	36149.72
567.619	35940.83
567.818	35510.75
568.016	35998.17
568.215	35709.41
568.414	35420.64
568.612	36125.14
568.811	35408.36
569.01	35443.17
569.208	35265
569.407	35518.95
569.605	35164.65
569.804	35989.98
570.002	35269.09
570.201	35119.59
570.4	35203.56
570.598	34714.09
570.797	35068.39
570.995	35033.58
571.193	34499.06
571.392	35054.06
571.59	34353.65
571.789	34755.05
571.987	34449.91
572.186	34572.78
572.384	34339.32
572.582	34476.53
572.781	34267.64
572.979	33833.47
573.177	34097.66
573.376	34220.53
573.574	34120.18
573.772	34382.32
573.971	34173.43
574.169	33782.27
574.367	33530.37
574.565	33982.97
574.763	33350.15
574.962	33530.37
575.16	33253.89
575.358	33608.19
575.556	33298.95
575.754	33757.69
575.952	33444.35
576.151	33257.99
576.349	33202.69
576.547	33219.08
576.745	33276.42
576.943	32678.41
577.141	33116.68
577.339	33346.05
577.537	32918.03
577.735	32791.05
577.933	32395.79
578.131	32821.77
578.329	32537.1
578.527	32240.15
578.725	32391.7
578.923	32702.99
579.121	32274.96
579.319	32117.27
579.516	32221.72
579.714	31969.82
579.912	32109.08
580.11	31791.64
580.308	31420.96
580.506	31877.66
580.704	31500.83
580.901	31617.57
581.099	32342.55
581.297	31554.08
581.495	31662.62
581.692	31754.78
581.89	31062.57
582.088	31451.68
582.285	31062.57
582.483	31128.1
582.681	31050.28
582.878	31007.27
583.076	30890.54
583.274	31214.12
583.471	30530.09
583.669	31023.65
583.866	30730.8
584.064	30757.42
584.262	30257.71
584.459	30452.27
584.657	30370.35
584.854	30505.52
585.052	29542.97
585.249	30175.8
585.447	29973.05
585.644	29694.52
585.841	29999.67
586.039	30030.39
586.236	29618.75
586.434	29702.71
586.631	29528.64
586.828	29925.94
587.026	29737.53
587.223	29612.6
587.42	29235.78
587.618	29534.78
587.815	29276.74
588.012	28953.16
588.21	29051.46
588.407	29149.76
588.604	28928.58
588.801	28525.13
588.999	28707.4
589.196	28641.87
589.393	28623.44
589.59	28297.81
589.787	28500.56
589.984	28269.14
590.182	28224.08
590.379	28312.14
590.576	27904.6
590.773	28189.27
590.97	28105.3
591.167	28217.94
591.364	27798.1
591.561	28007
591.758	27744.86
591.955	27576.92
592.152	27767.38
592.349	27771.48
592.546	27308.64
592.743	27669.08
592.94	27259.49
593.137	27109.99
593.334	27398.75
593.531	26882.66
593.727	27402.85
593.924	27077.22
594.121	26819.17
594.318	26868.33
594.515	26378.86
594.712	26737.26
594.908	26362.48
595.105	26753.64
595.302	26319.47
595.499	26575.47
595.696	26442.35
595.892	26204.78
596.089	26018.42
596.286	26571.37
596.482	26391.15
596.679	26010.23
596.876	26028.66
597.072	25543.29
597.269	25813.62
597.466	25752.18
597.662	25240.19
597.859	25623.16
598.055	25535.1
598.252	24959.62
598.448	25367.16
598.645	25158.27
598.841	25053.83
599.038	25129.6
599.234	25283.2
599.431	24896.13
599.627	24439.44
599.824	24896.13
600.02	24736.39
600.217	24842.88
600.413	24324.75
600.609	24363.66
600.806	24533.64
601.002	24281.74
601.198	24179.34
601.395	24070.8
601.591	24244.88
601.787	24226.45
601.984	23966.35
602.18	23792.28
602.376	23884.44
602.572	23712.41
602.769	23507.61
602.965	23308.96
603.161	23476.89
603.357	23515.8
603.553	23558.81
603.75	23429.79
603.946	23128.74
604.142	23521.95
604.338	23141.02
604.534	23366.3
604.73	22885.03
604.926	23067.3
605.122	22801.06
605.318	22710.95
605.514	22727.33
605.71	22643.37
605.906	22536.87
606.102	22549.16
606.298	22901.41
606.494	22280.88
606.69	22665.89
606.886	22565.54
607.082	22270.64
607.278	22336.17
607.474	22301.36
607.67	22389.42
607.866	21988.02
608.062	22104.75
608.257	21969.58
608.453	22088.37
608.649	22065.84
608.845	21775.03
609.041	21836.47
609.236	21899.95
609.432	21760.69
609.628	21754.55
609.824	21783.22
610.019	21750.45
610.215	21858.99
610.411	21787.32
610.606	21459.64
610.802	21603
610.998	21441.21
611.193	21572.28
611.389	21500.6
611.584	21234.36
611.78	21238.46
611.976	21050.05
612.171	21467.83
612.367	21220.03
612.562	21177.02
612.758	20937.41
612.953	20986.56
613.149	21185.21
613.344	21109.44
613.539	20961.98
613.735	20853.44
613.93	20882.11
614.126	20773.57
614.321	20968.13
614.517	20734.66
614.712	20667.08
614.907	20652.74
615.103	20880.07
615.298	20488.9
615.493	21187.26
615.688	20353.74
615.884	20814.53
616.079	20265.67
616.274	20622.02
616.47	20261.58
616.665	20441.8
616.86	20368.07
617.055	20247.24
617.25	19950.29
617.445	20447.94
617.641	19872.46
617.836	20044.49
618.031	19813.07
618.226	20181.71
618.421	19825.36
618.616	20128.46
618.811	19622.61
619.006	20083.41
619.201	19694.29
619.396	19569.37
619.591	19063.52
619.786	19618.52
619.981	19233.5
620.176	19346.14
620.371	19155.68
620.566	19067.61
620.761	19100.38
620.956	19309.27
621.151	18864.86
621.346	18739.94
621.541	18727.65
621.735	18705.12
621.93	18193.13
622.125	18623.2
622.32	18141.93
622.515	18258.67
622.709	18281.19
622.904	18117.36
623.099	17914.61
623.294	18098.92
623.488	17830.64
623.683	17523.44
623.878	17478.39
624.072	17771.25
624.267	17566.45
624.462	17416.95
624.656	17322.74
624.851	17365.75
625.046	17042.17
625.24	17134.33
625.435	16982.78
625.629	16956.16
625.824	16769.79
626.018	16708.35
626.213	16304.9
626.407	16526.08
626.602	16216.84
626.796	16499.46
626.991	16278.28
627.185	16112.39
627.38	16139.02
627.574	16077.58
627.768	16112.39
627.963	15813.39
628.157	15581.97
628.352	15774.48
628.546	15489.81
628.74	15692.56
628.935	15373.08
629.129	15280.92
629.323	15121.18
629.517	15285.01
629.712	14926.62
629.906	15004.44
630.1	14758.69
630.294	15129.37
630.489	14764.83
630.683	14752.54
630.877	14539.55
631.071	14725.92
631.265	14598.95
631.459	14080.81
631.653	14596.9
631.848	14301.99
632.042	14162.73
632.236	14373.67
632.43	14013.23
632.624	14267.17
632.818	13962.03
633.012	13685.55
633.206	13861.68
633.4	13746.99
633.594	13499.19
633.788	13798.19
633.982	13599.54
634.176	13482.8
634.369	13237.05
634.563	13278.01
634.757	13138.74
634.951	13191.99
635.145	13019.96
635.339	12964.67
635.533	12948.28
635.726	12997.43
635.92	12809.02
636.114	13034.3
636.308	12817.21
636.501	12725.05
636.695	12696.38
636.889	12452.67
637.083	12452.67
637.276	12510.02
637.47	12462.91
637.664	12294.98
637.857	12206.92
638.051	12231.49
638.244	11936.59
638.438	11895.63
638.632	12102.47
638.825	12088.14
639.019	11866.95
639.212	11946.83
639.406	11770.7
639.599	11619.15
639.793	11615.05
639.986	11473.74
640.18	11524.94
640.373	11547.47
640.567	11297.62
640.76	11408.21
640.954	11326.29
641.147	11098.97
641.34	11113.3
641.534	11035.48
641.727	11223.89
641.92	11068.25
642.114	11076.44
642.307	11062.1
642.5	10763.1
642.694	10771.29
642.887	10611.55
643.08	10457.95
643.273	10658.65
643.467	10652.51
643.66	10537.82
643.853	10482.53
644.046	10478.43
644.239	10349.41
644.432	10361.7
644.626	10197.86
644.819	10109.8
645.012	10242.92
645.205	10214.24
645.398	10105.7
645.591	10001.26
645.784	10025.83
645.977	9704.3
646.17	9958.25
646.363	9790.31
646.556	9608.05
646.749	9593.71
646.942	9501.55
647.135	9589.61
647.328	9493.36
647.521	9472.88
647.714	9393.01
647.907	9350
648.099	9374.58
648.292	9321.33
648.485	9366.39
648.678	9053.05
648.871	9241.46
649.064	9034.61
649.256	9053.05
649.449	9112.44
649.642	8760.19
649.835	8803.19
650.027	9051
650.22	9028.47
650.413	8530.81
650.605	8799.1
650.798	8639.36
650.991	8532.86
651.183	8514.43
651.376	8401.79
651.568	8403.84
651.761	8534.91
651.954	8553.34
652.146	8309.63
652.339	8373.12
652.531	8153.99
652.724	8285.06
652.916	8182.66
653.109	8237.95
653.301	8039.3
653.494	8131.46
653.686	7912.33
653.879	8174.47
654.071	7922.57
654.263	7920.52
654.456	7836.55
654.648	7967.62
654.84	7738.25
655.033	7650.19
655.225	7807.88
655.417	7650.19
655.61	7674.76
655.802	7777.16
655.994	7568.27
656.186	7512.97
656.379	7486.35
656.571	7383.95
656.763	7461.77
656.955	7355.28
657.148	7248.79
657.34	7271.31
657.532	7226.26
657.724	7365.52
657.916	7132.05
658.108	7166.87
658.3	6966.17
658.492	7054.23
658.684	6927.25
658.876	7125.91
659.068	6933.4
659.26	6812.57
659.452	6984.6
659.644	6826.9
659.836	6884.25
660.028	6804.38
660.22	6730.65
660.412	6710.17
660.604	6595.48
660.796	6691.74
660.988	6661.02
661.18	6581.15
661.372	6527.9
661.563	6648.73
661.755	6413.21
661.947	6593.44
662.139	6419.36
662.331	6355.87
662.522	6548.38
662.714	6407.07
662.906	6261.66
663.097	6505.37
663.289	6101.92
663.481	6210.47
663.673	6179.75
663.864	6128.55
664.056	6116.26
664.247	6251.42
664.439	6069.16
664.631	6101.92
664.822	5940.13
665.014	5987.24
665.205	5960.61
665.397	5837.73
665.588	5837.73
665.78	5778.34
665.971	5960.61
666.163	5876.65
666.354	5809.06
666.546	5714.86
666.737	5608.36
666.929	5809.06
667.12	5516.2
667.311	5598.12
667.503	5591.98
667.694	5618.6
667.885	5483.44
668.077	5411.76
668.268	5653.42
668.459	5602.22
668.651	5403.57
668.842	5356.46
669.033	5348.27
669.224	5274.54
669.416	5399.47
669.607	5503.92
669.798	5362.61
669.989	5419.95
670.18	5215.15
670.371	5389.23
670.563	5311.41
670.754	5284.78
670.945	5065.65
671.136	5235.63
671.327	4971.44
671.518	4985.78
671.709	5182.38
671.9	5075.89
672.091	5061.55
672.282	5065.65
672.473	4877.24
672.664	4950.96
672.855	4983.73
673.046	5094.32
673.237	5047.22
673.428	4961.2
673.619	4996.02
673.809	4916.15
674	4752.31
674.191	4701.11
674.382	4918.2
674.573	4803.51
674.764	4867
674.954	4832.18
675.145	4768.7
675.336	4664.25
675.527	4627.39
675.717	4651.96
675.908	4703.16
676.099	4651.96
676.289	4502.46
676.48	4582.33
676.671	4576.19
676.861	4447.16
677.052	4619.19
677.243	4471.74
677.433	4535.23
677.624	4586.43
677.814	4490.17
678.005	4522.94
678.195	4436.92
678.386	4461.5
678.576	4457.4
678.767	4524.99
678.957	4438.97
679.148	4408.25
679.338	4391.87
679.529	4301.76
679.719	4281.28
679.909	4451.26
680.1	4318.14
680.29	4268.99
680.481	4359.1
680.671	4436.92
680.861	4197.31
681.052	4344.77
681.242	4389.82
681.432	4242.37
681.622	4254.66
681.813	4090.82
682.003	4207.55
682.193	4117.44
682.383	4258.75
682.573	4254.66
682.764	4191.17
682.954	4359.1
683.144	4250.56
683.334	4037.57
683.524	4221.89
683.714	4146.11
683.904	4045.76
684.094	4166.59
684.284	4160.45
684.474	4113.35
684.664	4043.71
684.854	4174.78
685.044	4099.01
685.234	3990.47
685.424	4072.39
685.614	3924.93
685.804	3978.18
685.994	3947.46
686.184	4025.28
686.374	4053.95
686.564	3908.55
686.753	3840.97
686.943	3816.39
687.133	3972.04
687.323	3912.64
687.513	3910.6
687.702	3883.97
687.892	3773.38
688.082	3863.49
688.272	3898.31
688.461	3785.67
688.651	3623.88
688.841	3810.25
689.03	3593.16
689.22	3697.61
689.41	3804.1
689.599	3584.97
689.789	3599.31
689.979	3539.91
690.168	3656.65
690.358	3564.49
690.547	3621.83
690.737	3501
690.926	3523.53
691.116	3494.86
691.305	3507.15
691.495	3455.95
691.684	3537.87
691.874	3451.85
692.063	3357.64
692.252	3501
692.442	3484.62
692.631	3279.82
692.82	3326.93
693.01	3335.12
693.199	3261.39
693.388	3400.65
693.578	3218.38
693.767	3161.04
693.956	3206.1
694.146	3120.08
694.335	3130.32
694.524	3189.71
694.713	3316.69
694.902	2956.24
695.092	3304.4
695.281	3048.4
695.47	3064.79
695.659	3011.54
695.848	3001.3
696.037	3044.31
696.226	2943.96
696.415	3011.54
696.604	2984.91
696.793	2929.62
696.982	3011.54
697.171	2872.28
697.36	3027.92
697.549	3007.44
697.738	2915.28
697.927	2923.48
698.116	2978.77
698.305	2980.82
698.494	2989.01
698.683	2935.76
698.872	2831.32
699.061	2925.52
699.25	2862.04
699.438	2968.53
699.627	2831.32
699.816	2948.05
700.005	2687.96
700.193	2876.37
700.382	2792.41
700.571	2685.91
700.76	2780.12
700.948	2784.21
701.137	2808.79
701.326	2878.42
701.514	2636.76
701.703	2808.79
701.892	2751.45
702.08	2714.58
702.269	2655.19
702.457	2690.01
702.646	2624.47
702.834	2718.68
703.023	2653.14
703.212	2718.68
703.4	2704.34
703.589	2577.37
703.777	2849.75
703.965	2634.71
704.154	2655.19
704.342	2563.03
704.531	2659.29
704.719	2526.17
704.907	2579.42
705.096	2526.17
705.284	2673.62
705.472	2577.37
705.661	2624.47
705.849	2540.51
706.037	2563.03
706.226	2528.22
706.414	2573.27
706.602	2501.59
706.79	2474.97
706.979	2532.31
707.167	2456.54
707.355	2481.11
707.543	2534.36
707.731	2714.58
707.919	2577.37
708.107	2399.2
708.296	2483.16
708.484	2460.63
708.672	2634.71
708.86	2495.45
709.048	2450.39
709.236	2444.25
709.424	2483.16
709.612	2472.92
709.8	2411.48
709.988	2511.83
710.176	2489.31
710.364	2495.45
710.551	2452.44
710.739	2509.79
710.927	2477.02
711.115	2587.61
711.303	2530.27
711.491	2472.92
711.679	2446.3
711.866	2511.83
712.054	2454.49
712.242	2350.04
712.43	2477.02
712.617	2442.2
712.805	2509.79
712.993	2552.79
713.181	2425.82
713.368	2448.35
713.556	2552.79
713.744	2388.96
713.931	2556.89
714.119	2497.5
714.306	2454.49
714.494	2395.1
714.682	2485.21
714.869	2458.59
715.057	2503.64
715.244	2532.31
715.432	2464.73
715.619	2522.07
715.807	2448.35
715.994	2515.93
716.182	2421.72
716.369	2378.72
716.556	2397.15
716.744	2399.2
716.931	2499.55
717.119	2567.13
717.306	2388.96
717.493	2401.24
717.681	2327.52
717.868	2434.01
718.055	2472.92
718.242	2462.68
718.43	2487.26
718.617	2403.29
718.804	2393.05
718.991	2460.63
719.179	2378.72
719.366	2300.89
719.553	2411.48
719.74	2571.22
719.927	2384.86
720.114	2448.35
720.301	2354.14
720.488	2329.56
720.676	2466.78
720.863	2479.07
721.05	2460.63
721.237	2421.72
721.424	2552.79
721.611	2444.25
721.798	2374.62
721.985	2446.3
722.172	2333.66
722.358	2429.91
722.545	2520.03
722.732	2425.82
722.919	2413.53
723.106	2329.56
723.293	2321.37
723.48	2388.96
723.667	2378.72
723.853	2513.88
724.04	2454.49
724.227	2462.68
724.414	2558.94
724.6	2393.05
724.787	2415.58
724.974	2442.2
725.161	2429.91
725.347	2419.68
725.534	2368.48
725.72	2436.06
725.907	2464.73
726.094	2567.13
726.28	2485.21
726.467	2444.25
726.653	2401.24
726.84	2470.87
727.027	2438.11
727.213	2325.47
727.4	2505.69
727.586	2446.3
727.773	2464.73
727.959	2517.98
728.145	2421.72
728.332	2464.73
728.518	2509.79
728.705	2577.37
728.891	2528.22
729.077	2311.13
729.264	2474.97
729.45	2503.64
729.636	2517.98
729.823	2331.61
730.009	2534.36
730.195	2581.46
730.382	2577.37
730.568	2501.59
730.754	2581.46
730.94	2382.81
731.126	2673.62
731.313	2513.88
731.499	2597.85
731.685	2546.65
731.871	2507.74
732.057	2694.1
732.243	2495.45
732.429	2560.98
732.615	2624.47
732.801	2538.46
732.987	2417.63
733.173	2503.64
733.359	2540.51
733.545	2565.08
733.731	2530.27
733.917	2606.04
734.103	2589.66
734.289	2653.14
734.475	2563.03
734.661	2610.14
734.847	2663.38
735.033	2657.24
735.219	2622.42
735.404	2724.82
735.59	2610.14
735.776	2597.85
735.962	2679.77
736.148	2692.05
736.333	2669.53
736.519	2644.95
736.705	2751.45
736.89	2647
737.076	2599.9
737.262	2587.61
737.447	2634.71
737.633	2767.83
737.819	2671.58
738.004	2696.15
738.19	2653.14
738.375	2657.24
738.561	2724.82
738.747	2601.94
738.932	2653.14
739.118	2579.42
739.303	2694.1
739.489	2683.86
739.674	2710.49
739.859	2702.29
740.045	2749.4
740.23	2587.61
740.416	2589.66
740.601	2601.94
740.786	2651.1
740.972	2671.58
741.157	2640.86
741.342	2638.81
741.528	2612.18
741.713	2661.34
741.898	2640.86
742.084	2673.62
742.269	2567.13
742.454	2812.89
742.639	2763.73
742.824	2608.09
743.01	2722.77
743.195	2636.76
743.38	2681.82
743.565	2638.81
743.75	2581.46
743.935	2647
744.12	2812.89
744.305	2571.22
744.49	2700.25
744.675	2581.46
744.86	2563.03
745.045	2690.01
745.23	2655.19
745.415	2597.85
745.6	2757.59
745.785	2659.29
745.97	2599.9
746.155	2681.82
746.34	2546.65
746.525	2579.42
746.71	2616.28
746.895	2563.03
747.079	2477.02
747.264	2448.35
747.449	2495.45
747.634	2399.2
747.819	2507.74
748.003	2440.15
748.188	2487.26
748.373	2487.26
748.557	2470.87
748.742	2356.19
748.927	2499.55
749.111	2399.2
749.296	2538.46
749.481	2483.16
749.665	2403.29
749.85	2257.89
750.034	2329.56
750.219	2393.05
750.404	2429.91
750.588	2384.86
750.773	2364.38
750.957	2348
751.141	2352.09
751.326	2374.62
751.51	2309.08
751.695	2317.28
751.879	2274.27
752.064	2294.75
752.248	2307.04
752.432	2227.17
752.617	2223.07
752.801	2184.16
752.985	2239.45
753.17	2167.77
753.354	2272.22
753.538	2200.54
753.722	2034.66
753.907	2130.91
754.091	2096.1
754.275	2083.81
754.459	2077.66
754.643	2016.23
754.828	2089.95
755.012	2030.56
755.196	2005.99
755.38	2028.51
755.564	1989.6
755.748	2005.99
755.932	2069.47
756.116	1985.51
756.3	2051.04
756.484	2028.51
756.668	1962.98
756.852	1954.79
757.036	1962.98
757.22	1956.83
757.404	1954.79
757.588	1924.07
757.772	2036.7
757.956	1944.55
758.14	1905.63
758.323	1866.72
758.507	1954.79
758.691	1870.82
758.875	1924.07
759.059	1770.47
759.242	1829.86
759.426	1790.95
759.61	1713.13
759.794	1754.09
759.977	1782.76
760.161	1883.11
760.345	1905.63
760.528	1778.66
760.712	1739.75
760.895	1711.08
761.079	1749.99
761.263	1774.56
761.446	1672.17
761.63	1643.49
761.813	1692.65
761.997	1514.47
762.18	1713.13
762.364	1676.26
762.547	1647.59
762.731	1668.07
762.914	1706.98
763.098	1592.3
763.281	1678.31
763.464	1698.79
763.648	1590.25
763.831	1594.34
764.015	1643.49
764.198	1561.58
764.381	1682.41
764.564	1575.91
764.748	1592.3
764.931	1618.92
765.114	1569.77
765.297	1448.94
765.481	1483.75
765.664	1547.24
765.847	1553.38
766.03	1522.66
766.213	1555.43
766.397	1549.29
766.58	1477.61
766.763	1483.75
766.946	1471.47
767.129	1424.36
767.312	1397.74
767.495	1467.37
767.678	1364.97
767.861	1407.98
768.044	1430.51
768.227	1471.47
768.41	1442.79
768.593	1428.46
768.776	1407.98
768.959	1526.76
769.142	1428.46
769.324	1416.17
769.507	1270.76
769.69	1315.82
769.873	1364.97
770.056	1371.12
770.239	1426.41
770.421	1299.44
770.604	1469.42
770.787	1369.07
770.97	1283.05
771.152	1330.16
771.335	1377.26
771.518	1356.78
771.7	1350.64
771.883	1311.72
772.066	1385.45
772.248	1373.16
772.431	1375.21
772.613	1360.88
772.796	1414.12
772.978	1326.06
773.161	1233.9
773.343	1211.37
773.526	1303.53
773.708	1186.8
773.891	1250.28
774.073	1244.14
774.256	1223.66
774.438	1233.9
774.621	1207.28
774.803	1176.56
774.985	1127.41
775.168	1149.93
775.35	1246.19
775.532	1180.65
775.715	1205.23
775.897	1186.8
776.079	1168.37
776.261	1151.98
776.444	1135.6
776.626	1162.22
776.808	1147.89
776.99	1094.64
777.173	1010.67
777.355	1166.32
777.537	1035.25
777.719	1063.92
777.901	1133.55
778.083	1033.2
778.265	1012.72
778.447	1080.3
778.629	965.62
778.811	1084.4
778.993	1002.48
779.175	1031.15
779.357	1010.67
779.539	1006.58
779.721	979.95
779.903	975.86
780.085	879.6
780.267	906.23
780.449	1022.96
780.631	963.57
780.812	902.13
780.994	920.56
781.176	984.05
781.358	963.57
781.54	881.65
781.721	850.93
781.903	920.56
782.085	832.5
782.267	924.66
782.448	793.59
782.63	797.68
782.812	875.51
782.993	875.51
783.175	889.84
783.357	793.59
783.538	869.36
783.72	781.3
783.901	801.78
784.083	812.02
784.264	721.91
784.446	717.81
784.627	726
784.809	758.77
784.99	726
785.172	799.73
785.353	758.77
785.535	834.55
785.716	656.37
785.897	662.52
786.079	642.04
786.26	713.72
786.441	726
786.623	656.37
786.804	588.79
786.985	730.1
787.167	703.48
787.348	726
787.529	670.71
787.71	715.77
787.891	738.29
788.073	654.33
788.254	510.97
788.435	760.82
788.616	607.22
788.797	623.61
788.978	678.9
789.159	556.02
789.34	609.27
789.522	623.61
789.703	482.3
789.884	613.37
790.065	601.08
790.246	603.13
790.427	558.07
790.607	594.93
790.788	562.17
790.969	560.12
791.15	603.13
791.331	527.35
791.512	531.45
791.693	519.16
791.874	578.55
792.054	539.64
792.235	693.24
792.416	515.06
792.597	611.32
792.778	510.97
792.958	574.46
793.139	629.75
793.32	566.26
793.5	553.98
793.681	478.2
793.862	568.31
794.042	531.45
794.223	476.15
794.404	568.31
794.584	486.39
794.765	535.54
794.945	482.3
795.126	494.58
795.306	453.63
795.487	568.31
795.667	431.1
795.848	365.56
796.028	506.87
796.209	449.53
796.389	504.82
796.57	461.82
796.75	445.43
796.93	459.77
797.111	412.67
797.291	435.19
797.471	463.86
797.652	459.77
797.832	422.91
798.012	504.82
798.192	420.86
798.373	459.77
798.553	420.86
798.733	439.29
798.913	429.05
799.093	404.47
799.274	521.21
799.454	408.57
799.634	453.63
799.814	422.91
799.994	457.72
800.174	392.19
800.354	383.99
800.534	375.8
800.714	406.52
800.894	336.89
801.074	371.71
801.254	373.75
801.434	453.63
801.614	402.43
801.794	363.51
801.974	1088.5
802.154	412.67
802.334	414.71
802.514	402.43
802.693	340.99
802.873	420.86
803.053	390.14
803.233	353.27
803.413	328.7
803.592	328.7
803.772	310.27
803.952	367.61
804.131	441.34
804.311	379.9
804.491	447.48
804.67	381.95
804.85	377.85
805.03	365.56
805.209	267.26
805.389	300.03
805.568	353.27
805.748	334.84
805.928	377.85
806.107	383.99
806.287	281.6
806.466	400.38
806.646	340.99
806.825	293.88
807.004	254.97
807.184	330.75
807.363	371.71
807.543	373.75
807.722	244.73
807.901	363.51
808.081	257.02
808.26	273.4
808.439	289.79
808.619	314.36
808.798	373.75
808.977	347.13
809.156	277.5
809.336	297.98
809.515	269.31
809.694	209.92
809.873	283.64
810.052	293.88
810.231	340.99
810.411	338.94
810.59	293.88
810.769	224.25
810.948	279.55
811.127	230.4
811.306	261.12
811.485	232.44
811.664	293.88
811.843	273.4
812.022	295.93
812.201	273.4
812.38	246.78
812.559	230.4
812.737	252.92
812.916	216.06
813.095	252.92
813.274	306.17
813.453	248.83
813.632	332.79
813.811	318.46
813.989	189.44
814.168	228.35
814.347	177.15
814.526	304.12
814.704	248.83
814.883	265.21
815.062	197.63
815.24	326.65
815.419	246.78
815.598	293.88
815.776	203.77
815.955	240.64
816.133	164.86
816.312	166.91
816.49	271.36
816.669	191.49
816.847	259.07
817.026	195.58
817.204	273.4
817.383	201.72
817.561	183.29
817.74	283.64
817.918	302.08
818.097	277.5
818.275	191.49
818.453	211.96
818.632	187.39
818.81	216.06
818.988	207.87
819.167	238.59
819.345	242.68
819.523	201.72
819.701	203.77
819.879	111.61
820.058	214.01
820.236	281.6
820.414	246.78
820.592	216.06
820.77	224.25
820.948	183.29
821.127	154.62
821.305	183.29
821.483	195.58
821.661	228.35
821.839	193.53
822.017	103.42
822.195	136.19
822.373	277.5
822.551	156.67
822.729	218.11
822.907	154.62
823.085	205.82
823.262	166.91
823.44	111.61
823.618	160.77
823.796	168.96
823.974	103.42
824.152	140.29
824.329	263.16
824.507	220.16
824.685	209.92
824.863	140.29
825.04	177.15
825.218	236.54
825.396	175.1
825.574	209.92
825.751	113.66
825.929	224.25
826.107	89.09
826.284	140.29
826.462	209.92
826.639	160.77
826.817	70.65
826.994	265.21
827.172	74.75
827.349	162.81
827.527	152.57
827.704	183.29
827.882	95.23
828.059	195.58
828.237	177.15
828.414	218.11
828.591	164.86
828.769	82.94
828.946	130.05
829.124	193.53
829.301	211.96
829.478	87.04
829.655	140.29
829.833	123.9
830.01	160.77
830.187	95.23
830.364	181.25
830.542	197.63
830.719	216.06
830.896	82.94
831.073	134.14
831.25	175.1
831.427	91.13
831.604	107.52
831.782	144.38
831.959	179.2
832.136	191.49
832.313	152.57
832.49	197.63
832.667	60.42
832.844	103.42
833.021	123.9
833.198	164.86
833.374	179.2
833.551	142.33
833.728	152.57
833.905	125.95
834.082	107.52
834.259	205.82
834.436	142.33
834.612	154.62
834.789	160.77
834.966	107.52
835.143	128
835.319	101.37
835.496	150.53
835.673	162.81
835.85	56.32
836.026	119.81
836.203	154.62
836.38	41.98
836.556	146.43
836.733	160.77
836.909	162.81
837.086	54.27
837.262	134.14
837.439	66.56
837.616	56.32
837.792	41.98
837.968	89.09
838.145	76.8
838.321	187.39
838.498	125.95
838.674	160.77
838.851	177.15
839.027	134.14
839.203	109.57
839.38	136.19
839.556	74.75
839.732	117.76
839.909	150.53
840.085	162.81
840.261	58.37
840.437	91.13
840.614	66.56
840.79	117.76
840.966	123.9
841.142	125.95
841.318	115.71
841.494	181.25
841.671	97.28
841.847	76.8
842.023	62.46
842.199	107.52
842.375	132.09
842.551	72.7
842.727	68.61
842.903	74.75
843.079	58.37
843.255	152.57
843.431	117.76
843.607	117.76
843.783	35.84
843.959	95.23
844.134	82.94
844.31	117.76
844.486	56.32
844.662	150.53
844.838	144.38
845.013	150.53
845.189	123.9
845.365	21.5
845.541	93.18
845.716	37.89
845.892	166.91
846.068	113.66
846.244	74.75
846.419	62.46
846.595	105.47
846.77	44.03
846.946	66.56
847.122	9.22
847.297	60.42
847.473	105.47
847.648	87.04
847.824	103.42
847.999	29.7
848.175	175.1
848.35	91.13
848.526	154.62
848.701	183.29
848.876	48.13
849.052	-1.02
849.227	66.56
849.403	91.13
849.578	48.13
849.753	152.57
849.929	105.47
850.104	23.55
850.279	107.52
850.454	62.46
850.63	50.18
850.805	48.13
850.98	78.85
851.155	82.94
851.33	70.65
851.505	-17.41
851.681	142.33
851.856	72.7
852.031	82.94
852.206	41.98
852.381	87.04
852.556	97.28
852.731	111.61
852.906	111.61
853.081	130.05
853.256	125.95
853.431	107.52
853.606	72.7
853.781	54.27
853.956	107.52
854.131	72.7
854.305	134.14
854.48	52.22
854.655	54.27
854.83	99.33
855.005	62.46
855.18	115.71
855.354	109.57
855.529	72.7
855.704	21.5
855.879	138.24
856.053	44.03
856.228	76.8
856.403	27.65
856.577	68.61
856.752	-15.36
856.926	121.85
857.101	23.55
857.276	-15.36
857.45	89.09
857.625	72.7
857.799	78.85
857.974	31.74
858.148	48.13
858.323	39.94
858.497	-7.17
858.672	-1.02
858.846	44.03
859.02	144.38
859.195	9.22
859.369	44.03
859.543	121.85
859.718	46.08
859.892	109.57
860.066	58.37
860.241	74.75
860.415	97.28
860.589	87.04
860.763	46.08
860.938	35.84
861.112	160.77
861.286	46.08
861.46	72.7
861.634	136.19
861.808	56.32
861.982	56.32
862.157	62.46
862.331	97.28
862.505	-9.22
862.679	-11.26
862.853	87.04
863.027	72.7
863.201	44.03
863.375	-9.22
863.549	54.27
863.722	62.46
863.896	148.48
864.07	54.27
864.244	46.08
864.418	91.13
864.592	95.23
864.766	41.98
864.939	62.46
865.113	80.89
865.287	119.81
865.461	115.71
865.634	48.13
865.808	44.03
865.982	130.05
866.156	70.65
866.329	17.41
866.503	13.31
866.676	91.13
866.85	64.51
867.024	17.41
867.197	56.32
867.371	7.17
867.544	87.04
867.718	29.7
867.891	7.17
868.065	95.23
868.238	60.42
868.412	111.61
868.585	44.03
868.759	13.31
868.932	50.18
869.105	56.32
869.279	-17.41
869.452	54.27
869.625	74.75
869.799	68.61
869.972	3.07
870.145	-13.31
870.319	7.17
870.492	37.89
870.665	-46.08
870.838	113.66
871.011	13.31
871.185	64.51
871.358	31.74
871.531	76.8
871.704	-15.36
871.877	35.84
872.05	41.98
872.223	-17.41
872.396	60.42
872.569	48.13
872.742	46.08
872.915	15.36
873.088	-7.17
873.261	68.61
873.434	78.85
873.607	91.13
873.78	125.95
873.953	-66.56
874.126	78.85
874.299	78.85
874.471	27.65
874.644	80.89
874.817	13.31
874.99	33.79
875.163	37.89
875.335	29.7
875.508	17.41
875.681	44.03
875.853	33.79
876.026	64.51
876.199	142.33
876.371	99.33
876.544	89.09
876.717	109.57
876.889	-7.17
877.062	101.37
877.234	31.74
877.407	99.33
877.579	95.23
877.752	70.65
877.924	-7.17
878.097	74.75
878.269	15.36
878.442	70.65
878.614	46.08
878.786	-7.17
878.959	111.61
879.131	29.7
879.303	-19.46
879.476	7.17
879.648	70.65
879.82	25.6
879.993	48.13
880.165	-35.84
880.337	-15.36
880.509	95.23
880.681	15.36
880.854	-19.46
881.026	33.79
881.198	76.8
881.37	-5.12
881.542	35.84
881.714	54.27
881.886	19.46
882.058	39.94
882.23	46.08
882.402	64.51
882.574	37.89
882.746	5.12
882.918	68.61
883.09	76.8
883.262	-15.36
883.434	-31.74
883.606	33.79
883.778	72.7
883.95	66.56
884.122	-15.36
884.293	76.8
884.465	23.55
884.637	5.12
884.809	87.04
884.98	93.18
885.152	91.13
885.324	29.7
885.496	25.6
885.667	39.94
885.839	19.46
886.011	66.56
886.182	19.46
886.354	19.46
886.525	31.74
886.697	78.85
886.869	46.08
887.04	89.09
887.212	62.46
887.383	48.13
887.555	3.07
887.726	58.37
887.897	-7.17
888.069	41.98
888.24	52.22
888.412	-3.07
888.583	9.22
888.754	68.61
888.926	-31.74
889.097	64.51
889.268	9.22
889.44	3.07
889.611	23.55
889.782	-13.31
889.953	-7.17
890.125	93.18
890.296	37.89
890.467	-7.17
890.638	-25.6
890.809	15.36
890.98	-17.41
891.151	50.18
891.323	46.08
891.494	23.55
891.665	41.98
891.836	41.98
892.007	76.8
892.178	44.03
892.349	66.56
892.52	9.22
892.691	27.65
892.862	11.26
893.032	-21.5
893.203	29.7
893.374	19.46
893.545	13.31
893.716	31.74
893.887	1.02
894.057	1.02
894.228	23.55
894.399	-60.42
894.57	70.65
894.74	78.85
894.911	50.18
895.082	58.37
895.253	-17.41
895.423	46.08
895.594	60.42
895.764	-23.55
895.935	-25.6
896.106	5.12
896.276	11.26
896.447	41.98
896.617	44.03
896.788	-31.74
896.958	15.36
897.129	27.65
897.299	-39.94
897.47	41.98
897.64	39.94
897.81	17.41
897.981	-11.26
898.151	13.31
898.322	91.13
898.492	142.33
898.662	37.89
898.832	25.6
899.003	11.26
899.173	33.79
899.343	33.79
899.513	-27.65
