Data from USB4F104151__44__12-41-30-623.txt Node

Date: Fri Mar 14 12:41:30 EDT 2025
User: louis
Spectrometer: USB4F10415
Trigger mode: 4
Integration Time (sec): 3.000000E-2
Scans to average: 1
Electric dark correction enabled: true
Nonlinearity correction enabled: false
Boxcar width: 0
XAxis mode: Wavelengths
Number of Pixels in Spectrum: 3648
>>>>>Begin Spectral Data<<<<<
178.204	-141.14
178.424	-141.14
178.644	-141.14
178.864	-141.14
179.084	-96.08
179.304	-55.12
179.524	24.75
179.744	10.41
179.964	51.37
180.184	-85.84
180.404	16.55
180.624	-57.17
180.844	41.13
181.064	43.18
181.283	-40.79
181.503	0.17
181.723	51.37
181.943	-1.88
182.163	65.71
182.383	18.6
182.602	51.37
182.822	41.13
183.042	24.75
183.262	53.42
183.482	6.31
183.701	73.9
183.921	57.51
184.141	28.84
184.361	16.55
184.58	8.36
184.8	80.04
185.02	2.22
185.239	82.09
185.459	43.18
185.679	22.7
185.898	22.7
186.118	41.13
186.338	-1.88
186.557	14.51
186.777	-32.6
186.997	-18.26
187.216	24.75
187.436	45.23
187.655	-10.07
187.875	45.23
188.095	4.27
188.314	57.51
188.534	77.99
188.753	61.61
188.973	98.47
189.192	71.85
189.412	49.32
189.631	14.51
189.851	-14.17
190.07	12.46
190.29	20.65
190.509	102.57
190.729	12.46
190.948	-3.93
191.168	227.5
191.387	57.51
191.607	12.46
191.826	37.03
192.045	37.03
192.265	12.46
192.484	49.32
192.704	86.19
192.923	43.18
193.142	143.53
193.362	34.99
193.581	49.32
193.8	100.52
194.02	65.71
194.239	30.89
194.458	84.14
194.678	80.04
194.897	-26.45
195.116	28.84
195.335	157.86
195.555	127.14
195.774	53.42
195.993	49.32
196.212	55.47
196.432	34.99
196.651	51.37
196.87	16.55
197.089	151.72
197.308	82.09
197.528	47.27
197.747	12.46
197.966	49.32
198.185	90.28
198.404	106.67
198.623	-16.21
198.842	14.51
199.062	168.1
199.281	166.06
199.5	102.57
199.719	57.51
199.938	112.81
200.157	108.71
200.376	55.47
200.595	92.33
200.814	49.32
201.033	108.71
201.252	37.03
201.471	82.09
201.69	-3.93
201.909	121
202.128	88.23
202.347	80.04
202.566	28.84
202.785	-22.36
203.004	80.04
203.223	102.57
203.442	-12.12
203.661	47.27
203.879	102.57
204.098	102.57
204.317	49.32
204.536	143.53
204.755	102.57
204.974	96.43
205.193	86.19
205.411	90.28
205.63	90.28
205.849	-46.93
206.068	14.51
206.287	57.51
206.505	34.99
206.724	41.13
206.943	6.31
207.162	65.71
207.381	32.94
207.599	20.65
207.818	53.42
208.037	43.18
208.255	-12.12
208.474	-40.79
208.693	155.82
208.911	41.13
209.13	34.99
209.349	102.57
209.567	149.67
209.786	41.13
210.005	63.66
210.223	57.51
210.442	-26.45
210.661	18.6
210.879	94.38
211.098	-5.97
211.316	-79.7
211.535	86.19
211.753	10.41
211.972	59.56
212.191	24.75
212.409	37.03
212.628	100.52
212.846	-44.88
213.065	41.13
213.283	104.62
213.502	63.66
213.72	0.17
213.938	39.08
214.157	0.17
214.375	6.31
214.594	30.89
214.812	75.95
215.031	59.56
215.249	84.14
215.467	18.6
215.686	41.13
215.904	116.9
216.122	51.37
216.341	63.66
216.559	63.66
216.778	73.9
216.996	-44.88
217.214	39.08
217.432	-20.31
217.651	24.75
217.869	71.85
218.087	-48.98
218.306	-12.12
218.524	-18.26
218.742	51.37
218.96	47.27
219.179	37.03
219.397	75.95
219.615	129.19
219.833	53.42
220.051	22.7
220.27	71.85
220.488	110.76
220.706	49.32
220.924	-42.84
221.142	53.42
221.36	98.47
221.578	67.75
221.796	77.99
222.015	-38.74
222.233	16.55
222.451	127.14
222.669	100.52
222.887	184.49
223.105	131.24
223.323	127.14
223.541	75.95
223.759	77.99
223.977	8.36
224.195	86.19
224.413	73.9
224.631	34.99
224.849	75.95
225.067	77.99
225.285	24.75
225.503	28.84
225.721	16.55
225.939	39.08
226.157	28.84
226.375	100.52
226.592	10.41
226.81	-1.88
227.028	82.09
227.246	129.19
227.464	20.65
227.682	207.02
227.9	73.9
228.117	82.09
228.335	73.9
228.553	10.41
228.771	88.23
228.989	39.08
229.206	82.09
229.424	82.09
229.642	12.46
229.86	34.99
230.077	88.23
230.295	32.94
230.513	114.86
230.731	67.75
230.948	80.04
231.166	108.71
231.384	51.37
231.601	28.84
231.819	6.31
232.037	80.04
232.254	16.55
232.472	49.32
232.689	71.85
232.907	41.13
233.125	45.23
233.342	-16.21
233.56	16.55
233.777	45.23
233.995	69.8
234.213	22.7
234.43	39.08
234.648	61.61
234.865	127.14
235.083	121
235.3	0.17
235.518	178.34
235.735	114.86
235.953	39.08
236.17	75.95
236.388	75.95
236.605	-40.79
236.822	57.51
237.04	20.65
237.257	0.17
237.475	30.89
237.692	202.92
237.909	4.27
238.127	110.76
238.344	75.95
238.562	73.9
238.779	-8.02
238.996	12.46
239.214	39.08
239.431	6.31
239.648	4.27
239.865	41.13
240.083	116.9
240.3	73.9
240.517	51.37
240.735	43.18
240.952	77.99
241.169	32.94
241.386	69.8
241.603	45.23
241.821	-18.26
242.038	73.9
242.255	63.66
242.472	-16.21
242.689	92.33
242.907	77.99
243.124	-16.21
243.341	-44.88
243.558	63.66
243.775	-28.5
243.992	-10.07
244.209	55.47
244.426	71.85
244.643	88.23
244.86	-14.17
245.078	57.51
245.295	82.09
245.512	26.79
245.729	61.61
245.946	94.38
246.163	73.9
246.38	67.75
246.597	73.9
246.814	96.43
247.031	14.51
247.248	-1.88
247.464	98.47
247.681	82.09
247.898	-8.02
248.115	-3.93
248.332	10.41
248.549	110.76
248.766	80.04
248.983	51.37
249.2	49.32
249.417	75.95
249.633	28.84
249.85	59.56
250.067	20.65
250.284	104.62
250.501	-16.21
250.717	59.56
250.934	-16.21
251.151	-26.45
251.368	77.99
251.585	34.99
251.801	18.6
252.018	-1.88
252.235	112.81
252.451	4.27
252.668	80.04
252.885	67.75
253.102	32.94
253.318	20.65
253.535	14.51
253.752	-20.31
253.968	30.89
254.185	22.7
254.401	80.04
254.618	22.7
254.835	-10.07
255.051	67.75
255.268	-5.97
255.484	139.43
255.701	22.7
255.917	61.61
256.134	41.13
256.351	71.85
256.567	49.32
256.784	88.23
257	24.75
257.217	49.32
257.433	67.75
257.65	47.27
257.866	43.18
258.082	92.33
258.299	30.89
258.515	116.9
258.732	43.18
258.948	49.32
259.165	92.33
259.381	41.13
259.597	67.75
259.814	82.09
260.03	24.75
260.246	45.23
260.463	16.55
260.679	69.8
260.895	4.27
261.112	125.1
261.328	45.23
261.544	-5.97
261.761	59.56
261.977	-3.93
262.193	22.7
262.409	67.75
262.626	96.43
262.842	28.84
263.058	22.7
263.274	90.28
263.49	16.55
263.707	71.85
263.923	14.51
264.139	6.31
264.355	65.71
264.571	123.05
264.787	51.37
265.004	12.46
265.22	45.23
265.436	45.23
265.652	30.89
265.868	43.18
266.084	43.18
266.3	71.85
266.516	84.14
266.732	137.38
266.948	32.94
267.164	39.08
267.38	88.23
267.596	67.75
267.812	98.47
268.028	32.94
268.244	-8.02
268.46	41.13
268.676	77.99
268.892	63.66
269.108	43.18
269.324	8.36
269.54	26.79
269.756	57.51
269.972	-26.45
270.188	131.24
270.403	49.32
270.619	39.08
270.835	63.66
271.051	28.84
271.267	84.14
271.483	67.75
271.698	30.89
271.914	63.66
272.13	-24.4
272.346	28.84
272.562	28.84
272.777	-12.12
272.993	75.95
273.209	34.99
273.425	37.03
273.64	-1.88
273.856	45.23
274.072	80.04
274.287	88.23
274.503	77.99
274.719	125.1
274.934	22.7
275.15	-67.41
275.366	-28.5
275.581	14.51
275.797	61.61
276.012	43.18
276.228	34.99
276.444	61.61
276.659	59.56
276.875	32.94
277.09	114.86
277.306	-44.88
277.521	69.8
277.737	47.27
277.952	49.32
278.168	-8.02
278.383	61.61
278.599	43.18
278.814	90.28
279.03	47.27
279.245	71.85
279.461	-3.93
279.676	88.23
279.892	30.89
280.107	26.79
280.322	112.81
280.538	28.84
280.753	43.18
280.969	104.62
281.184	45.23
281.399	84.14
281.615	0.17
281.83	26.79
282.045	18.6
282.26	-5.97
282.476	96.43
282.691	34.99
282.906	123.05
283.122	53.42
283.337	-30.55
283.552	26.79
283.767	139.43
283.983	59.56
284.198	-26.45
284.413	55.47
284.628	49.32
284.843	-18.26
285.058	98.47
285.274	84.14
285.489	22.7
285.704	16.55
285.919	59.56
286.134	0.17
286.349	73.9
286.564	28.84
286.779	-3.93
286.995	88.23
287.21	-24.4
287.425	24.75
287.64	-22.36
287.855	0.17
288.07	22.7
288.285	55.47
288.5	71.85
288.715	90.28
288.93	73.9
289.145	32.94
289.36	69.8
289.575	34.99
289.79	61.61
290.004	84.14
290.219	6.31
290.434	2.22
290.649	0.17
290.864	94.38
291.079	61.61
291.294	39.08
291.509	24.75
291.724	88.23
291.938	2.22
292.153	41.13
292.368	49.32
292.583	26.79
292.798	92.33
293.012	80.04
293.227	26.79
293.442	-10.07
293.657	41.13
293.871	61.61
294.086	100.52
294.301	69.8
294.516	104.62
294.73	116.9
294.945	-53.08
295.16	-12.12
295.374	30.89
295.589	8.36
295.804	-26.45
296.018	59.56
296.233	88.23
296.447	59.56
296.662	100.52
296.877	141.48
297.091	-40.79
297.306	92.33
297.52	92.33
297.735	135.34
297.949	12.46
298.164	139.43
298.378	-24.4
298.593	8.36
298.807	45.23
299.022	-10.07
299.236	116.9
299.451	90.28
299.665	26.79
299.88	28.84
300.094	106.67
300.309	39.08
300.523	73.9
300.737	94.38
300.952	92.33
301.166	47.27
301.381	77.99
301.595	65.71
301.809	55.47
302.024	86.19
302.238	-16.21
302.452	4.27
302.667	37.03
302.881	2.22
303.095	112.81
303.309	22.7
303.524	63.66
303.738	65.71
303.952	2.22
304.166	41.13
304.381	24.75
304.595	92.33
304.809	75.95
305.023	172.2
305.237	67.75
305.452	94.38
305.666	106.67
305.88	84.14
306.094	28.84
306.308	88.23
306.522	63.66
306.736	86.19
306.95	51.37
307.164	-8.02
307.379	45.23
307.593	80.04
307.807	100.52
308.021	139.43
308.235	102.57
308.449	55.47
308.663	39.08
308.877	159.91
309.091	82.09
309.305	65.71
309.519	16.55
309.733	75.95
309.947	10.41
310.161	82.09
310.374	24.75
310.588	73.9
310.802	-12.12
311.016	30.89
311.23	49.32
311.444	-20.31
311.658	108.71
311.872	73.9
312.085	49.32
312.299	69.8
312.513	84.14
312.727	77.99
312.941	-30.55
313.154	37.03
313.368	63.66
313.582	65.71
313.796	-16.21
314.009	106.67
314.223	149.67
314.437	41.13
314.651	-26.45
314.864	57.51
315.078	14.51
315.292	43.18
315.505	24.75
315.719	28.84
315.933	39.08
316.146	0.17
316.36	118.95
316.573	112.81
316.787	59.56
317.001	63.66
317.214	43.18
317.428	49.32
317.641	28.84
317.855	18.6
318.068	59.56
318.282	90.28
318.495	90.28
318.709	37.03
318.922	37.03
319.136	16.55
319.349	116.9
319.563	0.17
319.776	159.91
319.99	14.51
320.203	24.75
320.417	49.32
320.63	73.9
320.843	112.81
321.057	39.08
321.27	14.51
321.483	84.14
321.697	57.51
321.91	94.38
322.124	10.41
322.337	67.75
322.55	0.17
322.763	28.84
322.977	30.89
323.19	28.84
323.403	80.04
323.617	55.47
323.83	75.95
324.043	-12.12
324.256	67.75
324.469	-20.31
324.683	28.84
324.896	20.65
325.109	53.42
325.322	-16.21
325.535	77.99
325.748	63.66
325.962	22.7
326.175	69.8
326.388	69.8
326.601	121
326.814	26.79
327.027	73.9
327.24	139.43
327.453	67.75
327.666	123.05
327.879	32.94
328.092	47.27
328.305	100.52
328.518	90.28
328.731	84.14
328.944	45.23
329.157	59.56
329.37	18.6
329.583	104.62
329.796	121
330.009	24.75
330.222	137.38
330.435	94.38
330.648	114.86
330.861	77.99
331.073	59.56
331.286	123.05
331.499	92.33
331.712	8.36
331.925	67.75
332.138	82.09
332.35	98.47
332.563	8.36
332.776	153.77
332.989	67.75
333.202	26.79
333.414	57.51
333.627	73.9
333.84	59.56
334.053	75.95
334.265	6.31
334.478	16.55
334.691	80.04
334.903	94.38
335.116	16.55
335.329	16.55
335.541	57.51
335.754	30.89
335.966	-3.93
336.179	133.29
336.392	10.41
336.604	28.84
336.817	45.23
337.029	63.66
337.242	16.55
337.454	30.89
337.667	6.31
337.88	14.51
338.092	16.55
338.305	41.13
338.517	10.41
338.729	41.13
338.942	41.13
339.154	41.13
339.367	34.99
339.579	18.6
339.792	69.8
340.004	59.56
340.217	69.8
340.429	71.85
340.641	61.61
340.854	-14.17
341.066	98.47
341.278	59.56
341.491	73.9
341.703	-8.02
341.915	69.8
342.128	34.99
342.34	32.94
342.552	14.51
342.764	123.05
342.977	67.75
343.189	12.46
343.401	77.99
343.613	2.22
343.826	32.94
344.038	39.08
344.25	106.67
344.462	65.71
344.674	57.51
344.886	49.32
345.099	96.43
345.311	100.52
345.523	53.42
345.735	-40.79
345.947	28.84
346.159	22.7
346.371	92.33
346.583	34.99
346.795	90.28
347.007	159.91
347.219	32.94
347.431	28.84
347.643	22.7
347.855	18.6
348.067	65.71
348.279	34.99
348.491	84.14
348.703	53.42
348.915	47.27
349.127	14.51
349.339	32.94
349.551	47.27
349.763	0.17
349.975	88.23
350.187	82.09
350.399	80.04
350.61	96.43
350.822	121
351.034	14.51
351.246	77.99
351.458	14.51
351.669	73.9
351.881	65.71
352.093	92.33
352.305	125.1
352.517	-30.55
352.728	149.67
352.94	98.47
353.152	30.89
353.363	20.65
353.575	94.38
353.787	98.47
353.999	100.52
354.21	118.95
354.422	71.85
354.633	53.42
354.845	30.89
355.057	26.79
355.268	43.18
355.48	51.37
355.692	41.13
355.903	-3.93
356.115	34.99
356.326	-8.02
356.538	86.19
356.749	63.66
356.961	73.9
357.172	12.46
357.384	37.03
357.595	159.91
357.807	18.6
358.018	16.55
358.23	-10.07
358.441	110.76
358.653	75.95
358.864	16.55
359.075	26.79
359.287	43.18
359.498	51.37
359.709	65.71
359.921	102.57
360.132	127.14
360.344	57.51
360.555	41.13
360.766	49.32
360.977	92.33
361.189	61.61
361.4	47.27
361.611	127.14
361.823	43.18
362.034	77.99
362.245	55.47
362.456	32.94
362.667	43.18
362.879	55.47
363.09	71.85
363.301	22.7
363.512	14.51
363.723	-1.88
363.935	8.36
364.146	71.85
364.357	84.14
364.568	8.36
364.779	12.46
364.99	168.1
365.201	2.22
365.412	102.57
365.623	-10.07
365.834	-1.88
366.045	51.37
366.256	14.51
366.467	104.62
366.678	-3.93
366.889	26.79
367.1	41.13
367.311	47.27
367.522	16.55
367.733	55.47
367.944	88.23
368.155	71.85
368.366	82.09
368.577	39.08
368.788	141.48
368.999	6.31
369.209	49.32
369.42	77.99
369.631	164.01
369.842	22.7
370.053	14.51
370.264	61.61
370.474	73.9
370.685	69.8
370.896	82.09
371.107	41.13
371.317	77.99
371.528	57.51
371.739	55.47
371.95	26.79
372.16	141.48
372.371	24.75
372.582	16.55
372.792	82.09
373.003	32.94
373.214	63.66
373.424	108.71
373.635	12.46
373.846	20.65
374.056	-24.4
374.267	67.75
374.477	10.41
374.688	65.71
374.898	57.51
375.109	112.81
375.319	96.43
375.53	112.81
375.74	75.95
375.951	-30.55
376.161	53.42
376.372	84.14
376.582	63.66
376.793	63.66
377.003	18.6
377.214	2.22
377.424	2.22
377.635	57.51
377.845	43.18
378.055	114.86
378.266	41.13
378.476	32.94
378.686	24.75
378.897	123.05
379.107	69.8
379.317	65.71
379.528	71.85
379.738	80.04
379.948	147.62
380.158	69.8
380.369	53.42
380.579	41.13
380.789	75.95
380.999	18.6
381.21	98.47
381.42	178.34
381.63	41.13
381.84	16.55
382.05	90.28
382.261	80.04
382.471	114.86
382.681	28.84
382.891	84.14
383.101	98.47
383.311	18.6
383.521	51.37
383.731	53.42
383.941	71.85
384.151	55.47
384.361	114.86
384.571	100.52
384.781	69.8
384.991	106.67
385.201	32.94
385.411	32.94
385.621	75.95
385.831	94.38
386.041	24.75
386.251	-3.93
386.461	106.67
386.671	65.71
386.881	53.42
387.091	49.32
387.301	12.46
387.511	-8.02
387.72	131.24
387.93	94.38
388.14	-20.31
388.35	88.23
388.56	143.53
388.769	102.57
388.979	63.66
389.189	34.99
389.399	108.71
389.609	143.53
389.818	92.33
390.028	82.09
390.238	71.85
390.447	2.22
390.657	116.9
390.867	94.38
391.076	100.52
391.286	100.52
391.496	-1.88
391.705	57.51
391.915	41.13
392.125	41.13
392.334	53.42
392.544	161.96
392.753	71.85
392.963	43.18
393.172	61.61
393.382	98.47
393.591	143.53
393.801	67.75
394.01	149.67
394.22	121
394.429	137.38
394.639	88.23
394.848	73.9
395.058	104.62
395.267	59.56
395.477	88.23
395.686	102.57
395.895	104.62
396.105	196.78
396.314	82.09
396.524	127.14
396.733	90.28
396.942	215.21
397.152	139.43
397.361	157.86
397.57	67.75
397.78	86.19
397.989	104.62
398.198	88.23
398.407	100.52
398.617	88.23
398.826	149.67
399.035	80.04
399.244	114.86
399.453	135.34
399.663	155.82
399.872	168.1
400.081	41.13
400.29	155.82
400.499	121
400.708	135.34
400.917	104.62
401.127	92.33
401.336	104.62
401.545	198.82
401.754	86.19
401.963	145.58
402.172	143.53
402.381	88.23
402.59	155.82
402.799	159.91
403.008	149.67
403.217	182.44
403.426	147.62
403.635	121
403.844	141.48
404.053	141.48
404.262	123.05
404.471	172.2
404.68	135.34
404.888	188.58
405.097	192.68
405.306	159.91
405.515	245.93
405.724	172.2
405.933	250.02
406.142	192.68
406.35	196.78
406.559	135.34
406.768	174.25
406.977	229.54
407.185	243.88
407.394	233.64
407.603	155.82
407.812	196.78
408.02	227.5
408.229	219.3
408.438	237.74
408.646	264.36
408.855	219.3
409.064	254.12
409.272	215.21
409.481	268.45
409.69	264.36
409.898	264.36
410.107	260.26
410.315	262.31
410.524	272.55
410.733	368.81
410.941	254.12
411.15	356.52
411.358	448.68
411.567	393.38
411.775	424.1
411.984	387.24
412.192	442.53
412.401	374.95
412.609	522.4
412.818	446.63
413.026	499.88
413.234	454.82
413.443	471.2
413.651	557.22
413.86	538.79
414.068	546.98
414.276	626.85
414.485	592.03
414.693	694.43
414.901	651.42
415.11	678.05
415.318	542.88
415.526	751.78
415.734	774.3
415.943	741.54
416.151	739.49
416.359	802.97
416.567	862.37
416.776	858.27
416.984	839.84
417.192	942.24
417.4	962.72
417.608	946.33
417.817	968.86
418.025	958.62
418.233	1153.18
418.441	1028.25
418.649	1187.99
418.857	1222.81
419.065	1274.01
419.273	1210.52
419.481	1261.72
419.689	1349.78
419.897	1392.79
420.105	1425.56
420.313	1464.47
420.521	1542.29
420.729	1532.05
420.937	1591.44
421.145	1652.88
421.353	1726.61
421.561	1839.25
421.769	1786
421.977	1912.97
422.185	1833.1
422.393	1951.88
422.601	2236.55
422.809	2148.49
423.017	2111.63
423.224	2246.79
423.432	2297.99
423.64	2318.47
423.848	2486.4
424.056	2467.97
424.263	2650.24
424.471	2750.59
424.679	2699.39
424.887	2906.24
425.094	2914.43
425.302	3074.17
425.51	3141.75
425.718	3262.58
425.925	3186.81
426.133	3258.49
426.341	3610.74
426.548	3735.67
426.756	3602.55
426.964	3731.57
427.171	3946.61
427.379	4063.34
427.586	4046.96
427.794	4251.75
428.001	4399.21
428.209	4614.24
428.417	4474.98
428.624	4743.27
428.832	4765.79
429.039	4667.49
429.247	4962.4
429.454	5259.35
429.662	5591.13
429.869	5195.87
430.076	5589.08
430.284	5451.86
430.491	5890.13
430.699	6101.07
430.906	6070.35
431.114	6127.69
431.321	6467.66
431.528	6582.34
431.736	6768.71
431.943	7241.79
432.15	7010.37
432.358	7088.19
432.565	7401.53
432.772	7364.67
432.979	7778.36
433.187	7839.8
433.394	8056.88
433.601	8599.59
433.808	8747.05
434.016	8673.32
434.223	9054.24
434.43	9363.48
434.637	9152.54
434.844	9674.78
435.052	9994.26
435.259	9930.77
435.466	9984.02
435.673	9986.07
435.88	10627.08
436.087	11155.46
436.294	11216.9
436.501	11112.45
436.708	11198.46
436.915	11231.23
437.122	12021.75
437.329	12118
437.537	12443.63
437.743	12748.78
437.95	12537.84
438.157	13148.13
438.364	13397.98
438.571	13359.07
438.778	13715.42
438.985	14845.9
439.192	14202.83
439.399	14800.84
439.606	14516.17
439.813	15105.99
440.02	16068.53
440.227	15941.56
440.433	15740.86
440.64	16113.59
440.847	16250.8
441.054	16369.58
441.261	17510.3
441.467	17414.05
441.674	17553.31
441.881	18335.63
442.088	18458.51
442.294	18141.08
442.501	18544.53
442.708	19027.85
442.914	19660.67
443.121	20594.54
443.328	19867.52
443.534	21440.36
443.741	21104.49
443.948	20586.35
444.154	22118.23
444.361	22093.66
444.568	22280.02
444.774	22126.43
444.981	22404.95
445.187	23156.55
445.394	24143.67
445.6	24010.56
445.807	25820.96
446.013	24721.2
446.22	25110.32
446.426	26058.53
446.633	26578.71
446.839	27698.95
447.046	26609.43
447.252	27827.97
447.459	28047.1
447.665	27643.65
447.871	28925.68
448.078	30176.99
448.284	28522.23
448.491	29341.42
448.697	30652.12
448.903	31127.25
449.11	31243.98
449.316	31063.76
449.522	31358.67
449.728	32024.26
449.935	32657.08
450.141	33046.19
450.347	32919.22
450.553	31727.3
450.76	32620.22
450.966	33681.06
451.172	33173.17
451.378	33836.71
451.584	33253.04
451.791	34115.23
451.997	33982.12
452.203	34965.14
452.409	34887.32
452.615	34277.02
452.821	33496.75
453.027	33265.33
453.233	34743.96
453.44	33234.61
453.646	33486.51
453.852	33535.66
454.058	34627.23
454.264	33142.45
454.47	34064.03
454.676	33025.71
454.882	34395.81
455.088	31497.93
455.294	31925.96
455.5	31946.44
455.705	32184
455.911	31098.58
456.117	30873.3
456.323	30512.86
456.529	28956.4
456.735	30019.3
456.941	29101.81
457.147	28792.56
457.352	27979.52
457.558	27731.72
457.764	27772.67
457.97	27170.57
458.176	26730.26
458.381	26576.66
458.587	25268.01
458.793	25341.74
458.999	23797.57
459.204	25382.7
459.41	24749.87
459.616	23349.06
459.821	23191.37
460.027	23091.02
460.233	22687.57
460.438	21694.3
460.644	21682.02
460.85	20727.66
461.055	20520.82
461.261	20553.59
461.466	19077
461.672	18108.31
461.878	19840.89
462.083	18306.96
462.289	17915.8
462.494	17805.21
462.7	16930.73
462.905	16676.78
463.111	17063.85
463.316	17459.1
463.522	16871.34
463.727	17069.99
463.932	16875.43
464.138	16668.59
464.343	16709.55
464.549	16078.77
464.754	16891.82
464.959	16572.33
465.165	16457.65
465.37	15919.03
465.575	15632.32
465.781	16089.01
465.986	16007.09
466.191	15529.92
466.397	15351.74
466.602	14520.27
466.807	15122.37
467.012	15048.65
467.218	14745.55
467.423	14915.53
467.628	14768.07
467.833	15339.46
468.038	14796.74
468.244	14524.37
468.449	15056.84
468.654	14573.52
468.859	14434.25
469.064	14270.42
469.269	13735.9
469.474	14063.57
469.679	14204.88
469.885	13879.25
470.09	14272.46
470.295	13995.99
470.5	13694.94
470.705	13699.03
470.91	13262.82
471.115	13295.58
471.32	13637.59
471.525	13301.73
471.73	13207.52
471.935	13139.94
472.139	12617.71
472.344	12789.74
472.549	12468.2
472.754	12566.51
472.959	12212.21
473.164	11978.74
473.369	11687.93
473.574	12187.63
473.778	12449.77
473.983	12077.04
474.188	11956.21
474.393	11239.42
474.598	11462.65
474.802	11223.04
475.007	11220.99
475.212	11413.5
475.417	10719.24
475.621	11094.02
475.826	10792.97
476.031	10731.53
476.235	10541.07
476.44	10739.72
476.645	10350.6
476.849	10274.83
477.054	10371.08
477.259	10094.61
477.463	10184.72
477.668	9846.8
477.872	10016.79
478.077	9687.06
478.282	9576.47
478.486	9431.07
478.691	9594.9
478.895	9478.17
479.1	9355.29
479.304	9291.8
479.509	9203.74
479.713	9326.62
479.918	9025.57
480.122	9089.06
480.326	9209.89
480.531	9078.82
480.735	8904.74
480.94	8912.93
481.144	9211.93
481.348	8800.29
481.553	8845.35
481.757	8634.41
481.961	8871.97
482.166	8826.92
482.37	8892.45
482.574	8697.89
482.778	8845.35
482.983	8859.68
483.187	8808.48
483.391	8927.27
483.595	8654.89
483.8	8636.45
484.004	8904.74
484.208	8802.34
484.412	8720.42
484.616	8886.31
484.821	8818.72
485.025	8575.02
485.229	8812.58
485.433	8767.52
485.637	8810.53
485.841	8595.5
486.045	8732.71
486.249	8708.13
486.453	8818.72
486.657	8796.2
486.861	8730.66
487.065	8538.15
487.269	8691.75
487.473	8491.05
487.677	8665.13
487.881	8912.93
488.085	8861.73
488.289	8732.71
488.493	8638.5
488.697	8919.07
488.901	8687.65
489.105	8990.75
489.309	8773.67
489.512	8779.81
489.716	8820.77
489.92	8816.68
490.124	8792.1
490.328	9062.43
490.531	8800.29
490.735	9019.43
490.939	8962.08
491.143	9031.71
491.346	9027.62
491.55	9134.11
491.754	9222.17
491.958	9158.69
492.161	9187.36
492.365	9195.55
492.569	9111.58
492.772	9152.54
492.976	9287.71
493.18	9232.41
493.383	9422.87
493.587	9383.96
493.79	9682.97
493.994	9412.64
494.197	9537.56
494.401	9523.23
494.605	9660.44
494.808	9979.92
495.012	9932.82
495.215	10016.79
495.419	10221.58
495.622	10047.51
495.825	10092.56
496.029	10278.93
496.232	10385.42
496.436	10315.79
496.639	10317.84
496.843	10373.13
497.046	10754.05
497.249	10635.27
497.453	10938.37
497.656	10915.84
497.859	11022.34
498.063	10821.64
498.266	11438.08
498.469	11444.22
498.673	11264
498.876	11438.08
499.079	11677.69
499.282	11798.52
499.485	11898.87
499.689	11911.16
499.892	12126.19
500.095	12189.68
500.298	12589.03
500.501	12527.6
500.705	12687.34
500.908	13033.44
501.111	12961.76
501.314	12890.09
501.517	13184.99
501.72	13400.03
501.923	13348.83
502.126	13328.35
502.329	13760.47
502.532	13883.35
502.735	13918.17
502.938	14196.69
503.141	14268.37
503.344	14538.7
503.547	14475.21
503.75	14882.76
503.953	14686.15
504.156	15220.67
504.359	15216.58
504.562	15146.95
504.765	15443.9
504.968	15663.04
505.17	15783.87
505.373	15857.59
505.576	16062.39
505.779	16482.22
505.982	16445.36
506.185	16744.36
506.387	16662.44
506.59	17008.55
506.793	17242.02
506.996	17110.95
507.198	17721.24
507.401	17340.32
507.604	17844.12
507.807	18050.97
508.009	18216.85
508.212	18214.8
508.415	18472.85
508.617	18757.52
508.82	18917.26
509.022	18757.52
509.225	19433.35
509.428	19234.69
509.63	19638.14
509.833	19429.25
510.035	20047.74
510.238	19949.43
510.44	19922.81
510.643	20213.62
510.845	20856.68
511.048	20647.79
511.25	20891.5
511.453	21069.67
511.655	22042.46
511.858	21352.29
512.06	21454.69
512.262	21938.01
512.465	22179.67
512.667	22601.55
512.87	22568.79
513.072	22396.76
513.274	23185.22
513.477	23072.59
513.679	23201.61
513.881	23490.37
514.084	23566.15
514.286	23809.86
514.488	23447.36
514.69	24434.49
514.893	24469.3
515.095	24395.57
515.297	25089.84
515.499	24811.31
515.701	25433.89
515.904	25579.3
516.106	25419.56
516.308	26009.37
516.51	25952.03
516.712	25925.41
516.914	26185.5
517.116	26795.79
517.318	26814.23
517.52	26904.34
517.722	27051.79
517.925	27596.55
518.127	27657.99
518.329	27787.01
518.531	27549.45
518.733	28231.42
518.935	28430.07
519.136	28241.66
519.338	29101.81
519.54	29112.05
519.742	28854
519.944	29339.37
520.146	29855.46
520.348	29974.24
520.55	29998.82
520.752	30228.19
520.954	30379.74
521.155	30211.81
521.357	30537.43
521.559	30770.9
521.761	31237.84
521.963	31260.37
522.164	31213.26
522.366	31635.14
522.568	31571.66
522.77	31907.52
522.971	32386.75
523.173	31921.86
523.375	32028.35
523.576	32216.77
523.778	32407.23
523.98	33060.53
524.181	32831.16
524.383	32767.67
524.584	33242.8
524.786	33058.48
524.988	33121.97
525.189	33603.24
525.391	33775.27
525.592	33904.29
525.794	34107.04
525.995	33793.7
526.197	34016.93
526.398	33980.07
526.6	34191.01
526.801	34756.25
527.003	34610.84
527.204	34768.54
527.406	34975.38
527.607	35102.36
527.808	34901.65
528.01	34776.73
528.211	34883.22
528.412	35636.87
528.614	35110.55
528.815	35528.33
529.016	35837.58
529.218	35227.28
529.419	35456.65
529.62	35307.15
529.822	35620.49
530.023	35690.12
530.224	35630.73
530.425	35931.78
530.626	35495.57
530.828	35485.33
531.029	36122.24
531.23	35905.16
531.431	35813
531.632	35931.78
531.833	35903.11
532.035	35841.67
532.236	35802.76
532.437	36130.44
532.638	36069
532.839	35788.42
533.04	36200.07
533.241	35720.84
533.442	36443.77
533.643	36036.23
533.844	36030.08
534.045	36296.32
534.246	35618.44
534.447	36146.82
534.648	36292.22
534.849	36329.09
535.05	35972.74
535.251	35970.69
535.451	36185.73
535.652	36073.09
535.853	35929.73
536.054	36146.82
536.255	36177.54
536.456	36230.79
536.657	36585.08
536.857	36204.16
537.058	35813
537.259	36118.15
537.46	36310.66
537.66	35888.78
537.861	36185.73
538.062	36263.55
538.263	36243.07
538.463	35880.58
538.664	35815.05
538.865	36087.43
539.065	36236.93
539.266	36081.28
539.466	36019.85
539.667	35829.38
539.868	36163.2
540.068	35708.55
540.269	35856.01
540.469	36073.09
540.67	35925.64
540.87	35929.73
541.071	35747.47
541.271	36179.59
541.472	36019.85
541.672	35888.78
541.873	35440.27
542.073	35640.97
542.274	36306.56
542.474	35692.17
542.675	35442.32
542.875	36005.51
543.075	35718.79
543.276	35331.73
543.476	36169.35
543.676	35630.73
543.877	35679.88
544.077	35468.94
544.277	35708.55
544.478	35847.82
544.678	35550.86
544.878	35655.31
545.078	35767.94
545.279	35462.8
545.479	35550.86
545.679	35640.97
545.879	35528.33
546.079	35714.7
546.28	35544.72
546.48	35186.32
546.68	35427.98
546.88	35964.55
547.08	35171.99
547.28	35339.92
547.48	35288.72
547.68	35493.52
547.88	35030.68
548.081	35444.37
548.281	35352.21
548.481	35278.48
548.681	35407.5
548.881	35069.59
549.081	35317.39
549.28	35280.53
549.48	35782.28
549.68	35217.04
549.88	35532.43
550.08	35028.63
550.28	35073.68
550.48	35329.68
550.68	35665.55
550.88	35028.63
551.08	35315.34
551.279	35059.35
551.479	34938.52
551.679	35149.46
551.879	35169.94
552.079	35315.34
552.278	34959
552.478	35012.24
552.678	35092.12
552.878	35325.58
553.077	34944.66
553.277	34561.69
553.477	35329.68
553.676	35014.29
553.876	34868.89
554.076	34911.89
554.275	34465.44
554.475	34573.98
554.674	34447.01
554.874	34948.76
555.074	34651.8
555.273	34805.4
555.473	34694.81
555.672	34588.31
555.872	34447.01
556.071	34496.16
556.271	34901.65
556.47	34182.82
556.67	34213.54
556.869	34369.18
557.068	34631.32
557.268	34475.68
557.467	34490.01
557.667	34406.05
557.866	34459.29
558.065	34567.84
558.265	34291.36
558.464	34180.77
558.663	34692.76
558.863	33961.64
559.062	34418.33
559.261	33752.74
559.461	34113.19
559.66	33900.2
559.859	34135.71
560.058	33693.35
560.258	33924.77
560.457	33846.95
560.656	33857.19
560.855	33713.83
561.054	34025.12
561.253	33380.01
561.453	33703.59
561.652	34074.27
561.851	33879.72
562.05	33453.74
562.249	33445.55
562.448	33992.36
562.647	33482.41
562.846	33611.43
563.045	33193.65
563.244	33402.54
563.443	33554.09
563.642	32716.47
563.841	33339.05
564.04	32941.75
564.239	33357.49
564.438	33152.69
564.637	33134.26
564.836	33347.25
565.035	32720.57
565.234	32784.05
565.432	32845.49
565.631	32775.86
565.83	33042.1
566.029	32726.71
566.228	32302.78
566.427	32460.48
566.625	32356.03
566.824	32399.04
567.023	32652.98
567.222	31803.08
567.42	32374.46
567.619	32337.6
567.818	32399.04
568.016	32513.72
568.215	32530.11
568.414	32147.14
568.612	32554.68
568.811	32071.36
569.01	32308.93
569.208	31526.6
569.407	31864.52
569.605	31444.68
569.804	31940.29
570.002	31547.08
570.201	31966.91
570.4	31160.02
570.598	31321.8
570.797	31303.37
570.995	31573.7
571.193	30887.64
571.392	31497.93
571.59	31157.97
571.789	31260.37
571.987	31344.33
572.186	31121.1
572.384	31004.37
572.582	31174.35
572.781	31278.8
572.979	30899.92
573.177	30983.89
573.376	31207.12
573.574	30385.88
573.772	30824.15
573.971	30631.64
574.169	30381.79
574.367	30310.11
574.565	30840.53
574.763	30535.38
574.962	30121.7
575.16	30101.22
575.358	30809.81
575.556	29644.52
575.754	30121.7
575.952	29933.28
576.151	30035.68
576.349	29894.37
576.547	29765.35
576.745	29599.46
576.943	29728.49
577.141	29480.68
577.339	29521.64
577.537	29615.85
577.735	29490.92
577.933	29286.12
578.131	29679.33
578.329	29548.26
578.527	29214.44
578.725	29277.93
578.923	29216.49
579.121	29136.62
579.319	28667.64
579.516	28974.83
579.714	29140.72
579.912	29105.9
580.11	28518.14
580.308	28677.88
580.506	28550.9
580.704	28311.29
580.901	28397.31
581.099	28729.08
581.297	28356.35
581.495	28264.19
581.692	28417.79
581.89	28126.97
582.088	28319.48
582.285	28069.63
582.483	28137.21
582.681	27963.14
582.878	27668.23
583.076	27600.65
583.274	27803.39
583.471	27662.08
583.669	27836.16
583.866	27397.9
584.064	27868.93
584.262	26973.97
584.459	27506.44
584.657	27002.64
584.854	27457.29
585.052	26994.45
585.249	27211.53
585.447	27219.72
585.644	26959.63
585.841	26853.14
586.039	27090.7
586.236	26715.92
586.434	26842.9
586.631	26545.94
586.828	26767.12
587.026	26578.71
587.223	26658.58
587.42	26421.02
587.618	26412.82
587.815	25904.93
588.012	25896.74
588.21	26009.37
588.407	26330.9
588.604	25675.55
588.801	25939.74
588.999	25808.67
589.196	25653.03
589.393	25628.45
589.59	25689.89
589.787	25597.73
589.984	25607.97
590.182	25259.82
590.379	25462.57
590.576	25497.38
590.773	25167.66
590.97	25294.63
591.167	25239.34
591.364	24915.76
591.561	25220.91
591.758	25014.06
591.955	24608.56
592.152	24731.44
592.349	24649.52
592.546	24670
592.743	24565.56
592.94	24317.75
593.137	24598.32
593.334	24373.05
593.531	24452.92
593.727	24317.75
593.924	24473.4
594.121	23824.19
594.318	24231.74
594.515	23750.46
594.712	24176.44
594.908	23942.97
595.105	24055.61
595.302	23689.03
595.499	23707.46
595.696	23734.08
595.892	23387.97
596.089	23566.15
596.286	23420.74
596.482	23387.97
596.679	23369.54
596.876	23469.89
597.072	23156.55
597.269	23297.86
597.466	22749.01
597.662	22878.03
597.859	22835.02
598.055	23031.63
598.252	22699.86
598.448	22695.76
598.645	22699.86
598.841	22482.77
599.038	22628.18
599.234	22624.08
599.431	22331.22
599.627	22312.79
599.824	22404.95
600.02	22075.23
600.217	22245.21
600.413	22044.51
600.609	21927.77
600.806	22013.79
601.002	21847.9
601.198	21792.61
601.395	21655.39
601.591	22015.83
601.787	21761.89
601.984	21528.42
602.18	21720.93
602.376	21460.84
602.572	21436.26
602.769	21462.88
602.965	21256.04
603.161	21479.27
603.357	21002.09
603.553	20989.8
603.75	20979.56
603.946	20926.32
604.142	20856.68
604.338	20688.75
604.534	20647.79
604.73	20694.89
604.926	20627.31
605.122	20774.77
605.318	20590.45
605.514	20252.53
605.71	20295.54
605.906	20307.83
606.102	20293.49
606.298	20143.99
606.494	20330.36
606.69	20332.4
606.886	20139.9
607.082	19953.53
607.278	20168.57
607.474	20012.92
607.67	20283.25
607.866	19683.2
608.062	19769.21
608.257	19963.77
608.453	19961.72
608.649	19826.56
608.845	19869.56
609.041	19642.24
609.236	19718.01
609.432	19580.8
609.628	19605.38
609.824	19316.61
610.019	19371.91
610.215	19416.96
610.411	19445.63
610.606	19203.97
610.802	19429.25
610.998	19500.93
611.193	19488.64
611.389	19218.31
611.584	19068.81
611.78	18960.27
611.976	19036.04
612.171	19238.79
612.367	19199.88
612.562	19236.74
612.758	18778
612.953	18591.63
613.149	19007.37
613.344	18534.29
613.539	19050.38
613.735	18939.79
613.93	18993.03
614.126	18655.12
614.321	19089.29
614.517	18648.97
614.712	18689.93
614.907	18636.69
615.103	18763.66
615.298	18589.58
615.493	18775.95
615.688	18356.11
615.884	18616.21
616.079	18276.24
616.274	18507.66
616.47	18075.54
616.665	18167.7
616.86	18124.69
617.055	18247.57
617.25	18186.13
617.445	18417.55
617.641	17950.62
617.836	18118.55
618.031	17745.82
618.226	18253.72
618.421	17803.16
618.616	17975.19
618.811	17786.78
619.006	17799.07
619.201	17620.89
619.396	17547.17
619.591	17338.27
619.786	17586.08
619.981	17246.12
620.176	17541.02
620.371	17268.64
620.566	17301.41
620.761	17391.52
620.956	17280.93
621.151	16926.63
621.346	17078.18
621.541	16760.75
621.735	16969.64
621.93	16463.79
622.125	16510.89
622.32	16199.6
622.515	16742.32
622.709	16107.44
622.904	16168.88
623.099	16101.3
623.294	16220.08
623.488	16043.96
623.683	16101.3
623.878	15777.72
624.072	15734.71
624.267	15757.24
624.462	15368.13
624.656	15806.39
624.851	15411.14
625.046	15304.64
625.24	15067.08
625.435	14985.16
625.629	15091.65
625.824	15091.65
626.018	15093.7
626.213	14643.15
626.407	14854.09
626.602	14712.78
626.796	14727.11
626.991	14702.54
627.185	14579.66
627.38	14450.64
627.574	14430.16
627.768	14163.92
627.963	14002.13
628.157	14055.38
628.352	14182.35
628.546	14034.9
628.74	13971.41
628.935	13768.66
629.129	13653.98
629.323	13608.92
629.517	13645.79
629.712	13649.88
629.906	13402.08
630.1	13164.51
630.294	13258.72
630.489	13189.09
630.683	13357.02
630.877	13121.51
631.071	13209.57
631.265	13209.57
631.459	12746.73
631.653	12842.98
631.848	12828.65
632.042	12797.93
632.236	12820.46
632.43	12578.79
632.624	12656.62
632.818	12517.36
633.012	12451.82
633.206	12292.08
633.4	12232.69
633.594	12249.07
633.788	12306.41
633.982	12126.19
634.176	12148.72
634.369	12134.39
634.563	11786.23
634.757	11880.44
634.951	11882.49
635.145	11993.08
635.339	11923.44
635.533	11704.31
635.726	11724.79
635.92	11483.13
636.114	11370.49
636.308	11368.45
636.501	11329.53
636.695	11474.94
636.889	11026.43
637.083	11202.56
637.276	11196.42
637.47	10995.71
637.664	11001.86
637.857	10813.45
638.051	11075.59
638.244	10680.33
638.438	10520.59
638.632	10835.97
638.825	10780.68
639.019	10719.24
639.212	10532.87
639.406	10369.04
639.599	10498.06
639.793	10500.11
639.986	10156.05
640.18	10502.15
640.373	10274.83
640.567	10039.31
640.76	10178.58
640.954	10084.37
641.147	9979.92
641.34	9994.26
641.534	9846.8
641.727	9938.96
641.92	9914.39
642.114	9576.47
642.307	9766.93
642.5	9611.29
642.694	9762.84
642.887	9627.67
643.08	9590.81
643.273	9578.52
643.467	9551.9
643.66	9404.44
643.853	9302.04
644.046	9195.55
644.239	9254.94
644.432	9306.14
644.626	8984.61
644.819	9205.79
645.012	9117.73
645.205	8988.71
645.398	9046.05
645.591	8898.59
645.784	8951.84
645.977	8773.67
646.17	8826.92
646.363	8742.95
646.556	8593.45
646.749	8654.89
646.942	8593.45
647.135	8532.01
647.328	8568.87
647.521	8527.91
647.714	8265.77
647.907	8345.64
648.099	8511.53
648.292	8298.54
648.485	8480.81
648.678	8216.62
648.871	8296.49
649.064	8099.89
649.256	8308.78
649.449	7970.87
649.642	8108.08
649.835	7946.29
650.027	7886.9
650.22	7944.24
650.413	7907.38
650.605	7868.47
650.798	7782.45
650.991	7555.13
651.183	7680.05
651.376	7698.49
651.568	7766.07
651.761	7450.68
651.954	7639.09
652.146	7436.35
652.339	7436.35
652.531	7563.32
652.724	7376.95
652.916	7448.63
653.109	7221.31
653.301	7196.73
653.494	7188.54
653.686	7088.19
653.879	7266.36
654.071	7219.26
654.263	6885.44
654.456	7100.48
654.648	7180.35
654.84	6877.25
655.033	6922.31
655.225	6955.07
655.417	7030.85
655.61	6918.21
655.802	6893.63
655.994	6762.56
656.186	6985.79
656.379	6852.67
656.571	6756.42
656.763	6525
656.955	6557.77
657.148	6565.96
657.34	6602.82
657.532	6510.66
657.724	6430.79
657.916	6551.62
658.108	6529.1
658.3	6438.98
658.492	6422.6
658.684	6332.49
658.876	6455.37
659.068	6389.83
659.26	6074.45
659.452	6170.7
659.644	6125.65
659.836	6187.08
660.028	6123.6
660.22	6027.34
660.412	5900.37
660.604	5890.13
660.796	5988.43
660.988	6008.91
661.18	5906.51
661.372	5851.22
661.563	5806.16
661.755	5683.28
661.947	5900.37
662.139	5705.81
662.331	5658.71
662.522	5726.29
662.714	5738.58
662.906	5746.77
663.097	5560.41
663.289	5677.14
663.481	5587.03
663.673	5447.77
663.864	5460.06
664.056	5539.93
664.247	5404.76
664.439	5324.89
664.631	5460.06
664.822	5423.19
665.014	5247.07
665.205	5353.56
665.397	5199.96
665.588	5283.93
665.78	5294.17
665.971	5206.11
666.163	5294.17
666.354	4978.78
666.546	5105.76
666.737	5126.24
666.929	5107.8
667.12	4997.21
667.311	5032.03
667.503	4972.64
667.694	5001.31
667.885	4954.21
668.077	4849.76
668.268	4782.18
668.459	4933.73
668.651	4843.62
668.842	4896.86
669.033	4780.13
669.224	4685.92
669.416	4923.49
669.607	4698.21
669.798	4728.93
669.989	4825.19
670.18	4884.58
670.371	4661.35
670.563	4610.15
670.754	4548.71
670.945	4589.67
671.136	4624.48
671.327	4759.65
671.518	4716.64
671.709	4517.99
671.9	4634.72
672.091	4665.44
672.282	4606.05
672.473	4495.46
672.664	4415.59
672.855	4431.98
673.046	4452.45
673.237	4397.16
673.428	4567.14
673.619	4429.93
673.809	4302.95
674	4456.55
674.191	4315.24
674.382	4221.03
674.573	4438.12
674.764	4311.14
674.954	4362.34
675.145	4259.95
675.336	4284.52
675.527	4200.55
675.717	4274.28
675.908	4309.1
676.099	4231.27
676.289	4204.65
676.48	4135.02
676.671	4257.9
676.861	4171.88
677.052	4053.1
677.243	4135.02
677.433	4100.2
677.624	4069.48
677.814	4003.95
678.005	4100.2
678.195	4094.06
678.386	4126.83
678.576	4018.29
678.767	3993.71
678.957	3991.66
679.148	4008.05
679.338	3936.37
679.529	3962.99
679.719	3881.07
679.909	4092.01
680.1	4063.34
680.29	4075.63
680.481	3967.09
680.671	3948.65
680.861	3952.75
681.052	3879.02
681.242	3821.68
681.432	3891.31
681.622	3809.39
681.813	3981.42
682.003	3833.97
682.193	3840.11
682.383	3827.82
682.573	3874.93
682.764	3977.33
682.954	3860.59
683.144	3854.45
683.334	3815.54
683.524	3786.86
683.714	3684.47
683.904	3690.61
684.094	3766.39
684.284	3799.15
684.474	3836.02
684.664	3809.39
684.854	3666.03
685.044	3659.89
685.234	3770.48
685.424	3653.75
685.614	3573.88
685.804	3696.75
685.994	3633.27
686.184	3793.01
686.374	3633.27
686.564	3522.68
686.753	3608.69
686.943	3561.59
687.133	3522.68
687.323	3473.53
687.513	3600.5
687.702	3663.99
687.892	3465.33
688.082	3489.91
688.272	3571.83
688.461	3469.43
688.651	3451
688.841	3426.42
689.03	3389.56
689.22	3301.5
689.41	3356.79
689.599	3385.46
689.789	3315.83
689.979	3285.11
690.168	3266.68
690.358	3164.28
690.547	3180.67
690.737	3221.63
690.926	3143.8
691.116	3266.68
691.305	3332.22
691.495	3188.86
691.684	3156.09
691.874	3156.09
692.063	3203.19
692.252	3145.85
692.442	3176.57
692.631	3117.18
692.82	3088.51
693.01	3041.4
693.199	3065.98
693.388	3104.89
693.578	2984.06
693.767	2973.82
693.956	3016.83
694.146	2984.06
694.335	2975.87
694.524	2967.68
694.713	2920.57
694.902	2867.33
695.092	2828.42
695.281	2756.74
695.47	2875.52
695.659	2781.31
695.848	2789.5
696.037	2832.51
696.226	2863.23
696.415	2750.59
696.604	2855.04
696.793	2799.74
696.982	2809.98
697.171	2871.42
697.36	2728.07
697.549	2769.02
697.738	2670.72
697.927	2721.92
698.116	2740.35
698.305	2631.81
698.494	2642.05
698.683	2631.81
698.872	2693.25
699.061	2601.09
699.25	2541.7
699.438	2594.95
699.627	2623.62
699.816	2738.3
700.005	2588.8
700.193	2590.85
700.382	2513.03
700.571	2513.03
700.76	2637.95
700.948	2607.23
701.137	2498.69
701.326	2568.32
701.514	2515.08
701.703	2568.32
701.892	2502.79
702.08	2500.74
702.269	2455.69
702.457	2496.64
702.646	2523.27
702.834	2445.45
703.023	2427.01
703.212	2599.04
703.4	2439.3
703.589	2457.73
703.777	2508.93
703.965	2488.45
704.154	2343.05
704.342	2402.44
704.531	2502.79
704.719	2459.78
704.907	2484.36
705.096	2439.3
705.284	2408.58
705.472	2443.4
705.661	2418.82
705.849	2453.64
706.037	2463.88
706.226	2347.14
706.414	2404.49
706.602	2427.01
706.79	2369.67
706.979	2369.67
707.167	2365.57
707.355	2351.24
707.543	2334.86
707.731	2506.88
707.919	2273.42
708.107	2416.77
708.296	2363.53
708.484	2355.33
708.672	2367.62
708.86	2297.99
709.048	2375.81
709.236	2427.01
709.424	2379.91
709.612	2363.53
709.8	2232.46
709.988	2211.98
710.176	2267.27
710.364	2341
710.551	2316.42
710.739	2336.9
710.927	2295.94
711.115	2343.05
711.303	2291.85
711.491	2338.95
711.679	2291.85
711.866	2308.23
712.054	2314.38
712.242	2234.5
712.43	2320.52
712.617	2320.52
712.805	2246.79
712.993	2265.22
713.181	2207.88
713.368	2297.99
713.556	2312.33
713.744	2287.75
713.931	2316.42
714.119	2263.18
714.306	2236.55
714.494	2259.08
714.682	2263.18
714.869	2279.56
715.057	2244.74
715.244	2171.02
715.432	2343.05
715.619	2205.83
715.807	2361.48
715.994	2293.9
716.182	2332.81
716.369	2330.76
716.556	2302.09
716.744	2146.44
716.931	2242.7
717.119	2310.28
717.306	2242.7
717.493	2287.75
717.681	2232.46
717.868	2285.7
718.055	2314.38
718.242	2252.94
718.43	2252.94
718.617	2236.55
718.804	2236.55
718.991	2400.39
719.179	2252.94
719.366	2304.14
719.553	2353.29
719.74	2320.52
719.927	2185.35
720.114	2228.36
720.301	2248.84
720.488	2273.42
720.676	2259.08
720.863	2384.01
721.05	2218.12
721.237	2162.83
721.424	2263.18
721.611	2332.81
721.798	2277.51
721.985	2369.67
722.172	2222.22
722.358	2316.42
722.545	2273.42
722.732	2254.98
722.919	2422.92
723.106	2273.42
723.293	2328.71
723.48	2300.04
723.667	2252.94
723.853	2396.29
724.04	2302.09
724.227	2185.35
724.414	2238.6
724.6	2359.43
724.787	2310.28
724.974	2461.83
725.161	2295.94
725.347	2341
725.534	2199.69
725.72	2349.19
725.907	2515.08
726.094	2367.62
726.28	2320.52
726.467	2379.91
726.653	2406.53
726.84	2404.49
727.027	2361.48
727.213	2334.86
727.4	2363.53
727.586	2416.77
727.773	2408.58
727.959	2449.54
728.145	2386.05
728.332	2316.42
728.518	2308.23
728.705	2394.25
728.891	2373.77
729.077	2498.69
729.264	2381.96
729.45	2381.96
729.636	2527.36
729.823	2441.35
730.009	2455.69
730.195	2445.45
730.382	2564.23
730.568	2441.35
730.754	2465.93
730.94	2531.46
731.126	2580.61
731.313	2478.21
731.499	2406.53
731.685	2422.92
731.871	2492.55
732.057	2443.4
732.243	2474.12
732.429	2556.04
732.615	2590.85
732.801	2443.4
732.987	2701.44
733.173	2470.02
733.359	2523.27
733.545	2558.08
733.731	2527.36
733.917	2537.6
734.103	2623.62
734.289	2572.42
734.475	2433.16
734.661	2427.01
734.847	2607.23
735.033	2619.52
735.219	2558.08
735.404	2584.71
735.59	2539.65
735.776	2527.36
735.962	2629.76
736.148	2592.9
736.333	2533.51
736.519	2513.03
736.705	2570.37
736.89	2619.52
737.076	2599.04
737.262	2572.42
737.447	2680.96
737.633	2547.84
737.819	2705.54
738.004	2521.22
738.19	2683.01
738.375	2603.14
738.561	2771.07
738.747	2523.27
738.932	2588.8
739.118	2594.95
739.303	2584.71
739.489	2615.43
739.674	2631.81
739.859	2523.27
740.045	2597
740.23	2715.78
740.416	2496.64
740.601	2697.35
740.786	2701.44
740.972	2744.45
741.157	2609.28
741.342	2631.81
741.528	2472.07
741.713	2646.15
741.898	2740.35
742.084	2472.07
742.269	2834.56
742.454	2578.56
742.639	2615.43
742.824	2566.28
743.01	2685.06
743.195	2615.43
743.38	2572.42
743.565	2633.86
743.75	2531.46
743.935	2601.09
744.12	2680.96
744.305	2535.56
744.49	2687.11
744.675	2486.4
744.86	2558.08
745.045	2603.14
745.23	2504.84
745.415	2625.67
745.6	2660.48
745.785	2625.67
745.97	2611.33
746.155	2597
746.34	2435.21
746.525	2500.74
746.71	2586.76
746.895	2453.64
747.079	2527.36
747.264	2408.58
747.449	2515.08
747.634	2556.04
747.819	2541.7
748.003	2365.57
748.188	2418.82
748.373	2474.12
748.557	2406.53
748.742	2519.17
748.927	2490.5
749.111	2443.4
749.296	2402.44
749.481	2406.53
749.665	2308.23
749.85	2463.88
750.034	2396.29
750.219	2388.1
750.404	2326.66
750.588	2318.47
750.773	2283.66
750.957	2359.43
751.141	2187.4
751.326	2304.14
751.51	2228.36
751.695	2240.65
751.879	2187.4
752.064	2271.37
752.248	2347.14
752.432	2308.23
752.617	2152.59
752.801	2220.17
752.985	2214.02
753.17	2162.83
753.354	2150.54
753.538	2091.15
753.722	2214.02
753.907	2168.97
754.091	1992.84
754.275	2039.95
754.459	2054.28
754.643	2027.66
754.828	2093.19
755.012	2035.85
755.196	1958.03
755.38	2003.08
755.564	1966.22
755.748	2015.37
755.932	2019.47
756.116	1968.27
756.3	2019.47
756.484	1917.07
756.668	1829.01
756.852	1849.49
757.036	1876.11
757.22	1972.36
757.404	1902.73
757.588	1820.81
757.772	1927.31
757.956	1841.29
758.14	1968.27
758.323	1894.54
758.507	1749.14
758.691	1855.63
758.875	1831.05
759.059	1888.4
759.242	1740.94
759.426	1859.73
759.61	1816.72
759.794	1771.66
759.977	1693.84
760.161	1824.91
760.345	1781.9
760.528	1706.13
760.712	1685.65
760.895	1609.87
761.079	1769.62
761.263	1792.14
761.446	1605.78
761.63	1566.87
761.813	1720.46
761.997	1654.93
762.18	1749.14
762.364	1734.8
762.547	1548.44
762.731	1693.84
762.914	1632.4
763.098	1595.54
763.281	1523.86
763.464	1714.32
763.648	1558.67
763.831	1532.05
764.015	1591.44
764.198	1685.65
764.381	1570.96
764.564	1638.55
764.748	1523.86
764.931	1507.48
765.114	1575.06
765.297	1542.29
765.481	1507.48
765.664	1487
765.847	1577.11
766.03	1595.54
766.213	1575.06
766.397	1583.25
766.58	1542.29
766.763	1521.81
766.946	1489.04
767.129	1450.13
767.312	1468.56
767.495	1433.75
767.678	1396.89
767.861	1487
768.044	1386.65
768.227	1478.8
768.41	1435.8
768.593	1476.76
768.776	1376.41
768.959	1384.6
769.142	1511.57
769.324	1423.51
769.507	1443.99
769.69	1431.7
769.873	1462.42
770.056	1437.84
770.239	1382.55
770.421	1372.31
770.604	1464.47
770.787	1433.75
770.97	1296.53
771.152	1392.79
771.335	1380.5
771.518	1294.49
771.7	1333.4
771.883	1439.89
772.066	1300.63
772.248	1331.35
772.431	1353.88
772.613	1278.1
772.796	1337.49
772.978	1218.71
773.161	1296.53
773.343	1237.14
773.526	1253.53
773.708	1220.76
773.891	1116.31
774.073	1226.9
774.256	1185.94
774.438	1138.84
774.621	1169.56
774.803	1097.88
774.985	1155.23
775.168	1161.37
775.35	1157.27
775.532	1173.66
775.715	1142.94
775.897	1058.97
776.079	1147.03
776.261	1187.99
776.444	1026.2
776.626	1101.98
776.808	1077.4
776.99	1030.3
777.173	1173.66
777.355	1028.25
777.537	1042.59
777.719	1036.44
777.901	1005.72
778.083	1091.74
778.265	925.85
778.447	1089.69
778.629	950.43
778.811	991.39
778.993	983.2
779.175	870.56
779.357	938.14
779.539	960.67
779.721	905.37
779.903	876.7
780.085	968.86
780.267	1028.25
780.449	915.61
780.631	880.8
780.812	833.69
780.994	950.43
781.176	932
781.358	911.52
781.54	809.12
781.721	852.13
781.903	880.8
782.085	839.84
782.267	962.72
782.448	790.69
782.63	825.5
782.812	876.7
782.993	901.28
783.175	850.08
783.357	841.89
783.538	823.45
783.72	837.79
783.901	745.63
784.083	680.1
784.264	813.21
784.446	802.97
784.627	850.08
784.809	751.78
784.99	616.61
785.172	739.49
785.353	739.49
785.535	721.06
785.716	643.23
785.897	684.19
786.079	764.06
786.26	686.24
786.441	714.91
786.623	624.8
786.804	708.77
786.985	702.62
787.167	684.19
787.348	608.42
787.529	690.34
787.71	661.66
787.891	663.71
788.073	647.33
788.254	635.04
788.435	628.9
788.616	651.42
788.797	592.03
788.978	610.47
789.159	632.99
789.34	669.86
789.522	620.71
789.703	641.18
789.884	528.55
790.065	565.41
790.246	630.95
790.427	608.42
790.607	594.08
790.788	583.84
790.969	524.45
791.15	573.6
791.331	520.35
791.512	563.36
791.693	536.74
791.874	499.88
792.054	635.04
792.235	540.83
792.416	493.73
792.597	569.51
792.778	577.7
792.958	546.98
793.139	583.84
793.32	499.88
793.5	510.11
793.681	546.98
793.862	594.08
794.042	465.06
794.223	471.2
794.404	497.83
794.584	555.17
794.765	450.72
794.945	422.05
795.126	499.88
795.306	538.79
795.487	436.39
795.667	467.11
795.848	475.3
796.028	422.05
796.209	483.49
796.389	413.86
796.57	528.55
796.75	426.15
796.93	413.86
797.111	434.34
797.291	426.15
797.471	438.44
797.652	282.79
797.832	481.44
798.012	479.4
798.192	333.99
798.373	323.75
798.553	393.38
798.733	450.72
798.913	467.11
799.093	444.58
799.274	467.11
799.454	434.34
799.634	352.42
799.814	387.24
799.994	434.34
800.174	442.53
800.354	469.16
800.534	387.24
800.714	385.19
800.894	430.24
801.074	299.17
801.254	377
801.434	442.53
801.614	424.1
801.794	409.76
801.974	993.44
802.154	309.41
802.334	346.28
802.514	379.04
802.693	383.14
802.873	348.33
803.053	385.19
803.233	342.18
803.413	385.19
803.592	276.65
803.772	315.56
803.952	329.89
804.131	237.74
804.311	358.57
804.491	342.18
804.67	323.75
804.85	327.85
805.03	336.04
805.209	301.22
805.389	327.85
805.568	280.74
805.748	340.13
805.928	301.22
806.107	252.07
806.287	297.13
806.466	358.57
806.646	346.28
806.825	360.61
807.004	284.84
807.184	389.28
807.363	290.98
807.543	282.79
807.722	315.56
807.901	327.85
808.081	348.33
808.26	227.5
808.439	346.28
808.619	309.41
808.798	286.89
808.977	340.13
809.156	276.65
809.336	260.26
809.515	315.56
809.694	225.45
809.873	274.6
810.052	284.84
810.231	311.46
810.411	295.08
810.59	381.09
810.769	305.32
810.948	280.74
811.127	260.26
811.306	241.83
811.485	397.48
811.664	221.35
811.843	258.21
812.022	319.65
812.201	274.6
812.38	196.78
812.559	202.92
812.737	321.7
812.916	288.93
813.095	211.11
813.274	194.73
813.453	241.83
813.632	245.93
813.811	317.61
813.989	213.16
814.168	254.12
814.347	295.08
814.526	239.78
814.704	282.79
814.883	245.93
815.062	161.96
815.24	247.97
815.419	166.06
815.598	180.39
815.776	225.45
815.955	264.36
816.133	143.53
816.312	219.3
816.49	258.21
816.669	247.97
816.847	174.25
817.026	198.82
817.204	319.65
817.383	180.39
817.561	262.31
817.74	227.5
817.918	188.58
818.097	221.35
818.275	264.36
818.453	231.59
818.632	245.93
818.81	247.97
818.988	217.26
819.167	129.19
819.345	223.4
819.523	213.16
819.701	182.44
819.879	235.69
820.058	252.07
820.236	213.16
820.414	190.63
820.592	217.26
820.77	186.54
820.948	221.35
821.127	209.06
821.305	272.55
821.483	264.36
821.661	184.49
821.839	192.68
822.017	149.67
822.195	207.02
822.373	161.96
822.551	164.01
822.729	141.48
822.907	133.29
823.085	207.02
823.262	202.92
823.44	178.34
823.618	139.43
823.796	204.97
823.974	184.49
824.152	104.62
824.329	233.64
824.507	196.78
824.685	200.87
824.863	180.39
825.04	219.3
825.218	215.21
825.396	161.96
825.574	157.86
825.751	141.48
825.929	186.54
826.107	168.1
826.284	202.92
826.462	127.14
826.639	151.72
826.817	161.96
826.994	192.68
827.172	106.67
827.349	178.34
827.527	237.74
827.704	168.1
827.882	229.54
828.059	157.86
828.237	219.3
828.414	125.1
828.591	137.38
828.769	131.24
828.946	135.34
829.124	161.96
829.301	143.53
829.478	176.3
829.655	121
829.833	131.24
830.01	114.86
830.187	123.05
830.364	180.39
830.542	123.05
830.719	164.01
830.896	157.86
831.073	133.29
831.25	127.14
831.427	237.74
831.604	110.76
831.782	215.21
831.959	14.51
832.136	139.43
832.313	209.06
832.49	96.43
832.667	141.48
832.844	174.25
833.021	233.64
833.198	96.43
833.374	135.34
833.551	166.06
833.728	145.58
833.905	127.14
834.082	53.42
834.259	141.48
834.436	190.63
834.612	49.32
834.789	139.43
834.966	153.77
835.143	121
835.319	75.95
835.496	110.76
835.673	127.14
835.85	112.81
836.026	125.1
836.203	182.44
836.38	123.05
836.556	82.09
836.733	55.47
836.909	108.71
837.086	0.17
837.262	149.67
837.439	110.76
837.616	80.04
837.792	102.57
837.968	198.82
838.145	45.23
838.321	75.95
838.498	131.24
838.674	145.58
838.851	80.04
839.027	114.86
839.203	108.71
839.38	219.3
839.556	71.85
839.732	100.52
839.909	180.39
840.085	127.14
840.261	174.25
840.437	192.68
840.614	47.27
840.79	149.67
840.966	135.34
841.142	135.34
841.318	98.47
841.494	47.27
841.671	92.33
841.847	104.62
842.023	51.37
842.199	67.75
842.375	133.29
842.551	61.61
842.727	16.55
842.903	151.72
843.079	106.67
843.255	82.09
843.431	92.33
843.607	106.67
843.783	57.51
843.959	133.29
844.134	49.32
844.31	82.09
844.486	102.57
844.662	16.55
844.838	59.56
845.013	125.1
845.189	100.52
845.365	139.43
845.541	104.62
845.716	53.42
845.892	96.43
846.068	118.95
846.244	104.62
846.419	82.09
846.595	82.09
846.77	37.03
846.946	73.9
847.122	61.61
847.297	69.8
847.473	153.77
847.648	59.56
847.824	63.66
847.999	57.51
848.175	164.01
848.35	73.9
848.526	112.81
848.701	92.33
848.876	151.72
849.052	164.01
849.227	98.47
849.403	39.08
849.578	80.04
849.753	71.85
849.929	92.33
850.104	47.27
850.279	153.77
850.454	39.08
850.63	65.71
850.805	67.75
850.98	69.8
851.155	98.47
851.33	123.05
851.505	-1.88
851.681	86.19
851.856	135.34
852.031	47.27
852.206	102.57
852.381	43.18
852.556	41.13
852.731	55.47
852.906	90.28
853.081	108.71
853.256	129.19
853.431	10.41
853.606	61.61
853.781	24.75
853.956	106.67
854.131	82.09
854.305	116.9
854.48	73.9
854.655	75.95
854.83	110.76
855.005	84.14
855.18	98.47
855.354	84.14
855.529	30.89
855.704	94.38
855.879	49.32
856.053	63.66
856.228	53.42
856.403	26.79
856.577	125.1
856.752	53.42
856.926	77.99
857.101	51.37
857.276	16.55
857.45	104.62
857.625	67.75
857.799	57.51
857.974	8.36
858.148	8.36
858.323	96.43
858.497	57.51
858.672	39.08
858.846	24.75
859.02	155.82
859.195	51.37
859.369	41.13
859.543	59.56
859.718	84.14
859.892	32.94
860.066	51.37
860.241	67.75
860.415	118.95
860.589	57.51
860.763	57.51
860.938	24.75
861.112	6.31
861.286	77.99
861.46	82.09
861.634	34.99
861.808	131.24
861.982	71.85
862.157	8.36
862.331	63.66
862.505	-5.97
862.679	-16.21
862.853	127.14
863.027	10.41
863.201	110.76
863.375	26.79
863.549	16.55
863.722	49.32
863.896	98.47
864.07	77.99
864.244	61.61
864.418	47.27
864.592	90.28
864.766	77.99
864.939	30.89
865.113	41.13
865.287	67.75
865.461	28.84
865.634	59.56
865.808	2.22
865.982	26.79
866.156	-30.55
866.329	16.55
866.503	77.99
866.676	90.28
866.85	61.61
867.024	34.99
867.197	123.05
867.371	51.37
867.544	-30.55
867.718	-28.5
867.891	-5.97
868.065	24.75
868.238	77.99
868.412	53.42
868.585	106.67
868.759	69.8
868.932	-12.12
869.105	2.22
869.279	69.8
869.452	4.27
869.625	82.09
869.799	10.41
869.972	0.17
870.145	71.85
870.319	30.89
870.492	8.36
870.665	53.42
870.838	51.37
871.011	-1.88
871.185	100.52
871.358	108.71
871.531	-16.21
871.704	6.31
871.877	92.33
872.05	2.22
872.223	-8.02
872.396	57.51
872.569	94.38
872.742	30.89
872.915	6.31
873.088	-42.84
873.261	-10.07
873.434	55.47
873.607	73.9
873.78	47.27
873.953	-38.74
874.126	16.55
874.299	39.08
874.471	43.18
874.644	75.95
874.817	61.61
874.99	73.9
875.163	49.32
875.335	63.66
875.508	-71.51
875.681	43.18
875.853	45.23
876.026	-14.17
876.199	24.75
876.371	90.28
876.544	86.19
876.717	61.61
876.889	82.09
877.062	32.94
877.234	2.22
877.407	39.08
877.579	16.55
877.752	32.94
877.924	59.56
878.097	2.22
878.269	-5.97
878.442	-18.26
878.614	39.08
878.786	37.03
878.959	100.52
879.131	2.22
879.303	-65.36
879.476	114.86
879.648	-14.17
879.82	51.37
879.993	37.03
880.165	16.55
880.337	10.41
880.509	49.32
880.681	16.55
880.854	20.65
881.026	37.03
881.198	71.85
881.37	-5.97
881.542	18.6
881.714	18.6
881.886	-22.36
882.058	53.42
882.23	37.03
882.402	-1.88
882.574	71.85
882.746	26.79
882.918	94.38
883.09	80.04
883.262	45.23
883.434	73.9
883.606	-18.26
883.778	88.23
883.95	84.14
884.122	41.13
884.293	71.85
884.465	28.84
884.637	77.99
884.809	-1.88
884.98	55.47
885.152	59.56
885.324	92.33
885.496	-8.02
885.667	77.99
885.839	-28.5
886.011	157.86
886.182	102.57
886.354	90.28
886.525	65.71
886.697	65.71
886.869	-12.12
887.04	8.36
887.212	22.7
887.383	67.75
887.555	67.75
887.726	26.79
887.897	12.46
888.069	26.79
888.24	20.65
888.412	-14.17
888.583	-14.17
888.754	59.56
888.926	20.65
889.097	26.79
889.268	41.13
889.44	30.89
889.611	75.95
889.782	-1.88
889.953	-38.74
890.125	34.99
890.296	-3.93
890.467	-3.93
890.638	-20.31
890.809	73.9
890.98	-1.88
891.151	96.43
891.323	18.6
891.494	39.08
891.665	-10.07
891.836	37.03
892.007	-24.4
892.178	-30.55
892.349	82.09
892.52	6.31
892.691	-8.02
892.862	-24.4
893.032	14.51
893.203	69.8
893.374	57.51
893.545	47.27
893.716	75.95
893.887	30.89
894.057	59.56
894.228	55.47
894.399	-30.55
894.57	139.43
894.74	69.8
894.911	8.36
895.082	16.55
895.253	-10.07
895.423	16.55
895.594	71.85
895.764	8.36
895.935	18.6
896.106	84.14
896.276	8.36
896.447	22.7
896.617	-10.07
896.788	8.36
896.958	106.67
897.129	16.55
897.299	34.99
897.47	16.55
897.64	-1.88
897.81	65.71
897.981	-10.07
898.151	49.32
898.322	90.28
898.492	37.03
898.662	4.27
898.832	26.79
899.003	-61.27
899.173	18.6
899.343	4.27
899.513	30.89
