Data from USB4F104151__36__12-41-19-464.txt Node

Date: Fri Mar 14 12:41:19 EDT 2025
User: louis
Spectrometer: USB4F10415
Trigger mode: 4
Integration Time (sec): 3.000000E-2
Scans to average: 1
Electric dark correction enabled: true
Nonlinearity correction enabled: false
Boxcar width: 0
XAxis mode: Wavelengths
Number of Pixels in Spectrum: 3648
>>>>>Begin Spectral Data<<<<<
178.204	-29.7
178.424	-29.7
178.644	-29.7
178.864	-142.33
179.084	-191.49
179.304	-37.89
179.524	-37.89
179.744	-23.55
179.964	31.74
180.184	-27.65
180.404	-25.6
180.624	7.17
180.844	-9.22
181.064	-1.02
181.283	105.47
181.503	-29.7
181.723	48.13
181.943	9.22
182.163	78.85
182.383	-7.17
182.602	25.6
182.822	50.18
183.042	87.04
183.262	-13.31
183.482	62.46
183.701	25.6
183.921	50.18
184.141	3.07
184.361	-9.22
184.58	7.17
184.8	70.65
185.02	-27.65
185.239	17.41
185.459	50.18
185.679	25.6
185.898	31.74
186.118	80.89
186.338	17.41
186.557	76.8
186.777	35.84
186.997	39.94
187.216	52.22
187.436	89.09
187.655	37.89
187.875	17.41
188.095	-13.31
188.314	48.13
188.534	27.65
188.753	-35.84
188.973	54.27
189.192	21.5
189.412	136.19
189.631	64.51
189.851	-46.08
190.07	74.75
190.29	3.07
190.509	-11.26
190.729	56.32
190.948	70.65
191.168	175.1
191.387	3.07
191.607	52.22
191.826	25.6
192.045	-11.26
192.265	23.55
192.484	35.84
192.704	-21.5
192.923	9.22
193.142	95.23
193.362	72.7
193.581	113.66
193.8	74.75
194.02	87.04
194.239	58.37
194.458	7.17
194.678	7.17
194.897	1.02
195.116	7.17
195.335	19.46
195.555	54.27
195.774	9.22
195.993	15.36
196.212	39.94
196.432	33.79
196.651	60.42
196.87	64.51
197.089	17.41
197.308	119.81
197.528	37.89
197.747	-21.5
197.966	9.22
198.185	89.09
198.404	46.08
198.623	50.18
198.842	33.79
199.062	29.7
199.281	-9.22
199.5	107.52
199.719	13.31
199.938	50.18
200.157	82.94
200.376	154.62
200.595	123.9
200.814	37.89
201.033	103.42
201.252	39.94
201.471	99.33
201.69	54.27
201.909	72.7
202.128	64.51
202.347	-31.74
202.566	58.37
202.785	9.22
203.004	13.31
203.223	144.38
203.442	52.22
203.661	21.5
203.879	-39.94
204.098	39.94
204.317	52.22
204.536	44.03
204.755	62.46
204.974	103.42
205.193	72.7
205.411	101.37
205.63	117.76
205.849	66.56
206.068	48.13
206.287	130.05
206.505	58.37
206.724	60.42
206.943	11.26
207.162	89.09
207.381	93.18
207.599	1.02
207.818	-27.65
208.037	54.27
208.255	82.94
208.474	35.84
208.693	64.51
208.911	13.31
209.13	13.31
209.349	72.7
209.567	44.03
209.786	97.28
210.005	25.6
210.223	52.22
210.442	-3.07
210.661	72.7
210.879	11.26
211.098	119.81
211.316	95.23
211.535	146.43
211.753	-13.31
211.972	41.98
212.191	21.5
212.409	-27.65
212.628	58.37
212.846	7.17
213.065	19.46
213.283	134.14
213.502	7.17
213.72	15.36
213.938	50.18
214.157	33.79
214.375	25.6
214.594	-3.07
214.812	31.74
215.031	29.7
215.249	15.36
215.467	87.04
215.686	3.07
215.904	68.61
216.122	3.07
216.341	62.46
216.559	60.42
216.778	33.79
216.996	3.07
217.214	46.08
217.432	46.08
217.651	-3.07
217.869	84.99
218.087	80.89
218.306	-11.26
218.524	123.9
218.742	-37.89
218.96	17.41
219.179	-29.7
219.397	64.51
219.615	93.18
219.833	60.42
220.051	-15.36
220.27	66.56
220.488	29.7
220.706	84.99
220.924	60.42
221.142	9.22
221.36	-17.41
221.578	78.85
221.796	48.13
222.015	-1.02
222.233	37.89
222.451	56.32
222.669	-1.02
222.887	68.61
223.105	35.84
223.323	62.46
223.541	29.7
223.759	29.7
223.977	13.31
224.195	95.23
224.413	33.79
224.631	17.41
224.849	93.18
225.067	76.8
225.285	52.22
225.503	5.12
225.721	9.22
225.939	9.22
226.157	11.26
226.375	101.37
226.592	-11.26
226.81	87.04
227.028	97.28
227.246	50.18
227.464	35.84
227.682	48.13
227.9	33.79
228.117	54.27
228.335	70.65
228.553	46.08
228.771	29.7
228.989	31.74
229.206	39.94
229.424	-5.12
229.642	23.55
229.86	62.46
230.077	99.33
230.295	15.36
230.513	19.46
230.731	56.32
230.948	68.61
231.166	29.7
231.384	41.98
231.601	56.32
231.819	15.36
232.037	70.65
232.254	35.84
232.472	46.08
232.689	76.8
232.907	41.98
233.125	39.94
233.342	76.8
233.56	13.31
233.777	78.85
233.995	19.46
234.213	46.08
234.43	19.46
234.648	9.22
234.865	60.42
235.083	64.51
235.3	70.65
235.518	89.09
235.735	58.37
235.953	70.65
236.17	17.41
236.388	7.17
236.605	17.41
236.822	109.57
237.04	21.5
237.257	27.65
237.475	56.32
237.692	21.5
237.909	7.17
238.127	5.12
238.344	99.33
238.562	35.84
238.779	21.5
238.996	44.03
239.214	91.13
239.431	25.6
239.648	13.31
239.865	27.65
240.083	78.85
240.3	48.13
240.517	17.41
240.735	25.6
240.952	21.5
241.169	-15.36
241.386	37.89
241.603	87.04
241.821	9.22
242.038	70.65
242.255	23.55
242.472	27.65
242.689	62.46
242.907	103.42
243.124	56.32
243.341	64.51
243.558	70.65
243.775	-3.07
243.992	78.85
244.209	21.5
244.426	91.13
244.643	39.94
244.86	-19.46
245.078	66.56
245.295	68.61
245.512	72.7
245.729	31.74
245.946	87.04
246.163	29.7
246.38	60.42
246.597	37.89
246.814	39.94
247.031	13.31
247.248	52.22
247.464	66.56
247.681	9.22
247.898	9.22
248.115	56.32
248.332	46.08
248.549	60.42
248.766	146.43
248.983	80.89
249.2	-3.07
249.417	-11.26
249.633	9.22
249.85	15.36
250.067	39.94
250.284	35.84
250.501	-15.36
250.717	62.46
250.934	33.79
251.151	1.02
251.368	87.04
251.585	111.61
251.801	80.89
252.018	23.55
252.235	107.52
252.451	-56.32
252.668	64.51
252.885	31.74
253.102	33.79
253.318	39.94
253.535	-5.12
253.752	50.18
253.968	-19.46
254.185	52.22
254.401	84.99
254.618	89.09
254.835	-17.41
255.051	107.52
255.268	46.08
255.484	37.89
255.701	46.08
255.917	44.03
256.134	-44.03
256.351	7.17
256.567	5.12
256.784	58.37
257	-46.08
257.217	21.5
257.433	52.22
257.65	171.01
257.866	-1.02
258.082	-64.51
258.299	5.12
258.515	84.99
258.732	29.7
258.948	9.22
259.165	84.99
259.381	31.74
259.597	9.22
259.814	31.74
260.03	60.42
260.246	52.22
260.463	48.13
260.679	39.94
260.895	5.12
261.112	5.12
261.328	31.74
261.544	-15.36
261.761	9.22
261.977	-5.12
262.193	7.17
262.409	48.13
262.626	31.74
262.842	31.74
263.058	48.13
263.274	78.85
263.49	29.7
263.707	-17.41
263.923	62.46
264.139	9.22
264.355	113.66
264.571	80.89
264.787	23.55
265.004	93.18
265.22	72.7
265.436	60.42
265.652	-3.07
265.868	50.18
266.084	-21.5
266.3	82.94
266.516	46.08
266.732	62.46
266.948	31.74
267.164	15.36
267.38	39.94
267.596	70.65
267.812	72.7
268.028	35.84
268.244	11.26
268.46	105.47
268.676	39.94
268.892	119.81
269.108	44.03
269.324	41.98
269.54	3.07
269.756	105.47
269.972	-35.84
270.188	56.32
270.403	13.31
270.619	56.32
270.835	80.89
271.051	72.7
271.267	31.74
271.483	54.27
271.698	17.41
271.914	35.84
272.13	33.79
272.346	84.99
272.562	78.85
272.777	97.28
272.993	58.37
273.209	21.5
273.425	68.61
273.64	-13.31
273.856	115.71
274.072	7.17
274.287	13.31
274.503	132.09
274.719	-3.07
274.934	19.46
275.15	15.36
275.366	-21.5
275.581	56.32
275.797	-13.31
276.012	37.89
276.228	1.02
276.444	56.32
276.659	52.22
276.875	33.79
277.09	58.37
277.306	-41.98
277.521	23.55
277.737	19.46
277.952	56.32
278.168	66.56
278.383	33.79
278.599	123.9
278.814	13.31
279.03	-17.41
279.245	56.32
279.461	-7.17
279.676	5.12
279.892	37.89
280.107	13.31
280.322	-19.46
280.538	93.18
280.753	-1.02
280.969	64.51
281.184	62.46
281.399	132.09
281.615	48.13
281.83	136.19
282.045	19.46
282.26	44.03
282.476	46.08
282.691	78.85
282.906	13.31
283.122	76.8
283.337	84.99
283.552	46.08
283.767	58.37
283.983	39.94
284.198	50.18
284.413	84.99
284.628	76.8
284.843	50.18
285.058	74.75
285.274	29.7
285.489	35.84
285.704	37.89
285.919	-13.31
286.134	37.89
286.349	62.46
286.564	66.56
286.779	23.55
286.995	9.22
287.21	58.37
287.425	23.55
287.64	23.55
287.855	17.41
288.07	37.89
288.285	72.7
288.5	66.56
288.715	97.28
288.93	29.7
289.145	54.27
289.36	25.6
289.575	-25.6
289.79	46.08
290.004	33.79
290.219	35.84
290.434	113.66
290.649	-11.26
290.864	58.37
291.079	41.98
291.294	74.75
291.509	80.89
291.724	23.55
291.938	80.89
292.153	74.75
292.368	37.89
292.583	64.51
292.798	39.94
293.012	41.98
293.227	-11.26
293.442	62.46
293.657	21.5
293.871	41.98
294.086	-23.55
294.301	35.84
294.516	25.6
294.73	62.46
294.945	11.26
295.16	76.8
295.374	111.61
295.589	39.94
295.804	35.84
296.018	72.7
296.233	-23.55
296.447	68.61
296.662	41.98
296.877	101.37
297.091	-21.5
297.306	27.65
297.52	130.05
297.735	52.22
297.949	50.18
298.164	-5.12
298.378	-3.07
298.593	1.02
298.807	17.41
299.022	-13.31
299.236	87.04
299.451	-11.26
299.665	48.13
299.88	-13.31
300.094	68.61
300.309	89.09
300.523	-23.55
300.737	62.46
300.952	62.46
301.166	52.22
301.381	87.04
301.595	-62.46
301.809	-5.12
302.024	46.08
302.238	29.7
302.452	111.61
302.667	68.61
302.881	1.02
303.095	68.61
303.309	58.37
303.524	52.22
303.738	76.8
303.952	5.12
304.166	72.7
304.381	-31.74
304.595	80.89
304.809	17.41
305.023	9.22
305.237	-19.46
305.452	74.75
305.666	91.13
305.88	113.66
306.094	111.61
306.308	89.09
306.522	17.41
306.736	39.94
306.95	39.94
307.164	-15.36
307.379	9.22
307.593	97.28
307.807	89.09
308.021	5.12
308.235	33.79
308.449	-52.22
308.663	25.6
308.877	183.29
309.091	52.22
309.305	52.22
309.519	-23.55
309.733	21.5
309.947	9.22
310.161	56.32
310.374	-11.26
310.588	41.98
310.802	1.02
311.016	17.41
311.23	33.79
311.444	66.56
311.658	7.17
311.872	7.17
312.085	3.07
312.299	68.61
312.513	35.84
312.727	17.41
312.941	44.03
313.154	19.46
313.368	78.85
313.582	60.42
313.796	46.08
314.009	48.13
314.223	35.84
314.437	56.32
314.651	64.51
314.864	23.55
315.078	31.74
315.292	66.56
315.505	56.32
315.719	66.56
315.933	7.17
316.146	46.08
316.36	-21.5
316.573	93.18
316.787	62.46
317.001	121.85
317.214	41.98
317.428	132.09
317.641	3.07
317.855	39.94
318.068	50.18
318.282	70.65
318.495	128
318.709	60.42
318.922	-7.17
319.136	25.6
319.349	68.61
319.563	87.04
319.776	64.51
319.99	17.41
320.203	91.13
320.417	3.07
320.63	52.22
320.843	109.57
321.057	101.37
321.27	-105.47
321.483	78.85
321.697	134.14
321.91	41.98
322.124	13.31
322.337	52.22
322.55	138.24
322.763	44.03
322.977	41.98
323.19	50.18
323.403	109.57
323.617	68.61
323.83	68.61
324.043	54.27
324.256	123.9
324.469	3.07
324.683	140.29
324.896	27.65
325.109	76.8
325.322	80.89
325.535	78.85
325.748	84.99
325.962	46.08
326.175	123.9
326.388	80.89
326.601	91.13
326.814	25.6
327.027	46.08
327.24	64.51
327.453	52.22
327.666	9.22
327.879	82.94
328.092	41.98
328.305	62.46
328.518	21.5
328.731	37.89
328.944	66.56
329.157	-7.17
329.37	41.98
329.583	82.94
329.796	74.75
330.009	3.07
330.222	78.85
330.435	68.61
330.648	7.17
330.861	37.89
331.073	21.5
331.286	84.99
331.499	111.61
331.712	109.57
331.925	95.23
332.138	58.37
332.35	84.99
332.563	76.8
332.776	74.75
332.989	60.42
333.202	58.37
333.414	54.27
333.627	29.7
333.84	54.27
334.053	78.85
334.265	-13.31
334.478	56.32
334.691	19.46
334.903	74.75
335.116	-39.94
335.329	62.46
335.541	23.55
335.754	68.61
335.966	15.36
336.179	41.98
336.392	52.22
336.604	41.98
336.817	35.84
337.029	130.05
337.242	68.61
337.454	105.47
337.667	-21.5
337.88	82.94
338.092	70.65
338.305	91.13
338.517	-37.89
338.729	35.84
338.942	76.8
339.154	23.55
339.367	9.22
339.579	7.17
339.792	11.26
340.004	89.09
340.217	-9.22
340.429	78.85
340.641	52.22
340.854	-5.12
341.066	41.98
341.278	48.13
341.491	128
341.703	19.46
341.915	15.36
342.128	54.27
342.34	35.84
342.552	-58.37
342.764	-39.94
342.977	89.09
343.189	44.03
343.401	-17.41
343.613	-7.17
343.826	3.07
344.038	-29.7
344.25	58.37
344.462	21.5
344.674	80.89
344.886	39.94
345.099	97.28
345.311	148.48
345.523	7.17
345.735	-23.55
345.947	64.51
346.159	68.61
346.371	56.32
346.583	68.61
346.795	95.23
347.007	89.09
347.219	84.99
347.431	70.65
347.643	78.85
347.855	-19.46
348.067	82.94
348.279	93.18
348.491	84.99
348.703	39.94
348.915	15.36
349.127	9.22
349.339	39.94
349.551	74.75
349.763	19.46
349.975	64.51
350.187	91.13
350.399	19.46
350.61	54.27
350.822	41.98
351.034	70.65
351.246	72.7
351.458	107.52
351.669	52.22
351.881	54.27
352.093	89.09
352.305	130.05
352.517	166.91
352.728	80.89
352.94	50.18
353.152	58.37
353.363	48.13
353.575	-1.02
353.787	27.65
353.999	89.09
354.21	156.67
354.422	25.6
354.633	46.08
354.845	72.7
355.057	66.56
355.268	62.46
355.48	148.48
355.692	19.46
355.903	37.89
356.115	21.5
356.326	-5.12
356.538	33.79
356.749	107.52
356.961	25.6
357.172	97.28
357.384	-9.22
357.595	193.53
357.807	29.7
358.018	9.22
358.23	58.37
358.441	70.65
358.653	-23.55
358.864	19.46
359.075	58.37
359.287	56.32
359.498	25.6
359.709	62.46
359.921	64.51
360.132	11.26
360.344	37.89
360.555	31.74
360.766	91.13
360.977	64.51
361.189	62.46
361.4	46.08
361.611	50.18
361.823	89.09
362.034	48.13
362.245	-17.41
362.456	-35.84
362.667	46.08
362.879	80.89
363.09	150.53
363.301	15.36
363.512	101.37
363.723	25.6
363.935	-7.17
364.146	50.18
364.357	41.98
364.568	58.37
364.779	33.79
364.99	99.33
365.201	33.79
365.412	134.14
365.623	64.51
365.834	50.18
366.045	41.98
366.256	89.09
366.467	84.99
366.678	87.04
366.889	41.98
367.1	87.04
367.311	97.28
367.522	-23.55
367.733	66.56
367.944	44.03
368.155	46.08
368.366	87.04
368.577	72.7
368.788	93.18
368.999	48.13
369.209	46.08
369.42	142.33
369.631	162.81
369.842	125.95
370.053	50.18
370.264	21.5
370.474	23.55
370.685	-17.41
370.896	103.42
371.107	62.46
371.317	109.57
371.528	64.51
371.739	111.61
371.95	33.79
372.16	134.14
372.371	-58.37
372.582	7.17
372.792	70.65
373.003	41.98
373.214	93.18
373.424	54.27
373.635	89.09
373.846	74.75
374.056	64.51
374.267	134.14
374.477	140.29
374.688	41.98
374.898	35.84
375.109	78.85
375.319	95.23
375.53	80.89
375.74	115.71
375.951	64.51
376.161	21.5
376.372	82.94
376.582	19.46
376.793	74.75
377.003	35.84
377.214	54.27
377.424	15.36
377.635	99.33
377.845	74.75
378.055	121.85
378.266	89.09
378.476	56.32
378.686	60.42
378.897	44.03
379.107	117.76
379.317	115.71
379.528	72.7
379.738	82.94
379.948	15.36
380.158	80.89
380.369	111.61
380.579	39.94
380.789	105.47
380.999	33.79
381.21	113.66
381.42	121.85
381.63	-3.07
381.84	113.66
382.05	-5.12
382.261	25.6
382.471	-23.55
382.681	66.56
382.891	33.79
383.101	74.75
383.311	15.36
383.521	23.55
383.731	84.99
383.941	66.56
384.151	46.08
384.361	27.65
384.571	80.89
384.781	89.09
384.991	177.15
385.201	95.23
385.411	103.42
385.621	119.81
385.831	115.71
386.041	97.28
386.251	-5.12
386.461	84.99
386.671	39.94
386.881	74.75
387.091	80.89
387.301	80.89
387.511	27.65
387.72	74.75
387.93	101.37
388.14	39.94
388.35	19.46
388.56	82.94
388.769	115.71
388.979	123.9
389.189	-17.41
389.399	82.94
389.609	84.99
389.818	80.89
390.028	91.13
390.238	144.38
390.447	158.72
390.657	60.42
390.867	35.84
391.076	29.7
391.286	54.27
391.496	146.43
391.705	95.23
391.915	166.91
392.125	89.09
392.334	64.51
392.544	68.61
392.753	84.99
392.963	130.05
393.172	68.61
393.382	103.42
393.591	70.65
393.801	50.18
394.01	130.05
394.22	70.65
394.429	142.33
394.639	117.76
394.848	119.81
395.058	119.81
395.267	91.13
395.477	64.51
395.686	97.28
395.895	140.29
396.105	136.19
396.314	121.85
396.524	105.47
396.733	27.65
396.942	175.1
397.152	173.05
397.361	134.14
397.57	117.76
397.78	64.51
397.989	123.9
398.198	209.92
398.407	80.89
398.617	105.47
398.826	187.39
399.035	84.99
399.244	138.24
399.453	158.72
399.663	148.48
399.872	222.2
400.081	-11.26
400.29	97.28
400.499	58.37
400.708	152.57
400.917	187.39
401.127	166.91
401.336	125.95
401.545	168.96
401.754	191.49
401.963	152.57
402.172	78.85
402.381	107.52
402.59	214.01
402.799	109.57
403.008	197.63
403.217	121.85
403.426	125.95
403.635	117.76
403.844	66.56
404.053	152.57
404.262	134.14
404.471	185.34
404.68	89.09
404.888	162.81
405.097	156.67
405.306	156.67
405.515	168.96
405.724	162.81
405.933	209.92
406.142	160.77
406.35	152.57
406.559	177.15
406.768	257.02
406.977	277.5
407.185	314.36
407.394	238.59
407.603	109.57
407.812	191.49
408.02	320.51
408.229	199.68
408.438	207.87
408.646	250.88
408.855	193.53
409.064	314.36
409.272	269.31
409.481	304.12
409.69	306.17
409.898	295.93
410.107	273.4
410.315	359.42
410.524	281.6
410.733	455.67
410.941	343.03
411.15	351.23
411.358	416.76
411.567	424.95
411.775	431.1
411.984	377.85
412.192	556.02
412.401	517.11
412.609	474.1
412.818	637.94
413.026	480.25
413.234	506.87
413.443	553.98
413.651	510.97
413.86	611.32
414.068	652.28
414.276	693.24
414.485	670.71
414.693	699.38
414.901	687.09
415.11	760.82
415.318	789.49
415.526	758.77
415.734	846.84
415.943	775.16
416.151	822.26
416.359	889.84
416.567	934.9
416.776	973.81
416.984	1035.25
417.192	1106.93
417.4	1000.43
417.608	1045.49
417.817	1076.21
418.025	1164.27
418.233	1201.13
418.441	1186.8
418.649	1272.81
418.857	1364.97
419.065	1338.35
419.273	1350.64
419.481	1336.3
419.689	1463.27
419.897	1543.14
420.105	1635.3
420.313	1727.46
420.521	1641.45
420.729	1782.76
420.937	1606.63
421.145	1833.96
421.353	1938.4
421.561	2108.38
421.769	2085.86
421.977	2184.16
422.185	2149.34
422.393	2280.41
422.601	2431.96
422.809	2429.91
423.017	2421.72
423.224	2499.55
423.432	2573.27
423.64	2603.99
423.848	2905.04
424.056	2816.98
424.263	3064.79
424.471	2943.96
424.679	3167.18
424.887	3236.81
425.094	3156.94
425.302	3269.58
425.51	3414.99
425.718	3648.46
425.925	3646.41
426.133	3806.15
426.341	4010.95
426.548	4152.26
426.756	4131.78
426.964	4182.98
427.171	4471.74
427.379	4543.42
427.586	4744.12
427.794	4766.65
428.001	4920.24
428.209	5161.91
428.417	5116.85
428.624	5399.47
428.832	5374.89
429.039	5372.85
429.247	5338.03
429.454	6067.11
429.662	6464.41
429.869	5895.08
430.076	6370.21
430.284	6187.94
430.491	6452.13
430.699	6765.46
430.906	6706.07
431.114	6874.01
431.321	7043.99
431.528	7412.62
431.736	7918.47
431.943	8010.63
432.15	7830.41
432.358	7951.24
432.565	8412.03
432.772	8366.98
432.979	8915.83
433.187	9075.57
433.394	9007.99
433.601	9724.78
433.808	9732.97
434.016	9673.58
434.223	9909.1
434.43	10615.65
434.637	10447.71
434.844	11199.32
435.052	11082.58
435.259	11172.69
435.466	11221.84
435.673	11238.23
435.88	11928.39
436.087	12516.16
436.294	12712.77
436.501	12172.1
436.708	12493.63
436.915	12800.83
437.122	13490.99
437.329	13267.77
437.537	13927.21
437.743	14209.83
437.95	14021.42
438.157	14754.59
438.364	15530.77
438.571	15016.73
438.778	15196.95
438.985	16476.93
439.192	16147.21
439.399	16788.22
439.606	16050.96
439.813	17042.17
440.02	17873.65
440.227	17996.53
440.433	17679.09
440.64	18137.84
440.847	18275.05
441.054	18610.92
441.261	19542.74
441.467	19675.86
441.674	20167.37
441.881	20656.84
442.088	20507.34
442.294	20507.34
442.501	21017.28
442.708	21201.6
442.914	22039.22
443.121	23118.5
443.328	22475.43
443.534	24351.37
443.741	23491.23
443.948	22991.52
444.154	24924.8
444.361	24777.35
444.568	24539.79
444.774	24715.91
444.981	25172.61
445.187	26073.71
445.394	26757.74
445.6	26624.62
445.807	29227.59
446.013	27943.51
446.22	28330.58
446.426	29350.46
446.633	29878.84
446.839	30954.02
447.046	29895.22
447.252	31203.88
447.459	31259.17
447.665	31130.15
447.871	32510.48
448.078	33823.23
448.284	32223.76
448.491	33321.48
448.697	34204.15
448.903	34939.37
449.11	35197.41
449.316	34578.93
449.522	35303.91
449.728	36063.71
449.935	36192.73
450.141	36293.08
450.347	37001.68
450.553	35842.53
450.76	36592.08
450.966	37603.78
451.172	37013.96
451.378	38418.87
451.584	37245.38
451.791	38601.14
451.997	37960.12
452.203	38920.62
452.409	39006.64
452.615	38480.31
452.821	37413.32
453.027	36895.18
453.233	38857.14
453.44	37382.6
453.646	37495.24
453.852	38072.76
454.058	38377.91
454.264	37171.66
454.47	38033.85
454.676	37210.57
454.882	38494.64
455.088	35217.89
455.294	35731.93
455.5	36350.42
455.705	36354.52
455.911	35213.8
456.117	34374.13
456.323	34040.31
456.529	32055.83
456.735	33718.78
456.941	32739.85
457.147	32262.68
457.352	31336.99
457.558	30689.84
457.764	31314.47
457.97	30669.36
458.176	29827.64
458.381	29731.39
458.587	28232.27
458.793	28256.85
458.999	26720.87
459.204	28582.48
459.41	27900.5
459.616	25944.69
459.821	26088.05
460.027	25809.53
460.233	25457.28
460.438	24435.34
460.644	24545.93
460.85	23358.11
461.055	22866.6
461.261	22905.51
461.466	21072.57
461.672	20828.87
461.878	22293.16
462.083	20576.97
462.289	20206.28
462.494	20019.92
462.7	19036.89
462.905	18408.17
463.111	19550.93
463.316	19417.82
463.522	19133.15
463.727	19006.17
463.932	19002.08
464.138	19092.19
464.343	18961.12
464.549	18481.89
464.754	19000.03
464.959	18643.68
465.165	18664.16
465.37	17718
465.575	17427.19
465.781	17951.47
465.986	18207.47
466.191	17734.39
466.397	17117.95
466.602	16292.62
466.807	17160.95
467.012	16820.99
467.218	17103.61
467.423	16769.79
467.628	16784.13
467.833	17439.48
468.038	16835.33
468.244	16468.74
468.449	17044.22
468.654	16440.07
468.859	16321.29
469.064	16083.72
469.269	15665.94
469.474	15438.61
469.679	16237.32
469.885	15645.46
470.09	15774.48
470.295	15469.33
470.5	15231.77
470.705	15395.61
470.91	15248.15
471.115	14934.81
471.32	15305.49
471.525	15244.06
471.73	14656.29
471.935	14596.9
472.139	14328.61
472.344	14310.18
472.549	14318.37
472.754	14199.59
472.959	13882.16
473.164	13673.26
473.369	13431.6
473.574	13581.1
473.778	13808.43
473.983	13509.43
474.188	13734.7
474.393	13026.11
474.598	13024.06
474.802	12962.62
475.007	12741.44
475.212	12768.06
475.417	12276.55
475.621	12350.28
475.826	12424
476.031	12100.42
476.235	12032.84
476.44	12073.8
476.645	11895.63
476.849	11887.43
477.054	11864.91
477.259	11475.79
477.463	11563.86
477.668	11314
477.872	11494.22
478.077	11318.1
478.282	10910.55
478.486	11041.62
478.691	10810.2
478.895	10670.94
479.1	10865.5
479.304	10722.14
479.509	10484.58
479.713	10709.85
479.918	10498.91
480.122	10161
480.326	10224.48
480.531	10695.52
480.735	10277.73
480.94	10179.43
481.144	10552.16
481.348	9997.16
481.553	10167.14
481.757	9923.43
481.961	10132.33
482.166	10265.44
482.37	10060.65
482.574	9730.92
482.778	9720.68
482.983	10201.96
483.187	9976.68
483.391	9909.1
483.595	9968.49
483.8	9843.56
484.004	9804.65
484.208	10134.37
484.412	10081.13
484.616	9937.77
484.821	9911.14
485.025	9915.24
485.229	10220.39
485.433	9966.44
485.637	9923.43
485.841	9751.4
486.045	9855.85
486.249	9939.82
486.453	9851.75
486.657	9878.38
486.861	10081.13
487.065	9610.09
487.269	9933.67
487.473	9704.3
487.677	9839.47
487.881	10079.08
488.085	9814.89
488.289	10064.74
488.493	9997.16
488.697	9933.67
488.901	9991.02
489.105	10111.85
489.309	9982.82
489.512	10138.47
489.716	10138.47
489.92	10031.97
490.124	10064.74
490.328	10494.82
490.531	10113.89
490.735	10224.48
490.939	10408.8
491.143	10130.28
491.346	10400.61
491.55	10382.18
491.754	10335.07
491.958	10607.45
492.161	10492.77
492.365	10552.16
492.569	10511.2
492.772	10451.81
492.976	10625.89
493.18	10668.89
493.383	10607.45
493.587	10859.35
493.79	10836.83
493.994	10654.56
494.197	10957.66
494.401	11010.9
494.605	11154.26
494.808	11336.53
495.012	11324.24
495.215	11244.37
495.419	11459.41
495.622	11465.55
495.825	11553.62
496.029	11723.6
496.232	11756.36
496.436	11891.53
496.639	12165.96
496.843	12172.1
497.046	12165.96
497.249	12442.43
497.453	12483.39
497.656	12675.9
497.859	12694.33
498.063	12641.09
498.266	13034.3
498.469	12800.83
498.673	12964.67
498.876	13370.16
499.079	13599.54
499.282	13538.1
499.485	13884.2
499.689	13859.63
499.892	13755.18
500.095	13978.41
500.298	14338.85
500.501	14218.02
500.705	14551.84
500.908	14568.23
501.111	14840.61
501.314	15008.54
501.517	15420.18
501.72	15434.52
501.923	15256.34
502.126	15616.79
502.329	15735.57
502.532	15880.97
502.735	16255.75
502.938	16442.12
503.141	16218.89
503.344	16624.39
503.547	16677.63
503.75	16933.63
503.953	17246.97
504.156	17462.01
504.359	17529.59
504.562	17595.12
504.765	17869.55
504.968	18139.88
505.17	18096.88
505.373	18266.86
505.576	18760.42
505.779	18660.07
505.982	18842.34
506.185	18940.64
506.387	19219.16
506.59	19565.27
506.793	20046.54
506.996	19905.23
507.198	20390.6
507.401	20071.12
507.604	20470.47
507.807	20828.87
508.009	21078.72
508.212	20925.12
508.415	21611.19
508.617	21693.11
508.82	21430.97
509.022	21674.68
509.225	22176.43
509.428	22352.55
509.63	22354.6
509.833	22567.59
510.035	23163.55
510.238	22637.22
510.44	23157.41
510.643	23345.82
510.845	24035.99
511.048	23540.38
511.25	24113.81
511.453	24185.49
511.655	25109.12
511.858	24756.87
512.06	25031.3
512.262	24803.97
512.465	25322.11
512.667	25490.04
512.87	25719.42
513.072	26210.93
513.274	26120.82
513.477	26577.51
513.679	26419.82
513.881	26966.63
514.084	27386.46
514.286	26980.96
514.488	27382.37
514.69	28101.2
514.893	27980.37
515.095	28273.23
515.297	28490.32
515.499	28291.66
515.701	28904.01
515.904	28869.19
516.106	29071.94
516.308	29735.48
516.51	29667.9
516.712	30030.39
516.914	29905.46
517.116	30802.47
517.318	30757.42
517.52	30765.61
517.722	31373.86
517.925	30927.4
518.127	31470.11
518.329	32004.63
518.531	31492.64
518.733	32160.28
518.935	32500.24
519.136	32776.72
519.338	32846.35
519.54	33026.57
519.742	33518.08
519.944	33569.28
520.146	33749.5
520.348	34152.95
520.55	34273.78
520.752	34365.94
520.954	34941.42
521.155	34716.14
521.357	35246.57
521.559	35330.53
521.761	35889.63
521.963	35443.17
522.164	35797.47
522.366	35760.61
522.568	35940.83
522.77	36372.95
522.971	36876.75
523.173	36659.66
523.375	36962.76
523.576	36962.76
523.778	37239.24
523.98	37593.54
524.181	37544.39
524.383	37581.25
524.584	37822.91
524.786	37937.6
524.988	37923.26
525.189	38371.77
525.391	38439.35
525.592	38914.48
525.794	38713.78
525.995	39033.26
526.197	38865.33
526.398	39045.55
526.6	39360.94
526.801	39149.99
527.003	39489.96
527.204	39430.57
527.406	39590.31
527.607	39688.61
527.808	40079.77
528.01	39240.11
528.211	39508.39
528.412	40145.31
528.614	39901.6
528.815	40253.85
529.016	40675.73
529.218	40382.87
529.419	40513.94
529.62	40257.95
529.822	40257.95
530.023	40370.58
530.224	40253.85
530.425	40718.74
530.626	40507.8
530.828	40376.73
531.029	41177.48
531.23	40489.37
531.431	40479.13
531.632	40937.87
531.833	40923.54
532.035	40745.36
532.236	41025.93
532.437	41011.6
532.638	40614.29
532.839	41380.23
533.04	41298.31
533.241	40425.88
533.442	41494.92
533.643	41128.33
533.844	40933.78
534.045	40995.21
534.246	40880.53
534.447	40952.21
534.648	40778.13
534.849	41118.09
535.05	41085.33
535.251	40704.4
535.451	40788.37
535.652	41064.85
535.853	41093.52
536.054	40749.46
536.255	41249.16
536.456	40757.65
536.657	41177.48
536.857	41222.54
537.058	40567.19
537.259	41406.86
537.46	41314.7
537.66	40649.11
537.861	40964.49
538.062	40384.92
538.263	40941.97
538.463	40751.51
538.664	40702.35
538.865	41048.46
539.065	41251.21
539.266	40685.97
539.466	41152.91
539.667	40292.76
539.868	41406.86
540.068	40974.73
540.269	40782.23
540.469	41148.81
540.67	40808.85
540.87	40726.93
541.071	40761.75
541.271	40991.12
541.472	40610.2
541.672	40434.07
541.873	40413.59
542.073	40411.54
542.274	40673.68
542.474	40472.98
542.675	40483.22
542.875	41007.5
543.075	40880.53
543.276	39913.89
543.476	40579.48
543.676	40167.84
543.877	40432.02
544.077	40411.54
544.277	40812.95
544.478	40790.42
544.678	40487.32
544.878	40352.15
545.078	40569.24
545.279	40098.2
545.479	39963.04
545.679	40364.44
545.879	40118.68
546.079	40133.02
546.28	40171.93
546.48	40157.6
546.68	40141.21
546.88	40479.13
547.08	40520.09
547.28	40194.46
547.48	39756.19
547.68	39987.61
547.88	39655.84
548.081	40024.48
548.281	40147.36
548.481	40032.67
548.681	40014.24
548.881	40141.21
549.081	40038.81
549.28	40053.15
549.48	40368.54
549.68	39952.8
549.88	40511.89
550.08	39702.95
550.28	40108.44
550.48	40087.96
550.68	39795.1
550.88	39434.66
551.08	39627.17
551.279	40053.15
551.479	39815.58
551.679	39557.54
551.879	39887.26
552.079	39895.46
552.278	39442.85
552.478	39874.98
552.678	39932.32
552.878	40112.54
553.077	39782.82
553.277	39039.4
553.477	40151.45
553.676	39999.9
553.876	39979.42
554.076	39055.79
554.275	39737.76
554.475	39272.87
554.674	39807.39
554.874	39246.25
555.074	39471.53
555.273	39350.7
555.473	39616.93
555.672	39410.09
555.872	39311.78
556.071	39270.82
556.271	39752.1
556.47	39123.37
556.67	38959.53
556.869	39317.93
557.068	39291.3
557.268	38898.09
557.467	39043.5
557.667	38914.48
557.866	39115.18
558.065	39209.39
558.265	38676.91
558.464	38822.32
558.663	39262.63
558.863	38377.91
559.062	39147.95
559.261	38248.89
559.461	39033.26
559.66	38678.96
559.859	38922.67
560.058	38308.28
560.258	38662.58
560.457	38209.98
560.656	38863.28
560.855	38674.87
561.054	38453.69
561.253	37853.63
561.453	38085.05
561.652	38472.12
561.851	38707.63
562.05	38547.89
562.249	38508.98
562.448	38203.83
562.647	38156.73
562.846	37749.18
563.045	38117.82
563.244	37657.03
563.443	38558.13
563.642	37503.43
563.841	37605.83
564.04	37894.59
564.239	38150.59
564.438	37755.33
564.637	37550.53
564.836	37886.4
565.035	37546.44
565.234	37358.02
565.432	37528
565.631	37179.85
565.83	37644.74
566.029	37153.23
566.228	37351.88
566.427	37190.09
566.625	36739.54
566.824	36944.33
567.023	37550.53
567.222	36780.49
567.42	37272.01
567.619	36891.09
567.818	36807.12
568.016	36610.51
568.215	36973
568.414	36760.02
568.612	36860.37
568.811	36833.74
569.01	36729.3
569.208	36096.47
569.407	36796.88
569.605	36061.66
569.804	36612.56
570.002	36186.58
570.201	36477.4
570.4	36116.95
570.598	36383.19
570.797	35924.44
570.995	36215.26
571.193	35475.94
571.392	36092.38
571.59	35695.07
571.789	35535.33
571.987	35473.89
572.186	35566.05
572.384	35520.99
572.582	35672.54
572.781	35566.05
572.979	35027.43
573.177	35641.82
573.376	35490.27
573.574	35070.44
573.772	35140.07
573.971	35265
574.169	34650.61
574.367	34863.6
574.565	34841.07
574.763	34644.46
574.962	35103.21
575.16	34634.22
575.358	35176.94
575.556	34685.42
575.754	34662.9
575.952	34519.54
576.151	34818.54
576.349	34288.12
576.547	34290.16
576.745	34505.2
576.943	33991.16
577.141	34107.9
577.339	34376.18
577.537	34083.32
577.735	33954.3
577.933	33772.03
578.131	33731.07
578.329	33769.98
578.527	33479.17
578.725	33088.01
578.923	33391.11
579.121	33462.79
579.319	33540.61
579.516	33497.6
579.714	33141.25
579.912	33266.18
580.11	33096.2
580.308	33116.68
580.506	32909.83
580.704	32666.13
580.901	32707.08
581.099	32899.59
581.297	32631.31
581.495	32602.64
581.692	32885.26
581.89	32336.4
582.088	32764.43
582.285	32281.11
582.483	32571.92
582.681	32236.05
582.878	32289.3
583.076	32150.04
583.274	31996.44
583.471	31205.92
583.669	32016.92
583.866	31787.55
584.064	31814.17
584.262	31414.82
584.459	31582.75
584.657	31293.99
584.854	31732.25
585.052	31336.99
585.249	31549.98
585.447	31601.18
585.644	31081
585.841	31390.24
586.039	31304.23
586.236	30810.67
586.434	30734.89
586.631	30425.65
586.828	30677.55
587.026	30628.4
587.223	30632.49
587.42	30196.28
587.618	30710.32
587.815	29907.51
588.012	30298.67
588.21	30116.4
588.407	30335.54
588.604	29706.81
588.801	29418.05
588.999	30026.29
589.196	29999.67
589.393	29745.72
589.59	29270.59
589.787	29360.7
589.984	29672
590.182	29223.49
590.379	29352.51
590.576	29338.18
590.773	29487.68
590.97	29084.23
591.167	29133.38
591.364	28697.16
591.561	28858.95
591.758	28672.59
591.955	28426.83
592.152	28914.25
592.349	28426.83
592.546	28564.04
592.743	28830.28
592.94	28027.48
593.137	28525.13
593.334	28467.79
593.531	28004.95
593.727	28174.93
593.924	27884.12
594.121	27984.47
594.318	27877.97
594.515	27535.96
594.712	28015.19
594.908	27597.4
595.105	27517.53
595.302	27232.86
595.499	27591.26
595.696	27388.51
595.892	26870.37
596.089	27245.15
596.286	27359.84
596.482	27310.69
596.679	27097.7
596.876	27054.69
597.072	26931.81
597.269	26991.2
597.466	26292.85
597.662	26647.15
597.859	26681.96
598.055	26376.81
598.252	26172.02
598.448	26155.63
598.645	25905.78
598.841	25969.27
599.038	26188.4
599.234	25668.22
599.431	25762.42
599.627	26053.23
599.824	25764.47
600.02	25594.49
600.217	25752.18
600.413	25311.87
600.609	25170.56
600.806	25432.7
601.002	25457.28
601.198	25225.86
601.395	25205.38
601.591	25207.42
601.787	25045.63
601.984	25092.74
602.18	25057.92
602.376	24484.49
602.572	24752.77
602.769	24547.98
602.965	24476.3
603.161	24695.43
603.357	24351.37
603.553	24496.78
603.75	24416.91
603.946	24257.17
604.142	24431.24
604.338	23906.96
604.534	24162.96
604.73	23909.01
604.926	23528.09
605.122	24083.09
605.318	23913.11
605.514	23612.06
605.71	23411.35
605.906	23585.43
606.102	23626.39
606.298	23454.36
606.494	23351.96
606.69	23337.63
606.886	23311
607.082	23091.87
607.278	23194.27
607.474	23024.29
607.67	23155.36
607.866	22866.6
608.062	22995.62
608.257	22995.62
608.453	22915.75
608.649	22737.57
608.845	22948.51
609.041	22973.09
609.236	22622.89
609.432	22876.83
609.628	22864.55
609.824	22354.6
610.019	22309.55
610.215	22467.24
610.411	22586.02
610.606	22438.57
610.802	22123.18
610.998	22069.94
611.193	22239.92
611.389	22295.21
611.584	22198.96
611.78	21834.42
611.976	22182.57
612.171	22110.89
612.367	21938.87
612.562	22198.96
612.758	21947.06
612.953	21889.71
613.149	22084.27
613.344	21553.85
613.539	22012.59
613.735	21922.48
613.93	22010.54
614.126	21600.95
614.321	21615.29
614.517	21676.73
614.712	21406.39
614.907	21447.35
615.103	21494.46
615.298	21361.34
615.493	21605.05
615.688	21238.46
615.884	21689.01
616.079	21258.94
616.274	21426.87
616.47	20921.02
616.665	21258.94
616.86	21193.4
617.055	21037.76
617.25	20972.22
617.445	21113.53
617.641	20806.34
617.836	21267.13
618.031	20595.4
618.226	21142.21
618.421	20503.24
618.616	20929.22
618.811	20636.36
619.006	20656.84
619.201	20325.07
619.396	20390.6
619.591	20021.97
619.786	20386.5
619.981	19931.86
620.176	20079.31
620.371	19993.29
620.566	20069.07
620.761	19946.19
620.956	19985.1
621.151	19389.14
621.346	19741.39
621.541	19055.33
621.735	19378.9
621.93	19290.84
622.125	19147.48
622.32	18897.63
622.515	19079.9
622.709	18813.66
622.904	19145.44
623.099	18545.38
623.294	18801.38
623.488	18608.87
623.683	18649.83
623.878	18008.81
624.072	18322.15
624.267	18424.55
624.462	18068.2
624.656	17949.42
624.851	18019.05
625.046	17883.89
625.24	17847.02
625.435	17654.51
625.629	17517.3
625.824	17464.05
626.018	17599.22
626.213	17230.59
626.407	17421.05
626.602	16997.12
626.796	17001.21
626.991	17111.8
627.185	16878.33
627.38	16837.38
627.574	16618.24
627.768	16374.53
627.963	16548.61
628.157	16329.48
628.352	16388.87
628.546	16005.9
628.74	16345.86
628.935	15923.98
629.129	16020.24
629.323	15850.25
629.517	15975.18
629.712	15735.57
629.906	15438.61
630.1	15520.53
630.294	15512.34
630.489	15221.53
630.683	15477.52
630.877	15207.19
631.071	15196.95
631.265	15168.28
631.459	14881.56
631.653	14850.85
631.848	14846.75
632.042	14811.93
632.236	14758.69
632.43	14517.03
632.624	14584.61
632.818	14603.04
633.012	14263.08
633.206	14234.41
633.4	14529.31
633.594	13978.41
633.788	14144.3
633.982	14150.44
634.176	14076.71
634.369	13888.3
634.563	13919.02
634.757	13779.76
634.951	13814.57
635.145	13685.55
635.339	13894.44
635.533	13394.74
635.726	13583.15
635.92	13220.66
636.114	13382.45
636.308	13196.09
636.501	13306.68
636.695	12991.29
636.889	13071.16
637.083	12768.06
637.276	12772.16
637.47	12718.91
637.664	12895.04
637.857	12778.3
638.051	12798.78
638.244	12606.27
638.438	12661.57
638.632	12489.54
638.825	12329.8
639.019	12198.73
639.212	12264.26
639.406	12131.14
639.599	12102.47
639.793	12276.55
639.986	12063.56
640.18	12155.72
640.373	11909.96
640.567	11658.06
640.76	12032.84
640.954	11776.84
641.147	11723.6
641.34	11535.18
641.534	11565.9
641.727	11463.51
641.92	11526.99
642.114	11342.67
642.307	11211.6
642.5	11291.48
642.694	11141.97
642.887	11191.13
643.08	11322.2
643.273	11117.4
643.467	10802.01
643.66	10963.8
643.853	10974.04
644.046	10679.13
644.239	10777.44
644.432	10799.96
644.626	10582.88
644.819	10644.32
645.012	10718.04
645.205	10533.73
645.398	10519.39
645.591	10384.23
645.784	10347.36
645.977	10283.88
646.17	10316.64
646.363	10081.13
646.556	10175.33
646.749	10134.37
646.942	10011.5
647.135	9896.81
647.328	9814.89
647.521	9845.61
647.714	9726.83
647.907	9806.7
648.099	9673.58
648.292	9681.77
648.485	9501.55
648.678	9620.33
648.871	9485.17
649.064	9470.83
649.256	9491.31
649.449	9380.72
649.642	9263.99
649.835	9374.58
650.027	9253.75
650.22	9102.2
650.413	9165.68
650.605	9141.11
650.798	8954.74
650.991	8946.55
651.183	9014.13
651.376	8833.91
651.568	9108.34
651.761	8962.94
651.954	8840.06
652.146	8848.25
652.339	8582.01
652.531	8678.27
652.724	8629.12
652.916	8401.79
653.109	8448.9
653.301	8549.25
653.494	8602.49
653.686	8219.52
653.879	8422.27
654.071	8244.1
654.263	8266.63
654.456	8231.81
654.648	8235.91
654.84	8108.93
655.033	8088.45
655.225	8160.13
655.417	7775.11
655.61	7908.23
655.802	7916.42
655.994	7857.03
656.186	7744.39
656.379	7908.23
656.571	7719.82
656.763	7463.82
656.955	7668.62
657.148	7748.49
657.34	7674.76
657.532	7611.28
657.724	7547.79
657.916	7574.41
658.108	7383.95
658.3	7476.11
658.492	7267.22
658.684	7263.12
658.876	7246.74
659.068	7386
659.26	7158.67
659.452	7328.66
659.644	7132.05
659.836	6988.69
660.028	7134.1
660.22	7052.18
660.412	6945.69
660.604	6857.62
660.796	6966.17
660.988	6792.09
661.18	6874.01
661.372	6841.24
661.563	6925.21
661.755	6744.99
661.947	6835.1
662.139	6738.84
662.331	6630.3
662.522	6622.11
662.714	6585.24
662.906	6577.05
663.097	6589.34
663.289	6337.44
663.481	6470.56
663.673	6542.24
663.864	6343.58
664.056	6464.41
664.247	6452.13
664.439	6335.39
664.631	6349.73
664.822	6284.19
665.014	6192.03
665.205	6142.88
665.397	6114.21
665.588	6054.82
665.78	6015.91
665.971	5925.8
666.163	5927.85
666.354	5968.8
666.546	5825.45
666.737	5899.17
666.929	5901.22
667.12	5888.93
667.311	5954.47
667.503	5825.45
667.694	5766.06
667.885	5761.96
668.077	5692.33
668.268	5598.12
668.459	5626.79
668.651	5637.03
668.842	5624.75
669.033	5596.07
669.224	5571.5
669.416	5626.79
669.607	5538.73
669.798	5602.22
669.989	5524.4
670.18	5315.5
670.371	5524.4
670.563	5335.98
670.754	5344.17
670.945	5362.61
671.136	5295.02
671.327	5227.44
671.518	5385.13
671.709	5313.45
671.9	5335.98
672.091	5106.61
672.282	5143.47
672.473	5129.14
672.664	5096.37
672.855	5106.61
673.046	5170.1
673.237	5116.85
673.428	5096.37
673.619	5061.55
673.809	5133.23
674	4918.2
674.191	4981.68
674.382	4973.49
674.573	4821.94
674.764	4842.42
674.954	4887.48
675.145	4703.16
675.336	4885.43
675.527	4811.7
675.717	4942.77
675.908	4801.46
676.099	4559.8
676.289	4721.59
676.48	4723.64
676.671	4744.12
676.861	4797.37
677.052	4703.16
677.243	4555.71
677.433	4627.39
677.624	4563.9
677.814	4557.75
678.005	4643.77
678.195	4539.32
678.386	4486.08
678.576	4367.29
678.767	4328.38
678.957	4418.49
679.148	4467.64
679.338	4445.12
679.529	4498.36
679.719	4363.2
679.909	4518.84
680.1	4426.68
680.29	4584.38
680.481	4381.63
680.671	4510.65
680.861	4451.26
681.052	4467.64
681.242	4385.73
681.432	4398.01
681.622	4393.92
681.813	4361.15
682.003	4150.21
682.193	4279.23
682.383	4295.61
682.573	4283.33
682.764	4402.11
682.954	4414.4
683.144	4277.18
683.334	4185.02
683.524	4115.39
683.714	4250.56
683.904	4150.21
684.094	4119.49
684.284	4015.04
684.474	4152.26
684.664	4193.22
684.854	4131.78
685.044	4021.19
685.234	3761.09
685.424	4010.95
685.614	3947.46
685.804	4051.91
685.994	4037.57
686.184	4092.87
686.374	3959.75
686.564	3881.92
686.753	3877.83
686.943	3810.25
687.133	3828.68
687.323	3795.91
687.513	3898.31
687.702	3781.57
687.892	3800.01
688.082	3806.15
688.272	3943.36
688.461	3832.77
688.651	3787.72
688.841	3513.29
689.03	3816.39
689.22	3595.21
689.41	3634.12
689.599	3595.21
689.789	3660.74
689.979	3566.54
690.168	3640.26
690.358	3386.32
690.547	3568.59
690.737	3484.62
690.926	3478.47
691.116	3484.62
691.305	3462.09
691.495	3474.38
691.684	3429.32
691.874	3417.04
692.063	3521.48
692.252	3425.23
692.442	3449.8
692.631	3285.97
692.82	3191.76
693.01	3343.31
693.199	3257.29
693.388	3187.66
693.578	3247.05
693.767	3322.83
693.956	3232.72
694.146	3257.29
694.335	3189.71
694.524	3130.32
694.713	3232.72
694.902	3138.51
695.092	3054.55
695.281	3187.66
695.47	3040.21
695.659	3038.16
695.848	3001.3
696.037	2974.67
696.226	3097.55
696.415	2980.82
696.604	2960.34
696.793	3015.63
696.982	2956.24
697.171	2966.48
697.36	2978.77
697.549	2876.37
697.738	2763.73
697.927	2839.51
698.116	2835.41
698.305	2876.37
698.494	2956.24
698.683	2759.64
698.872	2831.32
699.061	2737.11
699.25	2823.12
699.438	2655.19
699.627	2792.41
699.816	2698.2
700.005	2565.08
700.193	2661.34
700.382	2706.39
700.571	2692.05
700.76	2687.96
700.948	2653.14
701.137	2720.73
701.326	2642.9
701.514	2610.14
701.703	2741.21
701.892	2556.89
702.08	2698.2
702.269	2679.77
702.457	2628.57
702.646	2587.61
702.834	2608.09
703.023	2692.05
703.212	2556.89
703.4	2538.46
703.589	2470.87
703.777	2499.55
703.965	2368.48
704.154	2632.66
704.342	2391
704.531	2579.42
704.719	2550.75
704.907	2534.36
705.096	2460.63
705.284	2470.87
705.472	2573.27
705.661	2501.59
705.849	2436.06
706.037	2491.35
706.226	2493.4
706.414	2339.8
706.602	2448.35
706.79	2448.35
706.979	2479.07
707.167	2477.02
707.355	2413.53
707.543	2335.71
707.731	2450.39
707.919	2331.61
708.107	2391
708.296	2331.61
708.484	2477.02
708.672	2368.48
708.86	2386.91
709.048	2366.43
709.236	2411.48
709.424	2337.76
709.612	2329.56
709.8	2374.62
709.988	2421.72
710.176	2300.89
710.364	2317.28
710.551	2321.37
710.739	2298.84
710.927	2419.68
711.115	2517.98
711.303	2331.61
711.491	2259.93
711.679	2317.28
711.866	2311.13
712.054	2335.71
712.242	2319.32
712.43	2335.71
712.617	2229.21
712.805	2315.23
712.993	2327.52
713.181	2251.74
713.368	2337.76
713.556	2235.36
713.744	2200.54
713.931	2270.17
714.119	2309.08
714.306	2307.04
714.494	2182.11
714.682	2161.63
714.869	2288.61
715.057	2292.7
715.244	2221.02
715.432	2276.32
715.619	2223.07
715.807	2304.99
715.994	2225.12
716.182	2196.45
716.369	2155.49
716.556	2313.18
716.744	2237.41
716.931	2253.79
717.119	2196.45
717.306	2200.54
717.493	2145.25
717.681	2178.01
717.868	2237.41
718.055	2212.83
718.242	2159.58
718.43	2225.12
718.617	2196.45
718.804	2223.07
718.991	2149.34
719.179	2200.54
719.366	2190.3
719.553	2184.16
719.74	2128.86
719.927	2092
720.114	2122.72
720.301	2186.21
720.488	2161.63
720.676	2132.96
720.863	2218.97
721.05	2149.34
721.237	2212.83
721.424	2182.11
721.611	2264.03
721.798	2081.76
721.985	2063.33
722.172	2218.97
722.358	2106.34
722.545	2124.77
722.732	2147.3
722.919	2178.01
723.106	2132.96
723.293	2096.1
723.48	2145.25
723.667	2094.05
723.853	2208.73
724.04	2173.92
724.227	2182.11
724.414	2276.32
724.6	2139.1
724.787	2135.01
724.974	2227.17
725.161	2118.62
725.347	2200.54
725.534	2112.48
725.72	2171.87
725.907	2210.78
726.094	2198.49
726.28	2083.81
726.467	2137.06
726.653	2089.95
726.84	1995.75
727.027	2106.34
727.213	2114.53
727.4	2169.82
727.586	2130.91
727.773	2106.34
727.959	2130.91
728.145	2069.47
728.332	2157.54
728.518	2087.9
728.705	2075.62
728.891	2169.82
729.077	2167.77
729.264	2126.82
729.45	2206.69
729.636	2143.2
729.823	2161.63
730.009	2304.99
730.195	2116.58
730.382	2216.93
730.568	2067.42
730.754	2087.9
730.94	2100.19
731.126	2237.41
731.313	2251.74
731.499	2151.39
731.685	2280.41
731.871	2126.82
732.057	2206.69
732.243	2204.64
732.429	2175.97
732.615	2085.86
732.801	2214.88
732.987	2137.06
733.173	2188.25
733.359	2208.73
733.545	2069.47
733.731	2182.11
733.917	2206.69
734.103	2261.98
734.289	2288.61
734.475	2175.97
734.661	2249.69
734.847	2225.12
735.033	2145.25
735.219	2276.32
735.404	2298.84
735.59	2218.97
735.776	2241.5
735.962	2286.56
736.148	2173.92
736.333	2169.82
736.519	2223.07
736.705	2223.07
736.89	2247.65
737.076	2073.57
737.262	2241.5
737.447	2173.92
737.633	2155.49
737.819	2092
738.004	2171.87
738.19	2190.3
738.375	2255.84
738.561	2259.93
738.747	2130.91
738.932	2239.45
739.118	2247.65
739.303	2206.69
739.489	2264.03
739.674	2073.57
739.859	2106.34
740.045	2321.37
740.23	2200.54
740.416	2075.62
740.601	2264.03
740.786	2180.06
740.972	2159.58
741.157	2186.21
741.342	2208.73
741.528	2110.43
741.713	2194.4
741.898	2161.63
742.084	2231.26
742.269	2227.17
742.454	2196.45
742.639	2106.34
742.824	2110.43
743.01	2304.99
743.195	2169.82
743.38	2145.25
743.565	2169.82
743.75	2079.71
743.935	2106.34
744.12	2157.54
744.305	2089.95
744.49	2100.19
744.675	2149.34
744.86	2012.13
745.045	2173.92
745.23	2104.29
745.415	2110.43
745.6	2020.32
745.785	2073.57
745.97	2167.77
746.155	2087.9
746.34	2092
746.525	2108.38
746.71	2096.1
746.895	2046.94
747.079	2024.42
747.264	1991.65
747.449	2077.66
747.634	1940.45
747.819	1979.36
748.003	2044.9
748.188	1909.73
748.373	2008.03
748.557	2036.7
748.742	1987.55
748.927	1983.46
749.111	1950.69
749.296	1874.92
749.481	1956.83
749.665	1942.5
749.85	2005.99
750.034	1940.45
750.219	1924.07
750.404	1850.34
750.588	1858.53
750.773	1813.48
750.957	1862.63
751.141	1799.14
751.326	1827.81
751.51	1840.1
751.695	1793
751.879	1754.09
752.064	1883.11
752.248	1819.62
752.432	1838.05
752.617	1749.99
752.801	1833.96
752.985	1702.89
753.17	1864.68
753.354	1719.27
753.538	1782.76
753.722	1807.33
753.907	1829.86
754.091	1702.89
754.275	1633.26
754.459	1774.56
754.643	1670.12
754.828	1747.94
755.012	1596.39
755.196	1692.65
755.38	1643.49
755.564	1643.49
755.748	1629.16
755.932	1686.5
756.116	1565.67
756.3	1653.73
756.484	1543.14
756.668	1485.8
756.852	1575.91
757.036	1537
757.22	1637.35
757.404	1504.23
757.588	1465.32
757.772	1459.18
757.956	1518.57
758.14	1577.96
758.323	1580.01
758.507	1537
758.691	1358.83
758.875	1606.63
759.059	1489.9
759.242	1491.95
759.426	1502.19
759.61	1453.03
759.794	1422.31
759.977	1477.61
760.161	1520.62
760.345	1418.22
760.528	1426.41
760.712	1385.45
760.895	1377.26
761.079	1350.64
761.263	1416.17
761.446	1358.83
761.63	1266.67
761.813	1438.7
761.997	1291.24
762.18	1395.69
762.364	1401.83
762.547	1373.16
762.731	1344.49
762.914	1440.75
763.098	1367.02
763.281	1315.82
763.464	1352.68
763.648	1268.72
763.831	1336.3
764.015	1274.86
764.198	1147.89
764.381	1274.86
764.564	1270.76
764.748	1274.86
764.931	1260.52
765.114	1223.66
765.297	1303.53
765.481	1201.13
765.664	1192.94
765.847	1295.34
766.03	1285.1
766.213	1309.68
766.397	1264.62
766.58	1176.56
766.763	1219.57
766.946	1184.75
767.129	1194.99
767.312	1117.17
767.495	1158.13
767.678	1055.73
767.861	1211.37
768.044	1192.94
768.227	1111.02
768.41	1139.69
768.593	1172.46
768.776	1090.54
768.959	1156.08
769.142	1149.93
769.324	1090.54
769.507	1139.69
769.69	1133.55
769.873	1088.5
770.056	1147.89
770.239	1137.65
770.421	1123.31
770.604	1137.65
770.787	1129.45
770.97	1049.58
771.152	1035.25
771.335	1072.11
771.518	1137.65
771.7	1053.68
771.883	1121.26
772.066	1115.12
772.248	1119.21
772.431	1070.06
772.613	1002.48
772.796	1037.3
772.978	1059.82
773.161	1072.11
773.343	1074.16
773.526	1029.1
773.708	951.28
773.891	859.12
774.073	1020.91
774.256	1037.3
774.438	984.05
774.621	941.04
774.803	959.47
774.985	996.34
775.168	922.61
775.35	906.23
775.532	1008.62
775.715	969.71
775.897	938.99
776.079	871.41
776.261	930.8
776.444	945.14
776.626	869.36
776.808	861.17
776.99	877.55
777.173	873.46
777.355	861.17
777.537	895.99
777.719	986.1
777.901	926.71
778.083	932.85
778.265	857.07
778.447	898.03
778.629	861.17
778.811	814.07
778.993	867.31
779.175	889.84
779.357	859.12
779.539	775.16
779.721	769.01
779.903	758.77
780.085	769.01
780.267	830.45
780.449	807.92
780.631	762.87
780.812	809.97
780.994	762.87
781.176	744.44
781.358	805.88
781.54	797.68
781.721	685.05
781.903	719.86
782.085	758.77
782.267	750.58
782.448	687.09
782.63	736.24
782.812	662.52
782.993	623.61
783.175	670.71
783.357	562.17
783.538	627.7
783.72	592.89
783.901	642.04
784.083	666.61
784.264	658.42
784.446	695.29
784.627	635.89
784.809	683
784.99	633.85
785.172	697.33
785.353	617.46
785.535	586.74
785.716	566.26
785.897	529.4
786.079	545.78
786.26	607.22
786.441	517.11
786.623	478.2
786.804	611.32
786.985	537.59
787.167	488.44
787.348	502.78
787.529	508.92
787.71	672.76
787.891	560.12
788.073	525.3
788.254	476.15
788.435	478.2
788.616	521.21
788.797	484.34
788.978	523.26
789.159	560.12
789.34	486.39
789.522	459.77
789.703	525.3
789.884	480.25
790.065	508.92
790.246	537.59
790.427	496.63
790.607	422.91
790.788	453.63
790.969	447.48
791.15	496.63
791.331	396.28
791.512	412.67
791.693	486.39
791.874	453.63
792.054	510.97
792.235	439.29
792.416	400.38
792.597	455.67
792.778	461.82
792.958	410.62
793.139	427
793.32	457.72
793.5	375.8
793.681	443.39
793.862	427
794.042	361.47
794.223	330.75
794.404	394.23
794.584	420.86
794.765	408.57
794.945	357.37
795.126	412.67
795.306	427
795.487	392.19
795.667	383.99
795.848	361.47
796.028	259.07
796.209	404.47
796.389	416.76
796.57	320.51
796.75	318.46
796.93	334.84
797.111	388.09
797.291	312.32
797.471	398.33
797.652	414.71
797.832	261.12
798.012	427
798.192	373.75
798.373	408.57
798.553	281.6
798.733	322.56
798.913	343.03
799.093	369.66
799.274	320.51
799.454	351.23
799.634	332.79
799.814	353.27
799.994	355.32
800.174	259.07
800.354	336.89
800.534	273.4
800.714	334.84
800.894	369.66
801.074	289.79
801.254	283.64
801.434	343.03
801.614	359.42
801.794	300.03
801.974	912.37
802.154	287.74
802.334	345.08
802.514	328.7
802.693	277.5
802.873	293.88
803.053	273.4
803.233	324.6
803.413	261.12
803.592	246.78
803.772	302.08
803.952	283.64
804.131	322.56
804.311	336.89
804.491	244.73
804.67	222.2
804.85	273.4
805.03	267.26
805.209	218.11
805.389	293.88
805.568	304.12
805.748	216.06
805.928	232.44
806.107	234.49
806.287	222.2
806.466	269.31
806.646	304.12
806.825	257.02
807.004	234.49
807.184	226.3
807.363	261.12
807.543	316.41
807.722	259.07
807.901	254.97
808.081	269.31
808.26	177.15
808.439	271.36
808.619	236.54
808.798	257.02
808.977	289.79
809.156	297.98
809.336	322.56
809.515	234.49
809.694	211.96
809.873	240.64
810.052	312.32
810.231	228.35
810.411	189.44
810.59	248.83
810.769	148.48
810.948	214.01
811.127	226.3
811.306	195.58
811.485	257.02
811.664	289.79
811.843	234.49
812.022	207.87
812.201	197.63
812.38	248.83
812.559	175.1
812.737	207.87
812.916	125.95
813.095	209.92
813.274	252.92
813.453	179.2
813.632	197.63
813.811	244.73
813.989	166.91
814.168	226.3
814.347	179.2
814.526	138.24
814.704	191.49
814.883	218.11
815.062	125.95
815.24	285.69
815.419	140.29
815.598	257.02
815.776	220.16
815.955	140.29
816.133	97.28
816.312	193.53
816.49	211.96
816.669	148.48
816.847	216.06
817.026	220.16
817.204	156.67
817.383	218.11
817.561	171.01
817.74	218.11
817.918	171.01
818.097	158.72
818.275	173.05
818.453	209.92
818.632	132.09
818.81	199.68
818.988	125.95
819.167	242.68
819.345	158.72
819.523	109.57
819.701	205.82
819.879	211.96
820.058	171.01
820.236	228.35
820.414	214.01
820.592	128
820.77	150.53
820.948	156.67
821.127	177.15
821.305	222.2
821.483	216.06
821.661	183.29
821.839	175.1
822.017	136.19
822.195	175.1
822.373	201.72
822.551	164.86
822.729	177.15
822.907	130.05
823.085	115.71
823.262	132.09
823.44	173.05
823.618	119.81
823.796	146.43
823.974	103.42
824.152	80.89
824.329	125.95
824.507	48.13
824.685	162.81
824.863	115.71
825.04	175.1
825.218	117.76
825.396	136.19
825.574	181.25
825.751	144.38
825.929	128
826.107	156.67
826.284	156.67
826.462	113.66
826.639	41.98
826.817	37.89
826.994	189.44
827.172	242.68
827.349	107.52
827.527	148.48
827.704	140.29
827.882	76.8
828.059	117.76
828.237	115.71
828.414	130.05
828.591	78.85
828.769	160.77
828.946	156.67
829.124	166.91
829.301	109.57
829.478	95.23
829.655	168.96
829.833	97.28
830.01	31.74
830.187	132.09
830.364	52.22
830.542	173.05
830.719	140.29
830.896	142.33
831.073	111.61
831.25	150.53
831.427	128
831.604	113.66
831.782	99.33
831.959	84.99
832.136	113.66
832.313	138.24
832.49	117.76
832.667	91.13
832.844	48.13
833.021	175.1
833.198	101.37
833.374	99.33
833.551	140.29
833.728	56.32
833.905	89.09
834.082	160.77
834.259	95.23
834.436	105.47
834.612	27.65
834.789	152.57
834.966	44.03
835.143	99.33
835.319	121.85
835.496	185.34
835.673	78.85
835.85	144.38
836.026	171.01
836.203	89.09
836.38	97.28
836.556	117.76
836.733	76.8
836.909	162.81
837.086	60.42
837.262	99.33
837.439	54.27
837.616	31.74
837.792	76.8
837.968	62.46
838.145	76.8
838.321	103.42
838.498	68.61
838.674	84.99
838.851	58.37
839.027	103.42
839.203	125.95
839.38	62.46
839.556	91.13
839.732	162.81
839.909	66.56
840.085	152.57
840.261	60.42
840.437	93.18
840.614	138.24
840.79	121.85
840.966	105.47
841.142	113.66
841.318	132.09
841.494	179.2
841.671	64.51
841.847	29.7
842.023	105.47
842.199	105.47
842.375	93.18
842.551	31.74
842.727	-13.31
842.903	162.81
843.079	58.37
843.255	107.52
843.431	64.51
843.607	50.18
843.783	15.36
843.959	78.85
844.134	46.08
844.31	115.71
844.486	37.89
844.662	33.79
844.838	1.02
845.013	80.89
845.189	84.99
845.365	105.47
845.541	134.14
845.716	121.85
845.892	109.57
846.068	27.65
846.244	62.46
846.419	109.57
846.595	-7.17
846.77	130.05
846.946	54.27
847.122	33.79
847.297	-9.22
847.473	140.29
847.648	33.79
847.824	80.89
847.999	17.41
848.175	101.37
848.35	33.79
848.526	44.03
848.701	33.79
848.876	48.13
849.052	60.42
849.227	-1.02
849.403	33.79
849.578	35.84
849.753	52.22
849.929	80.89
850.104	3.07
850.279	123.9
850.454	48.13
850.63	93.18
850.805	46.08
850.98	54.27
851.155	39.94
851.33	142.33
851.505	15.36
851.681	134.14
851.856	60.42
852.031	5.12
852.206	95.23
852.381	-1.02
852.556	62.46
852.731	7.17
852.906	72.7
853.081	-11.26
853.256	41.98
853.431	25.6
853.606	3.07
853.781	27.65
853.956	-29.7
854.131	97.28
854.305	91.13
854.48	25.6
854.655	35.84
854.83	50.18
855.005	11.26
855.18	39.94
855.354	-13.31
855.529	-3.07
855.704	58.37
855.879	68.61
856.053	52.22
856.228	101.37
856.403	48.13
856.577	82.94
856.752	41.98
856.926	95.23
857.101	84.99
857.276	-68.61
857.45	134.14
857.625	82.94
857.799	68.61
857.974	23.55
858.148	46.08
858.323	50.18
858.497	-1.02
858.672	-13.31
858.846	-25.6
859.02	17.41
859.195	9.22
859.369	29.7
859.543	-39.94
859.718	25.6
859.892	48.13
860.066	31.74
860.241	62.46
860.415	-7.17
860.589	21.5
860.763	-27.65
860.938	-11.26
861.112	95.23
861.286	-7.17
861.46	9.22
861.634	74.75
861.808	48.13
861.982	93.18
862.157	-1.02
862.331	-11.26
862.505	39.94
862.679	-3.07
862.853	-7.17
863.027	50.18
863.201	95.23
863.375	-3.07
863.549	117.76
863.722	70.65
863.896	-9.22
864.07	5.12
864.244	58.37
864.418	37.89
864.592	41.98
864.766	-29.7
864.939	13.31
865.113	66.56
865.287	128
865.461	13.31
865.634	91.13
865.808	-13.31
865.982	11.26
866.156	48.13
866.329	70.65
866.503	27.65
866.676	123.9
866.85	62.46
867.024	80.89
867.197	13.31
867.371	82.94
867.544	11.26
867.718	33.79
867.891	87.04
868.065	21.5
868.238	-15.36
868.412	74.75
868.585	19.46
868.759	5.12
868.932	-11.26
869.105	1.02
869.279	39.94
869.452	-31.74
869.625	3.07
869.799	17.41
869.972	9.22
870.145	-3.07
870.319	25.6
870.492	25.6
870.665	13.31
870.838	-9.22
871.011	-31.74
871.185	-27.65
871.358	62.46
871.531	15.36
871.704	-29.7
871.877	54.27
872.05	-3.07
872.223	27.65
872.396	1.02
872.569	-15.36
872.742	-11.26
872.915	27.65
873.088	31.74
873.261	54.27
873.434	48.13
873.607	-3.07
873.78	15.36
873.953	44.03
874.126	13.31
874.299	11.26
874.471	-7.17
874.644	-56.32
874.817	56.32
874.99	33.79
875.163	-31.74
875.335	11.26
875.508	-1.02
875.681	31.74
875.853	11.26
876.026	27.65
876.199	39.94
876.371	-11.26
876.544	58.37
876.717	-29.7
876.889	-17.41
877.062	33.79
877.234	33.79
877.407	44.03
877.579	60.42
877.752	17.41
877.924	15.36
878.097	48.13
878.269	-3.07
878.442	39.94
878.614	66.56
878.786	84.99
878.959	62.46
879.131	-23.55
879.303	58.37
879.476	31.74
879.648	52.22
879.82	-66.56
879.993	-25.6
880.165	-58.37
880.337	11.26
880.509	-29.7
880.681	-5.12
880.854	15.36
881.026	17.41
881.198	82.94
881.37	-9.22
881.542	-15.36
881.714	25.6
881.886	21.5
882.058	5.12
882.23	-50.18
882.402	27.65
882.574	25.6
882.746	27.65
882.918	50.18
883.09	33.79
883.262	50.18
883.434	9.22
883.606	41.98
883.778	-13.31
883.95	99.33
884.122	3.07
884.293	15.36
884.465	109.57
884.637	64.51
884.809	66.56
884.98	7.17
885.152	58.37
885.324	66.56
885.496	35.84
885.667	41.98
885.839	54.27
886.011	17.41
886.182	70.65
886.354	107.52
886.525	-11.26
886.697	29.7
886.869	70.65
887.04	19.46
887.212	58.37
887.383	105.47
887.555	39.94
887.726	56.32
887.897	82.94
888.069	-1.02
888.24	58.37
888.412	-9.22
888.583	-17.41
888.754	93.18
888.926	-23.55
889.097	19.46
889.268	103.42
889.44	31.74
889.611	-9.22
889.782	-29.7
889.953	-1.02
890.125	89.09
890.296	-29.7
890.467	76.8
890.638	-27.65
890.809	68.61
890.98	76.8
891.151	-23.55
891.323	78.85
891.494	-23.55
891.665	-17.41
891.836	46.08
892.007	15.36
892.178	107.52
892.349	68.61
892.52	-3.07
892.691	41.98
892.862	-17.41
893.032	-33.79
893.203	68.61
893.374	13.31
893.545	11.26
893.716	41.98
893.887	64.51
894.057	27.65
894.228	23.55
894.399	33.79
894.57	89.09
894.74	1.02
894.911	29.7
895.082	-23.55
895.253	-15.36
895.423	-11.26
895.594	17.41
895.764	60.42
895.935	25.6
896.106	-13.31
896.276	1.02
896.447	1.02
896.617	-27.65
896.788	-23.55
896.958	-3.07
897.129	17.41
897.299	-56.32
897.47	7.17
897.64	46.08
897.81	29.7
897.981	25.6
898.151	-19.46
898.322	21.5
898.492	-44.03
898.662	46.08
898.832	19.46
899.003	3.07
899.173	58.37
899.343	1.02
899.513	-35.84
