Data from USB4F104151__86__12-42-32-476.txt Node

Date: Fri Mar 14 12:42:32 EDT 2025
User: louis
Spectrometer: USB4F10415
Trigger mode: 4
Integration Time (sec): 3.000000E-2
Scans to average: 1
Electric dark correction enabled: true
Nonlinearity correction enabled: false
Boxcar width: 0
XAxis mode: Wavelengths
Number of Pixels in Spectrum: 3648
>>>>>Begin Spectral Data<<<<<
178.204	-84.31
178.424	-84.31
178.644	-84.31
178.864	-135.51
179.084	-129.36
179.304	-51.54
179.524	-31.06
179.744	50.86
179.964	28.33
180.184	34.47
180.404	20.14
180.624	-10.58
180.844	-4.44
181.064	-20.82
181.283	9.9
181.503	-0.34
181.723	-24.92
181.943	1.71
182.163	140.97
182.383	20.14
182.602	120.49
182.822	7.85
183.042	100.01
183.262	-29.01
183.482	91.82
183.701	-12.63
183.921	-0.34
184.141	-31.06
184.361	100.01
184.58	34.47
184.8	57
185.02	-55.64
185.239	32.43
185.459	54.95
185.679	7.85
185.898	-69.97
186.118	11.95
186.338	32.43
186.557	54.95
186.777	-10.58
186.997	28.33
187.216	54.95
187.436	48.81
187.655	71.34
187.875	110.25
188.095	1.71
188.314	67.24
188.534	38.57
188.753	28.33
188.973	81.58
189.192	34.47
189.412	79.53
189.631	91.82
189.851	81.58
190.07	30.38
190.29	-0.34
190.509	11.95
190.729	-2.39
190.948	85.67
191.168	126.63
191.387	116.39
191.607	-8.53
191.826	7.85
192.045	77.48
192.265	-4.44
192.484	30.38
192.704	77.48
192.923	18.09
193.142	179.88
193.362	52.91
193.581	67.24
193.8	40.62
194.02	48.81
194.239	65.19
194.458	16.04
194.678	30.38
194.897	-33.11
195.116	83.63
195.335	-6.49
195.555	130.73
195.774	75.43
195.993	-0.34
196.212	44.71
196.432	36.52
196.651	11.95
196.87	83.63
197.089	13.99
197.308	81.58
197.528	67.24
197.747	26.28
197.966	22.19
198.185	83.63
198.404	20.14
198.623	71.34
198.842	34.47
199.062	108.2
199.281	75.43
199.5	-10.58
199.719	-16.73
199.938	26.28
200.157	32.43
200.376	110.25
200.595	95.91
200.814	114.34
201.033	32.43
201.252	75.43
201.471	40.62
201.69	24.23
201.909	26.28
202.128	110.25
202.347	75.43
202.566	-10.58
202.785	-51.54
203.004	13.99
203.223	87.72
203.442	-6.49
203.661	77.48
203.879	32.43
204.098	65.19
204.317	5.8
204.536	50.86
204.755	-2.39
204.974	52.91
205.193	42.67
205.411	69.29
205.63	9.9
205.849	61.1
206.068	93.87
206.287	13.99
206.505	38.57
206.724	97.96
206.943	5.8
207.162	13.99
207.381	20.14
207.599	5.8
207.818	30.38
208.037	-41.3
208.255	102.06
208.474	-6.49
208.693	-24.92
208.911	13.99
209.13	34.47
209.349	79.53
209.567	24.23
209.786	89.77
210.005	-31.06
210.223	106.15
210.442	57
210.661	79.53
210.879	-33.11
211.098	-6.49
211.316	11.95
211.535	110.25
211.753	-0.34
211.972	9.9
212.191	42.67
212.409	20.14
212.628	75.43
212.846	112.3
213.065	48.81
213.283	104.11
213.502	26.28
213.72	40.62
213.938	75.43
214.157	-26.96
214.375	16.04
214.594	30.38
214.812	97.96
215.031	16.04
215.249	24.23
215.467	77.48
215.686	26.28
215.904	22.19
216.122	61.1
216.341	79.53
216.559	30.38
216.778	57
216.996	65.19
217.214	34.47
217.432	-4.44
217.651	-55.64
217.869	28.33
218.087	114.34
218.306	-10.58
218.524	40.62
218.742	-2.39
218.96	11.95
219.179	-2.39
219.397	63.15
219.615	59.05
219.833	102.06
220.051	28.33
220.27	20.14
220.488	26.28
220.706	95.91
220.924	1.71
221.142	71.34
221.36	36.52
221.578	44.71
221.796	42.67
222.015	61.1
222.233	5.8
222.451	50.86
222.669	-12.63
222.887	65.19
223.105	9.9
223.323	106.15
223.541	7.85
223.759	89.77
223.977	28.33
224.195	93.87
224.413	42.67
224.631	38.57
224.849	-37.2
225.067	20.14
225.285	30.38
225.503	13.99
225.721	22.19
225.939	36.52
226.157	30.38
226.375	155.3
226.592	-12.63
226.81	26.28
227.028	95.91
227.246	59.05
227.464	69.29
227.682	57
227.9	106.15
228.117	108.2
228.335	-14.68
228.553	-8.53
228.771	-20.82
228.989	110.25
229.206	83.63
229.424	26.28
229.642	-20.82
229.86	38.57
230.077	59.05
230.295	-18.77
230.513	87.72
230.731	61.1
230.948	24.23
231.166	73.39
231.384	42.67
231.601	7.85
231.819	-20.82
232.037	-45.4
232.254	-24.92
232.472	24.23
232.689	75.43
232.907	50.86
233.125	57
233.342	67.24
233.56	1.71
233.777	48.81
233.995	48.81
234.213	75.43
234.43	-16.73
234.648	-59.73
234.865	54.95
235.083	50.86
235.3	110.25
235.518	87.72
235.735	67.24
235.953	44.71
236.17	42.67
236.388	50.86
236.605	57
236.822	-10.58
237.04	48.81
237.257	120.49
237.475	22.19
237.692	11.95
237.909	130.73
238.127	48.81
238.344	30.38
238.562	32.43
238.779	-39.25
238.996	61.1
239.214	110.25
239.431	-0.34
239.648	36.52
239.865	59.05
240.083	28.33
240.3	38.57
240.517	20.14
240.735	63.15
240.952	52.91
241.169	71.34
241.386	-33.11
241.603	79.53
241.821	48.81
242.038	106.15
242.255	93.87
242.472	-18.77
242.689	-2.39
242.907	44.71
243.124	-12.63
243.341	102.06
243.558	13.99
243.775	-10.58
243.992	-43.35
244.209	50.86
244.426	130.73
244.643	48.81
244.86	77.48
245.078	124.58
245.295	104.11
245.512	54.95
245.729	130.73
245.946	89.77
246.163	24.23
246.38	75.43
246.597	40.62
246.814	-37.2
247.031	48.81
247.248	40.62
247.464	100.01
247.681	36.52
247.898	20.14
248.115	67.24
248.332	63.15
248.549	100.01
248.766	87.72
248.983	95.91
249.2	36.52
249.417	54.95
249.633	-0.34
249.85	46.76
250.067	9.9
250.284	57
250.501	42.67
250.717	81.58
250.934	-18.77
251.151	102.06
251.368	24.23
251.585	22.19
251.801	-12.63
252.018	79.53
252.235	95.91
252.451	59.05
252.668	28.33
252.885	36.52
253.102	87.72
253.318	83.63
253.535	-0.34
253.752	32.43
253.968	1.71
254.185	22.19
254.401	-26.96
254.618	73.39
254.835	13.99
255.051	81.58
255.268	-0.34
255.484	40.62
255.701	13.99
255.917	79.53
256.134	42.67
256.351	73.39
256.567	-59.73
256.784	110.25
257	79.53
257.217	24.23
257.433	59.05
257.65	48.81
257.866	16.04
258.082	16.04
258.299	11.95
258.515	18.09
258.732	28.33
258.948	26.28
259.165	46.76
259.381	48.81
259.597	40.62
259.814	-2.39
260.03	24.23
260.246	9.9
260.463	40.62
260.679	120.49
260.895	85.67
261.112	118.44
261.328	128.68
261.544	-39.25
261.761	63.15
261.977	87.72
262.193	-10.58
262.409	-35.16
262.626	97.96
262.842	79.53
263.058	32.43
263.274	69.29
263.49	106.15
263.707	83.63
263.923	40.62
264.139	32.43
264.355	20.14
264.571	67.24
264.787	65.19
265.004	75.43
265.22	50.86
265.436	75.43
265.652	42.67
265.868	73.39
266.084	38.57
266.3	-10.58
266.516	24.23
266.732	-0.34
266.948	3.75
267.164	57
267.38	91.82
267.596	59.05
267.812	46.76
268.028	22.19
268.244	18.09
268.46	79.53
268.676	79.53
268.892	30.38
269.108	63.15
269.324	57
269.54	16.04
269.756	36.52
269.972	-33.11
270.188	44.71
270.403	30.38
270.619	81.58
270.835	7.85
271.051	52.91
271.267	-0.34
271.483	22.19
271.698	106.15
271.914	52.91
272.13	3.75
272.346	40.62
272.562	89.77
272.777	54.95
272.993	22.19
273.209	63.15
273.425	20.14
273.64	-10.58
273.856	61.1
274.072	9.9
274.287	-16.73
274.503	143.02
274.719	9.9
274.934	71.34
275.15	-2.39
275.366	11.95
275.581	34.47
275.797	24.23
276.012	59.05
276.228	24.23
276.444	9.9
276.659	118.44
276.875	26.28
277.09	36.52
277.306	-12.63
277.521	-0.34
277.737	32.43
277.952	114.34
278.168	42.67
278.383	46.76
278.599	22.19
278.814	54.95
279.03	75.43
279.245	85.67
279.461	28.33
279.676	50.86
279.892	57
280.107	71.34
280.322	5.8
280.538	46.76
280.753	5.8
280.969	50.86
281.184	138.92
281.399	59.05
281.615	30.38
281.83	48.81
282.045	7.85
282.26	1.71
282.476	-12.63
282.691	100.01
282.906	5.8
283.122	1.71
283.337	-0.34
283.552	126.63
283.767	7.85
283.983	48.81
284.198	24.23
284.413	-37.2
284.628	5.8
284.843	18.09
285.058	61.1
285.274	104.11
285.489	-35.16
285.704	44.71
285.919	-0.34
286.134	30.38
286.349	20.14
286.564	52.91
286.779	-14.68
286.995	110.25
287.21	11.95
287.425	73.39
287.64	63.15
287.855	54.95
288.07	3.75
288.285	89.77
288.5	81.58
288.715	32.43
288.93	44.71
289.145	73.39
289.36	114.34
289.575	1.71
289.79	54.95
290.004	71.34
290.219	30.38
290.434	-0.34
290.649	108.2
290.864	52.91
291.079	-16.73
291.294	13.99
291.509	108.2
291.724	65.19
291.938	36.52
292.153	147.11
292.368	32.43
292.583	75.43
292.798	79.53
293.012	65.19
293.227	36.52
293.442	87.72
293.657	106.15
293.871	85.67
294.086	30.38
294.301	42.67
294.516	95.91
294.73	36.52
294.945	102.06
295.16	26.28
295.374	59.05
295.589	54.95
295.804	-6.49
296.018	57
296.233	71.34
296.447	54.95
296.662	77.48
296.877	73.39
297.091	59.05
297.306	104.11
297.52	20.14
297.735	77.48
297.949	89.77
298.164	93.87
298.378	3.75
298.593	7.85
298.807	22.19
299.022	44.71
299.236	-6.49
299.451	28.33
299.665	-14.68
299.88	48.81
300.094	-45.4
300.309	-6.49
300.523	-12.63
300.737	36.52
300.952	97.96
301.166	65.19
301.381	11.95
301.595	57
301.809	24.23
302.024	75.43
302.238	38.57
302.452	87.72
302.667	46.76
302.881	20.14
303.095	93.87
303.309	46.76
303.524	28.33
303.738	73.39
303.952	-6.49
304.166	16.04
304.381	3.75
304.595	102.06
304.809	38.57
305.023	5.8
305.237	79.53
305.452	40.62
305.666	104.11
305.88	140.97
306.094	59.05
306.308	77.48
306.522	-35.16
306.736	46.76
306.95	69.29
307.164	85.67
307.379	57
307.593	106.15
307.807	75.43
308.021	36.52
308.235	57
308.449	7.85
308.663	44.71
308.877	38.57
309.091	112.3
309.305	81.58
309.519	7.85
309.733	81.58
309.947	30.38
310.161	124.58
310.374	65.19
310.588	73.39
310.802	9.9
311.016	81.58
311.23	57
311.444	7.85
311.658	1.71
311.872	114.34
312.085	38.57
312.299	104.11
312.513	57
312.727	9.9
312.941	44.71
313.154	63.15
313.368	83.63
313.582	11.95
313.796	44.71
314.009	79.53
314.223	79.53
314.437	67.24
314.651	34.47
314.864	65.19
315.078	-33.11
315.292	59.05
315.505	71.34
315.719	-4.44
315.933	48.81
316.146	32.43
316.36	50.86
316.573	120.49
316.787	77.48
317.001	106.15
317.214	-10.58
317.428	69.29
317.641	30.38
317.855	48.81
318.068	-0.34
318.282	20.14
318.495	42.67
318.709	71.34
318.922	44.71
319.136	151.21
319.349	97.96
319.563	69.29
319.776	44.71
319.99	30.38
320.203	81.58
320.417	-12.63
320.63	65.19
320.843	140.97
321.057	81.58
321.27	-12.63
321.483	85.67
321.697	65.19
321.91	97.96
322.124	95.91
322.337	81.58
322.55	11.95
322.763	18.09
322.977	108.2
323.19	71.34
323.403	61.1
323.617	26.28
323.83	102.06
324.043	30.38
324.256	30.38
324.469	61.1
324.683	-22.87
324.896	136.87
325.109	93.87
325.322	-10.58
325.535	9.9
325.748	85.67
325.962	61.1
326.175	44.71
326.388	28.33
326.601	16.04
326.814	59.05
327.027	79.53
327.24	112.3
327.453	5.8
327.666	143.02
327.879	38.57
328.092	52.91
328.305	38.57
328.518	22.19
328.731	24.23
328.944	18.09
329.157	5.8
329.37	28.33
329.583	67.24
329.796	83.63
330.009	83.63
330.222	9.9
330.435	79.53
330.648	110.25
330.861	-12.63
331.073	134.82
331.286	42.67
331.499	40.62
331.712	75.43
331.925	100.01
332.138	106.15
332.35	140.97
332.563	130.73
332.776	93.87
332.989	9.9
333.202	81.58
333.414	5.8
333.627	36.52
333.84	38.57
334.053	9.9
334.265	40.62
334.478	149.16
334.691	67.24
334.903	11.95
335.116	30.38
335.329	42.67
335.541	42.67
335.754	71.34
335.966	24.23
336.179	130.73
336.392	63.15
336.604	116.39
336.817	71.34
337.029	46.76
337.242	106.15
337.454	85.67
337.667	7.85
337.88	40.62
338.092	65.19
338.305	79.53
338.517	61.1
338.729	83.63
338.942	11.95
339.154	95.91
339.367	61.1
339.579	38.57
339.792	38.57
340.004	97.96
340.217	18.09
340.429	67.24
340.641	67.24
340.854	28.33
341.066	11.95
341.278	128.68
341.491	52.91
341.703	24.23
341.915	48.81
342.128	97.96
342.34	120.49
342.552	26.28
342.764	89.77
342.977	71.34
343.189	24.23
343.401	79.53
343.613	11.95
343.826	59.05
344.038	65.19
344.25	34.47
344.462	63.15
344.674	30.38
344.886	59.05
345.099	134.82
345.311	75.43
345.523	-53.59
345.735	5.8
345.947	71.34
346.159	81.58
346.371	106.15
346.583	20.14
346.795	151.21
347.007	61.1
347.219	63.15
347.431	126.63
347.643	102.06
347.855	104.11
348.067	81.58
348.279	75.43
348.491	81.58
348.703	57
348.915	18.09
349.127	91.82
349.339	44.71
349.551	24.23
349.763	75.43
349.975	28.33
350.187	114.34
350.399	102.06
350.61	16.04
350.822	69.29
351.034	126.63
351.246	38.57
351.458	75.43
351.669	104.11
351.881	18.09
352.093	50.86
352.305	11.95
352.517	75.43
352.728	102.06
352.94	81.58
353.152	118.44
353.363	116.39
353.575	32.43
353.787	59.05
353.999	32.43
354.21	151.21
354.422	18.09
354.633	-47.44
354.845	38.57
355.057	89.77
355.268	75.43
355.48	128.68
355.692	9.9
355.903	20.14
356.115	30.38
356.326	85.67
356.538	106.15
356.749	93.87
356.961	130.73
357.172	81.58
357.384	26.28
357.595	85.67
357.807	102.06
358.018	163.5
358.23	77.48
358.441	108.2
358.653	26.28
358.864	22.19
359.075	79.53
359.287	20.14
359.498	71.34
359.709	102.06
359.921	63.15
360.132	89.77
360.344	91.82
360.555	-16.73
360.766	79.53
360.977	38.57
361.189	89.77
361.4	24.23
361.611	79.53
361.823	130.73
362.034	44.71
362.245	7.85
362.456	65.19
362.667	85.67
362.879	100.01
363.09	34.47
363.301	106.15
363.512	87.72
363.723	-10.58
363.935	67.24
364.146	26.28
364.357	112.3
364.568	46.76
364.779	50.86
364.99	120.49
365.201	91.82
365.412	118.44
365.623	24.23
365.834	91.82
366.045	102.06
366.256	71.34
366.467	114.34
366.678	95.91
366.889	18.09
367.1	77.48
367.311	42.67
367.522	81.58
367.733	114.34
367.944	128.68
368.155	67.24
368.366	91.82
368.577	97.96
368.788	147.11
368.999	40.62
369.209	54.95
369.42	186.02
369.631	136.87
369.842	93.87
370.053	-10.58
370.264	97.96
370.474	63.15
370.685	-2.39
370.896	9.9
371.107	116.39
371.317	65.19
371.528	3.75
371.739	81.58
371.95	120.49
372.16	124.58
372.371	11.95
372.582	20.14
372.792	46.76
373.003	65.19
373.214	-8.53
373.424	112.3
373.635	42.67
373.846	140.97
374.056	38.57
374.267	87.72
374.477	155.3
374.688	36.52
374.898	77.48
375.109	63.15
375.319	67.24
375.53	97.96
375.74	95.91
375.951	77.48
376.161	71.34
376.372	95.91
376.582	40.62
376.793	50.86
377.003	48.81
377.214	26.28
377.424	79.53
377.635	28.33
377.845	79.53
378.055	79.53
378.266	106.15
378.476	118.44
378.686	48.81
378.897	81.58
379.107	16.04
379.317	112.3
379.528	69.29
379.738	81.58
379.948	69.29
380.158	108.2
380.369	63.15
380.579	130.73
380.789	91.82
380.999	128.68
381.21	126.63
381.42	89.77
381.63	1.71
381.84	116.39
382.05	112.3
382.261	118.44
382.471	163.5
382.681	30.38
382.891	110.25
383.101	32.43
383.311	42.67
383.521	89.77
383.731	97.96
383.941	114.34
384.151	91.82
384.361	28.33
384.571	95.91
384.781	79.53
384.991	18.09
385.201	130.73
385.411	30.38
385.621	120.49
385.831	40.62
386.041	114.34
386.251	110.25
386.461	145.06
386.671	97.96
386.881	124.58
387.091	52.91
387.301	69.29
387.511	118.44
387.72	30.38
387.93	52.91
388.14	110.25
388.35	63.15
388.56	155.3
388.769	83.63
388.979	126.63
389.189	75.43
389.399	138.92
389.609	89.77
389.818	108.2
390.028	36.52
390.238	116.39
390.447	75.43
390.657	100.01
390.867	143.02
391.076	42.67
391.286	54.95
391.496	95.91
391.705	116.39
391.915	130.73
392.125	165.54
392.334	196.26
392.544	120.49
392.753	89.77
392.963	102.06
393.172	126.63
393.382	83.63
393.591	97.96
393.801	163.5
394.01	186.02
394.22	165.54
394.429	46.76
394.639	97.96
394.848	93.87
395.058	157.35
395.267	188.07
395.477	157.35
395.686	140.97
395.895	216.74
396.105	171.69
396.314	102.06
396.524	128.68
396.733	163.5
396.942	138.92
397.152	181.93
397.361	171.69
397.57	118.44
397.78	120.49
397.989	167.59
398.198	253.61
398.407	239.27
398.617	132.78
398.826	179.88
399.035	138.92
399.244	177.83
399.453	145.06
399.663	202.41
399.872	177.83
400.081	132.78
400.29	229.03
400.499	143.02
400.708	202.41
400.917	124.58
401.127	155.3
401.336	151.21
401.545	286.37
401.754	171.69
401.963	177.83
402.172	163.5
402.381	171.69
402.59	214.7
402.799	186.02
403.008	214.7
403.217	251.56
403.426	175.78
403.635	192.17
403.844	126.63
404.053	194.22
404.262	233.13
404.471	267.94
404.68	226.98
404.888	263.85
405.097	212.65
405.306	255.65
405.515	255.65
405.724	208.55
405.933	200.36
406.142	345.77
406.35	157.35
406.559	339.62
406.768	282.28
406.977	337.57
407.185	284.33
407.394	263.85
407.603	327.33
407.812	386.72
408.02	353.96
408.229	310.95
408.438	315.05
408.646	419.49
408.855	409.25
409.064	439.97
409.272	423.59
409.481	487.08
409.69	503.46
409.898	444.07
410.107	452.26
410.315	511.65
410.524	466.6
410.733	612
410.941	493.22
411.15	605.86
411.358	532.13
411.567	632.48
411.775	585.38
411.984	646.82
412.192	655.01
412.401	761.5
412.609	716.45
412.818	812.7
413.026	849.57
413.234	777.89
413.443	831.13
413.651	833.18
413.86	970.4
414.068	941.72
414.276	917.15
414.485	933.53
414.693	1007.26
414.901	1171.1
415.11	1156.76
415.318	1076.89
415.526	1097.37
415.734	1220.25
415.943	1310.36
416.151	1347.22
416.359	1316.5
416.567	1447.57
416.776	1351.32
416.984	1457.81
417.192	1611.41
417.4	1648.27
417.608	1617.55
417.817	1633.94
418.025	1758.86
418.233	1889.93
418.441	1855.12
418.649	1904.27
418.857	2072.2
419.065	2055.82
419.273	2057.87
419.481	2059.92
419.689	2301.58
419.897	2408.07
420.105	2403.97
420.313	2436.74
420.521	2516.61
420.729	2621.06
420.937	2690.69
421.145	2784.9
421.353	3053.18
421.561	2983.55
421.769	3182.2
421.977	3292.79
422.185	3157.63
422.393	3567.22
422.601	3620.47
422.809	3729.01
423.017	3518.07
423.224	3757.68
423.432	3901.04
423.64	4066.92
423.848	4445.8
424.056	4306.54
424.263	4552.29
424.471	4619.88
424.679	4736.61
424.887	5017.18
425.094	5111.39
425.302	5142.11
425.51	5246.55
425.718	5396.06
425.925	5576.28
426.133	5727.83
426.341	6061.65
426.548	6278.73
426.756	6092.37
426.964	6391.37
427.171	6690.37
427.379	6862.4
427.586	7032.38
427.794	7364.15
428.001	7591.48
428.209	7933.49
428.417	7671.35
428.624	8324.65
428.832	8298.03
429.039	8281.64
429.247	8283.69
429.454	9188.89
429.662	9590.3
429.869	9000.48
430.076	9723.41
430.284	9498.14
430.491	10003.99
430.699	10475.02
430.906	10378.76
431.114	10700.3
431.321	10905.09
431.528	11306.49
431.736	11980.28
431.943	12443.12
432.15	12172.78
432.358	12137.97
432.565	12811.75
432.772	12973.54
432.979	13479.39
433.187	13704.67
433.394	13712.86
433.601	15044.04
433.808	15093.19
434.016	14738.89
434.223	15508.93
434.43	16346.55
434.637	15900.09
434.844	16995.75
435.052	17208.74
435.259	17331.62
435.466	17208.74
435.673	17124.77
435.88	18163.09
436.087	19158.41
436.294	19281.28
436.501	19041.67
436.708	19162.5
436.915	19856.76
437.122	20718.96
437.329	20694.38
437.537	21556.58
437.743	21757.28
437.95	21564.77
438.157	22670.67
438.364	23444.8
438.571	23147.85
438.778	23659.84
438.985	25654.56
439.192	24622.39
439.399	25378.09
439.606	24722.74
439.813	26621.2
440.02	27757.83
440.227	27305.23
440.433	27254.03
440.64	28136.7
440.847	28077.31
441.054	28624.12
441.261	30477.53
441.467	30160.09
441.674	30885.08
441.881	31589.58
442.088	31634.63
442.294	31554.76
442.501	32435.39
442.708	33268.91
442.914	34245.79
443.121	35574.92
443.328	34309.28
443.534	37129.33
443.741	35910.79
443.948	35681.42
444.154	38376.55
444.361	38057.06
444.568	38095.97
444.774	38095.97
444.981	38929.5
445.187	39611.47
445.394	41589.81
445.6	40307.78
445.807	44149.77
446.013	42548.26
446.22	43449.36
446.426	45235.19
446.633	45235.19
446.839	47074.27
447.046	45263.86
447.252	47326.17
447.459	47373.27
447.665	47549.4
447.871	49613.75
448.078	51704.73
448.284	49529.78
448.491	50406.31
448.697	52659.08
448.903	53449.6
449.11	53494.65
449.316	53164.93
449.522	53670.78
449.728	54817.64
449.935	55657.31
450.141	55255.9
450.347	56421.2
450.553	54762.34
450.76	55796.57
450.966	57330.5
451.172	56734.54
451.378	58143.54
451.584	56927.05
451.791	58198.83
451.997	58047.28
452.203	58553.13
452.409	58917.67
452.615	58671.92
452.821	56386.38
453.027	56005.46
453.233	58905.38
453.44	57029.44
453.646	57922.36
453.852	57705.27
454.058	58663.72
454.264	57025.35
454.47	57799.48
454.676	56572.75
454.882	58536.75
455.088	53627.77
455.294	54485.87
455.5	55446.36
455.705	55661.4
455.911	53570.43
456.117	52628.36
456.323	52269.97
456.529	49556.41
456.735	51692.44
456.941	50295.72
457.147	49449.91
457.352	48190.41
457.558	47322.07
457.764	47608.79
457.97	46638.05
458.176	46052.33
458.381	45888.49
458.587	43244.57
458.793	43611.15
458.999	41479.22
459.204	44624.9
459.41	43349.01
459.616	40508.48
459.821	40141.89
460.027	39750.73
460.233	39257.17
460.438	37696.62
460.644	37983.34
460.85	36078.72
461.055	35806.34
461.261	35468.43
461.466	33270.96
461.672	32111.81
461.878	34268.32
462.083	31966.4
462.289	31505.61
462.494	30903.51
462.7	29603.05
462.905	28959.98
463.111	29928.67
463.316	30029.02
463.522	29627.62
463.727	29367.53
463.932	29209.84
464.138	28769.52
464.343	29207.79
464.549	28101.89
464.754	28974.32
464.959	28800.24
465.165	28957.94
465.37	27530.5
465.575	26809.62
465.781	28296.44
465.986	27962.62
466.191	27163.92
466.397	26641.68
466.602	25115.95
466.807	26117.4
467.012	26293.53
467.218	26305.82
467.423	25881.89
467.628	26324.25
467.833	26727.7
468.038	25625.89
468.244	25124.14
468.449	26268.95
468.654	25404.71
468.859	25271.59
469.064	24956.21
469.269	24313.14
469.474	24415.54
469.679	24816.94
469.885	23997.76
470.09	24726.83
470.295	23987.52
470.5	23653.7
470.705	23631.17
470.91	23151.95
471.115	23061.83
471.32	23502.15
471.525	23180.62
471.73	22687.06
471.935	22648.15
472.139	22062.43
472.344	22185.3
472.549	21761.37
472.754	21732.7
472.959	21333.35
473.164	20915.56
473.369	20704.62
473.574	21349.73
473.778	20888.94
473.983	20757.87
474.188	20823.4
474.393	19920.25
474.598	19996.03
474.802	19766.65
475.007	19826.04
475.212	19637.63
475.417	19137.93
475.621	18976.14
475.826	18982.28
476.031	18417.04
476.235	18109.85
476.44	18664.85
476.645	18173.33
476.849	18066.84
477.054	18032.02
477.259	17700.25
477.463	17655.2
477.668	17384.87
477.872	17536.42
478.077	17286.56
478.282	16674.22
478.486	16788.91
478.691	16512.43
478.895	16414.13
479.1	16264.63
479.304	16164.28
479.509	15996.34
479.713	16477.62
479.918	15922.62
480.122	15377.86
480.326	15986.1
480.531	15840.7
480.735	15500.73
480.94	15291.84
481.144	15912.38
481.348	15205.83
481.553	15570.37
481.757	14937.54
481.961	15549.89
482.166	15340.99
482.37	15435.2
482.574	14851.53
482.778	15060.42
482.983	15435.2
483.187	15109.57
483.391	15150.53
483.595	15140.29
483.8	14749.13
484.004	15214.02
484.208	15418.82
484.412	15177.16
484.616	15238.59
484.821	15017.41
485.025	15058.37
485.229	15377.86
485.433	14894.54
485.637	15052.23
485.841	15068.61
486.045	15140.29
486.249	15158.72
486.453	14927.3
486.657	15214.02
486.861	15195.59
487.065	14912.97
487.269	15058.37
487.473	14564.81
487.677	15132.1
487.881	15295.94
488.085	14884.3
488.289	15082.95
488.493	15082.95
488.697	15306.18
488.901	15209.92
489.105	15035.85
489.309	15328.7
489.512	15226.31
489.716	15244.74
489.92	15138.24
490.124	15240.64
490.328	15640
490.531	15097.28
490.735	15476.16
490.939	15455.68
491.143	15259.07
491.346	15609.28
491.55	15631.8
491.754	15728.06
491.958	15738.3
492.161	15635.9
492.365	15785.4
492.569	15566.27
492.772	15781.31
492.976	16068.02
493.18	16129.46
493.383	16141.75
493.587	16373.17
493.79	16471.47
493.994	16201.14
494.197	16586.16
494.401	16582.06
494.605	16539.05
494.808	16745.9
495.012	16922.02
495.215	16876.97
495.419	16954.79
495.622	16922.02
495.825	17409.44
496.029	17221.03
496.232	17843.61
496.436	17659.29
496.639	18156.95
496.843	17952.15
497.046	18120.09
497.249	18666.89
497.453	18363.79
497.656	18933.13
497.859	18695.57
498.063	19013
498.266	19494.27
498.469	19727.74
498.673	19395.97
498.876	19969.4
499.079	20358.52
499.282	19725.69
499.485	20510.07
499.689	20473.2
499.892	20827.5
500.095	21157.22
500.298	21472.61
500.501	21067.11
500.705	21843.29
500.908	22152.54
501.111	21845.34
501.314	22412.63
501.517	22711.63
501.72	22981.96
501.923	22857.04
502.126	23352.65
502.329	23704.9
502.532	23645.51
502.735	23913.79
502.938	24411.45
503.141	24274.23
503.344	24917.29
503.547	25046.32
503.75	25494.82
503.953	25777.44
504.156	25957.66
504.359	26244.38
504.562	25986.33
504.765	26672.4
504.968	26658.07
505.17	27303.18
505.373	27225.36
505.576	27761.92
505.779	28204.28
505.982	27968.77
506.185	28540.15
506.387	28736.76
506.59	29068.53
506.793	29414.63
506.996	29228.27
507.198	30301.4
507.401	30205.15
507.604	30340.32
507.807	30860.5
508.009	31327.44
508.212	31284.43
508.415	31548.62
508.617	32285.89
508.82	32072.9
509.022	32183.49
509.225	33004.72
509.428	33244.34
509.63	33494.19
509.833	33451.18
510.035	34383.01
510.238	34241.7
510.44	34600.09
510.643	35282.06
510.845	35929.22
511.048	35380.37
511.25	35884.17
511.453	35808.39
511.655	37418.1
511.858	36789.37
512.06	36846.71
512.262	37297.27
512.465	37334.13
512.667	37964.9
512.87	38046.82
513.072	38343.78
513.274	38687.84
513.477	39152.73
513.679	39519.31
513.881	40225.86
514.084	40033.35
514.286	40129.61
514.488	40868.92
514.69	41819.18
514.893	41815.08
515.095	41767.98
515.297	42116.14
515.499	42318.88
515.701	43176.98
515.904	43269.14
516.106	43539.47
516.308	44135.43
516.51	44217.35
516.712	44319.75
516.914	44887.04
517.116	45454.33
517.318	45399.03
517.52	46001.13
517.722	46087.15
517.925	46638.05
518.127	47033.31
518.329	47143.9
518.531	47268.83
518.733	47911.89
518.935	48171.98
519.136	48227.27
519.338	48960.45
519.54	49161.15
519.742	49673.14
519.944	49636.28
520.146	50422.7
520.348	50494.38
520.55	50369.45
520.752	50746.28
520.954	51280.8
521.155	51411.87
521.357	51778.45
521.559	52280.2
521.761	53179.26
521.963	52765.57
522.164	53261.18
522.366	53246.85
522.568	53418.88
522.77	53570.43
522.971	54399.85
523.173	53508.99
523.375	54317.93
523.576	54424.43
523.778	54334.32
523.98	55374.69
524.181	55409.5
524.383	55741.27
524.584	56265.55
524.786	56075.09
524.988	55681.88
525.189	56613.71
525.391	56914.76
525.592	56970.05
525.794	57234.24
525.995	57195.33
526.197	57627.45
526.398	57342.78
526.6	57578.3
526.801	58014.52
527.003	58086.2
527.204	58247.99
527.406	58676.01
527.607	58118.96
527.808	58813.23
528.01	57942.84
528.211	58702.63
528.412	59403.04
528.614	59261.73
528.815	59298.59
529.016	59749.15
529.218	59190.05
529.419	59681.56
529.62	59333.41
529.822	59609.89
530.023	59405.09
530.224	59763.48
530.425	59683.61
530.626	59869.98
530.828	58909.48
531.029	60498.7
531.23	59474.72
531.431	59992.86
531.632	60355.35
531.833	60171.03
532.035	60242.71
532.236	60371.73
532.437	60609.29
532.638	60060.44
532.839	60627.73
533.04	60580.62
533.241	59648.8
533.442	61221.64
533.643	60293.91
533.844	60726.03
534.045	60809.99
534.246	60140.31
534.447	60754.7
534.648	60453.65
534.849	60793.61
535.05	60644.11
535.251	60285.71
535.451	60216.08
535.652	60773.13
535.853	60156.69
536.054	60371.73
536.255	60820.23
536.456	60158.74
536.657	61078.28
536.857	60502.8
537.058	60447.5
537.259	61010.7
537.46	60787.47
537.66	60193.56
537.861	60461.84
538.062	60255
538.263	60373.78
538.463	60420.88
538.664	60314.39
538.865	60422.93
539.065	60150.55
539.266	60300.05
539.466	60662.54
539.667	59794.2
539.868	61137.67
540.068	60764.94
540.269	60029.72
540.469	60637.97
540.67	59601.69
540.87	60515.09
541.071	60166.93
541.271	60429.07
541.472	60289.81
541.672	59894.55
541.873	59898.65
542.073	59466.53
542.274	60427.02
542.474	59990.81
542.675	59761.43
542.875	60347.15
543.075	60369.68
543.276	59663.13
543.476	60289.81
543.676	59458.34
543.877	60404.5
544.077	59745.05
544.277	59579.17
544.478	59738.91
544.678	59749.15
544.878	59804.44
545.078	59775.77
545.279	59493.15
545.479	59142.95
545.679	59994.9
545.879	59620.12
546.079	59896.6
546.28	59429.66
546.48	59159.33
546.68	59622.17
546.88	59882.26
547.08	59286.31
547.28	59245.35
547.48	59243.3
547.68	59568.93
547.88	59306.79
548.081	59700
548.281	59302.69
548.481	59001.64
548.681	59441.95
548.881	59726.62
549.081	59570.97
549.28	59087.65
549.48	59413.28
549.68	58614.57
549.88	60035.86
550.08	58845.99
550.28	59593.5
550.48	59278.11
550.68	59536.16
550.88	59177.76
551.08	58868.52
551.279	59081.51
551.479	58682.16
551.679	59175.72
551.879	58770.22
552.079	59396.9
552.278	59134.76
552.478	59206.44
552.678	58899.24
552.878	59093.8
553.077	58757.93
553.277	58503.98
553.477	59198.24
553.676	58948.39
553.876	58411.82
554.076	58581.8
554.275	58499.89
554.475	58252.08
554.674	58850.09
554.874	58768.17
555.074	58286.9
555.273	58682.16
555.473	59061.03
555.672	58407.73
555.872	58366.77
556.071	58483.5
556.271	58538.8
556.47	58413.87
556.67	57508.67
556.869	57953.08
557.068	58491.69
557.268	57887.54
557.467	58245.94
557.667	58164.02
557.866	58290.99
558.065	57680.7
558.265	57686.84
558.464	57236.29
558.663	57893.69
558.863	57320.26
559.062	57862.97
559.261	57107.27
559.461	57717.56
559.66	56980.29
559.859	57600.83
560.058	57086.79
560.258	57439.04
560.457	56671.05
560.656	57217.86
560.855	57566.01
561.054	56965.96
561.253	56714.06
561.453	57119.56
561.652	56945.48
561.851	57013.06
562.05	56445.77
562.249	56408.91
562.448	56994.63
562.647	56750.92
562.846	56509.26
563.045	56316.75
563.244	56212.3
563.443	56957.77
563.642	55843.67
563.841	56333.14
564.04	55806.81
564.239	56382.29
564.438	55833.43
564.637	56060.76
564.836	56001.36
565.035	55384.93
565.234	55530.33
565.432	55399.26
565.631	55325.53
565.83	55858.01
566.029	55432.03
566.228	55462.75
566.427	54721.38
566.625	55001.96
566.824	54334.32
567.023	55231.33
567.222	54268.78
567.42	54930.28
567.619	54637.42
567.818	54276.97
568.016	54322.03
568.215	54893.41
568.414	54240.11
568.612	54741.86
568.811	53965.68
569.01	53961.59
569.208	53601.14
569.407	54721.38
569.605	53592.95
569.804	54233.97
570.002	53576.57
570.201	53943.16
570.4	53601.14
570.598	53218.17
570.797	53126.02
570.995	53169.02
571.193	53150.59
571.392	53455.74
571.59	52931.46
571.789	52722.57
571.987	52573.06
572.186	53023.62
572.384	52335.5
572.582	52564.87
572.781	52874.12
572.979	52579.21
573.177	52837.25
573.376	52595.59
573.574	52106.13
573.772	52573.06
573.971	51872.66
574.169	51999.63
574.367	51463.07
574.565	52413.32
574.763	51288.99
574.962	51772.31
575.16	51268.51
575.358	51544.98
575.556	50764.71
575.754	51420.06
575.952	50811.81
576.151	51485.59
576.349	50348.97
576.547	50293.68
576.745	50920.35
576.943	51004.32
577.141	50176.94
577.339	50543.53
577.537	50701.22
577.735	50109.36
577.933	49691.57
578.131	50197.42
578.329	50160.56
578.527	49525.69
578.725	49460.15
578.923	49644.47
579.121	49337.27
579.319	49697.72
579.516	49877.94
579.714	48952.26
579.912	49202.11
580.11	49042.37
580.308	48661.44
580.506	48661.44
580.704	48382.92
580.901	48276.43
581.099	49005.5
581.297	48520.13
581.495	48296.91
581.692	48493.51
581.89	47748.05
582.088	48083.92
582.285	47698.9
582.483	48139.21
582.681	47563.73
582.878	47258.59
583.076	47014.88
583.274	47322.07
583.471	46949.34
583.669	47416.28
583.866	46586.85
584.064	46949.34
584.262	46756.83
584.459	46892
584.657	46416.87
584.854	46832.61
585.052	46087.15
585.249	46179.31
585.447	46259.18
585.644	46244.84
585.841	45898.73
586.039	46363.62
586.236	45106.17
586.434	45622.26
586.631	45317.11
586.828	45540.34
587.026	45380.6
587.223	45276.15
587.42	45603.83
587.618	45374.45
587.815	44581.89
588.012	44835.84
588.21	44520.45
588.407	44813.31
588.604	44293.13
588.801	44033.03
588.999	43947.02
589.196	44172.3
589.393	44035.08
589.59	43504.66
589.787	43705.36
589.984	43363.35
590.182	43219.99
590.379	43541.52
590.576	42920.99
590.773	43385.88
590.97	42918.94
591.167	43066.39
591.364	42490.91
591.561	43074.59
591.758	42411.04
591.955	42523.68
592.152	42781.73
592.349	42202.15
592.546	42091.56
592.743	41903.15
592.94	41554.99
593.137	41942.06
593.334	42013.74
593.531	41190.45
593.727	41978.92
593.924	41684.01
594.121	41198.65
594.318	41253.94
594.515	40612.93
594.712	41540.66
594.908	40903.74
595.105	40830.01
595.302	40332.36
595.499	40635.45
595.696	40574.02
595.892	39937.1
596.089	40287.3
596.286	40184.9
596.482	39908.43
596.679	39691.34
596.876	39867.47
597.072	39513.17
597.269	39410.77
597.466	39527.5
597.662	39349.33
597.859	39136.34
598.055	38909.02
598.252	38732.89
598.448	38892.63
598.645	38814.81
598.841	38648.92
599.038	38880.35
599.234	38560.86
599.431	37993.57
599.627	38126.69
599.824	38620.25
600.02	37999.72
600.217	38124.64
600.413	37657.71
600.609	37743.72
600.806	37481.58
601.002	37688.43
601.198	37459.06
601.395	37430.38
601.591	37117.04
601.787	36879.48
601.984	36525.18
602.18	37364.85
602.376	36615.29
602.572	36766.84
602.769	36484.22
602.965	36316.29
603.161	36091.01
603.357	36514.94
603.553	36131.97
603.75	36256.9
603.946	35994.76
604.142	35779.72
604.338	35110.03
604.534	35703.95
604.73	35454.09
604.926	35398.8
605.122	35669.13
605.318	35337.36
605.514	34716.82
605.71	34911.38
605.906	34956.44
606.102	35107.99
606.298	35198.1
606.494	34417.82
606.69	34753.69
606.886	34649.24
607.082	34055.33
607.278	34421.92
607.474	33789.1
607.67	34743.45
607.866	33895.59
608.062	34276.51
608.257	33977.51
608.453	33938.6
608.649	33987.75
608.845	33449.13
609.041	33737.9
609.236	33946.79
609.432	33373.36
609.628	33858.73
609.824	33610.92
610.019	33436.84
610.215	33385.65
610.411	33596.59
610.606	33318.06
610.802	33615.02
610.998	33031.35
611.193	33240.24
611.389	32920.76
611.584	32867.51
611.78	32935.09
611.976	32990.39
612.171	32611.51
612.367	32341.18
612.562	32226.49
612.758	32060.61
612.953	32126.14
613.149	32771.25
613.344	32103.62
613.539	32761.01
613.735	32281.79
613.93	32419
614.126	31995.07
614.321	32371.9
614.517	32148.67
614.712	32007.36
614.907	31997.12
615.103	32074.95
615.298	31311.05
615.493	31878.34
615.688	31325.39
615.884	31749.32
616.079	31165.65
616.274	31644.87
616.47	31528.14
616.665	31440.07
616.86	31470.79
617.055	31175.89
617.25	31343.82
617.445	31290.57
617.641	30639.32
617.836	30999.76
618.031	30563.54
618.226	30794.96
618.421	30551.26
618.616	30969.04
618.811	30149.85
619.006	30612.7
619.201	30045.41
619.396	30266.59
619.591	29822.18
619.786	30301.4
619.981	29437.16
620.176	29932.77
620.371	29519.08
620.566	29238.51
620.761	29494.5
620.956	29371.63
621.151	29035.76
621.346	29388.01
621.541	28538.1
621.735	28980.46
621.93	28419.32
622.125	28579.06
622.32	28267.77
622.515	28126.46
622.709	28202.24
622.904	27878.66
623.099	27749.64
623.294	27825.41
623.488	27370.76
623.683	27444.49
623.878	26938.64
624.072	27454.73
624.267	27104.53
624.462	26869.01
624.656	26195.23
624.851	26600.72
625.046	26494.23
625.24	26723.6
625.435	25974.05
625.629	26182.94
625.824	25892.13
626.018	25781.54
626.213	25314.6
626.407	25675.04
626.602	25269.55
626.796	25429.29
626.991	25308.46
627.185	24821.04
627.38	24941.87
627.574	24550.71
627.768	24530.23
627.963	24329.53
628.157	24272.18
628.352	24241.46
628.546	23917.89
628.74	24270.14
628.935	23579.97
629.129	23792.96
629.323	23698.75
629.517	23389.51
629.712	23287.11
629.906	23266.63
630.1	22854.99
630.294	23133.51
630.489	22832.46
630.683	23043.4
630.877	22455.64
631.071	22480.21
631.265	22246.74
631.459	22213.98
631.653	22226.26
631.848	22050.14
632.042	21906.78
632.236	21704.03
632.43	21716.32
632.624	22105.43
632.818	21448.04
633.012	21075.31
633.206	21146.98
633.4	21206.38
633.594	20665.71
633.788	20940.14
633.982	20764.01
634.176	20862.32
634.369	20782.45
634.563	20471.15
634.757	20284.79
634.951	20252.02
635.145	20465.01
635.339	20342.13
635.533	20067.7
635.726	19948.92
635.92	19703.17
636.114	19977.59
636.308	19737.98
636.501	19535.23
636.695	19371.4
636.889	19215.75
637.083	19281.28
637.276	19096.97
637.47	18931.08
637.664	18992.52
637.857	18632.08
638.051	18890.12
638.244	18738.57
638.438	18652.56
638.632	18754.96
638.825	18154.9
639.019	18388.37
639.212	18040.22
639.406	18029.98
639.599	17991.06
639.793	17884.57
639.986	17640.86
640.18	17923.48
640.373	17786.27
640.567	17376.67
640.76	17671.58
640.954	17513.89
641.147	16948.65
641.34	17046.95
641.534	17261.99
641.727	17126.82
641.92	16829.87
642.114	16692.65
642.307	16762.28
642.5	16706.99
642.694	16260.53
642.887	16446.9
643.08	16666.03
643.273	16209.33
643.467	16348.59
643.66	16117.17
643.853	16328.11
644.046	15859.13
644.239	16002.49
644.432	15922.62
644.626	15902.14
644.819	15453.63
645.012	15658.43
645.205	15560.13
645.398	15562.17
645.591	15463.87
645.784	15277.51
645.977	15109.57
646.17	15142.34
646.363	14851.53
646.556	14933.45
646.749	14998.98
646.942	14849.48
647.135	14697.93
647.328	14790.09
647.521	14577.1
647.714	14441.93
647.907	14589.39
648.099	14405.07
648.292	14536.14
648.485	14200.27
648.678	14325.2
648.871	14274
649.064	13837.78
649.256	13925.85
649.449	14036.44
649.642	13764.06
649.835	13798.87
650.027	13516.25
650.22	13514.2
650.413	13458.91
650.605	13403.61
650.798	13379.04
650.991	13346.27
651.183	13239.78
651.376	13022.69
651.568	13166.05
651.761	12977.64
651.954	13024.74
652.146	12979.68
652.339	12903.91
652.531	12834.28
652.724	12697.06
652.916	12504.56
653.109	12498.41
653.301	12428.78
653.494	12463.6
653.686	12346.86
653.879	12271.09
654.071	11924.98
654.263	12185.07
654.456	12373.49
654.648	12203.5
654.84	11943.41
655.033	11929.08
655.225	11783.67
655.417	11863.54
655.61	11828.73
655.802	11761.14
655.994	11759.1
656.186	11591.16
656.379	11501.05
656.571	11441.66
656.763	11439.61
656.955	11263.49
657.148	11247.1
657.34	10960.39
657.532	10987.01
657.724	10978.82
657.916	11265.53
658.108	10972.68
658.3	11177.47
658.492	10929.67
658.684	10737.16
658.876	10892.8
659.068	10632.71
659.26	10688.01
659.452	10573.32
659.644	10708.49
659.836	10460.68
660.028	10520.07
660.22	10171.92
660.412	10382.86
660.604	10253.84
660.796	10368.52
660.988	10198.54
661.18	10124.82
661.372	10001.94
661.563	10067.47
661.755	9967.12
661.947	9854.48
662.139	9707.03
662.331	9737.75
662.522	9485.85
662.714	9762.33
662.906	9569.82
663.097	9639.45
663.289	9553.43
663.481	9451.03
663.673	9508.38
663.864	9397.79
664.056	9340.44
664.247	9422.36
664.439	9299.48
664.631	9504.28
664.822	9305.63
665.014	9336.35
665.205	9211.42
665.397	9031.2
665.588	9074.21
665.78	8773.16
665.971	9020.96
666.163	8920.61
666.354	8814.12
666.546	8885.8
666.737	8963.62
666.929	8726.05
667.12	8853.03
667.311	8691.24
667.503	8754.73
667.694	8406.57
667.885	8451.63
668.077	8476.2
668.268	8451.63
668.459	8349.23
668.651	8377.9
668.842	8300.08
669.033	8513.06
669.224	8271.4
669.416	8285.74
669.607	8191.53
669.798	8066.61
669.989	8095.28
670.18	8236.59
670.371	8031.79
670.563	8015.41
670.754	8093.23
670.945	7822.9
671.136	7921.2
671.327	7876.15
671.518	7927.35
671.709	7839.28
671.9	7700.02
672.091	7632.44
672.282	7716.4
672.473	7749.17
672.664	7505.46
672.855	7523.9
673.046	7497.27
673.237	7654.97
673.428	7454.26
673.619	7517.75
673.809	7433.79
674	7374.39
674.191	7407.16
674.382	7210.56
674.573	7355.96
674.764	7310.91
674.954	7456.31
675.145	7188.03
675.336	7255.61
675.527	7345.72
675.717	7288.38
675.908	7059.01
676.099	7220.8
676.289	7079.49
676.48	6972.99
676.671	7126.59
676.861	6911.55
677.052	6868.55
677.243	7001.66
677.433	6854.21
677.624	7079.49
677.814	6991.42
678.005	6909.51
678.195	6649.41
678.386	6782.53
678.576	6772.29
678.767	6766.15
678.957	6608.45
679.148	6755.91
679.338	6702.66
679.529	6737.48
679.719	6651.46
679.909	6733.38
680.1	6493.77
680.29	6692.42
680.481	6479.43
680.671	6579.78
680.861	6524.49
681.052	6598.21
681.242	6555.21
681.432	6381.13
681.622	6344.27
681.813	6612.55
682.003	6391.37
682.193	6329.93
682.383	6475.34
682.573	6434.38
682.764	6317.64
682.954	6143.56
683.144	6286.92
683.334	6176.33
683.524	6233.68
683.714	6393.42
683.904	6184.52
684.094	6098.51
684.284	6106.7
684.474	6135.37
684.664	6327.88
684.854	6153.8
685.044	5992.02
685.234	6123.09
685.424	6213.2
685.614	6039.12
685.804	6067.79
685.994	6071.89
686.184	6084.17
686.374	6096.46
686.564	5875.28
686.753	5967.44
686.943	5906
687.133	5639.76
687.323	5803.6
687.513	5770.83
687.702	5930.58
687.892	5664.34
688.082	5557.85
688.272	5776.98
688.461	5701.2
688.651	5588.57
688.841	5576.28
689.03	5799.51
689.22	5647.96
689.41	5572.18
689.599	5512.79
689.789	5594.71
689.979	5459.54
690.168	5545.56
690.358	5371.48
690.547	5252.7
690.737	5367.38
690.926	5324.38
691.116	5252.7
691.305	5238.36
691.495	5367.38
691.684	5052
691.874	5318.23
692.063	5090.91
692.252	5115.48
692.442	5111.39
692.631	4863.58
692.82	5023.33
693.01	4808.29
693.199	5013.09
693.388	5011.04
693.578	4775.52
693.767	4953.7
693.956	4922.98
694.146	5029.47
694.335	4752.99
694.524	4732.51
694.713	4820.58
694.902	4777.57
695.092	4732.51
695.281	4679.27
695.47	4771.43
695.659	4611.68
695.848	4525.67
696.037	4630.12
696.226	4658.79
696.415	4554.34
696.604	4732.51
696.793	4589.16
696.982	4494.95
697.171	4583.01
697.36	4636.26
697.549	4410.98
697.738	4470.37
697.927	4380.26
698.116	4468.33
698.305	4388.46
698.494	4298.35
698.683	4415.08
698.872	4472.42
699.061	4249.19
699.25	4361.83
699.438	4306.54
699.627	4329.06
699.816	4214.38
700.005	4316.78
700.193	4261.48
700.382	4329.06
700.571	4189.8
700.76	4249.19
700.948	4306.54
701.137	4040.3
701.326	4114.03
701.514	4021.87
701.703	4335.21
701.892	4148.84
702.08	4025.97
702.269	4247.15
702.457	4140.65
702.646	4116.08
702.834	4107.88
703.023	4097.64
703.212	4157.04
703.4	4077.16
703.589	3847.79
703.777	4077.16
703.965	4044.4
704.154	3980.91
704.342	3976.81
704.531	4019.82
704.719	3995.25
704.907	4046.44
705.096	3982.96
705.284	3974.77
705.472	3845.74
705.661	4034.16
705.849	3970.67
706.037	3907.18
706.226	4038.25
706.414	3962.48
706.602	3839.6
706.79	3896.94
706.979	3858.03
707.167	3894.9
707.355	3800.69
707.543	3739.25
707.731	3802.74
707.919	3921.52
708.107	3812.98
708.296	3698.29
708.484	3741.3
708.672	3974.77
708.86	3878.51
709.048	3729.01
709.236	3819.12
709.424	3714.67
709.612	4005.49
709.8	3597.94
709.988	3782.26
710.176	3790.45
710.364	3890.8
710.551	3645.04
710.739	3718.77
710.927	3704.43
711.115	3643
711.303	3767.92
711.491	3716.72
711.679	3589.75
711.866	3753.59
712.054	3737.2
712.242	3690.1
712.43	3765.87
712.617	3661.43
712.805	3643
712.993	3729.01
713.181	3501.69
713.368	3616.37
713.556	3808.88
713.744	3688.05
713.931	3827.31
714.119	3679.86
714.306	3692.15
714.494	3579.51
714.682	3665.52
714.869	3528.31
715.057	3608.18
715.244	3540.6
715.432	3630.71
715.619	3643
715.807	3624.56
715.994	3604.08
716.182	3565.17
716.369	3579.51
716.556	3677.81
716.744	3616.37
716.931	3483.25
717.119	3673.71
717.306	3640.95
717.493	3466.87
717.681	3575.41
717.868	3567.22
718.055	3599.99
718.242	3702.39
718.43	3671.67
718.617	3565.17
718.804	3597.94
718.991	3534.45
719.179	3724.91
719.366	3513.97
719.553	3499.64
719.74	3456.63
719.927	3481.21
720.114	3509.88
720.301	3452.53
720.488	3466.87
720.676	3425.91
720.863	3540.6
721.05	3599.99
721.237	3618.42
721.424	3571.32
721.611	3542.64
721.798	3575.41
721.985	3645.04
722.172	3489.4
722.358	3483.25
722.545	3622.52
722.732	3479.16
722.919	3575.41
723.106	3567.22
723.293	3700.34
723.48	3530.36
723.667	3622.52
723.853	3483.25
724.04	3522.16
724.227	3604.08
724.414	3561.08
724.6	3645.04
724.787	3546.74
724.974	3520.12
725.161	3665.52
725.347	3374.71
725.534	3587.7
725.72	3485.3
725.907	3530.36
726.094	3585.65
726.28	3481.21
726.467	3470.97
726.653	3550.84
726.84	3499.64
727.027	3585.65
727.213	3460.73
727.4	3552.88
727.586	3499.64
727.773	3569.27
727.959	3565.17
728.145	3550.84
728.332	3575.41
728.518	3538.55
728.705	3548.79
728.891	3567.22
729.077	3667.57
729.264	3610.23
729.45	3630.71
729.636	3544.69
729.823	3466.87
730.009	3653.23
730.195	3769.97
730.382	3710.58
730.568	3464.82
730.754	3661.43
730.94	3497.59
731.126	3632.76
731.313	3696.24
731.499	3659.38
731.685	3599.99
731.871	3542.64
732.057	3585.65
732.243	3487.35
732.429	3741.3
732.615	3679.86
732.801	3714.67
732.987	3696.24
733.173	3653.23
733.359	3710.58
733.545	3667.57
733.731	3718.77
733.917	3663.47
734.103	3759.73
734.289	3749.49
734.475	3716.72
734.661	3710.58
734.847	3755.63
735.033	3614.32
735.219	3673.71
735.404	3737.2
735.59	3624.56
735.776	3722.87
735.962	3843.7
736.148	3747.44
736.333	3618.42
736.519	3659.38
736.705	3690.1
736.89	3673.71
737.076	3671.67
737.262	3673.71
737.447	3657.33
737.633	3610.23
737.819	3712.63
738.004	3614.32
738.19	3686
738.375	3669.62
738.561	3616.37
738.747	3745.39
738.932	3694.19
739.118	3661.43
739.303	3643
739.489	3677.81
739.674	3618.42
739.859	3688.05
740.045	3741.3
740.23	3552.88
740.416	3683.95
740.601	3726.96
740.786	3622.52
740.972	3546.74
741.157	3657.33
741.342	3595.89
741.528	3665.52
741.713	3610.23
741.898	3669.62
742.084	3595.89
742.269	3622.52
742.454	3606.13
742.639	3630.71
742.824	3526.26
743.01	3694.19
743.195	3618.42
743.38	3628.66
743.565	3563.12
743.75	3497.59
743.935	3507.83
744.12	3745.39
744.305	3452.53
744.49	3542.64
744.675	3556.98
744.86	3581.56
745.045	3436.15
745.23	3528.31
745.415	3546.74
745.6	3593.84
745.785	3434.1
745.97	3468.92
746.155	3432.05
746.34	3540.6
746.525	3454.58
746.71	3403.38
746.895	3401.33
747.079	3401.33
747.264	3452.53
747.449	3356.28
747.634	3427.96
747.819	3327.61
748.003	3274.36
748.188	3427.96
748.373	3221.11
748.557	3264.12
748.742	3151.48
748.927	3253.88
749.111	3176.06
749.296	3274.36
749.481	3217.02
749.665	3169.91
749.85	3114.62
750.034	3118.72
750.219	3108.48
750.404	3063.42
750.588	3079.8
750.773	3153.53
750.957	3083.9
751.141	3040.89
751.326	3202.68
751.51	3032.7
751.695	3069.56
751.879	2993.79
752.064	3092.09
752.248	2942.59
752.432	2909.82
752.617	2844.29
752.801	2885.25
752.985	2911.87
753.17	2956.93
753.354	2784.9
753.538	2860.67
753.722	2963.07
753.907	2797.18
754.091	2723.46
754.275	2762.37
754.459	2907.77
754.643	2780.8
754.828	2657.92
755.012	2748.03
755.196	2729.6
755.38	2737.79
755.564	2512.52
755.748	2594.44
755.932	2801.28
756.116	2594.44
756.3	2662.02
756.484	2641.54
756.668	2590.34
756.852	2584.2
757.036	2508.42
757.22	2397.83
757.404	2481.8
757.588	2485.89
757.772	2565.76
757.956	2446.98
758.14	2584.2
758.323	2391.69
758.507	2418.31
758.691	2399.88
758.875	2313.86
759.059	2371.21
759.242	2403.97
759.426	2297.48
759.61	2332.3
759.794	2266.76
759.977	2219.66
760.161	2426.5
760.345	2324.1
760.528	2260.62
760.712	2156.17
760.895	2051.72
761.079	2209.42
761.263	2262.66
761.446	2215.56
761.63	2287.24
761.813	2270.86
761.997	2182.79
762.18	2125.45
762.364	2184.84
762.547	2082.44
762.731	2027.15
762.914	2176.65
763.098	1957.52
763.281	2139.79
763.464	2090.63
763.648	2068.11
763.831	2088.59
764.015	2090.63
764.198	2084.49
764.381	1969.8
764.564	2012.81
764.748	1967.76
764.931	1994.38
765.114	2010.76
765.297	2029.2
765.481	2076.3
765.664	1965.71
765.847	1896.08
766.03	2078.35
766.213	1975.95
766.397	1914.51
766.58	1939.09
766.763	1959.56
766.946	1943.18
767.129	1951.37
767.312	1891.98
767.495	1990.28
767.678	1900.17
767.861	1908.37
768.044	1826.45
768.227	1863.31
768.41	1797.78
768.593	1922.7
768.776	1879.69
768.959	1953.42
769.142	1832.59
769.324	1848.97
769.507	1793.68
769.69	1769.1
769.873	1775.25
770.056	1685.14
770.239	1771.15
770.421	1799.82
770.604	1748.62
770.787	1736.34
770.97	1732.24
771.152	1732.24
771.335	1597.07
771.518	1580.69
771.7	1810.06
771.883	1715.86
772.066	1672.85
772.248	1762.96
772.431	1683.09
772.613	1744.53
772.796	1584.79
772.978	1617.55
773.161	1734.29
773.343	1726.1
773.526	1668.75
773.708	1590.93
773.891	1472.15
774.073	1588.88
774.256	1603.22
774.438	1541.78
774.621	1509.01
774.803	1541.78
774.985	1554.07
775.168	1502.87
775.35	1496.72
775.532	1463.96
775.715	1400.47
775.897	1404.57
776.079	1517.2
776.261	1506.96
776.444	1463.96
776.626	1328.79
776.808	1437.33
776.99	1351.32
777.173	1341.08
777.355	1416.85
777.537	1375.89
777.719	1322.65
777.901	1296.02
778.083	1353.37
778.265	1242.78
778.447	1420.95
778.629	1263.26
778.811	1357.46
778.993	1267.35
779.175	1322.65
779.357	1210.01
779.539	1156.76
779.721	1154.71
779.903	1167
780.085	1240.73
780.267	1185.43
780.449	1115.8
780.631	1187.48
780.812	1210.01
780.994	1203.86
781.176	1142.43
781.358	1160.86
781.54	1013.4
781.721	1216.15
781.903	1099.42
782.085	1169.05
782.267	1117.85
782.448	1013.4
782.63	990.88
782.812	1056.41
782.993	1085.08
783.175	1185.43
783.357	1142.43
783.538	1064.6
783.72	941.72
783.901	956.06
784.083	943.77
784.264	1001.12
784.446	892.57
784.627	900.76
784.809	974.49
784.99	958.11
785.172	992.92
785.353	992.92
785.535	886.43
785.716	939.68
785.897	888.48
786.079	851.61
786.26	941.72
786.441	872.09
786.623	824.99
786.804	868
786.985	949.92
787.167	868
787.348	812.7
787.529	796.32
787.71	876.19
787.891	892.57
788.073	806.56
788.254	788.13
788.435	868
788.616	812.7
788.797	777.89
788.978	761.5
789.159	796.32
789.34	853.66
789.522	693.92
789.703	741.02
789.884	738.98
790.065	781.98
790.246	702.11
790.427	657.06
790.607	724.64
790.788	775.84
790.969	652.96
791.15	808.61
791.331	722.59
791.512	655.01
791.693	671.39
791.874	646.82
792.054	722.59
792.235	679.58
792.416	689.82
792.597	687.78
792.778	667.3
792.958	650.91
793.139	679.58
793.32	593.57
793.5	562.85
793.681	689.82
793.862	706.21
794.042	661.15
794.223	698.02
794.404	601.76
794.584	624.29
794.765	589.47
794.945	622.24
795.126	669.34
795.306	607.91
795.487	601.76
795.667	573.09
795.848	642.72
796.028	548.51
796.209	566.95
796.389	630.43
796.57	591.52
796.75	583.33
796.93	546.47
797.111	532.13
797.291	568.99
797.471	630.43
797.652	560.8
797.832	544.42
798.012	573.09
798.192	542.37
798.373	499.36
798.553	519.84
798.733	612
798.913	552.61
799.093	548.51
799.274	491.17
799.454	515.75
799.634	558.75
799.814	448.16
799.994	458.4
800.174	568.99
800.354	542.37
800.534	448.16
800.714	532.13
800.894	417.44
801.074	425.64
801.254	497.32
801.434	573.09
801.614	415.4
801.794	419.49
801.974	1115.8
802.154	476.84
802.334	419.49
802.514	433.83
802.693	421.54
802.873	437.92
803.053	364.2
803.233	446.12
803.413	470.69
803.592	431.78
803.772	345.77
803.952	388.77
804.131	386.72
804.311	370.34
804.491	472.74
804.67	409.25
804.85	364.2
805.03	431.78
805.209	462.5
805.389	392.87
805.568	403.11
805.748	368.29
805.928	360.1
806.107	472.74
806.287	374.44
806.466	485.03
806.646	358.05
806.825	407.2
807.004	454.31
807.184	415.4
807.363	351.91
807.543	403.11
807.722	327.33
807.901	394.92
808.081	431.78
808.26	300.71
808.439	431.78
808.619	317.09
808.798	376.48
808.977	362.15
809.156	349.86
809.336	364.2
809.515	308.9
809.694	339.62
809.873	368.29
810.052	308.9
810.231	390.82
810.411	329.38
810.59	313
810.769	294.57
810.948	308.9
811.127	327.33
811.306	327.33
811.485	290.47
811.664	298.66
811.843	304.81
812.022	419.49
812.201	368.29
812.38	259.75
812.559	339.62
812.737	376.48
812.916	349.86
813.095	313
813.274	405.16
813.453	304.81
813.632	337.57
813.811	339.62
813.989	206.5
814.168	390.82
814.347	274.09
814.526	267.94
814.704	317.09
814.883	376.48
815.062	298.66
815.24	261.8
815.419	308.9
815.598	372.39
815.776	288.42
815.955	263.85
816.133	302.76
816.312	245.41
816.49	304.81
816.669	298.66
816.847	282.28
817.026	343.72
817.204	261.8
817.383	194.22
817.561	212.65
817.74	245.41
817.918	321.19
818.097	218.79
818.275	310.95
818.453	220.84
818.632	261.8
818.81	274.09
818.988	190.12
819.167	212.65
819.345	306.85
819.523	229.03
819.701	243.37
819.879	276.13
820.058	263.85
820.236	321.19
820.414	235.18
820.592	315.05
820.77	257.7
820.948	257.7
821.127	241.32
821.305	206.5
821.483	208.55
821.661	222.89
821.839	280.23
822.017	229.03
822.195	147.11
822.373	196.26
822.551	157.35
822.729	298.66
822.907	229.03
823.085	267.94
823.262	235.18
823.44	175.78
823.618	198.31
823.796	198.31
823.974	253.61
824.152	167.59
824.329	169.64
824.507	181.93
824.685	235.18
824.863	259.75
825.04	206.5
825.218	196.26
825.396	165.54
825.574	210.6
825.751	239.27
825.929	190.12
826.107	222.89
826.284	226.98
826.462	216.74
826.639	212.65
826.817	159.4
826.994	183.98
827.172	159.4
827.349	202.41
827.527	190.12
827.704	241.32
827.882	237.22
828.059	177.83
828.237	155.3
828.414	253.61
828.591	175.78
828.769	134.82
828.946	202.41
829.124	210.6
829.301	192.17
829.478	116.39
829.655	208.55
829.833	214.7
830.01	140.97
830.187	108.2
830.364	122.54
830.542	243.37
830.719	159.4
830.896	114.34
831.073	169.64
831.25	114.34
831.427	233.13
831.604	188.07
831.782	155.3
831.959	188.07
832.136	91.82
832.313	194.22
832.49	155.3
832.667	157.35
832.844	126.63
833.021	222.89
833.198	118.44
833.374	192.17
833.551	167.59
833.728	161.45
833.905	183.98
834.082	147.11
834.259	130.73
834.436	222.89
834.612	153.26
834.789	165.54
834.966	104.11
835.143	177.83
835.319	102.06
835.496	104.11
835.673	130.73
835.85	132.78
836.026	126.63
836.203	167.59
836.38	130.73
836.556	120.49
836.733	71.34
836.909	171.69
837.086	87.72
837.262	104.11
837.439	48.81
837.616	138.92
837.792	97.96
837.968	89.77
838.145	-2.39
838.321	126.63
838.498	157.35
838.674	116.39
838.851	97.96
839.027	52.91
839.203	122.54
839.38	130.73
839.556	65.19
839.732	118.44
839.909	87.72
840.085	128.68
840.261	102.06
840.437	179.88
840.614	95.91
840.79	122.54
840.966	54.95
841.142	188.07
841.318	73.39
841.494	179.88
841.671	171.69
841.847	54.95
842.023	69.29
842.199	104.11
842.375	126.63
842.551	57
842.727	147.11
842.903	147.11
843.079	28.33
843.255	159.4
843.431	118.44
843.607	143.02
843.783	-22.87
843.959	75.43
844.134	118.44
844.31	112.3
844.486	132.78
844.662	161.45
844.838	181.93
845.013	130.73
845.189	179.88
845.365	50.86
845.541	91.82
845.716	108.2
845.892	106.15
846.068	42.67
846.244	147.11
846.419	79.53
846.595	132.78
846.77	38.57
846.946	106.15
847.122	147.11
847.297	13.99
847.473	204.46
847.648	32.43
847.824	67.24
847.999	83.63
848.175	93.87
848.35	120.49
848.526	132.78
848.701	59.05
848.876	159.4
849.052	108.2
849.227	106.15
849.403	83.63
849.578	140.97
849.753	67.24
849.929	97.96
850.104	46.76
850.279	63.15
850.454	143.02
850.63	138.92
850.805	5.8
850.98	95.91
851.155	69.29
851.33	91.82
851.505	100.01
851.681	124.58
851.856	44.71
852.031	73.39
852.206	79.53
852.381	46.76
852.556	54.95
852.731	63.15
852.906	63.15
853.081	42.67
853.256	61.1
853.431	46.76
853.606	-6.49
853.781	32.43
853.956	48.81
854.131	-12.63
854.305	71.34
854.48	38.57
854.655	73.39
854.83	-2.39
855.005	114.34
855.18	69.29
855.354	75.43
855.529	89.77
855.704	48.81
855.879	65.19
856.053	52.91
856.228	83.63
856.403	59.05
856.577	24.23
856.752	1.71
856.926	40.62
857.101	34.47
857.276	38.57
857.45	48.81
857.625	112.3
857.799	61.1
857.974	145.06
858.148	36.52
858.323	38.57
858.497	26.28
858.672	59.05
858.846	77.48
859.02	104.11
859.195	24.23
859.369	79.53
859.543	-59.73
859.718	108.2
859.892	16.04
860.066	100.01
860.241	16.04
860.415	79.53
860.589	59.05
860.763	5.8
860.938	73.39
861.112	67.24
861.286	69.29
861.46	50.86
861.634	46.76
861.808	81.58
861.982	38.57
862.157	32.43
862.331	57
862.505	-10.58
862.679	28.33
862.853	-33.11
863.027	7.85
863.201	48.81
863.375	-20.82
863.549	108.2
863.722	91.82
863.896	44.71
864.07	-12.63
864.244	44.71
864.418	48.81
864.592	48.81
864.766	7.85
864.939	46.76
865.113	-2.39
865.287	61.1
865.461	-39.25
865.634	16.04
865.808	24.23
865.982	-22.87
866.156	63.15
866.329	114.34
866.503	46.76
866.676	30.38
866.85	50.86
867.024	-51.54
867.197	71.34
867.371	48.81
867.544	32.43
867.718	-35.16
867.891	97.96
868.065	11.95
868.238	3.75
868.412	73.39
868.585	11.95
868.759	48.81
868.932	11.95
869.105	13.99
869.279	52.91
869.452	-26.96
869.625	69.29
869.799	-0.34
869.972	40.62
870.145	16.04
870.319	11.95
870.492	-14.68
870.665	67.24
870.838	34.47
871.011	-29.01
871.185	30.38
871.358	28.33
871.531	110.25
871.704	40.62
871.877	-39.25
872.05	-45.4
872.223	48.81
872.396	75.43
872.569	95.91
872.742	18.09
872.915	46.76
873.088	9.9
873.261	67.24
873.434	-20.82
873.607	-12.63
873.78	63.15
873.953	16.04
874.126	71.34
874.299	36.52
874.471	18.09
874.644	-39.25
874.817	42.67
874.99	63.15
875.163	-0.34
875.335	-35.16
875.508	34.47
875.681	48.81
875.853	28.33
876.026	-24.92
876.199	38.57
876.371	42.67
876.544	-16.73
876.717	-10.58
876.889	38.57
877.062	16.04
877.234	-39.25
877.407	-10.58
877.579	-12.63
877.752	95.91
877.924	57
878.097	9.9
878.269	32.43
878.442	124.58
878.614	3.75
878.786	-35.16
878.959	46.76
879.131	120.49
879.303	-86.36
879.476	32.43
879.648	87.72
879.82	24.23
879.993	1.71
880.165	16.04
880.337	-20.82
880.509	42.67
880.681	-20.82
880.854	24.23
881.026	26.28
881.198	87.72
881.37	-14.68
881.542	-2.39
881.714	-10.58
881.886	34.47
882.058	-72.02
882.23	11.95
882.402	7.85
882.574	-2.39
882.746	46.76
882.918	71.34
883.09	13.99
883.262	40.62
883.434	-6.49
883.606	-2.39
883.778	9.9
883.95	75.43
884.122	44.71
884.293	3.75
884.465	11.95
884.637	69.29
884.809	-10.58
884.98	81.58
885.152	42.67
885.324	30.38
885.496	11.95
885.667	-18.77
885.839	24.23
886.011	85.67
886.182	63.15
886.354	46.76
886.525	73.39
886.697	48.81
886.869	13.99
887.04	7.85
887.212	18.09
887.383	44.71
887.555	61.1
887.726	-57.68
887.897	-57.68
888.069	-31.06
888.24	1.71
888.412	48.81
888.583	-12.63
888.754	13.99
888.926	-29.01
889.097	-14.68
889.268	-35.16
889.44	1.71
889.611	-80.21
889.782	24.23
889.953	-18.77
890.125	3.75
890.296	50.86
890.467	-59.73
890.638	95.91
890.809	-0.34
890.98	30.38
891.151	-4.44
891.323	42.67
891.494	22.19
891.665	5.8
891.836	3.75
892.007	-31.06
892.178	-33.11
892.349	-24.92
892.52	-26.96
892.691	3.75
892.862	42.67
893.032	13.99
893.203	7.85
893.374	5.8
893.545	40.62
893.716	-43.35
893.887	16.04
894.057	5.8
894.228	3.75
894.399	-35.16
894.57	89.77
894.74	13.99
894.911	32.43
895.082	-18.77
895.253	16.04
895.423	85.67
895.594	110.25
895.764	-22.87
895.935	-45.4
896.106	-4.44
896.276	7.85
896.447	48.81
896.617	-37.2
896.788	67.24
896.958	28.33
897.129	32.43
897.299	-69.97
897.47	79.53
897.64	46.76
897.81	79.53
897.981	-8.53
898.151	-39.25
898.322	-6.49
898.492	13.99
898.662	-51.54
898.832	48.81
899.003	46.76
899.173	16.04
899.343	44.71
899.513	-12.63
