Data from USB4F104151__68__12-42-11-658.txt Node

Date: Fri Mar 14 12:42:11 EDT 2025
User: louis
Spectrometer: USB4F10415
Trigger mode: 4
Integration Time (sec): 3.000000E-2
Scans to average: 1
Electric dark correction enabled: true
Nonlinearity correction enabled: false
Boxcar width: 0
XAxis mode: Wavelengths
Number of Pixels in Spectrum: 3648
>>>>>Begin Spectral Data<<<<<
178.204	-109.05
178.424	-109.05
178.644	-109.05
178.864	-86.53
179.084	-102.91
179.304	17.92
179.524	-8.7
179.744	-8.7
179.964	-8.7
180.184	-37.38
180.404	-43.52
180.624	15.87
180.844	13.82
181.064	-43.52
181.283	11.78
181.503	77.31
181.723	13.82
181.943	-47.62
182.163	132.61
182.383	67.07
182.602	105.98
182.822	42.5
183.042	34.3
183.262	40.45
183.482	34.3
183.701	26.11
183.921	58.88
184.141	7.68
184.361	7.68
184.58	9.73
184.8	30.21
185.02	48.64
185.239	65.02
185.459	79.36
185.679	62.98
185.898	-33.28
186.118	71.17
186.338	89.6
186.557	71.17
186.777	15.87
186.997	3.58
187.216	9.73
187.436	77.31
187.655	97.79
187.875	24.06
188.095	79.36
188.314	-8.7
188.534	34.3
188.753	28.16
188.973	17.92
189.192	151.04
189.412	34.3
189.631	77.31
189.851	52.74
190.07	73.21
190.29	26.11
190.509	3.58
190.729	52.74
190.948	60.93
191.168	79.36
191.387	73.21
191.607	75.26
191.826	67.07
192.045	95.74
192.265	99.84
192.484	50.69
192.704	103.93
192.923	-53.76
193.142	124.41
193.362	11.78
193.581	138.75
193.8	26.11
194.02	83.45
194.239	73.21
194.458	69.12
194.678	19.97
194.897	91.65
195.116	44.54
195.335	60.93
195.555	32.26
195.774	-14.85
195.993	40.45
196.212	40.45
196.432	93.69
196.651	65.02
196.87	87.55
197.089	181.76
197.308	58.88
197.528	67.07
197.747	-55.81
197.966	105.98
198.185	146.94
198.404	89.6
198.623	101.89
198.842	24.06
199.062	73.21
199.281	75.26
199.5	13.82
199.719	34.3
199.938	97.79
200.157	65.02
200.376	9.73
200.595	99.84
200.814	91.65
201.033	73.21
201.252	171.52
201.471	69.12
201.69	67.07
201.909	9.73
202.128	108.03
202.347	40.45
202.566	73.21
202.785	-20.99
203.004	1.54
203.223	122.37
203.442	30.21
203.661	34.3
203.879	99.84
204.098	50.69
204.317	-23.04
204.536	65.02
204.755	128.51
204.974	69.12
205.193	62.98
205.411	60.93
205.63	79.36
205.849	50.69
206.068	-41.47
206.287	-20.99
206.505	36.35
206.724	54.78
206.943	5.63
207.162	52.74
207.381	126.46
207.599	36.35
207.818	15.87
208.037	52.74
208.255	67.07
208.474	42.5
208.693	58.88
208.911	50.69
209.13	83.45
209.349	13.82
209.567	30.21
209.786	65.02
210.005	19.97
210.223	46.59
210.442	24.06
210.661	24.06
210.879	69.12
211.098	118.27
211.316	89.6
211.535	124.41
211.753	11.78
211.972	48.64
212.191	67.07
212.409	15.87
212.628	17.92
212.846	71.17
213.065	118.27
213.283	91.65
213.502	-2.56
213.72	44.54
213.938	50.69
214.157	40.45
214.375	79.36
214.594	-43.52
214.812	97.79
215.031	60.93
215.249	56.83
215.467	60.93
215.686	17.92
215.904	110.08
216.122	38.4
216.341	101.89
216.559	26.11
216.778	103.93
216.996	50.69
217.214	50.69
217.432	-14.85
217.651	28.16
217.869	40.45
218.087	65.02
218.306	28.16
218.524	116.22
218.742	124.41
218.96	52.74
219.179	17.92
219.397	28.16
219.615	114.17
219.833	40.45
220.051	-61.95
220.27	101.89
220.488	60.93
220.706	48.64
220.924	40.45
221.142	50.69
221.36	36.35
221.578	81.41
221.796	75.26
222.015	93.69
222.233	71.17
222.451	114.17
222.669	30.21
222.887	34.3
223.105	62.98
223.323	79.36
223.541	-8.7
223.759	187.9
223.977	-16.9
224.195	52.74
224.413	71.17
224.631	32.26
224.849	32.26
225.067	65.02
225.285	-10.75
225.503	50.69
225.721	7.68
225.939	69.12
226.157	54.78
226.375	165.37
226.592	-41.47
226.81	-0.51
227.028	3.58
227.246	140.8
227.464	99.84
227.682	116.22
227.9	1.54
228.117	97.79
228.335	93.69
228.553	71.17
228.771	34.3
228.989	40.45
229.206	38.4
229.424	50.69
229.642	22.02
229.86	36.35
230.077	38.4
230.295	36.35
230.513	128.51
230.731	52.74
230.948	71.17
231.166	91.65
231.384	44.54
231.601	15.87
231.819	122.37
232.037	-6.66
232.254	-39.42
232.472	28.16
232.689	58.88
232.907	99.84
233.125	62.98
233.342	7.68
233.56	19.97
233.777	19.97
233.995	56.83
234.213	83.45
234.43	-18.94
234.648	116.22
234.865	7.68
235.083	7.68
235.3	11.78
235.518	77.31
235.735	85.5
235.953	67.07
236.17	-14.85
236.388	3.58
236.605	124.41
236.822	128.51
237.04	144.89
237.257	28.16
237.475	28.16
237.692	85.5
237.909	48.64
238.127	17.92
238.344	38.4
238.562	79.36
238.779	30.21
238.996	13.82
239.214	42.5
239.431	42.5
239.648	91.65
239.865	52.74
240.083	114.17
240.3	1.54
240.517	-33.28
240.735	58.88
240.952	65.02
241.169	40.45
241.386	42.5
241.603	5.63
241.821	32.26
242.038	112.13
242.255	-8.7
242.472	54.78
242.689	130.56
242.907	79.36
243.124	60.93
243.341	62.98
243.558	46.59
243.775	-18.94
243.992	77.31
244.209	116.22
244.426	122.37
244.643	91.65
244.86	3.58
245.078	81.41
245.295	79.36
245.512	93.69
245.729	114.17
245.946	87.55
246.163	17.92
246.38	48.64
246.597	48.64
246.814	26.11
247.031	95.74
247.248	34.3
247.464	44.54
247.681	26.11
247.898	52.74
248.115	-45.57
248.332	36.35
248.549	-6.66
248.766	93.69
248.983	52.74
249.2	77.31
249.417	83.45
249.633	38.4
249.85	105.98
250.067	42.5
250.284	108.03
250.501	58.88
250.717	36.35
250.934	-12.8
251.151	118.27
251.368	-0.51
251.585	32.26
251.801	46.59
252.018	1.54
252.235	-10.75
252.451	58.88
252.668	15.87
252.885	151.04
253.102	67.07
253.318	85.5
253.535	65.02
253.752	-33.28
253.968	5.63
254.185	56.83
254.401	69.12
254.618	114.17
254.835	1.54
255.051	128.51
255.268	56.83
255.484	140.8
255.701	3.58
255.917	110.08
256.134	-16.9
256.351	19.97
256.567	15.87
256.784	93.69
257	50.69
257.217	19.97
257.433	3.58
257.65	56.83
257.866	67.07
258.082	30.21
258.299	56.83
258.515	40.45
258.732	157.18
258.948	24.06
259.165	48.64
259.381	60.93
259.597	136.7
259.814	5.63
260.03	56.83
260.246	-4.61
260.463	42.5
260.679	95.74
260.895	89.6
261.112	54.78
261.328	11.78
261.544	85.5
261.761	108.03
261.977	-84.48
262.193	58.88
262.409	17.92
262.626	77.31
262.842	24.06
263.058	75.26
263.274	91.65
263.49	105.98
263.707	120.32
263.923	85.5
264.139	65.02
264.355	81.41
264.571	85.5
264.787	3.58
265.004	40.45
265.22	11.78
265.436	50.69
265.652	46.59
265.868	114.17
266.084	-20.99
266.3	85.5
266.516	52.74
266.732	54.78
266.948	36.35
267.164	54.78
267.38	46.59
267.596	77.31
267.812	87.55
268.028	13.82
268.244	65.02
268.46	48.64
268.676	32.26
268.892	42.5
269.108	79.36
269.324	36.35
269.54	-68.09
269.756	67.07
269.972	71.17
270.188	83.45
270.403	46.59
270.619	60.93
270.835	101.89
271.051	112.13
271.267	-25.09
271.483	9.73
271.698	69.12
271.914	52.74
272.13	95.74
272.346	15.87
272.562	-0.51
272.777	19.97
272.993	73.21
273.209	81.41
273.425	62.98
273.64	-2.56
273.856	101.89
274.072	22.02
274.287	5.63
274.503	91.65
274.719	75.26
274.934	38.4
275.15	54.78
275.366	54.78
275.581	15.87
275.797	26.11
276.012	36.35
276.228	-0.51
276.444	48.64
276.659	101.89
276.875	87.55
277.09	19.97
277.306	50.69
277.521	-18.94
277.737	73.21
277.952	48.64
278.168	77.31
278.383	67.07
278.599	-31.23
278.814	140.8
279.03	71.17
279.245	58.88
279.461	54.78
279.676	46.59
279.892	-20.99
280.107	28.16
280.322	17.92
280.538	-8.7
280.753	56.83
280.969	118.27
281.184	42.5
281.399	71.17
281.615	91.65
281.83	77.31
282.045	15.87
282.26	44.54
282.476	48.64
282.691	75.26
282.906	50.69
283.122	75.26
283.337	77.31
283.552	9.73
283.767	93.69
283.983	42.5
284.198	11.78
284.413	46.59
284.628	-4.61
284.843	58.88
285.058	91.65
285.274	38.4
285.489	65.02
285.704	103.93
285.919	28.16
286.134	32.26
286.349	24.06
286.564	7.68
286.779	36.35
286.995	30.21
287.21	19.97
287.425	93.69
287.64	13.82
287.855	42.5
288.07	32.26
288.285	118.27
288.5	128.51
288.715	126.46
288.93	52.74
289.145	30.21
289.36	77.31
289.575	30.21
289.79	3.58
290.004	24.06
290.219	40.45
290.434	1.54
290.649	56.83
290.864	83.45
291.079	40.45
291.294	-20.99
291.509	85.5
291.724	1.54
291.938	28.16
292.153	60.93
292.368	-29.18
292.583	71.17
292.798	93.69
293.012	69.12
293.227	30.21
293.442	93.69
293.657	62.98
293.871	13.82
294.086	15.87
294.301	81.41
294.516	87.55
294.73	52.74
294.945	52.74
295.16	77.31
295.374	75.26
295.589	30.21
295.804	13.82
296.018	38.4
296.233	128.51
296.447	75.26
296.662	67.07
296.877	36.35
297.091	7.68
297.306	-39.42
297.52	34.3
297.735	65.02
297.949	30.21
298.164	73.21
298.378	93.69
298.593	38.4
298.807	34.3
299.022	-25.09
299.236	24.06
299.451	40.45
299.665	101.89
299.88	116.22
300.094	1.54
300.309	56.83
300.523	142.85
300.737	-4.61
300.952	40.45
301.166	128.51
301.381	118.27
301.595	36.35
301.809	7.68
302.024	36.35
302.238	28.16
302.452	122.37
302.667	48.64
302.881	99.84
303.095	42.5
303.309	38.4
303.524	3.58
303.738	71.17
303.952	67.07
304.166	81.41
304.381	-6.66
304.595	136.7
304.809	69.12
305.023	42.5
305.237	-33.28
305.452	91.65
305.666	58.88
305.88	79.36
306.094	99.84
306.308	7.68
306.522	44.54
306.736	-6.66
306.95	48.64
307.164	-33.28
307.379	34.3
307.593	112.13
307.807	101.89
308.021	69.12
308.235	99.84
308.449	67.07
308.663	65.02
308.877	128.51
309.091	52.74
309.305	65.02
309.519	48.64
309.733	50.69
309.947	-16.9
310.161	48.64
310.374	142.85
310.588	87.55
310.802	1.54
311.016	48.64
311.23	77.31
311.444	62.98
311.658	-8.7
311.872	165.37
312.085	58.88
312.299	97.79
312.513	56.83
312.727	46.59
312.941	17.92
313.154	118.27
313.368	-10.75
313.582	13.82
313.796	11.78
314.009	77.31
314.223	60.93
314.437	38.4
314.651	120.32
314.864	60.93
315.078	60.93
315.292	50.69
315.505	17.92
315.719	50.69
315.933	93.69
316.146	110.08
316.36	7.68
316.573	91.65
316.787	1.54
317.001	128.51
317.214	-6.66
317.428	-14.85
317.641	-14.85
317.855	83.45
318.068	95.74
318.282	17.92
318.495	77.31
318.709	58.88
318.922	58.88
319.136	91.65
319.349	134.65
319.563	3.58
319.776	69.12
319.99	7.68
320.203	54.78
320.417	22.02
320.63	46.59
320.843	118.27
321.057	5.63
321.27	65.02
321.483	95.74
321.697	81.41
321.91	36.35
322.124	58.88
322.337	71.17
322.55	85.5
322.763	81.41
322.977	69.12
323.19	-25.09
323.403	-0.51
323.617	75.26
323.83	32.26
324.043	105.98
324.256	22.02
324.469	28.16
324.683	97.79
324.896	-49.66
325.109	34.3
325.322	101.89
325.535	71.17
325.748	71.17
325.962	-41.47
326.175	65.02
326.388	87.55
326.601	91.65
326.814	-20.99
327.027	91.65
327.24	146.94
327.453	-74.24
327.666	99.84
327.879	11.78
328.092	93.69
328.305	32.26
328.518	73.21
328.731	-0.51
328.944	42.5
329.157	40.45
329.37	36.35
329.583	153.09
329.796	93.69
330.009	-2.56
330.222	105.98
330.435	146.94
330.648	30.21
330.861	-4.61
331.073	101.89
331.286	46.59
331.499	58.88
331.712	19.97
331.925	83.45
332.138	34.3
332.35	69.12
332.563	-2.56
332.776	75.26
332.989	22.02
333.202	-14.85
333.414	54.78
333.627	44.54
333.84	42.5
334.053	58.88
334.265	17.92
334.478	52.74
334.691	-18.94
334.903	112.13
335.116	50.69
335.329	58.88
335.541	40.45
335.754	99.84
335.966	58.88
336.179	-29.18
336.392	-18.94
336.604	56.83
336.817	-12.8
337.029	93.69
337.242	83.45
337.454	81.41
337.667	30.21
337.88	89.6
338.092	87.55
338.305	19.97
338.517	83.45
338.729	124.41
338.942	77.31
339.154	28.16
339.367	-49.66
339.579	122.37
339.792	77.31
340.004	75.26
340.217	56.83
340.429	91.65
340.641	11.78
340.854	22.02
341.066	56.83
341.278	56.83
341.491	153.09
341.703	34.3
341.915	30.21
342.128	40.45
342.34	110.08
342.552	11.78
342.764	130.56
342.977	22.02
343.189	50.69
343.401	89.6
343.613	108.03
343.826	48.64
344.038	-45.57
344.25	22.02
344.462	46.59
344.674	65.02
344.886	-0.51
345.099	142.85
345.311	93.69
345.523	132.61
345.735	93.69
345.947	83.45
346.159	22.02
346.371	40.45
346.583	24.06
346.795	99.84
347.007	50.69
347.219	-41.47
347.431	81.41
347.643	101.89
347.855	89.6
348.067	116.22
348.279	30.21
348.491	148.99
348.703	38.4
348.915	56.83
349.127	24.06
349.339	83.45
349.551	114.17
349.763	9.73
349.975	48.64
350.187	159.23
350.399	46.59
350.61	73.21
350.822	17.92
351.034	19.97
351.246	15.87
351.458	54.78
351.669	48.64
351.881	136.7
352.093	75.26
352.305	105.98
352.517	118.27
352.728	148.99
352.94	42.5
353.152	99.84
353.363	122.37
353.575	56.83
353.787	120.32
353.999	13.82
354.21	144.89
354.422	34.3
354.633	65.02
354.845	69.12
355.057	105.98
355.268	44.54
355.48	65.02
355.692	85.5
355.903	36.35
356.115	-6.66
356.326	9.73
356.538	79.36
356.749	50.69
356.961	73.21
357.172	81.41
357.384	-8.7
357.595	163.33
357.807	128.51
358.018	60.93
358.23	87.55
358.441	142.85
358.653	110.08
358.864	44.54
359.075	38.4
359.287	22.02
359.498	40.45
359.709	52.74
359.921	38.4
360.132	-27.14
360.344	108.03
360.555	42.5
360.766	89.6
360.977	15.87
361.189	132.61
361.4	71.17
361.611	118.27
361.823	126.46
362.034	73.21
362.245	52.74
362.456	9.73
362.667	89.6
362.879	67.07
363.09	73.21
363.301	28.16
363.512	50.69
363.723	108.03
363.935	22.02
364.146	50.69
364.357	22.02
364.568	34.3
364.779	77.31
364.99	83.45
365.201	101.89
365.412	71.17
365.623	26.11
365.834	87.55
366.045	40.45
366.256	75.26
366.467	15.87
366.678	62.98
366.889	17.92
367.1	46.59
367.311	44.54
367.522	19.97
367.733	3.58
367.944	54.78
368.155	-6.66
368.366	62.98
368.577	116.22
368.788	155.13
368.999	65.02
369.209	120.32
369.42	91.65
369.631	128.51
369.842	110.08
370.053	91.65
370.264	58.88
370.474	58.88
370.685	77.31
370.896	62.98
371.107	83.45
371.317	134.65
371.528	13.82
371.739	87.55
371.95	81.41
372.16	120.32
372.371	15.87
372.582	124.41
372.792	67.07
373.003	65.02
373.214	138.75
373.424	134.65
373.635	30.21
373.846	138.75
374.056	-0.51
374.267	42.5
374.477	-6.66
374.688	81.41
374.898	50.69
375.109	95.74
375.319	42.5
375.53	89.6
375.74	116.22
375.951	69.12
376.161	124.41
376.372	163.33
376.582	52.74
376.793	103.93
377.003	34.3
377.214	167.42
377.424	81.41
377.635	32.26
377.845	44.54
378.055	151.04
378.266	22.02
378.476	42.5
378.686	114.17
378.897	101.89
379.107	101.89
379.317	114.17
379.528	42.5
379.738	73.21
379.948	38.4
380.158	48.64
380.369	105.98
380.579	85.5
380.789	34.3
380.999	140.8
381.21	122.37
381.42	87.55
381.63	22.02
381.84	101.89
382.05	87.55
382.261	87.55
382.471	79.36
382.681	1.54
382.891	99.84
383.101	46.59
383.311	-8.7
383.521	15.87
383.731	60.93
383.941	73.21
384.151	60.93
384.361	17.92
384.571	101.89
384.781	44.54
384.991	97.79
385.201	132.61
385.411	144.89
385.621	87.55
385.831	140.8
386.041	73.21
386.251	30.21
386.461	97.79
386.671	83.45
386.881	11.78
387.091	40.45
387.301	-6.66
387.511	71.17
387.72	151.04
387.93	85.5
388.14	48.64
388.35	112.13
388.56	124.41
388.769	126.46
388.979	19.97
389.189	60.93
389.399	114.17
389.609	177.66
389.818	128.51
390.028	169.47
390.238	140.8
390.447	32.26
390.657	124.41
390.867	87.55
391.076	40.45
391.286	110.08
391.496	101.89
391.705	65.02
391.915	38.4
392.125	77.31
392.334	60.93
392.544	181.76
392.753	122.37
392.963	44.54
393.172	26.11
393.382	48.64
393.591	151.04
393.801	48.64
394.01	118.27
394.22	126.46
394.429	67.07
394.639	114.17
394.848	81.41
395.058	52.74
395.267	136.7
395.477	95.74
395.686	124.41
395.895	155.13
396.105	138.75
396.314	167.42
396.524	136.7
396.733	83.45
396.942	110.08
397.152	146.94
397.361	118.27
397.57	144.89
397.78	142.85
397.989	116.22
398.198	97.79
398.407	165.37
398.617	103.93
398.826	148.99
399.035	112.13
399.244	200.19
399.453	148.99
399.663	97.79
399.872	87.55
400.081	99.84
400.29	144.89
400.499	181.76
400.708	144.89
400.917	65.02
401.127	157.18
401.336	136.7
401.545	196.09
401.754	130.56
401.963	204.28
402.172	138.75
402.381	73.21
402.59	116.22
402.799	151.04
403.008	97.79
403.217	136.7
403.426	194.05
403.635	169.47
403.844	163.33
404.053	99.84
404.262	122.37
404.471	185.85
404.68	157.18
404.888	136.7
405.097	177.66
405.306	189.95
405.515	179.71
405.724	185.85
405.933	300.54
406.142	124.41
406.35	204.28
406.559	216.57
406.768	212.48
406.977	255.48
407.185	148.99
407.394	243.2
407.603	220.67
407.812	349.69
408.02	271.87
408.229	308.73
408.438	232.96
408.646	257.53
408.855	333.31
409.064	263.68
409.272	275.96
409.481	269.82
409.69	294.4
409.898	253.44
410.107	325.12
410.315	337.4
410.524	325.12
410.733	394.75
410.941	347.64
411.15	423.42
411.358	378.36
411.567	484.86
411.775	374.27
411.984	468.47
412.192	491
412.401	464.38
412.609	505.34
412.818	650.74
413.026	577.02
413.234	517.62
413.443	558.58
413.651	556.54
413.86	605.69
414.068	599.54
414.276	671.22
414.485	652.79
414.693	744.95
414.901	765.43
415.11	687.61
415.318	773.62
415.526	691.7
415.734	798.2
415.943	744.95
416.151	843.25
416.359	818.68
416.567	871.92
416.776	925.17
416.984	1017.33
417.192	1046
417.4	994.8
417.608	980.47
417.817	1019.38
418.025	1119.73
418.233	1160.69
418.441	1086.96
418.649	1181.17
418.857	1287.66
419.065	1359.34
419.273	1365.48
419.481	1381.87
419.689	1439.21
419.897	1572.33
420.105	1545.7
420.313	1547.75
420.521	1750.5
420.729	1682.92
420.937	1744.36
421.145	1785.32
421.353	1924.58
421.561	1918.43
421.769	1988.07
421.977	2037.22
422.185	2127.33
422.393	2160.1
422.601	2317.79
422.809	2336.22
423.017	2346.46
423.224	2563.54
423.432	2518.49
423.64	2461.15
423.848	2745.81
424.056	2778.58
424.263	2883.03
424.471	2899.41
424.679	2842.07
424.887	3079.63
425.094	3321.29
425.302	3286.48
425.51	3454.41
425.718	3497.42
425.925	3528.14
426.133	3657.16
426.341	3829.19
426.548	4091.33
426.756	3943.88
426.964	4132.29
427.171	4300.22
427.379	4257.22
427.586	4525.5
427.794	4728.25
428.001	4683.19
428.209	5053.87
428.417	4904.37
428.624	5262.77
428.832	5266.86
429.039	5254.58
429.247	5152.18
429.454	5645.74
429.662	6296.99
429.869	5670.31
430.076	6174.11
430.284	5932.45
430.491	6235.55
430.699	6776.22
430.906	6552.99
431.114	6602.14
431.321	7034.26
431.528	6962.58
431.736	7562.64
431.943	7826.82
432.15	7521.68
432.358	7540.11
432.565	8064.39
432.772	8177.03
432.979	8437.12
433.187	8584.57
433.394	8758.65
433.601	9459.06
433.808	9442.67
434.016	9264.5
434.223	9692.52
434.43	10229.09
434.637	10085.73
434.844	10775.9
435.052	10902.87
435.259	10829.15
435.466	11056.47
435.673	10999.13
435.88	11638.09
436.087	12076.36
436.294	12137.8
436.501	12078.41
436.708	12047.69
436.915	12834.11
437.122	12963.13
437.329	13038.91
437.537	13321.52
437.743	13739.31
437.95	13503.79
438.157	14406.95
438.364	14759.2
438.571	14681.38
438.778	14605.6
438.985	16155.91
439.192	15729.94
439.399	16096.52
439.606	15746.32
439.813	16577.8
440.02	17857.78
440.227	17177.85
440.433	17208.57
440.64	17743.09
440.847	17497.33
441.054	18050.28
441.261	19299.55
441.467	19121.37
441.674	19211.48
441.881	20143.31
442.088	19887.31
442.294	19780.82
442.501	20356.3
442.708	20720.84
442.914	21562.55
443.121	22293.68
443.328	21742.77
443.534	23315.61
443.741	22863.01
443.948	22377.64
444.154	24206.48
444.361	23923.86
444.568	24179.86
444.774	24276.11
444.981	24482.95
445.187	25187.46
445.394	26371.18
445.6	25754.74
445.807	28425.29
446.013	27552.86
446.22	27614.3
446.426	28693.58
446.633	29015.11
446.839	29895.74
447.046	28795.98
447.252	30370.86
447.459	30374.96
447.665	30362.67
447.871	31706.14
448.078	33205.25
448.284	31257.64
448.491	32396.31
448.697	33569.79
448.903	34360.31
449.11	34053.11
449.316	33723.39
449.522	34477.04
449.728	35255.27
449.935	35718.11
450.141	35283.94
450.347	36068.31
450.553	34919.4
450.76	35781.6
450.966	36787.15
451.172	36465.62
451.378	37549
451.584	36604.88
451.791	37868.48
451.997	37256.14
452.203	38093.75
452.409	37852.09
452.615	37665.73
452.821	36512.72
453.027	35787.74
453.233	37843.9
453.44	36328.41
453.646	36891.6
453.852	37266.38
454.058	38007.74
454.264	36486.1
454.47	37268.42
454.676	36400.08
454.882	37379.01
455.088	34427.89
455.294	34876.4
455.5	34878.44
455.705	35582.95
455.911	34270.2
456.117	33582.08
456.323	33459.2
456.529	31794.2
456.735	32842.76
456.941	32285.72
457.147	31712.28
457.352	30643.24
457.558	30299.19
457.764	30284.85
457.97	29991.99
458.176	29109.32
458.381	28955.72
458.587	27804.76
458.793	27669.59
458.999	26180.72
459.204	27872.34
459.41	27458.65
459.616	25826.42
459.821	25887.86
460.027	25457.79
460.233	25162.88
460.438	23555.22
460.644	24384.65
460.85	22875.3
461.055	22498.47
461.261	22535.34
461.466	20954.3
461.672	20219.08
461.878	21681.33
462.083	20294.86
462.289	20112.59
462.494	19737.81
462.7	18801.89
462.905	18218.22
463.111	19002.59
463.316	19082.46
463.522	18517.22
463.727	18758.88
463.932	18676.96
464.138	18474.21
464.343	18445.54
464.549	17947.89
464.754	18697.44
464.959	18291.94
465.165	18062.57
465.37	17427.7
465.575	17143.03
465.781	17775.86
465.986	17837.3
466.191	16977.15
466.397	16727.3
466.602	15858.96
466.807	16610.56
467.012	16592.13
467.218	16436.49
467.423	16424.2
467.628	16418.05
467.833	16921.85
468.038	16522.5
468.244	15852.81
468.449	16774.4
468.654	16235.78
468.859	16141.58
469.064	15942.92
469.269	15234.33
469.474	15473.94
469.679	15711.5
469.885	15340.82
470.09	15574.29
470.295	15283.48
470.5	14630.18
470.705	14968.09
470.91	14712.1
471.115	14476.58
471.32	14775.58
471.525	14589.22
471.73	14509.35
471.935	14400.8
472.139	13880.62
472.344	14220.58
472.549	14095.66
472.754	13954.35
472.959	13421.88
473.164	13167.93
473.369	13249.85
473.574	13581.62
473.778	13534.51
473.983	13231.41
474.188	13083.96
474.393	12551.49
474.598	12606.78
474.802	12516.67
475.007	12537.15
475.212	12621.12
475.417	11826.51
475.621	12092.74
475.826	12045.64
476.031	11892.04
476.235	11703.63
476.44	11873.61
476.645	11509.07
476.849	11619.66
477.054	11562.32
477.259	11373.91
477.463	11304.28
477.668	10964.31
477.872	10982.74
478.077	10982.74
478.282	10476.9
478.486	10734.94
478.691	10505.57
478.895	10421.6
479.1	10392.93
479.304	10560.86
479.509	10335.59
479.713	10298.72
479.918	9909.61
480.122	9919.85
480.326	10059.11
480.531	10075.49
480.735	9948.52
480.94	9911.66
481.144	10306.91
481.348	9825.64
481.553	9678.19
481.757	9592.17
481.961	9891.18
482.166	10110.31
482.37	9848.17
482.574	9520.49
482.778	9667.95
482.983	10001.77
483.187	9778.54
483.391	9770.35
483.595	9504.11
483.8	9614.7
484.004	9624.94
484.208	9686.38
484.412	9751.92
484.616	9747.82
484.821	9624.94
485.025	9514.35
485.229	9708.91
485.433	9414
485.637	9610.61
485.841	9561.45
486.045	9575.79
486.249	9676.14
486.453	9590.13
486.657	9555.31
486.861	9569.65
487.065	9430.38
487.269	9641.32
487.473	9463.15
487.677	9657.71
487.881	9694.57
488.085	9713
488.289	9692.52
488.493	9772.39
488.697	9725.29
488.901	9686.38
489.105	9921.9
489.309	9704.81
489.512	9764.2
489.716	9921.9
489.92	9643.37
490.124	9616.75
490.328	9989.48
490.531	9833.83
490.735	9911.66
490.939	9876.84
491.143	9735.53
491.346	9739.63
491.55	10231.14
491.754	10173.8
491.958	10243.43
492.161	9936.23
492.365	10067.3
492.569	10257.76
492.772	9893.23
492.976	10265.96
493.18	10468.7
493.383	10440.03
493.587	10382.69
493.79	10519.9
493.994	10331.49
494.197	10536.29
494.401	10767.71
494.605	10679.65
494.808	10880.35
495.012	10718.56
495.215	10845.53
495.419	11234.64
495.622	10949.98
495.825	11081.05
496.029	11185.49
496.232	11447.63
496.436	11138.39
496.639	11613.52
496.843	11394.39
497.046	11519.31
497.249	11902.28
497.453	11996.49
497.656	11937.1
497.859	12004.68
498.063	12246.34
498.266	12657.98
498.469	12299.59
498.673	12588.35
498.876	12569.92
499.079	12819.77
499.282	12692.8
499.485	13061.43
499.689	12924.22
499.892	13366.58
500.095	13382.96
500.298	13716.78
500.501	13356.34
500.705	13948.2
500.908	13897
501.111	14228.77
501.314	14490.91
501.517	14470.44
501.72	14794.01
501.923	14556.45
502.126	15025.43
502.329	15273.24
502.532	15512.85
502.735	15058.2
502.938	15578.39
503.141	15705.36
503.344	16010.51
503.547	15916.3
503.75	16061.71
503.953	16479.49
504.156	16430.34
504.359	16551.17
504.562	16680.19
504.765	17001.72
504.968	17048.83
505.17	17444.09
505.373	17384.69
505.576	17714.42
505.779	18001.13
505.982	18152.68
506.185	18466.02
506.387	18228.46
506.59	18574.56
506.793	18978.01
506.996	18728.16
507.198	19715.28
507.401	19137.76
507.604	19502.29
507.807	19883.22
508.009	20067.53
508.212	19897.55
508.415	20069.58
508.617	20214.99
508.82	20671.68
509.022	20651.2
509.225	21183.68
509.428	20991.17
509.63	21423.29
509.833	21140.67
510.035	21914.8
510.238	21814.45
510.44	22434.99
510.643	22131.89
510.845	22740.13
511.048	22420.65
511.25	22860.96
511.453	22973.6
511.655	23915.67
511.858	23655.58
512.06	23569.56
512.262	23930
512.465	24052.88
512.667	24460.43
512.87	24427.66
513.072	24759.43
513.274	24781.96
513.477	25547.9
513.679	25703.54
513.881	25640.06
514.084	25779.32
514.286	25912.44
514.488	25949.3
514.69	26750.06
514.893	26913.89
515.095	26786.92
515.297	26940.52
515.499	27352.16
515.701	27710.55
515.904	27778.14
516.106	27892.82
516.308	27944.02
516.51	28429.39
516.712	28582.99
516.914	28836.94
517.116	29500.48
517.318	29013.06
517.52	29752.38
517.722	29420.61
517.925	30131.25
518.127	30301.23
518.329	30608.43
518.531	30350.38
518.733	30788.65
518.935	31171.62
519.136	31052.84
519.338	31441.95
519.54	31484.96
519.742	32037.91
519.944	31958.04
520.146	32384.02
520.348	32474.13
520.55	32650.25
520.752	32754.7
520.954	33494.02
521.155	32840.71
521.357	33416.19
521.559	33539.07
521.761	33967.1
521.963	34085.88
522.164	34069.5
522.366	34030.58
522.568	34493.43
522.77	34651.12
522.971	35324.9
523.173	35050.47
523.375	35107.82
523.576	35320.81
523.778	35378.15
523.98	36017.11
524.181	36031.45
524.383	36031.45
524.584	36152.28
524.786	36346.84
524.988	36502.48
525.189	36455.38
525.391	36850.64
525.592	37047.24
525.794	37028.81
525.995	37274.57
526.197	37153.74
526.398	37241.8
526.6	37774.27
526.801	37839.81
527.003	38106.04
527.204	37972.92
527.406	38501.3
527.607	38159.29
527.808	37895.1
528.01	37712.83
528.211	38128.57
528.412	38482.87
528.614	38775.73
528.815	38888.37
529.016	38890.41
529.218	38333.37
529.419	38843.31
529.62	39166.89
529.822	38798.26
530.023	39052.2
530.224	39154.6
530.425	38736.82
530.626	38398.9
530.828	38740.91
531.029	39490.47
531.23	38691.76
531.431	39105.45
531.632	39435.17
531.833	39386.02
532.035	39261.1
532.236	39644.07
532.437	39363.5
532.638	39390.12
532.839	39459.75
533.04	39576.48
533.241	39003.05
533.442	40145.82
533.643	39590.82
533.844	39261.1
534.045	39355.3
534.246	39078.83
534.447	39855.01
534.648	39480.23
534.849	39525.28
535.05	39195.56
535.251	39850.91
535.451	39566.24
535.652	39523.24
535.853	39121.84
536.054	39502.76
536.255	39668.64
536.456	39056.3
536.657	39793.57
536.857	39254.95
537.058	39275.43
537.259	39603.11
537.46	39703.46
537.66	39551.91
537.861	39768.99
538.062	39224.23
538.263	39576.48
538.463	39474.09
538.664	39216.04
538.865	39783.33
539.065	39564.2
539.266	39709.6
539.466	39797.66
539.667	39148.46
539.868	39631.78
540.068	39504.81
540.269	39560.1
540.469	39791.52
540.67	39216.04
540.87	39064.49
541.071	39150.51
541.271	39455.65
541.472	39125.93
541.672	38869.93
541.873	38937.52
542.073	38738.86
542.274	39205.8
542.474	39340.97
542.675	38372.28
542.875	39371.69
543.075	39351.21
543.276	38880.17
543.476	39543.72
543.676	38755.25
543.877	39193.51
544.077	39355.3
544.277	38906.8
544.478	38912.94
544.678	38992.81
544.878	38706.1
545.078	39058.35
545.279	38712.24
545.479	39033.77
545.679	39105.45
545.879	38466.49
546.079	38966.19
546.28	39072.68
546.48	38728.63
546.68	38855.6
546.88	38640.56
547.08	38925.23
547.28	38663.09
547.48	38306.74
547.68	38931.37
547.88	38998.96
548.081	38308.79
548.281	38769.58
548.481	38570.93
548.681	38650.8
548.881	38749.1
549.081	38890.41
549.28	38409.14
549.48	38923.18
549.68	38466.49
549.88	38962.09
550.08	38243.26
550.28	38525.88
550.48	38081.47
550.68	38558.64
550.88	38538.16
551.08	38589.36
551.279	38562.74
551.479	38384.57
551.679	38417.33
551.879	38116.28
552.079	38792.11
552.278	38419.38
552.478	38749.1
552.678	38339.51
552.878	38333.37
553.077	38247.35
553.277	38067.13
553.477	38566.84
553.676	37936.06
553.876	38261.69
554.076	38364.09
554.275	38294.46
554.475	37952.44
554.674	38151.1
554.874	38376.37
555.074	38169.53
555.273	38130.62
555.473	38478.77
555.672	37815.23
555.872	38020.03
556.071	37688.26
556.271	38392.76
556.47	37551.04
556.67	37790.66
556.869	37686.21
557.068	38056.89
557.268	37485.51
557.467	37639.11
557.667	38009.79
557.866	37665.73
558.065	37766.08
558.265	37528.52
558.464	37381.06
558.663	38130.62
558.863	37112.78
559.062	37505.99
559.261	37094.35
559.461	37680.07
559.66	37039.05
559.859	37555.14
560.058	37276.62
560.258	37303.24
560.457	36961.23
560.656	37604.29
560.855	37127.11
561.054	37110.73
561.253	36817.87
561.453	36950.99
561.652	37192.65
561.851	37252.04
562.05	36729.81
562.249	37088.2
562.448	36897.74
562.647	36643.79
562.846	37223.37
563.045	36770.77
563.244	36678.61
563.443	37108.68
563.642	36439
563.841	36721.62
564.04	36279.25
564.239	36783.05
564.438	36105.18
564.637	36391.89
564.836	36617.17
565.035	35910.62
565.234	36326.36
565.432	36277.21
565.631	36105.18
565.83	35992.54
566.029	35906.52
566.228	35734.49
566.427	36099.03
566.625	35877.85
566.824	35587.04
567.023	35963.87
567.222	35236.84
567.42	35890.14
567.619	35462.11
567.818	35689.44
568.016	35339.24
568.215	36008.92
568.414	35220.45
568.612	35619.81
568.811	35144.68
569.01	35419.11
569.208	34524.15
569.407	35204.07
569.605	34884.59
569.804	35161.06
570.002	34774
570.201	34573.3
570.4	34804.72
570.598	34659.31
570.797	34651.12
570.995	34636.78
571.193	34247.67
571.392	34675.69
571.59	34182.13
571.789	34431.99
571.987	34286.58
572.186	34157.56
572.384	34169.85
572.582	34227.19
572.781	34163.7
572.979	33575.94
573.177	33973.24
573.376	34550.77
573.574	33698.81
573.772	34046.97
573.971	33981.43
574.169	33768.44
574.367	33502.21
574.565	33612.8
574.763	32975.88
574.962	33240.07
575.16	33152.01
575.358	33068.04
575.556	33242.12
575.754	33362.95
575.952	32826.38
576.151	33221.64
576.349	32728.08
576.547	32820.24
576.745	32605.2
576.943	32961.55
577.141	32717.84
577.339	32791.56
577.537	32590.86
577.735	32848.91
577.933	32560.14
578.131	32441.36
578.329	32080.92
578.527	32244.76
578.725	32472.08
578.923	32689.17
579.121	31667.23
579.319	31917.08
579.516	31945.75
579.714	31943.7
579.912	31960.09
580.11	31550.49
580.308	31900.7
580.506	31540.25
580.704	30977.06
580.901	31462.43
581.099	31808.54
581.297	31134.76
581.495	31364.13
581.692	31093.8
581.89	30889
582.088	31370.27
582.285	31306.79
582.483	30813.23
582.681	30895.14
582.878	30602.29
583.076	30612.52
583.274	30780.46
583.471	30518.32
583.669	30278.71
583.866	30127.16
584.064	30512.17
584.262	30100.53
584.459	30514.22
584.657	30123.06
584.854	30485.55
585.052	29750.33
585.249	30172.21
585.447	30176.31
585.644	29613.12
585.841	29887.54
586.039	30030.9
586.236	29523.01
586.434	29561.92
586.631	29426.75
586.828	29631.55
587.026	29639.74
587.223	29346.88
587.42	29332.54
587.618	29443.13
587.815	28773.45
588.012	29013.06
588.21	29101.12
588.407	28920.9
588.604	28435.53
588.801	28404.81
588.999	28685.39
589.196	28591.18
589.393	28611.66
589.59	28228.69
589.787	28427.34
589.984	28060.76
590.182	27812.95
590.379	28269.65
590.576	27634.78
590.773	27858.01
590.97	27583.58
591.167	27919.45
591.364	27593.82
591.561	27794.52
591.758	27448.41
591.955	27288.67
592.152	27442.27
592.349	27401.31
592.546	27374.69
592.743	27106.4
592.94	27073.63
593.137	27192.42
593.334	27411.55
593.531	26737.77
593.727	26743.91
593.924	26907.75
594.121	26657.9
594.318	26694.76
594.515	26592.36
594.712	26834.02
594.908	26113.14
595.105	26475.63
595.302	26070.13
595.499	26016.88
595.696	26496.11
595.892	25873.53
596.089	26150
596.286	25726.07
596.482	25953.4
596.679	25941.11
596.876	25842.81
597.072	25828.47
597.269	25648.25
597.466	25240.7
597.662	25511.03
597.859	25764.98
598.055	25570.43
598.252	25011.33
598.448	25015.43
598.645	24921.22
598.841	24790.15
599.038	25017.47
599.234	25005.19
599.431	24802.44
599.627	24439.95
599.824	24712.33
600.02	24771.72
600.217	24509.58
600.413	24558.73
600.609	24310.93
600.806	24401.04
601.002	24388.75
601.198	23696.53
601.395	24040.59
601.591	23800.98
601.787	23925.91
601.984	23788.69
602.18	23989.39
602.376	23725.21
602.572	23710.87
602.769	23901.33
602.965	23338.14
603.161	23520.41
603.357	23344.28
603.553	23481.5
603.75	23188.64
603.946	23311.52
604.142	23276.7
604.338	22838.44
604.534	23037.09
604.73	22928.55
604.926	22889.63
605.122	22928.55
605.318	22893.73
605.514	22557.86
605.71	22635.69
605.906	22584.49
606.102	22357.16
606.298	22367.4
606.494	22387.88
606.69	22037.68
606.886	22328.49
607.082	22058.16
607.278	22283.44
607.474	21814.45
607.67	22408.36
607.866	21980.34
608.062	22232.24
608.257	21978.29
608.453	21828.79
608.649	21820.6
608.845	21574.84
609.041	21941.43
609.236	21458.1
609.432	21861.55
609.628	21699.76
609.824	21404.86
610.019	21462.2
610.215	21521.59
610.411	21408.95
610.606	21265.6
610.802	21808.31
610.998	21423.29
611.193	21372.09
611.389	21583.03
611.584	21150.91
611.78	21140.67
611.976	21300.41
612.171	21478.58
612.367	21265.6
612.562	20919.49
612.758	20638.92
612.953	20718.79
613.149	20925.63
613.344	20747.46
613.539	21007.55
613.735	20958.4
613.93	20841.67
614.126	20624.58
614.321	20888.77
614.517	20667.59
614.712	20915.39
614.907	20753.6
615.103	20716.74
615.298	20417.74
615.493	20606.15
615.688	20458.7
615.884	20876.48
616.079	20221.13
616.274	20466.89
616.47	20559.05
616.665	20223.18
616.86	20344.01
617.055	20126.92
617.25	20262.09
617.445	20333.77
617.641	20059.34
617.836	20128.97
618.031	19729.62
618.226	20065.49
618.421	19707.09
618.616	19872.98
618.811	19438.81
619.006	19893.46
619.201	19418.33
619.396	19686.61
619.591	19154.14
619.786	19324.12
619.981	19047.65
620.176	19305.69
620.371	19090.65
620.566	19395.8
620.761	18910.43
620.956	18988.25
621.151	18943.2
621.346	19176.67
621.541	18636
621.735	18828.51
621.93	18185.45
622.125	18423.01
622.32	18038
622.515	18210.03
622.709	18142.44
622.904	18302.18
623.099	18054.38
623.294	18140.4
623.488	17681.65
623.683	17534.2
623.878	17700.08
624.072	17642.74
624.267	17671.41
624.462	17294.58
624.656	17140.99
624.851	17435.89
625.046	17161.47
625.24	17036.54
625.435	16723.2
625.629	16872.7
625.824	16600.32
626.018	16700.67
626.213	16295.18
626.407	16325.89
626.602	16540.93
626.796	16475.4
626.991	16319.75
627.185	15975.69
627.38	16006.41
627.574	16065.8
627.768	15740.18
627.963	15758.61
628.157	15486.23
628.352	15828.24
628.546	15500.56
628.74	15557.91
628.935	15318.29
629.129	15355.16
629.323	15326.49
629.517	15195.42
629.712	15297.81
629.906	15154.46
630.1	14630.18
630.294	14918.94
630.489	14615.84
630.683	14824.73
630.877	14468.39
631.071	14515.49
631.265	14624.03
631.459	14476.58
631.653	14210.34
631.848	14439.72
632.042	14019.88
632.236	14124.33
632.43	13966.63
632.624	14060.84
632.818	13925.68
633.012	13741.36
633.206	13593.9
633.4	13767.98
633.594	13374.77
633.788	13757.74
633.982	13565.23
634.176	13479.22
634.369	13395.25
634.563	13112.63
634.757	13274.42
634.951	13112.63
635.145	12952.89
635.339	12977.47
635.533	12815.68
635.726	12954.94
635.92	12731.71
636.114	12950.84
636.308	12594.5
636.501	12756.29
636.695	12559.68
636.889	12549.44
637.083	12485.95
637.276	12471.62
637.47	12328.26
637.664	12272.96
637.857	12391.75
638.051	12377.41
638.244	12268.87
638.438	12023.11
638.632	12041.54
638.825	11887.95
639.019	11894.09
639.212	11748.68
639.406	11881.8
639.599	11525.46
639.793	11681.1
639.986	11560.27
640.18	11519.31
640.373	11339.09
640.567	11349.33
640.76	11410.77
640.954	11238.74
641.147	11103.57
641.34	11175.25
641.534	11076.95
641.727	11038.04
641.92	10812.76
642.114	10853.72
642.307	10999.13
642.5	10872.15
642.694	10777.95
642.887	10769.76
643.08	10882.39
643.273	10616.16
643.467	10411.36
643.66	10399.07
643.853	10372.45
644.046	10274.15
644.239	10210.66
644.432	10218.85
644.626	10286.44
644.819	10210.66
645.012	10065.25
645.205	10085.73
645.398	9962.86
645.591	9979.24
645.784	9862.51
645.977	9735.53
646.17	9815.4
646.363	9586.03
646.556	9637.23
646.749	9534.83
646.942	9809.26
647.135	9545.07
647.328	9530.73
647.521	9612.65
647.714	9342.32
647.907	9424.24
648.099	9518.45
648.292	9282.93
648.485	9342.32
648.678	9090.42
648.871	8983.93
649.064	9106.81
649.256	9004.41
649.449	8758.65
649.642	9012.6
649.835	8834.43
650.027	8770.94
650.22	8936.82
650.413	8865.14
650.605	8842.62
650.798	8541.57
650.991	8547.71
651.183	8668.54
651.376	8494.46
651.568	8631.68
651.761	8648.06
651.954	8607.1
652.146	8437.12
652.339	8338.82
652.531	8258.95
652.724	8267.14
652.916	8050.05
653.109	8240.51
653.301	7882.12
653.494	8205.7
653.686	8013.19
653.879	8129.92
654.071	7816.58
654.263	8066.44
654.456	7820.68
654.648	7869.83
654.84	7763.34
655.033	7742.86
655.225	7634.32
655.417	7538.06
655.61	7749
655.802	7652.75
655.994	7546.25
656.186	7482.77
656.379	7665.04
656.571	7439.76
656.763	7376.27
656.955	7208.34
657.148	7488.91
657.34	7333.26
657.532	7335.31
657.724	7259.54
657.916	7194
658.108	7120.28
658.3	7130.52
658.492	7107.99
658.684	6989.21
658.876	6978.97
659.068	6931.86
659.26	6940.05
659.452	6985.11
659.644	6985.11
659.836	6581.66
660.028	6983.06
660.22	6604.19
660.412	6596
660.604	6718.87
660.796	6614.43
660.988	6763.93
661.18	6403.49
661.372	6491.55
661.563	6602.14
661.755	6557.08
661.947	6432.16
662.139	6466.97
662.331	6174.11
662.522	6434.21
662.714	6430.11
662.906	6258.08
663.097	6223.27
663.289	6198.69
663.481	6180.26
663.673	6030.76
663.864	5932.45
664.056	6077.86
664.247	6006.18
664.439	5934.5
664.631	6036.9
664.822	6077.86
665.014	5979.56
665.205	5922.21
665.397	6051.24
665.588	5764.52
665.78	5690.79
665.971	5944.74
666.163	5748.14
666.354	5717.42
666.546	5651.88
666.737	5615.02
666.929	5721.51
667.12	5508.52
667.311	5508.52
667.503	5655.98
667.694	5537.2
667.885	5422.51
668.077	5627.31
668.268	5500.33
668.459	5453.23
668.651	5459.37
668.842	5373.36
669.033	5330.35
669.224	5395.89
669.416	5297.58
669.607	5252.53
669.798	5459.37
669.989	5361.07
670.18	5221.81
670.371	5213.62
670.563	5152.18
670.754	5215.66
670.945	5107.12
671.136	5160.37
671.327	5178.8
671.518	5131.7
671.709	4990.39
671.9	5037.49
672.091	4896.18
672.282	5037.49
672.473	4912.57
672.664	4873.65
672.855	4914.61
673.046	4748.73
673.237	4842.93
673.428	5051.83
673.619	4939.19
673.809	4820.41
674	4732.34
674.191	5088.69
674.382	4785.59
674.573	4699.58
674.764	4613.56
674.954	4799.93
675.145	4726.2
675.336	4681.14
675.527	4535.74
675.717	4658.62
675.908	4629.95
676.099	4560.31
676.289	4545.98
676.48	4486.59
676.671	4476.35
676.861	4545.98
677.052	4631.99
677.243	4476.35
677.433	4433.34
677.624	4566.46
677.814	4382.14
678.005	4488.64
678.195	4337.09
678.386	4472.25
678.576	4423.1
678.767	4316.61
678.957	4183.49
679.148	4486.59
679.338	4396.48
679.529	4416.96
679.719	4255.17
679.909	4275.65
680.1	4212.16
680.29	4289.98
680.481	4318.65
680.671	4193.73
680.861	4281.79
681.052	4177.34
681.242	4150.72
681.432	4236.74
681.622	4027.84
681.813	4249.02
682.003	4244.93
682.193	4044.23
682.383	4148.67
682.573	4132.29
682.764	4152.77
682.954	4079.04
683.144	4040.13
683.334	3835.33
683.524	4025.79
683.714	4179.39
683.904	3929.54
684.094	3974.6
684.284	3986.88
684.474	3995.08
684.664	4007.36
684.854	3950.02
685.044	3904.96
685.234	3982.79
685.424	3792.33
685.614	3866.05
685.804	3843.53
685.994	3923.4
686.184	3917.25
686.374	3966.4
686.564	3753.41
686.753	3765.7
686.943	3777.99
687.133	3831.24
687.323	3616.2
687.513	3632.58
687.702	3648.97
687.892	3648.97
688.082	3679.69
688.272	3704.26
688.461	3720.65
688.651	3577.29
688.841	3595.72
689.03	3460.56
689.22	3507.66
689.41	3673.54
689.599	3573.19
689.789	3640.78
689.979	3571.15
690.168	3450.32
690.358	3489.23
690.547	3515.85
690.737	3468.75
690.926	3464.65
691.116	3399.12
691.305	3372.49
691.495	3372.49
691.684	3253.71
691.874	3304.91
692.063	3313.1
692.252	3233.23
692.442	3345.87
692.631	3282.38
692.82	3298.77
693.01	3194.32
693.199	3157.46
693.388	3057.11
693.578	3243.47
693.767	3196.37
693.956	3001.81
694.146	3081.68
694.335	3007.95
694.524	3122.64
694.713	2981.33
694.902	3071.44
695.092	2979.28
695.281	3036.63
695.47	2948.56
695.659	2909.65
695.848	3007.95
696.037	2813.4
696.226	2944.47
696.415	2895.32
696.604	2905.56
696.793	2887.12
696.982	2893.27
697.171	3003.86
697.36	2932.18
697.549	2887.12
697.738	2811.35
697.927	2893.27
698.116	2794.97
698.305	2850.26
698.494	2799.06
698.683	2815.45
698.872	2827.73
699.061	2756.05
699.25	2721.24
699.438	2764.25
699.627	2778.58
699.816	2805.21
700.005	2629.08
700.193	2756.05
700.382	2825.68
700.571	2721.24
700.76	2700.76
700.948	2661.85
701.137	2676.18
701.326	2651.61
701.514	2647.51
701.703	2594.26
701.892	2631.13
702.08	2647.51
702.269	2528.73
702.457	2543.07
702.646	2536.92
702.834	2620.89
703.023	2614.74
703.212	2608.6
703.4	2536.92
703.589	2620.89
703.777	2604.5
703.965	2485.72
704.154	2498.01
704.342	2504.15
704.531	2575.83
704.719	2573.78
704.907	2567.64
705.096	2471.39
705.284	2483.67
705.472	2500.06
705.661	2567.64
705.849	2594.26
706.037	2512.35
706.226	2573.78
706.414	2498.01
706.602	2536.92
706.79	2530.78
706.979	2477.53
707.167	2504.15
707.355	2551.26
707.543	2506.2
707.731	2483.67
707.919	2565.59
708.107	2297.31
708.296	2424.28
708.484	2432.47
708.672	2416.09
708.86	2469.34
709.048	2340.32
709.236	2452.95
709.424	2414.04
709.612	2416.09
709.8	2336.22
709.988	2438.62
710.176	2346.46
710.364	2418.14
710.551	2344.41
710.739	2305.5
710.927	2297.31
711.115	2319.84
711.303	2403.8
711.491	2338.27
711.679	2344.41
711.866	2436.57
712.054	2401.76
712.242	2328.03
712.43	2297.31
712.617	2393.56
712.805	2461.15
712.993	2285.02
713.181	2309.6
713.368	2317.79
713.556	2393.56
713.744	2366.94
713.931	2459.1
714.119	2409.95
714.306	2340.32
714.494	2338.27
714.682	2278.88
714.869	2274.78
715.057	2266.59
715.244	2252.25
715.432	2248.16
715.619	2328.03
715.807	2227.68
715.994	2393.56
716.182	2256.35
716.369	2307.55
716.556	2471.39
716.744	2260.45
716.931	2186.72
717.119	2299.36
717.306	2256.35
717.493	2291.17
717.681	2311.64
717.868	2377.18
718.055	2364.89
718.242	2295.26
718.43	2309.6
718.617	2332.12
718.804	2264.54
718.991	2285.02
719.179	2278.88
719.366	2317.79
719.553	2260.45
719.74	2192.86
719.927	2276.83
720.114	2209.25
720.301	2287.07
720.488	2211.29
720.676	2248.16
720.863	2256.35
721.05	2270.69
721.237	2342.36
721.424	2299.36
721.611	2377.18
721.798	2207.2
721.985	2305.5
722.172	2313.69
722.358	2246.11
722.545	2293.21
722.732	2256.35
722.919	2319.84
723.106	2448.86
723.293	2319.84
723.48	2266.59
723.667	2287.07
723.853	2231.77
724.04	2393.56
724.227	2295.26
724.414	2346.46
724.6	2239.97
724.787	2342.36
724.974	2330.08
725.161	2332.12
725.347	2282.97
725.534	2276.83
725.72	2338.27
725.907	2328.03
726.094	2352.6
726.28	2270.69
726.467	2250.21
726.653	2254.3
726.84	2278.88
727.027	2391.52
727.213	2184.67
727.4	2330.08
727.586	2432.47
727.773	2209.25
727.959	2313.69
728.145	2368.99
728.332	2344.41
728.518	2262.49
728.705	2336.22
728.891	2313.69
729.077	2295.26
729.264	2328.03
729.45	2338.27
729.636	2375.13
729.823	2309.6
730.009	2336.22
730.195	2342.36
730.382	2442.71
730.568	2422.24
730.754	2401.76
730.94	2465.24
731.126	2330.08
731.313	2315.74
731.499	2444.76
731.685	2325.98
731.871	2412
732.057	2391.52
732.243	2393.56
732.429	2387.42
732.615	2377.18
732.801	2385.37
732.987	2471.39
733.173	2475.48
733.359	2500.06
733.545	2375.13
733.731	2368.99
733.917	2461.15
734.103	2405.85
734.289	2432.47
734.475	2438.62
734.661	2575.83
734.847	2467.29
735.033	2518.49
735.219	2600.41
735.404	2481.63
735.59	2463.19
735.776	2338.27
735.962	2428.38
736.148	2485.72
736.333	2483.67
736.519	2475.48
736.705	2371.04
736.89	2395.61
737.076	2422.24
737.262	2491.87
737.447	2487.77
737.633	2405.85
737.819	2549.21
738.004	2373.08
738.19	2407.9
738.375	2416.09
738.561	2475.48
738.747	2428.38
738.932	2536.92
739.118	2440.67
739.303	2510.3
739.489	2479.58
739.674	2491.87
739.859	2395.61
740.045	2493.91
740.23	2459.1
740.416	2368.99
740.601	2434.52
740.786	2450.91
740.972	2475.48
741.157	2430.43
741.342	2356.7
741.528	2487.77
741.713	2399.71
741.898	2379.23
742.084	2395.61
742.269	2498.01
742.454	2491.87
742.639	2332.12
742.824	2424.28
743.01	2471.39
743.195	2477.53
743.38	2477.53
743.565	2317.79
743.75	2385.37
743.935	2364.89
744.12	2440.67
744.305	2368.99
744.49	2405.85
744.675	2440.67
744.86	2348.51
745.045	2438.62
745.23	2270.69
745.415	2375.13
745.6	2358.75
745.785	2270.69
745.97	2387.42
746.155	2455
746.34	2377.18
746.525	2338.27
746.71	2428.38
746.895	2282.97
747.079	2379.23
747.264	2360.8
747.449	2309.6
747.634	2239.97
747.819	2444.76
748.003	2344.41
748.188	2188.77
748.373	2287.07
748.557	2301.4
748.742	2252.25
748.927	2201.05
749.111	2250.21
749.296	2227.68
749.481	2223.58
749.665	2125.28
749.85	2125.28
750.034	2182.62
750.219	2143.71
750.404	2223.58
750.588	2112.99
750.773	2123.23
750.957	2127.33
751.141	2104.8
751.326	2035.17
751.51	2098.66
751.695	2033.12
751.879	2133.47
752.064	2067.94
752.248	2102.75
752.432	1998.31
752.617	2135.52
752.801	2108.9
752.985	2063.84
753.17	2053.6
753.354	1961.44
753.538	2051.55
753.722	1928.67
753.907	1986.02
754.091	1877.48
754.275	1926.63
754.459	1877.48
754.643	1926.63
754.828	1900
755.012	1963.49
755.196	1811.94
755.38	1830.37
755.564	1949.15
755.748	1885.67
755.932	1834.47
756.116	1875.43
756.3	1791.46
756.484	1758.69
756.668	1912.29
756.852	1734.12
757.036	1773.03
757.22	1836.52
757.404	1691.11
757.588	1795.56
757.772	1799.65
757.956	1770.98
758.14	1715.69
758.323	1629.67
758.507	1730.02
758.691	1699.3
758.875	1830.37
759.059	1701.35
759.242	1639.91
759.426	1652.2
759.61	1592.81
759.794	1586.66
759.977	1627.62
760.161	1631.72
760.345	1549.8
760.528	1646.05
760.712	1609.19
760.895	1662.44
761.079	1574.38
761.263	1578.47
761.446	1537.51
761.63	1631.72
761.813	1504.75
761.997	1543.66
762.18	1584.62
762.364	1590.76
762.547	1508.84
762.731	1500.65
762.914	1471.98
763.098	1543.66
763.281	1478.12
763.464	1517.03
763.648	1486.31
763.831	1363.44
764.015	1453.55
764.198	1471.98
764.381	1484.27
764.564	1564.14
764.748	1527.27
764.931	1519.08
765.114	1408.49
765.297	1443.31
765.481	1469.93
765.664	1424.87
765.847	1314.28
766.03	1461.74
766.213	1310.19
766.397	1347.05
766.58	1324.52
766.763	1461.74
766.946	1451.5
767.129	1328.62
767.312	1437.16
767.495	1347.05
767.678	1338.86
767.861	1400.3
768.044	1433.07
768.227	1326.57
768.41	1355.24
768.593	1406.44
768.776	1369.58
768.959	1334.76
769.142	1316.33
769.324	1404.39
769.507	1324.52
769.69	1353.2
769.873	1330.67
770.056	1314.28
770.239	1224.17
770.421	1179.12
770.604	1302
770.787	1273.32
770.97	1338.86
771.152	1263.08
771.335	1207.79
771.518	1263.08
771.7	1265.13
771.883	1205.74
772.066	1238.51
772.248	1265.13
772.431	1244.65
772.613	1244.65
772.796	1213.93
772.978	1230.32
773.161	1232.37
773.343	1150.45
773.526	1144.3
773.708	1125.87
773.891	1068.53
774.073	1234.41
774.256	1068.53
774.438	1189.36
774.621	1072.62
774.803	1152.49
774.985	1129.97
775.168	1107.44
775.35	1101.3
775.532	1152.49
775.715	1099.25
775.897	1095.15
776.079	1064.43
776.261	1115.63
776.444	1084.91
776.626	1043.95
776.808	980.47
776.99	1062.38
777.173	980.47
777.355	929.27
777.537	1078.77
777.719	1009.14
777.901	998.9
778.083	1029.62
778.265	1025.52
778.447	937.46
778.629	957.94
778.811	931.31
778.993	953.84
779.175	955.89
779.357	878.07
779.539	792.05
779.721	955.89
779.903	808.44
780.085	851.44
780.267	845.3
780.449	929.27
780.631	1005.04
780.812	947.7
780.994	878.07
781.176	914.93
781.358	851.44
781.54	845.3
781.721	806.39
781.903	820.72
782.085	898.55
782.267	787.96
782.448	708.09
782.63	783.86
782.812	871.92
782.993	851.44
783.175	798.2
783.357	835.06
783.538	814.58
783.72	742.9
783.901	833.01
784.083	785.91
784.264	763.38
784.446	710.13
784.627	658.93
784.809	812.53
784.99	652.79
785.172	665.08
785.353	697.85
785.535	718.33
785.716	568.82
785.897	728.56
786.079	777.72
786.26	685.56
786.441	710.13
786.623	708.09
786.804	630.26
786.985	646.65
787.167	667.13
787.348	622.07
787.529	722.42
787.71	665.08
787.891	671.22
788.073	591.35
788.254	624.12
788.435	691.7
788.616	638.45
788.797	656.89
788.978	642.55
789.159	499.19
789.34	665.08
789.522	587.26
789.703	517.62
789.884	611.83
790.065	482.81
790.246	572.92
790.427	542.2
790.607	585.21
790.788	640.5
790.969	523.77
791.15	585.21
791.331	640.5
791.512	564.73
791.693	507.38
791.874	517.62
792.054	509.43
792.235	617.97
792.416	419.32
792.597	550.39
792.778	517.62
792.958	587.26
793.139	435.71
793.32	501.24
793.5	450.04
793.681	531.96
793.862	527.86
794.042	474.62
794.223	476.66
794.404	521.72
794.584	499.19
794.765	413.18
794.945	488.95
795.126	519.67
795.306	456.19
795.487	325.12
795.667	548.34
795.848	435.71
796.028	486.9
796.209	499.19
796.389	507.38
796.57	470.52
796.75	417.27
796.93	474.62
797.111	417.27
797.291	439.8
797.471	460.28
797.652	480.76
797.832	384.51
798.012	419.32
798.192	413.18
798.373	380.41
798.553	433.66
798.733	364.03
798.913	407.03
799.093	435.71
799.274	454.14
799.454	433.66
799.634	329.21
799.814	407.03
799.994	466.42
800.174	321.02
800.354	316.92
800.534	390.65
800.714	353.79
800.894	312.83
801.074	398.84
801.254	329.21
801.434	407.03
801.614	388.6
801.794	325.12
801.974	996.85
802.154	347.64
802.334	380.41
802.514	413.18
802.693	402.94
802.873	282.11
803.053	378.36
803.233	382.46
803.413	341.5
803.592	337.4
803.772	314.88
803.952	359.93
804.131	247.29
804.311	300.54
804.491	339.45
804.67	230.91
804.85	290.3
805.03	304.64
805.209	386.55
805.389	329.21
805.568	267.77
805.748	306.68
805.928	298.49
806.107	364.03
806.287	290.3
806.466	280.06
806.646	275.96
806.825	327.16
807.004	269.82
807.184	345.59
807.363	288.25
807.543	314.88
807.722	216.57
807.901	253.44
808.081	292.35
808.26	298.49
808.439	232.96
808.619	329.21
808.798	345.59
808.977	282.11
809.156	261.63
809.336	290.3
809.515	368.12
809.694	265.72
809.873	237.05
810.052	345.59
810.231	263.68
810.411	253.44
810.59	265.72
810.769	235
810.948	269.82
811.127	218.62
811.306	230.91
811.485	214.52
811.664	280.06
811.843	226.81
812.022	212.48
812.201	228.86
812.38	275.96
812.559	237.05
812.737	239.1
812.916	226.81
813.095	253.44
813.274	245.24
813.453	202.24
813.632	267.77
813.811	257.53
813.989	189.95
814.168	253.44
814.347	132.61
814.526	237.05
814.704	249.34
814.883	316.92
815.062	208.38
815.24	226.81
815.419	122.37
815.598	208.38
815.776	153.09
815.955	194.05
816.133	253.44
816.312	224.76
816.49	173.57
816.669	198.14
816.847	228.86
817.026	239.1
817.204	161.28
817.383	216.57
817.561	173.57
817.74	239.1
817.918	185.85
818.097	140.8
818.275	165.37
818.453	171.52
818.632	249.34
818.81	224.76
818.988	183.81
819.167	159.23
819.345	173.57
819.523	155.13
819.701	114.17
819.879	198.14
820.058	181.76
820.236	257.53
820.414	177.66
820.592	169.47
820.77	167.42
820.948	159.23
821.127	75.26
821.305	210.43
821.483	259.58
821.661	218.62
821.839	208.38
822.017	214.52
822.195	222.72
822.373	194.05
822.551	159.23
822.729	122.37
822.907	177.66
823.085	257.53
823.262	204.28
823.44	159.23
823.618	202.24
823.796	181.76
823.974	108.03
824.152	183.81
824.329	140.8
824.507	192
824.685	165.37
824.863	194.05
825.04	196.09
825.218	183.81
825.396	157.18
825.574	181.76
825.751	155.13
825.929	132.61
826.107	159.23
826.284	159.23
826.462	124.41
826.639	132.61
826.817	114.17
826.994	165.37
827.172	187.9
827.349	224.76
827.527	194.05
827.704	210.43
827.882	142.85
828.059	187.9
828.237	128.51
828.414	161.28
828.591	34.3
828.769	232.96
828.946	91.65
829.124	126.46
829.301	155.13
829.478	126.46
829.655	206.33
829.833	81.41
830.01	128.51
830.187	183.81
830.364	114.17
830.542	134.65
830.719	120.32
830.896	95.74
831.073	75.26
831.25	93.69
831.427	116.22
831.604	175.61
831.782	114.17
831.959	161.28
832.136	93.69
832.313	171.52
832.49	136.7
832.667	30.21
832.844	95.74
833.021	108.03
833.198	146.94
833.374	99.84
833.551	124.41
833.728	192
833.905	95.74
834.082	116.22
834.259	69.12
834.436	171.52
834.612	46.59
834.789	140.8
834.966	101.89
835.143	114.17
835.319	103.93
835.496	110.08
835.673	175.61
835.85	112.13
836.026	122.37
836.203	167.42
836.38	65.02
836.556	108.03
836.733	103.93
836.909	194.05
837.086	36.35
837.262	15.87
837.439	126.46
837.616	140.8
837.792	83.45
837.968	132.61
838.145	30.21
838.321	161.28
838.498	73.21
838.674	118.27
838.851	87.55
839.027	-6.66
839.203	95.74
839.38	114.17
839.556	171.52
839.732	159.23
839.909	79.36
840.085	118.27
840.261	83.45
840.437	85.5
840.614	130.56
840.79	179.71
840.966	105.98
841.142	97.79
841.318	77.31
841.494	87.55
841.671	177.66
841.847	108.03
842.023	75.26
842.199	46.59
842.375	130.56
842.551	112.13
842.727	-12.8
842.903	157.18
843.079	93.69
843.255	163.33
843.431	173.57
843.607	101.89
843.783	13.82
843.959	151.04
844.134	69.12
844.31	120.32
844.486	85.5
844.662	75.26
844.838	130.56
845.013	159.23
845.189	83.45
845.365	124.41
845.541	95.74
845.716	54.78
845.892	87.55
846.068	108.03
846.244	69.12
846.419	60.93
846.595	60.93
846.77	24.06
846.946	81.41
847.122	87.55
847.297	40.45
847.473	36.35
847.648	-8.7
847.824	85.5
847.999	93.69
848.175	52.74
848.35	81.41
848.526	112.13
848.701	-0.51
848.876	52.74
849.052	73.21
849.227	89.6
849.403	108.03
849.578	46.59
849.753	36.35
849.929	34.3
850.104	3.58
850.279	17.92
850.454	69.12
850.63	58.88
850.805	58.88
850.98	40.45
851.155	65.02
851.33	114.17
851.505	62.98
851.681	134.65
851.856	118.27
852.031	85.5
852.206	79.36
852.381	48.64
852.556	116.22
852.731	62.98
852.906	112.13
853.081	140.8
853.256	81.41
853.431	36.35
853.606	-18.94
853.781	38.4
853.956	87.55
854.131	17.92
854.305	34.3
854.48	71.17
854.655	24.06
854.83	122.37
855.005	62.98
855.18	56.83
855.354	87.55
855.529	28.16
855.704	38.4
855.879	93.69
856.053	60.93
856.228	126.46
856.403	46.59
856.577	87.55
856.752	62.98
856.926	89.6
857.101	13.82
857.276	40.45
857.45	50.69
857.625	116.22
857.799	105.98
857.974	46.59
858.148	54.78
858.323	81.41
858.497	58.88
858.672	50.69
858.846	67.07
859.02	171.52
859.195	60.93
859.369	34.3
859.543	75.26
859.718	83.45
859.892	34.3
860.066	7.68
860.241	48.64
860.415	11.78
860.589	89.6
860.763	105.98
860.938	30.21
861.112	19.97
861.286	79.36
861.46	36.35
861.634	15.87
861.808	65.02
861.982	-4.61
862.157	67.07
862.331	34.3
862.505	44.54
862.679	62.98
862.853	-33.28
863.027	-0.51
863.201	108.03
863.375	13.82
863.549	48.64
863.722	95.74
863.896	124.41
864.07	52.74
864.244	36.35
864.418	58.88
864.592	-16.9
864.766	44.54
864.939	28.16
865.113	44.54
865.287	89.6
865.461	-20.99
865.634	65.02
865.808	81.41
865.982	118.27
866.156	46.59
866.329	-12.8
866.503	-14.85
866.676	93.69
866.85	65.02
867.024	46.59
867.197	99.84
867.371	54.78
867.544	79.36
867.718	-12.8
867.891	79.36
868.065	9.73
868.238	13.82
868.412	126.46
868.585	99.84
868.759	1.54
868.932	62.98
869.105	38.4
869.279	65.02
869.452	-25.09
869.625	19.97
869.799	56.83
869.972	5.63
870.145	44.54
870.319	108.03
870.492	77.31
870.665	7.68
870.838	-18.94
871.011	-2.56
871.185	77.31
871.358	54.78
871.531	3.58
871.704	50.69
871.877	54.78
872.05	-37.38
872.223	-51.71
872.396	24.06
872.569	46.59
872.742	50.69
872.915	83.45
873.088	-2.56
873.261	-12.8
873.434	79.36
873.607	34.3
873.78	38.4
873.953	7.68
874.126	69.12
874.299	60.93
874.471	13.82
874.644	75.26
874.817	-12.8
874.99	87.55
875.163	-45.57
875.335	52.74
875.508	108.03
875.681	85.5
875.853	-23.04
876.026	130.56
876.199	65.02
876.371	93.69
876.544	54.78
876.717	28.16
876.889	13.82
877.062	44.54
877.234	87.55
877.407	79.36
877.579	15.87
877.752	-18.94
877.924	-25.09
878.097	112.13
878.269	30.21
878.442	-8.7
878.614	142.85
878.786	-8.7
878.959	-10.75
879.131	28.16
879.303	-14.85
879.476	103.93
879.648	58.88
879.82	28.16
879.993	32.26
880.165	36.35
880.337	32.26
880.509	52.74
880.681	-61.95
880.854	54.78
881.026	11.78
881.198	165.37
881.37	52.74
881.542	22.02
881.714	105.98
881.886	-18.94
882.058	126.46
882.23	44.54
882.402	5.63
882.574	114.17
882.746	48.64
882.918	89.6
883.09	-25.09
883.262	26.11
883.434	42.5
883.606	-12.8
883.778	73.21
883.95	44.54
884.122	118.27
884.293	15.87
884.465	69.12
884.637	75.26
884.809	9.73
884.98	77.31
885.152	1.54
885.324	15.87
885.496	-29.18
885.667	-20.99
885.839	118.27
886.011	97.79
886.182	44.54
886.354	9.73
886.525	-10.75
886.697	34.3
886.869	-20.99
887.04	73.21
887.212	65.02
887.383	126.46
887.555	44.54
887.726	-25.09
887.897	93.69
888.069	40.45
888.24	95.74
888.412	40.45
888.583	67.07
888.754	77.31
888.926	24.06
889.097	58.88
889.268	-14.85
889.44	38.4
889.611	-25.09
889.782	-47.62
889.953	-6.66
890.125	67.07
890.296	-76.29
890.467	48.64
890.638	38.4
890.809	1.54
890.98	67.07
891.151	-0.51
891.323	17.92
891.494	3.58
891.665	89.6
891.836	17.92
892.007	54.78
892.178	75.26
892.349	36.35
892.52	50.69
892.691	-25.09
892.862	69.12
893.032	-4.61
893.203	-35.33
893.374	38.4
893.545	65.02
893.716	-8.7
893.887	75.26
894.057	-25.09
894.228	-41.47
894.399	40.45
894.57	62.98
894.74	11.78
894.911	77.31
895.082	-16.9
895.253	-27.14
895.423	5.63
895.594	-20.99
895.764	28.16
895.935	34.3
896.106	42.5
896.276	17.92
896.447	65.02
896.617	-18.94
896.788	-74.24
896.958	-20.99
897.129	-31.23
897.299	89.6
897.47	50.69
897.64	75.26
897.81	9.73
897.981	58.88
898.151	-0.51
898.322	81.41
898.492	-29.18
898.662	11.78
898.832	-25.09
899.003	7.68
899.173	58.88
899.343	36.35
899.513	-25.09
