Data from USB4F104151__0__12-40-51-013.txt Node

Date: Fri Mar 14 12:40:51 EDT 2025
User: louis
Spectrometer: USB4F10415
Trigger mode: 4
Integration Time (sec): 3.000000E-2
Scans to average: 1
Electric dark correction enabled: true
Nonlinearity correction enabled: false
Boxcar width: 0
XAxis mode: Wavelengths
Number of Pixels in Spectrum: 3648
>>>>>Begin Spectral Data<<<<<
178.204	-113.15
178.424	-113.15
178.644	-113.15
178.864	-109.05
179.084	-107.01
179.304	-37.38
179.524	-2.56
179.744	15.87
179.964	52.74
180.184	-39.42
180.404	13.82
180.624	22.02
180.844	13.82
181.064	-14.85
181.283	-0.51
181.503	-94.72
181.723	71.17
181.943	-18.94
182.163	30.21
182.383	-27.14
182.602	89.6
182.822	75.26
183.042	32.26
183.262	44.54
183.482	9.73
183.701	-12.8
183.921	11.78
184.141	15.87
184.361	58.88
184.58	28.16
184.8	-0.51
185.02	22.02
185.239	99.84
185.459	26.11
185.679	75.26
185.898	32.26
186.118	126.46
186.338	11.78
186.557	13.82
186.777	36.35
186.997	-33.28
187.216	26.11
187.436	132.61
187.655	79.36
187.875	50.69
188.095	26.11
188.314	69.12
188.534	48.64
188.753	-14.85
188.973	75.26
189.192	38.4
189.412	50.69
189.631	15.87
189.851	93.69
190.07	48.64
190.29	71.17
190.509	38.4
190.729	-43.52
190.948	112.13
191.168	73.21
191.387	3.58
191.607	40.45
191.826	26.11
192.045	-16.9
192.265	40.45
192.484	75.26
192.704	85.5
192.923	13.82
193.142	138.75
193.362	-25.09
193.581	132.61
193.8	40.45
194.02	79.36
194.239	46.59
194.458	60.93
194.678	1.54
194.897	-33.28
195.116	15.87
195.335	62.98
195.555	54.78
195.774	65.02
195.993	40.45
196.212	-39.42
196.432	30.21
196.651	65.02
196.87	67.07
197.089	69.12
197.308	69.12
197.528	-20.99
197.747	-23.04
197.966	62.98
198.185	95.74
198.404	-23.04
198.623	69.12
198.842	89.6
199.062	9.73
199.281	28.16
199.5	-43.52
199.719	-61.95
199.938	83.45
200.157	79.36
200.376	15.87
200.595	103.93
200.814	1.54
201.033	30.21
201.252	46.59
201.471	38.4
201.69	50.69
201.909	69.12
202.128	9.73
202.347	67.07
202.566	7.68
202.785	28.16
203.004	15.87
203.223	28.16
203.442	42.5
203.661	13.82
203.879	-18.94
204.098	87.55
204.317	-94.72
204.536	56.83
204.755	87.55
204.974	15.87
205.193	-25.09
205.411	101.89
205.63	50.69
205.849	5.63
206.068	13.82
206.287	9.73
206.505	13.82
206.724	28.16
206.943	-12.8
207.162	17.92
207.381	108.03
207.599	101.89
207.818	114.17
208.037	40.45
208.255	24.06
208.474	52.74
208.693	62.98
208.911	71.17
209.13	67.07
209.349	32.26
209.567	28.16
209.786	95.74
210.005	40.45
210.223	40.45
210.442	9.73
210.661	71.17
210.879	38.4
211.098	19.97
211.316	19.97
211.535	71.17
211.753	-6.66
211.972	13.82
212.191	34.3
212.409	54.78
212.628	-6.66
212.846	-39.42
213.065	-25.09
213.283	114.17
213.502	34.3
213.72	60.93
213.938	60.93
214.157	95.74
214.375	24.06
214.594	30.21
214.812	91.65
215.031	28.16
215.249	-10.75
215.467	15.87
215.686	58.88
215.904	73.21
216.122	62.98
216.341	22.02
216.559	110.08
216.778	99.84
216.996	28.16
217.214	5.63
217.432	58.88
217.651	3.58
217.869	99.84
218.087	19.97
218.306	34.3
218.524	50.69
218.742	-25.09
218.96	9.73
219.179	-18.94
219.397	22.02
219.615	83.45
219.833	44.54
220.051	11.78
220.27	65.02
220.488	52.74
220.706	-29.18
220.924	79.36
221.142	22.02
221.36	-16.9
221.578	46.59
221.796	-2.56
222.015	50.69
222.233	-14.85
222.451	58.88
222.669	26.11
222.887	46.59
223.105	85.5
223.323	26.11
223.541	7.68
223.759	5.63
223.977	46.59
224.195	151.04
224.413	-12.8
224.631	38.4
224.849	52.74
225.067	89.6
225.285	79.36
225.503	-20.99
225.721	-27.14
225.939	71.17
226.157	-23.04
226.375	144.89
226.592	-2.56
226.81	22.02
227.028	17.92
227.246	144.89
227.464	69.12
227.682	81.41
227.9	62.98
228.117	69.12
228.335	46.59
228.553	28.16
228.771	48.64
228.989	81.41
229.206	77.31
229.424	36.35
229.642	77.31
229.86	-31.23
230.077	54.78
230.295	26.11
230.513	97.79
230.731	34.3
230.948	97.79
231.166	65.02
231.384	-16.9
231.601	34.3
231.819	77.31
232.037	32.26
232.254	30.21
232.472	-41.47
232.689	5.63
232.907	81.41
233.125	54.78
233.342	-41.47
233.56	9.73
233.777	11.78
233.995	34.3
234.213	67.07
234.43	71.17
234.648	48.64
234.865	44.54
235.083	60.93
235.3	105.98
235.518	77.31
235.735	81.41
235.953	65.02
236.17	19.97
236.388	13.82
236.605	17.92
236.822	105.98
237.04	34.3
237.257	140.8
237.475	36.35
237.692	-18.94
237.909	42.5
238.127	-20.99
238.344	50.69
238.562	67.07
238.779	-23.04
238.996	5.63
239.214	-14.85
239.431	136.7
239.648	46.59
239.865	50.69
240.083	-20.99
240.3	-20.99
240.517	17.92
240.735	11.78
240.952	56.83
241.169	56.83
241.386	38.4
241.603	71.17
241.821	-43.52
242.038	62.98
242.255	60.93
242.472	52.74
242.689	11.78
242.907	75.26
243.124	-10.75
243.341	17.92
243.558	-64
243.775	-14.85
243.992	73.21
244.209	95.74
244.426	134.65
244.643	83.45
244.86	-16.9
245.078	73.21
245.295	103.93
245.512	97.79
245.729	-10.75
245.946	30.21
246.163	97.79
246.38	122.37
246.597	17.92
246.814	3.58
247.031	-18.94
247.248	-12.8
247.464	50.69
247.681	58.88
247.898	103.93
248.115	15.87
248.332	69.12
248.549	40.45
248.766	124.41
248.983	13.82
249.2	54.78
249.417	69.12
249.633	-16.9
249.85	50.69
250.067	5.63
250.284	50.69
250.501	-0.51
250.717	75.26
250.934	-31.23
251.151	-6.66
251.368	11.78
251.585	24.06
251.801	97.79
252.018	9.73
252.235	38.4
252.451	22.02
252.668	65.02
252.885	77.31
253.102	46.59
253.318	3.58
253.535	19.97
253.752	42.5
253.968	15.87
254.185	-6.66
254.401	42.5
254.618	-14.85
254.835	1.54
255.051	50.69
255.268	-16.9
255.484	81.41
255.701	26.11
255.917	34.3
256.134	42.5
256.351	93.69
256.567	-41.47
256.784	34.3
257	-27.14
257.217	54.78
257.433	52.74
257.65	67.07
257.866	13.82
258.082	-18.94
258.299	19.97
258.515	9.73
258.732	62.98
258.948	-45.57
259.165	56.83
259.381	50.69
259.597	58.88
259.814	52.74
260.03	42.5
260.246	99.84
260.463	60.93
260.679	46.59
260.895	19.97
261.112	56.83
261.328	-6.66
261.544	1.54
261.761	91.65
261.977	79.36
262.193	-47.62
262.409	28.16
262.626	60.93
262.842	1.54
263.058	-12.8
263.274	-29.18
263.49	52.74
263.707	85.5
263.923	42.5
264.139	-55.81
264.355	99.84
264.571	95.74
264.787	34.3
265.004	122.37
265.22	34.3
265.436	30.21
265.652	24.06
265.868	-31.23
266.084	-20.99
266.3	60.93
266.516	-6.66
266.732	-6.66
266.948	40.45
267.164	-14.85
267.38	73.21
267.596	46.59
267.812	46.59
268.028	-10.75
268.244	62.98
268.46	15.87
268.676	56.83
268.892	81.41
269.108	-29.18
269.324	11.78
269.54	-37.38
269.756	73.21
269.972	-8.7
270.188	38.4
270.403	28.16
270.619	54.78
270.835	38.4
271.051	67.07
271.267	13.82
271.483	-20.99
271.698	-8.7
271.914	13.82
272.13	17.92
272.346	5.63
272.562	36.35
272.777	24.06
272.993	89.6
273.209	26.11
273.425	19.97
273.64	30.21
273.856	167.42
274.072	3.58
274.287	30.21
274.503	36.35
274.719	40.45
274.934	71.17
275.15	1.54
275.366	11.78
275.581	-14.85
275.797	114.17
276.012	-4.61
276.228	50.69
276.444	19.97
276.659	75.26
276.875	67.07
277.09	42.5
277.306	17.92
277.521	34.3
277.737	15.87
277.952	58.88
278.168	15.87
278.383	77.31
278.599	22.02
278.814	67.07
279.03	22.02
279.245	75.26
279.461	69.12
279.676	71.17
279.892	-12.8
280.107	34.3
280.322	9.73
280.538	32.26
280.753	24.06
280.969	83.45
281.184	9.73
281.399	79.36
281.615	13.82
281.83	73.21
282.045	11.78
282.26	-6.66
282.476	26.11
282.691	124.41
282.906	34.3
283.122	40.45
283.337	28.16
283.552	77.31
283.767	5.63
283.983	-0.51
284.198	87.55
284.413	54.78
284.628	1.54
284.843	-0.51
285.058	58.88
285.274	22.02
285.489	-31.23
285.704	52.74
285.919	58.88
286.134	42.5
286.349	58.88
286.564	32.26
286.779	58.88
286.995	67.07
287.21	-20.99
287.425	87.55
287.64	3.58
287.855	38.4
288.07	-4.61
288.285	95.74
288.5	99.84
288.715	81.41
288.93	79.36
289.145	7.68
289.36	19.97
289.575	15.87
289.79	97.79
290.004	-37.38
290.219	67.07
290.434	48.64
290.649	1.54
290.864	46.59
291.079	28.16
291.294	56.83
291.509	-4.61
291.724	-37.38
291.938	-2.56
292.153	-29.18
292.368	58.88
292.583	-4.61
292.798	34.3
293.012	-37.38
293.227	-43.52
293.442	118.27
293.657	73.21
293.871	132.61
294.086	54.78
294.301	73.21
294.516	71.17
294.73	71.17
294.945	-16.9
295.16	-0.51
295.374	52.74
295.589	19.97
295.804	-0.51
296.018	101.89
296.233	110.08
296.447	40.45
296.662	11.78
296.877	52.74
297.091	95.74
297.306	1.54
297.52	9.73
297.735	34.3
297.949	48.64
298.164	13.82
298.378	93.69
298.593	50.69
298.807	81.41
299.022	42.5
299.236	40.45
299.451	91.65
299.665	19.97
299.88	116.22
300.094	1.54
300.309	42.5
300.523	67.07
300.737	1.54
300.952	97.79
301.166	-0.51
301.381	69.12
301.595	26.11
301.809	58.88
302.024	-10.75
302.238	19.97
302.452	81.41
302.667	-37.38
302.881	75.26
303.095	69.12
303.309	50.69
303.524	32.26
303.738	26.11
303.952	-20.99
304.166	22.02
304.381	9.73
304.595	118.27
304.809	-14.85
305.023	116.22
305.237	-2.56
305.452	44.54
305.666	-4.61
305.88	71.17
306.094	28.16
306.308	103.93
306.522	54.78
306.736	52.74
306.95	36.35
307.164	36.35
307.379	-0.51
307.593	73.21
307.807	32.26
308.021	9.73
308.235	13.82
308.449	48.64
308.663	54.78
308.877	114.17
309.091	32.26
309.305	48.64
309.519	24.06
309.733	30.21
309.947	-39.42
310.161	71.17
310.374	26.11
310.588	81.41
310.802	-16.9
311.016	-14.85
311.23	50.69
311.444	-61.95
311.658	75.26
311.872	44.54
312.085	132.61
312.299	83.45
312.513	32.26
312.727	85.5
312.941	19.97
313.154	77.31
313.368	73.21
313.582	30.21
313.796	69.12
314.009	28.16
314.223	85.5
314.437	40.45
314.651	38.4
314.864	116.22
315.078	-8.7
315.292	-0.51
315.505	40.45
315.719	46.59
315.933	60.93
316.146	26.11
316.36	26.11
316.573	67.07
316.787	60.93
317.001	62.98
317.214	38.4
317.428	34.3
317.641	13.82
317.855	32.26
318.068	83.45
318.282	3.58
318.495	93.69
318.709	71.17
318.922	85.5
319.136	99.84
319.349	54.78
319.563	60.93
319.776	120.32
319.99	46.59
320.203	19.97
320.417	5.63
320.63	89.6
320.843	62.98
321.057	79.36
321.27	30.21
321.483	15.87
321.697	97.79
321.91	7.68
322.124	85.5
322.337	-29.18
322.55	60.93
322.763	48.64
322.977	22.02
323.19	-14.85
323.403	30.21
323.617	-41.47
323.83	93.69
324.043	46.59
324.256	7.68
324.469	3.58
324.683	99.84
324.896	79.36
325.109	52.74
325.322	-31.23
325.535	56.83
325.748	-2.56
325.962	-4.61
326.175	42.5
326.388	91.65
326.601	83.45
326.814	91.65
327.027	79.36
327.24	83.45
327.453	22.02
327.666	46.59
327.879	79.36
328.092	42.5
328.305	56.83
328.518	79.36
328.731	93.69
328.944	73.21
329.157	26.11
329.37	1.54
329.583	50.69
329.796	71.17
330.009	15.87
330.222	36.35
330.435	40.45
330.648	81.41
330.861	17.92
331.073	28.16
331.286	148.99
331.499	140.8
331.712	11.78
331.925	-4.61
332.138	50.69
332.35	105.98
332.563	19.97
332.776	38.4
332.989	5.63
333.202	26.11
333.414	83.45
333.627	75.26
333.84	89.6
334.053	17.92
334.265	50.69
334.478	17.92
334.691	65.02
334.903	36.35
335.116	52.74
335.329	46.59
335.541	52.74
335.754	132.61
335.966	26.11
336.179	38.4
336.392	17.92
336.604	79.36
336.817	-2.56
337.029	73.21
337.242	79.36
337.454	60.93
337.667	48.64
337.88	1.54
338.092	97.79
338.305	-53.76
338.517	3.58
338.729	48.64
338.942	83.45
339.154	-6.66
339.367	36.35
339.579	114.17
339.792	17.92
340.004	97.79
340.217	38.4
340.429	17.92
340.641	5.63
340.854	48.64
341.066	67.07
341.278	34.3
341.491	122.37
341.703	52.74
341.915	73.21
342.128	48.64
342.34	7.68
342.552	17.92
342.764	9.73
342.977	83.45
343.189	58.88
343.401	46.59
343.613	3.58
343.826	19.97
344.038	91.65
344.25	85.5
344.462	-8.7
344.674	28.16
344.886	48.64
345.099	118.27
345.311	71.17
345.523	22.02
345.735	52.74
345.947	67.07
346.159	56.83
346.371	11.78
346.583	40.45
346.795	91.65
347.007	99.84
347.219	97.79
347.431	128.51
347.643	11.78
347.855	-23.04
348.067	118.27
348.279	26.11
348.491	56.83
348.703	42.5
348.915	42.5
349.127	-20.99
349.339	69.12
349.551	36.35
349.763	-2.56
349.975	19.97
350.187	62.98
350.399	181.76
350.61	7.68
350.822	52.74
351.034	136.7
351.246	44.54
351.458	50.69
351.669	3.58
351.881	48.64
352.093	114.17
352.305	175.61
352.517	114.17
352.728	108.03
352.94	32.26
353.152	-18.94
353.363	34.3
353.575	124.41
353.787	69.12
353.999	142.85
354.21	87.55
354.422	13.82
354.633	38.4
354.845	5.63
355.057	89.6
355.268	81.41
355.48	17.92
355.692	-45.57
355.903	-18.94
356.115	62.98
356.326	-27.14
356.538	108.03
356.749	77.31
356.961	148.99
357.172	112.13
357.384	34.3
357.595	220.67
357.807	30.21
358.018	1.54
358.23	56.83
358.441	116.22
358.653	126.46
358.864	32.26
359.075	-47.62
359.287	79.36
359.498	79.36
359.709	38.4
359.921	-4.61
360.132	69.12
360.344	120.32
360.555	52.74
360.766	46.59
360.977	99.84
361.189	71.17
361.4	65.02
361.611	79.36
361.823	54.78
362.034	110.08
362.245	11.78
362.456	79.36
362.667	110.08
362.879	132.61
363.09	44.54
363.301	69.12
363.512	13.82
363.723	24.06
363.935	34.3
364.146	77.31
364.357	15.87
364.568	112.13
364.779	1.54
364.99	122.37
365.201	36.35
365.412	81.41
365.623	-2.56
365.834	22.02
366.045	93.69
366.256	-45.57
366.467	69.12
366.678	71.17
366.889	-14.85
367.1	40.45
367.311	46.59
367.522	44.54
367.733	36.35
367.944	67.07
368.155	69.12
368.366	130.56
368.577	124.41
368.788	87.55
368.999	50.69
369.209	50.69
369.42	144.89
369.631	108.03
369.842	52.74
370.053	91.65
370.264	110.08
370.474	87.55
370.685	28.16
370.896	-6.66
371.107	138.75
371.317	103.93
371.528	95.74
371.739	67.07
371.95	71.17
372.16	50.69
372.371	110.08
372.582	122.37
372.792	48.64
373.003	130.56
373.214	138.75
373.424	62.98
373.635	62.98
373.846	167.42
374.056	42.5
374.267	46.59
374.477	26.11
374.688	50.69
374.898	77.31
375.109	54.78
375.319	128.51
375.53	91.65
375.74	40.45
375.951	148.99
376.161	103.93
376.372	87.55
376.582	114.17
376.793	71.17
377.003	42.5
377.214	65.02
377.424	99.84
377.635	69.12
377.845	75.26
378.055	69.12
378.266	11.78
378.476	13.82
378.686	-0.51
378.897	26.11
379.107	79.36
379.317	24.06
379.528	77.31
379.738	62.98
379.948	50.69
380.158	118.27
380.369	108.03
380.579	58.88
380.789	-74.24
380.999	110.08
381.21	89.6
381.42	56.83
381.63	124.41
381.84	77.31
382.05	118.27
382.261	87.55
382.471	69.12
382.681	103.93
382.891	112.13
383.101	83.45
383.311	67.07
383.521	67.07
383.731	62.98
383.941	99.84
384.151	52.74
384.361	77.31
384.571	54.78
384.781	103.93
384.991	60.93
385.201	132.61
385.411	73.21
385.621	69.12
385.831	69.12
386.041	62.98
386.251	122.37
386.461	91.65
386.671	93.69
386.881	132.61
387.091	71.17
387.301	120.32
387.511	126.46
387.72	30.21
387.93	116.22
388.14	58.88
388.35	22.02
388.56	95.74
388.769	155.13
388.979	40.45
389.189	46.59
389.399	-12.8
389.609	120.32
389.818	17.92
390.028	44.54
390.238	171.52
390.447	26.11
390.657	122.37
390.867	93.69
391.076	9.73
391.286	112.13
391.496	69.12
391.705	54.78
391.915	151.04
392.125	40.45
392.334	77.31
392.544	75.26
392.753	81.41
392.963	1.54
393.172	17.92
393.382	81.41
393.591	155.13
393.801	120.32
394.01	220.67
394.22	114.17
394.429	134.65
394.639	69.12
394.848	103.93
395.058	118.27
395.267	112.13
395.477	163.33
395.686	118.27
395.895	138.75
396.105	255.48
396.314	105.98
396.524	79.36
396.733	120.32
396.942	67.07
397.152	138.75
397.361	192
397.57	89.6
397.78	87.55
397.989	165.37
398.198	148.99
398.407	97.79
398.617	194.05
398.826	112.13
399.035	157.18
399.244	198.14
399.453	124.41
399.663	58.88
399.872	163.33
400.081	75.26
400.29	77.31
400.499	36.35
400.708	110.08
400.917	142.85
401.127	159.23
401.336	112.13
401.545	251.39
401.754	212.48
401.963	142.85
402.172	146.94
402.381	144.89
402.59	177.66
402.799	144.89
403.008	140.8
403.217	124.41
403.426	165.37
403.635	155.13
403.844	235
404.053	200.19
404.262	124.41
404.471	243.2
404.68	226.81
404.888	243.2
405.097	155.13
405.306	198.14
405.515	218.62
405.724	232.96
405.933	216.57
406.142	198.14
406.35	192
406.559	265.72
406.768	210.43
406.977	261.63
407.185	255.48
407.394	286.2
407.603	243.2
407.812	290.3
408.02	306.68
408.229	304.64
408.438	280.06
408.646	325.12
408.855	380.41
409.064	306.68
409.272	327.16
409.481	402.94
409.69	384.51
409.898	331.26
410.107	384.51
410.315	439.8
410.524	390.65
410.733	392.7
410.941	384.51
411.15	497.14
411.358	464.38
411.567	531.96
411.775	542.2
411.984	548.34
412.192	595.45
412.401	599.54
412.609	712.18
412.818	654.84
413.026	703.99
413.234	685.56
413.443	675.32
413.651	624.12
413.86	693.75
414.068	806.39
414.276	812.53
414.485	812.53
414.693	835.06
414.901	884.21
415.11	814.58
415.318	910.83
415.526	978.42
415.734	970.23
415.943	1078.77
416.151	1115.63
416.359	1060.34
416.567	1117.68
416.776	1091.06
416.984	1181.17
417.192	1232.37
417.4	1207.79
417.608	1314.28
417.817	1353.2
418.025	1484.27
418.233	1582.57
418.441	1467.88
418.649	1517.03
418.857	1795.56
419.065	1678.82
419.273	1754.6
419.481	1785.32
419.689	1893.86
419.897	2035.17
420.105	1994.21
420.313	1969.63
420.521	2055.65
420.729	2090.46
420.937	2248.16
421.145	2311.64
421.353	2285.02
421.561	2584.02
421.769	2491.87
421.977	2624.98
422.185	2647.51
422.393	2797.01
422.601	2948.56
422.809	2807.25
423.017	3175.89
423.224	3102.16
423.432	3200.46
423.64	3169.74
423.848	3556.81
424.056	3419.6
424.263	3646.92
424.471	3665.35
424.679	3818.95
424.887	4015.55
425.094	4257.22
425.302	4189.63
425.51	4279.74
425.718	4474.3
425.925	4595.13
426.133	4695.48
426.341	5017.01
426.548	5053.87
426.756	5070.26
426.964	5281.2
427.171	5442.99
427.379	5725.61
427.586	5619.11
427.794	5864.87
428.001	6188.45
428.209	6458.78
428.417	6325.66
428.624	6860.18
428.832	6776.22
429.039	6806.94
429.247	6796.7
429.454	7380.37
429.662	7894.41
429.869	7450
430.076	7896.46
430.284	7777.67
430.491	8113.54
430.699	8494.46
430.906	8416.64
431.114	8693.12
431.321	8904.06
431.528	9266.55
431.736	9721.2
431.943	9950.57
432.15	9831.79
432.358	9915.75
432.565	10554.72
432.772	10536.29
432.979	11023.7
433.187	11124.05
433.394	11201.88
433.601	12092.74
433.808	12100.94
434.016	11883.85
434.223	12578.11
434.43	13204.79
434.637	12791.1
434.844	13983.02
435.052	14142.76
435.259	13878.57
435.466	14079.27
435.673	14062.89
435.88	15002.91
436.087	15686.93
436.294	15740.18
436.501	15219.99
436.708	15496.47
436.915	16106.76
437.122	17036.54
437.329	17001.72
437.537	17411.32
437.743	17624.31
437.95	17534.2
438.157	18109.68
438.364	19270.87
438.571	19006.69
438.778	19141.85
438.985	21023.94
439.192	20085.97
439.399	20870.34
439.606	20233.42
439.813	21363.9
440.02	22910.11
440.227	22564.01
440.433	21966
440.64	22727.85
440.847	22766.76
441.054	23262.37
441.261	24624.26
441.467	24417.42
441.674	25054.34
441.881	25664.63
442.088	25795.7
442.294	25580.67
442.501	26229.87
442.708	26956.9
442.914	27946.07
443.121	29256.77
443.328	28341.33
443.534	30542.89
443.741	29606.97
443.948	29099.08
444.154	31081.51
444.361	30585.9
444.568	31110.18
444.774	31163.43
444.981	31368.23
445.187	32644.11
445.394	33778.68
445.6	33299.46
445.807	36096.99
446.013	35273.7
446.22	36010.97
446.426	36930.51
446.633	37159.88
446.839	39015.34
447.046	37073.87
447.252	39039.92
447.459	38781.87
447.665	38896.56
447.871	40756.11
448.078	42523.51
448.284	40205.21
448.491	41761.67
448.697	43332.46
448.903	43905.89
449.11	43864.93
449.316	43242.35
449.522	44393.31
449.728	45400.91
449.935	45708.1
450.141	45427.53
450.347	46885.68
450.553	44888.92
450.76	45732.68
450.966	47078.19
451.172	46523.19
451.378	48063.27
451.584	46861.11
451.791	47913.76
451.997	47999.78
452.203	48646.94
452.409	49017.62
452.615	48706.33
452.821	47219.5
453.027	46465.85
453.233	48919.32
453.44	47108.91
453.646	47149.87
453.852	47727.4
454.058	48241.44
454.264	47391.53
454.47	47985.44
454.676	46842.68
454.882	48206.62
455.088	44282.72
455.294	44755.8
455.5	45396.81
455.705	46211.9
455.911	44565.34
456.117	43262.83
456.323	42640.25
456.529	40547.22
456.735	42451.83
456.941	41384.84
457.147	40469.4
457.352	39353.26
457.558	39127.98
457.764	39074.73
457.97	38548.4
458.176	37372.87
458.381	37538.76
458.587	36037.59
458.793	35832.8
458.999	34036.73
459.204	36621.27
459.41	35191.78
459.616	33195.01
459.821	32973.83
460.027	33229.83
460.233	32637.97
460.438	30596.14
460.644	31104.04
460.85	29774.91
461.055	29127.75
461.261	29080.64
461.466	26782.82
461.672	26285.17
461.878	28138.58
462.083	26528.88
462.289	25644.15
462.494	25529.47
462.7	24351.88
462.905	23710.87
463.111	24550.54
463.316	24644.74
463.522	24056.98
463.727	24216.72
463.932	23829.65
464.138	23936.15
464.343	23751.83
464.549	23094.43
464.754	23809.17
464.959	23508.12
465.165	23504.03
465.37	22326.44
465.575	22133.93
465.781	23069.86
465.986	23098.53
466.191	22041.78
466.397	21603.51
466.602	20591.81
466.807	21480.63
467.012	21488.82
467.218	21294.27
467.423	21294.27
467.628	21314.75
467.833	21951.67
468.038	21349.56
468.244	20620.49
468.449	21542.07
468.654	20810.95
468.859	20671.68
469.064	20425.93
469.269	19948.75
469.474	20112.59
469.679	20110.54
469.885	19727.57
470.09	20073.68
470.295	19764.43
470.5	19246.3
470.705	19862.74
470.91	18965.73
471.115	18996.45
471.32	19340.5
471.525	19082.46
471.73	18738.4
471.935	18709.73
472.139	17870.06
472.344	18439.4
472.549	18056.43
472.754	17843.44
472.959	17544.44
473.164	17237.24
473.369	17001.72
473.574	17695.99
473.778	17386.74
473.983	17034.49
474.188	17118.46
474.393	16383.24
474.598	16219.4
474.802	16186.63
475.007	16207.11
475.212	16350.47
475.417	15643.92
475.621	15592.72
475.826	15574.29
476.031	15326.49
476.235	15045.91
476.44	15410.45
476.645	14880.03
476.849	15000.86
477.054	14689.57
477.259	14765.34
477.463	14591.27
477.668	14093.61
477.872	14204.2
478.077	13794.61
478.282	13800.75
478.486	13569.33
478.691	13544.75
478.895	13581.62
479.1	13475.12
479.304	13503.79
479.509	13296.95
479.713	13528.37
479.918	13219.13
480.122	13069.62
480.326	13114.68
480.531	13043
480.735	12954.94
480.94	12750.14
481.144	13016.38
481.348	12578.11
481.553	12645.7
481.757	12363.08
481.961	12612.93
482.166	12838.2
482.37	12614.98
482.574	12422.47
482.778	12449.09
482.983	12823.87
483.187	12655.93
483.391	12815.68
483.595	12315.97
483.8	12524.86
484.004	12379.46
484.208	12832.06
484.412	12494.15
484.616	12641.6
484.821	12543.3
485.025	12318.02
485.229	12750.14
485.433	12594.5
485.637	12332.36
485.841	12410.18
486.045	12430.66
486.249	12690.75
486.453	12338.5
486.657	12524.86
486.861	12705.09
487.065	12193.09
487.269	12637.5
487.473	12410.18
487.677	12500.29
487.881	12559.68
488.085	12520.77
488.289	12576.06
488.493	12512.58
488.697	12660.03
488.901	12694.85
489.105	12684.61
489.309	12612.93
489.512	12660.03
489.716	12903.74
489.92	12506.43
490.124	12698.94
490.328	12887.36
490.531	12621.12
490.735	12703.04
490.939	12844.35
491.143	12752.19
491.346	12813.63
491.55	13063.48
491.754	12936.51
491.958	13063.48
492.161	13045.05
492.365	13225.27
492.569	13245.75
492.772	13364.53
492.976	13120.82
493.18	13241.65
493.383	13319.48
493.587	13477.17
493.79	13862.19
493.994	13378.87
494.197	13839.66
494.401	13794.61
494.605	13808.94
494.808	14101.8
495.012	14226.73
495.215	14236.97
495.419	14230.82
495.622	14150.95
495.825	14507.3
496.029	14576.93
496.232	14712.1
496.436	14787.87
496.639	15099.16
496.843	15015.19
497.046	15373.59
497.249	15271.19
497.453	15516.95
497.656	15562
497.859	15715.6
498.063	15799.57
498.266	16336.13
498.469	16196.87
498.673	16385.29
498.876	16413.96
499.079	16946.43
499.282	16749.82
499.485	17294.58
499.689	17216.76
499.892	17460.47
500.095	17593.59
500.298	17882.35
500.501	17554.68
500.705	18257.13
500.908	18451.69
501.111	18638.05
501.314	18722.02
501.517	18894.05
501.72	19360.98
501.923	19094.75
502.126	19528.92
502.329	19778.77
502.532	19885.26
502.735	20032.72
502.938	20235.47
503.141	20407.5
503.344	20962.5
503.547	20917.44
503.75	21386.43
503.953	21591.22
504.156	21730.48
504.359	21669.05
504.562	22009.01
504.765	22207.66
504.968	22586.54
505.17	23037.09
505.373	22750.37
505.576	23059.62
505.779	23291.04
505.982	23612.57
506.185	24089.74
506.387	24056.98
506.59	24515.72
506.793	24626.31
506.996	24906.88
507.198	25392.25
507.401	25126.02
507.604	25543.8
507.807	25971.83
508.009	26076.27
508.212	26356.85
508.415	26782.82
508.617	26682.47
508.82	27212.9
509.022	27004
509.225	27866.2
509.428	28204.11
509.63	28351.57
509.833	28345.42
510.035	28937.29
510.238	28775.5
510.44	29178.95
510.643	29504.57
510.845	29781.05
511.048	29566.01
511.25	30067.77
511.453	30420.02
511.655	31472.67
511.858	30919.72
512.06	31333.41
512.262	31781.92
512.465	31648.8
512.667	32224.28
512.87	32683.02
513.072	32367.63
513.274	32932.87
513.477	33655.81
513.679	33840.12
513.881	34014.2
514.084	34616.3
514.286	34489.33
514.488	34378.74
514.69	35341.28
514.893	35609.57
515.095	35277.8
515.297	35996.63
515.499	36021.21
515.701	36269.01
515.904	37059.53
516.106	36905.93
516.308	37211.08
516.51	38163.39
516.712	37800.9
516.914	38269.88
517.116	38673.33
517.318	39039.92
517.52	38937.52
517.722	39365.54
517.925	39492.52
518.127	40407.96
518.329	40483.73
518.531	40172.44
518.733	40498.07
518.935	41427.85
519.136	41495.43
519.338	41778.05
519.54	41712.52
519.742	42165.12
519.944	42709.88
520.146	43287.4
520.348	43086.7
520.55	43334.51
520.752	43316.08
520.954	44483.42
521.155	43959.14
521.357	44749.65
521.559	45024.08
521.761	45275.98
521.963	45482.83
522.164	45472.59
522.366	45638.47
522.568	46357.31
522.77	46240.57
522.971	46613.3
523.173	46744.37
523.375	46908.21
523.576	47137.58
523.778	47123.25
523.98	48022.31
524.181	48083.75
524.383	48001.83
524.584	48470.81
524.786	49234.7
524.988	48358.17
525.189	48988.95
525.391	49318.67
525.592	49726.22
525.794	49304.34
525.995	49591.05
526.197	50025.22
526.398	49648.39
526.6	50275.07
526.801	50187.01
527.003	50596.6
527.204	50209.54
527.406	50643.71
527.607	51131.12
527.808	51292.91
528.01	50510.59
528.211	50911.99
528.412	52040.42
528.614	51712.75
528.815	51725.03
529.016	52165.35
529.218	51768.04
529.419	52099.81
529.62	52005.61
529.822	52148.96
530.023	52040.42
530.224	51942.12
530.425	52499.17
530.626	51749.61
530.828	51882.73
531.029	53344.98
531.23	52343.52
531.431	52312.8
531.632	52632.28
531.833	52986.58
532.035	52681.44
532.236	52904.66
532.437	53072.6
532.638	52316.9
532.839	53275.35
533.04	53283.54
533.241	52751.07
533.442	53086.93
533.643	53117.65
533.844	53191.38
534.045	53078.74
534.246	52808.41
534.447	53578.45
534.648	53029.59
534.849	53293.78
535.05	52720.35
535.251	52943.58
535.451	52974.3
535.652	52863.71
535.853	53310.16
536.054	53320.4
536.255	53355.22
536.456	53150.42
536.657	53396.18
536.857	53123.8
537.058	53271.25
537.259	53478.1
537.46	53562.06
537.66	53314.26
537.861	53201.62
538.062	52953.82
538.263	53428.94
538.463	53238.48
538.664	53267.16
538.865	53226.2
539.065	53408.47
539.266	52970.2
539.466	53865.16
539.667	52890.33
539.868	53691.08
540.068	53111.51
540.269	53052.12
540.469	53232.34
540.67	52955.86
540.87	52849.37
541.071	53170.9
541.271	53347.03
541.472	52912.86
541.672	52947.67
541.873	52837.08
542.073	52355.81
542.274	53576.4
542.474	53226.2
542.675	52634.33
542.875	53091.03
543.075	53025.49
543.276	52665.05
543.476	53060.31
543.676	52908.76
543.877	53162.71
544.077	53088.98
544.277	52595.42
544.478	52974.3
544.678	53045.97
544.878	52964.06
545.078	52935.38
545.279	52685.53
545.479	53117.65
545.679	52925.14
545.879	52701.92
546.079	52736.73
546.28	52798.17
546.48	52589.28
546.68	52875.99
546.88	52511.45
547.08	53056.21
547.28	52591.33
547.48	52103.91
547.68	52679.39
547.88	52466.4
548.081	52927.19
548.281	52718.3
548.481	52495.07
548.681	53347.03
548.881	52880.09
549.081	52323.04
549.28	52366.05
549.48	53121.75
549.68	52685.53
549.88	53295.83
550.08	52474.59
550.28	52611.81
550.48	52464.35
550.68	53594.83
550.88	52347.62
551.08	52421.34
551.279	52931.29
551.479	52454.11
551.679	52370.14
551.879	52493.02
552.079	52634.33
552.278	52605.66
552.478	52386.53
552.678	52407.01
552.878	52611.81
553.077	52546.27
553.277	52091.62
553.477	52951.77
553.676	52335.33
553.876	52413.15
554.076	52019.94
554.275	52316.9
554.475	52095.72
554.674	52787.93
554.874	52181.73
555.074	52073.19
555.273	52011.75
555.473	52564.7
555.672	52042.47
555.872	51790.57
556.071	51864.3
556.271	52445.92
556.47	51935.98
556.67	51471.09
556.869	52132.58
557.068	52456.16
557.268	51356.4
557.467	51755.75
557.667	51735.27
557.866	51577.58
558.065	52007.65
558.265	51391.22
558.464	51553.01
558.663	52212.45
558.863	51327.73
559.062	51868.39
559.261	51391.22
559.461	52034.28
559.66	51110.64
559.859	51567.34
560.058	51260.15
560.258	51600.11
560.457	51221.23
560.656	51753.71
560.855	50684.67
561.054	51559.15
561.253	51084.02
561.453	51221.23
561.652	51180.28
561.851	51577.58
562.05	50795.26
562.249	50795.26
562.448	51233.52
562.647	51155.7
562.846	50813.69
563.045	50729.72
563.244	50524.93
563.443	50760.44
563.642	50141.95
563.841	50866.94
564.04	50443.01
564.239	51151.6
564.438	50504.45
564.637	50629.37
564.836	50490.11
565.035	50002.69
565.234	50430.72
565.432	49967.88
565.631	49824.52
565.83	50098.95
566.029	49586.96
566.228	49419.02
566.427	49789.7
566.625	49513.23
566.824	49455.89
567.023	49826.57
567.222	48878.36
567.42	49672.97
567.619	49474.32
567.818	49148.69
568.016	49251.09
568.215	49443.6
568.414	49128.21
568.612	49562.38
568.811	48943.89
569.01	49005.33
569.208	48309.02
569.407	49292.05
569.605	48540.44
569.804	49132.31
570.002	48239.39
570.201	49058.58
570.4	48407.33
570.598	48300.83
570.797	47993.64
570.995	47915.81
571.193	47588.14
571.392	48548.64
571.59	47891.24
571.789	47919.91
571.987	47766.31
572.186	47524.65
572.384	47616.81
572.582	47815.46
572.781	47407.92
572.979	47131.44
573.177	47356.72
573.376	47870.76
573.574	47151.92
573.772	47874.85
573.971	47328.05
574.169	47055.67
574.367	46461.76
574.565	47260.46
574.763	46947.12
574.962	46633.78
575.16	46195.52
575.358	46420.8
575.556	45994.82
575.754	46562.11
575.952	46420.8
576.151	46574.39
576.349	45701.96
576.547	46072.64
576.745	45978.43
576.943	46109.5
577.141	45919.04
577.339	46164.8
577.537	45642.57
577.735	45908.8
577.933	45497.16
578.131	45824.84
578.329	45001.55
578.527	44987.22
578.725	45304.65
578.923	45466.44
579.121	44899.15
579.319	44821.33
579.516	44845.91
579.714	45085.52
579.912	44907.35
580.11	44057.44
580.308	44561.24
580.506	44458.84
580.704	43912.03
580.901	44411.74
581.099	44499.8
581.297	43733.86
581.495	44008.29
581.692	44036.96
581.89	44155.74
582.088	44039.01
582.285	43701.09
582.483	44217.18
582.681	43559.78
582.878	43320.17
583.076	43350.89
583.274	43293.55
583.471	42812.27
583.669	43490.15
583.866	42830.71
584.064	42851.19
584.262	42576.76
584.459	42857.33
584.657	42453.88
584.854	42521.46
585.052	41974.66
585.249	42419.06
585.447	42363.77
585.644	41843.59
585.841	42099.58
586.039	42546.04
586.236	41515.91
586.434	41724.8
586.631	41597.83
586.828	41579.4
587.026	41403.27
587.223	41417.61
587.42	41368.46
587.618	41216.91
587.815	40414.1
588.012	40928.14
588.21	41118.6
588.407	40973.2
588.604	40661.91
588.801	40358.81
588.999	40758.16
589.196	40168.35
589.393	40356.76
589.59	39934.88
589.787	40227.74
589.984	39648.16
590.182	39898.02
590.379	40149.92
590.576	39553.96
590.773	39654.31
590.97	39388.07
591.167	40117.15
591.364	39396.26
591.561	39248.81
591.758	38855.6
591.955	39117.74
592.152	39637.92
592.349	38927.28
592.546	39115.69
592.743	38994.86
592.94	38355.89
593.137	38945.71
593.334	38724.53
593.531	38310.84
593.727	38151.1
593.924	38339.51
594.121	37747.65
594.318	37999.55
594.515	37444.55
594.712	37776.32
594.908	37487.56
595.105	37911.49
595.302	37477.32
595.499	37102.54
595.696	37233.61
595.892	37204.94
596.089	37663.68
596.286	36948.94
596.482	37012.43
596.679	36938.7
596.876	36553.68
597.072	36406.23
597.269	36754.38
597.466	35965.92
597.662	36246.49
597.859	36150.23
598.055	36490.2
598.252	36045.79
598.448	36008.92
598.645	35873.76
598.841	35996.63
599.038	35695.58
599.234	35640.29
599.431	35271.65
599.627	35208.17
599.824	35419.11
600.02	35541.99
600.217	35339.24
600.413	35204.07
600.609	34690.03
600.806	34753.52
601.002	34962.41
601.198	34544.62
601.395	34552.82
601.591	34153.46
601.787	34474.99
601.984	34124.79
602.18	34501.62
602.376	34219
602.572	33612.8
602.769	33977.34
602.965	33528.83
603.161	33664
603.357	33944.57
603.553	33424.39
603.75	33397.76
603.946	33082.38
604.142	33358.85
604.338	33033.22
604.534	33424.39
604.73	32830.48
604.926	32889.87
605.122	32992.26
605.318	32781.32
605.514	32658.45
605.71	32728.08
605.906	32615.44
606.102	32365.59
606.298	32822.28
606.494	32271.38
606.69	32582.67
606.886	32168.98
607.082	31808.54
607.278	32289.81
607.474	31839.26
607.67	32189.46
607.866	31210.53
608.062	31869.98
608.257	31876.12
608.453	31396.9
608.649	31765.53
608.845	31157.28
609.041	31347.75
609.236	31523.87
609.432	31364.13
609.628	31405.09
609.824	31384.61
610.019	30899.24
610.215	31169.57
610.411	31417.38
610.606	30712.88
610.802	31138.85
610.998	30712.88
611.193	30739.5
611.389	30659.63
611.584	30952.49
611.78	30422.06
611.976	30503.98
612.171	30635.05
612.367	30860.33
612.562	30159.92
612.758	30143.54
612.953	30250.03
613.149	30690.35
613.344	30362.67
613.539	30686.25
613.735	30231.6
613.93	30450.74
614.126	30190.64
614.321	30667.82
614.517	30057.53
614.712	29865.02
614.907	29832.25
615.103	30045.24
615.298	29715.51
615.493	29850.68
615.688	29463.61
615.884	30348.34
616.079	29160.52
616.274	29383.74
616.47	29486.14
616.665	29144.13
616.86	29387.84
617.055	29549.63
617.25	29391.94
617.445	29260.87
617.641	28884.04
617.836	29170.75
618.031	28838.98
618.226	29113.41
618.421	28750.92
618.616	29301.82
618.811	28501.07
619.006	29185.09
619.201	28398.67
619.396	28449.87
619.591	27946.07
619.786	28601.42
619.981	28011.6
620.176	27952.21
620.371	27208.8
620.566	27825.24
620.761	27583.58
620.956	27923.54
621.151	27282.53
621.346	27479.13
621.541	27067.49
621.735	27413.6
621.93	26741.86
622.125	26860.65
622.32	26555.5
622.515	26682.47
622.709	26489.96
622.904	26496.11
623.099	26047.6
623.294	26389.61
623.488	25879.67
623.683	26096.75
623.878	25459.84
624.072	25828.47
624.267	25695.35
624.462	25230.46
624.656	24994.95
624.851	25308.29
625.046	25003.14
625.24	25117.82
625.435	24630.41
625.629	24792.2
625.824	24575.11
626.018	24347.79
626.213	24040.59
626.407	24056.98
626.602	24122.51
626.796	24077.46
626.991	23989.39
627.185	23516.31
627.38	23426.2
627.574	23264.41
627.768	23039.14
627.963	23026.85
628.157	23162.01
628.352	23225.5
628.546	22574.25
628.74	22903.97
628.935	22088.88
629.129	22588.58
629.323	22262.96
629.517	22512.81
629.712	21808.31
629.906	22211.76
630.1	21703.86
630.294	21922.99
630.489	21439.67
630.683	21855.41
630.877	21558.46
631.071	21120.19
631.265	21542.07
631.459	21021.89
631.653	21042.37
631.848	21232.83
632.042	20915.39
632.236	20878.53
632.43	20464.84
632.624	20600.01
632.818	20380.87
633.012	20221.13
633.206	20176.08
633.4	20333.77
633.594	19856.59
633.788	20184.27
633.982	19930.32
634.176	19703
634.369	19645.65
634.563	19449.05
634.757	19272.92
634.951	19537.11
635.145	19211.48
635.339	19504.34
635.533	18877.66
635.726	18875.62
635.92	18742.5
636.114	19006.69
636.308	18642.15
636.501	18627.81
636.695	18511.08
636.889	18500.84
637.083	18324.71
637.276	18257.13
637.47	17784.05
637.664	17986.8
637.857	18007.28
638.051	18027.76
638.244	17782
638.438	18064.62
638.632	17585.4
638.825	17849.58
639.019	17425.65
639.212	17335.54
639.406	17499.38
639.599	17149.18
639.793	17284.34
639.986	16809.22
640.18	17044.73
640.373	16987.39
640.567	16657.67
640.76	16786.69
640.954	16669.95
641.147	16348.42
641.34	16686.34
641.534	16379.14
641.727	16366.85
641.92	16086.28
642.114	16223.5
642.307	16182.54
642.5	15901.97
642.694	15471.89
642.887	15637.78
643.08	15891.73
643.273	15600.91
643.467	15639.83
643.66	15492.37
643.853	15602.96
644.046	15351.06
644.239	15213.85
644.432	15248.66
644.626	14947.61
644.819	15271.19
645.012	15131.93
645.205	15060.25
645.398	14886.17
645.591	14501.15
645.784	14894.36
645.977	14329.13
646.17	14662.94
646.363	14527.78
646.556	14257.45
646.749	14294.31
646.942	14351.65
647.135	14050.6
647.328	14175.53
647.521	14034.22
647.714	13878.57
647.907	13823.28
648.099	13997.35
648.292	13956.4
648.485	13616.43
648.678	13552.95
648.871	13227.32
649.064	13354.29
649.256	13569.33
649.449	13178.17
649.642	13366.58
649.835	12985.66
650.027	13264.18
650.22	13180.21
650.413	12791.1
650.605	12893.5
650.798	12875.07
650.991	12764.48
651.183	12877.12
651.376	12557.63
651.568	12649.79
651.761	12664.13
651.954	12524.86
652.146	12315.97
652.339	12250.44
652.531	12381.51
652.724	12207.43
652.916	12080.46
653.109	12272.96
653.301	12141.89
653.494	12006.73
653.686	11765.07
653.879	11750.73
654.071	11771.21
654.263	11861.32
654.456	11773.26
654.648	11558.22
654.84	11455.83
655.033	11423.06
655.225	11461.97
655.417	11449.68
655.61	11347.28
655.802	11197.78
655.994	10933.59
656.186	11390.29
656.379	10933.59
656.571	11128.15
656.763	10853.72
656.955	10927.45
657.148	10712.41
657.34	10757.47
657.532	10575.2
657.724	10653.02
657.916	10749.28
658.108	10536.29
658.3	10632.54
658.492	10636.64
658.684	10247.52
658.876	10304.87
659.068	10423.65
659.26	10161.51
659.452	10233.19
659.644	10149.22
659.836	10052.97
660.028	10022.25
660.22	9903.46
660.412	9952.62
660.604	9958.76
660.796	10073.45
660.988	9878.89
661.18	9641.32
661.372	9692.52
661.563	9835.88
661.755	9659.76
661.947	9684.33
662.139	9547.12
662.331	9448.82
662.522	9481.58
662.714	9305.46
662.906	9360.75
663.097	9438.58
663.289	9198.96
663.481	8981.88
663.673	9112.95
663.864	9018.74
664.056	8711.55
664.247	9055.61
664.439	8938.87
664.631	8949.11
664.822	8902.01
665.014	8826.23
665.205	8668.54
665.397	8770.94
665.588	8904.06
665.78	8861.05
665.971	8553.85
666.163	8623.48
666.354	8631.68
666.546	8484.22
666.737	8390.02
666.929	8379.78
667.12	8334.72
667.311	8289.67
667.503	8269.19
667.694	8363.39
667.885	8195.46
668.077	8166.79
668.268	8281.47
668.459	8115.59
668.651	7982.47
668.842	8060.29
669.033	7996.81
669.224	8009.09
669.416	7998.85
669.607	7959.94
669.798	7904.65
669.989	7878.02
670.18	7900.55
670.371	7730.57
670.563	7624.08
670.754	7640.46
670.945	7640.46
671.136	7787.91
671.327	7656.84
671.518	7394.7
671.709	7554.44
671.9	7425.42
672.091	7544.2
672.282	7466.38
672.473	7329.17
672.664	7345.55
672.855	7318.93
673.046	7327.12
673.237	7312.78
673.428	7228.82
673.619	7290.26
673.809	7366.03
674	7159.19
674.191	7140.76
674.382	7144.85
674.573	7116.18
674.764	7114.13
674.954	7071.12
675.145	7081.36
675.336	7064.98
675.527	7058.84
675.717	7126.42
675.908	6981.01
676.099	6856.09
676.289	6735.26
676.48	6765.98
676.671	6798.74
676.861	6827.42
677.052	6727.07
677.243	6688.15
677.433	6585.76
677.624	6831.51
677.814	6665.63
678.005	6624.67
678.195	6630.81
678.386	6702.49
678.576	6641.05
678.767	6419.87
678.957	6372.77
679.148	6471.07
679.338	6503.84
679.529	6604.19
679.719	6622.62
679.909	6260.13
680.1	6337.95
680.29	6499.74
680.481	6491.55
680.671	6192.55
680.861	6313.38
681.052	6210.98
681.242	6135.2
681.432	6198.69
681.622	6296.99
681.813	6114.72
682.003	6094.24
682.193	6159.78
682.383	6186.4
682.573	6161.83
682.764	6120.87
682.954	6167.97
683.144	6041
683.334	6120.87
683.524	6020.52
683.714	6219.17
683.904	6045.09
684.094	6000.04
684.284	6049.19
684.474	6020.52
684.664	6034.85
684.854	5864.87
685.044	5967.27
685.234	5901.73
685.424	5817.77
685.614	5963.17
685.804	5672.36
685.994	5975.46
686.184	5774.76
686.374	5938.6
686.564	5600.68
686.753	5787.05
686.943	5649.83
687.133	5606.83
687.323	5600.68
687.513	5645.74
687.702	5672.36
687.892	5600.68
688.082	5602.73
688.272	5547.44
688.461	5426.61
688.651	5492.14
688.841	5412.27
689.03	5512.62
689.22	5399.98
689.41	5395.89
689.599	5352.88
689.789	5238.19
689.979	5428.65
690.168	5326.25
690.358	5262.77
690.547	5232.05
690.737	5232.05
690.926	5152.18
691.116	5025.2
691.305	5170.61
691.495	5129.65
691.684	5033.4
691.874	5121.46
692.063	5043.64
692.252	4945.33
692.442	4992.44
692.631	4822.45
692.82	4974
693.01	4832.69
693.199	4842.93
693.388	4873.65
693.578	4812.21
693.767	4785.59
693.956	4834.74
694.146	4763.06
694.335	4689.34
694.524	4623.8
694.713	4771.26
694.902	4634.04
695.092	4515.26
695.281	4775.35
695.47	4746.68
695.659	4627.9
695.848	4505.02
696.037	4574.65
696.226	4619.71
696.415	4476.35
696.604	4603.32
696.793	4472.25
696.982	4441.53
697.171	4429.24
697.36	4509.12
697.549	4339.13
697.738	4470.2
697.927	4249.02
698.116	4300.22
698.305	4416.96
698.494	4400.57
698.683	4318.65
698.872	4371.9
699.061	4386.24
699.25	4156.86
699.438	4214.21
699.627	4152.77
699.816	4220.35
700.005	4208.06
700.193	4189.63
700.382	4216.26
700.571	4183.49
700.76	4085.19
700.948	4339.13
701.137	4068.8
701.326	4081.09
701.514	4199.87
701.703	4138.43
701.892	4138.43
702.08	4113.86
702.269	4060.61
702.457	4023.75
702.646	4167.1
702.834	3952.07
703.023	4154.82
703.212	4013.51
703.4	3986.88
703.589	3970.5
703.777	3968.45
703.965	3937.73
704.154	4023.75
704.342	3943.88
704.531	3925.44
704.719	4005.31
704.907	3974.6
705.096	3812.81
705.284	3964.36
705.472	3980.74
705.661	3831.24
705.849	4050.37
706.037	3911.11
706.226	3753.41
706.414	3952.07
706.602	3818.95
706.79	3823.05
706.979	3773.89
707.167	3892.68
707.355	3788.23
707.543	3747.27
707.731	3855.81
707.919	3780.04
708.107	3659.21
708.296	3800.52
708.484	3732.94
708.672	3775.94
708.86	3909.06
709.048	3749.32
709.236	3700.17
709.424	3734.98
709.612	3702.22
709.8	3907.01
709.988	3784.13
710.176	3741.13
710.364	3671.5
710.551	3681.74
710.739	3616.2
710.927	3653.06
711.115	3599.82
711.303	3675.59
711.491	3794.37
711.679	3648.97
711.866	3720.65
712.054	3753.41
712.242	3651.02
712.43	3612.1
712.617	3630.54
712.805	3581.39
712.993	3610.06
713.181	3446.22
713.368	3569.1
713.556	3517.9
713.744	3573.19
713.931	3657.16
714.119	3634.63
714.306	3526.09
714.494	3544.52
714.682	3454.41
714.869	3466.7
715.057	3409.36
715.244	3519.95
715.432	3554.76
715.619	3521.99
715.807	3511.75
715.994	3515.85
716.182	3376.59
716.369	3544.52
716.556	3505.61
716.744	3390.92
716.931	3356.11
717.119	3456.46
717.306	3384.78
717.493	3345.87
717.681	3302.86
717.868	3411.4
718.055	3352.01
718.242	3505.61
718.43	3390.92
718.617	3356.11
718.804	3368.4
718.991	3306.96
719.179	3438.03
719.366	3296.72
719.553	3382.73
719.74	3390.92
719.927	3384.78
720.114	3407.31
720.301	3327.44
720.488	3341.77
720.676	3257.81
720.863	3374.54
721.05	3370.44
721.237	3372.49
721.424	3354.06
721.611	3427.79
721.798	3366.35
721.985	3255.76
722.172	3268.05
722.358	3288.53
722.545	3331.53
722.732	3319.25
722.919	3276.24
723.106	3245.52
723.293	3296.72
723.48	3300.81
723.667	3284.43
723.853	3282.38
724.04	3259.85
724.227	3327.44
724.414	3347.92
724.6	3196.37
724.787	3263.95
724.974	3235.28
725.161	3341.77
725.347	3266
725.534	3257.81
725.72	3364.3
725.907	3218.89
726.094	3352.01
726.28	3259.85
726.467	3263.95
726.653	3239.37
726.84	3282.38
727.027	3249.61
727.213	3057.11
727.4	3182.03
727.586	3290.57
727.773	3233.23
727.959	3300.81
728.145	3321.29
728.332	3145.17
728.518	3196.37
728.705	3247.57
728.891	3233.23
729.077	3175.89
729.264	3247.57
729.45	3300.81
729.636	3243.47
729.823	3272.14
730.009	3149.26
730.195	3253.71
730.382	3200.46
730.568	3194.32
730.754	3266
730.94	3352.01
731.126	3261.9
731.313	3163.6
731.499	3153.36
731.685	3276.24
731.871	3212.75
732.057	3253.71
732.243	3153.36
732.429	3204.56
732.615	3243.47
732.801	3343.82
732.987	3173.84
733.173	3220.94
733.359	3167.7
733.545	3268.05
733.731	3177.94
733.917	3165.65
734.103	3202.51
734.289	3171.79
734.475	3282.38
734.661	3274.19
734.847	3325.39
735.033	3300.81
735.219	3163.6
735.404	3298.77
735.59	3122.64
735.776	3104.21
735.962	3329.49
736.148	3200.46
736.333	3268.05
736.519	3220.94
736.705	3188.18
736.89	3194.32
737.076	3313.1
737.262	3204.56
737.447	3311.05
737.633	3163.6
737.819	3206.61
738.004	3141.07
738.19	3145.17
738.375	3132.88
738.561	3276.24
738.747	3132.88
738.932	3147.22
739.118	3300.81
739.303	3218.89
739.489	3210.7
739.674	3120.59
739.859	3245.52
740.045	3253.71
740.23	3065.3
740.416	2975.19
740.601	3153.36
740.786	3284.43
740.972	3032.53
741.157	3171.79
741.342	3038.67
741.528	3083.73
741.713	3046.87
741.898	3065.3
742.084	3022.29
742.269	3120.59
742.454	3083.73
742.639	3038.67
742.824	2936.28
743.01	3171.79
743.195	3143.12
743.38	2964.95
743.565	3024.34
743.75	2942.42
743.935	2981.33
744.12	3108.3
744.305	2921.94
744.49	3085.78
744.675	3018.19
744.86	2940.37
745.045	2979.28
745.23	3079.63
745.415	2770.39
745.6	2946.52
745.785	2952.66
745.97	3059.15
746.155	2964.95
746.34	2901.46
746.525	2837.97
746.71	2981.33
746.895	2887.12
747.079	2897.36
747.264	2858.45
747.449	2833.88
747.634	2813.4
747.819	2737.62
748.003	2717.14
748.188	2672.09
748.373	2735.57
748.557	2766.29
748.742	2690.52
748.927	2743.77
749.111	2727.38
749.296	2694.61
749.481	2624.98
749.665	2760.15
749.85	2522.59
750.034	2731.48
750.219	2686.42
750.404	2622.94
750.588	2493.91
750.773	2606.55
750.957	2575.83
751.141	2596.31
751.326	2612.7
751.51	2561.5
751.695	2522.59
751.879	2487.77
752.064	2514.39
752.248	2487.77
752.432	2493.91
752.617	2461.15
752.801	2452.95
752.985	2442.71
753.17	2348.51
753.354	2414.04
753.538	2412
753.722	2315.74
753.907	2250.21
754.091	2352.6
754.275	2237.92
754.459	2268.64
754.643	2270.69
754.828	2356.7
755.012	2307.55
755.196	2323.93
755.38	2166.24
755.564	2297.31
755.748	2158.05
755.932	2307.55
756.116	2119.14
756.3	2221.53
756.484	2121.18
756.668	2129.38
756.852	2035.17
757.036	2115.04
757.22	2000.35
757.404	2192.86
757.588	2106.85
757.772	2080.22
757.956	2047.46
758.14	2143.71
758.323	1887.72
758.507	1986.02
758.691	2133.47
758.875	2057.7
759.059	2012.64
759.242	2000.35
759.426	1879.52
759.61	1957.35
759.794	1861.09
759.977	1916.39
760.161	1904.1
760.345	1938.91
760.528	1846.76
760.712	1867.24
760.895	1971.68
761.079	1750.5
761.263	1840.61
761.446	1844.71
761.63	1797.6
761.813	1846.76
761.997	1871.33
762.18	1781.22
762.364	1869.28
762.547	1740.26
762.731	1777.12
762.914	1744.36
763.098	1738.21
763.281	1736.17
763.464	1631.72
763.648	1721.83
763.831	1797.6
764.015	1680.87
764.198	1668.58
764.381	1752.55
764.564	1775.08
764.748	1793.51
764.931	1619.43
765.114	1674.73
765.297	1654.25
765.481	1656.29
765.664	1662.44
765.847	1619.43
766.03	1652.2
766.213	1687.01
766.397	1572.33
766.58	1578.47
766.763	1619.43
766.946	1654.25
767.129	1586.66
767.312	1603.05
767.495	1584.62
767.678	1533.42
767.861	1625.58
768.044	1576.42
768.227	1557.99
768.41	1566.18
768.593	1684.97
768.776	1508.84
768.959	1537.51
769.142	1637.86
769.324	1377.77
769.507	1457.64
769.69	1517.03
769.873	1428.97
770.056	1562.09
770.239	1457.64
770.421	1482.22
770.604	1570.28
770.787	1461.74
770.97	1525.22
771.152	1492.46
771.335	1469.93
771.518	1367.53
771.7	1424.87
771.883	1441.26
772.066	1428.97
772.248	1400.3
772.431	1402.35
772.613	1517.03
772.796	1400.3
772.978	1375.72
773.161	1459.69
773.343	1365.48
773.526	1459.69
773.708	1359.34
773.891	1308.14
774.073	1265.13
774.256	1385.96
774.438	1330.67
774.621	1324.52
774.803	1273.32
774.985	1162.73
775.168	1230.32
775.35	1254.89
775.532	1205.74
775.715	1187.31
775.897	1283.56
776.079	1340.91
776.261	1246.7
776.444	1267.18
776.626	1175.02
776.808	1197.55
776.99	1099.25
777.173	1146.35
777.355	1193.45
777.537	1193.45
777.719	1109.49
777.901	1109.49
778.083	1125.87
778.265	1084.91
778.447	1140.21
778.629	1105.39
778.811	992.75
778.993	1144.3
779.175	1119.73
779.357	1093.1
779.539	1023.47
779.721	1101.3
779.903	1066.48
780.085	1052.14
780.267	1002.99
780.449	974.32
780.631	988.66
780.812	1060.34
780.994	962.03
781.176	1082.86
781.358	1002.99
781.54	935.41
781.721	955.89
781.903	1066.48
782.085	904.69
782.267	1002.99
782.448	851.44
782.63	982.51
782.812	847.35
782.993	955.89
783.175	876.02
783.357	861.68
783.538	925.17
783.72	800.24
783.901	892.4
784.083	953.84
784.264	763.38
784.446	765.43
784.627	747
784.809	833.01
784.99	744.95
785.172	845.3
785.353	843.25
785.535	798.2
785.716	783.86
785.897	812.53
786.079	779.76
786.26	822.77
786.441	744.95
786.623	765.43
786.804	712.18
786.985	800.24
787.167	706.04
787.348	742.9
787.529	742.9
787.71	749.04
787.891	699.89
788.073	691.7
788.254	708.09
788.435	714.23
788.616	644.6
788.797	640.5
788.978	646.65
789.159	667.13
789.34	587.26
789.522	665.08
789.703	599.54
789.884	665.08
790.065	599.54
790.246	624.12
790.427	626.17
790.607	609.78
790.788	681.46
790.969	509.43
791.15	603.64
791.331	622.07
791.512	638.45
791.693	593.4
791.874	640.5
792.054	581.11
792.235	665.08
792.416	609.78
792.597	607.73
792.778	538.1
792.958	548.34
793.139	660.98
793.32	593.4
793.5	601.59
793.681	577.02
793.862	550.39
794.042	505.34
794.223	507.38
794.404	550.39
794.584	587.26
794.765	509.43
794.945	443.9
795.126	613.88
795.306	572.92
795.487	458.23
795.667	495.1
795.848	527.86
796.028	458.23
796.209	472.57
796.389	429.56
796.57	497.14
796.75	433.66
796.93	390.65
797.111	474.62
797.291	536.06
797.471	587.26
797.652	427.51
797.832	435.71
798.012	421.37
798.192	398.84
798.373	407.03
798.553	382.46
798.733	429.56
798.913	468.47
799.093	433.66
799.274	392.7
799.454	394.75
799.634	460.28
799.814	460.28
799.994	454.14
800.174	495.1
800.354	486.9
800.534	421.37
800.714	493.05
800.894	331.26
801.074	380.41
801.254	372.22
801.434	404.99
801.614	364.03
801.794	337.4
801.974	1093.1
802.154	441.85
802.334	429.56
802.514	388.6
802.693	359.93
802.873	343.55
803.053	454.14
803.233	396.79
803.413	370.17
803.592	407.03
803.772	333.31
803.952	335.35
804.131	409.08
804.311	374.27
804.491	390.65
804.67	310.78
804.85	308.73
805.03	355.83
805.209	382.46
805.389	370.17
805.568	364.03
805.748	294.4
805.928	298.49
806.107	325.12
806.287	361.98
806.466	388.6
806.646	306.68
806.825	370.17
807.004	386.55
807.184	241.15
807.363	443.9
807.543	302.59
807.722	349.69
807.901	327.16
808.081	349.69
808.26	263.68
808.439	296.44
808.619	359.93
808.798	357.88
808.977	353.79
809.156	312.83
809.336	349.69
809.515	286.2
809.694	273.92
809.873	339.45
810.052	316.92
810.231	374.27
810.411	249.34
810.59	394.75
810.769	230.91
810.948	273.92
811.127	296.44
811.306	288.25
811.485	288.25
811.664	323.07
811.843	271.87
812.022	316.92
812.201	253.44
812.38	318.97
812.559	239.1
812.737	235
812.916	202.24
813.095	314.88
813.274	251.39
813.453	224.76
813.632	218.62
813.811	249.34
813.989	181.76
814.168	294.4
814.347	198.14
814.526	241.15
814.704	251.39
814.883	298.49
815.062	280.06
815.24	306.68
815.419	212.48
815.598	220.67
815.776	208.38
815.955	228.86
816.133	212.48
816.312	304.64
816.49	241.15
816.669	275.96
816.847	187.9
817.026	280.06
817.204	247.29
817.383	226.81
817.561	237.05
817.74	261.63
817.918	288.25
818.097	241.15
818.275	177.66
818.453	202.24
818.632	189.95
818.81	173.57
818.988	255.48
819.167	232.96
819.345	212.48
819.523	208.38
819.701	192
819.879	169.47
820.058	218.62
820.236	232.96
820.414	228.86
820.592	237.05
820.77	210.43
820.948	202.24
821.127	235
821.305	216.57
821.483	99.84
821.661	255.48
821.839	163.33
822.017	241.15
822.195	216.57
822.373	200.19
822.551	105.98
822.729	210.43
822.907	163.33
823.085	142.85
823.262	204.28
823.44	220.67
823.618	128.51
823.796	216.57
823.974	251.39
824.152	155.13
824.329	198.14
824.507	181.76
824.685	157.18
824.863	189.95
825.04	128.51
825.218	169.47
825.396	183.81
825.574	183.81
825.751	183.81
825.929	153.09
826.107	128.51
826.284	134.65
826.462	85.5
826.639	192
826.817	151.04
826.994	161.28
827.172	216.57
827.349	235
827.527	165.37
827.704	126.46
827.882	185.85
828.059	142.85
828.237	155.13
828.414	183.81
828.591	130.56
828.769	130.56
828.946	118.27
829.124	146.94
829.301	181.76
829.478	165.37
829.655	181.76
829.833	181.76
830.01	101.89
830.187	153.09
830.364	140.8
830.542	114.17
830.719	175.61
830.896	151.04
831.073	140.8
831.25	171.52
831.427	185.85
831.604	116.22
831.782	81.41
831.959	124.41
832.136	101.89
832.313	93.69
832.49	87.55
832.667	108.03
832.844	112.13
833.021	153.09
833.198	204.28
833.374	148.99
833.551	175.61
833.728	120.32
833.905	171.52
834.082	95.74
834.259	112.13
834.436	85.5
834.612	138.75
834.789	75.26
834.966	105.98
835.143	138.75
835.319	108.03
835.496	181.76
835.673	132.61
835.85	163.33
836.026	85.5
836.203	130.56
836.38	126.46
836.556	128.51
836.733	79.36
836.909	134.65
837.086	108.03
837.262	42.5
837.439	159.23
837.616	93.69
837.792	75.26
837.968	108.03
838.145	-14.85
838.321	101.89
838.498	157.18
838.674	165.37
838.851	67.07
839.027	124.41
839.203	120.32
839.38	157.18
839.556	50.69
839.732	110.08
839.909	79.36
840.085	163.33
840.261	11.78
840.437	65.02
840.614	71.17
840.79	181.76
840.966	112.13
841.142	151.04
841.318	77.31
841.494	173.57
841.671	34.3
841.847	65.02
842.023	77.31
842.199	44.54
842.375	157.18
842.551	30.21
842.727	48.64
842.903	181.76
843.079	105.98
843.255	146.94
843.431	93.69
843.607	101.89
843.783	22.02
843.959	112.13
844.134	22.02
844.31	118.27
844.486	99.84
844.662	93.69
844.838	95.74
845.013	103.93
845.189	67.07
845.365	134.65
845.541	99.84
845.716	87.55
845.892	60.93
846.068	13.82
846.244	62.98
846.419	48.64
846.595	-16.9
846.77	95.74
846.946	159.23
847.122	103.93
847.297	114.17
847.473	118.27
847.648	69.12
847.824	3.58
847.999	-10.75
848.175	62.98
848.35	65.02
848.526	132.61
848.701	65.02
848.876	103.93
849.052	60.93
849.227	79.36
849.403	22.02
849.578	3.58
849.753	83.45
849.929	148.99
850.104	-6.66
850.279	-57.86
850.454	22.02
850.63	134.65
850.805	81.41
850.98	79.36
851.155	28.16
851.33	83.45
851.505	22.02
851.681	62.98
851.856	65.02
852.031	60.93
852.206	71.17
852.381	-20.99
852.556	13.82
852.731	105.98
852.906	77.31
853.081	50.69
853.256	159.23
853.431	97.79
853.606	54.78
853.781	-0.51
853.956	-47.62
854.131	101.89
854.305	46.59
854.48	99.84
854.655	65.02
854.83	-2.56
855.005	67.07
855.18	40.45
855.354	32.26
855.529	9.73
855.704	40.45
855.879	116.22
856.053	5.63
856.228	114.17
856.403	40.45
856.577	60.93
856.752	1.54
856.926	62.98
857.101	114.17
857.276	-29.18
857.45	97.79
857.625	36.35
857.799	11.78
857.974	75.26
858.148	5.63
858.323	15.87
858.497	56.83
858.672	30.21
858.846	93.69
859.02	140.8
859.195	-12.8
859.369	132.61
859.543	40.45
859.718	5.63
859.892	87.55
860.066	32.26
860.241	-16.9
860.415	40.45
860.589	69.12
860.763	40.45
860.938	-0.51
861.112	69.12
861.286	40.45
861.46	50.69
861.634	28.16
861.808	114.17
861.982	48.64
862.157	17.92
862.331	-27.14
862.505	52.74
862.679	7.68
862.853	69.12
863.027	42.5
863.201	105.98
863.375	71.17
863.549	-6.66
863.722	36.35
863.896	58.88
864.07	42.5
864.244	22.02
864.418	-6.66
864.592	54.78
864.766	15.87
864.939	42.5
865.113	-12.8
865.287	62.98
865.461	22.02
865.634	75.26
865.808	17.92
865.982	77.31
866.156	95.74
866.329	54.78
866.503	11.78
866.676	50.69
866.85	42.5
867.024	-16.9
867.197	17.92
867.371	50.69
867.544	60.93
867.718	54.78
867.891	52.74
868.065	-14.85
868.238	-16.9
868.412	91.65
868.585	54.78
868.759	71.17
868.932	34.3
869.105	89.6
869.279	71.17
869.452	52.74
869.625	15.87
869.799	40.45
869.972	99.84
870.145	3.58
870.319	75.26
870.492	26.11
870.665	7.68
870.838	-12.8
871.011	-59.9
871.185	28.16
871.358	42.5
871.531	108.03
871.704	15.87
871.877	101.89
872.05	-14.85
872.223	30.21
872.396	-4.61
872.569	60.93
872.742	-27.14
872.915	40.45
873.088	-6.66
873.261	44.54
873.434	9.73
873.607	3.58
873.78	46.59
873.953	-14.85
874.126	101.89
874.299	62.98
874.471	114.17
874.644	-6.66
874.817	87.55
874.99	-20.99
875.163	30.21
875.335	34.3
875.508	34.3
875.681	-29.18
875.853	17.92
876.026	52.74
876.199	42.5
876.371	46.59
876.544	9.73
876.717	15.87
876.889	54.78
877.062	13.82
877.234	-4.61
877.407	1.54
877.579	46.59
877.752	3.58
877.924	9.73
878.097	93.69
878.269	9.73
878.442	-25.09
878.614	-31.23
878.786	-0.51
878.959	54.78
879.131	77.31
879.303	-8.7
879.476	13.82
879.648	50.69
879.82	46.59
879.993	-20.99
880.165	11.78
880.337	-14.85
880.509	54.78
880.681	-8.7
880.854	3.58
881.026	34.3
881.198	65.02
881.37	26.11
881.542	-27.14
881.714	81.41
881.886	11.78
882.058	17.92
882.23	101.89
882.402	-41.47
882.574	62.98
882.746	40.45
882.918	15.87
883.09	19.97
883.262	17.92
883.434	15.87
883.606	50.69
883.778	24.06
883.95	26.11
884.122	42.5
884.293	62.98
884.465	30.21
884.637	40.45
884.809	-57.86
884.98	7.68
885.152	-23.04
885.324	83.45
885.496	-86.53
885.667	-8.7
885.839	28.16
886.011	52.74
886.182	-4.61
886.354	-41.47
886.525	-0.51
886.697	-12.8
886.869	1.54
887.04	15.87
887.212	65.02
887.383	42.5
887.555	-14.85
887.726	73.21
887.897	3.58
888.069	28.16
888.24	48.64
888.412	-39.42
888.583	13.82
888.754	77.31
888.926	13.82
889.097	-6.66
889.268	-68.09
889.44	-16.9
889.611	83.45
889.782	-0.51
889.953	13.82
890.125	126.46
890.296	32.26
890.467	11.78
890.638	-8.7
890.809	-23.04
890.98	-43.52
891.151	22.02
891.323	52.74
891.494	9.73
891.665	-64
891.836	-4.61
892.007	9.73
892.178	-88.57
892.349	-12.8
892.52	22.02
892.691	30.21
892.862	32.26
893.032	-78.33
893.203	56.83
893.374	17.92
893.545	54.78
893.716	-74.24
893.887	83.45
894.057	-10.75
894.228	15.87
894.399	-16.9
894.57	30.21
894.74	-6.66
894.911	-6.66
895.082	15.87
895.253	32.26
895.423	42.5
895.594	-61.95
895.764	-31.23
895.935	-76.29
896.106	-39.42
896.276	75.26
896.447	32.26
896.617	7.68
896.788	17.92
896.958	-0.51
897.129	-10.75
897.299	-20.99
897.47	48.64
897.64	26.11
897.81	-41.47
897.981	48.64
898.151	-47.62
898.322	34.3
898.492	65.02
898.662	65.02
898.832	-90.62
899.003	50.69
899.173	9.73
899.343	-0.51
899.513	-4.61
