Data from USB4F104151__39__12-41-23-153.txt Node

Date: Fri Mar 14 12:41:23 EDT 2025
User: louis
Spectrometer: USB4F10415
Trigger mode: 4
Integration Time (sec): 3.000000E-2
Scans to average: 1
Electric dark correction enabled: true
Nonlinearity correction enabled: false
Boxcar width: 0
XAxis mode: Wavelengths
Number of Pixels in Spectrum: 3648
>>>>>Begin Spectral Data<<<<<
178.204	-49.15
178.424	-49.15
178.644	-49.15
178.864	-231.42
179.084	-88.06
179.304	-34.82
179.524	-16.38
179.744	-8.19
179.964	36.86
180.184	34.82
180.404	16.38
180.624	75.77
180.844	-12.29
181.064	-28.67
181.283	-6.14
181.503	-49.15
181.723	-8.19
181.943	-61.44
182.163	43.01
182.383	-30.72
182.602	55.3
182.822	49.15
183.042	77.82
183.262	32.77
183.482	18.43
183.701	43.01
183.921	36.86
184.141	16.38
184.361	90.11
184.58	28.67
184.8	-38.91
185.02	36.86
185.239	14.34
185.459	-2.05
185.679	36.86
185.898	18.43
186.118	83.97
186.338	-14.34
186.557	73.73
186.777	-16.38
186.997	55.3
187.216	40.96
187.436	67.58
187.655	49.15
187.875	28.67
188.095	38.91
188.314	53.25
188.534	36.86
188.753	-14.34
188.973	86.01
189.192	22.53
189.412	43.01
189.631	34.82
189.851	36.86
190.07	98.3
190.29	10.24
190.509	-22.53
190.729	55.3
190.948	49.15
191.168	151.55
191.387	22.53
191.607	16.38
191.826	63.49
192.045	-2.05
192.265	6.14
192.484	32.77
192.704	24.58
192.923	40.96
193.142	215.04
193.362	75.77
193.581	6.14
193.8	53.25
194.02	49.15
194.239	16.38
194.458	38.91
194.678	63.49
194.897	51.2
195.116	47.1
195.335	28.67
195.555	63.49
195.774	16.38
195.993	28.67
196.212	126.97
196.432	-8.19
196.651	47.1
196.87	40.96
197.089	106.49
197.308	6.14
197.528	34.82
197.747	51.2
197.966	30.72
198.185	110.59
198.404	4.1
198.623	67.58
198.842	57.34
199.062	83.97
199.281	-14.34
199.5	10.24
199.719	100.35
199.938	90.11
200.157	75.77
200.376	49.15
200.595	86.01
200.814	4.1
201.033	-8.19
201.252	124.93
201.471	12.29
201.69	90.11
201.909	16.38
202.128	47.1
202.347	83.97
202.566	47.1
202.785	59.39
203.004	4.1
203.223	63.49
203.442	10.24
203.661	28.67
203.879	49.15
204.098	145.41
204.317	2.05
204.536	24.58
204.755	-49.15
204.974	43.01
205.193	-10.24
205.411	96.25
205.63	28.67
205.849	43.01
206.068	77.82
206.287	59.39
206.505	88.06
206.724	51.2
206.943	83.97
207.162	36.86
207.381	-10.24
207.599	53.25
207.818	53.25
208.037	14.34
208.255	28.67
208.474	75.77
208.693	45.06
208.911	38.91
209.13	67.58
209.349	30.72
209.567	38.91
209.786	67.58
210.005	79.87
210.223	51.2
210.442	-20.48
210.661	79.87
210.879	6.14
211.098	24.58
211.316	18.43
211.535	104.45
211.753	14.34
211.972	67.58
212.191	28.67
212.409	55.3
212.628	59.39
212.846	63.49
213.065	-8.19
213.283	106.49
213.502	2.05
213.72	63.49
213.938	10.24
214.157	18.43
214.375	155.65
214.594	49.15
214.812	57.34
215.031	75.77
215.249	0
215.467	32.77
215.686	47.1
215.904	81.92
216.122	47.1
216.341	55.3
216.559	61.44
216.778	79.87
216.996	34.82
217.214	12.29
217.432	24.58
217.651	-43.01
217.869	79.87
218.087	-16.38
218.306	61.44
218.524	124.93
218.742	-8.19
218.96	10.24
219.179	69.63
219.397	47.1
219.615	49.15
219.833	10.24
220.051	6.14
220.27	49.15
220.488	98.3
220.706	96.25
220.924	22.53
221.142	55.3
221.36	100.35
221.578	34.82
221.796	20.48
222.015	30.72
222.233	108.54
222.451	126.97
222.669	-51.2
222.887	49.15
223.105	49.15
223.323	34.82
223.541	-43.01
223.759	30.72
223.977	40.96
224.195	24.58
224.413	75.77
224.631	90.11
224.849	47.1
225.067	147.45
225.285	55.3
225.503	106.49
225.721	-71.68
225.939	26.62
226.157	32.77
226.375	122.88
226.592	47.1
226.81	65.54
227.028	30.72
227.246	79.87
227.464	12.29
227.682	73.73
227.9	94.21
228.117	73.73
228.335	145.41
228.553	40.96
228.771	88.06
228.989	40.96
229.206	40.96
229.424	57.34
229.642	71.68
229.86	53.25
230.077	96.25
230.295	55.3
230.513	40.96
230.731	137.21
230.948	69.63
231.166	96.25
231.384	-26.62
231.601	61.44
231.819	18.43
232.037	83.97
232.254	100.35
232.472	30.72
232.689	96.25
232.907	36.86
233.125	49.15
233.342	-16.38
233.56	49.15
233.777	14.34
233.995	2.05
234.213	53.25
234.43	6.14
234.648	22.53
234.865	100.35
235.083	22.53
235.3	75.77
235.518	2.05
235.735	36.86
235.953	88.06
236.17	96.25
236.388	81.92
236.605	18.43
236.822	40.96
237.04	28.67
237.257	102.4
237.475	24.58
237.692	102.4
237.909	90.11
238.127	-14.34
238.344	88.06
238.562	149.5
238.779	-8.19
238.996	-40.96
239.214	96.25
239.431	129.02
239.648	-18.43
239.865	61.44
240.083	79.87
240.3	-28.67
240.517	43.01
240.735	73.73
240.952	116.73
241.169	67.58
241.386	122.88
241.603	92.16
241.821	49.15
242.038	65.54
242.255	131.07
242.472	22.53
242.689	116.73
242.907	69.63
243.124	108.54
243.341	8.19
243.558	-4.1
243.775	55.3
243.992	32.77
244.209	51.2
244.426	131.07
244.643	69.63
244.86	67.58
245.078	28.67
245.295	83.97
245.512	90.11
245.729	73.73
245.946	32.77
246.163	18.43
246.38	63.49
246.597	24.58
246.814	16.38
247.031	49.15
247.248	65.54
247.464	73.73
247.681	75.77
247.898	71.68
248.115	14.34
248.332	18.43
248.549	96.25
248.766	174.08
248.983	-6.14
249.2	61.44
249.417	43.01
249.633	6.14
249.85	102.4
250.067	110.59
250.284	61.44
250.501	-14.34
250.717	55.3
250.934	47.1
251.151	43.01
251.368	14.34
251.585	36.86
251.801	18.43
252.018	51.2
252.235	88.06
252.451	69.63
252.668	2.05
252.885	92.16
253.102	43.01
253.318	26.62
253.535	55.3
253.752	73.73
253.968	8.19
254.185	0
254.401	106.49
254.618	94.21
254.835	51.2
255.051	106.49
255.268	61.44
255.484	73.73
255.701	16.38
255.917	16.38
256.134	-18.43
256.351	73.73
256.567	20.48
256.784	-6.14
257	-73.73
257.217	108.54
257.433	86.01
257.65	118.78
257.866	55.3
258.082	6.14
258.299	24.58
258.515	67.58
258.732	47.1
258.948	10.24
259.165	69.63
259.381	8.19
259.597	116.73
259.814	57.34
260.03	-14.34
260.246	75.77
260.463	92.16
260.679	106.49
260.895	83.97
261.112	94.21
261.328	104.45
261.544	24.58
261.761	79.87
261.977	40.96
262.193	94.21
262.409	49.15
262.626	116.73
262.842	51.2
263.058	12.29
263.274	94.21
263.49	38.91
263.707	51.2
263.923	61.44
264.139	0
264.355	40.96
264.571	102.4
264.787	32.77
265.004	133.12
265.22	83.97
265.436	53.25
265.652	96.25
265.868	75.77
266.084	45.06
266.3	30.72
266.516	53.25
266.732	53.25
266.948	71.68
267.164	32.77
267.38	28.67
267.596	71.68
267.812	88.06
268.028	69.63
268.244	90.11
268.46	59.39
268.676	90.11
268.892	102.4
269.108	55.3
269.324	65.54
269.54	-10.24
269.756	57.34
269.972	43.01
270.188	32.77
270.403	2.05
270.619	8.19
270.835	59.39
271.051	51.2
271.267	45.06
271.483	65.54
271.698	4.1
271.914	116.73
272.13	67.58
272.346	-8.19
272.562	43.01
272.777	10.24
272.993	-28.67
273.209	32.77
273.425	143.36
273.64	24.58
273.856	92.16
274.072	83.97
274.287	-2.05
274.503	63.49
274.719	73.73
274.934	100.35
275.15	-75.77
275.366	112.64
275.581	36.86
275.797	32.77
276.012	57.34
276.228	40.96
276.444	61.44
276.659	131.07
276.875	-24.58
277.09	26.62
277.306	-28.67
277.521	88.06
277.737	32.77
277.952	100.35
278.168	75.77
278.383	88.06
278.599	63.49
278.814	139.26
279.03	18.43
279.245	126.97
279.461	6.14
279.676	73.73
279.892	10.24
280.107	32.77
280.322	55.3
280.538	75.77
280.753	67.58
280.969	-6.14
281.184	79.87
281.399	57.34
281.615	-4.1
281.83	116.73
282.045	-34.82
282.26	104.45
282.476	28.67
282.691	106.49
282.906	40.96
283.122	40.96
283.337	49.15
283.552	110.59
283.767	98.3
283.983	137.21
284.198	92.16
284.413	65.54
284.628	38.91
284.843	90.11
285.058	30.72
285.274	20.48
285.489	40.96
285.704	86.01
285.919	63.49
286.134	40.96
286.349	20.48
286.564	2.05
286.779	102.4
286.995	43.01
287.21	12.29
287.425	90.11
287.64	28.67
287.855	71.68
288.07	28.67
288.285	139.26
288.5	32.77
288.715	71.68
288.93	18.43
289.145	51.2
289.36	83.97
289.575	114.69
289.79	34.82
290.004	65.54
290.219	83.97
290.434	38.91
290.649	-22.53
290.864	59.39
291.079	65.54
291.294	79.87
291.509	4.1
291.724	38.91
291.938	120.83
292.153	122.88
292.368	34.82
292.583	120.83
292.798	61.44
293.012	83.97
293.227	-18.43
293.442	-8.19
293.657	51.2
293.871	45.06
294.086	18.43
294.301	61.44
294.516	24.58
294.73	22.53
294.945	51.2
295.16	10.24
295.374	8.19
295.589	75.77
295.804	96.25
296.018	36.86
296.233	126.97
296.447	63.49
296.662	-28.67
296.877	57.34
297.091	77.82
297.306	59.39
297.52	22.53
297.735	59.39
297.949	40.96
298.164	135.17
298.378	12.29
298.593	81.92
298.807	94.21
299.022	75.77
299.236	96.25
299.451	38.91
299.665	28.67
299.88	-24.58
300.094	86.01
300.309	57.34
300.523	-61.44
300.737	57.34
300.952	22.53
301.166	79.87
301.381	28.67
301.595	53.25
301.809	34.82
302.024	18.43
302.238	-8.19
302.452	92.16
302.667	26.62
302.881	45.06
303.095	131.07
303.309	28.67
303.524	-38.91
303.738	86.01
303.952	69.63
304.166	49.15
304.381	-12.29
304.595	43.01
304.809	6.14
305.023	43.01
305.237	55.3
305.452	4.1
305.666	102.4
305.88	114.69
306.094	108.54
306.308	92.16
306.522	63.49
306.736	43.01
306.95	86.01
307.164	94.21
307.379	65.54
307.593	131.07
307.807	0
308.021	36.86
308.235	77.82
308.449	-24.58
308.663	45.06
308.877	92.16
309.091	22.53
309.305	32.77
309.519	28.67
309.733	67.58
309.947	28.67
310.161	94.21
310.374	83.97
310.588	69.63
310.802	69.63
311.016	8.19
311.23	149.5
311.444	32.77
311.658	53.25
311.872	16.38
312.085	141.31
312.299	38.91
312.513	114.69
312.727	36.86
312.941	20.48
313.154	-2.05
313.368	100.35
313.582	43.01
313.796	36.86
314.009	40.96
314.223	106.49
314.437	83.97
314.651	38.91
314.864	28.67
315.078	43.01
315.292	67.58
315.505	40.96
315.719	63.49
315.933	53.25
316.146	53.25
316.36	14.34
316.573	63.49
316.787	0
317.001	49.15
317.214	77.82
317.428	-14.34
317.641	-49.15
317.855	20.48
318.068	36.86
318.282	36.86
318.495	139.26
318.709	104.45
318.922	172.03
319.136	59.39
319.349	86.01
319.563	90.11
319.776	63.49
319.99	2.05
320.203	147.45
320.417	30.72
320.63	0
320.843	122.88
321.057	83.97
321.27	-57.34
321.483	55.3
321.697	86.01
321.91	65.54
322.124	67.58
322.337	51.2
322.55	8.19
322.763	83.97
322.977	0
323.19	65.54
323.403	32.77
323.617	104.45
323.83	96.25
324.043	-36.86
324.256	122.88
324.469	51.2
324.683	96.25
324.896	53.25
325.109	81.92
325.322	14.34
325.535	131.07
325.748	65.54
325.962	26.62
326.175	86.01
326.388	69.63
326.601	73.73
326.814	94.21
327.027	120.83
327.24	63.49
327.453	67.58
327.666	75.77
327.879	75.77
328.092	67.58
328.305	14.34
328.518	65.54
328.731	20.48
328.944	0
329.157	36.86
329.37	67.58
329.583	153.6
329.796	126.97
330.009	14.34
330.222	135.17
330.435	86.01
330.648	24.58
330.861	108.54
331.073	79.87
331.286	-26.62
331.499	86.01
331.712	71.68
331.925	22.53
332.138	40.96
332.35	131.07
332.563	61.44
332.776	108.54
332.989	32.77
333.202	-4.1
333.414	55.3
333.627	30.72
333.84	45.06
334.053	-10.24
334.265	53.25
334.478	43.01
334.691	45.06
334.903	-34.82
335.116	24.58
335.329	96.25
335.541	40.96
335.754	133.12
335.966	47.1
336.179	55.3
336.392	63.49
336.604	32.77
336.817	100.35
337.029	34.82
337.242	69.63
337.454	83.97
337.667	98.3
337.88	49.15
338.092	32.77
338.305	55.3
338.517	108.54
338.729	108.54
338.942	53.25
339.154	104.45
339.367	90.11
339.579	51.2
339.792	8.19
340.004	83.97
340.217	65.54
340.429	67.58
340.641	77.82
340.854	102.4
341.066	61.44
341.278	124.93
341.491	124.93
341.703	79.87
341.915	36.86
342.128	53.25
342.34	32.77
342.552	-6.14
342.764	6.14
342.977	86.01
343.189	63.49
343.401	73.73
343.613	55.3
343.826	126.97
344.038	63.49
344.25	108.54
344.462	67.58
344.674	49.15
344.886	55.3
345.099	59.39
345.311	131.07
345.523	81.92
345.735	4.1
345.947	79.87
346.159	65.54
346.371	24.58
346.583	92.16
346.795	145.41
347.007	126.97
347.219	174.08
347.431	40.96
347.643	96.25
347.855	36.86
348.067	86.01
348.279	28.67
348.491	122.88
348.703	38.91
348.915	10.24
349.127	10.24
349.339	55.3
349.551	24.58
349.763	65.54
349.975	71.68
350.187	43.01
350.399	88.06
350.61	147.45
350.822	69.63
351.034	118.78
351.246	96.25
351.458	139.26
351.669	98.3
351.881	71.68
352.093	69.63
352.305	120.83
352.517	26.62
352.728	137.21
352.94	79.87
353.152	79.87
353.363	75.77
353.575	131.07
353.787	71.68
353.999	43.01
354.21	124.93
354.422	16.38
354.633	-8.19
354.845	73.73
355.057	75.77
355.268	24.58
355.48	59.39
355.692	69.63
355.903	86.01
356.115	32.77
356.326	-8.19
356.538	137.21
356.749	45.06
356.961	131.07
357.172	57.34
357.384	6.14
357.595	92.16
357.807	47.1
358.018	59.39
358.23	77.82
358.441	112.64
358.653	176.13
358.864	20.48
359.075	59.39
359.287	108.54
359.498	129.02
359.709	-45.06
359.921	40.96
360.132	110.59
360.344	122.88
360.555	112.64
360.766	106.49
360.977	24.58
361.189	188.41
361.4	2.05
361.611	36.86
361.823	90.11
362.034	-10.24
362.245	57.34
362.456	126.97
362.667	96.25
362.879	36.86
363.09	63.49
363.301	83.97
363.512	112.64
363.723	38.91
363.935	77.82
364.146	75.77
364.357	81.92
364.568	65.54
364.779	-26.62
364.99	102.4
365.201	81.92
365.412	124.93
365.623	-8.19
365.834	71.68
366.045	57.34
366.256	88.06
366.467	61.44
366.678	36.86
366.889	86.01
367.1	61.44
367.311	47.1
367.522	112.64
367.733	126.97
367.944	149.5
368.155	102.4
368.366	81.92
368.577	157.69
368.788	73.73
368.999	90.11
369.209	61.44
369.42	147.45
369.631	51.2
369.842	116.73
370.053	122.88
370.264	98.3
370.474	10.24
370.685	79.87
370.896	73.73
371.107	61.44
371.317	67.58
371.528	34.82
371.739	98.3
371.95	79.87
372.16	118.78
372.371	40.96
372.582	49.15
372.792	120.83
373.003	155.65
373.214	165.89
373.424	65.54
373.635	24.58
373.846	112.64
374.056	47.1
374.267	28.67
374.477	120.83
374.688	77.82
374.898	45.06
375.109	38.91
375.319	18.43
375.53	94.21
375.74	81.92
375.951	180.22
376.161	83.97
376.372	131.07
376.582	65.54
376.793	118.78
377.003	53.25
377.214	102.4
377.424	96.25
377.635	110.59
377.845	59.39
378.055	159.74
378.266	49.15
378.476	92.16
378.686	45.06
378.897	90.11
379.107	114.69
379.317	92.16
379.528	81.92
379.738	124.93
379.948	24.58
380.158	18.43
380.369	104.45
380.579	36.86
380.789	73.73
380.999	163.84
381.21	71.68
381.42	122.88
381.63	55.3
381.84	118.78
382.05	59.39
382.261	81.92
382.471	143.36
382.681	98.3
382.891	180.22
383.101	110.59
383.311	102.4
383.521	45.06
383.731	88.06
383.941	174.08
384.151	112.64
384.361	92.16
384.571	38.91
384.781	100.35
384.991	96.25
385.201	133.12
385.411	106.49
385.621	90.11
385.831	141.31
386.041	104.45
386.251	34.82
386.461	108.54
386.671	65.54
386.881	77.82
387.091	65.54
387.301	79.87
387.511	90.11
387.72	77.82
387.93	143.36
388.14	71.68
388.35	67.58
388.56	151.55
388.769	112.64
388.979	81.92
389.189	61.44
389.399	106.49
389.609	122.88
389.818	102.4
390.028	4.1
390.238	172.03
390.447	40.96
390.657	108.54
390.867	90.11
391.076	104.45
391.286	147.45
391.496	196.61
391.705	108.54
391.915	155.65
392.125	145.41
392.334	114.69
392.544	204.8
392.753	73.73
392.963	159.74
393.172	131.07
393.382	145.41
393.591	153.6
393.801	73.73
394.01	120.83
394.22	161.79
394.429	149.5
394.639	151.55
394.848	133.12
395.058	120.83
395.267	40.96
395.477	169.98
395.686	147.45
395.895	210.94
396.105	163.84
396.314	165.89
396.524	122.88
396.733	124.93
396.942	141.31
397.152	135.17
397.361	122.88
397.57	161.79
397.78	137.21
397.989	174.08
398.198	256
398.407	112.64
398.617	163.84
398.826	112.64
399.035	122.88
399.244	210.94
399.453	221.18
399.663	161.79
399.872	194.56
400.081	143.36
400.29	141.31
400.499	172.03
400.708	135.17
400.917	161.79
401.127	143.36
401.336	167.93
401.545	200.7
401.754	126.97
401.963	215.04
402.172	198.65
402.381	196.61
402.59	167.93
402.799	208.89
403.008	196.61
403.217	196.61
403.426	178.17
403.635	223.23
403.844	161.79
404.053	202.75
404.262	210.94
404.471	286.72
404.68	178.17
404.888	227.32
405.097	239.61
405.306	282.62
405.515	227.32
405.724	235.52
405.933	262.14
406.142	342.01
406.35	266.24
406.559	339.96
406.768	292.86
406.977	256
407.185	354.3
407.394	303.1
407.603	374.78
407.812	364.54
408.02	385.02
408.229	382.97
408.438	305.15
408.646	387.07
408.855	401.4
409.064	385.02
409.272	382.97
409.481	456.7
409.69	385.02
409.898	438.27
410.107	399.35
410.315	522.23
410.524	514.04
410.733	555
410.941	528.38
411.15	540.66
411.358	593.91
411.567	722.93
411.775	681.97
411.984	665.59
412.192	690.17
412.401	651.25
412.609	751.6
412.818	772.08
413.026	749.56
413.234	774.13
413.443	880.63
413.651	845.81
413.86	860.15
414.068	1013.74
414.276	960.5
414.485	935.92
414.693	1019.89
414.901	987.12
415.11	1023.98
415.318	1128.43
415.526	1175.53
415.734	1277.93
415.943	1218.54
416.151	1300.46
416.359	1308.65
416.567	1392.62
416.776	1366
416.984	1429.48
417.192	1529.83
417.4	1560.55
417.608	1456.11
417.817	1529.83
418.025	1802.21
418.233	1808.36
418.441	1763.3
418.649	1920.99
418.857	1984.48
419.065	2179.04
419.273	1890.28
419.481	2205.66
419.689	2224.09
419.897	2275.29
420.105	2484.19
420.313	2521.05
420.521	2469.85
420.729	2351.07
420.937	2664.41
421.145	2688.98
421.353	2891.73
421.561	2951.12
421.769	3108.82
421.977	3225.55
422.185	3131.34
422.393	3416.01
422.601	3551.18
422.809	3522.51
423.017	3530.7
423.224	3729.35
423.432	3755.97
423.64	3891.14
423.848	4313.02
424.056	4110.27
424.263	4503.48
424.471	4407.23
424.679	4671.42
424.887	4804.53
425.094	5005.24
425.302	5005.24
425.51	4968.37
425.718	5257.14
425.925	5384.11
426.133	5625.77
426.341	5762.98
426.548	6209.44
426.756	6143.91
426.964	6262.69
427.171	6707.1
427.379	6694.81
427.586	6868.89
427.794	7135.12
428.001	7417.74
428.209	7761.8
428.417	7530.38
428.624	8075.14
428.832	8236.93
429.039	8322.94
429.247	8105.86
429.454	8853.37
429.662	9353.07
429.869	8841.08
430.076	9410.42
430.284	9238.39
430.491	9670.51
430.699	10297.19
430.906	10096.49
431.114	10159.97
431.321	10643.29
431.528	10968.92
431.736	11564.88
431.943	12236.61
432.15	11827.02
432.358	11935.56
432.565	12762.94
432.772	12685.12
432.979	13223.73
433.187	13467.44
433.394	13424.44
433.601	14434.08
433.808	14434.08
434.016	14260.01
434.223	14911.26
434.43	15908.62
434.637	15658.77
434.844	16641.79
435.052	16985.85
435.259	16928.51
435.466	16967.42
435.673	16854.78
435.88	17946.35
436.087	18931.42
436.294	18945.76
436.501	18489.06
436.708	18927.33
436.915	19437.27
437.122	20430.54
437.329	20053.71
437.537	21012.16
437.743	21143.23
437.95	21300.92
438.157	22116.01
438.364	22822.56
438.571	22927.01
438.778	22965.92
438.985	25169.54
439.192	24174.22
439.399	24845.96
439.606	24647.3
439.813	25769.59
440.02	27623
440.227	26916.45
440.433	26556.01
440.64	27569.76
440.847	27188.83
441.054	27778.65
441.261	29728.31
441.467	29294.15
441.674	29898.3
441.881	31243.81
442.088	31022.63
442.294	30621.23
442.501	31614.49
442.708	32038.42
442.914	33213.96
443.121	34426.35
443.328	33639.93
443.534	36027.87
443.741	35425.76
443.948	34520.56
444.154	37690.82
444.361	36984.27
444.568	37469.64
444.774	37393.86
444.981	38247.86
445.187	38612.4
445.394	40240.54
445.6	40088.99
445.807	43855.2
446.013	41723.27
446.22	42843.51
446.426	43935.07
446.633	44739.93
446.839	46144.83
447.046	44182.88
447.252	46312.77
447.459	46554.43
447.665	46343.48
447.871	48698.65
448.078	50638.08
448.284	48133.41
448.491	49190.16
448.697	51119.35
448.903	52348.13
449.11	52706.52
449.316	51494.13
449.522	52323.55
449.728	53421.26
449.935	54394.05
450.141	54189.25
450.347	55516.34
450.553	53900.49
450.76	54244.55
450.966	55864.49
451.172	55379.12
451.378	56532.13
451.584	55499.95
451.791	56941.72
451.997	56446.11
452.203	57848.97
452.409	57885.84
452.615	57703.57
452.821	55360.69
453.027	55076.02
453.233	57984.14
453.44	55626.93
453.646	56282.28
453.852	56251.56
454.058	57437.33
454.264	55317.68
454.47	56648.86
454.676	55430.32
454.882	57298.07
455.088	52702.43
455.294	52958.42
455.5	53914.83
455.705	53951.69
455.911	52522.21
456.117	51815.66
456.323	50932.98
456.529	48227.62
456.735	49929.48
456.941	48893.21
457.147	48022.82
457.352	46835
457.558	46189.89
457.764	46441.79
457.97	45454.67
458.176	44688.73
458.381	44954.96
458.587	42425.72
458.793	42618.23
458.999	40351.13
459.204	42997.1
459.41	42139
459.616	39249.32
459.821	39062.96
460.027	38944.17
460.233	38311.35
460.438	36763.09
460.644	36871.63
460.85	35431.91
461.055	34616.82
461.261	34565.62
461.466	31876.63
461.672	30953
461.878	33291.78
462.083	30709.29
462.289	30598.7
462.494	30176.82
462.7	28612.17
462.905	28282.45
463.111	29175.36
463.316	29163.07
463.522	28616.27
463.727	28911.17
463.932	28556.88
464.138	28343.89
464.343	28679.75
464.549	27631.19
464.754	28493.39
464.959	28313.17
465.165	28042.84
465.37	26455.66
465.575	26429.04
465.781	27412.06
465.986	27416.16
466.191	26496.62
466.397	26304.11
466.602	24436.36
466.807	25560.7
467.012	25245.31
467.218	25263.74
467.423	25114.24
467.628	25423.48
467.833	26373.74
468.038	25339.52
468.244	24602.25
468.449	25560.7
468.654	24766.09
468.859	24446.6
469.064	24460.94
469.269	23426.71
469.474	23654.04
469.679	24475.27
469.885	23479.96
470.09	24184.46
470.295	23805.59
470.5	22976.16
470.705	23113.38
470.91	22773.41
471.115	22249.13
471.32	23066.27
471.525	22369.96
471.73	22275.76
471.935	22171.31
472.139	21313.21
472.344	21771.96
472.549	21407.42
472.754	21311.16
472.959	20788.93
473.164	20135.63
473.369	20444.87
473.574	20698.82
473.778	20713.16
473.983	20426.44
474.188	20149.96
474.393	19351.26
474.598	19568.34
474.802	19336.92
475.007	19388.12
475.212	19412.7
475.417	18403.05
475.621	18167.53
475.826	18357.99
476.031	18372.33
476.235	17903.34
476.44	18228.97
476.645	17620.72
476.849	18114.28
477.054	17544.95
477.259	17446.65
477.463	17241.85
477.668	16736
477.872	16951.04
478.077	16733.95
478.282	16207.62
478.486	16238.34
478.691	16234.25
478.895	16099.08
479.1	16004.88
479.304	16117.51
479.509	15693.58
479.713	15879.95
479.918	15157.02
480.122	15476.5
480.326	15593.23
480.531	15476.5
480.735	15310.61
480.94	15095.58
481.144	15884.05
481.348	14862.11
481.553	15271.7
481.757	14905.12
481.961	15122.2
482.166	15255.32
482.37	15181.59
482.574	14712.61
482.778	14796.57
482.983	15093.53
483.187	14970.65
483.391	15003.42
483.595	14880.54
483.8	14716.7
484.004	14700.32
484.208	15077.15
484.412	14739.23
484.616	14849.82
484.821	14853.92
485.025	14565.15
485.229	15150.87
485.433	14798.62
485.637	14665.5
485.841	14655.26
486.045	14847.77
486.249	14780.19
486.453	14810.91
486.657	14888.73
486.861	14821.15
487.065	14415.65
487.269	14817.05
487.473	14577.44
487.677	14767.9
487.881	14845.73
488.085	14839.58
488.289	15083.29
488.493	14583.59
488.697	14728.99
488.901	15056.67
489.105	14696.22
489.309	14939.93
489.512	14962.46
489.716	15101.72
489.92	14806.81
490.124	14851.87
490.328	15128.35
490.531	15083.29
490.735	15161.11
490.939	15382.29
491.143	15150.87
491.346	14898.97
491.55	15603.47
491.754	15433.49
491.958	15433.49
492.161	15292.18
492.365	15470.36
492.569	15494.93
492.772	15834.89
492.976	15640.34
493.18	15740.69
493.383	15752.98
493.587	15906.57
493.79	15931.15
493.994	15841.04
494.197	15879.95
494.401	16178.95
494.605	16500.48
494.808	16260.87
495.012	16535.3
495.215	16578.31
495.419	16715.52
495.622	16856.83
495.825	16998.14
496.029	17196.79
496.232	17450.74
496.436	17442.55
496.639	17823.47
496.843	17768.18
497.046	18487.01
497.249	17751.79
497.453	17923.82
497.656	18538.21
497.859	18312.94
498.063	18726.63
498.266	19013.34
498.469	18958.05
498.673	19168.99
498.876	19285.72
499.079	19697.36
499.282	19717.84
499.485	20244.17
499.689	20278.99
499.892	20526.79
500.095	20414.15
500.298	21053.12
500.501	20545.22
500.705	21247.68
500.908	21694.13
501.111	21552.82
501.314	21774
501.517	22079.15
501.72	22273.71
501.923	22124.21
502.126	22748.84
502.329	23195.29
502.532	23277.21
502.735	23269.02
502.938	23719.57
503.141	24102.54
503.344	24024.72
503.547	24170.13
503.75	24856.2
503.953	24659.59
504.156	25452.16
504.359	25603.71
504.562	25497.21
504.765	26244.72
504.968	26390.13
505.17	26551.91
505.373	26734.18
505.576	27160.16
505.779	27166.31
505.982	27514.46
506.185	28313.17
506.387	28155.47
506.59	28483.15
506.793	28794.44
506.996	28642.89
507.198	29419.07
507.401	29331.01
507.604	29965.88
507.807	30311.99
508.009	30271.03
508.212	30590.51
508.415	30998.06
508.617	31247.91
508.82	31276.58
509.022	31225.38
509.225	32048.66
509.428	32374.29
509.63	32513.55
509.833	32644.62
510.035	33412.61
510.238	33228.29
510.44	33629.69
510.643	34024.95
510.845	34684.4
511.048	34301.43
511.25	34915.82
511.453	35114.47
511.655	36113.88
511.858	35831.26
512.06	35968.48
512.262	36437.46
512.465	36556.24
512.667	36845.01
512.87	37563.84
513.072	37166.54
513.274	38106.55
513.477	38614.45
513.679	38774.19
513.881	39036.33
514.084	39556.52
514.286	39486.89
514.488	39497.13
514.69	40283.55
514.893	41004.43
515.095	40517.01
515.297	41424.26
515.499	41282.95
515.701	41780.61
515.904	42145.15
516.106	42417.53
516.308	42816.88
516.51	43470.18
516.712	43527.53
516.914	43562.34
517.116	44549.46
517.318	44510.55
517.52	44674.39
517.722	44666.2
517.925	45253.97
518.127	45843.78
518.329	46089.54
518.531	45563.21
518.733	46413.12
518.935	46722.36
519.136	47144.24
519.338	47314.22
519.54	47443.24
519.742	47504.68
519.944	48260.38
520.146	48733.46
520.348	49169.68
520.55	48760.09
520.752	48954.64
520.954	50525.44
521.155	49605.9
521.357	50431.23
521.559	50175.23
521.761	51086.58
521.963	50912.5
522.164	51410.16
522.366	51248.37
522.568	51975.4
522.77	52104.42
522.971	52712.67
523.173	52403.42
523.375	52837.59
523.576	52763.87
523.778	52948.18
523.98	53652.69
524.181	53589.2
524.383	53707.98
524.584	53918.92
524.786	54527.17
524.988	54328.51
525.189	54680.77
525.391	54863.03
525.592	55555.25
525.794	55219.38
525.995	55426.23
526.197	55491.76
526.398	54934.71
526.6	56183.97
526.801	56360.1
527.003	56442.02
527.204	56057
527.406	56706.21
527.607	56667.3
527.808	57040.03
528.01	55678.13
528.211	57154.71
528.412	57367.7
528.614	57607.31
528.815	57214.1
529.016	57519.25
529.218	57285.78
529.419	57519.25
529.62	57457.81
529.822	57379.99
530.023	57361.56
530.224	57838.73
530.425	57506.96
530.626	57377.94
530.828	57214.1
531.029	58621.06
531.23	57793.68
531.431	57609.36
531.632	57869.45
531.833	58084.49
532.035	57896.08
532.236	58047.63
532.437	58162.31
532.638	57771.15
532.839	58258.57
533.04	58514.56
533.241	57613.46
533.442	58694.78
533.643	58043.53
533.844	57754.77
534.045	58360.97
534.246	57754.77
534.447	58637.44
534.648	58180.74
534.849	58653.82
535.05	57652.37
535.251	58285.19
535.451	58193.03
535.652	58465.41
535.853	57709.71
536.054	58264.71
536.255	58277
536.456	57447.57
536.657	58885.25
536.857	58072.2
537.058	58332.29
537.259	58545.28
537.46	58012.81
537.66	58088.59
537.861	58223.75
538.062	57672.85
538.263	58246.28
538.463	57830.54
538.664	58354.82
538.865	57867.4
539.065	58242.18
539.266	57633.94
539.466	57914.51
539.667	57670.8
539.868	58524.8
540.068	57597.07
540.269	57887.88
540.469	58137.74
540.67	57511.06
540.87	57879.69
541.071	57693.33
541.271	58027.15
541.472	57748.62
541.672	57543.83
541.873	57750.67
542.073	57111.7
542.274	58225.8
542.474	57496.72
542.675	57271.45
542.875	58049.67
543.075	57324.69
543.276	56827.04
543.476	57805.97
543.676	57453.72
543.877	57889.93
544.077	57478.29
544.277	56956.06
544.478	57457.81
544.678	57289.88
544.878	57474.19
545.078	57142.42
545.279	57541.78
545.479	57336.98
545.679	57756.81
545.879	57607.31
546.079	57457.81
546.28	56822.94
546.48	56603.81
546.68	57113.75
546.88	57379.99
547.08	57445.52
547.28	56851.61
547.48	56638.62
547.68	57146.52
547.88	56583.33
548.081	57021.59
548.281	57115.8
548.481	56517.79
548.681	57433.24
548.881	56712.35
549.081	56851.61
549.28	56759.45
549.48	57185.43
549.68	56833.18
549.88	57269.4
550.08	56771.74
550.28	56855.71
550.48	56636.58
550.68	57173.14
550.88	56700.06
551.08	56573.09
551.279	56726.69
551.479	56433.83
551.679	57050.27
551.879	56327.33
552.079	57318.55
552.278	56466.59
552.478	56503.46
552.678	56517.79
552.878	56454.31
553.077	56278.18
553.277	55944.36
553.477	56990.87
553.676	56589.47
553.876	56532.13
554.076	55970.99
554.275	55848.11
554.475	55702.7
554.674	56200.36
554.874	56095.91
555.074	55495.86
555.273	56042.66
555.473	56220.84
555.672	55741.61
555.872	55852.2
556.071	55993.51
556.271	56179.88
556.47	55934.12
556.67	55329.97
556.869	55878.83
557.068	55833.77
557.268	55356.6
557.467	55274.68
557.667	55352.5
557.866	55704.75
558.065	55461.04
558.265	55049.4
558.464	54942.91
558.663	55260.34
558.863	54781.12
559.062	55778.48
559.261	55131.32
559.461	55817.39
559.66	54867.13
559.859	55133.37
560.058	54797.5
560.258	55612.59
560.457	54670.53
560.656	55319.73
560.855	54736.06
561.054	54863.03
561.253	54074.57
561.453	54711.49
561.652	54559.94
561.851	54777.02
562.05	54353.09
562.249	54510.78
562.448	55020.73
562.647	54592.7
562.846	53992.65
563.045	54025.42
563.244	53728.46
563.443	54387.91
563.642	53726.41
563.841	54375.62
564.04	53839.05
564.239	54424.77
564.438	53830.86
564.637	53931.21
564.836	54217.92
565.035	53273.81
565.234	53824.71
565.432	53677.26
565.631	53763.28
565.83	53216.47
566.029	53540.05
566.228	53267.67
566.427	53126.36
566.625	52788.44
566.824	52518.11
567.023	53290.19
567.222	52454.62
567.42	53150.93
567.619	52696.28
567.818	52552.93
568.016	52538.59
568.215	53042.39
568.414	52462.82
568.612	53001.43
568.811	52491.49
569.01	52727
569.208	51948.78
569.407	52319.46
569.605	51762.41
569.804	52145.38
570.002	51870.95
570.201	52018.41
570.4	51473.65
570.598	51791.08
570.797	51514.61
570.995	51780.84
571.193	51158.26
571.392	51893.48
571.59	51074.29
571.789	50994.42
571.987	51201.27
572.186	51100.92
572.384	50859.26
572.582	51442.93
572.781	51260.66
572.979	50552.06
573.177	50771.19
573.376	51105.01
573.574	50365.7
573.772	50928.89
573.971	50226.43
574.169	50400.51
574.367	50271.49
574.565	50134.27
574.763	50238.72
574.962	50261.25
575.16	49427.73
575.358	49829.13
575.556	49116.43
575.754	49917.19
575.952	49048.85
576.151	49640.71
576.349	48807.19
576.547	49073.43
576.745	48925.97
576.943	49257.74
577.141	48532.76
577.339	48940.31
577.537	48887.06
577.735	48684.31
577.933	48366.88
578.131	48559.39
578.329	47877.41
578.527	48194.85
578.725	48407.84
578.923	48293.15
579.121	47691.05
579.319	47830.31
579.516	47838.5
579.714	48160.03
579.912	47805.73
580.11	47537.45
580.308	47815.97
580.506	47406.38
580.704	46628.15
580.901	47498.54
581.099	47684.9
581.297	46902.58
581.495	46658.87
581.692	47009.07
581.89	46558.52
582.088	46789.94
582.285	46398.78
582.483	46730.55
582.681	46515.51
582.878	46101.82
583.076	46259.52
583.274	46845.24
583.471	45778.25
583.669	45942.08
583.866	45487.43
584.064	45765.96
584.262	45075.79
584.459	45591.88
584.657	45264.21
584.854	45620.55
585.052	44748.12
585.249	45079.89
585.447	45116.75
585.644	44633.43
585.841	44856.66
586.039	44916.05
586.236	44350.81
586.434	44635.48
586.631	44240.22
586.828	44436.83
587.026	44664.15
587.223	44107.1
587.42	43771.24
587.618	44143.97
587.815	43371.88
588.012	43343.21
588.21	43574.63
588.407	43730.28
588.604	43177.33
588.801	42763.64
588.999	43017.58
589.196	42724.72
589.393	43206
589.59	42743.16
589.787	42261.88
589.984	42743.16
590.182	42044.8
590.379	42722.68
590.576	42476.92
590.773	42116.48
590.97	41559.43
591.167	42501.5
591.364	41371.02
591.561	41848.19
591.758	41432.46
591.955	41633.16
592.152	41842.05
592.349	41166.22
592.546	41532.81
592.743	41354.63
592.94	40240.54
593.137	40922.51
593.334	40754.58
593.531	40381.85
593.727	40791.44
593.924	40193.43
594.121	39943.58
594.318	40125.85
594.515	39742.88
594.712	40295.83
594.908	39681.44
595.105	39869.86
595.302	39447.97
595.499	39763.36
595.696	39151.02
595.892	39046.57
596.089	39308.71
596.286	39300.52
596.482	39114.16
596.679	38903.21
596.876	38997.42
597.072	38284.73
597.269	38890.93
597.466	38161.85
597.662	38073.79
597.859	38374.84
598.055	38116.79
598.252	38065.6
598.448	37981.63
598.645	37617.09
598.841	37533.12
599.038	37551.55
599.234	37832.13
599.431	36949.45
599.627	37146.06
599.824	37856.7
600.02	36961.74
600.217	37326.28
600.413	36644.3
600.609	36761.04
600.806	36677.07
601.002	36195.8
601.198	36394.45
601.395	36386.26
601.591	36150.74
601.787	36298.2
601.984	36019.67
602.18	36070.87
602.376	36103.64
602.572	35788.25
602.769	35657.18
602.965	35347.94
603.161	35071.46
603.357	35038.7
603.553	35474.91
603.75	35376.61
603.946	35247.59
604.142	35067.37
604.338	34530.8
604.534	35077.61
604.73	34584.05
604.926	34405.87
605.122	34745.84
605.318	34440.69
605.514	33789.44
605.71	34022.9
605.906	34407.92
606.102	34225.65
606.298	34184.69
606.494	34065.91
606.69	33795.58
606.886	33965.56
607.082	33558.02
607.278	33965.56
607.474	33312.26
607.67	33611.26
607.866	33007.11
608.062	33521.15
608.257	32931.34
608.453	33103.37
608.649	33086.98
608.845	32869.9
609.041	32738.83
609.236	32656.91
609.432	33048.07
609.628	32902.67
609.824	32761.36
610.019	32482.83
610.215	32550.42
610.411	32841.23
610.606	32527.89
610.802	32525.84
610.998	32566.8
611.193	32450.06
611.389	31895.07
611.584	32189.97
611.78	31809.05
611.976	32212.5
612.171	32194.07
612.367	31929.88
612.562	31618.59
612.758	31800.86
612.953	31268.39
613.149	32003.61
613.344	31614.49
613.539	32278.04
613.735	31727.13
613.93	31637.02
614.126	31168.04
614.321	31921.69
614.517	31800.86
614.712	31424.03
614.907	31110.69
615.103	31313.44
615.298	31407.65
615.493	31219.24
615.688	30844.46
615.884	31370.79
616.079	30752.3
616.274	30942.76
616.47	30936.62
616.665	30815.79
616.86	30584.37
617.055	30719.53
617.25	30137.91
617.445	30846.51
617.641	30039.61
617.836	30817.83
618.031	30047.8
618.226	30588.46
618.421	30193.2
618.616	30250.55
618.811	29724.22
619.006	29986.36
619.201	29662.78
619.396	29500.99
619.591	28939.85
619.786	29722.17
619.981	28857.93
620.176	29359.68
620.371	29058.63
620.566	28974.66
620.761	28585.55
620.956	28720.71
621.151	28597.84
621.346	28438.09
621.541	28223.06
621.735	28376.65
621.93	27709.02
622.125	28272.21
622.32	27373.15
622.515	27881.05
622.709	27487.84
622.904	27373.15
623.099	27444.83
623.294	27178.59
623.488	26779.24
623.683	26949.22
623.878	26482.28
624.072	26504.81
624.267	26656.36
624.462	26367.6
624.656	26322.54
624.851	25998.96
625.046	26138.23
625.24	25730.68
625.435	25648.76
625.629	25718.39
625.824	25448.06
626.018	25417.34
626.213	24915.59
626.407	24962.69
626.602	24606.34
626.796	24725.13
626.991	24782.47
627.185	24424.08
627.38	24465.03
627.574	24145.55
627.768	24067.73
627.963	24100.5
628.157	23715.48
628.352	23608.98
628.546	23381.66
628.74	23604.89
628.935	23359.13
629.129	23352.99
629.323	22754.98
629.517	23115.42
629.712	23037.6
629.906	22810.28
630.1	22302.38
630.294	22609.58
630.489	22261.42
630.683	22822.56
630.877	22146.73
631.071	22075.06
631.265	21833.39
631.459	21755.57
631.653	21931.7
631.848	21640.89
632.042	21292.73
632.236	21495.48
632.43	21239.48
632.624	21391.03
632.818	21141.18
633.012	21051.07
633.206	20514.5
633.4	20840.13
633.594	20412.1
633.788	20664
633.982	20483.78
634.176	20197.07
634.369	20123.34
634.563	20078.29
634.757	19947.22
634.951	20027.09
635.145	19945.17
635.339	19744.47
635.533	19584.73
635.726	19736.27
635.92	19592.92
636.114	19474.13
636.308	19312.35
636.501	19109.6
636.695	19365.59
636.889	18994.91
637.083	19046.11
637.276	18761.44
637.47	18601.7
637.664	18505.45
637.857	18712.29
638.051	18288.36
638.244	18216.68
638.438	18063.08
638.632	18226.92
638.825	18169.58
639.019	17776.37
639.212	17903.34
639.406	17821.42
639.599	17659.63
639.793	17549.04
639.986	17569.52
640.18	17501.94
640.373	17348.34
640.567	17170.17
640.76	17243.9
640.954	16936.7
641.147	16920.32
641.34	16772.86
641.534	16842.49
641.727	16654.08
641.92	16649.99
642.114	16647.94
642.307	16443.14
642.5	16539.4
642.694	16277.26
642.887	16383.75
643.08	16195.34
643.273	15945.48
643.467	15982.35
643.66	15994.64
643.853	15626
644.046	15388.44
644.239	15763.22
644.432	15546.13
644.626	15521.56
644.819	15525.65
645.012	15437.59
645.205	15509.27
645.398	15210.26
645.591	15066.91
645.784	15042.33
645.977	14806.81
646.17	15007.51
646.363	14624.54
646.556	14518.05
646.749	14540.58
646.942	14866.21
647.135	14311.21
647.328	14376.74
647.521	14225.19
647.714	14137.13
647.907	14266.15
648.099	14241.57
648.292	14122.79
648.485	14126.89
648.678	13821.74
648.871	13874.99
649.064	13752.11
649.256	13776.69
649.449	13825.84
649.642	13776.69
649.835	13252.41
650.027	13410.1
650.22	13420.34
650.413	13377.33
650.605	13313.84
650.798	13186.87
650.991	12990.27
651.183	12894.01
651.376	12678.97
651.568	12891.96
651.761	12887.87
651.954	12851
652.146	12470.08
652.339	12465.99
652.531	12461.89
652.724	12433.22
652.916	12128.07
653.109	12357.44
653.301	12388.16
653.494	12097.35
653.686	12175.17
653.879	12021.58
654.071	11953.99
654.263	11900.75
654.456	11949.9
654.648	11935.56
654.84	11603.79
655.033	11870.03
655.225	11745.1
655.417	11589.46
655.61	11710.29
655.802	11718.48
655.994	11534.16
656.186	11349.84
656.379	11183.96
656.571	11194.2
656.763	11116.37
656.955	11069.27
657.148	11034.46
657.34	11118.42
657.532	11013.98
657.724	10970.97
657.916	10913.63
658.108	10872.67
658.3	10827.61
658.492	10725.21
658.684	10755.93
658.876	10581.85
659.068	10512.22
659.26	10432.35
659.452	10536.8
659.644	10495.84
659.836	10368.87
660.028	10485.6
660.22	10213.22
660.412	10125.16
660.604	9959.27
660.796	9965.42
660.988	9920.36
661.18	9865.07
661.372	10071.91
661.563	9942.89
661.755	9781.1
661.947	9824.11
662.139	9656.17
662.331	9533.29
662.522	9463.66
662.714	9404.27
662.906	9518.96
663.097	9367.41
663.289	9308.02
663.481	9310.07
663.673	9348.98
663.864	9262.96
664.056	8986.49
664.247	9316.21
664.439	9035.64
664.631	9103.22
664.822	8959.86
665.014	8826.75
665.205	9000.82
665.397	9027.45
665.588	9031.54
665.78	8966.01
665.971	8912.76
666.163	8859.51
666.354	8720.25
666.546	8621.95
666.737	8580.99
666.929	8273.79
667.12	8552.32
667.311	8376.19
667.503	8329.09
667.694	8245.12
667.885	8380.29
668.077	8302.47
668.268	8140.68
668.459	8292.23
668.651	8021.89
668.842	8279.94
669.033	8071.04
669.224	7905.16
669.416	8126.34
669.607	8034.18
669.798	8009.61
669.989	7956.36
670.18	7935.88
670.371	7747.47
670.563	7722.89
670.754	7585.68
670.945	7663.5
671.136	7587.72
671.327	7509.9
671.518	7528.33
671.709	7581.58
671.9	7628.68
672.091	7505.81
672.282	7579.53
672.473	7358.35
672.664	7530.38
672.855	7274.39
673.046	7403.41
673.237	7421.84
673.428	7282.58
673.619	7270.29
673.809	7176.08
674	7229.33
674.191	7171.99
674.382	7110.55
674.573	7235.47
674.764	7094.16
674.954	7186.32
675.145	7040.92
675.336	6920.09
675.527	6942.61
675.717	6813.59
675.908	6944.66
676.099	6725.53
676.289	6793.11
676.48	6774.68
676.671	6586.27
676.861	6979.48
677.052	6748.06
677.243	6690.71
677.433	6686.62
677.624	6686.62
677.814	6512.54
678.005	6569.88
678.195	6571.93
678.386	6461.34
678.576	6444.96
678.767	6467.49
678.957	6508.44
679.148	6375.33
679.338	6385.57
679.529	6535.07
679.719	6440.86
679.909	6553.5
680.1	6231.97
680.29	6518.68
680.481	6369.18
680.671	6256.54
680.861	6199.2
681.052	6283.17
681.242	6186.91
681.432	6176.67
681.622	6209.44
681.813	6113.19
682.003	6100.9
682.193	6055.84
682.383	6127.52
682.573	6201.25
682.764	5920.68
682.954	5906.34
683.144	5943.21
683.334	5904.29
683.524	5959.59
683.714	5951.4
683.904	5840.81
684.094	6064.04
684.284	5799.85
684.474	5842.85
684.664	5873.57
684.854	5836.71
685.044	5636.01
685.234	5611.43
685.424	5738.41
685.614	5707.69
685.804	5685.16
685.994	5615.53
686.184	5760.94
686.374	5670.83
686.564	5517.23
686.753	5607.34
686.943	5414.83
687.133	5392.3
687.323	5361.58
687.513	5605.29
687.702	5570.48
687.892	5398.45
688.082	5359.53
688.272	5394.35
688.461	5318.57
688.651	5273.52
688.841	5310.38
689.03	5394.35
689.22	5320.62
689.41	5197.74
689.599	5175.22
689.789	5193.65
689.979	4947.89
690.168	5216.18
690.358	4935.6
690.547	5029.81
690.737	4890.55
690.926	5081.01
691.116	5019.57
691.305	4925.36
691.495	4816.82
691.684	4835.25
691.874	4804.53
692.063	4628.41
692.252	4839.35
692.442	4929.46
692.631	4669.37
692.82	4763.58
693.01	4597.69
693.199	4652.98
693.388	4562.87
693.578	4540.35
693.767	4560.83
693.956	4399.04
694.146	4532.15
694.335	4552.63
694.524	4513.72
694.713	4489.15
694.902	4325.31
695.092	4442.04
695.281	4448.19
695.47	4417.47
695.659	4364.22
695.848	4360.13
696.037	4300.73
696.226	4302.78
696.415	4298.69
696.604	4394.94
696.793	4366.27
696.982	4243.39
697.171	4093.89
697.36	4149.18
697.549	4157.38
697.738	4028.35
697.927	4134.85
698.116	4173.76
698.305	4009.92
698.494	4001.73
698.683	4003.78
698.872	4147.14
699.061	3948.48
699.25	3975.11
699.438	4102.08
699.627	4011.97
699.816	3987.4
700.005	3899.33
700.193	3901.38
700.382	3825.61
700.571	3909.57
700.76	3934.15
700.948	3925.96
701.137	3864.52
701.326	3946.44
701.514	3856.33
701.703	3837.89
701.892	3657.67
702.08	3745.73
702.269	3760.07
702.457	3751.88
702.646	3674.06
702.834	3659.72
703.023	3715.02
703.212	3772.36
703.4	3563.47
703.589	3463.12
703.777	3624.9
703.965	3499.98
704.154	3561.42
704.342	3514.31
704.531	3565.51
704.719	3518.41
704.907	3606.47
705.096	3416.01
705.284	3491.79
705.472	3506.12
705.661	3542.99
705.849	3463.12
706.037	3614.66
706.226	3499.98
706.414	3436.49
706.602	3385.29
706.79	3483.59
706.979	3342.28
707.167	3485.64
707.355	3379.15
707.543	3399.63
707.731	3383.24
707.919	3416.01
708.107	3463.12
708.296	3330
708.484	3403.72
708.672	3370.96
708.86	3338.19
709.048	3395.53
709.236	3274.7
709.424	3295.18
709.612	3321.81
709.8	3293.13
709.988	3166.16
710.176	3258.32
710.364	3235.79
710.551	3303.37
710.739	3321.81
710.927	3338.19
711.115	3278.8
711.303	3344.33
711.491	3207.12
711.679	3282.89
711.866	3178.45
712.054	3217.36
712.242	3327.95
712.43	3344.33
712.617	3344.33
712.805	3254.22
712.993	3198.93
713.181	3080.15
713.368	3217.36
713.556	3207.12
713.744	3088.34
713.931	3278.8
714.119	3141.58
714.306	3114.96
714.494	3030.99
714.682	3160.02
714.869	3188.69
715.057	3190.74
715.244	3086.29
715.432	3160.02
715.619	3176.4
715.807	3096.53
715.994	3094.48
716.182	3117.01
716.369	3076.05
716.556	2998.23
716.744	3024.85
716.931	3014.61
717.119	3039.19
717.306	3065.81
717.493	2996.18
717.681	3162.06
717.868	3020.75
718.055	2983.89
718.242	3047.38
718.43	2994.13
718.617	3071.95
718.804	3061.71
718.991	3016.66
719.179	2998.23
719.366	2947.03
719.553	2942.93
719.74	2906.07
719.927	3063.76
720.114	3051.47
720.301	2904.02
720.488	2824.15
720.676	2992.08
720.863	2981.84
721.05	3112.91
721.237	2990.03
721.424	3008.47
721.611	2953.17
721.798	2910.16
721.985	2885.59
722.172	2910.16
722.358	2883.54
722.545	2926.55
722.732	2885.59
722.919	2998.23
723.106	2981.84
723.293	2873.3
723.48	2932.69
723.667	2959.31
723.853	2856.92
724.04	3047.38
724.227	3016.66
724.414	2908.12
724.6	2889.68
724.787	3090.38
724.974	2875.35
725.161	2904.02
725.347	2897.88
725.534	3016.66
725.72	2854.87
725.907	2844.63
726.094	3006.42
726.28	2971.6
726.467	2959.31
726.653	2895.83
726.84	2920.4
727.027	2879.44
727.213	2918.36
727.4	2973.65
727.586	2906.07
727.773	2803.67
727.959	2971.6
728.145	3074
728.332	2844.63
728.518	3057.62
728.705	2916.31
728.891	2926.55
729.077	3043.28
729.264	2904.02
729.45	3037.14
729.636	3024.85
729.823	2856.92
730.009	2910.16
730.195	3071.95
730.382	2928.6
730.568	2930.64
730.754	3016.66
730.94	2973.65
731.126	3055.57
731.313	3028.95
731.499	2944.98
731.685	2916.31
731.871	2953.17
732.057	2959.31
732.243	3022.8
732.429	2959.31
732.615	2959.31
732.801	2996.18
732.987	2955.22
733.173	2893.78
733.359	2987.99
733.545	3067.86
733.731	3049.43
733.917	3100.62
734.103	3055.57
734.289	3069.91
734.475	3100.62
734.661	3129.3
734.847	3063.76
735.033	3057.62
735.219	3041.23
735.404	2938.84
735.59	2930.64
735.776	3026.9
735.962	2998.23
736.148	3061.71
736.333	2977.75
736.519	2965.46
736.705	3069.91
736.89	3030.99
737.076	3186.64
737.262	2981.84
737.447	3006.42
737.633	2916.31
737.819	3012.56
738.004	2987.99
738.19	2904.02
738.375	3041.23
738.561	2981.84
738.747	3014.61
738.932	2881.49
739.118	3098.58
739.303	2977.75
739.489	3033.04
739.674	2963.41
739.859	3041.23
740.045	3018.71
740.23	2914.26
740.416	2942.93
740.601	3008.47
740.786	2908.12
740.972	3098.58
741.157	3022.8
741.342	2936.79
741.528	3055.57
741.713	2973.65
741.898	2965.46
742.084	2977.75
742.269	2899.92
742.454	2906.07
742.639	2990.03
742.824	2904.02
743.01	2899.92
743.195	3055.57
743.38	2938.84
743.565	3022.8
743.75	2942.93
743.935	2869.2
744.12	3022.8
744.305	2979.79
744.49	2985.94
744.675	2936.79
744.86	2899.92
745.045	2815.96
745.23	2992.08
745.415	2871.25
745.6	2942.93
745.785	2787.29
745.97	2854.87
746.155	2834.39
746.34	2764.76
746.525	2842.58
746.71	2832.34
746.895	2777.05
747.079	2875.35
747.264	2891.73
747.449	2809.81
747.634	2889.68
747.819	2725.85
748.003	2744.28
748.188	2715.61
748.373	2785.24
748.557	2799.57
748.742	2672.6
748.927	2723.8
749.111	2611.16
749.296	2658.26
749.481	2582.49
749.665	2691.03
749.85	2568.15
750.034	2600.92
750.219	2688.98
750.404	2533.34
750.588	2660.31
750.773	2576.34
750.957	2494.43
751.141	2504.67
751.326	2541.53
751.51	2435.03
751.695	2465.75
751.879	2568.15
752.064	2549.72
752.248	2387.93
752.432	2525.15
752.617	2432.99
752.801	2521.05
752.985	2488.28
753.17	2547.67
753.354	2459.61
753.538	2373.6
753.722	2248.67
753.907	2324.44
754.091	2291.68
754.275	2344.92
754.459	2365.4
754.643	2244.57
754.828	2316.25
755.012	2392.03
755.196	2316.25
755.38	2316.25
755.564	2140.13
755.748	2303.96
755.932	2152.42
756.116	2220
756.3	2277.34
756.484	2185.18
756.668	2156.51
756.852	2195.42
757.036	2115.55
757.22	2090.98
757.404	2195.42
757.588	2131.94
757.772	1976.29
757.956	1966.05
758.14	2090.98
758.323	2052.06
758.507	2062.3
758.691	2097.12
758.875	2035.68
759.059	2019.3
759.242	1949.67
759.426	1935.33
759.61	1957.86
759.794	1906.66
759.977	2021.35
760.161	1955.81
760.345	1925.09
760.528	1961.95
760.712	1886.18
760.895	1853.41
761.079	2007.01
761.263	1808.36
761.446	1933.28
761.63	1785.83
761.813	1822.69
761.997	1824.74
762.18	1781.73
762.364	1865.7
762.547	1855.46
762.731	1869.8
762.914	1959.91
763.098	1705.96
763.281	1877.99
763.464	1777.64
763.648	1849.32
763.831	1789.92
764.015	1705.96
764.198	1714.15
764.381	1834.98
764.564	1744.87
764.748	1679.33
764.931	1732.58
765.114	1712.1
765.297	1802.21
765.481	1630.18
765.664	1679.33
765.847	1671.14
766.03	1630.18
766.213	1673.19
766.397	1605.61
766.58	1703.91
766.763	1624.04
766.946	1665
767.129	1636.33
767.312	1654.76
767.495	1572.84
767.678	1589.22
767.861	1621.99
768.044	1587.18
768.227	1619.94
768.41	1626.09
768.593	1722.34
768.776	1497.07
768.959	1538.02
769.142	1581.03
769.324	1511.4
769.507	1488.87
769.69	1495.02
769.873	1476.59
770.056	1529.83
770.239	1462.25
770.421	1529.83
770.604	1574.89
770.787	1490.92
770.97	1460.2
771.152	1437.67
771.335	1527.78
771.518	1417.19
771.7	1478.63
771.883	1431.53
772.066	1431.53
772.248	1462.25
772.431	1484.78
772.613	1454.06
772.796	1509.35
772.978	1480.68
773.161	1478.63
773.343	1460.2
773.526	1292.27
773.708	1337.32
773.891	1218.54
774.073	1421.29
774.256	1386.47
774.438	1335.28
774.621	1415.15
774.803	1372.14
774.985	1372.14
775.168	1267.69
775.35	1271.79
775.532	1224.69
775.715	1230.83
775.897	1200.11
776.079	1236.97
776.261	1212.4
776.444	1435.63
776.626	1189.87
776.808	1083.38
776.99	1224.69
777.173	1126.38
777.355	1200.11
777.537	1236.97
777.719	1144.81
777.901	1169.39
778.083	1120.24
778.265	1144.81
778.447	1097.71
778.629	1177.58
778.811	1071.09
778.993	1087.47
779.175	1146.86
779.357	1048.56
779.539	1107.95
779.721	1038.32
779.903	1079.28
780.085	1005.55
780.267	1144.81
780.449	1157.1
780.631	1048.56
780.812	983.02
780.994	1114.1
781.176	1058.8
781.358	948.21
781.54	968.69
781.721	1028.08
781.903	966.64
782.085	976.88
782.267	995.31
782.448	1007.6
782.63	854
782.812	909.3
782.993	944.11
783.175	882.67
783.357	839.67
783.538	946.16
783.72	817.14
783.901	739.32
784.083	866.29
784.264	878.58
784.446	835.57
784.627	788.47
784.809	811
784.99	825.33
785.172	835.57
785.353	952.31
785.535	780.28
785.716	696.31
785.897	821.24
786.079	776.18
786.26	860.15
786.441	798.71
786.623	710.65
786.804	790.52
786.985	739.32
787.167	786.42
787.348	782.32
787.529	694.26
787.71	770.04
787.891	700.41
788.073	690.17
788.254	751.6
788.435	823.28
788.616	724.98
788.797	698.36
788.978	698.36
789.159	690.17
789.34	641.01
789.522	696.31
789.703	763.89
789.884	702.45
790.065	636.92
790.246	788.47
790.427	647.16
790.607	591.86
790.788	593.91
790.969	634.87
791.15	673.78
791.331	675.83
791.512	600.05
791.693	571.38
791.874	673.78
792.054	675.83
792.235	675.83
792.416	610.29
792.597	569.34
792.778	667.64
792.958	581.62
793.139	595.96
793.32	583.67
793.5	536.57
793.681	591.86
793.862	661.49
794.042	555
794.223	477.18
794.404	643.06
794.584	503.8
794.765	499.7
794.945	561.14
795.126	540.66
795.306	567.29
795.487	546.81
795.667	489.46
795.848	555
796.028	565.24
796.209	475.13
796.389	518.14
796.57	501.75
796.75	511.99
796.93	573.43
797.111	452.6
797.291	473.08
797.471	530.42
797.652	526.33
797.832	571.38
798.012	514.04
798.192	452.6
798.373	536.57
798.553	487.42
798.733	544.76
798.913	462.84
799.093	415.74
799.274	462.84
799.454	464.89
799.634	397.31
799.814	487.42
799.994	434.17
800.174	391.16
800.354	425.98
800.534	423.93
800.714	415.74
800.894	374.78
801.074	366.59
801.254	401.4
801.434	434.17
801.614	442.36
801.794	462.84
801.974	1122.29
802.154	399.35
802.334	425.98
802.514	415.74
802.693	370.68
802.873	405.5
803.053	436.22
803.233	362.49
803.413	335.87
803.592	378.87
803.772	407.55
803.952	401.4
804.131	348.15
804.311	368.63
804.491	432.12
804.67	405.5
804.85	374.78
805.03	409.59
805.209	428.03
805.389	407.55
805.568	374.78
805.748	319.48
805.928	370.68
806.107	335.87
806.287	342.01
806.466	331.77
806.646	405.5
806.825	376.83
807.004	319.48
807.184	292.86
807.363	370.68
807.543	337.91
807.722	262.14
807.901	321.53
808.081	333.82
808.26	212.99
808.439	321.53
808.619	288.76
808.798	342.01
808.977	337.91
809.156	434.17
809.336	284.67
809.515	364.54
809.694	288.76
809.873	233.47
810.052	288.76
810.231	307.2
810.411	380.92
810.59	438.27
810.769	342.01
810.948	401.4
811.127	237.56
811.306	202.75
811.485	243.71
811.664	397.31
811.843	311.29
812.022	260.09
812.201	329.72
812.38	217.08
812.559	299
812.737	282.62
812.916	241.66
813.095	256
813.274	262.14
813.453	315.39
813.632	348.15
813.811	262.14
813.989	243.71
814.168	278.52
814.347	194.56
814.526	272.38
814.704	268.28
814.883	272.38
815.062	184.32
815.24	313.34
815.419	223.23
815.598	278.52
815.776	196.61
815.955	233.47
816.133	172.03
816.312	212.99
816.49	188.41
816.669	262.14
816.847	251.9
817.026	268.28
817.204	276.48
817.383	223.23
817.561	215.04
817.74	251.9
817.918	249.85
818.097	249.85
818.275	217.08
818.453	294.91
818.632	360.44
818.81	208.89
818.988	186.37
819.167	243.71
819.345	262.14
819.523	231.42
819.701	165.89
819.879	190.46
820.058	200.7
820.236	290.81
820.414	200.7
820.592	243.71
820.77	178.17
820.948	174.08
821.127	186.37
821.305	206.84
821.483	159.74
821.661	153.6
821.839	233.47
822.017	153.6
822.195	190.46
822.373	165.89
822.551	184.32
822.729	161.79
822.907	178.17
823.085	202.75
823.262	174.08
823.44	219.13
823.618	217.08
823.796	167.93
823.974	215.04
824.152	188.41
824.329	212.99
824.507	280.57
824.685	217.08
824.863	182.27
825.04	202.75
825.218	163.84
825.396	184.32
825.574	186.37
825.751	176.13
825.929	219.13
826.107	65.54
826.284	227.32
826.462	221.18
826.639	196.61
826.817	169.98
826.994	233.47
827.172	135.17
827.349	223.23
827.527	114.69
827.704	182.27
827.882	157.69
828.059	137.21
828.237	186.37
828.414	217.08
828.591	141.31
828.769	172.03
828.946	145.41
829.124	157.69
829.301	186.37
829.478	182.27
829.655	212.99
829.833	108.54
830.01	159.74
830.187	206.84
830.364	167.93
830.542	151.55
830.719	176.13
830.896	149.5
831.073	81.92
831.25	184.32
831.427	169.98
831.604	182.27
831.782	147.45
831.959	61.44
832.136	176.13
832.313	178.17
832.49	161.79
832.667	98.3
832.844	112.64
833.021	200.7
833.198	129.02
833.374	102.4
833.551	98.3
833.728	153.6
833.905	190.46
834.082	131.07
834.259	167.93
834.436	204.8
834.612	65.54
834.789	176.13
834.966	172.03
835.143	131.07
835.319	100.35
835.496	120.83
835.673	137.21
835.85	96.25
836.026	120.83
836.203	198.65
836.38	139.26
836.556	110.59
836.733	108.54
836.909	114.69
837.086	65.54
837.262	129.02
837.439	143.36
837.616	104.45
837.792	118.78
837.968	163.84
838.145	94.21
838.321	139.26
838.498	112.64
838.674	92.16
838.851	135.17
839.027	215.04
839.203	145.41
839.38	120.83
839.556	75.77
839.732	129.02
839.909	131.07
840.085	176.13
840.261	75.77
840.437	145.41
840.614	96.25
840.79	116.73
840.966	174.08
841.142	81.92
841.318	135.17
841.494	92.16
841.671	172.03
841.847	38.91
842.023	49.15
842.199	151.55
842.375	110.59
842.551	92.16
842.727	40.96
842.903	163.84
843.079	106.49
843.255	147.45
843.431	43.01
843.607	120.83
843.783	-24.58
843.959	73.73
844.134	47.1
844.31	165.89
844.486	51.2
844.662	83.97
844.838	20.48
845.013	90.11
845.189	192.51
845.365	34.82
845.541	135.17
845.716	-12.29
845.892	43.01
846.068	71.68
846.244	122.88
846.419	18.43
846.595	30.72
846.77	53.25
846.946	-51.2
847.122	108.54
847.297	34.82
847.473	116.73
847.648	108.54
847.824	30.72
847.999	45.06
848.175	110.59
848.35	53.25
848.526	100.35
848.701	-14.34
848.876	92.16
849.052	98.3
849.227	36.86
849.403	45.06
849.578	100.35
849.753	57.34
849.929	71.68
850.104	22.53
850.279	38.91
850.454	61.44
850.63	65.54
850.805	-2.05
850.98	49.15
851.155	129.02
851.33	116.73
851.505	40.96
851.681	180.22
851.856	96.25
852.031	-10.24
852.206	61.44
852.381	55.3
852.556	73.73
852.731	102.4
852.906	96.25
853.081	161.79
853.256	32.77
853.431	129.02
853.606	71.68
853.781	57.34
853.956	71.68
854.131	122.88
854.305	92.16
854.48	83.97
854.655	65.54
854.83	-2.05
855.005	106.49
855.18	30.72
855.354	61.44
855.529	83.97
855.704	-10.24
855.879	75.77
856.053	40.96
856.228	139.26
856.403	65.54
856.577	94.21
856.752	92.16
856.926	73.73
857.101	100.35
857.276	8.19
857.45	18.43
857.625	79.87
857.799	36.86
857.974	96.25
858.148	18.43
858.323	75.77
858.497	10.24
858.672	53.25
858.846	104.45
859.02	18.43
859.195	45.06
859.369	83.97
859.543	38.91
859.718	16.38
859.892	94.21
860.066	43.01
860.241	102.4
860.415	77.82
860.589	30.72
860.763	75.77
860.938	36.86
861.112	75.77
861.286	75.77
861.46	26.62
861.634	118.78
861.808	110.59
861.982	38.91
862.157	45.06
862.331	16.38
862.505	40.96
862.679	69.63
862.853	-12.29
863.027	40.96
863.201	145.41
863.375	26.62
863.549	73.73
863.722	53.25
863.896	102.4
864.07	20.48
864.244	79.87
864.418	-2.05
864.592	88.06
864.766	100.35
864.939	-8.19
865.113	30.72
865.287	47.1
865.461	45.06
865.634	122.88
865.808	75.77
865.982	-18.43
866.156	0
866.329	51.2
866.503	2.05
866.676	40.96
866.85	16.38
867.024	71.68
867.197	36.86
867.371	75.77
867.544	43.01
867.718	55.3
867.891	55.3
868.065	67.58
868.238	67.58
868.412	73.73
868.585	4.1
868.759	81.92
868.932	73.73
869.105	14.34
869.279	122.88
869.452	28.67
869.625	4.1
869.799	94.21
869.972	-24.58
870.145	36.86
870.319	45.06
870.492	-30.72
870.665	-14.34
870.838	75.77
871.011	0
871.185	30.72
871.358	18.43
871.531	61.44
871.704	-18.43
871.877	49.15
872.05	4.1
872.223	24.58
872.396	63.49
872.569	83.97
872.742	34.82
872.915	43.01
873.088	18.43
873.261	79.87
873.434	73.73
873.607	53.25
873.78	49.15
873.953	10.24
874.126	83.97
874.299	61.44
874.471	18.43
874.644	122.88
874.817	36.86
874.99	34.82
875.163	51.2
875.335	108.54
875.508	55.3
875.681	47.1
875.853	2.05
876.026	40.96
876.199	59.39
876.371	38.91
876.544	4.1
876.717	55.3
876.889	-26.62
877.062	65.54
877.234	20.48
877.407	63.49
877.579	57.34
877.752	49.15
877.924	61.44
878.097	59.39
878.269	-24.58
878.442	16.38
878.614	65.54
878.786	47.1
878.959	43.01
879.131	18.43
879.303	18.43
879.476	-14.34
879.648	77.82
879.82	47.1
879.993	28.67
880.165	61.44
880.337	-75.77
880.509	38.91
880.681	-12.29
880.854	49.15
881.026	38.91
881.198	94.21
881.37	32.77
881.542	34.82
881.714	53.25
881.886	18.43
882.058	-10.24
882.23	12.29
882.402	38.91
882.574	53.25
882.746	30.72
882.918	12.29
883.09	8.19
883.262	-12.29
883.434	32.77
883.606	-24.58
883.778	8.19
883.95	40.96
884.122	-22.53
884.293	20.48
884.465	124.93
884.637	51.2
884.809	-10.24
884.98	67.58
885.152	16.38
885.324	55.3
885.496	18.43
885.667	55.3
885.839	-40.96
886.011	131.07
886.182	6.14
886.354	51.2
886.525	-24.58
886.697	18.43
886.869	-43.01
887.04	-79.87
887.212	57.34
887.383	40.96
887.555	-22.53
887.726	108.54
887.897	18.43
888.069	28.67
888.24	34.82
888.412	-24.58
888.583	67.58
888.754	43.01
888.926	-14.34
889.097	-20.48
889.268	43.01
889.44	-8.19
889.611	24.58
889.782	-6.14
889.953	-4.1
890.125	55.3
890.296	-12.29
890.467	8.19
890.638	-63.49
890.809	61.44
890.98	-32.77
891.151	-69.63
891.323	43.01
891.494	26.62
891.665	-4.1
891.836	28.67
892.007	38.91
892.178	36.86
892.349	51.2
892.52	38.91
892.691	63.49
892.862	18.43
893.032	-10.24
893.203	-28.67
893.374	16.38
893.545	139.26
893.716	24.58
893.887	26.62
894.057	14.34
894.228	-16.38
894.399	-18.43
894.57	57.34
894.74	-36.86
894.911	24.58
895.082	-22.53
895.253	8.19
895.423	6.14
895.594	88.06
895.764	18.43
895.935	-45.06
896.106	0
896.276	-43.01
896.447	4.1
896.617	26.62
896.788	40.96
896.958	6.14
897.129	18.43
897.299	20.48
897.47	98.3
897.64	47.1
897.81	-10.24
897.981	22.53
898.151	-24.58
898.322	-32.77
898.492	40.96
898.662	-47.1
898.832	-20.48
899.003	8.19
899.173	-8.19
899.343	-8.19
899.513	2.05
