Data from USB4F104151__16__11-57-19-391.txt Node

Date: Wed Feb 19 11:57:19 EST 2025
User: louis
Spectrometer: USB4F10415
Trigger mode: 4
Integration Time (sec): 2.250200E-1
Scans to average: 1
Electric dark correction enabled: true
Nonlinearity correction enabled: false
Boxcar width: 0
XAxis mode: Wavelengths
Number of Pixels in Spectrum: 3648
>>>>>Begin Spectral Data<<<<<
178.204	-845.47
178.424	-845.47
178.644	-845.47
178.864	-802.46
179.084	-771.74
179.304	131.41
179.524	110.93
179.744	55.64
179.964	-212.65
180.184	221.52
180.404	182.61
180.624	-278.18
180.844	-118.44
181.064	33.11
181.283	151.89
181.503	-196.26
181.723	-81.58
181.943	-11.95
182.163	342.35
182.383	-216.74
182.602	-143.02
182.822	424.27
183.042	225.62
183.262	-216.74
183.482	-147.11
183.701	264.53
183.921	299.34
184.141	-218.79
184.361	-171.69
184.58	143.7
184.8	209.23
185.02	-157.35
185.239	-42.67
185.459	274.77
185.679	430.41
185.898	-292.52
186.118	-173.74
186.338	239.95
186.557	319.82
186.777	-110.25
186.997	-169.64
187.216	221.52
187.436	579.92
187.655	-112.3
187.875	-77.48
188.095	328.02
188.314	360.78
188.534	-97.96
188.753	-237.22
188.973	432.46
189.192	487.76
189.412	-186.02
189.631	-196.26
189.851	340.3
190.07	500.05
190.29	-83.63
190.509	-138.92
190.729	166.23
190.948	454.99
191.168	-34.47
191.387	-175.78
191.607	192.85
191.826	323.92
192.045	-175.78
192.265	-120.49
192.484	358.74
192.704	198.99
192.923	-231.08
193.142	-3.75
193.362	366.93
193.581	405.84
193.8	-114.34
194.02	-151.21
194.239	268.63
194.458	395.6
194.678	-97.96
194.897	-202.41
195.116	301.39
195.335	250.19
195.555	-77.48
195.774	-308.9
195.993	371.02
196.212	155.99
196.432	-134.82
196.651	-216.74
196.87	172.37
197.089	512.33
197.308	-239.27
197.528	-167.59
197.747	61.78
197.966	194.9
198.185	-48.81
198.404	-239.27
198.623	340.3
198.842	287.06
199.062	-36.52
199.281	-89.77
199.5	174.42
199.719	239.95
199.938	-202.41
200.157	-63.15
200.376	426.32
200.595	325.97
200.814	-171.69
201.033	-175.78
201.252	454.99
201.471	250.19
201.69	-243.37
201.909	-134.82
202.128	334.16
202.347	246.1
202.566	-100.01
202.785	-280.23
203.004	141.65
203.223	536.91
203.442	-169.64
203.661	-175.78
203.879	231.76
204.098	340.3
204.317	-233.13
204.536	31.06
204.755	426.32
204.974	360.78
205.193	-343.72
205.411	-216.74
205.63	293.2
205.849	225.62
206.068	-208.55
206.287	-204.46
206.505	432.46
206.724	260.43
206.943	-220.84
207.162	-95.91
207.381	225.62
207.599	174.42
207.818	-36.52
208.037	-181.93
208.255	207.19
208.474	203.09
208.693	-147.11
208.911	-151.21
209.13	317.78
209.349	307.54
209.567	16.73
209.786	-173.74
210.005	356.69
210.223	215.38
210.442	-325.29
210.661	-233.13
210.879	303.44
211.098	237.91
211.316	-165.54
211.535	-136.87
211.753	254.29
211.972	285.01
212.191	-179.88
212.409	-36.52
212.628	321.87
212.846	129.36
213.065	-173.74
213.283	-65.19
213.502	176.47
213.72	176.47
213.938	-177.83
214.157	-161.45
214.375	356.69
214.594	196.95
214.812	-73.39
215.031	-192.17
215.249	145.75
215.467	274.77
215.686	-71.34
215.904	-134.82
216.122	190.8
216.341	465.23
216.559	14.68
216.778	-3.75
216.996	481.61
217.214	145.75
217.432	-147.11
217.651	-237.22
217.869	239.95
218.087	176.47
218.306	-257.7
218.524	-229.03
218.742	250.19
218.96	393.55
219.179	-132.78
219.397	-249.51
219.615	551.24
219.833	213.33
220.051	-145.06
220.27	-34.47
220.488	389.46
220.706	229.71
220.924	-186.02
221.142	-200.36
221.36	176.47
221.578	299.34
221.796	-202.41
222.015	-79.53
222.233	207.19
222.451	393.55
222.669	-100.01
222.887	-93.87
223.105	170.32
223.323	201.04
223.541	-159.4
223.759	-57
223.977	190.8
224.195	471.37
224.413	-50.86
224.631	-89.77
224.849	295.25
225.067	532.81
225.285	-126.63
225.503	-126.63
225.721	-1.71
225.939	145.75
226.157	-130.73
226.375	94.55
226.592	162.13
226.81	223.57
227.028	18.77
227.246	-67.24
227.464	194.9
227.682	295.25
227.9	-155.3
228.117	-46.76
228.335	348.5
228.553	215.38
228.771	-243.37
228.989	-132.78
229.206	309.58
229.424	153.94
229.642	-85.67
229.86	-147.11
230.077	436.56
230.295	217.43
230.513	-18.09
230.731	-81.58
230.948	514.38
231.166	467.28
231.384	24.92
231.601	-159.4
231.819	489.81
232.037	88.4
232.254	-54.95
232.472	-165.54
232.689	162.13
232.907	272.72
233.125	-202.41
233.342	-214.7
233.56	164.18
233.777	104.79
233.995	-93.87
234.213	-11.95
234.43	246.1
234.648	270.67
234.865	-151.21
235.083	-7.85
235.3	280.91
235.518	289.1
235.735	-124.58
235.953	-44.71
236.17	252.24
236.388	217.43
236.605	4.44
236.822	-69.29
237.04	354.64
237.257	262.48
237.475	-116.39
237.692	-118.44
237.909	358.74
238.127	184.66
238.344	-22.19
238.562	-116.39
238.779	35.16
238.996	61.78
239.214	-16.04
239.431	-102.06
239.648	137.56
239.865	354.64
240.083	-91.82
240.3	-235.18
240.517	168.27
240.735	135.51
240.952	72.02
241.169	-151.21
241.386	254.29
241.603	194.9
241.821	-159.4
242.038	-108.2
242.255	469.33
242.472	12.63
242.689	-102.06
242.907	-83.63
243.124	209.23
243.341	223.57
243.558	-36.52
243.775	-153.26
243.992	65.88
244.209	332.11
244.426	12.63
244.643	-83.63
244.86	172.37
245.078	239.95
245.295	-59.05
245.512	-149.16
245.729	43.35
245.946	258.39
246.163	-153.26
246.38	-173.74
246.597	229.71
246.814	227.67
247.031	-79.53
247.248	-171.69
247.464	346.45
247.681	176.47
247.898	-102.06
248.115	8.53
248.332	117.08
248.549	373.07
248.766	14.68
248.983	-73.39
249.2	336.21
249.417	391.5
249.633	-147.11
249.85	18.77
250.067	280.91
250.284	178.51
250.501	-100.01
250.717	-116.39
250.934	16.73
251.151	186.71
251.368	-28.33
251.585	-81.58
251.801	254.29
252.018	67.92
252.235	-7.85
252.451	-198.31
252.668	196.95
252.885	336.21
253.102	-67.24
253.318	-102.06
253.535	168.27
253.752	149.84
253.968	-65.19
254.185	-226.98
254.401	291.15
254.618	250.19
254.835	-132.78
255.051	-40.62
255.268	305.49
255.484	278.87
255.701	-140.97
255.917	-114.34
256.134	160.08
256.351	143.7
256.567	-128.68
256.784	-3.75
257	-57
257.217	248.15
257.433	26.96
257.65	-57
257.866	356.69
258.082	53.59
258.299	-95.91
258.515	-11.95
258.732	205.14
258.948	110.93
259.165	-26.28
259.381	-128.68
259.597	346.45
259.814	209.23
260.03	-85.67
260.246	-118.44
260.463	364.88
260.679	350.54
260.895	-22.19
261.112	-3.75
261.328	194.9
261.544	86.36
261.761	-32.43
261.977	-167.59
262.193	22.87
262.409	334.16
262.626	57.68
262.842	-24.23
263.058	102.74
263.274	299.34
263.49	72.02
263.707	-122.54
263.923	274.77
264.139	39.25
264.355	12.63
264.571	-69.29
264.787	252.24
265.004	350.54
265.22	33.11
265.436	-71.34
265.652	217.43
265.868	254.29
266.084	-95.91
266.3	-108.2
266.516	104.79
266.732	235.86
266.948	-108.2
267.164	-134.82
267.38	360.78
267.596	358.74
267.812	-18.09
268.028	4.44
268.244	194.9
268.46	237.91
268.676	-116.39
268.892	-50.86
269.108	18.77
269.324	57.68
269.54	-190.12
269.756	-126.63
269.972	110.93
270.188	184.66
270.403	-132.78
270.619	-36.52
270.835	198.99
271.051	145.75
271.267	-126.63
271.483	-145.06
271.698	309.58
271.914	235.86
272.13	22.87
272.346	-71.34
272.562	213.33
272.777	354.64
272.993	-9.9
273.209	-67.24
273.425	260.43
273.64	37.2
273.856	-48.81
274.072	-194.22
274.287	90.45
274.503	301.39
274.719	65.88
274.934	-134.82
275.15	78.16
275.366	180.56
275.581	-145.06
275.797	-9.9
276.012	182.61
276.228	143.7
276.444	-20.14
276.659	96.6
276.875	96.6
277.09	57.68
277.306	-28.33
277.521	22.87
277.737	90.45
277.952	219.47
278.168	12.63
278.383	-57
278.599	207.19
278.814	270.67
279.03	-44.71
279.245	78.16
279.461	176.47
279.676	227.67
279.892	6.49
280.107	-118.44
280.322	31.06
280.538	383.31
280.753	-67.24
280.969	-130.73
281.184	223.57
281.399	352.59
281.615	-3.75
281.83	110.93
282.045	-16.04
282.26	127.32
282.476	-69.29
282.691	20.82
282.906	166.23
283.122	160.08
283.337	-69.29
283.552	82.26
283.767	215.38
283.983	248.15
284.198	4.44
284.413	-108.2
284.628	96.6
284.843	184.66
285.058	-13.99
285.274	-46.76
285.489	164.18
285.704	217.43
285.919	-5.8
286.134	-13.99
286.349	145.75
286.564	170.32
286.779	22.87
286.995	4.44
287.21	-26.28
287.425	213.33
287.64	-40.62
287.855	196.95
288.07	-42.67
288.285	276.82
288.5	33.11
288.715	8.53
288.93	242
289.145	166.23
289.36	35.16
289.575	-1.71
289.79	352.59
290.004	137.56
290.219	67.92
290.434	-42.67
290.649	57.68
290.864	131.41
291.079	-93.87
291.294	24.92
291.509	297.3
291.724	119.12
291.938	-50.86
292.153	-44.71
292.368	164.18
292.583	201.04
292.798	14.68
293.012	0.34
293.227	213.33
293.442	96.6
293.657	53.59
293.871	-11.95
294.086	248.15
294.301	328.02
294.516	104.79
294.73	63.83
294.945	88.4
295.16	227.67
295.374	84.31
295.589	63.83
295.804	82.26
296.018	108.88
296.233	20.82
296.447	104.79
296.662	155.99
296.877	348.5
297.091	29.01
297.306	-93.87
297.52	166.23
297.735	264.53
297.949	39.25
298.164	-147.11
298.378	186.71
298.593	78.16
298.807	-36.52
299.022	47.44
299.236	338.26
299.451	127.32
299.665	33.11
299.88	49.49
300.094	213.33
300.309	217.43
300.523	-18.09
300.737	-13.99
300.952	233.81
301.166	311.63
301.381	-5.8
301.595	-48.81
301.809	205.14
302.024	151.89
302.238	-57
302.452	141.65
302.667	209.23
302.881	289.1
303.095	16.73
303.309	131.41
303.524	125.27
303.738	178.51
303.952	41.3
304.166	-36.52
304.381	-73.39
304.595	227.67
304.809	2.39
305.023	-54.95
305.237	69.97
305.452	178.51
305.666	-5.8
305.88	6.49
306.094	272.72
306.308	205.14
306.522	-83.63
306.736	78.16
306.95	242
307.164	125.27
307.379	33.11
307.593	121.17
307.807	346.45
308.021	188.75
308.235	151.89
308.449	-175.78
308.663	129.36
308.877	536.91
309.091	49.49
309.305	59.73
309.519	-36.52
309.733	256.34
309.947	-59.05
310.161	-50.86
310.374	246.1
310.588	227.67
310.802	-28.33
311.016	67.92
311.23	160.08
311.444	158.03
311.658	51.54
311.872	198.99
312.085	416.08
312.299	270.67
312.513	217.43
312.727	-138.92
312.941	22.87
313.154	233.81
313.368	14.68
313.582	12.63
313.796	291.15
314.009	121.17
314.223	242
314.437	196.95
314.651	266.58
314.864	80.21
315.078	29.01
315.292	-97.96
315.505	143.7
315.719	194.9
315.933	139.6
316.146	-26.28
316.36	55.64
316.573	239.95
316.787	198.99
317.001	65.88
317.214	39.25
317.428	160.08
317.641	-28.33
317.855	-5.8
318.068	164.18
318.282	186.71
318.495	194.9
318.709	-3.75
318.922	209.23
319.136	360.78
319.349	63.83
319.563	12.63
319.776	233.81
319.99	-75.43
320.203	53.59
320.417	-3.75
320.63	94.55
320.843	242
321.057	100.69
321.27	-24.23
321.483	330.06
321.697	278.87
321.91	-69.29
322.124	24.92
322.337	198.99
322.55	-7.85
322.763	20.82
322.977	-26.28
323.19	76.12
323.403	45.4
323.617	162.13
323.83	258.39
324.043	143.7
324.256	231.76
324.469	-118.44
324.683	205.14
324.896	205.14
325.109	153.94
325.322	-52.91
325.535	55.64
325.748	315.73
325.962	186.71
326.175	63.83
326.388	-42.67
326.601	194.9
326.814	110.93
327.027	86.36
327.24	108.88
327.453	-36.52
327.666	160.08
327.879	176.47
328.092	78.16
328.305	297.3
328.518	137.56
328.731	26.96
328.944	-3.75
329.157	235.86
329.37	65.88
329.583	168.27
329.796	31.06
330.009	26.96
330.222	289.1
330.435	18.77
330.648	153.94
330.861	209.23
331.073	166.23
331.286	135.51
331.499	-18.09
331.712	115.03
331.925	217.43
332.138	67.92
332.35	-38.57
332.563	235.86
332.776	319.82
332.989	12.63
333.202	-42.67
333.414	213.33
333.627	186.71
333.84	33.11
334.053	123.22
334.265	12.63
334.478	115.03
334.691	14.68
334.903	102.74
335.116	168.27
335.329	104.79
335.541	82.26
335.754	209.23
335.966	86.36
336.179	145.75
336.392	10.58
336.604	76.12
336.817	168.27
337.029	166.23
337.242	-18.09
337.454	112.98
337.667	180.56
337.88	352.59
338.092	35.16
338.305	90.45
338.517	94.55
338.729	217.43
338.942	51.54
339.154	-59.05
339.367	59.73
339.579	217.43
339.792	-85.67
340.004	41.3
340.217	139.6
340.429	256.34
340.641	43.35
340.854	-93.87
341.066	172.37
341.278	323.92
341.491	145.75
341.703	-34.47
341.915	112.98
342.128	305.49
342.34	61.78
342.552	47.44
342.764	176.47
342.977	188.75
343.189	133.46
343.401	102.74
343.613	37.2
343.826	135.51
344.038	18.77
344.25	51.54
344.462	98.64
344.674	188.75
344.886	20.82
345.099	4.44
345.311	231.76
345.523	123.22
345.735	-126.63
345.947	127.32
346.159	272.72
346.371	201.04
346.583	72.02
346.795	104.79
347.007	55.64
347.219	407.89
347.431	6.49
347.643	135.51
347.855	82.26
348.067	332.11
348.279	-5.8
348.491	-108.2
348.703	272.72
348.915	121.17
349.127	-16.04
349.339	59.73
349.551	117.08
349.763	287.06
349.975	31.06
350.187	72.02
350.399	287.06
350.61	250.19
350.822	26.96
351.034	57.68
351.246	309.58
351.458	252.24
351.669	35.16
351.881	72.02
352.093	426.32
352.305	268.63
352.517	-61.1
352.728	106.84
352.94	262.48
353.152	307.54
353.363	-75.43
353.575	125.27
353.787	432.46
353.999	217.43
354.21	215.38
354.422	-136.87
354.633	153.94
354.845	260.43
355.057	37.2
355.268	-20.14
355.48	244.05
355.692	65.88
355.903	41.3
356.115	-11.95
356.326	-30.38
356.538	430.41
356.749	45.4
356.961	88.4
357.172	225.62
357.384	14.68
357.595	217.43
357.807	72.02
358.018	78.16
358.23	168.27
358.441	-59.05
358.653	57.68
358.864	190.8
359.075	102.74
359.287	143.7
359.498	133.46
359.709	258.39
359.921	254.29
360.132	219.47
360.344	-42.67
360.555	112.98
360.766	153.94
360.977	-20.14
361.189	80.21
361.4	211.28
361.611	280.91
361.823	29.01
362.034	33.11
362.245	-9.9
362.456	196.95
362.667	96.6
362.879	-106.15
363.09	299.34
363.301	235.86
363.512	-11.95
363.723	-18.09
363.935	127.32
364.146	274.77
364.357	31.06
364.568	4.44
364.779	-32.43
364.99	399.7
365.201	16.73
365.412	178.51
365.623	-44.71
365.834	182.61
366.045	137.56
366.256	102.74
366.467	225.62
366.678	127.32
366.889	74.07
367.1	-50.86
367.311	340.3
367.522	147.8
367.733	82.26
367.944	20.82
368.155	213.33
368.366	313.68
368.577	174.42
368.788	143.7
368.999	76.12
369.209	248.15
369.42	151.89
369.631	405.84
369.842	248.15
370.053	143.7
370.264	24.92
370.474	-69.29
370.685	336.21
370.896	127.32
371.107	135.51
371.317	-22.19
371.528	276.82
371.739	397.65
371.95	155.99
372.16	57.68
372.371	-20.14
372.582	203.09
372.792	33.11
373.003	121.17
373.214	217.43
373.424	180.56
373.635	-9.9
373.846	176.47
374.056	192.85
374.267	217.43
374.477	88.4
374.688	12.63
374.898	227.67
375.109	239.95
375.319	90.45
375.53	110.93
375.74	301.39
375.951	119.12
376.161	133.46
376.372	55.64
376.582	100.69
376.793	244.05
377.003	-7.85
377.214	-5.8
377.424	332.11
377.635	252.24
377.845	4.44
378.055	184.66
378.266	69.97
378.476	194.9
378.686	33.11
378.897	45.4
379.107	297.3
379.317	291.15
379.528	-3.75
379.738	86.36
379.948	35.16
380.158	315.73
380.369	102.74
380.579	119.12
380.789	168.27
380.999	291.15
381.21	164.18
381.42	272.72
381.63	188.75
381.84	276.82
382.05	125.27
382.261	86.36
382.471	323.92
382.681	86.36
382.891	217.43
383.101	72.02
383.311	94.55
383.521	141.65
383.731	12.63
383.941	276.82
384.151	227.67
384.361	133.46
384.571	69.97
384.781	90.45
384.991	307.54
385.201	491.85
385.411	172.37
385.621	123.22
385.831	254.29
386.041	225.62
386.251	168.27
386.461	166.23
386.671	211.28
386.881	186.71
387.091	24.92
387.301	244.05
387.511	176.47
387.72	223.57
387.93	94.55
388.14	98.64
388.35	282.96
388.56	336.21
388.769	69.97
388.979	41.3
389.189	162.13
389.399	215.38
389.609	106.84
389.818	69.97
390.028	299.34
390.238	325.97
390.447	18.77
390.657	147.8
390.867	121.17
391.076	-57
391.286	-11.95
391.496	2.39
391.705	260.43
391.915	344.4
392.125	100.69
392.334	45.4
392.544	305.49
392.753	315.73
392.963	-24.23
393.172	166.23
393.382	190.8
393.591	452.94
393.801	22.87
394.01	35.16
394.22	217.43
394.429	201.04
394.639	69.97
394.848	-1.71
395.058	248.15
395.267	108.88
395.477	131.41
395.686	137.56
395.895	450.89
396.105	325.97
396.314	117.08
396.524	119.12
396.733	188.75
396.942	383.31
397.152	61.78
397.361	221.52
397.57	256.34
397.78	151.89
397.989	108.88
398.198	342.35
398.407	184.66
398.617	141.65
398.826	76.12
399.035	-5.8
399.244	266.58
399.453	235.86
399.663	2.39
399.872	-22.19
400.081	137.56
400.29	438.61
400.499	16.73
400.708	219.47
400.917	217.43
401.127	74.07
401.336	137.56
401.545	381.26
401.754	309.58
401.963	340.3
402.172	12.63
402.381	112.98
402.59	237.91
402.799	246.1
403.008	194.9
403.217	190.8
403.426	307.54
403.635	41.3
403.844	4.44
404.053	-9.9
404.262	192.85
404.471	414.03
404.68	121.17
404.888	137.56
405.097	211.28
405.306	225.62
405.515	162.13
405.724	18.77
405.933	293.2
406.142	223.57
406.35	112.98
406.559	119.12
406.768	278.87
406.977	504.14
407.185	61.78
407.394	149.84
407.603	143.7
407.812	209.23
408.02	276.82
408.229	69.97
408.438	348.5
408.646	41.3
408.855	94.55
409.064	39.25
409.272	192.85
409.481	315.73
409.69	78.16
409.898	2.39
410.107	248.15
410.315	313.68
410.524	149.84
410.733	72.02
410.941	301.39
411.15	399.7
411.358	174.42
411.567	338.26
411.775	293.2
411.984	287.06
412.192	260.43
412.401	55.64
412.609	506.19
412.818	373.07
413.026	198.99
413.234	149.84
413.443	393.55
413.651	145.75
413.86	-3.75
414.068	354.64
414.276	637.26
414.485	209.23
414.693	170.32
414.901	430.41
415.11	371.02
415.318	239.95
415.526	190.8
415.734	362.83
415.943	237.91
416.151	534.86
416.359	90.45
416.567	330.06
416.776	450.89
416.984	401.74
417.192	377.17
417.4	162.13
417.608	256.34
417.817	270.67
418.025	395.6
418.233	323.92
418.441	264.53
418.649	229.71
418.857	325.97
419.065	328.02
419.273	348.5
419.481	442.7
419.689	270.67
419.897	256.34
420.105	315.73
420.313	500.05
420.521	391.5
420.729	348.5
420.937	399.7
421.145	287.06
421.353	399.7
421.561	510.29
421.769	520.53
421.977	330.06
422.185	463.18
422.393	471.37
422.601	670.03
422.809	549.2
423.017	465.23
423.224	452.94
423.432	727.37
423.64	639.31
423.848	504.14
424.056	450.89
424.263	831.82
424.471	647.5
424.679	700.75
424.887	596.3
425.094	887.11
425.302	819.53
425.51	604.49
425.718	641.36
425.925	840.01
426.133	667.98
426.341	854.34
426.548	784.71
426.756	905.54
426.964	1030.47
427.171	823.62
427.379	848.2
427.586	1063.24
427.794	1042.76
428.001	1030.47
428.209	1040.71
428.417	1247.55
428.624	1186.12
428.832	1073.48
429.039	1100.1
429.247	1190.21
429.454	1306.95
429.662	1380.67
429.869	1247.55
430.076	1429.82
430.284	1550.65
430.491	1374.53
430.699	1423.68
430.906	1696.06
431.114	1638.72
431.321	1636.67
431.528	1524.03
431.736	1820.99
431.943	1892.66
432.15	1737.02
432.358	1644.86
432.565	2148.66
432.772	1800.51
432.979	2038.07
433.187	1915.19
433.394	2361.65
433.601	2208.05
433.808	2298.16
434.016	2306.35
434.223	2318.64
434.43	2511.15
434.637	2445.62
434.844	2634.03
435.052	2808.11
435.259	2824.49
435.466	2785.58
435.673	2707.76
435.88	3105.06
436.087	3428.64
436.294	3326.24
436.501	3080.49
436.708	3389.73
436.915	3363.11
437.122	3633.44
437.329	3307.81
437.537	3559.71
437.743	3830.04
437.95	3864.86
438.157	3875.1
438.364	4034.84
438.571	4247.83
438.778	4092.18
438.985	4552.98
439.192	4526.35
439.399	4526.35
439.606	4505.87
439.813	4913.42
440.02	5333.25
440.227	5433.6
440.433	5054.73
440.64	5161.22
440.847	5144.84
441.054	5456.13
441.261	5611.78
441.467	5546.24
441.674	5792
441.881	6125.82
442.088	5988.6
442.294	6152.44
442.501	6375.67
442.708	6658.29
442.914	6596.85
443.121	6772.97
443.328	6668.53
443.534	7540.96
443.741	6996.2
443.948	6877.42
444.154	7807.2
444.361	7942.36
444.568	7600.35
444.774	7760.09
444.981	7745.76
445.187	8403.16
445.394	8425.68
445.6	8331.48
445.807	9306.31
446.013	8935.63
446.22	8855.76
446.426	9394.37
446.633	9746.62
446.839	10404.02
447.046	9554.12
447.252	10457.27
447.459	10485.94
447.665	10459.32
447.871	11008.17
448.078	11755.68
448.284	11292.84
448.491	11788.45
448.697	12222.62
448.903	12630.16
449.11	12689.56
449.316	12599.45
449.522	13072.53
449.728	13650.05
449.935	13789.31
450.141	14131.33
450.347	14491.77
450.553	14137.47
450.76	14862.45
450.966	15401.07
451.172	15255.66
451.378	16193.63
451.584	16111.71
451.791	16957.52
451.997	17098.83
452.203	17274.96
452.409	18106.43
452.615	18270.27
452.821	17580.11
453.027	17688.65
453.233	19255.34
453.44	18810.93
453.646	19437.61
453.852	19675.18
454.058	20232.22
454.264	20344.86
454.47	21225.49
454.676	20889.62
454.882	22347.78
455.088	20881.43
455.294	21280.78
455.5	22358.02
455.705	22824.95
455.911	22482.94
456.117	22132.74
456.323	22845.43
456.529	22224.9
456.735	23429.1
456.941	22913.02
457.147	22996.98
457.352	23283.7
457.558	23238.64
457.764	23457.78
457.97	23177.2
458.176	23666.67
458.381	24117.22
458.587	23330.8
458.793	23613.42
458.999	22484.99
459.204	24713.18
459.41	24350.69
459.616	23162.87
459.821	23898.09
460.027	23519.21
460.233	23451.63
460.438	22720.51
460.644	23189.49
460.85	22552.57
461.055	22392.83
461.261	22599.68
461.466	20949.01
461.672	20428.83
461.878	21717
462.083	20770.84
462.289	20465.69
462.494	20303.9
462.7	19687.46
462.905	19146.8
463.111	20506.65
463.316	20328.48
463.522	19709.99
463.727	19349.55
463.932	19859.49
464.138	19816.49
464.343	19947.56
464.549	19001.4
464.754	19961.89
464.959	19574.83
465.165	19546.16
465.37	18518.07
465.575	18444.35
465.781	19185.71
465.986	19179.57
466.191	18460.73
466.397	18450.49
466.602	17533
466.807	17789
467.012	17924.16
467.218	18237.5
467.423	17772.61
467.628	17842.25
467.833	18634.81
468.038	18245.69
468.244	17543.24
468.449	18403.39
468.654	17915.97
468.859	17838.15
469.064	17942.6
469.269	17215.57
469.474	17629.26
469.679	18307.13
469.885	17776.71
470.09	17858.63
470.295	17952.84
470.5	17668.17
470.705	18073.67
470.91	17504.33
471.115	17705.03
471.32	18354.24
471.525	18378.81
471.73	17739.85
471.935	17840.2
472.139	17469.51
472.344	17905.73
472.549	17842.25
472.754	17774.66
472.959	17807.43
473.164	17584.2
473.369	17721.41
473.574	18321.47
473.778	18624.57
473.983	18800.69
474.188	18249.79
474.393	17807.43
474.598	17973.32
474.802	17979.46
475.007	18051.14
475.212	18141.25
475.417	17629.26
475.621	17821.77
475.826	17836.1
476.031	17836.1
476.235	17815.62
476.44	18077.76
476.645	17789
476.849	17911.88
477.054	17860.68
477.259	17686.6
477.463	17887.3
477.668	17594.44
477.872	18206.78
478.077	17672.26
478.282	17027.15
478.486	17313.87
478.691	17578.06
478.895	17111.12
479.1	17279.05
479.304	17424.46
479.509	17113.17
479.713	17645.64
479.918	17086.54
480.122	16916.56
480.326	17393.74
480.531	17307.73
480.735	16941.14
480.94	16793.69
481.144	17807.43
481.348	16932.95
481.553	17102.93
481.757	16820.31
481.961	17494.09
482.166	17371.21
482.37	17135.7
482.574	16891.99
482.778	17031.25
482.983	17653.83
483.187	17166.42
483.391	17449.04
483.595	17352.78
483.8	17139.79
484.004	17621.06
484.208	17901.64
484.412	17514.57
484.616	17649.74
484.821	17795.14
485.025	17336.4
485.229	18036.8
485.433	18059.33
485.637	17809.48
485.841	17725.51
486.045	18133.06
486.249	18495.55
486.453	17903.68
486.657	18366.53
486.861	18223.17
487.065	17936.45
487.269	18120.77
487.473	17707.08
487.677	18733.11
487.881	19132.47
488.085	18655.29
488.289	18708.54
488.493	18636.86
488.697	19355.69
488.901	19206.19
489.105	18714.68
489.309	19200.05
489.512	19673.13
489.716	19132.47
489.92	19238.96
490.124	19836.97
490.328	20062.24
490.531	19525.68
490.735	19540.01
490.939	19728.42
491.143	19707.94
491.346	19572.78
491.55	19791.91
491.754	20535.32
491.958	20285.47
492.161	20084.77
492.365	20375.58
492.569	20484.12
492.772	20361.25
492.976	20740.12
493.18	20594.72
493.383	20881.43
493.587	20951.06
493.79	21053.46
493.994	20635.67
494.197	21016.6
494.401	20967.45
494.605	20998.16
494.808	21043.22
495.012	21229.59
495.215	21481.49
495.419	21448.72
495.622	21235.73
495.825	21721.1
496.029	21467.15
496.232	21768.2
496.436	21540.88
496.639	22130.69
496.843	21667.85
497.046	21737.48
497.249	21897.22
497.453	22059.01
497.656	22063.11
497.859	21882.89
498.063	22237.19
498.266	22857.72
498.469	22132.74
498.673	22292.48
498.876	22765.56
499.079	22665.21
499.282	22489.09
499.485	22718.46
499.689	22892.54
499.892	23083
500.095	22888.44
500.298	23674.86
500.501	22978.55
500.705	23640.04
500.908	23482.35
501.111	23687.15
501.314	23515.12
501.517	23457.78
501.72	23896.04
501.923	23492.59
502.126	24293.35
502.329	24756.19
502.532	24190.95
502.735	24090.6
502.938	24377.31
503.141	24686.56
503.344	24770.52
503.547	24653.79
503.75	24604.64
503.953	25194.45
504.156	25337.81
504.359	25071.57
504.562	24952.79
504.765	25683.92
504.968	25624.53
505.17	25692.11
505.373	25507.79
505.576	25941.96
505.779	25898.95
505.982	25860.04
506.185	26200.01
506.387	26380.23
506.59	26705.85
506.793	26656.7
506.996	26384.32
507.198	27662.26
507.401	27183.03
507.604	27086.78
507.807	27369.4
508.009	27602.86
508.212	27826.09
508.415	27668.4
508.617	27858.86
508.82	28096.42
509.022	27412.4
509.225	28133.29
509.428	28360.61
509.63	28587.94
509.833	28313.51
510.035	29290.39
510.238	28827.55
510.44	29405.08
510.643	29607.83
510.845	29740.94
511.048	29120.41
511.25	29593.49
511.453	30209.93
511.655	30558.08
511.858	30138.25
512.06	30396.29
512.262	30437.25
512.465	30287.75
512.667	30777.22
512.87	31022.97
513.072	31205.24
513.274	31547.25
513.477	31223.67
513.679	31813.49
513.881	32386.92
514.084	32552.8
514.286	32327.53
514.488	32571.24
514.69	33138.52
514.893	32802.66
515.095	33306.46
515.297	33382.23
515.499	33595.22
515.701	33584.98
515.904	33836.88
516.106	34502.47
516.308	34654.02
516.51	34871.11
516.712	34568.01
516.914	35264.32
517.116	35311.42
517.318	35725.11
517.52	36101.93
517.722	35702.58
517.925	36067.12
518.127	36538.15
518.329	36757.28
518.531	36511.53
518.733	37375.77
518.935	37371.68
519.136	37340.96
519.338	37998.35
519.54	37932.82
519.742	38383.37
519.944	38348.56
520.146	39210.75
520.348	39470.84
520.55	39763.7
520.752	39171.84
520.954	40181.49
521.155	39966.45
521.357	40451.82
521.559	40552.17
521.761	41547.48
521.963	41105.12
522.164	40906.47
522.366	41279.2
522.568	41826.01
522.77	42178.26
522.971	42614.48
523.173	42047.19
523.375	42843.85
523.576	42585.8
523.778	42532.56
523.98	43192
524.181	43830.97
524.383	43534.01
524.584	44115.64
524.786	44263.09
524.988	43804.34
525.189	44623.53
525.391	44955.3
525.592	44641.96
525.794	45362.85
525.995	45002.41
526.197	45340.32
526.398	45203.11
526.6	45919.9
526.801	45907.61
527.003	45528.73
527.204	45760.16
527.406	46665.36
527.607	46159.51
527.808	46612.11
528.01	46036.63
528.211	46507.66
528.412	47208.07
528.614	47242.88
528.815	47101.57
529.016	47691.39
529.218	47042.18
529.419	47249.03
529.62	47337.09
529.822	47586.94
530.023	47974.01
530.224	47433.35
530.425	47578.75
530.626	47824.51
530.828	47115.91
531.029	48307.83
531.23	47564.42
531.431	47701.63
531.632	48430.71
531.833	48129.65
532.035	48590.45
532.236	48283.25
532.437	48588.4
532.638	48131.7
532.839	48828.01
533.04	49180.26
533.241	48410.23
533.442	49030.76
533.643	48703.09
533.844	48840.3
534.045	48623.22
534.246	47918.71
534.447	49022.57
534.648	48514.67
534.849	49026.67
535.05	48709.23
535.251	49170.02
535.451	48723.57
535.652	49233.51
535.853	48672.37
536.054	49118.82
536.255	49163.88
536.456	48531.06
536.657	49294.95
536.857	49114.73
537.058	49028.71
537.259	49423.97
537.46	49544.8
537.66	48862.83
537.861	49110.63
538.062	49118.82
538.263	49217.13
538.463	48799.34
538.664	49002.09
538.865	49251.94
539.065	49354.34
539.266	48989.8
539.466	49589.86
539.667	48873.07
539.868	49987.16
540.068	49348.2
540.269	49380.96
540.469	50079.32
540.67	49178.21
540.87	49473.12
541.071	49393.25
541.271	49659.49
541.472	49258.09
541.672	49641.06
541.873	49340
542.073	48768.62
542.274	49968.73
542.474	49045.1
542.675	49127.02
542.875	49473.12
543.075	49245.8
543.276	49045.1
543.476	49839.71
543.676	49469.03
543.877	49573.47
544.077	49503.84
544.277	49626.72
544.478	49765.98
544.678	49718.88
544.878	49495.65
545.078	49481.31
545.279	50011.74
545.479	48989.8
545.679	49544.8
545.879	50032.22
546.079	49514.08
546.28	49243.75
546.48	49286.76
546.68	50021.98
546.88	49802.85
547.08	49184.36
547.28	49649.25
547.48	49229.41
547.68	49976.92
547.88	49516.13
548.081	50466.39
548.281	49532.51
548.481	49761.89
548.681	49880.67
548.881	49698.4
549.081	50173.53
549.28	50218.58
549.48	49907.29
549.68	49911.39
549.88	50550.35
550.08	49450.59
550.28	50263.64
550.48	49677.92
550.68	50126.42
550.88	49948.25
551.08	50044.51
551.279	50153.05
551.479	49782.37
551.679	50226.77
551.879	49536.61
552.079	50499.15
552.278	50165.34
552.478	50425.43
552.678	50536.02
552.878	50531.92
553.077	50085.47
553.277	49731.17
553.477	50890.32
553.676	50196.06
553.876	50417.24
554.076	49768.03
554.275	49858.14
554.475	49780.32
554.674	50523.73
554.874	50165.34
555.074	49706.59
555.273	50581.07
555.473	50572.88
555.672	50171.48
555.872	50105.94
556.071	49831.52
556.271	50226.77
556.47	49919.58
556.67	49725.02
556.869	49901.15
557.068	50040.41
557.268	49499.75
557.467	50050.65
557.667	49970.78
557.866	50062.94
558.065	50038.36
558.265	49481.31
558.464	48807.53
558.663	50351.7
558.863	49059.43
559.062	49960.54
559.261	49378.92
559.461	49821.28
559.66	48752.24
559.859	49309.28
560.058	48932.46
560.258	49028.71
560.457	48778.86
560.656	49464.93
560.855	48569.97
561.054	49184.36
561.253	49012.33
561.453	49112.68
561.652	48840.3
561.851	48914.03
562.05	48610.93
562.249	48375.41
562.448	48787.05
562.647	48236.15
562.846	48187
563.045	48168.57
563.244	47799.93
563.443	48776.81
563.642	47922.81
563.841	47887.99
564.04	47574.66
564.239	48387.7
564.438	48029.3
564.637	47218.31
564.836	47718.01
565.035	47044.23
565.234	47701.63
565.432	47099.53
565.631	46585.49
565.83	46954.12
566.029	46722.7
566.228	47181.45
566.427	46696.08
566.625	46423.7
566.824	46481.04
567.023	46712.46
567.222	45868.7
567.42	46636.69
567.619	46577.29
567.818	45975.19
568.016	46022.3
568.215	46311.06
568.414	46012.06
568.612	46106.26
568.811	45260.45
569.01	45936.28
569.208	45143.72
569.407	45407.9
569.605	45203.11
569.804	45467.3
570.002	44820.14
570.201	45012.65
570.4	44580.53
570.598	44488.37
570.797	44435.12
570.995	44428.98
571.193	44035.77
571.392	44355.25
571.59	43888.31
571.789	44160.69
571.987	43876.02
572.186	44052.15
572.384	43781.82
572.582	43681.47
572.781	43900.6
572.979	42985.16
573.177	43685.56
573.376	43462.33
573.574	42954.44
573.772	43196.1
573.971	42999.49
574.169	42514.12
574.367	42071.76
574.565	42790.6
574.763	42395.34
574.962	42585.8
575.16	42303.18
575.358	42442.45
575.556	41967.32
575.754	42387.15
575.952	41780.95
576.151	41938.65
576.349	41488.09
576.547	41455.32
576.745	41776.86
576.943	41373.41
577.141	41512.67
577.339	41291.49
577.537	41115.36
577.735	41563.87
577.933	41178.85
578.131	41397.98
578.329	41017.06
578.527	40584.94
578.725	41236.19
578.923	41107.17
579.121	40910.57
579.319	40582.89
579.516	40566.51
579.714	40392.43
579.912	40283.89
580.11	40414.96
580.308	40384.24
580.506	39915.25
580.704	40236.78
580.901	40314.61
581.099	40566.51
581.297	40255.22
581.495	39683.83
581.692	40222.45
581.89	39628.54
582.088	40068.85
582.285	39575.29
582.483	39972.6
582.681	39413.5
582.878	39735.03
583.076	39331.58
583.274	39900.92
583.471	39341.82
583.669	39411.45
583.866	38967.04
584.064	39280.38
584.262	38579.98
584.459	39300.86
584.657	38840.07
584.854	39378.68
585.052	38162.19
585.249	39151.36
585.447	38891.27
585.644	38514.44
585.841	38846.21
586.039	38930.18
586.236	38643.46
586.434	38366.99
586.631	38412.04
586.828	38471.43
587.026	38569.74
587.223	38311.69
587.42	38346.51
587.618	38203.15
587.815	38295.31
588.012	38289.17
588.21	38215.44
588.407	38090.51
588.604	38010.64
588.801	37531.42
588.999	38086.42
589.196	37857.04
589.393	37857.04
589.59	37748.5
589.787	37629.72
589.984	37650.2
590.182	37779.22
590.379	38194.96
590.576	37572.38
590.773	37717.78
590.97	37680.92
591.167	38016.79
591.364	37555.99
591.561	37461.79
591.758	37377.82
591.955	37670.68
592.152	37717.78
592.349	37066.53
592.546	37281.56
592.743	37406.49
592.94	37076.77
593.137	37314.33
593.334	37277.47
593.531	36841.25
593.727	37318.43
593.924	37068.58
594.121	37181.21
594.318	37365.53
594.515	36609.83
594.712	37238.56
594.908	36923.17
595.105	37058.34
595.302	36599.59
595.499	37031.71
595.696	36923.17
595.892	37166.88
596.089	37211.93
596.286	36978.47
596.482	36704.04
596.679	37130.01
596.876	36747.04
597.072	36667.17
597.269	36675.37
597.466	36491.05
597.662	36845.35
597.859	36624.17
598.055	36935.46
598.252	36740.9
598.448	36673.32
598.645	36529.96
598.841	36671.27
599.038	36964.13
599.234	36728.61
599.431	36325.16
599.627	36529.96
599.824	37046.05
600.02	36435.75
600.217	36523.82
600.413	36294.44
600.609	36519.72
600.806	36785.96
601.002	36894.5
601.198	36618.02
601.395	36316.97
601.591	36503.34
601.787	36097.84
601.984	35995.44
602.18	36906.79
602.376	36464.42
602.572	36388.65
602.769	36671.27
602.965	35788.6
603.161	36466.47
603.357	36507.43
603.553	36179.76
603.75	36615.97
603.946	36101.93
604.142	36312.88
604.338	36218.67
604.534	36458.28
604.73	35970.86
604.926	35827.51
605.122	36699.94
605.318	36079.41
605.514	36114.22
605.71	36441.9
605.906	35931.95
606.102	35843.89
606.298	36579.11
606.494	36216.62
606.69	36435.75
606.886	36292.4
607.082	35983.15
607.278	36450.09
607.474	35632.95
607.67	36302.64
607.866	35770.16
608.062	36695.85
608.257	36544.3
608.453	36140.85
608.649	36693.8
608.845	35944.24
609.041	36355.88
609.236	36663.08
609.432	36292.4
609.628	36329.26
609.824	36003.63
610.019	36192.05
610.215	36560.68
610.411	36581.16
610.606	36255.53
610.802	36333.35
610.998	36493.1
611.193	36476.71
611.389	36489
611.584	36605.73
611.78	36542.25
611.976	36501.29
612.171	36642.6
612.367	36532.01
612.562	36585.26
612.758	36259.63
612.953	36134.7
613.149	36701.99
613.344	36615.97
613.539	36730.66
613.735	37007.14
613.93	37111.58
614.126	36712.23
614.321	37056.29
614.517	37310.24
614.712	36812.58
614.907	36728.61
615.103	37244.7
615.298	36751.14
615.493	37058.34
615.688	36810.53
615.884	37375.77
616.079	36591.4
616.274	37506.84
616.47	36957.99
616.665	36968.23
616.86	36839.2
617.055	37383.96
617.25	36914.98
617.445	37433.11
617.641	36927.27
617.836	37308.19
618.031	36871.97
618.226	36919.07
618.421	37326.62
618.616	37459.74
618.811	36777.76
619.006	37420.83
619.201	36515.62
619.396	37445.4
619.591	36462.38
619.786	36921.12
619.981	36734.76
620.176	37031.71
620.371	36300.59
620.566	36704.04
620.761	36503.34
620.956	36722.47
621.151	36331.31
621.346	36304.68
621.541	35987.25
621.735	36753.19
621.93	35940.14
622.125	35999.54
622.32	35639.09
622.515	35927.86
622.709	36253.48
622.904	35821.36
623.099	35743.54
623.294	35872.56
623.488	35419.96
623.683	35438.39
623.878	35286.84
624.072	35462.97
624.267	35266.36
624.462	35159.87
624.656	35127.1
624.851	35440.44
625.046	35071.81
625.24	34844.48
625.435	34783.04
625.629	34834.24
625.824	34965.31
626.018	34576.2
626.213	33916.75
626.407	34629.44
626.602	34385.74
626.796	34303.82
626.991	34484.04
627.185	34090.83
627.38	34164.56
627.574	33986.38
627.768	33757.01
627.963	34043.73
628.157	33789.78
628.352	33861.46
628.546	33017.69
628.74	33847.12
628.935	33361.75
629.129	33365.85
629.323	33066.84
629.517	33036.13
629.712	33062.75
629.906	33027.93
630.1	32874.34
630.294	33040.22
630.489	32786.27
630.683	32868.19
630.877	32540.52
631.071	32825.18
631.265	32685.92
631.459	32360.3
631.653	32419.69
631.848	32452.45
632.042	32100.2
632.236	32395.11
632.43	31821.68
632.624	31809.39
632.818	32022.38
633.012	31825.78
633.206	31379.32
633.4	32014.19
633.594	31371.13
633.788	31197.05
633.982	31534.96
634.176	31508.34
634.369	31195
634.563	31119.23
634.757	30818.18
634.951	31139.71
635.145	31098.75
635.339	30883.71
635.533	30484.36
635.726	30668.67
635.92	30009.23
636.114	30246.79
636.308	30013.32
636.501	30310.28
636.695	29943.69
636.889	29642.64
637.083	29407.12
637.276	29613.97
637.47	29228.95
637.664	29220.76
637.857	29161.37
638.051	29243.29
638.244	28972.96
638.438	29124.5
638.632	28391.33
638.825	28387.24
639.019	28927.9
639.212	27946.92
639.406	28032.94
639.599	27908.01
639.793	27905.96
639.986	27482.03
640.18	27500.47
640.373	27543.47
640.567	27324.34
640.76	27269.05
640.954	26730.43
641.147	26693.57
641.34	26632.13
641.534	26732.48
641.727	26494.91
641.92	26345.41
642.114	26220.49
642.307	25866.19
642.5	26081.22
642.694	25542.61
642.887	25950.15
643.08	26064.84
643.273	25563.09
643.467	25282.52
643.66	24977.37
643.853	24809.43
644.046	24817.63
644.239	25098.2
644.432	24631.26
644.626	24461.28
644.819	24123.37
645.012	24260.58
645.205	24494.05
645.398	24221.67
645.591	23732.2
645.784	23789.55
645.977	23250.93
646.17	23525.36
646.363	23222.26
646.556	23052.28
646.749	23216.12
646.942	23427.06
647.135	22872.06
647.328	22978.55
647.521	22892.54
647.714	22581.24
647.907	22370.3
648.099	22073.35
648.292	22575.1
648.485	22521.85
648.678	21780.49
648.871	21995.53
649.064	21973
649.256	21731.34
649.449	21606.41
649.642	21868.55
649.835	21710.86
650.027	21303.31
650.22	21372.94
650.413	21235.73
650.605	21137.43
650.798	21078.04
650.991	20473.88
651.183	21067.8
651.376	20795.42
651.568	20582.43
651.761	20658.2
651.954	20746.26
652.146	20484.12
652.339	20529.18
652.531	20410.4
652.724	20039.72
652.916	19929.13
653.109	19935.27
653.301	20291.62
653.494	20189.22
653.686	19941.41
653.879	20025.38
654.071	19646.51
654.263	19574.83
654.456	19554.35
654.648	19925.03
654.84	19525.68
655.033	19544.11
655.225	19513.39
655.417	19109.94
655.61	19609.64
655.802	19343.41
655.994	19316.78
656.186	18911.28
656.379	19005.49
656.571	18786.36
656.763	18599.99
656.955	18755.64
657.148	18688.06
657.34	18583.61
657.532	18675.77
657.724	18327.61
657.916	18507.83
658.108	18778.17
658.3	18497.6
658.492	18182.21
658.684	17750.09
658.876	18456.64
659.068	17899.59
659.26	17711.18
659.452	17930.31
659.644	17903.68
659.836	17643.59
660.028	17645.64
660.22	17234
660.412	17489.99
660.604	17338.44
660.796	17408.08
660.988	16934.99
661.18	17100.88
661.372	17049.68
661.563	16916.56
661.755	16498.78
661.947	16879.7
662.139	16629.85
662.331	16627.8
662.522	16398.43
662.714	16539.74
662.906	16375.9
663.097	16257.12
663.289	16277.6
663.481	16203.87
663.673	16193.63
663.864	15755.36
664.056	15687.78
664.247	15743.08
664.439	15741.03
664.631	15753.32
664.822	15503.46
665.014	15786.08
665.205	15439.98
665.397	15308.91
665.588	15284.33
665.78	15284.33
665.971	15261.8
666.163	14905.46
666.354	14835.83
666.546	15020.14
666.737	14862.45
666.929	14786.68
667.12	14932.08
667.311	14854.26
667.503	14594.17
667.694	14733.43
667.885	14407.8
668.077	14731.38
668.268	14327.93
668.459	14461.05
668.651	14174.33
668.842	14307.45
669.033	14018.69
669.224	14094.46
669.416	14135.42
669.607	14129.28
669.798	13832.32
669.989	13717.64
670.18	13701.25
670.371	13932.67
670.563	13578.37
670.754	13688.96
670.945	13639.81
671.136	13815.94
671.327	13637.77
671.518	13404.3
671.709	13342.86
671.9	13623.43
672.091	13578.37
672.282	13492.36
672.473	13119.63
672.664	13201.55
672.855	13068.43
673.046	12972.18
673.237	13164.68
673.428	13164.68
673.619	13338.76
673.809	12894.35
674	12714.13
674.191	13209.74
674.382	12843.15
674.573	12744.85
674.764	12738.71
674.954	12810.39
675.145	12619.92
675.336	12505.24
675.527	12748.95
675.717	12458.14
675.908	12349.59
676.099	12413.08
676.289	12499.09
676.48	12189.85
676.671	12476.57
676.861	12458.14
677.052	12105.88
677.243	12404.89
677.433	12243.1
677.624	12400.79
677.814	12034.21
678.005	12365.98
678.195	12341.4
678.386	12046.49
678.576	11819.17
678.767	11860.13
678.957	12075.17
679.148	11929.76
679.338	12120.22
679.529	12177.56
679.719	11892.9
679.909	12015.77
680.1	11800.74
680.29	11862.18
680.481	11735.2
680.671	11692.19
680.861	11700.39
681.052	11987.1
681.242	11808.93
681.432	12050.59
681.622	11591.84
681.813	11526.31
682.003	11757.73
682.193	11690.15
682.383	11815.07
682.573	11753.63
682.764	11522.21
682.954	11698.34
683.144	11810.98
683.334	11464.87
683.524	11618.47
683.714	11704.48
683.904	11675.81
684.094	11720.87
684.284	11495.59
684.474	11706.53
684.664	11536.55
684.854	11532.45
685.044	11632.8
685.234	11643.04
685.424	11554.98
685.614	11260.07
685.804	11446.44
685.994	11452.58
686.184	11434.15
686.374	11497.64
686.564	11421.86
686.753	11479.21
686.943	11235.5
687.133	11440.29
687.323	11516.07
687.513	11530.41
687.702	11634.85
687.892	11477.16
688.082	11432.1
688.272	11452.58
688.461	11385
688.651	11860.13
688.841	11565.22
689.03	11462.82
689.22	11454.63
689.41	11520.17
689.599	11395.24
689.789	11473.06
689.979	11679.91
690.168	11452.58
690.358	11483.3
690.547	11595.94
690.737	11505.83
690.926	11856.03
691.116	11557.03
691.305	11866.27
691.495	11419.82
691.684	11614.37
691.874	11657.38
692.063	11802.79
692.252	11829.41
692.442	12230.81
692.631	11827.36
692.82	11737.25
693.01	11970.72
693.199	12161.18
693.388	12144.8
693.578	11946.14
693.767	12320.92
693.956	12279.96
694.146	12318.87
694.335	12234.91
694.524	12222.62
694.713	12750.99
694.902	12456.09
695.092	12437.66
695.281	12370.07
695.47	12644.5
695.659	12388.5
695.848	12462.23
696.037	12750.99
696.226	12949.65
696.415	12943.5
696.604	13029.52
696.793	12728.47
696.982	12947.6
697.171	13244.56
697.36	12968.08
697.549	12685.46
697.738	12769.43
697.927	13088.91
698.116	13172.88
698.305	13133.96
698.494	13254.8
698.683	13066.38
698.872	13271.18
699.061	12996.75
699.25	13475.98
699.438	13267.08
699.627	13308.04
699.816	13650.05
700.005	13240.46
700.193	13465.74
700.382	13848.71
700.571	13668.48
700.76	13572.23
700.948	13705.35
701.137	13422.73
701.326	13770.88
701.514	13768.84
701.703	13774.98
701.892	13584.52
702.08	13768.84
702.269	14024.83
702.457	13664.39
702.646	13875.33
702.834	13586.57
703.023	13973.63
703.212	14037.12
703.4	13568.13
703.589	13430.92
703.777	14004.35
703.965	13858.95
704.154	13908.1
704.342	13791.36
704.531	14088.32
704.719	13621.38
704.907	13940.86
705.096	13781.12
705.284	13987.97
705.472	13883.52
705.661	13648.01
705.849	13893.76
706.037	14131.33
706.226	13938.82
706.414	13891.71
706.602	13846.66
706.79	14092.41
706.979	13883.52
707.167	13979.78
707.355	13883.52
707.543	13928.58
707.731	13996.16
707.919	13605
708.107	13637.77
708.296	13813.89
708.484	13627.53
708.672	13750.4
708.86	13879.43
709.048	13764.74
709.236	13566.09
709.424	13731.97
709.612	13881.47
709.8	13586.57
709.988	13631.62
710.176	13809.79
710.364	13631.62
710.551	13961.34
710.739	13736.07
710.927	13502.6
711.115	13684.87
711.303	13817.99
711.491	13783.17
711.679	13463.69
711.866	13310.09
712.054	13688.96
712.242	13435.02
712.43	13691.01
712.617	13478.02
712.805	13408.39
712.993	13244.56
713.181	13305.99
713.368	13420.68
713.556	13508.74
713.744	13070.48
713.931	13430.92
714.119	13168.78
714.306	13242.51
714.494	13142.16
714.682	13011.09
714.869	12652.69
715.057	13463.69
715.244	12820.63
715.432	13060.24
715.619	12697.75
715.807	13045.9
715.994	13140.11
716.182	12601.49
716.369	12947.6
716.556	12923.02
716.744	12705.94
716.931	12648.6
717.119	12707.99
717.306	12742.8
717.493	12728.47
717.681	12327.07
717.868	12509.33
718.055	12611.73
718.242	12705.94
718.43	12413.08
718.617	12478.61
718.804	12445.85
718.991	12376.22
719.179	12224.67
719.366	12062.88
719.553	12216.47
719.74	12196
719.927	12198.04
720.114	12077.21
720.301	12042.4
720.488	12087.45
720.676	11653.28
720.863	12032.16
721.05	12079.26
721.237	11792.55
721.424	11847.84
721.611	11729.06
721.798	11585.7
721.985	11559.08
722.172	11593.89
722.358	11546.79
722.545	11937.95
722.732	11913.38
722.919	11831.46
723.106	11571.36
723.293	11591.84
723.48	11600.04
723.667	11395.24
723.853	11438.25
724.04	11532.45
724.227	11483.3
724.414	11139.24
724.6	11165.87
724.787	11413.67
724.974	11358.38
725.161	11098.28
725.347	10909.87
725.534	11378.86
725.72	11042.99
725.907	11030.7
726.094	11008.17
726.28	11036.84
726.467	11155.63
726.653	10688.69
726.84	10862.77
727.027	11198.63
727.213	10549.43
727.4	10748.08
727.586	10690.74
727.773	10893.49
727.959	10866.86
728.145	10746.03
728.332	10326.2
728.518	10397.88
728.705	10901.68
728.891	10361.02
729.077	10346.68
729.264	10444.98
729.45	10375.35
729.636	10326.2
729.823	10145.98
730.009	10492.09
730.195	10565.81
730.382	10285.24
730.568	10221.75
730.754	10250.42
730.94	10113.21
731.126	10047.68
731.313	9842.88
731.499	10307.77
731.685	10035.39
731.871	10254.52
732.057	10090.68
732.243	10252.47
732.429	9842.88
732.615	9904.32
732.801	9844.93
732.987	9724.1
733.173	9793.73
733.359	9429.19
733.545	9605.31
733.731	9746.62
733.917	9867.45
734.103	9545.92
734.289	9439.43
734.475	9318.6
734.661	9801.92
734.847	9294.02
735.033	9566.4
735.219	9431.24
735.404	9375.94
735.59	9212.1
735.776	9140.43
735.962	9502.92
736.148	9453.77
736.333	9261.26
736.519	9064.65
736.705	9343.17
736.89	9238.73
737.076	9105.61
737.262	9005.26
737.447	9111.75
737.633	8927.44
737.819	8747.22
738.004	8679.63
738.19	9105.61
738.375	8949.96
738.561	8820.94
738.747	8632.53
738.932	8644.82
739.118	8747.22
739.303	8786.13
739.489	8610
739.674	8523.99
739.859	8411.35
740.045	8380.63
740.23	8327.38
740.416	8067.29
740.601	8448.21
740.786	8116.44
740.972	8233.18
741.157	8351.96
741.342	8098.01
741.528	7923.93
741.713	8222.94
741.898	8216.79
742.084	8181.98
742.269	8001.76
742.454	7958.75
742.639	8188.12
742.824	7907.55
743.01	7764.19
743.195	7844.06
743.38	7919.84
743.565	7971.04
743.75	7704.8
743.935	7620.83
744.12	7985.37
744.305	7500
744.49	7592.16
744.675	7444.71
744.86	7446.76
745.045	7606.5
745.23	7246.05
745.415	7276.77
745.6	7565.54
745.785	7250.15
745.97	7241.96
746.155	7141.61
746.34	7389.41
746.525	6981.87
746.71	7106.79
746.895	6869.23
747.079	6932.72
747.264	6914.28
747.449	6799.6
747.634	6945
747.819	7061.74
748.003	6709.49
748.188	6648.05
748.373	6582.51
748.557	6762.73
748.742	6602.99
748.927	6457.59
749.111	6463.73
749.296	6566.13
749.481	6717.68
749.665	6447.35
749.85	6254.84
750.034	6437.11
750.219	6394.1
750.404	6035.71
750.588	6240.5
750.773	6093.05
750.957	6144.25
751.141	5976.31
751.326	6168.82
751.51	5822.72
751.695	6050.04
751.879	5726.46
752.064	6131.96
752.248	5888.25
752.432	5939.45
752.617	5644.54
752.801	5732.61
752.985	5665.02
753.17	5736.7
753.354	5480.71
753.538	5572.86
753.722	5411.07
753.907	5492.99
754.091	5341.44
754.275	5329.16
754.459	5214.47
754.643	5247.24
754.828	5284.1
755.012	5208.33
755.196	5290.24
755.38	5105.93
755.564	5038.34
755.748	4958.47
755.932	5286.15
756.116	5019.91
756.3	4966.67
756.484	4743.44
756.668	5050.63
756.852	4759.82
757.036	4729.1
757.22	4686.09
757.404	4725.01
757.588	4782.35
757.772	4608.27
757.956	4690.19
758.14	4856.08
758.323	4555.02
758.507	4466.96
758.691	4434.19
758.875	4817.16
759.059	4667.66
759.242	4305.17
759.426	4305.17
759.61	4483.34
759.794	4284.69
759.977	4378.9
760.161	4399.38
760.345	4456.72
760.528	4378.9
760.712	3989.78
760.895	4067.61
761.079	4110.61
761.263	3971.35
761.446	3770.65
761.63	3897.63
761.813	3885.34
761.997	3774.75
762.18	3795.23
762.364	3903.77
762.547	3764.51
762.731	3655.97
762.914	3780.89
763.098	3565.85
763.281	3797.28
763.464	3666.21
763.648	3631.39
763.831	3645.73
764.015	3739.93
764.198	3977.5
764.381	3535.14
764.564	3569.95
764.748	3750.17
764.931	3715.36
765.114	3572
765.297	3615.01
765.481	3438.88
765.664	3643.68
765.847	3498.27
766.03	3430.69
766.213	3535.14
766.397	3635.49
766.58	3344.67
766.763	3612.96
766.946	3469.6
767.129	3561.76
767.312	3485.98
767.495	3510.56
767.678	3461.41
767.861	3592.48
768.044	3445.02
768.227	3430.69
768.41	3647.77
768.593	3422.5
768.776	3735.84
768.959	3416.35
769.142	3649.82
769.324	3350.82
769.507	3363.11
769.69	3340.58
769.873	3543.33
770.056	3715.36
770.239	3361.06
770.421	3418.4
770.604	3445.02
770.787	3223.84
770.97	3389.73
771.152	3129.64
771.335	3490.08
771.518	3154.21
771.7	3215.65
771.883	3250.47
772.066	3150.12
772.248	3363.11
772.431	3275.04
772.613	3170.6
772.796	3326.24
772.978	3242.28
773.161	3281.19
773.343	3070.25
773.526	3004.71
773.708	2918.7
773.891	2849.07
774.073	2869.55
774.256	3033.38
774.438	3252.52
774.621	2875.69
774.803	2933.03
774.985	2955.56
775.168	3068.2
775.35	2828.59
775.532	2945.32
775.715	2957.61
775.897	2947.37
776.079	2742.57
776.261	2763.05
776.444	2857.26
776.626	2763.05
776.808	2781.48
776.99	2500.91
777.173	2746.67
777.355	2646.32
777.537	2574.64
777.719	2588.97
777.901	2629.93
778.083	2517.29
778.265	2541.87
778.447	2529.58
778.629	2462
778.811	2578.73
778.993	2480.43
779.175	2449.71
779.357	2611.5
779.539	2224.44
779.721	2457.9
779.903	2412.85
780.085	2470.19
780.267	2347.31
780.449	2320.69
780.631	2484.53
780.812	2496.82
780.994	2253.11
781.176	2181.43
781.358	2156.85
781.54	2347.31
781.721	2296.11
781.903	2076.98
782.085	2070.84
782.267	2281.78
782.448	2013.49
782.63	2130.23
782.812	2068.79
782.993	2251.06
783.175	2343.22
783.357	1997.11
783.538	2011.45
783.72	2025.78
783.901	2011.45
784.083	1993.01
784.264	1982.78
784.446	1835.32
784.627	1802.55
784.809	1911.1
784.99	1780.03
785.172	1915.19
785.353	1933.62
785.535	1999.16
785.716	1661.24
785.897	1820.99
786.079	1798.46
786.26	1741.11
786.441	1741.11
786.623	1603.9
786.804	1640.76
786.985	1669.44
787.167	1730.87
787.348	1665.34
787.529	1745.21
787.71	1745.21
787.891	1665.34
788.073	1712.44
788.254	1530.17
788.435	1716.54
788.616	1567.04
788.797	1442.11
788.978	1663.29
789.159	1325.38
789.34	1671.48
789.522	1507.65
789.703	1448.26
789.884	1489.21
790.065	1657.15
790.246	1739.07
790.427	1567.04
790.607	1530.17
790.788	1470.78
790.969	1425.73
791.15	1478.97
791.331	1425.73
791.512	1315.14
791.693	1343.81
791.874	1476.93
792.054	1526.08
792.235	1366.34
792.416	1388.86
792.597	1245.51
792.778	1433.92
792.958	1358.14
793.139	1474.88
793.32	1302.85
793.5	1247.55
793.681	1333.57
793.862	1499.45
794.042	1341.76
794.223	1030.47
794.404	1053
794.584	1120.58
794.765	1165.64
794.945	1241.41
795.126	1306.95
795.306	1331.52
795.487	1220.93
795.667	1057.09
795.848	1108.29
796.028	1227.07
796.209	1243.46
796.389	1147.2
796.57	1040.71
796.75	1073.48
796.93	1087.81
797.111	997.7
797.291	1061.19
797.471	1341.76
797.652	1050.95
797.832	1063.24
798.012	1104.2
798.192	1141.06
798.373	991.56
798.553	1014.09
798.733	1085.76
798.913	1024.33
799.093	1079.62
799.274	1057.09
799.454	1018.18
799.634	1237.31
799.814	1188.16
799.994	1077.57
800.174	1044.81
800.354	1022.28
800.534	880.97
800.714	1036.61
800.894	874.82
801.074	815.43
801.254	928.07
801.434	1048.9
801.614	866.63
801.794	897.35
801.974	5220.61
802.154	921.93
802.334	954.69
802.514	940.36
802.693	913.74
802.873	907.59
803.053	1003.85
803.233	954.69
803.413	829.77
803.592	835.91
803.772	782.67
803.952	891.21
804.131	760.14
804.311	958.79
804.491	960.84
804.67	880.97
804.85	770.38
805.03	909.64
805.209	1063.24
805.389	911.69
805.568	790.86
805.748	848.2
805.928	708.94
806.107	971.08
806.287	872.78
806.466	864.58
806.646	821.58
806.825	897.35
807.004	772.43
807.184	805.19
807.363	829.77
807.543	885.06
807.722	735.56
807.901	864.58
808.081	745.8
808.26	561.48
808.439	782.67
808.619	698.7
808.798	604.49
808.977	831.82
809.156	919.88
809.336	794.95
809.515	766.28
809.694	629.07
809.873	655.69
810.052	698.7
810.231	844.1
810.411	825.67
810.59	872.78
810.769	684.36
810.948	680.27
811.127	428.37
811.306	579.92
811.485	581.96
811.664	819.53
811.843	737.61
812.022	784.71
812.201	508.24
812.38	508.24
812.559	592.2
812.737	713.03
812.916	506.19
813.095	555.34
813.274	719.18
813.453	645.45
813.632	616.78
813.811	692.55
813.989	422.22
814.168	725.32
814.347	479.57
814.526	579.92
814.704	823.62
814.883	819.53
815.062	330.06
815.24	549.2
815.419	434.51
815.598	684.36
815.776	315.73
815.955	473.42
816.133	399.7
816.312	608.59
816.49	514.38
816.669	545.1
816.847	551.24
817.026	633.16
817.204	528.72
817.383	401.74
817.561	504.14
817.74	600.4
817.918	448.85
818.097	586.06
818.275	500.05
818.453	594.25
818.632	543.05
818.81	518.48
818.988	506.19
819.167	438.61
819.345	528.72
819.523	495.95
819.701	635.21
819.879	717.13
820.058	479.57
820.236	450.89
820.414	571.72
820.592	444.75
820.77	481.61
820.948	377.17
821.127	446.8
821.305	594.25
821.483	307.54
821.661	477.52
821.839	606.54
822.017	530.77
822.195	373.07
822.373	352.59
822.551	541.01
822.729	553.29
822.907	391.5
823.085	444.75
823.262	590.16
823.44	422.22
823.618	495.95
823.796	358.74
823.974	495.95
824.152	463.18
824.329	444.75
824.507	489.81
824.685	596.3
824.863	454.99
825.04	258.39
825.218	399.7
825.396	563.53
825.574	471.37
825.751	479.57
825.929	403.79
826.107	375.12
826.284	491.85
826.462	381.26
826.639	291.15
826.817	401.74
826.994	481.61
827.172	213.33
827.349	479.57
827.527	528.72
827.704	426.32
827.882	538.96
828.059	391.5
828.237	303.44
828.414	571.72
828.591	172.37
828.769	405.84
828.946	334.16
829.124	563.53
829.301	399.7
829.478	268.63
829.655	479.57
829.833	436.56
830.01	143.7
830.187	399.7
830.364	405.84
830.542	414.03
830.719	364.88
830.896	416.08
831.073	495.95
831.25	452.94
831.427	348.5
831.604	352.59
831.782	358.74
831.959	342.35
832.136	328.02
832.313	397.65
832.49	364.88
832.667	436.56
832.844	258.39
833.021	452.94
833.198	403.79
833.374	493.9
833.551	323.92
833.728	258.39
833.905	385.36
834.082	219.47
834.259	401.74
834.436	440.65
834.612	258.39
834.789	430.41
834.966	278.87
835.143	387.41
835.319	233.81
835.496	442.7
835.673	317.78
835.85	377.17
836.026	534.86
836.203	487.76
836.38	209.23
836.556	235.86
836.733	272.72
836.909	500.05
837.086	176.47
837.262	96.6
837.439	389.46
837.616	270.67
837.792	366.93
837.968	344.4
838.145	123.22
838.321	348.5
838.498	233.81
838.674	403.79
838.851	399.7
839.027	325.97
839.203	315.73
839.38	348.5
839.556	330.06
839.732	483.66
839.909	160.08
840.085	233.81
840.261	248.15
840.437	266.58
840.614	162.13
840.79	295.25
840.966	389.46
841.142	321.87
841.318	233.81
841.494	217.43
841.671	520.53
841.847	227.67
842.023	203.09
842.199	280.91
842.375	559.44
842.551	117.08
842.727	160.08
842.903	311.63
843.079	76.12
843.255	467.28
843.431	270.67
843.607	325.97
843.783	45.4
843.959	414.03
844.134	164.18
844.31	399.7
844.486	278.87
844.662	141.65
844.838	242
845.013	244.05
845.189	473.42
845.365	336.21
845.541	237.91
845.716	252.24
845.892	450.89
846.068	227.67
846.244	145.75
846.419	125.27
846.595	166.23
846.77	172.37
846.946	254.29
847.122	192.85
847.297	282.96
847.473	553.29
847.648	98.64
847.824	203.09
847.999	119.12
848.175	268.63
848.35	285.01
848.526	463.18
848.701	463.18
848.876	432.46
849.052	297.3
849.227	250.19
849.403	219.47
849.578	258.39
849.753	262.48
849.929	209.23
850.104	131.41
850.279	342.35
850.454	235.86
850.63	227.67
850.805	278.87
850.98	323.92
851.155	164.18
851.33	252.24
851.505	133.46
851.681	463.18
851.856	219.47
852.031	201.04
852.206	270.67
852.381	168.27
852.556	166.23
852.731	102.74
852.906	381.26
853.081	313.68
853.256	297.3
853.431	182.61
853.606	178.51
853.781	145.75
853.956	-7.85
854.131	98.64
854.305	186.71
854.48	297.3
854.655	149.84
854.83	168.27
855.005	264.53
855.18	274.77
855.354	98.64
855.529	211.28
855.704	293.2
855.879	311.63
856.053	26.96
856.228	133.46
856.403	51.54
856.577	395.6
856.752	47.44
856.926	176.47
857.101	340.3
857.276	92.5
857.45	211.28
857.625	194.9
857.799	237.91
857.974	233.81
858.148	0.34
858.323	246.1
858.497	262.48
858.672	141.65
858.846	112.98
859.02	276.82
859.195	151.89
859.369	201.04
859.543	215.38
859.718	266.58
859.892	340.3
860.066	313.68
860.241	198.99
860.415	4.44
860.589	231.76
860.763	155.99
860.938	205.14
861.112	172.37
861.286	209.23
861.46	332.11
861.634	141.65
861.808	115.03
861.982	129.36
862.157	110.93
862.331	133.46
862.505	141.65
862.679	49.49
862.853	121.17
863.027	194.9
863.201	194.9
863.375	104.79
863.549	233.81
863.722	172.37
863.896	203.09
864.07	168.27
864.244	192.85
864.418	258.39
864.592	184.66
864.766	352.59
864.939	209.23
865.113	84.31
865.287	211.28
865.461	143.7
865.634	194.9
865.808	98.64
865.982	160.08
866.156	80.21
866.329	78.16
866.503	139.6
866.676	227.67
866.85	280.91
867.024	119.12
867.197	282.96
867.371	194.9
867.544	254.29
867.718	49.49
867.891	237.91
868.065	-57
868.238	225.62
868.412	274.77
868.585	168.27
868.759	139.6
868.932	139.6
869.105	24.92
869.279	231.76
869.452	80.21
869.625	397.65
869.799	110.93
869.972	20.82
870.145	119.12
870.319	450.89
870.492	160.08
870.665	53.59
870.838	61.78
871.011	-52.91
871.185	172.37
871.358	112.98
871.531	213.33
871.704	55.64
871.877	194.9
872.05	84.31
872.223	-83.63
872.396	346.45
872.569	280.91
872.742	14.68
872.915	139.6
873.088	151.89
873.261	57.68
873.434	237.91
873.607	4.44
873.78	411.98
873.953	53.59
874.126	123.22
874.299	149.84
874.471	155.99
874.644	221.52
874.817	235.86
874.99	235.86
875.163	192.85
875.335	151.89
875.508	90.45
875.681	153.94
875.853	117.08
876.026	215.38
876.199	242
876.371	119.12
876.544	170.32
876.717	190.8
876.889	151.89
877.062	178.51
877.234	6.49
877.407	53.59
877.579	86.36
877.752	90.45
877.924	287.06
878.097	211.28
878.269	12.63
878.442	213.33
878.614	350.54
878.786	188.75
878.959	65.88
879.131	115.03
879.303	-112.3
879.476	215.38
879.648	244.05
879.82	104.79
879.993	94.55
880.165	121.17
880.337	-20.14
880.509	88.4
880.681	-3.75
880.854	110.93
881.026	180.56
881.198	203.09
881.37	147.8
881.542	127.32
881.714	125.27
881.886	8.53
882.058	184.66
882.23	188.75
882.402	110.93
882.574	190.8
882.746	315.73
882.918	379.22
883.09	45.4
883.262	84.31
883.434	192.85
883.606	-61.1
883.778	172.37
883.95	221.52
884.122	149.84
884.293	342.35
884.465	121.17
884.637	180.56
884.809	33.11
884.98	201.04
885.152	194.9
885.324	155.99
885.496	98.64
885.667	63.83
885.839	72.02
886.011	145.75
886.182	239.95
886.354	270.67
886.525	184.66
886.697	37.2
886.869	16.73
887.04	135.51
887.212	268.63
887.383	272.72
887.555	176.47
887.726	65.88
887.897	82.26
888.069	110.93
888.24	352.59
888.412	137.56
888.583	98.64
888.754	29.01
888.926	-26.28
889.097	49.49
889.268	-9.9
889.44	6.49
889.611	-9.9
889.782	-1.71
889.953	-13.99
890.125	155.99
890.296	41.3
890.467	76.12
890.638	2.39
890.809	69.97
890.98	147.8
891.151	188.75
891.323	280.91
891.494	45.4
891.665	188.75
891.836	178.51
892.007	121.17
892.178	88.4
892.349	117.08
892.52	86.36
892.691	141.65
892.862	59.73
893.032	41.3
893.203	57.68
893.374	170.32
893.545	264.53
893.716	72.02
893.887	350.54
894.057	-20.14
894.228	102.74
894.399	82.26
894.57	340.3
894.74	88.4
894.911	143.7
895.082	88.4
895.253	61.78
895.423	153.94
895.594	164.18
895.764	282.96
895.935	14.68
896.106	252.24
896.276	-57
896.447	182.61
896.617	-3.75
896.788	18.77
896.958	-65.19
897.129	61.78
897.299	29.01
897.47	276.82
897.64	207.19
897.81	139.6
897.981	260.43
898.151	45.4
898.322	94.55
898.492	207.19
898.662	18.77
898.832	-24.23
899.003	55.64
899.173	217.43
899.343	-50.86
899.513	59.73
