Data from USB4F104151__6__11-47-24-052.txt Node

Date: Wed Feb 19 11:47:24 EST 2025
User: louis
Spectrometer: USB4F10415
Trigger mode: 4
Integration Time (sec): 2.250200E-1
Scans to average: 1
Electric dark correction enabled: true
Nonlinearity correction enabled: false
Boxcar width: 0
XAxis mode: Wavelengths
Number of Pixels in Spectrum: 3648
>>>>>Begin Spectral Data<<<<<
178.204	-882.16
178.424	-882.16
178.644	-882.16
178.864	-769.52
179.084	-796.15
179.304	147.97
179.524	88.57
179.744	-9.73
179.964	-167.42
180.184	166.4
180.404	193.02
180.624	-267.77
180.844	-183.81
181.064	31.23
181.283	170.49
181.503	-155.13
181.723	-13.82
181.943	-81.41
182.163	387.58
182.383	-263.68
182.602	-226.81
182.822	408.06
183.042	156.16
183.262	-253.44
183.482	-273.92
183.701	117.25
183.921	256.51
184.141	-218.62
184.361	-159.23
184.58	178.69
184.8	205.31
185.02	-185.85
185.239	-73.21
185.459	262.65
185.679	326.14
185.898	-292.35
186.118	-175.61
186.338	195.07
186.557	260.6
186.777	-335.35
186.997	-214.52
187.216	152.06
187.436	492.02
187.655	-179.71
187.875	-24.06
188.095	190.97
188.314	381.43
188.534	-38.4
188.753	-351.74
188.973	381.43
189.192	412.15
189.412	-339.45
189.631	-224.76
189.851	266.75
190.07	387.58
190.29	-257.53
190.509	-241.15
190.729	201.21
190.948	350.71
191.168	-62.98
191.387	-237.05
191.607	154.11
191.826	145.92
192.045	-169.47
192.265	-198.14
192.484	227.84
192.704	178.69
192.923	-247.29
193.142	-42.5
193.362	272.89
193.581	322.04
193.8	-124.41
194.02	-144.89
194.239	236.03
194.458	340.47
194.678	-228.86
194.897	-288.25
195.116	178.69
195.335	57.86
195.555	-192
195.774	-220.67
195.993	330.23
196.212	227.84
196.432	-226.81
196.651	-275.96
196.87	152.06
197.089	541.18
197.308	-275.96
197.528	-105.98
197.747	90.62
197.966	188.93
198.185	-24.06
198.404	-286.2
198.623	279.04
198.842	354.81
199.062	-169.47
199.281	-124.41
199.5	145.92
199.719	299.52
199.938	-267.77
200.157	-159.23
200.376	367.1
200.595	264.7
200.814	-130.56
201.033	-189.95
201.252	395.77
201.471	162.3
201.69	-198.14
201.909	-148.99
202.128	311.8
202.347	236.03
202.566	-153.09
202.785	-370.17
203.004	37.38
203.223	537.08
203.442	-187.9
203.661	-255.48
203.879	287.23
204.098	324.09
204.317	-220.67
204.536	-11.78
204.755	256.51
204.974	315.9
205.193	-368.12
205.411	-114.17
205.63	336.38
205.849	195.07
206.068	-194.05
206.287	-351.74
206.505	358.91
206.724	145.92
206.943	-294.4
207.162	-224.76
207.381	131.58
207.599	150.01
207.818	-105.98
208.037	-192
208.255	260.6
208.474	233.98
208.693	-226.81
208.911	-263.68
209.13	264.7
209.349	340.47
209.567	-69.12
209.786	-220.67
210.005	309.76
210.223	252.41
210.442	-349.69
210.661	-257.53
210.879	203.26
211.098	223.74
211.316	-226.81
211.535	-151.04
211.753	174.59
211.972	209.4
212.191	-212.48
212.409	-108.03
212.628	203.26
212.846	43.52
213.065	-214.52
213.283	-71.17
213.502	229.88
213.72	256.51
213.938	-185.85
214.157	-192
214.375	311.8
214.594	166.4
214.812	-126.46
215.031	-220.67
215.249	156.16
215.467	229.88
215.686	-148.99
215.904	-210.43
216.122	182.78
216.341	340.47
216.559	-17.92
216.778	-50.69
216.996	356.86
217.214	6.66
217.432	-230.91
217.651	-329.21
217.869	68.09
218.087	147.97
218.306	-314.88
218.524	-218.62
218.742	139.77
218.96	270.84
219.179	-263.68
219.397	-235
219.615	459.26
219.833	244.22
220.051	-257.53
220.27	-153.09
220.488	285.18
220.706	190.97
220.924	-267.77
221.142	-208.38
221.36	258.56
221.578	209.4
221.796	-222.72
222.015	-105.98
222.233	252.41
222.451	399.87
222.669	-144.89
222.887	-114.17
223.105	29.18
223.323	145.92
223.541	-97.79
223.759	-128.51
223.977	117.25
224.195	348.67
224.413	-132.61
224.631	-241.15
224.849	264.7
225.067	475.64
225.285	-79.36
225.503	-247.29
225.721	-101.89
225.939	283.13
226.157	-144.89
226.375	0.51
226.592	29.18
226.81	158.21
227.028	-42.5
227.246	-140.8
227.464	252.41
227.682	252.41
227.9	-120.32
228.117	-116.22
228.335	244.22
228.553	141.82
228.771	-249.34
228.989	-161.28
229.206	258.56
229.424	84.48
229.642	-108.03
229.86	-204.28
230.077	320
230.295	117.25
230.513	-56.83
230.731	-159.23
230.948	403.96
231.166	264.7
231.384	-30.21
231.601	-144.89
231.819	373.24
232.037	18.94
232.254	-157.18
232.472	-85.5
232.689	166.4
232.907	299.52
233.125	-251.39
233.342	-278.01
233.56	143.87
233.777	199.16
233.995	-226.81
234.213	-130.56
234.43	258.56
234.648	211.45
234.865	-198.14
235.083	-83.45
235.3	211.45
235.518	313.85
235.735	-132.61
235.953	-95.74
236.17	176.64
236.388	64
236.605	18.94
236.822	-128.51
237.04	385.53
237.257	205.31
237.475	-151.04
237.692	-144.89
237.909	254.46
238.127	76.29
238.344	-1.54
238.562	-177.66
238.779	23.04
238.996	-65.02
239.214	-101.89
239.431	-155.13
239.648	84.48
239.865	240.12
240.083	-71.17
240.3	-210.43
240.517	35.33
240.735	147.97
240.952	25.09
241.169	-218.62
241.386	346.62
241.603	90.62
241.821	-173.57
242.038	-142.85
242.255	264.7
242.472	0.51
242.689	-114.17
242.907	-189.95
243.124	162.3
243.341	141.82
243.558	-81.41
243.775	-302.59
243.992	2.56
244.209	303.61
244.426	-50.69
244.643	-79.36
244.86	72.19
245.078	285.18
245.295	-13.82
245.512	-167.42
245.729	141.82
245.946	160.25
246.163	-148.99
246.38	-148.99
246.597	242.17
246.814	164.35
247.031	-62.98
247.248	-216.57
247.464	223.74
247.681	205.31
247.898	-151.04
248.115	-15.87
248.332	123.39
248.549	360.95
248.766	-17.92
248.983	-75.26
249.2	287.23
249.417	274.94
249.633	-118.27
249.85	-91.65
250.067	154.11
250.284	172.54
250.501	-153.09
250.717	-83.45
250.934	61.95
251.151	74.24
251.368	-75.26
251.585	-112.13
251.801	227.84
252.018	-17.92
252.235	6.66
252.451	-204.28
252.668	137.73
252.885	307.71
253.102	-87.55
253.318	-103.93
253.535	86.53
253.752	121.34
253.968	-110.08
254.185	-298.49
254.401	209.4
254.618	240.12
254.835	-134.65
255.051	-112.13
255.268	305.66
255.484	172.54
255.701	-99.84
255.917	-194.05
256.134	12.8
256.351	199.16
256.567	-194.05
256.784	53.76
257	-24.06
257.217	309.76
257.433	45.57
257.65	-108.03
257.866	322.04
258.082	14.85
258.299	-83.45
258.515	-206.33
258.732	150.01
258.948	16.9
259.165	-85.5
259.381	-198.14
259.597	285.18
259.814	129.53
260.03	-153.09
260.246	-171.52
260.463	221.69
260.679	252.41
260.895	-122.37
261.112	-67.07
261.328	82.43
261.544	33.28
261.761	-130.56
261.977	-132.61
262.193	-36.35
262.409	328.19
262.626	-75.26
262.842	-132.61
263.058	39.42
263.274	231.93
263.49	-73.21
263.707	-192
263.923	303.61
264.139	-17.92
264.355	-105.98
264.571	-85.5
264.787	231.93
265.004	258.56
265.22	-62.98
265.436	-155.13
265.652	227.84
265.868	258.56
266.084	-196.09
266.3	-159.23
266.516	53.76
266.732	227.84
266.948	-69.12
267.164	-220.67
267.38	289.28
267.596	182.78
267.812	-65.02
268.028	-28.16
268.244	131.58
268.46	143.87
268.676	-130.56
268.892	-44.54
269.108	-1.54
269.324	35.33
269.54	-153.09
269.756	-42.5
269.972	35.33
270.188	107.01
270.403	-151.04
270.619	-108.03
270.835	184.83
271.051	223.74
271.267	-153.09
271.483	-138.75
271.698	260.6
271.914	209.4
272.13	-38.4
272.346	-108.03
272.562	147.97
272.777	285.18
272.993	-105.98
273.209	-95.74
273.425	260.6
273.64	-13.82
273.856	-99.84
274.072	-294.4
274.287	72.19
274.503	248.32
274.719	-38.4
274.934	-151.04
275.15	-30.21
275.366	145.92
275.581	-183.81
275.797	-163.33
276.012	203.26
276.228	84.48
276.444	-114.17
276.659	88.57
276.875	18.94
277.09	100.86
277.306	-75.26
277.521	-15.87
277.737	76.29
277.952	145.92
278.168	-67.07
278.383	-79.36
278.599	45.57
278.814	201.21
279.03	-136.7
279.245	72.19
279.461	121.34
279.676	229.88
279.892	-157.18
280.107	-120.32
280.322	25.09
280.538	158.21
280.753	-138.75
280.969	-97.79
281.184	94.72
281.399	279.04
281.615	-114.17
281.83	29.18
282.045	-77.31
282.26	64
282.476	-132.61
282.691	8.7
282.906	158.21
283.122	92.67
283.337	-50.69
283.552	29.18
283.767	123.39
283.983	229.88
284.198	-101.89
284.413	-120.32
284.628	-11.78
284.843	113.15
285.058	-99.84
285.274	-116.22
285.489	-36.35
285.704	145.92
285.919	-110.08
286.134	-62.98
286.349	111.1
286.564	102.91
286.779	8.7
286.995	-75.26
287.21	-73.21
287.425	172.54
287.64	-75.26
287.855	16.9
288.07	0.51
288.285	203.26
288.5	57.86
288.715	-30.21
288.93	143.87
289.145	-9.73
289.36	-42.5
289.575	-77.31
289.79	348.67
290.004	51.71
290.219	14.85
290.434	-110.08
290.649	111.1
290.864	59.9
291.079	-120.32
291.294	-1.54
291.509	229.88
291.724	68.09
291.938	-105.98
292.153	-42.5
292.368	115.2
292.583	143.87
292.798	12.8
293.012	-73.21
293.227	178.69
293.442	117.25
293.657	23.04
293.871	-44.54
294.086	170.49
294.301	309.76
294.516	55.81
294.73	57.86
294.945	14.85
295.16	145.92
295.374	-58.88
295.589	16.9
295.804	0.51
296.018	121.34
296.233	-128.51
296.447	16.9
296.662	104.96
296.877	344.57
297.091	-26.11
297.306	-46.59
297.52	43.52
297.735	250.36
297.949	14.85
298.164	-198.14
298.378	115.2
298.593	-3.58
298.807	-65.02
299.022	-67.07
299.236	244.22
299.451	74.24
299.665	6.66
299.88	25.09
300.094	190.97
300.309	94.72
300.523	-38.4
300.737	-91.65
300.952	233.98
301.166	211.45
301.381	-132.61
301.595	-153.09
301.809	84.48
302.024	59.9
302.238	-50.69
302.452	109.05
302.667	143.87
302.881	252.41
303.095	41.47
303.309	10.75
303.524	35.33
303.738	104.96
303.952	-1.54
304.166	-75.26
304.381	-124.41
304.595	229.88
304.809	-1.54
305.023	-48.64
305.237	-13.82
305.452	74.24
305.666	-40.45
305.88	0.51
306.094	201.21
306.308	123.39
306.522	-112.13
306.736	18.94
306.95	205.31
307.164	88.57
307.379	-13.82
307.593	88.57
307.807	203.26
308.021	180.73
308.235	125.44
308.449	-122.37
308.663	115.2
308.877	473.59
309.091	92.67
309.305	-7.68
309.519	-13.82
309.733	227.84
309.947	-85.5
310.161	-163.33
310.374	207.36
310.588	195.07
310.802	-62.98
311.016	-42.5
311.23	125.44
311.444	0.51
311.658	49.66
311.872	135.68
312.085	252.41
312.299	338.43
312.513	59.9
312.727	-153.09
312.941	31.23
313.154	129.53
313.368	-24.06
313.582	16.9
313.796	68.09
314.009	158.21
314.223	96.77
314.437	41.47
314.651	131.58
314.864	-17.92
315.078	-26.11
315.292	-101.89
315.505	74.24
315.719	129.53
315.933	43.52
316.146	-132.61
316.36	-15.87
316.573	141.82
316.787	182.78
317.001	-26.11
317.214	-62.98
317.428	100.86
317.641	-85.5
317.855	-75.26
318.068	182.78
318.282	147.97
318.495	117.25
318.709	-112.13
318.922	123.39
319.136	270.84
319.349	16.9
319.563	-103.93
319.776	240.12
319.99	-67.07
320.203	59.9
320.417	-77.31
320.63	141.82
320.843	186.88
321.057	-1.54
321.27	4.61
321.483	158.21
321.697	229.88
321.91	-34.3
322.124	-65.02
322.337	154.11
322.55	33.28
322.763	-13.82
322.977	-132.61
323.19	16.9
323.403	143.87
323.617	-26.11
323.83	61.95
324.043	96.77
324.256	109.05
324.469	-192
324.683	74.24
324.896	233.98
325.109	117.25
325.322	-157.18
325.535	51.71
325.748	270.84
325.962	4.61
326.175	2.56
326.388	-17.92
326.601	176.64
326.814	57.86
327.027	-40.45
327.24	31.23
327.453	-32.26
327.666	188.93
327.879	154.11
328.092	25.09
328.305	145.92
328.518	117.25
328.731	-56.83
328.944	-124.41
329.157	76.29
329.37	78.33
329.583	94.72
329.796	-44.54
330.009	-24.06
330.222	107.01
330.435	14.85
330.648	14.85
330.861	223.74
331.073	133.63
331.286	72.19
331.499	-19.97
331.712	96.77
331.925	90.62
332.138	-50.69
332.35	-40.45
332.563	39.42
332.776	305.66
332.989	-116.22
333.202	-144.89
333.414	92.67
333.627	125.44
333.84	-75.26
334.053	-36.35
334.265	39.42
334.478	-56.83
334.691	-95.74
334.903	68.09
335.116	55.81
335.329	141.82
335.541	53.76
335.754	197.12
335.966	86.53
336.179	64
336.392	10.75
336.604	-38.4
336.817	186.88
337.029	193.02
337.242	-97.79
337.454	68.09
337.667	115.2
337.88	225.79
338.092	35.33
338.305	-22.02
338.517	47.62
338.729	131.58
338.942	43.52
339.154	-165.37
339.367	-87.55
339.579	166.4
339.792	-163.33
340.004	98.81
340.217	59.9
340.429	188.93
340.641	-62.98
340.854	-75.26
341.066	139.77
341.278	293.37
341.491	129.53
341.703	-38.4
341.915	8.7
342.128	229.88
342.34	-7.68
342.552	-69.12
342.764	147.97
342.977	72.19
343.189	-9.73
343.401	96.77
343.613	-22.02
343.826	143.87
344.038	-50.69
344.25	-3.58
344.462	39.42
344.674	197.12
344.886	-128.51
345.099	-42.5
345.311	184.83
345.523	107.01
345.735	-181.76
345.947	-36.35
346.159	135.68
346.371	178.69
346.583	14.85
346.795	-19.97
347.007	-3.58
347.219	229.88
347.431	-7.68
347.643	139.77
347.855	86.53
348.067	297.47
348.279	-83.45
348.491	-40.45
348.703	268.8
348.915	113.15
349.127	-9.73
349.339	10.75
349.551	49.66
349.763	240.12
349.975	-62.98
350.187	-79.36
350.399	317.95
350.61	162.3
350.822	-58.88
351.034	-26.11
351.246	209.4
351.458	76.29
351.669	4.61
351.881	-58.88
352.093	227.84
352.305	246.27
352.517	-81.41
352.728	-40.45
352.94	90.62
353.152	238.08
353.363	-91.65
353.575	8.7
353.787	367.1
353.999	166.4
354.21	94.72
354.422	-208.38
354.633	94.72
354.845	154.11
355.057	20.99
355.268	20.99
355.48	188.93
355.692	-7.68
355.903	6.66
356.115	-175.61
356.326	10.75
356.538	260.6
356.749	18.94
356.961	154.11
357.172	31.23
357.384	-7.68
357.595	90.62
357.807	-67.07
358.018	23.04
358.23	156.16
358.441	-120.32
358.653	-50.69
358.864	193.02
359.075	-89.6
359.287	12.8
359.498	-56.83
359.709	217.6
359.921	84.48
360.132	45.57
360.344	-73.21
360.555	20.99
360.766	201.21
360.977	-136.7
361.189	37.38
361.4	33.28
361.611	221.69
361.823	64
362.034	-120.32
362.245	-58.88
362.456	125.44
362.667	45.57
362.879	-110.08
363.09	152.06
363.301	152.06
363.512	-95.74
363.723	-112.13
363.935	139.77
364.146	229.88
364.357	0.51
364.568	-17.92
364.779	70.14
364.99	336.38
365.201	8.7
365.412	127.49
365.623	8.7
365.834	150.01
366.045	14.85
366.256	4.61
366.467	250.36
366.678	2.56
366.889	16.9
367.1	-101.89
367.311	299.52
367.522	41.47
367.733	-32.26
367.944	-42.5
368.155	68.09
368.366	96.77
368.577	80.38
368.788	20.99
368.999	12.8
369.209	162.3
369.42	100.86
369.631	301.56
369.842	160.25
370.053	57.86
370.264	14.85
370.474	-112.13
370.685	174.59
370.896	117.25
371.107	98.81
371.317	-73.21
371.528	82.43
371.739	268.8
371.95	6.66
372.16	-9.73
372.371	-1.54
372.582	96.77
372.792	-15.87
373.003	4.61
373.214	64
373.424	158.21
373.635	-79.36
373.846	129.53
374.056	121.34
374.267	121.34
374.477	61.95
374.688	-114.17
374.898	131.58
375.109	66.05
375.319	47.62
375.53	35.33
375.74	227.84
375.951	6.66
376.161	59.9
376.372	64
376.582	143.87
376.793	193.02
377.003	-36.35
377.214	-146.94
377.424	113.15
377.635	107.01
377.845	-42.5
378.055	41.47
378.266	-50.69
378.476	80.38
378.686	33.28
378.897	25.09
379.107	256.51
379.317	193.02
379.528	-99.84
379.738	-26.11
379.948	31.23
380.158	193.02
380.369	37.38
380.579	-36.35
380.789	166.4
380.999	223.74
381.21	27.14
381.42	129.53
381.63	125.44
381.84	309.76
382.05	-3.58
382.261	84.48
382.471	324.09
382.681	33.28
382.891	57.86
383.101	45.57
383.311	31.23
383.521	-36.35
383.731	-13.82
383.941	115.2
384.151	154.11
384.361	49.66
384.571	-52.74
384.781	20.99
384.991	231.93
385.201	328.19
385.411	129.53
385.621	0.51
385.831	195.07
386.041	80.38
386.251	29.18
386.461	96.77
386.671	64
386.881	154.11
387.091	14.85
387.301	84.48
387.511	68.09
387.72	115.2
387.93	43.52
388.14	-83.45
388.35	74.24
388.56	238.08
388.769	10.75
388.979	-19.97
389.189	-15.87
389.399	160.25
389.609	-17.92
389.818	51.71
390.028	166.4
390.238	100.86
390.447	-95.74
390.657	70.14
390.867	107.01
391.076	-138.75
391.286	-17.92
391.496	-65.02
391.705	186.88
391.915	293.37
392.125	2.56
392.334	64
392.544	307.71
392.753	113.15
392.963	-42.5
393.172	-42.5
393.382	113.15
393.591	293.37
393.801	-32.26
394.01	10.75
394.22	184.83
394.429	90.62
394.639	72.19
394.848	57.86
395.058	119.29
395.267	39.42
395.477	31.23
395.686	39.42
395.895	406.01
396.105	285.18
396.314	8.7
396.524	25.09
396.733	84.48
396.942	256.51
397.152	-9.73
397.361	147.97
397.57	225.79
397.78	82.43
397.989	98.81
398.198	244.22
398.407	74.24
398.617	150.01
398.826	-56.83
399.035	-114.17
399.244	182.78
399.453	107.01
399.663	-30.21
399.872	-75.26
400.081	-95.74
400.29	221.69
400.499	-87.55
400.708	82.43
400.917	70.14
401.127	123.39
401.336	-48.64
401.545	215.55
401.754	315.9
401.963	147.97
402.172	6.66
402.381	-69.12
402.59	74.24
402.799	86.53
403.008	162.3
403.217	53.76
403.426	154.11
403.635	-93.69
403.844	-67.07
404.053	-40.45
404.262	145.92
404.471	227.84
404.68	14.85
404.888	57.86
405.097	55.81
405.306	92.67
405.515	-13.82
405.724	-9.73
405.933	195.07
406.142	147.97
406.35	-22.02
406.559	43.52
406.768	143.87
406.977	305.66
407.185	-7.68
407.394	12.8
407.603	41.47
407.812	156.16
408.02	107.01
408.229	-1.54
408.438	201.21
408.646	-13.82
408.855	-91.65
409.064	-50.69
409.272	68.09
409.481	209.4
409.69	-79.36
409.898	-155.13
410.107	135.68
410.315	211.45
410.524	51.71
410.733	-19.97
410.941	209.4
411.15	229.88
411.358	80.38
411.567	139.77
411.775	152.06
411.984	176.64
412.192	92.67
412.401	-120.32
412.609	295.42
412.818	283.13
413.026	55.81
413.234	-11.78
413.443	203.26
413.651	80.38
413.86	-226.81
414.068	246.27
414.276	315.9
414.485	10.75
414.693	14.85
414.901	166.4
415.11	201.21
415.318	100.86
415.526	-3.58
415.734	57.86
415.943	172.54
416.151	250.36
416.359	-28.16
416.567	66.05
416.776	121.34
416.984	276.99
417.192	51.71
417.4	-42.5
417.608	80.38
417.817	-19.97
418.025	113.15
418.233	86.53
418.441	-28.16
418.649	12.8
418.857	14.85
419.065	104.96
419.273	82.43
419.481	193.02
419.689	51.71
419.897	-32.26
420.105	-17.92
420.313	147.97
420.521	107.01
420.729	68.09
420.937	172.54
421.145	64
421.353	-32.26
421.561	141.82
421.769	205.31
421.977	113.15
422.185	20.99
422.393	59.9
422.601	203.26
422.809	141.82
423.017	92.67
423.224	10.75
423.432	285.18
423.64	94.72
423.848	-81.41
424.056	-50.69
424.263	264.7
424.471	190.97
424.679	117.25
424.887	-169.47
425.094	483.83
425.302	190.97
425.51	-44.54
425.718	23.04
425.925	219.64
426.133	6.66
426.341	152.06
426.548	51.71
426.756	113.15
426.964	145.92
427.171	14.85
427.379	47.62
427.586	131.58
427.794	219.64
428.001	72.19
428.209	12.8
428.417	309.76
428.624	256.51
428.832	55.81
429.039	131.58
429.247	182.78
429.454	127.49
429.662	109.05
429.869	57.86
430.076	256.51
430.284	260.6
430.491	43.52
430.699	-22.02
430.906	299.52
431.114	217.6
431.321	150.01
431.528	76.29
431.736	162.3
431.943	225.79
432.15	68.09
432.358	12.8
432.565	389.63
432.772	-7.68
432.979	135.68
433.187	23.04
433.394	289.28
433.601	68.09
433.808	35.33
434.016	104.96
434.223	174.59
434.43	117.25
434.637	25.09
434.844	162.3
435.052	260.6
435.259	258.56
435.466	143.87
435.673	111.1
435.88	299.52
436.087	365.05
436.294	274.94
436.501	219.64
436.708	199.16
436.915	301.56
437.122	276.99
437.329	98.81
437.537	231.93
437.743	344.57
437.95	219.64
438.157	94.72
438.364	330.23
438.571	272.89
438.778	72.19
438.985	137.73
439.192	379.39
439.399	170.49
439.606	188.93
439.813	254.46
440.02	584.18
440.227	584.18
440.433	244.22
440.64	168.45
440.847	258.56
441.054	260.6
441.261	233.98
441.467	236.03
441.674	221.69
441.881	481.78
442.088	236.03
442.294	246.27
442.501	414.2
442.708	508.41
442.914	281.08
443.121	315.9
443.328	410.11
443.534	604.66
443.741	342.52
443.948	225.79
444.154	481.78
444.361	713.21
444.568	313.85
444.774	408.06
444.981	422.39
445.187	668.15
445.394	420.35
445.6	410.11
445.807	545.27
446.013	461.3
446.22	236.03
446.426	643.57
446.633	645.62
446.839	829.94
447.046	317.95
447.252	561.66
447.459	588.28
447.665	692.73
447.871	551.42
448.078	805.36
448.284	774.64
448.491	940.53
448.697	686.58
448.903	686.58
449.11	899.57
449.316	858.61
449.522	954.87
449.728	844.28
449.935	1063.41
450.141	903.67
450.347	956.91
450.553	977.39
450.76	1198.57
450.966	1102.32
451.172	1186.29
451.378	1092.08
451.584	1321.45
451.791	1487.34
451.997	1282.54
452.203	1337.84
452.409	1651.17
452.615	1612.26
452.821	1315.31
453.027	1366.51
453.233	1872.36
453.44	1587.69
453.646	1382.89
453.852	1665.51
454.058	1653.22
454.264	1780.2
454.47	1772
454.676	1747.43
454.882	1989.09
455.088	1890.79
455.294	1911.27
455.5	2021.86
455.705	2101.73
455.911	2011.62
456.117	1855.97
456.323	2068.96
456.529	2054.62
456.735	2134.5
456.941	1927.65
457.147	2132.45
457.352	2308.57
457.558	2050.53
457.764	2120.16
457.97	1966.56
458.176	2181.6
458.381	2109.92
458.587	2187.74
458.793	2130.4
458.999	2068.96
459.204	2132.45
459.41	2118.11
459.616	2193.89
459.821	2310.62
460.027	2173.41
460.233	2138.59
460.438	2025.95
460.644	2081.25
460.85	2058.72
461.055	2046.43
461.261	2068.96
461.466	1866.21
461.672	2060.77
461.878	1829.35
462.083	1933.79
462.289	1751.53
462.494	1886.69
462.7	1767.91
462.905	1720.81
463.111	2165.21
463.316	2068.96
463.522	1804.77
463.727	1737.19
463.932	1929.7
464.138	1898.98
464.343	1749.48
464.549	1714.66
464.754	1987.04
464.959	1995.23
465.165	1661.41
465.37	1604.07
465.575	1788.39
465.781	1696.23
465.986	1645.03
466.191	1636.84
466.397	1808.87
466.602	1767.91
466.807	1520.1
467.012	1630.7
467.218	1817.06
467.423	1731.05
467.628	1460.71
467.833	1550.82
468.038	1587.69
468.244	1610.22
468.449	1583.59
468.654	1702.37
468.859	1526.25
469.064	1636.84
469.269	1403.37
469.474	1503.72
469.679	1890.79
469.885	1724.9
470.09	1464.81
470.295	1526.25
470.5	1665.51
470.705	1747.43
470.91	1681.89
471.115	1491.43
471.32	1741.29
471.525	1866.21
471.73	1452.52
471.935	1626.6
472.139	1546.73
472.344	1628.65
472.549	1542.63
472.754	1626.6
472.959	1696.23
473.164	1769.96
473.369	1583.59
473.574	1657.32
473.778	1821.16
473.983	1858.02
474.188	1882.6
474.393	1507.82
474.598	1890.79
474.802	1690.09
475.007	1663.46
475.212	1624.55
475.417	1577.45
475.621	1835.49
475.826	1536.49
476.031	1579.5
476.235	1620.46
476.44	1679.85
476.645	1616.36
476.849	1571.3
477.054	1688.04
477.259	1669.61
477.463	1702.37
477.668	1825.25
477.872	2081.25
478.077	1599.98
478.282	1616.36
478.486	1630.7
478.691	1767.91
478.895	1630.7
479.1	1729
479.304	1716.71
479.509	1763.81
479.713	1882.6
479.918	1645.03
480.122	1423.85
480.326	1694.18
480.531	1786.34
480.735	1855.97
480.94	1571.3
481.144	1935.84
481.348	1761.77
481.553	1649.13
481.757	1624.55
481.961	1757.67
482.166	1747.43
482.37	1634.79
482.574	1655.27
482.778	1622.5
482.983	1808.87
483.187	1597.93
483.391	1724.9
483.595	1831.4
483.8	1853.92
484.004	1821.16
484.208	1794.53
484.412	2048.48
484.616	2005.47
484.821	1716.71
485.025	1767.91
485.229	1837.54
485.433	1925.6
485.637	1954.27
485.841	1925.6
486.045	2038.24
486.249	2089.44
486.453	1769.96
486.657	1794.53
486.861	1817.06
487.065	1952.23
487.269	1882.6
487.473	1921.51
487.677	2253.28
487.881	2378.2
488.085	2013.67
488.289	2111.97
488.493	2183.65
488.697	2384.35
488.901	2099.68
489.105	2007.52
489.309	2236.89
489.512	2427.35
489.716	2193.89
489.92	2341.34
490.124	2462.17
490.328	2470.36
490.531	2382.3
490.735	2415.07
490.939	2410.97
491.143	2470.36
491.346	2367.96
491.55	2513.37
491.754	2779.61
491.958	2611.67
492.161	2529.75
492.365	2560.47
492.569	2775.51
492.772	2820.56
492.976	2740.69
493.18	2793.94
493.383	2839
493.587	2941.4
493.79	2800.09
493.994	2685.4
494.197	3045.84
494.401	3146.19
494.605	2884.05
494.808	3035.6
495.012	3123.66
495.215	3301.84
495.419	3178.96
495.622	3043.79
495.825	3316.17
496.029	3402.19
496.232	3322.32
496.436	3162.58
496.639	3580.36
496.843	3604.94
497.046	3416.52
497.249	3602.89
497.453	3809.73
497.656	3799.49
497.859	3795.4
498.063	3905.99
498.266	4047.3
498.469	3830.21
498.673	4018.63
498.876	3928.52
499.079	4235.71
499.282	4172.22
499.485	4479.42
499.689	4344.25
499.892	4544.95
500.095	4360.64
500.298	4696.5
500.501	4549.05
500.705	4893.11
500.908	4846.01
501.111	4792.76
501.314	4983.22
501.517	5290.42
501.72	5368.24
501.923	5114.29
502.126	5284.27
502.329	5700.01
502.532	5626.28
502.735	5454.25
502.938	5777.83
503.141	5939.62
503.344	5900.71
503.547	6037.92
503.75	5958.05
503.953	6175.14
504.156	6302.11
504.359	6156.71
504.562	6371.74
504.765	6592.92
504.968	6834.58
505.17	6738.33
505.373	6803.86
505.576	7111.06
505.779	7176.59
505.982	7006.61
506.185	7293.33
506.387	7463.31
506.59	7602.57
506.793	7614.86
506.996	7700.87
507.198	8317.31
507.401	8104.32
507.604	8057.22
507.807	8284.55
508.009	8472.96
508.212	8722.81
508.415	8573.31
508.617	8855.93
508.82	8919.42
509.022	8880.5
509.225	9183.6
509.428	9214.32
509.63	9574.77
509.833	9630.06
510.035	10154.34
510.238	9734.51
510.44	9865.58
510.643	10307.94
510.845	10242.4
511.048	10322.27
511.25	10748.25
511.453	10559.84
511.655	11159.89
511.858	11133.27
512.06	11403.6
512.262	11340.11
512.465	11274.58
512.667	11663.69
512.87	11823.44
513.072	12130.63
513.274	12056.9
513.477	12091.72
513.679	12425.54
513.881	12695.87
514.084	12714.3
514.286	12855.61
514.488	13203.77
514.69	13650.22
514.893	13492.53
515.095	13383.99
515.297	13801.77
515.499	14231.85
515.701	14037.29
515.904	14209.32
516.106	14766.37
516.308	14962.97
516.51	15032.6
516.712	14956.83
516.914	15276.31
517.116	15653.14
517.318	15620.37
517.52	15718.67
517.722	16044.3
517.925	16042.25
518.127	16433.41
518.329	16449.8
518.531	16304.39
518.733	17168.63
518.935	17326.33
519.136	17275.13
519.338	17699.06
519.54	17615.09
519.742	17744.11
519.944	18143.47
520.146	18571.49
520.348	18598.12
520.55	18792.67
520.752	18940.13
520.954	19378.39
521.155	19380.44
521.357	19425.5
521.559	19732.69
521.761	20113.61
521.963	20031.69
522.164	19777.75
522.366	20363.47
522.568	20539.59
522.77	21022.91
522.971	21027.01
523.173	20803.78
523.375	21530.81
523.576	21176.51
523.778	21213.37
523.98	21719.22
524.181	22165.68
524.383	22122.67
524.584	22122.67
524.786	22165.68
524.988	22208.69
525.189	22808.74
525.391	22845.6
525.592	22784.16
525.794	22958.24
525.995	22794.4
526.197	23244.96
526.398	23394.46
526.6	23836.82
526.801	23517.34
527.003	23711.89
527.204	23787.67
527.406	24301.71
527.607	24330.38
527.808	24053.9
528.01	24019.09
528.211	24309.9
528.412	24979.59
528.614	24578.18
528.815	24907.91
529.016	25428.09
529.218	24846.47
529.419	25028.74
529.62	24715.4
529.822	25290.88
530.023	25362.56
530.224	25385.08
530.425	25376.89
530.626	25165.95
530.828	25155.71
531.029	25532.54
531.23	25534.59
531.431	25819.25
531.632	25766.01
531.833	25727.1
532.035	25675.9
532.236	25979
532.437	26392.69
532.638	25933.94
532.839	25981.04
533.04	26189.94
533.241	26302.57
533.442	26409.07
533.643	26280.05
533.844	26214.51
534.045	26433.64
534.246	26282.09
534.447	26509.42
534.648	26294.38
534.849	26951.78
535.05	26230.9
535.251	26437.74
535.451	26525.8
535.652	26814.57
535.853	26404.97
536.054	26796.14
536.255	26720.36
536.456	26663.02
536.657	26617.96
536.857	26351.73
537.058	26685.54
537.259	27111.52
537.46	27132
537.66	26722.41
537.861	27099.23
538.062	26781.8
538.263	26808.42
538.463	26914.92
538.664	26773.61
538.865	26835.05
539.065	27009.12
539.266	26577
539.466	27123.81
539.667	26980.45
539.868	27158.63
540.068	26900.58
540.269	27019.36
540.469	27039.84
540.67	26822.76
540.87	27058.28
541.071	27015.27
541.271	27400.29
541.472	26796.14
541.672	27037.8
541.873	27025.51
542.073	26921.06
542.274	27267.17
542.474	26994.79
542.675	27097.19
542.875	27441.25
543.075	27007.08
543.276	26982.5
543.476	27177.06
543.676	27203.68
543.877	27291.74
544.077	27402.33
544.277	27623.51
544.478	27252.83
544.678	27215.97
544.878	27373.66
545.078	27609.18
545.279	27193.44
545.479	27017.32
545.679	27463.77
545.879	27537.5
546.079	27789.4
546.28	27031.65
546.48	27054.18
546.68	27842.65
546.88	27789.4
547.08	27492.44
547.28	27476.06
547.48	27285.6
547.68	27904.09
547.88	27373.66
548.081	27932.76
548.281	27310.18
548.481	27807.83
548.681	27598.94
548.881	27797.59
549.081	27838.55
549.28	27467.87
549.48	27693.15
549.68	28016.72
549.88	28051.54
550.08	27392.09
550.28	27797.59
550.48	27658.33
550.68	27902.04
550.88	28166.23
551.08	27873.37
551.279	27797.59
551.479	27639.9
551.679	28135.51
551.879	27455.58
552.079	27924.57
552.278	27881.56
552.478	28065.88
552.678	27922.52
552.878	27965.53
553.077	27963.48
553.277	27506.78
553.477	28117.07
553.676	28137.55
553.876	28072.02
554.076	28008.53
554.275	27875.41
554.475	27441.25
554.674	28293.2
554.874	27758.68
555.074	27574.36
555.273	28188.75
555.473	28031.06
555.672	27891.8
555.872	27910.23
556.071	28031.06
556.271	28422.22
556.47	27684.95
556.67	27592.79
556.869	27764.82
557.068	28084.31
557.268	27865.17
557.467	27711.58
557.667	27904.09
557.866	27871.32
558.065	28055.64
558.265	27408.48
558.464	27445.34
558.663	27928.66
558.863	27426.91
559.062	28063.83
559.261	27271.26
559.461	28252.24
559.66	27390.05
559.859	27494.49
560.058	27271.26
560.258	27295.84
560.457	27523.16
560.656	27664.47
560.855	27054.18
561.054	27744.34
561.253	27330.65
561.453	27555.93
561.652	27072.61
561.851	27457.63
562.05	27019.36
562.249	26810.47
562.448	27244.64
562.647	26912.87
562.846	26949.73
563.045	26794.09
563.244	26640.49
563.443	27514.97
563.642	26382.45
563.841	26650.73
564.04	26323.05
564.239	26734.7
564.438	26300.53
564.637	26423.4
564.836	26269.81
565.035	26134.64
565.234	26169.46
565.432	26249.33
565.631	26001.52
565.83	26032.24
566.029	26048.63
566.228	25929.84
566.427	25571.45
566.625	25641.08
566.824	25516.15
567.023	25696.38
567.222	25227.39
567.42	25731.19
567.619	25553.02
567.818	25188.48
568.016	25569.4
568.215	25352.32
568.414	25366.65
568.612	25499.77
568.811	25268.35
569.01	25018.5
569.208	24576.14
569.407	24993.92
569.605	24615.05
569.804	24840.32
570.002	24508.55
570.201	24479.88
570.4	24322.19
570.598	24258.7
570.797	24387.72
570.995	24156.3
571.193	23967.89
571.392	24434.83
571.59	23908.5
571.789	23804.05
571.987	23916.69
572.186	23900.31
572.384	23611.54
572.582	23378.08
572.781	23754.9
572.979	23275.68
573.177	23564.44
573.376	23722.13
573.574	23015.58
573.772	23386.27
573.971	23034.02
574.169	22818.98
574.367	22872.23
574.565	23173.28
574.763	22784.16
574.962	22599.85
575.16	22624.42
575.358	22669.48
575.556	22321.32
575.754	22737.06
575.952	22257.84
576.151	22470.83
576.349	22278.32
576.547	21842.1
576.745	21960.88
576.943	22358.19
577.141	21717.17
577.339	21729.46
577.537	21772.47
577.735	22012.08
577.933	21829.81
578.131	21639.35
578.329	21708.98
578.527	21512.38
578.725	21579.96
578.923	21213.37
579.121	21375.16
579.319	21481.66
579.516	21070.01
579.714	21354.68
579.912	21256.38
580.11	20951.23
580.308	21088.45
580.506	21135.55
580.704	20105.42
580.901	20867.27
581.099	21145.79
581.297	20818.11
581.495	20625.61
581.692	20846.79
581.89	20721.86
582.088	20685
582.285	20390.09
582.483	20670.66
582.681	20781.25
582.878	20664.52
583.076	20185.29
583.274	20676.8
583.471	20359.37
583.669	20291.79
583.866	19874
584.064	20054.22
584.262	19699.92
584.459	20207.82
584.657	19988.69
584.854	20236.49
585.052	20025.55
585.249	19980.5
585.447	19927.25
585.644	19448.02
585.841	19847.38
586.039	19917.01
586.236	19626.2
586.434	19781.84
586.631	19507.41
586.828	19347.67
587.026	19429.59
587.223	19405.02
587.42	19587.29
587.618	19445.98
587.815	19491.03
588.012	19296.47
588.21	19173.6
588.407	19495.13
588.604	19364.06
588.801	19073.24
588.999	19212.51
589.196	19247.32
589.393	18893.02
589.59	19177.69
589.787	19058.91
589.984	18858.21
590.182	18774.24
590.379	18938.08
590.576	18831.58
590.773	18708.71
590.97	18456.81
591.167	19128.54
591.364	18776.29
591.561	18528.49
591.758	18405.61
591.955	18966.75
592.152	18663.65
592.349	18807.01
592.546	18610.4
592.743	18720.99
592.94	18395.37
593.137	18532.58
593.334	18616.55
593.531	18559.2
593.727	18626.79
593.924	18252.01
594.121	18170.09
594.318	18682.08
594.515	18546.92
594.712	18297.06
594.908	18243.82
595.105	18170.09
595.302	18252.01
595.499	18209
595.696	18342.12
595.892	18043.12
596.089	18284.78
596.286	18368.74
596.482	18186.47
596.679	18319.59
596.876	18172.14
597.072	18266.35
597.269	18137.32
597.466	18051.31
597.662	18176.23
597.859	18069.74
598.055	17940.72
598.252	18106.6
598.448	18127.08
598.645	17854.7
598.841	17940.72
599.038	18110.7
599.234	18325.74
599.431	17828.08
599.627	17930.48
599.824	18262.25
600.02	17805.55
600.217	18147.56
600.413	17744.11
600.609	18010.35
600.806	18157.8
601.002	17950.96
601.198	17594.61
601.395	17764.59
601.591	17860.85
601.787	18094.32
601.984	17660.15
602.18	17985.77
602.376	17840.37
602.572	17766.64
602.769	17635.57
602.965	17613.04
603.161	17871.09
603.357	17375.48
603.553	17848.56
603.75	17815.79
603.946	17551.6
604.142	17555.7
604.338	17703.15
604.534	17791.22
604.73	17711.35
604.926	17408.25
605.122	17531.12
605.318	17611
605.514	17656.05
605.71	17344.76
605.906	17316.09
606.102	17604.85
606.298	17797.36
606.494	17346.81
606.69	17539.32
606.886	17285.37
607.082	17262.84
607.278	17369.33
607.474	17232.12
607.67	17383.67
607.866	16894.21
608.062	17623.28
608.257	17551.6
608.453	17299.7
608.649	17418.49
608.845	17090.81
609.041	17185.02
609.236	17438.97
609.432	17430.77
609.628	17021.18
609.824	16929.02
610.019	16931.07
610.215	17273.08
610.411	17207.55
610.606	17146.11
610.802	16959.74
610.998	17123.58
611.193	17012.99
611.389	16646.4
611.584	16916.73
611.78	16810.24
611.976	16982.27
612.171	17056
612.367	17123.58
612.562	16931.07
612.758	16705.79
612.953	16593.15
613.149	16754.94
613.344	16965.89
613.539	17127.67
613.735	16947.45
613.93	17072.38
614.126	16642.31
614.321	16785.66
614.517	16990.46
614.712	16795.9
614.907	17012.99
615.103	16800
615.298	16457.99
615.493	16627.97
615.688	16433.41
615.884	16744.7
616.079	16144.65
616.274	16785.66
616.47	16437.51
616.665	16496.9
616.86	16619.78
617.055	16673.03
617.25	16197.9
617.445	16654.59
617.641	16394.5
617.836	16316.68
618.031	16197.9
618.226	16529.67
618.421	16417.03
618.616	16290.06
618.811	16058.63
619.006	16161.03
619.201	16095.5
619.396	16384.26
619.591	15765.78
619.786	15972.62
619.981	16032.01
620.176	16386.31
620.371	16126.22
620.566	15554.83
620.761	15878.41
620.956	16083.21
621.151	15649.04
621.346	15558.93
621.541	15046.94
621.735	15599.89
621.93	15347.99
622.125	15616.27
622.32	15335.7
622.515	15558.93
622.709	15499.54
622.904	15468.82
623.099	15053.08
623.294	15649.04
623.488	15251.74
623.683	15292.69
623.878	14903.58
624.072	15227.16
624.267	15153.43
624.462	14766.37
624.656	14737.7
624.851	14825.76
625.046	14747.93
625.24	14848.29
625.435	14598.43
625.629	14915.87
625.824	15020.31
626.018	14725.41
626.213	14450.98
626.407	14690.59
626.602	14416.16
626.796	14866.72
626.991	14567.71
627.185	14342.44
627.38	14684.45
627.574	14297.38
627.768	14182.7
627.963	14123.3
628.157	14215.46
628.352	14016.81
628.546	13793.58
628.74	14637.34
628.935	13949.23
629.129	14084.39
629.323	14070.06
629.517	13908.27
629.712	13809.97
629.906	13959.47
630.1	13769.01
630.294	14237.99
630.489	13861.16
630.683	13789.49
630.877	13629.74
631.071	13703.47
631.265	13410.61
631.459	13674.8
631.653	13293.88
631.848	13621.55
632.042	13558.07
632.236	13388.08
632.43	13244.73
632.624	13211.96
632.818	13070.65
633.012	13168.95
633.206	13297.97
633.4	13119.8
633.594	12962.11
633.788	12876.09
633.982	13021.5
634.176	13214.01
634.369	12820.8
634.563	12673.34
634.757	12501.31
634.951	12939.58
635.145	12796.22
635.339	12599.62
635.533	12761.41
635.726	12732.73
635.92	12423.49
636.114	12247.37
636.308	12042.57
636.501	12304.71
636.695	12155.21
636.889	11764.04
637.083	11745.61
637.276	11929.93
637.47	11542.86
637.664	11452.75
637.857	11524.43
638.051	11657.55
638.244	11602.25
638.438	11284.82
638.632	11141.46
638.825	10836.31
639.019	11090.26
639.212	10854.75
639.406	10881.37
639.599	10768.73
639.793	10428.77
639.986	10510.69
640.18	10522.98
640.373	10334.56
640.567	10338.66
640.76	10420.58
640.954	10180.96
641.147	10111.33
641.34	9904.49
641.534	9822.57
641.727	9642.35
641.92	9910.63
642.114	9458.03
642.307	9163.12
642.5	9308.53
642.694	8939.9
642.887	9152.88
643.08	9271.67
643.273	8896.89
643.467	8966.52
643.66	8556.93
643.853	8472.96
644.046	8583.55
644.239	8466.81
644.432	8196.48
644.626	7987.59
644.819	7960.97
645.012	8173.96
645.205	8030.6
645.398	7854.47
645.591	7793.03
645.784	7494.03
645.977	7281.04
646.17	7604.62
646.363	7424.4
646.556	7201.17
646.749	7111.06
646.942	7219.6
647.135	6926.74
647.328	7047.57
647.521	6975.89
647.714	6689.18
647.907	6803.86
648.099	6627.74
648.292	6814.1
648.485	6627.74
648.678	6324.64
648.871	6252.96
649.064	6302.11
649.256	6033.83
649.449	5937.57
649.642	6048.16
649.835	6029.73
650.027	5835.17
650.22	6003.11
650.413	5896.61
650.605	5970.34
650.798	5890.47
650.991	5675.43
651.183	5765.54
651.376	5646.76
651.568	5681.58
651.761	5284.27
651.954	5484.97
652.146	5499.31
652.339	5280.18
652.531	5460.4
652.724	5269.94
652.916	5210.54
653.109	5009.84
653.301	5210.54
653.494	5167.54
653.686	5159.35
653.879	5245.36
654.071	5030.32
654.263	5233.07
654.456	4913.59
654.648	5044.66
654.84	4938.16
655.033	4815.29
655.225	4932.02
655.417	4587.96
655.61	4706.74
655.802	4919.73
655.994	5063.09
656.186	4647.35
656.379	4745.66
656.571	4626.87
656.763	4497.85
656.955	4551.1
657.148	4303.29
657.34	4561.34
657.532	4448.7
657.724	4254.14
657.916	4352.45
658.108	4497.85
658.3	4325.82
658.492	4350.4
658.684	4080.07
658.876	4268.48
659.068	3971.52
659.26	3840.45
659.452	3744.2
659.644	3920.32
659.836	4090.31
660.028	3719.62
660.22	3662.28
660.412	3774.92
660.604	3641.8
660.796	3588.55
660.988	3430.86
661.18	3602.89
661.372	3445.2
661.563	3373.52
661.755	3086.8
661.947	3203.54
662.139	3248.59
662.331	3072.47
662.522	3121.62
662.714	3008.98
662.906	2955.73
663.097	2902.48
663.289	2732.5
663.481	2701.78
663.673	2894.29
663.864	2660.82
664.056	2691.54
664.247	2634.2
664.439	2748.89
664.631	2456.03
664.822	2470.36
665.014	2759.13
665.205	2447.83
665.397	2327
665.588	2355.68
665.78	2353.63
665.971	2320.86
666.163	2099.68
666.354	2042.34
666.546	2017.76
666.737	2193.89
666.929	1999.33
667.12	1866.21
667.311	2081.25
667.503	1954.27
667.694	1974.75
667.885	1923.55
668.077	1987.04
668.268	1716.71
668.459	1712.61
668.651	1698.28
668.842	1747.43
669.033	1630.7
669.224	1599.98
669.416	1839.59
669.607	1546.73
669.798	1602.02
669.989	1524.2
670.18	1526.25
670.371	1679.85
670.563	1311.21
670.754	1495.53
670.945	1458.67
671.136	1606.12
671.327	1339.88
671.518	1323.5
671.709	1341.93
671.9	1550.82
672.091	1591.78
672.282	1264.11
672.473	1212.91
672.664	1141.23
672.855	1339.88
673.046	1184.24
673.237	1182.19
673.428	1333.74
673.619	1409.51
673.809	1069.55
674	1327.6
674.191	1327.6
674.382	1257.96
674.573	1081.84
674.764	1083.89
674.954	1427.95
675.145	1073.65
675.336	903.67
675.527	999.92
675.717	1155.57
675.908	989.68
676.099	907.76
676.289	956.91
676.48	948.72
676.671	1102.32
676.861	958.96
677.052	813.56
677.243	1106.42
677.433	1008.11
677.624	1094.13
677.814	1026.54
678.005	991.73
678.195	1231.34
678.386	928.24
678.576	887.28
678.767	872.95
678.957	1110.51
679.148	969.2
679.338	981.49
679.529	1143.28
679.719	1057.26
679.909	1096.18
680.1	889.33
680.29	1151.47
680.481	920.05
680.671	965.11
680.861	889.33
681.052	1135.09
681.242	850.42
681.432	1083.89
681.622	991.73
681.813	877.04
682.003	1174
682.193	823.8
682.383	965.11
682.573	1135.09
682.764	1143.28
682.954	1094.13
683.144	1276.4
683.334	1102.32
683.524	1159.66
683.714	1133.04
683.904	1180.14
684.094	1251.82
684.284	1331.69
684.474	1354.22
684.664	1309.16
684.854	1409.51
685.044	1372.65
685.234	1309.16
685.424	1239.53
685.614	1417.71
685.804	1704.42
685.994	1653.22
686.184	1624.55
686.374	1806.82
686.564	1724.9
686.753	1718.76
686.943	1735.14
687.133	1860.07
687.323	1784.29
687.513	2042.34
687.702	1839.59
687.892	2079.2
688.082	2251.23
688.272	2163.17
688.461	2150.88
688.651	2507.23
688.841	2404.83
689.03	2419.16
689.22	2355.68
689.41	2591.19
689.599	2701.78
689.789	2570.71
689.979	2716.12
690.168	2824.66
690.358	3025.36
690.547	2800.09
690.737	3070.42
690.926	3256.78
691.116	3078.61
691.305	3181.01
691.495	3176.91
691.684	3350.99
691.874	3414.48
692.063	3342.8
692.252	3514.83
692.442	3793.35
692.631	3705.29
692.82	3611.08
693.01	3803.59
693.199	4153.79
693.388	4159.94
693.578	4096.45
693.767	4202.94
693.956	4295.1
694.146	4311.49
694.335	4323.77
694.524	4211.14
694.713	4645.31
694.902	4504
695.092	4569.53
695.281	4491.71
695.47	4729.27
695.659	4938.16
695.848	4786.61
696.037	4968.88
696.226	5069.23
696.415	5056.95
696.604	5140.91
696.793	5083.57
696.982	5259.7
697.171	5626.28
697.36	5054.9
697.549	5253.55
697.738	5192.11
697.927	5392.81
698.116	5431.73
698.305	5706.15
698.494	5708.2
698.683	5601.71
698.872	5798.31
699.061	5564.84
699.25	5824.94
699.438	5720.49
699.627	5747.11
699.816	6064.55
700.005	5708.2
700.193	5808.55
700.382	6044.07
700.571	5974.44
700.76	6269.34
700.948	6166.95
701.137	6031.78
701.326	6136.23
701.514	6154.66
701.703	6146.47
701.892	6240.67
702.08	6379.93
702.269	6201.76
702.457	6187.43
702.646	6201.76
702.834	6005.16
703.023	6492.57
703.212	6519.2
703.4	6369.69
703.589	6197.67
703.777	6445.47
703.965	6390.17
704.154	6173.09
704.342	6191.52
704.531	6408.61
704.719	6312.35
704.907	6300.06
705.096	6189.47
705.284	6437.28
705.472	6556.06
705.661	6338.98
705.849	6474.14
706.037	6830.49
706.226	6506.91
706.414	6472.09
706.602	6431.13
706.79	6801.82
706.979	6560.16
707.167	6338.98
707.355	6455.71
707.543	6537.63
707.731	6592.92
707.919	6541.72
708.107	6355.36
708.296	6439.33
708.484	6271.39
708.672	6486.43
708.86	6349.22
709.048	6404.51
709.236	6302.11
709.424	6455.71
709.612	6308.26
709.8	6279.58
709.988	6412.7
710.176	6302.11
710.364	6615.45
710.551	6412.7
710.739	6332.83
710.927	6199.71
711.115	6332.83
711.303	6547.87
711.491	6494.62
711.679	6105.51
711.866	6152.61
712.054	6398.37
712.242	6400.41
712.43	6463.9
712.617	6136.23
712.805	6408.61
712.993	6128.03
713.181	6021.54
713.368	6220.19
713.556	6388.13
713.744	6097.31
713.931	6144.42
714.119	6195.62
714.306	6228.38
714.494	6138.27
714.682	5982.63
714.869	6130.08
715.057	6125.99
715.244	6003.11
715.432	6138.27
715.619	5826.98
715.807	6029.73
715.994	6029.73
716.182	5980.58
716.369	5960.1
716.556	6162.85
716.744	5788.07
716.931	5806.5
717.119	5769.64
717.306	5904.81
717.493	5935.53
717.681	5747.11
717.868	5720.49
718.055	5980.58
718.242	5843.37
718.43	5767.59
718.617	5622.19
718.804	5878.18
718.991	5960.1
719.179	5454.25
719.366	5564.84
719.553	5720.49
719.74	5743.02
719.927	5409.2
720.114	5519.79
720.301	5317.04
720.488	5482.92
720.676	5292.46
720.863	5446.06
721.05	5892.52
721.237	5587.37
721.424	5591.47
721.611	5401.01
721.798	5339.57
721.985	5355.95
722.172	5304.75
722.358	5093.81
722.545	5667.24
722.732	5321.13
722.919	5384.62
723.106	5198.26
723.293	5241.26
723.48	5226.93
723.667	5097.91
723.853	5190.06
724.04	5351.85
724.227	5380.53
724.414	5061.04
724.6	5079.47
724.787	5341.61
724.974	5360.05
725.161	5126.58
725.347	4784.57
725.534	5112.24
725.72	5032.37
725.907	5026.23
726.094	4923.83
726.28	4995.51
726.467	5003.7
726.653	4725.18
726.84	4733.37
727.027	5106.1
727.213	4831.67
727.4	4886.97
727.586	4823.48
727.773	4854.2
727.959	4870.58
728.145	4704.7
728.332	4633.02
728.518	4841.91
728.705	5054.9
728.891	4362.69
729.077	4553.15
729.264	4575.67
729.45	4633.02
729.636	4565.43
729.823	4495.8
730.009	4850.1
730.195	4577.72
730.382	4622.78
730.568	4370.88
730.754	4704.7
730.94	4534.71
731.126	4649.4
731.313	4334.01
731.499	4487.61
731.685	4553.15
731.871	4649.4
732.057	4325.82
732.243	4690.36
732.429	4489.66
732.615	4430.27
732.801	4219.33
732.987	4354.49
733.173	4374.97
733.359	4241.86
733.545	4239.81
733.731	4198.85
733.917	4544.95
734.103	4217.28
734.289	4311.49
734.475	4116.93
734.661	4549.05
734.847	4186.56
735.033	4065.73
735.219	4215.23
735.404	4131.26
735.59	4020.67
735.776	4008.39
735.962	4123.07
736.148	4260.29
736.333	3987.91
736.519	4004.29
736.705	4159.94
736.89	3987.91
737.076	3924.42
737.262	3883.46
737.447	3899.84
737.633	4010.43
737.819	3912.13
738.004	3903.94
738.19	3914.18
738.375	4059.59
738.561	3744.2
738.747	3826.12
738.932	3783.11
739.118	4078.02
739.303	3779.01
739.489	3772.87
739.674	3764.68
739.859	3690.95
740.045	3699.14
740.23	3680.71
740.416	3584.46
740.601	3615.18
740.786	3635.66
740.972	3402.19
741.157	3602.89
741.342	3404.24
741.528	3502.54
741.713	3574.22
741.898	3518.92
742.084	3654.09
742.269	3287.5
742.454	3527.11
742.639	3688.9
742.824	3377.61
743.01	3523.02
743.195	3461.58
743.38	3533.26
743.565	3330.51
743.75	3236.3
743.935	3461.58
744.12	3549.64
744.305	3158.48
744.49	3189.2
744.675	3318.22
744.86	3338.7
745.045	3387.85
745.23	3148.24
745.415	3189.2
745.6	3482.06
745.785	3205.58
745.97	3140.05
746.155	3117.52
746.34	3267.02
746.525	3285.45
746.71	2984.4
746.895	2853.33
747.079	2927.06
747.264	3064.27
747.449	3051.99
747.634	3068.37
747.819	3117.52
748.003	2943.44
748.188	2744.79
748.373	2931.16
748.557	3033.55
748.742	3039.7
748.927	2832.85
749.111	2779.61
749.296	2929.11
749.481	2941.4
749.665	2812.37
749.85	2685.4
750.034	2920.92
750.219	2791.89
750.404	2767.32
750.588	2662.87
750.773	2550.23
750.957	2767.32
751.141	2499.03
751.326	2683.35
751.51	2546.14
751.695	2738.65
751.879	2484.7
752.064	2669.02
752.248	2611.67
752.432	2740.69
752.617	2445.79
752.801	2587.1
752.985	2531.8
753.17	2613.72
753.354	2396.64
753.538	2435.55
753.722	2564.57
753.907	2304.48
754.091	2148.83
754.275	2251.23
754.459	2173.41
754.643	2261.47
754.828	2355.68
755.012	2130.4
755.196	2236.89
755.38	2382.3
755.564	2109.92
755.748	2191.84
755.932	2359.77
756.116	2277.85
756.3	2259.42
756.484	2099.68
756.668	2306.52
756.852	2062.82
757.036	2058.72
757.22	2103.78
757.404	2073.06
757.588	2030.05
757.772	2126.3
757.956	2011.62
758.14	2290.14
758.323	1962.47
758.507	1962.47
758.691	1960.42
758.875	2224.61
759.059	2144.74
759.242	1851.88
759.426	1804.77
759.61	1935.84
759.794	1833.44
759.977	1933.79
760.161	2273.76
760.345	1999.33
760.528	1847.78
760.712	1612.26
760.895	1851.88
761.079	1853.92
761.263	1581.54
761.446	1530.34
761.63	1563.11
761.813	1669.61
761.997	1518.06
762.18	1647.08
762.364	1628.65
762.547	1487.34
762.731	1602.02
762.914	1587.69
763.098	1511.91
763.281	1624.55
763.464	1546.73
763.648	1702.37
763.831	1591.78
764.015	1473
764.198	1761.77
764.381	1616.36
764.564	1460.71
764.748	1634.79
764.931	1712.61
765.114	1450.47
765.297	1579.5
765.481	1499.63
765.664	1614.31
765.847	1550.82
766.03	1608.17
766.213	1606.12
766.397	1673.7
766.58	1491.43
766.763	1692.13
766.946	1587.69
767.129	1497.58
767.312	1513.96
767.495	1391.08
767.678	1556.97
767.861	1647.08
768.044	1511.91
768.227	1419.75
768.41	1628.65
768.593	1583.59
768.776	1561.06
768.959	1440.23
769.142	1878.5
769.324	1548.78
769.507	1532.39
769.69	1485.29
769.873	1634.79
770.056	1905.12
770.239	1489.39
770.421	1655.27
770.604	1712.61
770.787	1505.77
770.97	1485.29
771.152	1352.17
771.335	1706.47
771.518	1393.13
771.7	1386.99
771.883	1575.4
772.066	1528.3
772.248	1661.41
772.431	1462.76
772.613	1505.77
772.796	1618.41
772.978	1589.74
773.161	1491.43
773.343	1337.84
773.526	1434.09
773.708	1341.93
773.891	1219.05
774.073	1329.64
774.256	1497.58
774.438	1729
774.621	1288.68
774.803	1376.75
774.985	1423.85
775.168	1470.95
775.35	1397.23
775.532	1440.23
775.715	1350.12
775.897	1358.32
776.079	1239.53
776.261	1397.23
776.444	1403.37
776.626	1223.15
776.808	1233.39
776.99	1094.13
777.173	1413.61
777.355	1198.57
777.537	1200.62
777.719	1219.05
777.901	1278.44
778.083	1128.94
778.265	1231.34
778.447	1343.98
778.629	1192.43
778.811	1296.88
778.993	1167.85
779.175	1307.12
779.357	1286.64
779.539	1161.71
779.721	1159.66
779.903	1075.7
780.085	1194.48
780.267	1167.85
780.449	1016.3
780.631	1212.91
780.812	1327.6
780.994	1264.11
781.176	1042.93
781.358	983.54
781.54	1157.61
781.721	1227.25
781.903	965.11
782.085	1004.02
782.267	1245.68
782.448	975.35
782.63	975.35
782.812	969.2
782.993	1090.03
783.175	1186.29
783.357	1028.59
783.538	1141.23
783.72	1010.16
783.901	1044.98
784.083	963.06
784.264	989.68
784.446	891.38
784.627	893.43
784.809	1010.16
784.99	836.08
785.172	985.58
785.353	940.53
785.535	965.11
785.716	715.25
785.897	887.28
786.079	907.76
786.26	874.99
786.441	952.82
786.623	651.77
786.804	840.18
786.985	864.75
787.167	731.64
787.348	926.19
787.529	827.89
787.71	899.57
787.891	881.14
788.073	848.37
788.254	735.73
788.435	913.91
788.616	666.1
788.797	664.05
788.978	793.08
789.159	713.21
789.34	836.08
789.522	776.69
789.703	782.84
789.884	750.07
790.065	776.69
790.246	1047.02
790.427	696.82
790.607	705.01
790.788	760.31
790.969	711.16
791.15	784.88
791.331	643.57
791.512	637.43
791.693	643.57
791.874	688.63
792.054	913.91
792.235	688.63
792.416	717.3
792.597	580.09
792.778	580.09
792.958	547.32
793.139	834.04
793.32	670.2
793.5	481.78
793.681	739.83
793.862	768.5
794.042	731.64
794.223	520.7
794.404	500.22
794.584	451.07
794.765	647.67
794.945	629.24
795.126	739.83
795.306	737.78
795.487	598.52
795.667	512.5
795.848	508.41
796.028	655.86
796.209	643.57
796.389	649.72
796.57	481.78
796.75	596.47
796.93	657.91
797.111	518.65
797.291	459.26
797.471	680.44
797.652	662.01
797.832	477.69
798.012	553.46
798.192	537.08
798.373	434.68
798.553	432.63
798.733	649.72
798.913	451.07
799.093	653.81
799.274	541.18
799.454	582.14
799.634	721.4
799.814	725.49
799.994	442.87
800.174	522.74
800.354	508.41
800.534	401.91
800.714	500.22
800.894	328.19
801.074	451.07
801.254	383.48
801.434	598.52
801.614	455.16
801.794	326.14
801.974	4721.08
802.154	412.15
802.334	582.14
802.514	451.07
802.693	496.12
802.873	340.47
803.053	573.94
803.233	641.53
803.413	555.51
803.592	408.06
803.772	385.53
803.952	471.54
804.131	320
804.311	479.74
804.491	481.78
804.67	406.01
804.85	367.1
805.03	444.92
805.209	604.66
805.389	465.4
805.568	403.96
805.748	395.77
805.928	373.24
806.107	582.14
806.287	504.31
806.466	438.78
806.646	342.52
806.825	406.01
807.004	373.24
807.184	317.95
807.363	440.83
807.543	424.44
807.722	231.93
807.901	518.65
808.081	317.95
808.26	197.12
808.439	322.04
808.619	369.15
808.798	270.84
808.977	543.22
809.156	535.03
809.336	399.87
809.515	410.11
809.694	334.33
809.873	377.34
810.052	360.95
810.231	561.66
810.411	526.84
810.59	477.69
810.769	258.56
810.948	414.2
811.127	178.69
811.306	299.52
811.485	199.16
811.664	424.44
811.843	399.87
812.022	451.07
812.201	285.18
812.38	217.6
812.559	252.41
812.737	426.49
812.916	156.16
813.095	201.21
813.274	537.08
813.453	375.29
813.632	328.19
813.811	510.46
813.989	186.88
814.168	367.1
814.347	174.59
814.526	268.8
814.704	598.52
814.883	535.03
815.062	143.87
815.24	246.27
815.419	170.49
815.598	416.25
815.776	14.85
815.955	295.42
816.133	135.68
816.312	358.91
816.49	227.84
816.669	293.37
816.847	367.1
817.026	373.24
817.204	252.41
817.383	279.04
817.561	160.25
817.74	367.1
817.918	176.64
818.097	174.59
818.275	229.88
818.453	426.49
818.632	285.18
818.81	276.99
818.988	250.36
819.167	221.69
819.345	217.6
819.523	162.3
819.701	363
819.879	352.76
820.058	285.18
820.236	141.82
820.414	367.1
820.592	260.6
820.77	268.8
820.948	174.59
821.127	291.32
821.305	342.52
821.483	49.66
821.661	225.79
821.839	369.15
822.017	170.49
822.195	88.57
822.373	221.69
822.551	371.19
822.729	340.47
822.907	176.64
823.085	240.12
823.262	334.33
823.44	229.88
823.618	147.97
823.796	178.69
823.974	303.61
824.152	168.45
824.329	172.54
824.507	211.45
824.685	348.67
824.863	293.37
825.04	211.45
825.218	190.97
825.396	313.85
825.574	274.94
825.751	188.93
825.929	203.26
826.107	213.5
826.284	236.03
826.462	88.57
826.639	92.67
826.817	121.34
826.994	211.45
827.172	90.62
827.349	274.94
827.527	348.67
827.704	176.64
827.882	211.45
828.059	133.63
828.237	377.34
828.414	377.34
828.591	45.57
828.769	184.83
828.946	141.82
829.124	342.52
829.301	322.04
829.478	113.15
829.655	221.69
829.833	254.46
830.01	35.33
830.187	279.04
830.364	252.41
830.542	238.08
830.719	248.32
830.896	186.88
831.073	326.14
831.25	281.08
831.427	102.91
831.604	139.77
831.782	156.16
831.959	307.71
832.136	215.55
832.313	186.88
832.49	182.78
832.667	225.79
832.844	107.01
833.021	223.74
833.198	281.08
833.374	301.56
833.551	154.11
833.728	162.3
833.905	303.61
834.082	-26.11
834.259	197.12
834.436	252.41
834.612	102.91
834.789	434.68
834.966	82.43
835.143	133.63
835.319	31.23
835.496	322.04
835.673	184.83
835.85	160.25
836.026	264.7
836.203	348.67
836.38	74.24
836.556	109.05
836.733	195.07
836.909	369.15
837.086	139.77
837.262	-17.92
837.439	86.53
837.616	162.3
837.792	186.88
837.968	102.91
838.145	-3.58
838.321	240.12
838.498	137.73
838.674	352.76
838.851	297.47
839.027	119.29
839.203	133.63
839.38	211.45
839.556	162.3
839.732	154.11
839.909	90.62
840.085	238.08
840.261	27.14
840.437	195.07
840.614	35.33
840.79	186.88
840.966	287.23
841.142	285.18
841.318	145.92
841.494	100.86
841.671	324.09
841.847	104.96
842.023	59.9
842.199	100.86
842.375	383.48
842.551	-17.92
842.727	-36.35
842.903	256.51
843.079	31.23
843.255	352.76
843.431	78.33
843.607	199.16
843.783	-169.47
843.959	186.88
844.134	8.7
844.31	301.56
844.486	80.38
844.662	23.04
844.838	113.15
845.013	84.48
845.189	256.51
845.365	145.92
845.541	80.38
845.716	225.79
845.892	352.76
846.068	121.34
846.244	107.01
846.419	72.19
846.595	107.01
846.77	76.29
846.946	158.21
847.122	55.81
847.297	137.73
847.473	342.52
847.648	45.57
847.824	53.76
847.999	-44.54
848.175	143.87
848.35	250.36
848.526	254.46
848.701	303.61
848.876	356.86
849.052	352.76
849.227	49.66
849.403	195.07
849.578	109.05
849.753	205.31
849.929	80.38
850.104	64
850.279	133.63
850.454	129.53
850.63	147.97
850.805	260.6
850.98	174.59
851.155	109.05
851.33	184.83
851.505	-9.73
851.681	356.86
851.856	109.05
852.031	170.49
852.206	154.11
852.381	70.14
852.556	43.52
852.731	33.28
852.906	233.98
853.081	252.41
853.256	227.84
853.431	74.24
853.606	25.09
853.781	16.9
853.956	-85.5
854.131	64
854.305	14.85
854.48	209.4
854.655	12.8
854.83	98.81
855.005	125.44
855.18	258.56
855.354	43.52
855.529	-1.54
855.704	172.54
855.879	203.26
856.053	-26.11
856.228	84.48
856.403	41.47
856.577	252.41
856.752	-22.02
856.926	129.53
857.101	203.26
857.276	-75.26
857.45	86.53
857.625	125.44
857.799	221.69
857.974	90.62
858.148	-122.37
858.323	164.35
858.497	12.8
858.672	45.57
858.846	14.85
859.02	113.15
859.195	35.33
859.369	82.43
859.543	145.92
859.718	205.31
859.892	291.32
860.066	154.11
860.241	100.86
860.415	10.75
860.589	123.39
860.763	211.45
860.938	127.49
861.112	6.66
861.286	86.53
861.46	207.36
861.634	123.39
861.808	59.9
861.982	25.09
862.157	-7.68
862.331	107.01
862.505	-28.16
862.679	-54.78
862.853	117.25
863.027	-7.68
863.201	119.29
863.375	113.15
863.549	238.08
863.722	242.17
863.896	190.97
864.07	57.86
864.244	147.97
864.418	176.64
864.592	147.97
864.766	180.73
864.939	152.06
865.113	41.47
865.287	223.74
865.461	68.09
865.634	211.45
865.808	98.81
865.982	6.66
866.156	33.28
866.329	-17.92
866.503	66.05
866.676	162.3
866.85	166.4
867.024	-15.87
867.197	238.08
867.371	88.57
867.544	242.17
867.718	-40.45
867.891	219.64
868.065	-101.89
868.238	190.97
868.412	238.08
868.585	2.56
868.759	47.62
868.932	-36.35
869.105	-32.26
869.279	107.01
869.452	-60.93
869.625	279.04
869.799	74.24
869.972	-110.08
870.145	37.38
870.319	240.12
870.492	14.85
870.665	86.53
870.838	-26.11
871.011	-120.32
871.185	74.24
871.358	12.8
871.531	115.2
871.704	-13.82
871.877	156.16
872.05	4.61
872.223	-46.59
872.396	328.19
872.569	281.08
872.742	-5.63
872.915	139.77
873.088	164.35
873.261	66.05
873.434	197.12
873.607	2.56
873.78	283.13
873.953	-38.4
874.126	12.8
874.299	84.48
874.471	121.34
874.644	47.62
874.817	117.25
874.99	160.25
875.163	82.43
875.335	195.07
875.508	6.66
875.681	135.68
875.853	139.77
876.026	102.91
876.199	188.93
876.371	-1.54
876.544	143.87
876.717	145.92
876.889	-1.54
877.062	129.53
877.234	-24.06
877.407	4.61
877.579	98.81
877.752	96.77
877.924	258.56
878.097	211.45
878.269	244.22
878.442	172.54
878.614	231.93
878.786	135.68
878.959	43.52
879.131	240.12
879.303	-71.17
879.476	113.15
879.648	203.26
879.82	-28.16
879.993	64
880.165	2.56
880.337	-7.68
880.509	131.58
880.681	-36.35
880.854	-79.36
881.026	129.53
881.198	164.35
881.37	162.3
881.542	115.2
881.714	61.95
881.886	-3.58
882.058	102.91
882.23	160.25
882.402	-3.58
882.574	184.83
882.746	285.18
882.918	223.74
883.09	115.2
883.262	74.24
883.434	211.45
883.606	-93.69
883.778	88.57
883.95	190.97
884.122	12.8
884.293	262.65
884.465	10.75
884.637	203.26
884.809	47.62
884.98	143.87
885.152	172.54
885.324	154.11
885.496	14.85
885.667	55.81
885.839	12.8
886.011	66.05
886.182	211.45
886.354	190.97
886.525	131.58
886.697	33.28
886.869	-42.5
887.04	27.14
887.212	223.74
887.383	195.07
887.555	156.16
887.726	39.42
887.897	31.23
888.069	-67.07
888.24	334.33
888.412	14.85
888.583	18.94
888.754	0.51
888.926	-75.26
889.097	35.33
889.268	-83.45
889.44	33.28
889.611	-34.3
889.782	-52.74
889.953	-103.93
890.125	49.66
890.296	-40.45
890.467	86.53
890.638	-32.26
890.809	61.95
890.98	-17.92
891.151	172.54
891.323	156.16
891.494	-46.59
891.665	66.05
891.836	90.62
892.007	14.85
892.178	166.4
892.349	111.1
892.52	10.75
892.691	107.01
892.862	27.14
893.032	-165.37
893.203	47.62
893.374	145.92
893.545	176.64
893.716	33.28
893.887	186.88
894.057	-62.98
894.228	61.95
894.399	23.04
894.57	207.36
894.74	51.71
894.911	49.66
895.082	129.53
895.253	66.05
895.423	61.95
895.594	84.48
895.764	246.27
895.935	-148.99
896.106	45.57
896.276	-97.79
896.447	145.92
896.617	-97.79
896.788	-56.83
896.958	-32.26
897.129	2.56
897.299	35.33
897.47	231.93
897.64	139.77
897.81	53.76
897.981	215.55
898.151	-34.3
898.322	70.14
898.492	160.25
898.662	-48.64
898.832	64
899.003	-81.41
899.173	219.64
899.343	-17.92
899.513	-105.98
