Data from USB4F104151__23__12-16-04-145.txt Node

Date: Wed Feb 19 12:16:04 EST 2025
User: louis
Spectrometer: USB4F10415
Trigger mode: 4
Integration Time (sec): 2.250200E-1
Scans to average: 1
Electric dark correction enabled: true
Nonlinearity correction enabled: false
Boxcar width: 0
XAxis mode: Wavelengths
Number of Pixels in Spectrum: 3648
>>>>>Begin Spectral Data<<<<<
178.204	-797.34
178.424	-797.34
178.644	-797.34
178.864	-873.12
179.084	-836.25
179.304	87.38
179.524	138.58
179.744	30.04
179.964	-189.1
180.184	216.4
180.404	283.98
180.624	-246.44
180.844	-137.9
181.064	-27.31
181.283	214.35
181.503	-256.68
181.723	-113.32
181.943	-51.88
182.163	425.29
182.383	-197.29
182.602	-182.95
182.822	460.11
183.042	216.4
183.262	-191.14
183.482	-187.05
183.701	95.57
183.921	226.64
184.141	-172.71
184.361	-125.61
184.58	238.93
184.8	228.69
185.02	-182.95
185.239	-60.07
185.459	277.84
185.679	447.82
185.898	-252.58
186.118	-277.16
186.338	283.98
186.557	290.13
186.777	-217.77
186.997	-219.82
187.216	177.49
187.436	466.25
187.655	-107.18
187.875	-6.83
188.095	230.74
188.314	361.81
188.534	-101.03
188.753	-266.92
188.973	386.38
189.192	415.05
189.412	-234.15
189.631	-164.52
189.851	341.33
190.07	466.25
190.29	-221.86
190.509	-203.43
190.729	206.16
190.948	419.15
191.168	-70.31
191.387	-180.9
191.607	218.45
191.826	267.6
192.045	-129.7
192.265	-156.33
192.484	359.76
192.704	202.07
192.923	-230.06
193.142	-21.16
193.362	265.55
193.581	324.94
193.8	-55.98
194.02	-111.27
194.239	251.22
194.458	351.57
194.678	-141.99
194.897	-244.39
195.116	251.22
195.335	308.56
195.555	-191.14
195.774	-252.58
195.993	464.21
196.212	191.83
196.432	-113.32
196.651	-195.24
196.87	179.54
197.089	550.22
197.308	-160.42
197.528	-176.81
197.747	50.52
197.966	177.49
198.185	-19.11
198.404	-197.29
198.623	306.51
198.842	333.14
199.062	-170.66
199.281	-98.99
199.5	329.04
199.719	310.61
199.938	-230.06
200.157	-156.33
200.376	343.38
200.595	482.64
200.814	-170.66
201.033	-201.38
201.252	443.73
201.471	300.37
201.69	-168.62
201.909	-131.75
202.128	425.29
202.347	337.23
202.566	-115.37
202.785	-330.41
203.004	105.81
203.223	505.17
203.442	-172.71
203.661	-297.64
203.879	292.18
204.098	417.1
204.317	-195.24
204.536	9.56
204.755	415.05
204.974	302.42
205.193	-338.6
205.411	-172.71
205.63	486.73
205.849	400.72
206.068	-230.06
206.287	-316.07
206.505	361.81
206.724	138.58
206.943	-252.58
207.162	-238.25
207.381	228.69
207.599	212.31
207.818	-107.18
208.037	-236.2
208.255	222.55
208.474	247.12
208.693	-154.28
208.911	-137.9
209.13	247.12
209.349	357.71
209.567	-21.16
209.786	-230.06
210.005	320.85
210.223	261.46
210.442	-295.59
210.661	-260.77
210.879	257.36
211.098	197.97
211.316	-150.18
211.535	-131.75
211.753	218.45
211.972	286.03
212.191	-156.33
212.409	-113.32
212.628	384.34
212.846	114
213.065	-240.3
213.283	-129.7
213.502	191.83
213.72	181.59
213.938	-127.66
214.157	-225.96
214.375	326.99
214.594	130.39
214.812	-117.42
215.031	-189.1
215.249	202.07
215.467	200.02
215.686	-113.32
215.904	-170.66
216.122	195.92
216.341	353.62
216.559	5.46
216.778	-117.42
216.996	410.96
217.214	208.21
217.432	-158.38
217.651	-273.06
217.869	230.74
218.087	195.92
218.306	-266.92
218.524	-223.91
218.742	200.02
218.96	392.53
219.179	-191.14
219.397	-178.86
219.615	406.86
219.833	224.59
220.051	-205.48
220.27	-82.6
220.488	331.09
220.706	228.69
220.924	-228.01
221.142	-185
221.36	204.11
221.578	279.89
221.796	-219.82
222.015	-53.93
222.233	197.97
222.451	445.77
222.669	-162.47
222.887	-70.31
223.105	161.11
223.323	175.44
223.541	-189.1
223.759	-156.33
223.977	179.54
224.195	460.11
224.413	-80.55
224.631	-131.75
224.849	253.27
225.067	466.25
225.285	-82.6
225.503	-125.61
225.721	7.51
225.939	191.83
226.157	-117.42
226.375	62.8
226.592	138.58
226.81	105.81
227.028	52.56
227.246	-160.42
227.464	279.89
227.682	349.52
227.9	-139.94
228.117	-133.8
228.335	232.79
228.553	171.35
228.771	-234.15
228.989	-125.61
229.206	302.42
229.424	181.59
229.642	-66.22
229.86	-125.61
230.077	496.97
230.295	222.55
230.513	-105.13
230.731	-117.42
230.948	429.39
231.166	431.44
231.384	-76.46
231.601	-158.38
231.819	533.84
232.037	50.52
232.254	-98.99
232.472	-203.43
232.689	167.25
232.907	298.32
233.125	-264.87
233.342	-232.1
233.56	154.96
233.777	152.91
233.995	-98.99
234.213	-113.32
234.43	329.04
234.648	177.49
234.865	-215.72
235.083	-123.56
235.3	189.78
235.518	281.94
235.735	-150.18
235.953	-107.18
236.17	218.45
236.388	138.58
236.605	15.7
236.822	-88.75
237.04	339.28
237.257	218.45
237.475	-178.86
237.692	-228.01
237.909	335.18
238.127	206.16
238.344	5.46
238.562	-168.62
238.779	56.66
238.996	25.94
239.214	-68.27
239.431	-117.42
239.648	148.82
239.865	243.03
240.083	-92.84
240.3	-211.62
240.517	71
240.735	230.74
240.952	7.51
241.169	-232.1
241.386	298.32
241.603	193.87
241.821	-129.7
242.038	-158.38
242.255	316.75
242.472	128.34
242.689	-41.64
242.907	-105.13
243.124	210.26
243.341	261.46
243.558	-101.03
243.775	-221.86
243.992	36.18
244.209	392.53
244.426	3.41
244.643	-72.36
244.86	255.31
245.078	322.9
245.295	-43.69
245.512	-164.52
245.729	40.28
245.946	230.74
246.163	-156.33
246.38	-172.71
246.597	212.31
246.814	232.79
247.031	-137.9
247.248	-219.82
247.464	292.18
247.681	195.92
247.898	-123.56
248.115	-101.03
248.332	134.48
248.549	408.91
248.766	-0.68
248.983	-60.07
249.2	341.33
249.417	372.05
249.633	-92.84
249.85	15.7
250.067	173.39
250.284	195.92
250.501	-223.91
250.717	-156.33
250.934	13.65
251.151	251.22
251.368	-72.36
251.585	-111.27
251.801	232.79
252.018	91.48
252.235	-33.45
252.451	-215.72
252.668	161.11
252.885	310.61
253.102	-101.03
253.318	-182.95
253.535	167.25
253.752	165.2
253.968	-146.09
254.185	-262.82
254.401	326.99
254.618	310.61
254.835	-55.98
255.051	-53.93
255.268	251.22
255.484	146.77
255.701	-141.99
255.917	-33.45
256.134	68.95
256.351	193.87
256.567	-199.34
256.784	-12.97
257	-21.16
257.217	374.1
257.433	73.04
257.65	-203.43
257.866	398.67
258.082	-23.21
258.299	-152.23
258.515	-94.89
258.732	167.25
258.948	126.29
259.165	-45.74
259.381	-180.9
259.597	275.79
259.814	136.53
260.03	-201.38
260.246	-162.47
260.463	367.95
260.679	335.18
260.895	-64.17
261.112	13.65
261.328	157.01
261.544	15.7
261.761	-164.52
261.977	-150.18
262.193	17.75
262.409	308.56
262.626	17.75
262.842	-117.42
263.058	128.34
263.274	279.89
263.49	-33.45
263.707	-178.86
263.923	433.49
264.139	23.89
264.355	-41.64
264.571	-115.37
264.787	283.98
265.004	333.14
265.22	17.75
265.436	-80.55
265.652	185.68
265.868	218.45
266.084	-178.86
266.3	-107.18
266.516	77.14
266.732	247.12
266.948	-111.27
267.164	-215.72
267.38	290.13
267.596	343.38
267.812	3.41
268.028	-82.6
268.244	195.92
268.46	173.39
268.676	-101.03
268.892	-0.68
269.108	-25.26
269.324	38.23
269.54	-170.66
269.756	-101.03
269.972	64.85
270.188	179.54
270.403	-139.94
270.619	-84.65
270.835	226.64
271.051	167.25
271.267	-187.05
271.483	-150.18
271.698	249.17
271.914	302.42
272.13	-64.17
272.346	-76.46
272.562	314.7
272.777	355.66
272.993	-35.5
273.209	-58.03
273.425	351.57
273.64	-72.36
273.856	-94.89
274.072	-248.49
274.287	161.11
274.503	238.93
274.719	36.18
274.934	-162.47
275.15	-47.79
275.366	101.72
275.581	-101.03
275.797	-2.73
276.012	185.68
276.228	75.09
276.444	-58.03
276.659	38.23
276.875	79.19
277.09	204.11
277.306	-109.23
277.521	-45.74
277.737	132.44
277.952	195.92
278.168	-90.79
278.383	-49.83
278.599	193.87
278.814	240.98
279.03	-125.61
279.245	116.05
279.461	75.09
279.676	218.45
279.892	-80.55
280.107	-88.75
280.322	140.63
280.538	271.7
280.753	-154.28
280.969	-94.89
281.184	253.27
281.399	179.54
281.615	32.08
281.83	97.62
282.045	-27.31
282.26	-39.59
282.476	-117.42
282.691	103.76
282.906	175.44
283.122	161.11
283.337	-29.35
283.552	-2.73
283.767	73.04
283.983	253.27
284.198	-88.75
284.413	-88.75
284.628	34.13
284.843	181.59
285.058	-19.11
285.274	-98.99
285.489	118.1
285.704	148.82
285.919	-55.98
286.134	-129.7
286.349	165.2
286.564	101.72
286.779	56.66
286.995	-78.51
287.21	-6.83
287.425	200.02
287.64	-72.36
287.855	144.72
288.07	-17.07
288.285	296.27
288.5	-41.64
288.715	-45.74
288.93	150.87
289.145	83.28
289.36	-113.32
289.575	-0.68
289.79	322.9
290.004	73.04
290.219	-2.73
290.434	-39.59
290.649	161.11
290.864	71
291.079	-131.75
291.294	-17.07
291.509	159.06
291.724	206.16
291.938	-103.08
292.153	-84.65
292.368	185.68
292.583	171.35
292.798	-51.88
293.012	25.94
293.227	298.32
293.442	142.68
293.657	68.95
293.871	-47.79
294.086	253.27
294.301	271.7
294.516	-27.31
294.73	73.04
294.945	50.52
295.16	101.72
295.374	46.42
295.589	101.72
295.804	87.38
296.018	136.53
296.233	-58.03
296.447	46.42
296.662	83.28
296.877	320.85
297.091	-19.11
297.306	-0.68
297.52	97.62
297.735	159.06
297.949	9.56
298.164	-156.33
298.378	165.2
298.593	5.46
298.807	-35.5
299.022	-2.73
299.236	265.55
299.451	48.47
299.665	-60.07
299.88	32.08
300.094	269.65
300.309	136.53
300.523	50.52
300.737	-129.7
300.952	173.39
301.166	269.65
301.381	-41.64
301.595	-178.86
301.809	177.49
302.024	134.48
302.238	-103.08
302.452	89.43
302.667	171.35
302.881	290.13
303.095	-8.87
303.309	99.67
303.524	75.09
303.738	87.38
303.952	81.24
304.166	50.52
304.381	-123.56
304.595	159.06
304.809	30.04
305.023	-78.51
305.237	152.91
305.452	81.24
305.666	-90.79
305.88	-25.26
306.094	292.18
306.308	185.68
306.522	-51.88
306.736	13.65
306.95	283.98
307.164	116.05
307.379	97.62
307.593	87.38
307.807	238.93
308.021	251.22
308.235	157.01
308.449	-115.37
308.663	148.82
308.877	529.74
309.091	75.09
309.305	83.28
309.519	-58.03
309.733	267.6
309.947	-182.95
310.161	-8.87
310.374	157.01
310.588	263.51
310.802	-82.6
311.016	17.75
311.23	234.83
311.444	-27.31
311.658	71
311.872	202.07
312.085	277.84
312.299	265.55
312.513	204.11
312.727	-62.12
312.941	40.28
313.154	179.54
313.368	21.84
313.582	25.94
313.796	181.59
314.009	144.72
314.223	114
314.437	25.94
314.651	249.17
314.864	21.84
315.078	-60.07
315.292	-98.99
315.505	30.04
315.719	220.5
315.933	85.33
316.146	-98.99
316.36	46.42
316.573	228.69
316.787	187.73
317.001	60.76
317.214	66.9
317.428	212.31
317.641	32.08
317.855	13.65
318.068	191.83
318.282	58.71
318.495	97.62
318.709	-10.92
318.922	114
319.136	177.49
319.349	36.18
319.563	38.23
319.776	185.68
319.99	-49.83
320.203	-72.36
320.417	-23.21
320.63	126.29
320.843	353.62
321.057	32.08
321.27	9.56
321.483	277.84
321.697	167.25
321.91	15.7
322.124	-43.69
322.337	91.48
322.55	1.37
322.763	-35.5
322.977	-115.37
323.19	130.39
323.403	116.05
323.617	68.95
323.83	167.25
324.043	144.72
324.256	240.98
324.469	-205.48
324.683	124.24
324.896	144.72
325.109	124.24
325.322	-70.31
325.535	79.19
325.748	300.37
325.962	152.91
326.175	46.42
326.388	-98.99
326.601	238.93
326.814	3.41
327.027	23.89
327.24	111.96
327.453	-53.93
327.666	195.92
327.879	79.19
328.092	32.08
328.305	314.7
328.518	169.3
328.731	-25.26
328.944	-109.23
329.157	175.44
329.37	79.19
329.583	204.11
329.796	44.37
330.009	-4.78
330.222	236.88
330.435	52.56
330.648	-119.46
330.861	228.69
331.073	120.15
331.286	126.29
331.499	3.41
331.712	91.48
331.925	138.58
332.138	81.24
332.35	30.04
332.563	118.1
332.776	331.09
332.989	-101.03
333.202	-98.99
333.414	173.39
333.627	54.61
333.84	-15.02
334.053	77.14
334.265	64.85
334.478	46.42
334.691	-55.98
334.903	200.02
335.116	36.18
335.329	52.56
335.541	21.84
335.754	189.78
335.966	48.47
336.179	200.02
336.392	-72.36
336.604	-2.73
336.817	200.02
337.029	245.07
337.242	-64.17
337.454	9.56
337.667	247.12
337.88	220.5
338.092	64.85
338.305	64.85
338.517	83.28
338.729	212.31
338.942	73.04
339.154	-27.31
339.367	71
339.579	210.26
339.792	-88.75
340.004	75.09
340.217	105.81
340.429	144.72
340.641	-66.22
340.854	-90.79
341.066	138.58
341.278	236.88
341.491	224.59
341.703	17.75
341.915	93.52
342.128	243.03
342.34	19.8
342.552	-60.07
342.764	142.68
342.977	204.11
343.189	25.94
343.401	21.84
343.613	30.04
343.826	157.01
344.038	-15.02
344.25	122.2
344.462	161.11
344.674	161.11
344.886	-37.55
345.099	15.7
345.311	154.96
345.523	58.71
345.735	-107.18
345.947	21.84
346.159	157.01
346.371	222.55
346.583	-27.31
346.795	77.14
347.007	120.15
347.219	187.73
347.431	7.51
347.643	120.15
347.855	107.86
348.067	236.88
348.279	-17.07
348.491	-33.45
348.703	322.9
348.915	134.48
349.127	-45.74
349.339	38.23
349.551	116.05
349.763	255.31
349.975	30.04
350.187	54.61
350.399	363.86
350.61	169.3
350.822	-19.11
351.034	-12.97
351.246	277.84
351.458	148.82
351.669	25.94
351.881	-35.5
352.093	374.1
352.305	228.69
352.517	-33.45
352.728	54.61
352.94	169.3
353.152	300.37
353.363	-117.42
353.575	38.23
353.787	410.96
353.999	206.16
354.21	93.52
354.422	-58.03
354.633	183.63
354.845	109.91
355.057	5.46
355.268	17.75
355.48	210.26
355.692	-29.35
355.903	32.08
356.115	-101.03
356.326	-80.55
356.538	298.32
356.749	-15.02
356.961	34.13
357.172	179.54
357.384	-33.45
357.595	214.35
357.807	-33.45
358.018	75.09
358.23	181.59
358.441	-49.83
358.653	-8.87
358.864	103.76
359.075	64.85
359.287	-0.68
359.498	87.38
359.709	228.69
359.921	212.31
360.132	9.56
360.344	-84.65
360.555	46.42
360.766	171.35
360.977	-101.03
361.189	101.72
361.4	87.38
361.611	283.98
361.823	5.46
362.034	15.7
362.245	42.32
362.456	85.33
362.667	122.2
362.879	-76.46
363.09	230.74
363.301	218.45
363.512	-98.99
363.723	-84.65
363.935	126.29
364.146	281.94
364.357	13.65
364.568	-55.98
364.779	60.76
364.99	222.55
365.201	17.75
365.412	109.91
365.623	36.18
365.834	230.74
366.045	71
366.256	11.61
366.467	261.46
366.678	75.09
366.889	-23.21
367.1	-37.55
367.311	341.33
367.522	136.53
367.733	64.85
367.944	79.19
368.155	181.59
368.366	245.07
368.577	66.9
368.788	152.91
368.999	1.37
369.209	111.96
369.42	9.56
369.631	353.62
369.842	232.79
370.053	163.15
370.264	3.41
370.474	-10.92
370.685	228.69
370.896	159.06
371.107	87.38
371.317	-0.68
371.528	144.72
371.739	236.88
371.95	60.76
372.16	17.75
372.371	87.38
372.582	81.24
372.792	-51.88
373.003	73.04
373.214	187.73
373.424	189.78
373.635	-29.35
373.846	105.81
374.056	187.73
374.267	146.77
374.477	140.63
374.688	-41.64
374.898	136.53
375.109	152.91
375.319	-0.68
375.53	83.28
375.74	202.07
375.951	46.42
376.161	103.76
376.372	58.71
376.582	124.24
376.793	200.02
377.003	-27.31
377.214	-49.83
377.424	226.64
377.635	251.22
377.845	-103.08
378.055	79.19
378.266	-19.11
378.476	128.34
378.686	7.51
378.897	54.61
379.107	337.23
379.317	214.35
379.528	-137.9
379.738	-33.45
379.948	-0.68
380.158	132.44
380.369	50.52
380.579	93.52
380.789	169.3
380.999	181.59
381.21	179.54
381.42	204.11
381.63	161.11
381.84	277.84
382.05	91.48
382.261	71
382.471	310.61
382.681	52.56
382.891	111.96
383.101	122.2
383.311	58.71
383.521	48.47
383.731	-25.26
383.941	240.98
384.151	212.31
384.361	11.61
384.571	-17.07
384.781	38.23
384.991	206.16
385.201	392.53
385.411	148.82
385.621	46.42
385.831	210.26
386.041	191.83
386.251	109.91
386.461	-10.92
386.671	114
386.881	146.77
387.091	42.32
387.301	89.43
387.511	54.61
387.72	228.69
387.93	132.44
388.14	-10.92
388.35	144.72
388.56	365.9
388.769	3.41
388.979	54.61
389.189	-49.83
389.399	187.73
389.609	-35.5
389.818	91.48
390.028	183.63
390.238	275.79
390.447	-88.75
390.657	71
390.867	197.97
391.076	-90.79
391.286	-10.92
391.496	-31.4
391.705	265.55
391.915	331.09
392.125	17.75
392.334	-10.92
392.544	345.42
392.753	152.91
392.963	-47.79
393.172	-8.87
393.382	165.2
393.591	382.29
393.801	-49.83
394.01	15.7
394.22	288.08
394.429	177.49
394.639	77.14
394.848	54.61
395.058	232.79
395.267	124.24
395.477	75.09
395.686	73.04
395.895	460.11
396.105	326.99
396.314	36.18
396.524	68.95
396.733	140.63
396.942	310.61
397.152	1.37
397.361	195.92
397.57	83.28
397.78	152.91
397.989	144.72
398.198	281.94
398.407	87.38
398.617	97.62
398.826	40.28
399.035	-74.41
399.244	236.88
399.453	175.44
399.663	-33.45
399.872	-66.22
400.081	13.65
400.29	341.33
400.499	-19.11
400.708	120.15
400.917	185.68
401.127	93.52
401.336	79.19
401.545	265.55
401.754	359.76
401.963	318.8
402.172	44.37
402.381	-66.22
402.59	140.63
402.799	97.62
403.008	111.96
403.217	32.08
403.426	234.83
403.635	-2.73
403.844	-33.45
404.053	-90.79
404.262	197.97
404.471	316.75
404.68	128.34
404.888	93.52
405.097	48.47
405.306	191.83
405.515	68.95
405.724	11.61
405.933	281.94
406.142	300.37
406.35	-10.92
406.559	32.08
406.768	163.15
406.977	431.44
407.185	54.61
407.394	54.61
407.603	46.42
407.812	208.21
408.02	204.11
408.229	120.15
408.438	136.53
408.646	-35.5
408.855	-90.79
409.064	-33.45
409.272	81.24
409.481	236.88
409.69	-76.46
409.898	-82.6
410.107	173.39
410.315	275.79
410.524	-6.83
410.733	-0.68
410.941	240.98
411.15	300.37
411.358	136.53
411.567	128.34
411.775	243.03
411.984	247.12
412.192	83.28
412.401	-58.03
412.609	415.05
412.818	359.76
413.026	107.86
413.234	34.13
413.443	167.25
413.651	46.42
413.86	-101.03
414.068	183.63
414.276	408.91
414.485	107.86
414.693	116.05
414.901	212.31
415.11	251.22
415.318	97.62
415.526	38.23
415.734	142.68
415.943	179.54
416.151	324.94
416.359	-35.5
416.567	107.86
416.776	224.59
416.984	218.45
417.192	185.68
417.4	-4.78
417.608	138.58
417.817	1.37
418.025	154.96
418.233	169.3
418.441	81.24
418.649	25.94
418.857	34.13
419.065	116.05
419.273	81.24
419.481	220.5
419.689	40.28
419.897	-58.03
420.105	21.84
420.313	310.61
420.521	142.68
420.729	103.76
420.937	105.81
421.145	50.52
421.353	9.56
421.561	128.34
421.769	288.08
421.977	114
422.185	95.57
422.393	122.2
422.601	236.88
422.809	263.51
423.017	15.7
423.224	-43.69
423.432	398.67
423.64	236.88
423.848	-47.79
424.056	-55.98
424.263	294.22
424.471	181.59
424.679	175.44
424.887	-29.35
425.094	494.93
425.302	259.41
425.51	-88.75
425.718	73.04
425.925	167.25
426.133	60.76
426.341	200.02
426.548	9.56
426.756	154.96
426.964	251.22
427.171	34.13
427.379	75.09
427.586	138.58
427.794	222.55
428.001	177.49
428.209	32.08
428.417	324.94
428.624	234.83
428.832	9.56
429.039	171.35
429.247	189.78
429.454	277.84
429.662	161.11
429.869	189.78
430.076	255.31
430.284	245.07
430.491	146.77
430.699	91.48
430.906	433.49
431.114	257.36
431.321	124.24
431.528	136.53
431.736	208.21
431.943	251.22
432.15	87.38
432.358	-4.78
432.565	478.54
432.772	-25.26
432.979	150.87
433.187	60.76
433.394	370
433.601	114
433.808	93.52
434.016	165.2
434.223	259.41
434.43	263.51
434.637	152.91
434.844	159.06
435.052	238.93
435.259	273.75
435.466	152.91
435.673	120.15
435.88	378.19
436.087	476.49
436.294	421.2
436.501	220.5
436.708	382.29
436.915	298.32
437.122	333.14
437.329	130.39
437.537	259.41
437.743	232.79
437.95	306.51
438.157	206.16
438.364	277.84
438.571	298.32
438.778	163.15
438.985	236.88
439.192	365.9
439.399	298.32
439.606	191.83
439.813	322.9
440.02	636.24
440.227	677.19
440.433	341.33
440.64	181.59
440.847	359.76
441.054	359.76
441.261	263.51
441.467	300.37
441.674	312.66
441.881	501.07
442.088	298.32
442.294	357.71
442.501	531.79
442.708	619.85
442.914	351.57
443.121	290.13
443.328	482.64
443.534	679.24
443.741	361.81
443.948	230.74
444.154	607.56
444.361	716.11
444.568	427.34
444.774	488.78
444.981	410.96
445.187	630.09
445.394	402.77
445.6	482.64
445.807	613.71
446.013	570.7
446.22	329.04
446.426	601.42
446.633	785.74
446.839	838.98
447.046	413.01
447.252	615.76
447.459	740.68
447.665	613.71
447.871	566.6
448.078	881.99
448.284	925
448.491	927.05
448.697	806.22
448.903	834.89
449.11	1031.49
449.316	881.99
449.522	994.63
449.728	955.72
449.935	1123.65
450.141	1107.27
450.347	1015.11
450.553	1084.74
450.76	1193.28
450.966	1252.67
451.172	1144.13
451.378	1058.12
451.584	1404.22
451.791	1561.92
451.997	1287.49
452.203	1181
452.409	1457.47
452.615	1404.22
452.821	1350.98
453.027	1260.87
453.233	1705.28
453.44	1447.23
453.646	1373.5
453.852	1553.73
454.058	1566.01
454.264	1762.62
454.47	1670.46
454.676	1711.42
454.882	1836.35
455.088	1901.88
455.294	1682.75
455.5	1867.06
455.705	2041.14
455.911	1867.06
456.117	1744.19
456.323	1840.44
456.529	1928.5
456.735	1955.13
456.941	1783.1
457.147	1940.79
457.352	1983.8
457.558	1934.65
457.764	1912.12
457.97	1766.71
458.176	2047.29
458.381	1973.56
458.587	2006.33
458.793	1998.13
458.999	1924.41
459.204	2084.15
459.41	1889.59
459.616	1924.41
459.821	2129.2
460.027	1850.68
460.233	2063.67
460.438	1779
460.644	1920.31
460.85	1940.79
461.055	1910.07
461.261	1852.73
461.466	1803.58
461.672	1760.57
461.878	1682.75
462.083	1824.06
462.289	1611.07
462.494	1553.73
462.7	1711.42
462.905	1637.69
463.111	1946.94
463.316	1869.11
463.522	1678.65
463.727	1533.25
463.932	1680.7
464.138	1805.63
464.343	1666.36
464.549	1666.36
464.754	1891.64
464.959	1807.67
465.165	1586.49
465.37	1498.43
465.575	1559.87
465.781	1713.47
465.986	1598.78
466.191	1518.91
466.397	1656.12
466.602	1811.77
466.807	1422.66
467.012	1531.2
467.218	1713.47
467.423	1574.21
467.628	1359.17
467.833	1502.53
468.038	1504.57
468.244	1457.47
468.449	1557.82
468.654	1428.8
468.859	1523.01
469.064	1637.69
469.269	1381.7
469.474	1373.5
469.679	1715.52
469.885	1545.53
470.09	1441.09
470.295	1506.62
470.5	1649.98
470.705	1738.04
470.91	1602.88
471.115	1359.17
471.32	1619.26
471.525	1840.44
471.73	1465.66
471.935	1512.77
472.139	1514.81
472.344	1490.24
472.549	1492.29
472.754	1553.73
472.959	1674.56
473.164	1756.47
473.369	1557.82
473.574	1631.55
473.778	1764.67
473.983	1752.38
474.188	1733.95
474.393	1584.45
474.598	1791.29
474.802	1676.6
475.007	1391.94
475.212	1539.39
475.417	1668.41
475.621	1738.04
475.826	1473.85
476.031	1588.54
476.235	1625.4
476.44	1764.67
476.645	1582.4
476.849	1488.19
477.054	1754.43
477.259	1690.94
477.463	1709.37
477.668	1779
477.872	1998.13
478.077	1727.8
478.282	1549.63
478.486	1496.38
478.691	1692.99
478.895	1690.94
479.1	1676.6
479.304	1766.71
479.509	1709.37
479.713	2039.09
479.918	1713.47
480.122	1566.01
480.326	1752.38
480.531	1729.85
480.735	1717.56
480.94	1555.77
481.144	1815.87
481.348	1719.61
481.553	1600.83
481.757	1625.4
481.961	1764.67
482.166	1752.38
482.37	1578.3
482.574	1641.79
482.778	1727.8
482.983	1891.64
483.187	1606.97
483.391	1844.54
483.595	1889.59
483.8	1830.2
484.004	1842.49
484.208	1799.48
484.412	2053.43
484.616	1946.94
484.821	1643.84
485.025	1764.67
485.229	1799.48
485.433	2026.81
485.637	1729.85
485.841	1844.54
486.045	2137.4
486.249	2090.29
486.453	1910.07
486.657	1815.87
486.861	1807.67
487.065	1959.22
487.269	1865.02
487.473	1711.42
487.677	2045.24
487.881	2381.1
488.085	1830.2
488.289	2168.12
488.493	2151.73
488.697	2311.47
488.901	2129.2
489.105	2139.44
489.309	2221.36
489.512	2553.13
489.716	2229.56
489.92	2305.33
490.124	2358.58
490.328	2512.17
490.531	2247.99
490.735	2440.5
490.939	2295.09
491.143	2319.67
491.346	2233.65
491.55	2450.74
491.754	2590
491.958	2579.76
492.161	2557.23
492.365	2643.24
492.569	2661.68
492.772	2719.02
492.976	2704.68
493.18	2702.64
493.383	2807.08
493.587	2774.31
493.79	2759.98
493.994	2653.48
494.197	2919.72
494.401	2903.34
494.605	2723.12
494.808	2932.01
495.012	3007.78
495.215	3265.83
495.419	3095.85
495.622	2903.34
495.825	3065.13
496.029	3091.75
496.232	3149.09
496.436	3149.09
496.639	3439.9
496.843	3487.01
497.046	3151.14
497.249	3497.25
497.453	3620.13
497.656	3382.56
497.859	3544.35
498.063	3503.39
498.266	3804.44
498.469	3591.45
498.673	3734.81
498.876	3681.57
499.079	3810.59
499.282	3962.14
499.485	4009.24
499.689	4070.68
499.892	4289.81
500.095	4255
500.298	4132.12
500.501	4185.37
500.705	4490.51
500.908	4443.41
501.111	4422.93
501.314	4554
501.517	4881.67
501.72	4769.04
501.923	4662.54
502.126	4785.42
502.329	5131.53
502.532	5059.85
502.735	5133.57
502.938	5348.61
503.141	5385.48
503.344	5305.6
503.547	5440.77
503.75	5477.63
503.953	5637.38
504.156	5975.29
504.359	5702.91
504.562	5684.48
504.765	5954.81
504.968	6282.49
505.17	6167.8
505.373	6237.43
505.576	6741.23
505.779	6593.78
505.982	6561.01
506.185	6683.89
506.387	6976.75
506.59	7013.61
506.793	6900.97
506.996	7167.21
507.198	7496.93
507.401	7623.9
507.604	7443.68
507.807	7591.14
508.009	7908.57
508.212	8058.07
508.415	7992.54
508.617	8013.02
508.82	8484.05
509.022	8482
509.225	8471.76
509.428	8559.83
509.63	8885.45
509.833	8942.8
510.035	9272.52
510.238	9356.49
510.44	9372.87
510.643	9770.18
510.845	9708.74
511.048	9770.18
511.25	9989.31
511.453	10282.17
511.655	10568.88
511.858	10439.86
512.06	10822.83
512.262	11060.4
512.465	11017.39
512.667	11252.91
512.87	11240.62
513.072	11807.91
513.274	11723.94
513.477	11693.22
513.679	11820.19
513.881	12428.44
514.084	12330.14
514.286	12391.58
514.488	12907.66
514.69	12948.62
514.893	13018.25
515.095	13165.71
515.297	13329.55
515.499	13812.87
515.701	13548.68
515.904	14111.87
516.106	14527.61
516.308	14824.56
516.51	14564.47
516.712	14738.55
516.914	15350.89
517.116	15541.35
517.318	15301.74
517.52	15866.98
517.722	15985.76
517.925	16247.9
518.127	16270.43
518.329	16657.5
518.531	16565.34
518.733	17079.38
518.935	17353.8
519.136	17511.5
519.338	17769.54
519.54	18162.75
519.742	18207.81
519.944	18445.37
520.146	18986.04
520.348	18871.35
520.55	19053.62
520.752	19039.28
520.954	19827.75
521.155	19528.75
521.357	19938.34
521.559	20446.24
521.761	20743.19
521.963	20642.84
522.164	20864.02
522.366	20831.26
522.568	21259.28
522.77	21443.6
522.971	21885.96
523.173	21584.91
523.375	22373.38
523.576	22010.89
523.778	22389.76
523.98	22793.21
524.181	23002.1
524.383	23174.13
524.584	23436.27
524.786	23317.49
524.988	23804.91
525.189	24214.5
525.391	23935.98
525.592	24351.71
525.794	24349.67
525.995	24947.67
526.197	24880.09
526.398	25011.16
526.6	25361.36
526.801	25607.12
527.003	25297.88
527.204	25504.72
527.406	26026.95
527.607	26029
527.808	26225.61
528.01	25996.23
528.211	26706.88
528.412	26983.35
528.614	26774.46
528.815	26899.39
529.016	27521.97
529.218	27026.36
529.419	26887.1
529.62	26964.92
529.822	27409.33
530.023	27640.75
530.224	27513.78
530.425	27792.3
530.626	27702.19
530.828	27585.46
531.029	28361.64
531.23	27943.85
531.431	28013.48
531.632	28765.09
531.833	28173.22
532.035	28314.53
532.236	28165.03
532.437	28560.29
532.638	28562.34
532.839	28748.7
533.04	29006.75
533.241	28902.3
533.442	29133.72
533.643	28674.98
533.844	28771.23
534.045	28980.12
534.246	28959.64
534.447	29408.15
534.648	28947.36
534.849	29139.86
535.05	29053.85
535.251	29127.58
535.451	29576.08
535.652	29440.92
535.853	29131.67
536.054	29508.5
536.255	29651.86
536.456	29549.46
536.657	29701.01
536.857	29318.04
537.058	29279.13
537.259	29860.75
537.46	29731.73
537.66	29787.02
537.861	29445.01
538.062	29905.81
538.263	29864.85
538.463	29651.86
538.664	30030.73
538.865	29840.27
539.065	30069.64
539.266	29918.09
539.466	29873.04
539.667	29723.54
539.868	30251.91
540.068	30008.2
540.269	30276.49
540.469	30432.13
540.67	29582.23
540.87	30167.94
541.071	29920.14
541.271	30094.22
541.472	29975.44
541.672	30174.09
541.873	30073.74
542.073	29719.44
542.274	30174.09
542.474	29995.92
542.675	30151.56
542.875	30602.11
543.075	29889.42
543.276	29879.18
543.476	30780.29
543.676	30499.72
543.877	30722.94
544.077	30368.65
544.277	30258.06
544.478	30716.8
544.678	30540.68
544.878	30512
545.078	30888.83
545.279	30458.76
545.479	30342.02
545.679	30552.96
545.879	30585.73
546.079	30856.06
546.28	30743.42
546.48	30466.95
546.68	31060.86
546.88	30692.22
547.08	30751.62
547.28	30462.85
547.48	30425.99
547.68	30770.05
547.88	30716.8
548.081	30854.01
548.281	30774.14
548.481	30669.7
548.681	30659.46
548.881	31097.72
549.081	31239.03
549.28	30540.68
549.48	31181.69
549.68	31013.76
549.88	31376.25
550.08	31089.53
550.28	30997.37
550.48	31058.81
550.68	31531.89
550.88	31277.94
551.08	30919.55
551.279	31120.25
551.479	31007.61
551.679	31267.7
551.879	30647.17
552.079	30921.6
552.278	31382.39
552.478	31613.81
552.678	31566.71
552.878	31257.46
553.077	31140.73
553.277	30753.66
553.477	31259.51
553.676	31052.67
553.876	31427.45
554.076	30978.94
554.275	31335.29
554.475	30718.85
554.674	31630.19
554.874	31126.39
555.074	31216.5
555.273	31044.48
555.473	31667.06
555.672	30894.97
555.872	31024
556.071	31310.71
556.271	31478.64
556.47	31189.88
556.67	30509.96
556.869	31298.42
557.068	31267.7
557.268	31177.59
557.467	30653.31
557.667	30890.88
557.866	31257.46
558.065	30696.32
558.265	30591.87
558.464	30505.86
558.663	31028.09
558.863	30661.51
559.062	30618.5
559.261	30413.7
559.461	30772.1
559.66	30333.83
559.859	30339.97
560.058	30086.03
560.258	30491.52
560.457	29901.71
560.656	30323.59
560.855	29651.86
561.054	30874.49
561.253	30129.03
561.453	29948.81
561.652	29946.76
561.851	30380.93
562.05	29762.45
562.249	29590.42
562.448	29877.13
562.647	29864.85
562.846	29516.69
563.045	29760.4
563.244	29049.75
563.443	29666.19
563.642	29342.61
563.841	29287.32
564.04	29066.14
564.239	29399.96
564.438	29004.7
564.637	29051.8
564.836	28834.72
565.035	28687.26
565.234	28834.72
565.432	28611.49
565.631	28398.5
565.83	28410.79
566.029	28249
566.228	28302.25
566.427	28128.17
566.625	28081.06
566.824	27888.56
567.023	28029.87
567.222	27499.44
567.42	27841.45
567.619	27712.43
567.818	27466.67
568.016	27694
568.215	27444.15
568.414	27507.63
568.612	27274.17
568.811	26954.68
569.01	27147.19
569.208	26813.37
569.407	26913.72
569.605	26588.1
569.804	26405.83
570.002	26475.46
570.201	26274.76
570.4	26074.06
570.598	25936.84
570.797	25826.25
570.995	25852.87
571.193	25549.78
571.392	25617.36
571.59	25467.86
571.789	25394.13
571.987	25191.38
572.186	25447.38
572.384	25095.13
572.582	25154.52
572.781	25246.68
572.979	24458.21
573.177	24624.09
573.376	24894.43
573.574	24249.32
573.772	24536.03
573.971	24214.5
574.169	23895.02
574.367	24030.18
574.565	24261.6
574.763	24116.2
574.962	23774.19
575.16	23524.33
575.358	23622.64
575.556	23335.92
575.754	23647.21
575.952	23198.71
576.151	23520.24
576.349	23417.84
576.547	22975.48
576.745	22987.77
576.943	23358.45
577.141	22813.69
577.339	22791.16
577.537	22574.08
577.735	22799.35
577.933	22590.46
578.131	22950.9
578.329	22195.2
578.527	22504.45
578.725	22584.32
578.923	21804.04
579.121	22232.07
579.319	21883.91
579.516	22234.11
579.714	21906.44
579.912	21734.41
580.11	21644.3
580.308	21726.22
580.506	21681.16
580.704	20921.37
580.901	21562.38
581.099	21996.55
581.297	21515.28
581.495	21392.4
581.692	21646.35
581.89	21226.51
582.088	21310.48
582.285	21040.15
582.483	21093.4
582.681	20956.18
582.878	20933.65
583.076	20771.86
583.274	20970.52
583.471	21052.44
583.669	20958.23
583.866	20415.52
584.064	20524.06
584.262	20479
584.459	20104.23
584.657	20147.23
584.854	20669.47
585.052	20034.6
585.249	20433.95
585.447	20454.43
585.644	19743.78
585.841	20554.78
586.039	20388.89
586.236	19924.01
586.434	19993.64
586.631	19737.64
586.828	19573.8
587.026	20030.5
587.223	19610.67
587.42	19676.2
587.618	19569.71
587.815	19369.01
588.012	19588.14
588.21	19516.46
588.407	19704.87
588.604	19463.21
588.801	19049.52
588.999	19803.18
589.196	19190.83
589.393	19252.27
589.59	19332.14
589.787	19350.57
589.984	18897.97
590.182	19018.8
590.379	18891.83
590.576	19092.53
590.773	18994.23
590.97	18779.19
591.167	19178.54
591.364	19024.95
591.561	18617.4
591.758	18625.59
591.955	18875.45
592.152	19158.06
592.349	18885.69
592.546	18748.47
592.743	18590.78
592.94	18533.43
593.137	18400.32
593.334	18564.15
593.531	18431.04
593.727	18676.79
593.924	18402.36
594.121	18267.2
594.318	18490.43
594.515	18209.86
594.712	18549.82
594.908	18103.36
595.105	18463.8
595.302	18244.67
595.499	18322.49
595.696	18607.16
595.892	18041.92
596.089	18547.77
596.286	18353.21
596.482	18224.19
596.679	18293.82
596.876	18220.1
597.072	18160.7
597.269	17886.28
597.466	18228.29
597.662	17974.34
597.859	17988.67
598.055	18097.22
598.252	17830.98
598.448	18400.32
598.645	18228.29
598.841	17888.32
599.038	18191.42
599.234	18381.88
599.431	17927.24
599.627	17785.93
599.824	18164.8
600.02	17876.04
600.217	17699.91
600.413	17710.15
600.609	17908.8
600.806	18400.32
601.002	17968.2
601.198	17554.51
601.395	18119.74
601.591	17667.14
601.787	17564.75
601.984	17562.7
602.18	17851.46
602.376	17362
602.572	17652.81
602.769	17675.34
602.965	17808.45
603.161	17880.13
603.357	17593.42
603.553	17617.99
603.75	17675.34
603.946	17568.84
604.142	17439.82
604.338	17466.44
604.534	17601.61
604.73	17384.52
604.926	17067.09
605.122	17474.63
605.318	17245.26
605.514	17304.65
605.71	17333.32
605.906	17175.63
606.102	17458.25
606.298	17661
606.494	17310.8
606.69	17364.04
606.886	17456.2
607.082	17157.2
607.278	17108.05
607.474	16872.53
607.67	17222.73
607.866	16852.05
608.062	17407.05
608.257	16925.78
608.453	17192.01
608.649	17333.32
608.845	16798.81
609.041	16706.65
609.236	17288.27
609.432	16837.72
609.628	17075.28
609.824	17052.75
610.019	16864.34
610.215	17058.9
610.411	16643.16
610.606	16952.4
610.802	16821.33
610.998	16823.38
611.193	16682.07
611.389	16680.02
611.584	16899.16
611.78	16520.28
611.976	16675.93
612.171	16776.28
612.367	16786.52
612.562	16401.5
612.758	16684.12
612.953	16055.39
613.149	16763.99
613.344	16565.34
613.539	16376.92
613.735	16421.98
613.93	16712.79
614.126	16327.77
614.321	16237.66
614.517	16450.65
614.712	16653.4
614.907	16307.29
615.103	16397.4
615.298	16028.77
615.493	16424.03
615.688	15975.52
615.884	16456.79
616.079	15834.21
616.274	16284.76
616.47	15989.86
616.665	15735.91
616.86	15789.16
617.055	16149.6
617.25	15651.94
617.445	16032.86
617.641	15676.52
617.836	15873.12
618.031	15717.48
618.226	15971.43
618.421	15809.64
618.616	15965.28
618.811	15588.46
619.006	15799.4
619.201	15250.54
619.396	15856.74
619.591	15373.42
619.786	15498.34
619.981	15275.12
620.176	15678.57
620.371	15484.01
620.566	15369.32
620.761	15451.24
620.956	15473.77
621.151	15164.53
621.346	15260.78
621.541	14908.53
621.735	15330.41
621.93	15010.93
622.125	14933.11
622.32	14656.63
622.515	14957.68
622.709	14834.8
622.904	14994.54
623.099	14640.25
623.294	14802.04
623.488	14840.95
623.683	14589.05
623.878	14521.46
624.072	14734.45
624.267	14441.59
624.462	14376.06
624.656	13976.7
624.851	14668.92
625.046	14455.93
625.24	14169.21
625.435	14042.24
625.629	14101.63
625.824	14568.57
626.018	14079.1
626.213	13986.94
626.407	14230.65
626.602	13851.78
626.796	14027.9
626.991	14044.29
627.185	13802.63
627.38	13788.29
627.574	13855.87
627.768	13763.72
627.963	13560.97
628.157	13927.55
628.352	13563.01
628.546	13167.76
628.74	13829.25
628.935	13221
629.129	13403.27
629.323	13550.73
629.517	13292.68
629.712	13388.94
629.906	13311.11
630.1	13272.2
630.294	13380.75
630.489	13087.89
630.683	13288.59
630.877	12924.05
631.071	13327.5
631.265	12922
631.459	13038.73
631.653	12817.55
631.848	13020.3
632.042	12883.09
632.236	13046.93
632.43	13104.27
632.624	13008.01
632.818	12674.2
633.012	12608.66
633.206	12653.72
633.4	12584.09
633.594	12561.56
633.788	12385.43
633.982	12471.45
634.176	12457.11
634.369	12125.34
634.563	12250.27
634.757	11895.97
634.951	12283.03
635.145	12166.3
635.339	11834.53
635.533	12088.48
635.726	12111
635.92	11816.1
636.114	11611.3
636.308	11531.43
636.501	11599.01
636.695	11725.99
636.889	11244.71
637.083	11304.1
637.276	11232.43
637.47	10943.66
637.664	10919.09
637.857	10810.54
638.051	11007.15
638.244	10917.04
638.438	10706.1
638.632	10620.08
638.825	10376.37
639.019	10626.23
639.212	10308.79
639.406	10243.26
639.599	10187.96
639.793	10181.82
639.986	9678.02
640.18	9905.34
640.373	9694.4
640.567	9761.98
640.76	9682.11
640.954	9409.73
641.147	9293
641.34	9333.96
641.534	9155.79
641.727	8987.85
641.92	9194.7
642.114	9032.91
642.307	8697.04
642.5	8664.27
642.694	8412.37
642.887	8639.7
643.08	8600.79
643.273	8336.6
643.467	8238.3
643.66	8103.13
643.853	7812.32
644.046	7847.13
644.239	7826.65
644.432	7533.79
644.626	7488.74
644.819	7361.76
645.012	7488.74
645.205	7367.91
645.398	7410.92
645.591	7075.05
645.784	7050.47
645.977	6839.53
646.17	7011.56
646.363	6857.96
646.556	6718.7
646.749	6757.61
646.942	6733.04
647.135	6431.99
647.328	6530.29
647.521	6544.63
647.714	6143.22
647.907	6198.52
648.099	6087.93
648.292	6315.25
648.485	6044.92
648.678	5983.48
648.871	5903.61
649.064	6020.35
649.256	5868.8
649.449	5653.76
649.642	5580.03
649.835	5580.03
650.027	5610.75
650.22	5420.29
650.413	5496.07
650.605	5678.33
650.798	5317.89
650.991	5195.01
651.183	5430.53
651.376	5246.21
651.568	5217.54
651.761	5070.09
651.954	5233.93
652.146	5168.39
652.339	5086.47
652.531	5221.64
652.724	4910.35
652.916	4914.44
653.109	4680.97
653.301	5158.15
653.494	5109
653.686	4957.45
653.879	4881.67
654.071	4916.49
654.263	4723.98
654.456	4756.75
654.648	4783.37
654.84	4711.69
655.033	4629.77
655.225	4803.85
655.417	4220.18
655.61	4603.15
655.802	4732.17
655.994	4658.45
656.186	4341.01
656.379	4347.15
656.571	4406.55
656.763	4474.13
656.955	4298
657.148	4168.98
657.34	4515.09
657.532	4228.37
657.724	3955.99
657.916	4121.88
658.108	4248.85
658.3	4134.17
658.492	4011.29
658.684	3835.16
658.876	4134.17
659.068	3867.93
659.26	3726.62
659.452	3511.58
659.644	3839.26
659.836	4138.26
660.028	3706.14
660.22	3519.78
660.412	3718.43
660.604	3675.42
660.796	3433.76
660.988	3400.99
661.18	3527.97
661.372	3337.51
661.563	3271.97
661.755	3202.34
661.947	3155.24
662.139	3269.92
662.331	3243.3
662.522	3177.76
662.714	2983.21
662.906	2972.97
663.097	2749.74
663.289	2999.59
663.481	2866.47
663.673	2950.44
663.864	2743.6
664.056	2684.2
664.247	2620.72
664.439	2913.58
664.631	2602.29
664.822	2680.11
665.014	2743.6
665.205	2473.26
665.397	2430.26
665.588	2434.35
665.78	2479.41
665.971	2596.14
666.163	2250.03
666.354	2196.79
666.546	2325.81
666.737	2350.39
666.929	2147.64
667.12	2207.03
667.311	2409.78
667.503	2286.9
667.694	2233.65
667.885	2030.9
668.077	2209.08
668.268	1922.36
668.459	1965.37
668.651	2084.15
668.842	2166.07
669.033	1817.91
669.224	1926.46
669.416	2112.82
669.607	1901.88
669.798	1946.94
669.989	1828.15
670.18	1686.84
670.371	1967.42
670.563	1678.65
670.754	1887.54
670.945	1873.21
671.136	1975.61
671.327	1750.33
671.518	1748.28
671.709	1772.86
671.9	1975.61
672.091	1887.54
672.282	1686.84
672.473	1637.69
672.664	1631.55
672.855	1676.6
673.046	1625.4
673.237	1762.62
673.428	1774.91
673.619	1924.41
673.809	1529.15
674	1652.03
674.191	1867.06
674.382	1705.28
674.573	1580.35
674.764	1563.97
674.954	1881.4
675.145	1572.16
675.336	1484.09
675.527	1465.66
675.717	1627.45
675.908	1643.84
676.099	1457.47
676.289	1539.39
676.48	1553.73
676.671	1674.56
676.861	1541.44
677.052	1404.22
677.243	1611.07
677.433	1602.88
677.624	1592.64
677.814	1471.81
678.005	1574.21
678.195	1930.55
678.386	1535.29
678.576	1582.4
678.767	1467.71
678.957	1664.32
679.148	1617.21
679.338	1764.67
679.529	1666.36
679.719	1631.55
679.909	1787.19
680.1	1598.78
680.29	1819.96
680.481	1621.31
680.671	1666.36
680.861	1621.31
681.052	1850.68
681.242	1735.99
681.432	1895.74
681.622	1623.36
681.813	1822.01
682.003	1865.02
682.193	1639.74
682.383	1836.35
682.573	1928.5
682.764	1897.78
682.954	1914.17
683.144	2102.58
683.334	1991.99
683.524	2094.39
683.714	2028.85
683.904	2127.16
684.094	2213.17
684.284	2211.12
684.474	2168.12
684.664	2282.8
684.854	2348.34
685.044	2377.01
685.234	2276.66
685.424	2377.01
685.614	2389.3
685.804	2659.63
685.994	2536.75
686.184	2745.64
686.374	2796.84
686.564	2843.95
686.753	2800.94
686.943	2567.47
687.133	2979.11
687.323	2934.06
687.513	3040.55
687.702	3028.26
687.892	3151.14
688.082	3259.68
688.272	3284.26
688.461	3314.98
688.651	3630.37
688.841	3593.5
689.03	3474.72
689.22	3562.78
689.41	3970.33
689.599	4074.78
689.789	3843.35
689.979	3988.76
690.168	4171.03
690.358	4158.74
690.547	4222.23
690.737	4281.62
690.926	4443.41
691.116	4572.43
691.305	4615.44
691.495	4570.38
691.684	4830.48
691.874	4881.67
692.063	4959.5
692.252	4957.45
692.442	5270.79
692.631	5117.19
692.82	5223.69
693.01	5270.79
693.199	5577.98
693.388	5764.35
693.578	5676.29
693.767	5823.74
693.956	6016.25
694.146	6157.56
694.335	6057.21
694.524	5944.57
694.713	6503.67
694.902	6391.03
695.092	6411.51
695.281	6360.31
695.47	6735.09
695.659	6724.85
695.848	6677.74
696.037	6808.81
696.226	7077.1
696.415	7009.51
696.604	7224.55
696.793	7179.5
696.982	7367.91
697.171	7513.31
697.36	7191.78
697.549	7335.14
697.738	7501.03
697.927	7478.5
698.116	7699.68
698.305	7650.53
698.494	8000.73
698.683	7847.13
698.872	8248.54
699.061	7847.13
699.25	8103.13
699.438	8189.14
699.627	8137.95
699.816	8131.8
700.005	8051.93
700.193	8522.96
700.382	8426.71
700.571	8463.57
700.76	8660.18
700.948	8905.93
701.137	8469.72
701.326	8674.51
701.514	8735.95
701.703	8733.9
701.892	8631.51
702.08	8811.73
702.269	9014.48
702.457	8926.41
702.646	8862.93
702.834	8697.04
703.023	9311.43
703.212	9364.68
703.4	9080.01
703.589	8985.8
703.777	9264.33
703.965	8950.99
704.154	9002.19
704.342	9049.29
704.531	9305.29
704.719	9206.98
704.907	9419.97
705.096	9303.24
705.284	9405.64
705.472	9557.19
705.661	9172.17
705.849	9434.31
706.037	9690.31
706.226	9385.16
706.414	9309.38
706.602	9274.57
706.79	9778.37
706.979	9542.85
707.167	9575.62
707.355	9381.06
707.543	9764.03
707.731	9819.33
707.919	9462.98
708.107	9452.74
708.296	9598.15
708.484	9534.66
708.672	9565.38
708.86	9665.73
709.048	9788.61
709.236	9508.04
709.424	9514.18
709.612	9714.88
709.8	9712.83
709.988	9673.92
710.176	9456.84
710.364	9759.94
710.551	9811.14
710.739	9639.11
710.927	9479.36
711.115	9614.53
711.303	10067.13
711.491	9544.9
711.679	9387.21
711.866	9647.3
712.054	9819.33
712.242	9577.67
712.43	9659.59
712.617	9698.5
712.805	9487.56
712.993	9665.73
713.181	9360.58
713.368	9395.4
713.556	9790.66
713.744	9295.05
713.931	9630.91
714.119	9479.36
714.306	9622.72
714.494	9366.73
714.682	9407.69
714.869	9311.43
715.057	9557.19
715.244	9278.66
715.432	9546.95
715.619	9342.15
715.807	9417.93
715.994	9417.93
716.182	9125.07
716.369	9209.03
716.556	9622.72
716.744	9192.65
716.931	9100.49
717.119	9415.88
717.306	9174.22
717.493	9297.1
717.681	8983.76
717.868	9045.2
718.055	9204.94
718.242	9260.23
718.43	9112.78
718.617	9016.52
718.804	9075.91
718.991	9102.54
719.179	8842.45
719.366	8836.3
719.553	9135.31
719.74	8918.22
719.927	8797.39
720.114	8922.32
720.301	8717.52
720.488	8676.56
720.676	8727.76
720.863	8815.82
721.05	8991.95
721.237	8832.21
721.424	8541.39
721.611	8641.75
721.798	8615.12
721.985	8592.59
722.172	8439
722.358	8385.75
722.545	8756.43
722.732	8584.4
722.919	8549.59
723.106	8234.2
723.293	8611.03
723.48	8590.55
723.667	8420.56
723.853	8318.17
724.04	8617.17
724.227	8453.33
724.414	8197.34
724.6	8359.13
724.787	8262.87
724.974	8545.49
725.161	8273.11
725.347	7922.91
725.534	8215.77
725.72	8021.21
725.907	8070.36
726.094	8164.57
726.28	7941.34
726.467	7857.37
726.653	7861.47
726.84	7933.15
727.027	8293.59
727.213	7998.68
727.4	7777.5
727.586	7732.45
727.773	7804.13
727.959	7828.7
728.145	7929.05
728.332	7476.45
728.518	7732.45
728.705	7945.44
728.891	7535.84
729.077	7652.58
729.264	7584.99
729.45	7591.14
729.636	7693.54
729.823	7435.49
730.009	7738.59
730.195	7668.96
730.382	7464.16
730.568	7335.14
730.754	7507.17
730.94	7388.39
731.126	7341.29
731.313	7458.02
731.499	7462.12
731.685	7408.87
731.871	7333.09
732.057	7455.97
732.243	7449.83
732.429	7253.22
732.615	7220.46
732.801	7236.84
732.987	7204.07
733.173	7034.09
733.359	7042.28
733.545	7169.26
733.731	7081.19
733.917	7257.32
734.103	6876.4
734.289	6995.18
734.475	7060.71
734.661	7173.35
734.847	6698.22
735.033	6933.74
735.219	6991.08
735.404	7009.51
735.59	6653.17
735.776	6724.85
735.962	6718.7
736.148	6821.1
736.333	6839.53
736.519	6489.33
736.705	6765.81
736.89	6743.28
737.076	6503.67
737.262	6282.49
737.447	6513.91
737.633	6579.44
737.819	6438.13
738.004	6397.17
738.19	6634.74
738.375	6677.74
738.561	6485.23
738.747	6247.67
738.932	6239.48
739.118	6581.49
739.303	6380.79
739.489	6302.97
739.674	6155.51
739.859	6071.54
740.045	6083.83
740.23	6204.66
740.416	6038.78
740.601	6171.9
740.786	6057.21
740.972	5741.82
741.157	5973.24
741.342	5891.32
741.528	5635.33
741.713	5903.61
741.898	5954.81
742.084	6077.69
742.269	5827.84
742.454	5891.32
742.639	6051.06
742.824	5889.28
743.01	5784.83
743.195	5608.7
743.38	5616.9
743.565	5786.88
743.75	5528.83
743.935	5508.35
744.12	5790.97
744.305	5375.24
744.49	5397.76
744.675	5346.56
744.86	5362.95
745.045	5528.83
745.23	5315.84
745.415	5436.67
745.6	5580.03
745.785	5270.79
745.97	5352.71
746.155	5321.99
746.34	5551.36
746.525	5176.58
746.71	5240.07
746.895	4945.16
747.079	5043.46
747.264	4939.02
747.449	5074.18
747.634	4850.96
747.819	5287.17
748.003	4920.59
748.188	4836.62
748.373	4887.82
748.557	5100.81
748.742	4893.96
748.927	4785.42
749.111	4775.18
749.296	4850.96
749.481	4793.61
749.665	4617.49
749.85	4494.61
750.034	4699.41
750.219	4715.79
750.404	4408.59
750.588	4310.29
750.773	4488.46
750.957	4547.86
751.141	4228.37
751.326	4351.25
751.51	4248.85
751.695	4508.94
751.879	4302.1
752.064	4259.09
752.248	4267.28
752.432	4502.8
752.617	4001.05
752.801	4308.24
752.985	4394.26
753.17	4402.45
753.354	3994.9
753.538	4209.94
753.722	4042.01
753.907	4103.45
754.091	3859.74
754.275	3974.42
754.459	3695.9
754.643	3915.03
754.828	3831.07
755.012	3663.13
755.196	3751.2
755.38	3874.07
755.564	3767.58
755.748	3601.69
755.932	3843.35
756.116	3796.25
756.3	3677.47
756.484	3601.69
756.668	3802.4
756.852	3501.34
757.036	3468.58
757.22	3355.94
757.404	3564.83
757.588	3566.88
757.772	3466.53
757.956	3302.69
758.14	3650.85
758.323	3448.1
758.507	3341.6
758.691	3325.22
758.875	3511.58
759.059	3536.16
759.242	3116.33
759.426	3310.88
759.61	3140.9
759.794	2993.45
759.977	2972.97
760.161	3370.27
760.345	3183.91
760.528	3085.61
760.712	2778.41
760.895	2833.71
761.079	2901.29
761.263	2731.31
761.446	2776.36
761.63	2669.87
761.813	2915.62
761.997	2723.12
762.18	2635.05
762.364	2872.62
762.547	2581.81
762.731	2506.03
762.914	2741.55
763.098	2622.77
763.281	2557.23
763.464	2659.63
763.648	2528.56
763.831	2592.05
764.015	2536.75
764.198	2757.93
764.381	2587.95
764.564	2450.74
764.748	2622.77
764.931	2743.6
765.114	2520.37
765.297	2686.25
765.481	2583.85
765.664	2587.95
765.847	2456.88
766.03	2561.33
766.213	2610.48
766.397	2710.83
766.58	2383.15
766.763	2637.1
766.946	2655.53
767.129	2600.24
767.312	2651.44
767.495	2653.48
767.678	2520.37
767.861	2659.63
768.044	2479.41
768.227	2583.85
768.41	2565.42
768.593	2774.31
768.776	2641.2
768.959	2499.89
769.142	2811.18
769.324	2651.44
769.507	2628.91
769.69	2581.81
769.873	2536.75
770.056	2893.1
770.239	2549.04
770.421	2647.34
770.604	2692.4
770.787	2413.87
770.97	2475.31
771.152	2299.19
771.335	2473.26
771.518	2299.19
771.7	2323.76
771.883	2624.81
772.066	2452.78
772.248	2567.47
772.431	2536.75
772.613	2430.26
772.796	2362.67
772.978	2598.19
773.161	2514.22
773.343	2239.8
773.526	2344.24
773.708	2037.05
773.891	2110.77
774.073	2301.23
774.256	2219.32
774.438	2587.95
774.621	2145.59
774.803	2356.53
774.985	2280.75
775.168	2368.82
775.35	2102.58
775.532	2227.51
775.715	2211.12
775.897	2364.72
776.079	2094.39
776.261	2198.84
776.444	2231.6
776.626	2071.86
776.808	2014.52
776.99	1916.22
777.173	2170.16
777.355	2049.33
777.537	2039.09
777.719	2008.37
777.901	2016.57
778.083	2014.52
778.265	1891.64
778.447	1940.79
778.629	1848.63
778.811	1901.88
778.993	1967.42
779.175	1873.21
779.357	2100.53
779.539	1830.2
779.721	1869.11
779.903	1981.75
780.085	1912.12
780.267	1834.3
780.449	1731.9
780.631	1801.53
780.812	2080.05
780.994	1768.76
781.176	1774.91
781.358	1621.31
781.54	1709.37
781.721	1846.59
781.903	1647.93
782.085	1684.8
782.267	1948.98
782.448	1641.79
782.63	1742.14
782.812	1670.46
782.993	1850.68
783.175	1819.96
783.357	1482.05
783.538	1606.97
783.72	1570.11
783.901	1660.22
784.083	1484.09
784.264	1570.11
784.446	1477.95
784.627	1463.61
784.809	1623.36
784.99	1350.98
785.172	1740.09
785.353	1465.66
785.535	1531.2
785.716	1389.89
785.897	1418.56
786.079	1480
786.26	1525.05
786.441	1525.05
786.623	1301.83
786.804	1252.67
786.985	1340.74
787.167	1307.97
787.348	1373.5
787.529	1404.22
787.71	1375.55
787.891	1336.64
788.073	1326.4
788.254	1187.14
788.435	1350.98
788.616	1281.35
788.797	1396.03
788.978	1310.02
789.159	1162.56
789.34	1236.29
789.522	1307.97
789.703	1193.28
789.884	1305.92
790.065	1234.24
790.246	1443.14
790.427	1107.27
790.607	1256.77
790.788	1160.52
790.969	1140.04
791.15	1293.63
791.331	1094.98
791.512	1166.66
791.693	1185.09
791.874	974.15
792.054	1195.33
792.235	1176.9
792.416	1135.94
792.597	1025.35
792.778	1156.42
792.958	1025.35
793.139	1135.94
793.32	1140.04
793.5	949.57
793.681	1174.85
793.862	1142.08
794.042	1142.08
794.223	935.24
794.404	867.66
794.584	896.33
794.765	1013.06
794.945	1013.06
795.126	1111.36
795.306	1201.47
795.487	996.68
795.667	853.32
795.848	922.95
796.028	927.05
796.209	1043.78
796.389	1140.04
796.57	943.43
796.75	857.42
796.93	1037.64
797.111	838.98
797.291	795.98
797.471	1078.6
797.652	908.62
797.832	836.94
798.012	851.27
798.192	879.94
798.373	804.17
798.553	879.94
798.733	920.9
798.913	867.66
799.093	793.93
799.274	851.27
799.454	914.76
799.634	988.49
799.814	1019.21
799.994	871.75
800.174	836.94
800.354	982.34
800.534	677.19
800.714	857.42
800.894	664.91
801.074	726.35
801.254	775.5
801.434	927.05
801.614	775.5
801.794	763.21
801.974	5321.99
802.154	845.13
802.334	834.89
802.514	687.43
802.693	712.01
802.873	664.91
803.053	791.88
803.233	865.61
803.413	816.46
803.592	585.04
803.772	685.39
803.952	785.74
804.131	636.24
804.311	742.73
804.491	707.91
804.67	677.19
804.85	589.13
805.03	810.31
805.209	925
805.389	619.85
805.568	699.72
805.748	720.2
805.928	648.52
806.107	898.38
806.287	873.8
806.466	783.69
806.646	591.18
806.825	793.93
807.004	656.72
807.184	611.66
807.363	738.63
807.543	798.03
807.722	613.71
807.901	697.67
808.081	658.76
808.26	499.02
808.439	603.47
808.619	632.14
808.798	601.42
808.977	679.24
809.156	816.46
809.336	685.39
809.515	580.94
809.694	560.46
809.873	638.28
810.052	554.32
810.231	765.26
810.411	599.37
810.59	761.16
810.769	593.23
810.948	724.3
811.127	384.34
811.306	529.74
811.485	511.31
811.664	724.3
811.843	605.52
812.022	677.19
812.201	431.44
812.38	507.21
812.559	542.03
812.737	724.3
812.916	462.16
813.095	474.45
813.274	623.95
813.453	611.66
813.632	535.89
813.811	658.76
813.989	337.23
814.168	611.66
814.347	370
814.526	408.91
814.704	820.55
814.883	652.62
815.062	337.23
815.24	480.59
815.419	447.82
815.598	660.81
815.776	359.76
815.955	390.48
816.133	243.03
816.312	505.17
816.49	458.06
816.669	410.96
816.847	503.12
817.026	578.89
817.204	466.25
817.383	380.24
817.561	488.78
817.74	599.37
817.918	519.5
818.097	390.48
818.275	451.92
818.453	531.79
818.632	574.8
818.81	404.82
818.988	496.97
819.167	490.83
819.345	374.1
819.523	312.66
819.701	599.37
819.879	609.61
820.058	535.89
820.236	353.62
820.414	439.63
820.592	441.68
820.77	339.28
820.948	302.42
821.127	490.83
821.305	415.05
821.483	296.27
821.661	451.92
821.839	560.46
822.017	406.86
822.195	286.03
822.373	425.29
822.551	542.03
822.729	564.56
822.907	363.86
823.085	472.4
823.262	380.24
823.44	337.23
823.618	382.29
823.796	341.33
823.974	488.78
824.152	419.15
824.329	351.57
824.507	415.05
824.685	533.84
824.863	421.2
825.04	351.57
825.218	347.47
825.396	521.55
825.574	447.82
825.751	425.29
825.929	351.57
826.107	175.44
826.284	404.82
826.462	324.94
826.639	304.46
826.817	259.41
826.994	431.44
827.172	247.12
827.349	396.62
827.527	445.77
827.704	441.68
827.882	437.58
828.059	320.85
828.237	417.1
828.414	474.45
828.591	91.48
828.769	390.48
828.946	329.04
829.124	564.56
829.301	431.44
829.478	249.17
829.655	404.82
829.833	370
830.01	97.62
830.187	394.58
830.364	453.97
830.542	417.1
830.719	292.18
830.896	310.61
831.073	511.31
831.25	460.11
831.427	310.61
831.604	261.46
831.782	263.51
831.959	396.62
832.136	265.55
832.313	394.58
832.49	372.05
832.667	370
832.844	234.83
833.021	423.25
833.198	486.73
833.374	372.05
833.551	245.07
833.728	210.26
833.905	478.54
834.082	101.72
834.259	423.25
834.436	347.47
834.612	165.2
834.789	447.82
834.966	316.75
835.143	269.65
835.319	195.92
835.496	404.82
835.673	296.27
835.85	357.71
836.026	531.79
836.203	466.25
836.38	177.49
836.556	224.59
836.733	324.94
836.909	628.04
837.086	189.78
837.262	122.2
837.439	290.13
837.616	345.42
837.792	273.75
837.968	243.03
838.145	79.19
838.321	367.95
838.498	238.93
838.674	410.96
838.851	363.86
839.027	283.98
839.203	298.32
839.38	392.53
839.556	281.94
839.732	441.68
839.909	220.5
840.085	200.02
840.261	179.54
840.437	341.33
840.614	267.6
840.79	329.04
840.966	464.21
841.142	341.33
841.318	251.22
841.494	161.11
841.671	472.4
841.847	220.5
842.023	173.39
842.199	218.45
842.375	456.01
842.551	58.71
842.727	62.8
842.903	386.38
843.079	154.96
843.255	400.72
843.431	120.15
843.607	308.56
843.783	38.23
843.959	359.76
844.134	134.48
844.31	343.38
844.486	181.59
844.662	103.76
844.838	232.79
845.013	109.91
845.189	413.01
845.365	304.46
845.541	234.83
845.716	228.69
845.892	400.72
846.068	257.36
846.244	220.5
846.419	122.2
846.595	87.38
846.77	157.01
846.946	283.98
847.122	255.31
847.297	333.14
847.473	623.95
847.648	73.04
847.824	105.81
847.999	50.52
848.175	247.12
848.35	298.32
848.526	408.91
848.701	421.2
848.876	410.96
849.052	402.77
849.227	107.86
849.403	273.75
849.578	146.77
849.753	234.83
849.929	159.06
850.104	97.62
850.279	339.28
850.454	267.6
850.63	181.59
850.805	173.39
850.98	314.7
851.155	193.87
851.33	253.27
851.505	130.39
851.681	423.25
851.856	175.44
852.031	187.73
852.206	283.98
852.381	146.77
852.556	136.53
852.731	191.83
852.906	378.19
853.081	228.69
853.256	310.61
853.431	42.32
853.606	189.78
853.781	118.1
853.956	25.94
854.131	191.83
854.305	171.35
854.48	173.39
854.655	17.75
854.83	111.96
855.005	210.26
855.18	286.03
855.354	140.63
855.529	171.35
855.704	218.45
855.879	402.77
856.053	38.23
856.228	202.07
856.403	118.1
856.577	302.42
856.752	-17.07
856.926	118.1
857.101	290.13
857.276	75.09
857.45	191.83
857.625	200.02
857.799	243.03
857.974	148.82
858.148	-35.5
858.323	220.5
858.497	134.48
858.672	101.72
858.846	52.56
859.02	216.4
859.195	146.77
859.369	226.64
859.543	200.02
859.718	150.87
859.892	228.69
860.066	247.12
860.241	109.91
860.415	64.85
860.589	216.4
860.763	216.4
860.938	159.06
861.112	136.53
861.286	193.87
861.46	249.17
861.634	152.91
861.808	175.44
861.982	79.19
862.157	124.24
862.331	210.26
862.505	40.28
862.679	48.47
862.853	62.8
863.027	152.91
863.201	118.1
863.375	140.63
863.549	181.59
863.722	193.87
863.896	193.87
864.07	171.35
864.244	283.98
864.418	296.27
864.592	193.87
864.766	324.94
864.939	206.16
865.113	56.66
865.287	253.27
865.461	66.9
865.634	257.36
865.808	91.48
865.982	77.14
866.156	54.61
866.329	-41.64
866.503	101.72
866.676	191.83
866.85	290.13
867.024	105.81
867.197	298.32
867.371	118.1
867.544	206.16
867.718	-0.68
867.891	224.59
868.065	-12.97
868.238	312.66
868.412	382.29
868.585	109.91
868.759	142.68
868.932	144.72
869.105	68.95
869.279	208.21
869.452	62.8
869.625	263.51
869.799	161.11
869.972	-8.87
870.145	136.53
870.319	357.71
870.492	161.11
870.665	173.39
870.838	25.94
871.011	-66.22
871.185	132.44
871.358	107.86
871.531	292.18
871.704	99.67
871.877	220.5
872.05	21.84
872.223	38.23
872.396	308.56
872.569	310.61
872.742	-15.02
872.915	230.74
873.088	148.82
873.261	95.57
873.434	234.83
873.607	124.24
873.78	474.45
873.953	48.47
874.126	111.96
874.299	148.82
874.471	122.2
874.644	120.15
874.817	234.83
874.99	247.12
875.163	120.15
875.335	275.79
875.508	95.57
875.681	232.79
875.853	150.87
876.026	173.39
876.199	210.26
876.371	75.09
876.544	138.58
876.717	175.44
876.889	169.3
877.062	206.16
877.234	105.81
877.407	71
877.579	173.39
877.752	189.78
877.924	312.66
878.097	187.73
878.269	130.39
878.442	179.54
878.614	253.27
878.786	138.58
878.959	97.62
879.131	234.83
879.303	-84.65
879.476	52.56
879.648	189.78
879.82	46.42
879.993	181.59
880.165	32.08
880.337	23.89
880.509	73.04
880.681	68.95
880.854	179.54
881.026	177.49
881.198	226.64
881.37	161.11
881.542	150.87
881.714	54.61
881.886	27.99
882.058	91.48
882.23	197.97
882.402	138.58
882.574	134.48
882.746	357.71
882.918	365.9
883.09	130.39
883.262	81.24
883.434	243.03
883.606	-60.07
883.778	87.38
883.95	240.98
884.122	64.85
884.293	308.56
884.465	124.24
884.637	238.93
884.809	62.8
884.98	189.78
885.152	224.59
885.324	212.31
885.496	38.23
885.667	77.14
885.839	27.99
886.011	136.53
886.182	318.8
886.354	322.9
886.525	210.26
886.697	40.28
886.869	34.13
887.04	128.34
887.212	306.51
887.383	296.27
887.555	181.59
887.726	38.23
887.897	111.96
888.069	120.15
888.24	408.91
888.412	128.34
888.583	71
888.754	91.48
888.926	34.13
889.097	73.04
889.268	-66.22
889.44	30.04
889.611	-19.11
889.782	3.41
889.953	-31.4
890.125	173.39
890.296	71
890.467	79.19
890.638	58.71
890.809	15.7
890.98	81.24
891.151	316.75
891.323	204.11
891.494	50.52
891.665	157.01
891.836	150.87
892.007	148.82
892.178	146.77
892.349	195.92
892.52	111.96
892.691	60.76
892.862	25.94
893.032	-66.22
893.203	97.62
893.374	124.24
893.545	85.33
893.716	85.33
893.887	228.69
894.057	19.8
894.228	64.85
894.399	19.8
894.57	329.04
894.74	56.66
894.911	93.52
895.082	197.97
895.253	87.38
895.423	87.38
895.594	216.4
895.764	183.63
895.935	-35.5
896.106	116.05
896.276	-19.11
896.447	179.54
896.617	25.94
896.788	-21.16
896.958	-19.11
897.129	118.1
897.299	50.52
897.47	214.35
897.64	189.78
897.81	144.72
897.981	193.87
898.151	48.47
898.322	138.58
898.492	249.17
898.662	-60.07
898.832	17.75
899.003	-2.73
899.173	220.5
899.343	21.84
899.513	-41.64
