Data from USB4F104151__24__12-16-15-395.txt Node

Date: Wed Feb 19 12:16:15 EST 2025
User: louis
Spectrometer: USB4F10415
Trigger mode: 4
Integration Time (sec): 2.250200E-1
Scans to average: 1
Electric dark correction enabled: true
Nonlinearity correction enabled: false
Boxcar width: 0
XAxis mode: Wavelengths
Number of Pixels in Spectrum: 3648
>>>>>Begin Spectral Data<<<<<
178.204	-824.48
178.424	-824.48
178.644	-824.48
178.864	-808.09
179.084	-814.24
179.304	125.78
179.524	123.73
179.744	-44.2
179.964	-140.46
180.184	185.17
180.404	244.56
180.624	-189.61
180.844	-171.18
181.064	-19.63
181.283	250.71
181.503	-210.09
181.723	-154.79
181.943	-52.39
182.163	389.97
182.383	-193.7
182.602	-162.98
182.822	408.4
183.042	293.71
183.262	-234.66
183.482	-148.65
183.701	244.56
183.921	150.36
184.141	-173.22
184.361	-189.61
184.58	234.32
184.8	199.51
185.02	-175.27
185.239	-95.4
185.459	365.39
185.679	404.3
185.898	-222.38
186.118	-257.19
186.338	248.66
186.557	330.58
186.777	-318.63
186.997	-251.05
187.216	125.78
187.436	564.04
187.655	-234.66
187.875	-29.87
188.095	226.13
188.314	441.17
188.534	-58.54
188.753	-283.81
188.973	367.44
189.192	463.69
189.412	-187.56
189.631	-177.32
189.851	324.43
190.07	406.35
190.29	-279.72
190.509	-128.17
190.729	193.36
190.948	373.58
191.168	-95.4
191.387	-173.22
191.607	131.92
191.826	287.57
192.045	-122.02
192.265	-203.94
192.484	328.53
192.704	193.36
192.923	-171.18
193.142	-19.63
193.362	318.29
193.581	299.86
193.8	-117.93
194.02	-169.13
194.239	238.42
194.458	291.66
194.678	-95.4
194.897	-205.99
195.116	258.9
195.335	236.37
195.555	-183.46
195.774	-234.66
195.993	369.49
196.212	215.89
196.432	-144.55
196.651	-261.29
196.87	201.55
197.089	598.86
197.308	-179.37
197.528	-42.15
197.747	27.48
197.966	297.81
198.185	-21.67
198.404	-271.53
198.623	330.58
198.842	295.76
199.062	-85.16
199.281	-64.68
199.5	224.08
199.719	297.81
199.938	-228.52
200.157	-210.09
200.376	381.78
200.595	359.25
200.814	-99.5
201.033	-259.24
201.252	543.57
201.471	279.38
201.69	-189.61
201.909	-115.88
202.128	277.33
202.347	301.9
202.566	-134.31
202.785	-398.5
203.004	156.5
203.223	455.5
203.442	-259.24
203.661	-349.35
203.879	291.66
204.098	404.3
204.317	-259.24
204.536	-21.67
204.755	308.05
204.974	330.58
205.193	-287.91
205.411	-130.22
205.63	400.21
205.849	383.82
206.068	-216.23
206.287	-328.87
206.505	422.73
206.724	162.64
206.943	-261.29
207.162	-203.94
207.381	189.27
207.599	179.03
207.818	-130.22
208.037	-242.85
208.255	258.9
208.474	256.85
208.693	-171.18
208.911	-160.94
209.13	303.95
209.349	312.14
209.567	-111.78
209.786	-201.9
210.005	396.11
210.223	215.89
210.442	-273.57
210.661	-210.09
210.879	254.8
211.098	176.98
211.316	-142.5
211.535	-210.09
211.753	236.37
211.972	262.99
212.191	-189.61
212.409	-40.11
212.628	326.48
212.846	162.64
213.065	-251.05
213.283	-87.21
213.502	260.95
213.72	211.79
213.938	-255.14
214.157	-195.75
214.375	295.76
214.594	174.93
214.812	-119.98
215.031	-119.98
215.249	248.66
215.467	215.89
215.686	-42.15
215.904	-146.6
216.122	219.99
216.341	301.9
216.559	-29.87
216.778	-11.43
216.996	469.84
217.214	248.66
217.432	-171.18
217.651	-296.1
217.869	246.61
218.087	142.16
218.306	-257.19
218.524	-195.75
218.742	269.14
218.96	408.4
219.179	-162.98
219.397	-156.84
219.615	502.61
219.833	316.24
220.051	-218.28
220.27	-124.07
220.488	359.25
220.706	271.19
220.924	-246.95
221.142	-218.28
221.36	242.51
221.578	224.08
221.796	-210.09
222.015	-85.16
222.233	256.85
222.451	482.13
222.669	-148.65
222.887	-93.35
223.105	99.16
223.323	136.02
223.541	-128.17
223.759	-111.78
223.977	295.76
224.195	412.5
224.413	-171.18
224.631	-212.14
224.849	144.21
225.067	504.65
225.285	-64.68
225.503	-148.65
225.721	-44.2
225.939	213.84
226.157	-144.55
226.375	66.39
226.592	115.54
226.81	136.02
227.028	-1.19
227.246	-175.27
227.464	179.03
227.682	230.23
227.9	-144.55
228.117	-99.5
228.335	262.99
228.553	240.47
228.771	-238.76
228.989	-205.99
229.206	369.49
229.424	142.16
229.642	-205.99
229.86	-83.11
230.077	381.78
230.295	211.79
230.513	-74.92
230.731	-267.43
230.948	420.69
231.166	346.96
231.384	-136.36
231.601	-263.33
231.819	330.58
232.037	105.3
232.254	-81.07
232.472	-169.13
232.689	105.3
232.907	373.58
233.125	-242.85
233.342	-275.62
233.56	109.4
233.777	78.68
233.995	-230.57
234.213	-128.17
234.43	324.43
234.648	136.02
234.865	-152.74
235.083	-76.97
235.3	250.71
235.518	373.58
235.735	-62.63
235.953	-107.69
236.17	351.06
236.388	119.64
236.605	60.24
236.822	-169.13
237.04	267.09
237.257	293.71
237.475	-144.55
237.692	-113.83
237.909	328.53
238.127	109.4
238.344	-19.63
238.562	-144.55
238.779	68.44
238.996	13.14
239.214	-132.26
239.431	-126.12
239.648	179.03
239.865	322.38
240.083	-117.93
240.3	-189.61
240.517	222.03
240.735	252.75
240.952	45.91
241.169	-175.27
241.386	301.9
241.603	207.7
241.821	-101.55
242.038	-138.41
242.255	402.26
242.472	58.2
242.689	-58.54
242.907	-148.65
243.124	248.66
243.341	209.75
243.558	-81.07
243.775	-222.38
243.992	13.14
244.209	256.85
244.426	-29.87
244.643	-103.59
244.86	176.98
245.078	328.53
245.295	-160.94
245.512	-193.7
245.729	119.64
245.946	295.76
246.163	-162.98
246.38	-97.45
246.597	99.16
246.814	162.64
247.031	-128.17
247.248	-146.6
247.464	289.62
247.681	193.36
247.898	-126.12
248.115	-42.15
248.332	97.11
248.549	357.2
248.766	4.95
248.983	-144.55
249.2	334.67
249.417	281.43
249.633	-99.5
249.85	47.96
250.067	193.36
250.284	174.93
250.501	-105.64
250.717	-122.02
250.934	11.09
251.151	152.4
251.368	-54.44
251.585	-158.89
251.801	250.71
252.018	-15.53
252.235	-15.53
252.451	-185.51
252.668	176.98
252.885	269.14
253.102	-156.84
253.318	-208.04
253.535	144.21
253.752	103.25
253.968	-138.41
254.185	-271.53
254.401	199.51
254.618	310.1
254.835	-60.59
255.051	-101.55
255.268	338.77
255.484	152.4
255.701	-40.11
255.917	-177.32
256.134	109.4
256.351	205.65
256.567	-199.85
256.784	19.29
257	2.9
257.217	283.47
257.433	107.35
257.65	-76.97
257.866	447.31
258.082	-1.19
258.299	-134.31
258.515	-99.5
258.732	176.98
258.948	99.16
259.165	-103.59
259.381	-271.53
259.597	258.9
259.814	256.85
260.03	-165.03
260.246	-148.65
260.463	328.53
260.679	379.73
260.895	7
261.112	-107.69
261.328	222.03
261.544	39.76
261.761	-111.78
261.977	-144.55
262.193	62.29
262.409	316.24
262.626	-42.15
262.842	-156.84
263.058	113.49
263.274	357.2
263.49	7
263.707	-183.46
263.923	258.9
264.139	70.48
264.355	-54.44
264.571	-40.11
264.787	310.1
265.004	338.77
265.22	-21.67
265.436	-136.36
265.652	207.7
265.868	299.86
266.084	-210.09
266.3	-117.93
266.516	86.87
266.732	234.32
266.948	-113.83
267.164	-205.99
267.38	299.86
267.596	242.51
267.812	4.95
268.028	-95.4
268.244	144.21
268.46	238.42
268.676	-144.55
268.892	-11.43
269.108	146.26
269.324	35.67
269.54	-21.67
269.756	-79.02
269.972	27.48
270.188	217.94
270.403	-99.5
270.619	-187.56
270.835	158.55
271.051	209.75
271.267	-113.83
271.483	-91.31
271.698	340.82
271.914	262.99
272.13	-56.49
272.346	-68.78
272.562	234.32
272.777	328.53
272.993	-150.7
273.209	-72.87
273.425	242.51
273.64	52.05
273.856	11.09
274.072	-257.19
274.287	43.86
274.503	211.79
274.719	99.16
274.934	-97.45
275.15	43.86
275.366	207.7
275.581	-130.22
275.797	-91.31
276.012	260.95
276.228	168.79
276.444	-97.45
276.659	152.4
276.875	-23.72
277.09	54.1
277.306	37.72
277.521	29.52
277.737	146.26
277.952	238.42
278.168	-81.07
278.383	-46.25
278.599	230.23
278.814	265.04
279.03	-103.59
279.245	-48.3
279.461	162.64
279.676	232.27
279.892	-83.11
280.107	-119.98
280.322	99.16
280.538	197.46
280.753	-132.26
280.969	-107.69
281.184	199.51
281.399	379.73
281.615	7
281.83	84.82
282.045	-15.53
282.26	64.34
282.476	-68.78
282.691	37.72
282.906	248.66
283.122	125.78
283.337	-109.74
283.552	7
283.767	72.53
283.983	187.22
284.198	-74.92
284.413	-134.31
284.628	-21.67
284.843	142.16
285.058	-54.44
285.274	-191.66
285.489	56.15
285.704	174.93
285.919	2.9
286.134	-74.92
286.349	164.69
286.564	80.72
286.779	41.81
286.995	-64.68
287.21	-52.39
287.425	209.75
287.64	-111.78
287.855	107.35
288.07	21.33
288.285	207.7
288.5	78.68
288.715	-52.39
288.93	170.83
289.145	50
289.36	-136.36
289.575	21.33
289.79	396.11
290.004	27.48
290.219	2.9
290.434	-58.54
290.649	111.44
290.864	154.45
291.079	-15.53
291.294	29.52
291.509	228.18
291.724	193.36
291.938	-52.39
292.153	-17.58
292.368	111.44
292.583	258.9
292.798	-11.43
293.012	37.72
293.227	240.47
293.442	107.35
293.657	64.34
293.871	-50.35
294.086	250.71
294.301	355.15
294.516	72.53
294.73	52.05
294.945	47.96
295.16	181.07
295.374	70.48
295.589	76.63
295.804	66.39
296.018	205.65
296.233	19.29
296.447	76.63
296.662	95.06
296.877	293.71
297.091	60.24
297.306	-11.43
297.52	62.29
297.735	244.56
297.949	86.87
298.164	-185.51
298.378	105.3
298.593	2.9
298.807	-64.68
299.022	78.68
299.236	320.34
299.451	70.48
299.665	-25.77
299.88	37.72
300.094	244.56
300.309	107.35
300.523	-36.01
300.737	-42.15
300.952	203.6
301.166	244.56
301.381	-50.35
301.595	-158.89
301.809	136.02
302.024	107.35
302.238	-72.87
302.452	68.44
302.667	127.83
302.881	338.77
303.095	21.33
303.309	23.38
303.524	115.54
303.738	60.24
303.952	-29.87
304.166	52.05
304.381	-107.69
304.595	166.74
304.809	-70.83
305.023	-29.87
305.237	33.62
305.452	125.78
305.666	4.95
305.88	23.38
306.094	258.9
306.308	248.66
306.522	-42.15
306.736	109.4
306.95	303.95
307.164	150.36
307.379	-36.01
307.593	144.21
307.807	279.38
308.021	250.71
308.235	129.88
308.449	-146.6
308.663	166.74
308.877	521.04
309.091	13.14
309.305	29.52
309.519	-15.53
309.733	219.99
309.947	-124.07
310.161	-68.78
310.374	166.74
310.588	291.66
310.802	-126.12
311.016	-126.12
311.23	244.56
311.444	45.91
311.658	11.09
311.872	297.81
312.085	262.99
312.299	359.25
312.513	179.03
312.727	-58.54
312.941	105.3
313.154	144.21
313.368	33.62
313.582	-140.46
313.796	236.37
314.009	11.09
314.223	164.69
314.437	56.15
314.651	199.51
314.864	136.02
315.078	-33.96
315.292	-107.69
315.505	62.29
315.719	197.46
315.933	37.72
316.146	-76.97
316.36	76.63
316.573	166.74
316.787	170.83
317.001	-7.34
317.214	-17.58
317.428	174.93
317.641	-130.22
317.855	-13.48
318.068	215.89
318.282	121.68
318.495	133.97
318.709	-11.43
318.922	197.46
319.136	283.47
319.349	-3.24
319.563	-58.54
319.776	213.84
319.99	-89.26
320.203	4.95
320.417	-21.67
320.63	84.82
320.843	217.94
321.057	76.63
321.27	-9.39
321.483	332.62
321.697	199.51
321.91	-3.24
322.124	-5.29
322.337	156.5
322.55	-1.19
322.763	7
322.977	-74.92
323.19	60.24
323.403	127.83
323.617	-3.24
323.83	189.27
324.043	133.97
324.256	101.2
324.469	-199.85
324.683	80.72
324.896	160.59
325.109	127.83
325.322	-203.94
325.535	62.29
325.748	283.47
325.962	144.21
326.175	-13.48
326.388	-27.82
326.601	187.22
326.814	74.58
327.027	19.29
327.24	56.15
327.453	-93.35
327.666	236.37
327.879	117.59
328.092	15.19
328.305	285.52
328.518	88.92
328.731	-68.78
328.944	-17.58
329.157	187.22
329.37	21.33
329.583	176.98
329.796	86.87
330.009	-9.39
330.222	287.57
330.435	107.35
330.648	52.05
330.861	197.46
331.073	142.16
331.286	39.76
331.499	-27.82
331.712	127.83
331.925	70.48
332.138	52.05
332.35	-36.01
332.563	150.36
332.776	312.14
332.989	-68.78
333.202	-185.51
333.414	144.21
333.627	105.3
333.84	-50.35
334.053	70.48
334.265	0.85
334.478	-3.24
334.691	-23.72
334.903	84.82
335.116	125.78
335.329	119.64
335.541	60.24
335.754	262.99
335.966	158.55
336.179	203.6
336.392	-68.78
336.604	50
336.817	117.59
337.029	242.51
337.242	-68.78
337.454	21.33
337.667	164.69
337.88	306
338.092	111.44
338.305	43.86
338.517	99.16
338.729	119.64
338.942	74.58
339.154	-111.78
339.367	21.33
339.579	207.7
339.792	-144.55
340.004	-27.82
340.217	82.77
340.429	127.83
340.641	-103.59
340.854	-95.4
341.066	191.31
341.278	271.19
341.491	119.64
341.703	31.57
341.915	70.48
342.128	207.7
342.34	76.63
342.552	-66.73
342.764	131.92
342.977	70.48
343.189	70.48
343.401	68.44
343.613	-50.35
343.826	90.96
344.038	-11.43
344.25	133.97
344.462	74.58
344.674	146.26
344.886	-101.55
345.099	-9.39
345.311	203.6
345.523	133.97
345.735	-152.74
345.947	-1.19
346.159	101.2
346.371	226.13
346.583	-5.29
346.795	103.25
347.007	109.4
347.219	150.36
347.431	31.57
347.643	158.55
347.855	60.24
348.067	275.28
348.279	-38.06
348.491	4.95
348.703	367.44
348.915	127.83
349.127	-72.87
349.339	86.87
349.551	113.49
349.763	299.86
349.975	19.29
350.187	144.21
350.399	418.64
350.61	217.94
350.822	27.48
351.034	11.09
351.246	248.66
351.458	160.59
351.669	78.68
351.881	17.24
352.093	373.58
352.305	213.84
352.517	-76.97
352.728	60.24
352.94	185.17
353.152	209.75
353.363	-91.31
353.575	47.96
353.787	367.44
353.999	230.23
354.21	158.55
354.422	-113.83
354.633	86.87
354.845	179.03
355.057	0.85
355.268	-3.24
355.48	181.07
355.692	-93.35
355.903	-9.39
356.115	-74.92
356.326	0.85
356.538	414.54
356.749	7
356.961	127.83
357.172	138.07
357.384	56.15
357.595	238.42
357.807	-5.29
358.018	150.36
358.23	140.12
358.441	-103.59
358.653	2.9
358.864	144.21
359.075	-27.82
359.287	13.14
359.498	-42.15
359.709	295.76
359.921	148.31
360.132	17.24
360.344	-101.55
360.555	31.57
360.766	179.03
360.977	-70.83
361.189	45.91
361.4	154.45
361.611	238.42
361.823	136.02
362.034	2.9
362.245	-85.16
362.456	152.4
362.667	109.4
362.879	-95.4
363.09	289.62
363.301	105.3
363.512	-52.39
363.723	-79.02
363.935	111.44
364.146	224.08
364.357	0.85
364.568	-33.96
364.779	9.05
364.99	256.85
365.201	21.33
365.412	144.21
365.623	-99.5
365.834	170.83
366.045	78.68
366.256	-3.24
366.467	275.28
366.678	99.16
366.889	-11.43
367.1	19.29
367.311	306
367.522	88.92
367.733	142.16
367.944	19.29
368.155	152.4
368.366	287.57
368.577	35.67
368.788	88.92
368.999	15.19
369.209	99.16
369.42	93.01
369.631	303.95
369.842	179.03
370.053	101.2
370.264	15.19
370.474	-117.93
370.685	217.94
370.896	109.4
371.107	109.4
371.317	-11.43
371.528	68.44
371.739	355.15
371.95	-3.24
372.16	19.29
372.371	-13.48
372.582	86.87
372.792	-68.78
373.003	39.76
373.214	291.66
373.424	267.09
373.635	-25.77
373.846	88.92
374.056	142.16
374.267	207.7
374.477	0.85
374.688	-23.72
374.898	246.61
375.109	160.59
375.319	43.86
375.53	27.48
375.74	191.31
375.951	11.09
376.161	23.38
376.372	62.29
376.582	84.82
376.793	234.32
377.003	-91.31
377.214	-29.87
377.424	248.66
377.635	242.51
377.845	-36.01
378.055	121.68
378.266	-27.82
378.476	136.02
378.686	86.87
378.897	7
379.107	240.47
379.317	248.66
379.528	-158.89
379.738	58.2
379.948	86.87
380.158	273.23
380.369	41.81
380.579	68.44
380.789	121.68
380.999	254.8
381.21	97.11
381.42	191.31
381.63	109.4
381.84	238.42
382.05	76.63
382.261	64.34
382.471	285.52
382.681	39.76
382.891	74.58
383.101	58.2
383.311	64.34
383.521	101.2
383.731	-93.35
383.941	150.36
384.151	187.22
384.361	43.86
384.571	-33.96
384.781	43.86
384.991	244.56
385.201	400.21
385.411	201.55
385.621	27.48
385.831	150.36
386.041	166.74
386.251	-70.83
386.461	88.92
386.671	162.64
386.881	199.51
387.091	-89.26
387.301	72.53
387.511	150.36
387.72	160.59
387.93	62.29
388.14	-46.25
388.35	209.75
388.56	314.19
388.769	58.2
388.979	-19.63
389.189	95.06
389.399	215.89
389.609	9.05
389.818	88.92
390.028	226.13
390.238	113.49
390.447	-38.06
390.657	103.25
390.867	66.39
391.076	-19.63
391.286	-60.59
391.496	-21.67
391.705	78.68
391.915	381.78
392.125	2.9
392.334	84.82
392.544	320.34
392.753	70.48
392.963	19.29
393.172	17.24
393.382	164.69
393.591	367.44
393.801	74.58
394.01	29.52
394.22	256.85
394.429	174.93
394.639	43.86
394.848	88.92
395.058	318.29
395.267	66.39
395.477	99.16
395.686	113.49
395.895	424.78
396.105	260.95
396.314	23.38
396.524	25.43
396.733	62.29
396.942	222.03
397.152	-21.67
397.361	133.97
397.57	185.17
397.78	156.5
397.989	127.83
398.198	203.6
398.407	191.31
398.617	86.87
398.826	52.05
399.035	-93.35
399.244	232.27
399.453	219.99
399.663	11.09
399.872	-111.78
400.081	45.91
400.29	306
400.499	-17.58
400.708	80.72
400.917	140.12
401.127	226.13
401.336	4.95
401.545	240.47
401.754	248.66
401.963	244.56
402.172	78.68
402.381	-72.87
402.59	183.12
402.799	189.27
403.008	162.64
403.217	76.63
403.426	244.56
403.635	47.96
403.844	-31.91
404.053	-70.83
404.262	95.06
404.471	234.32
404.68	101.2
404.888	66.39
405.097	17.24
405.306	176.98
405.515	7
405.724	-38.06
405.933	236.37
406.142	224.08
406.35	62.29
406.559	29.52
406.768	29.52
406.977	359.25
407.185	31.57
407.394	179.03
407.603	52.05
407.812	142.16
408.02	68.44
408.229	80.72
408.438	228.18
408.646	-23.72
408.855	4.95
409.064	-17.58
409.272	138.07
409.481	224.08
409.69	-36.01
409.898	-38.06
410.107	78.68
410.315	357.2
410.524	123.73
410.733	107.35
410.941	183.12
411.15	287.57
411.358	90.96
411.567	217.94
411.775	324.43
411.984	148.31
412.192	148.31
412.401	-36.01
412.609	402.26
412.818	396.11
413.026	119.64
413.234	31.57
413.443	213.84
413.651	76.63
413.86	-87.21
414.068	236.37
414.276	439.12
414.485	127.83
414.693	121.68
414.901	232.27
415.11	230.23
415.318	162.64
415.526	39.76
415.734	113.49
415.943	232.27
416.151	267.09
416.359	41.81
416.567	115.54
416.776	349.01
416.984	277.33
417.192	76.63
417.4	19.29
417.608	93.01
417.817	58.2
418.025	154.45
418.233	54.1
418.441	56.15
418.649	-7.34
418.857	109.4
419.065	82.77
419.273	90.96
419.481	234.32
419.689	47.96
419.897	17.24
420.105	95.06
420.313	240.47
420.521	123.73
420.729	144.21
420.937	115.54
421.145	23.38
421.353	103.25
421.561	195.41
421.769	228.18
421.977	80.72
422.185	86.87
422.393	56.15
422.601	306
422.809	125.78
423.017	11.09
423.224	-21.67
423.432	349.01
423.64	119.64
423.848	19.29
424.056	2.9
424.263	375.63
424.471	168.79
424.679	207.7
424.887	-70.83
425.094	451.41
425.302	170.83
425.51	-44.2
425.718	115.54
425.925	179.03
426.133	117.59
426.341	168.79
426.548	9.05
426.756	133.97
426.964	254.8
427.171	-19.63
427.379	25.43
427.586	267.09
427.794	297.81
428.001	64.34
428.209	136.02
428.417	375.63
428.624	234.32
428.832	88.92
429.039	144.21
429.247	199.51
429.454	205.65
429.662	105.3
429.869	136.02
430.076	277.33
430.284	246.61
430.491	64.34
430.699	121.68
430.906	293.71
431.114	219.99
431.321	168.79
431.528	99.16
431.736	244.56
431.943	277.33
432.15	164.69
432.358	43.86
432.565	383.82
432.772	17.24
432.979	64.34
433.187	62.29
433.394	346.96
433.601	39.76
433.808	183.12
434.016	277.33
434.223	158.55
434.43	185.17
434.637	68.44
434.844	213.84
435.052	232.27
435.259	285.52
435.466	172.88
435.673	72.53
435.88	381.78
436.087	322.38
436.294	303.95
436.501	258.9
436.708	262.99
436.915	326.48
437.122	328.53
437.329	45.91
437.537	215.89
437.743	219.99
437.95	277.33
438.157	185.17
438.364	269.14
438.571	322.38
438.778	176.98
438.985	193.36
439.192	406.35
439.399	308.05
439.606	226.13
439.813	283.47
440.02	471.89
440.227	660.3
440.433	191.31
440.64	146.26
440.847	293.71
441.054	299.86
441.261	240.47
441.467	232.27
441.674	281.43
441.881	459.6
442.088	205.65
442.294	303.95
442.501	475.98
442.708	555.85
442.914	183.12
443.121	281.43
443.328	494.41
443.534	473.93
443.741	306
443.948	168.79
444.154	496.46
444.361	611.15
444.568	373.58
444.774	406.35
444.981	217.94
445.187	609.1
445.394	326.48
445.6	299.86
445.807	453.45
446.013	514.89
446.22	236.37
446.426	412.5
446.633	666.44
446.839	699.21
447.046	252.75
447.252	439.12
447.459	541.52
447.665	496.46
447.871	400.21
448.078	705.35
448.284	639.82
448.491	731.98
448.697	623.44
448.903	754.51
449.11	813.9
449.316	639.82
449.522	695.11
449.728	740.17
449.935	920.39
450.141	797.51
450.347	895.82
450.553	762.7
450.76	895.82
450.966	875.34
451.172	817.99
451.378	856.9
451.584	944.97
451.791	1225.54
451.997	1016.65
452.203	998.21
452.409	1260.35
452.615	1246.02
452.821	947.01
453.027	1061.7
453.233	1467.2
453.44	1139.52
453.646	975.69
453.852	1145.67
454.058	1084.23
454.264	1461.06
454.47	1301.31
454.676	1102.66
454.882	1430.34
455.088	1274.69
455.294	1323.84
455.5	1405.76
455.705	1608.51
455.911	1459.01
456.117	1295.17
456.323	1286.98
456.529	1329.99
456.735	1641.28
456.941	1321.79
457.147	1485.63
457.352	1696.57
457.558	1383.23
457.764	1518.4
457.97	1391.42
458.176	1622.84
458.381	1610.56
458.587	1706.81
458.793	1471.29
458.999	1438.53
459.204	1375.04
459.41	1381.18
459.616	1528.64
459.821	1665.85
460.027	1473.34
460.233	1575.74
460.438	1436.48
460.644	1487.68
460.85	1577.79
461.055	1385.28
461.261	1479.49
461.466	1452.86
461.672	1360.7
461.878	1284.93
462.083	1428.29
462.289	1338.18
462.494	1342.27
462.7	1303.36
462.905	1100.61
463.111	1557.31
463.316	1479.49
463.522	1276.74
463.727	1182.53
463.932	1303.36
464.138	1391.42
464.343	1299.27
464.549	1286.98
464.754	1440.58
464.959	1481.53
465.165	1233.73
465.37	1250.11
465.575	1192.77
465.781	1213.25
465.986	1104.71
466.191	1135.43
466.397	1248.07
466.602	1420.1
466.807	1176.39
467.012	1168.2
467.218	1323.84
467.423	1291.07
467.628	1104.71
467.833	1090.37
468.038	1286.98
468.244	1114.95
468.449	1227.59
468.654	1188.68
468.859	1229.63
469.064	1311.55
469.269	1043.27
469.474	1084.23
469.679	1362.75
469.885	1325.89
470.09	1137.48
470.295	1112.9
470.5	1307.46
470.705	1411.9
470.91	1192.77
471.115	1151.81
471.32	1282.88
471.525	1434.43
471.73	1186.63
471.935	1223.49
472.139	1131.33
472.344	1164.1
472.549	1260.35
472.754	1354.56
472.959	1344.32
473.164	1487.68
473.369	1256.26
473.574	1323.84
473.778	1442.62
473.983	1471.29
474.188	1401.66
474.393	1096.52
474.598	1317.7
474.802	1403.71
475.007	1291.07
475.212	1233.73
475.417	1305.41
475.621	1497.92
475.826	1141.57
476.031	1362.75
476.235	1413.95
476.44	1307.46
476.645	1248.07
476.849	1127.24
477.054	1317.7
477.259	1436.48
477.463	1307.46
477.668	1338.18
477.872	1600.32
478.077	1454.91
478.282	1160
478.486	1284.93
478.691	1411.9
478.895	1397.57
479.1	1499.97
479.304	1385.28
479.509	1362.75
479.713	1665.85
479.918	1274.69
480.122	1237.83
480.326	1450.82
480.531	1387.33
480.735	1375.04
480.94	1286.98
481.144	1565.5
481.348	1270.59
481.553	1405.76
481.757	1252.16
481.961	1452.86
482.166	1481.53
482.37	1303.36
482.574	1362.75
482.778	1420.1
482.983	1592.13
483.187	1272.64
483.391	1440.58
483.595	1538.88
483.8	1536.83
484.004	1551.17
484.208	1469.25
484.412	1563.45
484.616	1628.99
484.821	1413.95
485.025	1477.44
485.229	1487.68
485.433	1616.7
485.637	1555.26
485.841	1391.42
486.045	1712.96
486.249	1755.96
486.453	1454.91
486.657	1411.9
486.861	1438.53
487.065	1585.98
487.269	1407.81
487.473	1346.37
487.677	1731.39
487.881	1917.75
488.085	1551.17
488.289	1739.58
488.493	1555.26
488.697	1962.81
488.901	1792.83
489.105	1667.9
489.309	1729.34
489.512	2165.56
489.716	1776.44
489.92	1764.15
490.124	1870.65
490.328	1995.57
490.531	1749.82
490.735	1938.23
490.939	1827.64
491.143	1889.08
491.346	1776.44
491.55	1938.23
491.754	2005.81
491.958	2028.34
492.161	2030.39
492.365	1983.29
492.569	2091.83
492.772	2292.53
492.976	2038.58
493.18	2093.88
493.383	2192.18
493.587	2282.29
493.79	2224.95
493.994	2026.29
494.197	2313.01
494.401	2274.1
494.605	2224.95
494.808	2304.82
495.012	2396.98
495.215	2566.96
495.419	2452.27
495.622	2478.9
495.825	2478.9
496.029	2501.42
496.232	2632.49
496.436	2411.31
496.639	2847.53
496.843	2687.79
497.046	2657.07
497.249	2726.7
497.453	3005.22
497.656	2843.43
497.859	2790.19
498.063	2884.39
498.266	3052.33
498.469	2816.81
498.673	2929.45
498.876	2908.97
499.079	3027.75
499.282	3074.85
499.485	3218.21
499.689	3212.07
499.892	3347.23
500.095	3328.8
500.298	3330.85
500.501	3275.56
500.705	3445.54
500.908	3607.33
501.111	3386.15
501.314	3631.9
501.517	3877.66
501.72	3973.91
501.923	3762.97
502.126	3656.48
502.329	4145.94
502.532	4041.5
502.735	3914.52
502.938	4391.7
503.141	4150.04
503.344	4139.8
503.547	4354.83
503.75	4406.03
503.953	4432.66
504.156	4530.96
504.359	4424.47
504.562	4639.5
504.765	4727.57
504.968	4657.93
505.17	4811.53
505.373	4952.84
505.576	5276.42
505.779	5346.05
505.982	5059.34
506.185	5235.46
506.387	5350.15
506.59	5378.82
506.793	5649.15
506.996	5675.77
507.198	6054.65
507.401	5944.06
507.604	5735.17
507.807	5856
508.009	6122.23
508.212	6177.53
508.415	6396.66
508.617	6290.17
508.82	6470.39
509.022	6445.81
509.225	6574.83
509.428	6583.02
509.63	6939.37
509.833	6982.38
510.035	7275.24
510.238	7164.65
510.44	7195.37
510.643	7555.81
510.845	7508.71
511.048	7643.87
511.25	7738.08
511.453	7996.12
511.655	8143.58
511.858	8041.18
512.06	8325.85
512.262	8207.06
512.465	8133.34
512.667	8686.29
512.87	8592.08
513.072	9020.11
513.274	8858.32
513.477	8866.51
513.679	9226.95
513.881	9435.85
514.084	9169.61
514.286	9560.77
514.488	9687.75
514.69	10111.68
514.893	9835.2
515.095	10115.77
515.297	10162.87
515.499	10246.84
515.701	10416.82
515.904	10449.59
516.106	11074.22
516.308	10842.8
516.51	11410.09
516.712	11285.16
516.914	11354.79
517.116	11530.92
517.318	11653.8
517.52	11909.79
517.722	11852.45
517.925	12178.08
518.127	12169.88
518.329	12384.92
518.531	12468.89
518.733	12982.93
518.935	12776.08
519.136	13187.72
519.338	13200.01
519.54	13535.88
519.742	13841.03
519.944	13984.38
520.146	14281.34
520.348	14342.78
520.55	14287.48
520.752	14357.11
520.954	14682.74
521.155	14488.18
521.357	14662.26
521.559	15231.6
521.761	15463.02
521.963	15209.07
522.164	15671.91
522.366	15708.77
522.568	15940.19
522.77	16110.18
522.971	16173.66
523.173	16188
523.375	16724.57
523.576	16280.16
523.778	16478.81
523.98	16955.99
524.181	17181.26
524.383	17361.48
524.584	17211.98
524.786	17295.95
524.988	17123.92
525.189	17805.89
525.391	18020.93
525.592	18020.93
525.794	18072.13
525.995	18289.21
526.197	18195.01
526.398	18659.9
526.6	18797.11
526.801	18836.02
527.003	18713.14
527.204	18950.71
527.406	19317.29
527.607	19085.87
527.808	19339.82
528.01	19038.77
528.211	19458.6
528.412	19524.14
528.614	19919.4
528.815	19698.22
529.016	20222.5
529.218	20040.23
529.419	19812.9
529.62	19829.29
529.822	20345.37
530.023	20206.11
530.224	20159.01
530.425	20390.43
530.626	20400.67
530.828	19941.93
531.029	20447.77
531.23	20466.21
531.431	20474.4
531.632	20652.57
531.833	20740.63
532.035	20648.47
532.236	20759.06
532.437	20935.19
532.638	20802.07
532.839	21049.88
533.04	21400.08
533.241	21127.7
533.442	21281.3
533.643	20939.29
533.844	21185.04
534.045	21357.07
534.246	21254.67
534.447	21293.58
534.648	21180.95
534.849	21525
535.05	21213.71
535.251	21113.36
535.451	21449.23
535.652	21613.07
535.853	21424.65
536.054	21713.42
536.255	21578.25
536.456	21342.74
536.657	21799.43
536.857	21412.37
537.058	21535.24
537.259	21826.06
537.46	21301.78
537.66	21350.93
537.861	21645.84
538.062	21707.27
538.263	21492.24
538.463	21840.39
538.664	21795.34
538.865	21713.42
539.065	21649.93
539.266	21733.9
539.466	21617.16
539.667	21895.69
539.868	22088.2
540.068	21748.23
540.269	21858.82
540.469	22233.6
540.67	21754.38
540.87	22041.09
541.071	21881.35
541.271	22118.92
541.472	21932.55
541.672	21901.83
541.873	22133.25
542.073	21744.14
542.274	22055.43
542.474	22098.44
542.675	22184.45
542.875	22204.93
543.075	21770.76
543.276	22010.37
543.476	22346.24
543.676	22280.71
543.877	22082.05
544.077	22135.3
544.277	22415.87
544.478	22168.07
544.678	22424.06
544.878	22446.59
545.078	22090.24
545.279	21955.08
545.479	22163.97
545.679	22290.95
545.879	22475.26
546.079	22694.4
546.28	21924.36
546.48	22069.76
546.68	22764.03
546.88	22352.38
547.08	22448.64
547.28	22356.48
547.48	22270.47
547.68	22434.3
547.88	22663.68
548.081	22637.05
548.281	22557.18
548.481	22385.15
548.681	22690.3
548.881	22612.48
549.081	22845.94
549.28	22673.92
549.48	22575.61
549.68	22512.13
549.88	23001.59
550.08	22487.55
550.28	22819.32
550.48	22782.46
550.68	22774.27
550.88	22749.69
551.08	22739.45
551.279	22567.42
551.479	22942.2
551.679	23355.89
551.879	22583.8
552.079	23077.37
552.278	22823.42
552.478	22991.35
552.678	22792.7
552.878	22972.92
553.077	23022.07
553.277	22839.8
553.477	22854.14
553.676	22985.21
553.876	23032.31
554.076	22835.7
554.275	22911.48
554.475	22673.92
554.674	23366.13
554.874	22704.63
555.074	22749.69
555.273	22833.66
555.473	23169.52
555.672	22780.41
555.872	22938.1
556.071	22815.23
556.271	23161.33
556.47	22718.97
556.67	22336
556.869	22878.71
557.068	22555.13
557.268	22721.02
557.467	22823.42
557.667	22870.52
557.866	22688.25
558.065	22643.2
558.265	22569.47
558.464	22301.19
558.663	22835.7
558.863	22823.42
559.062	22716.92
559.261	22342.14
559.461	22766.07
559.66	22395.39
559.859	22274.56
560.058	22161.92
560.258	22436.35
560.457	22411.78
560.656	22299.14
560.855	22372.86
561.054	22665.72
561.253	22118.92
561.453	22114.82
561.652	22381.06
561.851	22366.72
562.05	22186.5
562.249	21733.9
562.448	22141.44
562.647	21916.17
562.846	21895.69
563.045	22065.67
563.244	21867.02
563.443	21934.6
563.642	21828.1
563.841	21721.61
564.04	21438.99
564.239	21715.47
564.438	21387.79
564.637	21273.1
564.836	21561.87
565.035	21344.78
565.234	21391.89
565.432	21240.34
565.631	21039.64
565.83	21395.98
566.029	21164.56
566.228	20998.68
566.427	20961.81
566.625	20873.75
566.824	20724.25
567.023	20933.14
567.222	20032.04
567.42	21019.16
567.619	20695.58
567.818	20390.43
568.016	20443.68
568.215	20535.84
568.414	20310.56
568.612	20359.71
568.811	19933.73
569.01	20365.85
569.208	20070.95
569.407	20085.28
569.605	19679.79
569.804	20034.08
570.002	19683.88
570.201	19587.63
570.4	19604.01
570.598	19225.14
570.797	19411.5
570.995	19302.96
571.193	19130.93
571.392	19235.38
571.59	18842.17
571.789	19225.14
571.987	19020.34
572.186	19274.29
572.384	18731.58
572.582	18750.01
572.781	18657.85
572.979	18567.74
573.177	18590.27
573.376	18684.47
573.574	18633.27
573.772	18629.18
573.971	18358.85
574.169	17922.63
574.367	18203.2
574.565	18512.44
574.763	18340.41
574.962	17988.16
575.16	17746.5
575.358	17986.11
575.556	18027.07
575.754	17863.24
575.952	17580.62
576.151	17791.56
576.349	17668.68
576.547	17234.51
576.745	17549.9
576.943	17568.33
577.141	17465.93
577.339	17373.77
577.537	16953.94
577.735	17420.88
577.933	17220.17
578.131	17056.34
578.329	16841.3
578.527	16964.18
578.725	16980.56
578.923	16730.71
579.121	16648.79
579.319	16577.11
579.516	16896.6
579.714	16591.45
579.912	16869.97
580.11	16632.41
580.308	16699.99
580.506	16384.6
580.704	15897.19
580.901	16403.04
581.099	16689.75
581.297	16388.7
581.495	16198.24
581.692	16493.15
581.89	16472.67
582.088	16245.34
582.285	15970.91
582.483	16194.14
582.681	16106.08
582.878	16304.73
583.076	16058.98
583.274	16144.99
583.471	16155.23
583.669	15739.49
583.866	15676.01
584.064	16061.02
584.262	15540.84
584.459	15776.36
584.657	15729.25
584.854	16071.26
585.052	15712.87
585.249	15610.47
585.447	15639.14
585.644	15282.8
585.841	15686.25
586.039	15622.76
586.236	15159.92
586.434	15346.28
586.631	15467.11
586.828	15178.35
587.026	15061.62
587.223	15116.91
587.42	15069.81
587.618	15180.4
587.815	15022.7
588.012	15186.54
588.21	15092.34
588.407	15450.73
588.604	15102.57
588.801	14793.33
588.999	15166.06
589.196	14901.87
589.393	14920.31
589.59	15190.64
589.787	15164.01
589.984	14840.43
590.182	14758.52
590.379	14879.35
590.576	15026.8
590.773	14793.33
590.97	14725.75
591.167	14961.27
591.364	14846.58
591.561	14572.15
591.758	14658.17
591.955	14948.98
592.152	14658.17
592.349	14701.17
592.546	14500.47
592.743	14733.94
592.94	14377.59
593.137	14494.33
593.334	14836.34
593.531	14676.6
593.727	14815.86
593.924	14543.48
594.121	14289.53
594.318	14770.8
594.515	14563.96
594.712	14830.2
594.908	14664.31
595.105	14271.1
595.302	14701.17
595.499	14410.36
595.696	14623.35
595.892	14324.35
596.089	14690.93
596.286	14588.53
596.482	14600.82
596.679	14541.43
596.876	14398.07
597.072	14107.26
597.269	14189.18
597.466	14332.54
597.662	14574.2
597.859	14402.17
598.055	14520.95
598.252	14447.22
598.448	14459.51
598.645	14273.15
598.841	14310.01
599.038	14703.22
599.234	14676.6
599.431	14242.43
599.627	14271.1
599.824	14668.41
600.02	14221.95
600.217	14080.64
600.413	14183.04
600.609	14445.18
600.806	14469.75
601.002	14146.17
601.198	14029.44
601.395	14236.28
601.591	14420.6
601.787	14043.78
601.984	14082.69
602.18	14363.26
602.376	14187.13
602.572	14137.98
602.769	14279.29
602.965	14111.36
603.161	14207.61
603.357	13990.53
603.553	14297.72
603.75	14166.65
603.946	14185.08
604.142	14066.3
604.338	14074.49
604.534	14240.38
604.73	14080.64
604.926	14137.98
605.122	14271.1
605.318	14045.82
605.514	14017.15
605.71	13808.26
605.906	14062.21
606.102	14060.16
606.298	14203.52
606.494	13877.89
606.69	14219.9
606.886	14293.63
607.082	13822.59
607.278	13881.99
607.474	13613.7
607.67	14183.04
607.866	13648.52
608.062	13953.66
608.257	13650.57
608.453	13689.48
608.649	13963.9
608.845	13548.17
609.041	13548.17
609.236	13765.25
609.432	13939.33
609.628	13693.57
609.824	13634.18
610.019	13679.24
610.215	13783.68
610.411	13849.22
610.606	13673.09
610.802	13714.05
610.998	13838.98
611.193	13865.6
611.389	13413
611.584	13843.07
611.78	13425.29
611.976	13548.17
612.171	13726.34
612.367	13828.74
612.562	13660.8
612.758	13380.23
612.953	13359.75
613.149	13886.08
613.344	13597.32
613.539	13679.24
613.735	13320.84
613.93	13322.89
614.126	13353.61
614.321	13417.1
614.517	13453.96
614.712	13654.66
614.907	13478.54
615.103	13331.08
615.298	13353.61
615.493	13218.44
615.688	13157
615.884	13423.24
616.079	13107.85
616.274	13429.38
616.47	13316.75
616.665	13253.26
616.86	13114
617.055	13288.07
617.25	13040.27
617.445	13265.55
617.641	12802.71
617.836	13191.82
618.031	12954.26
618.226	13312.65
618.421	13015.69
618.616	13163.15
618.811	13230.73
619.006	13195.92
619.201	12735.12
619.396	13230.73
619.591	12636.82
619.786	12702.36
619.981	12878.48
620.176	13046.41
620.371	12595.86
620.566	12556.95
620.761	12759.7
620.956	12827.28
621.151	12604.05
621.346	12491.41
621.541	12305.05
621.735	12634.77
621.93	12634.77
622.125	12460.7
622.32	12425.88
622.515	12425.88
622.709	12155.55
622.904	12380.82
623.099	12255.9
623.294	12511.89
623.488	12358.3
623.683	12237.47
623.878	12141.21
624.072	12309.15
624.267	12196.51
624.462	12016.29
624.656	11868.83
624.851	12229.27
625.046	12087.96
625.24	11862.69
625.435	11917.98
625.629	12098.2
625.824	12042.91
626.018	11922.08
626.213	11741.86
626.407	11844.26
626.602	11954.85
626.796	11492.01
626.991	11872.93
627.185	11866.78
627.38	11727.52
627.574	11725.47
627.768	11600.55
627.963	11801.25
628.157	11502.25
628.352	11324.07
628.546	11102.89
628.74	11512.49
628.935	11381.42
629.129	11389.61
629.323	11369.13
629.517	11201.19
629.712	11365.03
629.906	11037.36
630.1	11047.6
630.294	11252.39
630.489	11145.9
630.683	11035.31
630.877	10742.45
631.071	11231.91
631.265	10988.21
631.459	10961.58
631.653	10980.01
631.848	11016.88
632.042	10859.18
632.236	10795.7
632.43	10773.17
632.624	10783.41
632.818	10648.24
633.012	10504.89
633.206	10494.65
633.4	10703.54
633.594	10644.15
633.788	10601.14
633.982	10709.68
634.176	10644.15
634.369	10539.7
634.563	10320.57
634.757	10017.47
634.951	10396.34
635.145	10537.65
635.339	10259.13
635.533	10146.49
635.726	10134.2
635.92	10056.38
636.114	9892.54
636.308	9839.3
636.501	9886.4
636.695	10048.19
636.889	9485
637.083	9540.29
637.276	9648.83
637.47	9229
637.664	9415.37
637.857	9210.57
638.051	9278.15
638.244	9405.13
638.438	9149.13
638.632	8751.82
638.825	8788.69
639.019	9081.55
639.212	8833.74
639.406	8874.7
639.599	8757.97
639.793	8555.22
639.986	8409.81
640.18	8604.37
640.373	8272.6
640.567	8319.7
640.76	8061.66
640.954	8075.99
641.147	7951.07
641.34	8145.63
641.534	7977.69
641.727	7695.07
641.92	7776.99
642.114	7785.18
642.307	7369.44
642.5	7445.22
642.694	7434.98
642.887	7303.91
643.08	7400.16
643.273	7162.6
643.467	7066.35
643.66	6931.18
643.853	6712.05
644.046	6839.02
644.239	6974.19
644.432	6523.63
644.626	6322.93
644.819	6365.94
645.012	6570.74
645.205	6566.64
645.398	6578.93
645.591	6327.03
645.784	6138.62
645.977	5985.02
646.17	6034.17
646.363	5909.24
646.556	5952.25
646.749	5866.24
646.942	5837.56
647.135	5778.17
647.328	5790.46
647.521	5825.28
647.714	5415.68
647.907	5470.98
648.099	5485.31
648.292	5716.73
648.485	5391.11
648.678	5268.23
648.871	5475.07
649.064	5282.56
649.256	5038.86
649.449	5024.52
649.642	5028.62
649.835	5034.76
650.027	4764.43
650.22	4975.37
650.413	4995.85
650.605	5034.76
650.798	4733.71
650.991	4688.65
651.183	4883.21
651.376	4756.24
651.568	4576.02
651.761	4477.71
651.954	4680.46
652.146	4600.59
652.339	4561.68
652.531	4619.02
652.724	4348.69
652.916	4477.71
653.109	4182.81
653.301	4451.09
653.494	4571.92
653.686	4440.85
653.879	4274.96
654.071	4285.2
654.263	4328.21
654.456	4281.11
654.648	4320.02
654.84	4115.22
655.033	4143.89
655.225	4406.03
655.417	3842.84
655.61	4115.22
655.802	4358.93
655.994	4322.07
656.186	3887.9
656.379	4010.78
656.571	3906.33
656.763	3953.43
656.955	3932.95
657.148	3805.98
657.34	4055.83
657.532	3803.93
657.724	3777.31
657.916	3926.81
658.108	3842.84
658.3	3869.47
658.492	3621.66
658.684	3590.94
658.876	3947.29
659.068	3531.55
659.26	3316.51
659.452	3316.51
659.644	3445.54
659.836	3672.86
660.028	3396.39
660.22	3191.59
660.412	3355.43
660.604	3156.77
660.796	3185.44
660.988	3017.51
661.18	3191.59
661.372	3152.68
661.563	2986.79
661.755	2845.48
661.947	2921.26
662.139	2992.94
662.331	3040.04
662.522	2792.23
662.714	2667.31
662.906	2769.71
663.097	2691.88
663.289	2632.49
663.481	2560.81
663.673	2757.42
663.864	2571.05
664.056	2605.87
664.247	2482.99
664.439	2646.83
664.631	2452.27
664.822	2358.07
665.014	2542.38
665.205	2347.83
665.397	2183.99
665.588	2290.48
665.78	2339.63
665.971	2378.55
666.163	2112.31
666.354	2061.11
666.546	2083.64
666.737	2198.32
666.929	2093.88
667.12	2034.49
667.311	2212.66
667.503	2034.49
667.694	2018.1
667.885	1915.7
668.077	2227
668.268	1774.39
668.459	1837.88
668.651	1905.46
668.842	2011.96
669.033	1743.67
669.224	1694.52
669.416	2097.97
669.607	1811.26
669.798	1747.77
669.989	1719.1
670.18	1665.85
670.371	1854.27
670.563	1635.13
670.754	1817.4
670.945	1672
671.136	1895.22
671.327	1596.22
671.518	1575.74
671.709	1727.29
671.9	1844.03
672.091	1870.65
672.282	1534.78
672.473	1491.77
672.664	1473.34
672.855	1702.72
673.046	1561.41
673.237	1708.86
673.428	1669.95
673.619	1727.29
673.809	1420.1
674	1473.34
674.191	1762.11
674.382	1612.6
674.573	1508.16
674.764	1499.97
674.954	1725.24
675.145	1493.82
675.336	1313.6
675.527	1512.25
675.717	1512.25
675.908	1628.99
676.099	1477.44
676.289	1463.1
676.48	1469.25
676.671	1579.84
676.861	1473.34
677.052	1346.37
677.243	1502.01
677.433	1567.55
677.624	1502.01
677.814	1411.9
678.005	1643.32
678.195	1805.11
678.386	1602.36
678.576	1381.18
678.767	1370.94
678.957	1583.93
679.148	1565.5
679.338	1585.98
679.529	1692.48
679.719	1405.76
679.909	1610.56
680.1	1538.88
680.29	1749.82
680.481	1459.01
680.671	1583.93
680.861	1456.96
681.052	1811.26
681.242	1540.93
681.432	1741.63
681.622	1596.22
681.813	1600.32
682.003	1733.43
682.193	1495.87
682.383	1745.72
682.573	1850.17
682.764	1884.98
682.954	1809.21
683.144	1923.9
683.334	1889.08
683.524	1833.79
683.714	2046.77
683.904	1874.74
684.094	1954.62
684.284	2059.06
684.474	2083.64
684.664	2124.6
684.854	2241.33
685.044	2157.36
685.234	2054.97
685.424	2188.08
685.614	2145.08
685.804	2530.09
685.994	2247.48
686.184	2315.06
686.374	2558.77
686.564	2435.89
686.753	2591.53
686.943	2456.37
687.133	2523.95
687.323	2622.25
687.513	2607.92
687.702	2566.96
687.892	2779.95
688.082	3060.52
688.272	2816.81
688.461	2857.77
688.651	3285.8
688.841	3175.2
689.03	3021.61
689.22	3189.54
689.41	3437.34
689.599	3402.53
689.789	3287.84
689.979	3556.13
690.168	3586.85
690.358	3625.76
690.547	3455.78
690.737	3707.68
690.926	3853.08
691.116	3885.85
691.305	3926.81
691.495	3900.19
691.684	4121.37
691.874	4090.65
692.063	4111.13
692.252	4236.05
692.442	4727.57
692.631	4426.51
692.82	4436.75
693.01	4557.58
693.199	4664.08
693.388	4694.8
693.578	4711.18
693.767	4938.51
693.956	5036.81
694.146	5094.15
694.335	5085.96
694.524	4840.2
694.713	5513.99
694.902	5241.61
695.092	5227.27
695.281	5348.1
695.47	5403.39
695.659	5491.46
695.848	5507.84
696.037	5540.61
696.226	5958.39
696.415	5733.12
696.604	5878.52
696.793	5878.52
696.982	6032.12
697.171	6208.25
697.36	5874.43
697.549	5741.31
697.738	5931.77
697.927	6200.05
698.116	6066.94
698.305	6193.91
698.494	6439.67
698.683	6370.04
698.872	6408.95
699.061	6198.01
699.25	6687.47
699.438	6501.11
699.627	6613.74
699.816	6750.96
700.005	6654.7
700.193	6662.9
700.382	6617.84
700.571	6818.54
700.76	6861.55
700.948	7092.97
701.137	6679.28
701.326	6978.28
701.514	6796.01
701.703	7107.3
701.892	6789.87
702.08	7072.49
702.269	7205.61
702.457	7041.77
702.646	7140.07
702.834	6963.95
703.023	7287.53
703.212	7277.29
703.4	7228.14
703.589	7078.63
703.777	7181.03
703.965	7127.78
704.154	6986.47
704.342	7156.46
704.531	7326.44
704.719	7234.28
704.907	7467.75
705.096	7054.06
705.284	7199.46
705.472	7183.08
705.661	7234.28
705.849	7512.8
706.037	7588.58
706.226	7555.81
706.414	7408.36
706.602	7197.42
706.79	7338.73
706.979	7346.92
707.167	7338.73
707.355	7342.82
707.543	7473.89
707.731	7498.47
707.919	7346.92
708.107	7056.11
708.296	7303.91
708.484	7326.44
708.672	7236.33
708.86	7283.43
709.048	7520.99
709.236	7262.95
709.424	7242.47
709.612	7439.08
709.8	7269.09
709.988	7564
710.176	7576.29
710.364	7389.92
710.551	7320.29
710.739	7357.16
710.927	7283.43
711.115	7217.9
711.303	7408.36
711.491	7500.51
711.679	7164.65
711.866	7228.14
712.054	7387.88
712.242	7144.17
712.43	7574.24
712.617	7090.92
712.805	7437.03
712.993	7256.81
713.181	7107.3
713.368	7127.78
713.556	7330.53
713.744	7111.4
713.931	7111.4
714.119	7150.31
714.306	7379.68
714.494	6996.71
714.682	7160.55
714.869	6966
715.057	7156.46
715.244	6828.78
715.432	7099.11
715.619	6830.83
715.807	7099.11
715.994	7045.87
716.182	6957.8
716.369	6849.26
716.556	7187.18
716.744	6736.62
716.931	6796.01
717.119	6869.74
717.306	6818.54
717.493	7062.25
717.681	6712.05
717.868	6566.64
718.055	6933.23
718.242	6779.63
718.43	6611.7
718.617	6445.81
718.804	6587.12
718.991	6732.53
719.179	6429.43
719.366	6464.24
719.553	6730.48
719.74	6458.1
719.927	6568.69
720.114	6472.43
720.301	6417.14
720.488	6329.08
720.676	6517.49
720.863	6484.72
721.05	6787.82
721.237	6480.63
721.424	6466.29
721.611	6257.4
721.798	6206.2
721.985	6198.01
722.172	6114.04
722.358	6101.75
722.545	6402.8
722.732	6408.95
722.919	6249.21
723.106	6042.36
723.293	6044.41
723.48	6378.23
723.667	5851.9
723.853	6181.62
724.04	6128.38
724.227	6202.1
724.414	5952.25
724.6	5858.04
724.787	6312.69
724.974	6187.77
725.161	5909.24
725.347	5573.38
725.534	6087.42
725.72	6048.51
725.907	5853.95
726.094	5774.08
726.28	5829.37
726.467	5835.52
726.653	5548.8
726.84	5532.42
727.027	5901.05
727.213	5796.6
727.4	5649.15
727.586	5485.31
727.773	5751.55
727.959	5571.33
728.145	5597.95
728.332	5444.35
728.518	5565.18
728.705	5647.1
728.891	5315.33
729.077	5577.47
729.264	5364.48
729.45	5434.11
729.636	5368.58
729.823	5405.44
730.009	5636.86
730.195	5448.45
730.382	5405.44
730.568	5128.97
730.754	5620.48
730.94	5423.87
731.126	5135.11
731.313	5227.27
731.499	5444.35
731.685	5520.13
731.871	5251.85
732.057	5145.35
732.243	5589.76
732.429	5315.33
732.615	5221.13
732.801	5139.21
732.987	5128.97
733.173	5243.65
733.359	5083.91
733.545	5012.23
733.731	5042.95
733.917	5356.29
734.103	5104.39
734.289	5020.42
734.475	4907.79
734.661	5206.79
734.847	4985.61
735.033	4887.31
735.219	5022.47
735.404	4795.15
735.59	4766.48
735.776	4776.72
735.962	4858.64
736.148	4846.35
736.333	4676.37
736.519	4666.13
736.705	4741.9
736.89	4760.33
737.076	4688.65
737.262	4463.38
737.447	4674.32
737.633	4606.74
737.819	4702.99
738.004	4504.34
738.19	4543.25
738.375	4576.02
738.561	4549.39
738.747	4320.02
738.932	4354.83
739.118	4848.4
739.303	4537.1
739.489	4457.23
739.674	4494.1
739.859	4223.76
740.045	4434.71
740.23	4197.14
740.416	4117.27
740.601	4412.18
740.786	4199.19
740.972	4043.54
741.157	4463.38
741.342	4145.94
741.528	4170.52
741.713	4180.76
741.898	4080.41
742.084	4248.34
742.269	4051.74
742.454	4078.36
742.639	4256.53
742.824	4127.51
743.01	4115.22
743.195	4012.82
743.38	4111.13
743.565	4088.6
743.75	3963.67
743.935	4021.02
744.12	4217.62
744.305	3814.17
744.49	3859.23
744.675	3713.82
744.86	3951.39
745.045	4082.46
745.23	3808.03
745.415	3699.48
745.6	3984.15
745.785	3672.86
745.97	3674.91
746.155	3691.29
746.34	3924.76
746.525	3750.68
746.71	3633.95
746.895	3486.5
747.079	3611.42
747.264	3470.11
747.449	3541.79
747.634	3492.64
747.819	3656.48
748.003	3533.6
748.188	3357.47
748.373	3418.91
748.557	3599.13
748.742	3478.3
748.927	3240.74
749.111	3244.84
749.296	3355.43
749.481	3312.42
749.665	3306.27
749.85	3011.37
750.034	3355.43
750.219	3277.6
750.404	3074.85
750.588	3126.05
750.773	3072.81
750.957	3152.68
751.141	2999.08
751.326	3095.33
751.51	3105.57
751.695	3044.13
751.879	3052.33
752.064	3175.2
752.248	2982.7
752.432	3207.97
752.617	2820.91
752.801	2986.79
752.985	2841.39
753.17	3250.98
753.354	2835.24
753.538	2714.41
753.722	2872.11
753.907	2798.38
754.091	2734.89
754.275	2765.61
754.459	2695.98
754.643	2827.05
754.828	2771.76
755.012	2552.62
755.196	2675.5
755.38	2691.88
755.564	2448.18
755.748	2519.85
755.932	2644.78
756.116	2689.84
756.3	2530.09
756.484	2560.81
756.668	2689.84
756.852	2435.89
757.036	2370.35
757.22	2366.26
757.404	2380.59
757.588	2403.12
757.772	2437.94
757.956	2370.35
758.14	2650.92
758.323	2310.96
758.507	2362.16
758.691	2298.67
758.875	2538.29
759.059	2515.76
759.242	2067.25
759.426	2263.86
759.61	2241.33
759.794	2198.32
759.977	2218.8
760.161	2569.01
760.345	2284.34
760.528	2255.67
760.712	1983.29
760.895	2110.26
761.079	2038.58
761.263	1825.59
761.446	1880.89
761.63	1796.92
761.813	2059.06
761.997	1870.65
762.18	1846.07
762.364	1968.95
762.547	1700.67
762.731	1866.55
762.914	1827.64
763.098	1700.67
763.281	1897.27
763.464	1913.66
763.648	1811.26
763.831	1729.34
764.015	1846.07
764.198	1911.61
764.381	1776.44
764.564	1657.66
764.748	1968.95
764.931	1909.56
765.114	1780.54
765.297	1858.36
765.481	1723.2
765.664	1870.65
765.847	1825.59
766.03	1882.94
766.213	1827.64
766.397	1960.76
766.58	1665.85
766.763	1880.89
766.946	1909.56
767.129	1792.83
767.312	1737.53
767.495	1788.73
767.678	1807.16
767.861	1938.23
768.044	1690.43
768.227	1731.39
768.41	1770.3
768.593	1993.53
768.776	1921.85
768.959	1819.45
769.142	2102.07
769.324	1844.03
769.507	1659.71
769.69	1825.59
769.873	1864.5
770.056	2054.97
770.239	1706.81
770.421	1817.4
770.604	2030.39
770.787	1794.87
770.97	1758.01
771.152	1618.75
771.335	1964.86
771.518	1635.13
771.7	1661.76
771.883	1930.04
772.066	1696.57
772.248	1884.98
772.431	1895.22
772.613	1690.43
772.796	1729.34
772.978	1825.59
773.161	1778.49
773.343	1602.36
773.526	1682.24
773.708	1495.87
773.891	1545.02
774.073	1690.43
774.256	1612.6
774.438	1973.05
774.621	1583.93
774.803	1645.37
774.985	1649.47
775.168	1774.39
775.35	1518.4
775.532	1567.55
775.715	1590.08
775.897	1669.95
776.079	1563.45
776.261	1579.84
776.444	1614.65
776.626	1545.02
776.808	1526.59
776.99	1424.19
777.173	1608.51
777.355	1551.17
777.537	1426.24
777.719	1502.01
777.901	1499.97
778.083	1424.19
778.265	1344.32
778.447	1385.28
778.629	1332.03
778.811	1422.14
778.993	1438.53
779.175	1485.63
779.357	1493.82
779.539	1194.82
779.721	1440.58
779.903	1377.09
780.085	1295.17
780.267	1536.83
780.449	1346.37
780.631	1473.34
780.812	1469.25
780.994	1264.45
781.176	1196.87
781.358	1125.19
781.54	1284.93
781.721	1397.57
781.903	1297.22
782.085	1168.2
782.267	1299.27
782.448	1086.28
782.63	1237.83
782.812	1229.63
782.993	1317.7
783.175	1266.5
783.357	1028.93
783.538	1248.07
783.72	1174.34
783.901	1217.35
784.083	1221.44
784.264	1133.38
784.446	1012.55
784.627	1020.74
784.809	1043.27
784.99	1000.26
785.172	1160
785.353	1153.86
785.535	1004.36
785.716	994.12
785.897	1000.26
786.079	1067.85
786.26	955.21
786.441	1151.81
786.623	760.65
786.804	961.35
786.985	951.11
787.167	955.21
787.348	947.01
787.529	969.54
787.71	949.06
787.891	981.83
788.073	938.82
788.254	838.47
788.435	1051.46
788.616	891.72
788.797	875.34
788.978	947.01
789.159	861
789.34	899.91
789.522	885.58
789.703	928.58
789.884	852.81
790.065	957.25
790.246	1194.82
790.427	930.63
790.607	875.34
790.788	936.78
790.969	844.62
791.15	1014.6
791.331	705.35
791.512	777.03
791.693	873.29
791.874	938.82
792.054	965.45
792.235	871.24
792.416	740.17
792.597	781.13
792.778	824.14
792.958	680.78
793.139	949.06
793.32	762.7
793.5	568.14
793.681	725.83
793.862	916.3
794.042	725.83
794.223	617.29
794.404	699.21
794.584	564.04
794.765	744.27
794.945	701.26
795.126	836.42
795.306	942.92
795.487	774.99
795.667	639.82
795.848	631.63
796.028	803.66
796.209	691.02
796.389	885.58
796.57	607.05
796.75	703.31
796.93	693.07
797.111	596.81
797.291	617.29
797.471	795.47
797.652	660.3
797.832	572.24
798.012	645.96
798.192	754.51
798.373	553.8
798.553	664.4
798.733	729.93
798.913	631.63
799.093	629.58
799.274	533.33
799.454	676.68
799.634	805.71
799.814	744.27
799.994	662.35
800.174	766.79
800.354	748.36
800.534	463.69
800.714	674.64
800.894	437.07
801.074	529.23
801.254	518.99
801.434	707.4
801.614	557.9
801.794	539.47
801.974	4848.4
802.154	521.04
802.334	691.02
802.514	492.37
802.693	600.91
802.873	494.41
803.053	682.83
803.233	760.65
803.413	576.33
803.592	416.59
803.772	553.8
803.952	572.24
804.131	357.2
804.311	529.23
804.491	627.53
804.67	465.74
804.85	486.22
805.03	605
805.209	670.54
805.389	516.94
805.568	510.8
805.748	463.69
805.928	486.22
806.107	721.74
806.287	600.91
806.466	539.47
806.646	527.18
806.825	605
807.004	469.84
807.184	521.04
807.363	514.89
807.543	572.24
807.722	422.73
807.901	650.06
808.081	461.65
808.26	234.32
808.439	600.91
808.619	363.34
808.798	375.63
808.977	478.03
809.156	764.75
809.336	518.99
809.515	471.89
809.694	336.72
809.873	377.68
810.052	396.11
810.231	594.76
810.411	566.09
810.59	621.39
810.769	535.37
810.948	535.37
811.127	234.32
811.306	441.17
811.485	320.34
811.664	518.99
811.843	572.24
812.022	541.52
812.201	387.92
812.38	254.8
812.559	355.15
812.737	551.76
812.916	301.9
813.095	349.01
813.274	674.64
813.453	570.19
813.632	402.26
813.811	482.13
813.989	265.04
814.168	439.12
814.347	250.71
814.526	332.62
814.704	662.35
814.883	609.1
815.062	193.36
815.24	330.58
815.419	246.61
815.598	531.28
815.776	195.41
815.955	279.38
816.133	113.49
816.312	473.93
816.49	314.19
816.669	373.58
816.847	389.97
817.026	428.88
817.204	439.12
817.383	342.86
817.561	258.9
817.74	441.17
817.918	430.93
818.097	314.19
818.275	287.57
818.453	447.31
818.632	340.82
818.81	324.43
818.988	338.77
819.167	306
819.345	314.19
819.523	222.03
819.701	406.35
819.879	455.5
820.058	398.16
820.236	303.95
820.414	291.66
820.592	344.91
820.77	281.43
820.948	172.88
821.127	416.59
821.305	475.98
821.483	117.59
821.661	281.43
821.839	334.67
822.017	322.38
822.195	265.04
822.373	316.24
822.551	256.85
822.729	369.49
822.907	162.64
823.085	273.23
823.262	420.69
823.44	252.75
823.618	306
823.796	316.24
823.974	324.43
824.152	133.97
824.329	252.75
824.507	224.08
824.685	480.08
824.863	301.9
825.04	195.41
825.218	262.99
825.396	330.58
825.574	365.39
825.751	287.57
825.929	250.71
826.107	179.03
826.284	506.7
826.462	240.47
826.639	232.27
826.817	138.07
826.994	289.62
827.172	148.31
827.349	303.95
827.527	383.82
827.704	306
827.882	346.96
828.059	226.13
828.237	283.47
828.414	385.87
828.591	41.81
828.769	174.93
828.946	244.56
829.124	453.45
829.301	389.97
829.478	224.08
829.655	422.73
829.833	324.43
830.01	27.48
830.187	250.71
830.364	359.25
830.542	365.39
830.719	285.52
830.896	267.09
831.073	242.51
831.25	351.06
831.427	170.83
831.604	279.38
831.782	193.36
831.959	359.25
832.136	287.57
832.313	201.55
832.49	273.23
832.667	293.71
832.844	7
833.021	314.19
833.198	346.96
833.374	275.28
833.551	289.62
833.728	193.36
833.905	373.58
834.082	-5.29
834.259	293.71
834.436	349.01
834.612	265.04
834.789	349.01
834.966	250.71
835.143	285.52
835.319	64.34
835.496	371.54
835.673	254.8
835.85	281.43
836.026	392.02
836.203	336.72
836.38	82.77
836.556	181.07
836.733	199.51
836.909	449.36
837.086	133.97
837.262	97.11
837.439	201.55
837.616	105.3
837.792	156.5
837.968	232.27
838.145	70.48
838.321	267.09
838.498	197.46
838.674	297.81
838.851	346.96
839.027	273.23
839.203	228.18
839.38	297.81
839.556	148.31
839.732	385.87
839.909	207.7
840.085	187.22
840.261	230.23
840.437	162.64
840.614	185.17
840.79	246.61
840.966	414.54
841.142	193.36
841.318	197.46
841.494	115.54
841.671	373.58
841.847	131.92
842.023	56.15
842.199	213.84
842.375	516.94
842.551	80.72
842.727	113.49
842.903	281.43
843.079	127.83
843.255	445.26
843.431	142.16
843.607	252.75
843.783	-113.83
843.959	328.53
844.134	222.03
844.31	299.86
844.486	101.2
844.662	164.69
844.838	213.84
845.013	164.69
845.189	363.34
845.365	289.62
845.541	228.18
845.716	246.61
845.892	406.35
846.068	185.17
846.244	115.54
846.419	154.45
846.595	72.53
846.77	93.01
846.946	289.62
847.122	121.68
847.297	197.46
847.473	430.93
847.648	29.52
847.824	101.2
847.999	13.14
848.175	199.51
848.35	217.94
848.526	371.54
848.701	414.54
848.876	346.96
849.052	265.04
849.227	179.03
849.403	179.03
849.578	193.36
849.753	224.08
849.929	154.45
850.104	101.2
850.279	234.32
850.454	271.19
850.63	123.73
850.805	283.47
850.98	275.28
851.155	203.6
851.33	162.64
851.505	52.05
851.681	385.87
851.856	-3.24
852.031	131.92
852.206	248.66
852.381	37.72
852.556	127.83
852.731	117.59
852.906	250.71
853.081	254.8
853.256	256.85
853.431	90.96
853.606	136.02
853.781	39.76
853.956	-91.31
854.131	240.47
854.305	86.87
854.48	105.3
854.655	9.05
854.83	45.91
855.005	222.03
855.18	260.95
855.354	119.64
855.529	58.2
855.704	179.03
855.879	318.29
856.053	101.2
856.228	197.46
856.403	105.3
856.577	248.66
856.752	-68.78
856.926	129.88
857.101	232.27
857.276	80.72
857.45	170.83
857.625	193.36
857.799	306
857.974	189.27
858.148	-44.2
858.323	166.74
858.497	140.12
858.672	166.74
858.846	90.96
859.02	211.79
859.195	52.05
859.369	125.78
859.543	228.18
859.718	254.8
859.892	262.99
860.066	281.43
860.241	43.86
860.415	101.2
860.589	219.99
860.763	103.25
860.938	176.98
861.112	181.07
861.286	99.16
861.46	238.42
861.634	86.87
861.808	119.64
861.982	27.48
862.157	123.73
862.331	35.67
862.505	-52.39
862.679	15.19
862.853	62.29
863.027	74.58
863.201	148.31
863.375	154.45
863.549	152.4
863.722	183.12
863.896	224.08
864.07	123.73
864.244	207.7
864.418	213.84
864.592	103.25
864.766	148.31
864.939	183.12
865.113	84.82
865.287	342.86
865.461	117.59
865.634	228.18
865.808	111.44
865.982	117.59
866.156	101.2
866.329	2.9
866.503	160.59
866.676	152.4
866.85	203.6
867.024	37.72
867.197	242.51
867.371	117.59
867.544	297.81
867.718	-17.58
867.891	291.66
868.065	9.05
868.238	176.98
868.412	236.37
868.585	150.36
868.759	74.58
868.932	170.83
869.105	29.52
869.279	260.95
869.452	-83.11
869.625	215.89
869.799	160.59
869.972	11.09
870.145	117.59
870.319	363.34
870.492	166.74
870.665	109.4
870.838	-17.58
871.011	-46.25
871.185	136.02
871.358	52.05
871.531	240.47
871.704	23.38
871.877	164.69
872.05	15.19
872.223	-105.64
872.396	320.34
872.569	199.51
872.742	-52.39
872.915	150.36
873.088	105.3
873.261	54.1
873.434	181.07
873.607	109.4
873.78	377.68
873.953	-11.43
874.126	68.44
874.299	193.36
874.471	23.38
874.644	107.35
874.817	205.65
874.99	256.85
875.163	140.12
875.335	133.97
875.508	-13.48
875.681	226.13
875.853	183.12
876.026	224.08
876.199	156.5
876.371	56.15
876.544	93.01
876.717	170.83
876.889	62.29
877.062	215.89
877.234	35.67
877.407	95.06
877.579	37.72
877.752	123.73
877.924	334.67
878.097	199.51
878.269	99.16
878.442	107.35
878.614	281.43
878.786	211.79
878.959	29.52
879.131	109.4
879.303	-64.68
879.476	127.83
879.648	277.33
879.82	47.96
879.993	138.07
880.165	154.45
880.337	-42.15
880.509	103.25
880.681	54.1
880.854	7
881.026	148.31
881.198	146.26
881.37	66.39
881.542	166.74
881.714	47.96
881.886	27.48
882.058	123.73
882.23	158.55
882.402	156.5
882.574	140.12
882.746	273.23
882.918	408.4
883.09	101.2
883.262	88.92
883.434	262.99
883.606	-74.92
883.778	144.21
883.95	152.4
884.122	88.92
884.293	349.01
884.465	84.82
884.637	207.7
884.809	43.86
884.98	258.9
885.152	158.55
885.324	226.13
885.496	113.49
885.667	23.38
885.839	15.19
886.011	140.12
886.182	275.28
886.354	271.19
886.525	226.13
886.697	35.67
886.869	15.19
887.04	127.83
887.212	162.64
887.383	248.66
887.555	138.07
887.726	68.44
887.897	29.52
888.069	21.33
888.24	310.1
888.412	111.44
888.583	68.44
888.754	76.63
888.926	-50.35
889.097	80.72
889.268	-130.22
889.44	-13.48
889.611	-31.91
889.782	-36.01
889.953	-46.25
890.125	174.93
890.296	15.19
890.467	103.25
890.638	90.96
890.809	80.72
890.98	117.59
891.151	275.28
891.323	201.55
891.494	-3.24
891.665	209.75
891.836	193.36
892.007	82.77
892.178	164.69
892.349	199.51
892.52	29.52
892.691	99.16
892.862	21.33
893.032	-40.11
893.203	21.33
893.374	123.73
893.545	158.55
893.716	52.05
893.887	289.62
894.057	64.34
894.228	101.2
894.399	29.52
894.57	361.3
894.74	158.55
894.911	133.97
895.082	191.31
895.253	-1.19
895.423	113.49
895.594	119.64
895.764	215.89
895.935	19.29
896.106	107.35
896.276	-1.19
896.447	154.45
896.617	52.05
896.788	-48.3
896.958	17.24
897.129	68.44
897.299	21.33
897.47	215.89
897.64	133.97
897.81	86.87
897.981	205.65
898.151	60.24
898.322	105.3
898.492	262.99
898.662	93.01
898.832	-23.72
899.003	33.62
899.173	232.27
899.343	54.1
899.513	-111.78
