Data from USB4F104151__22__12-15-57-845.txt Node

Date: Wed Feb 19 12:15:57 EST 2025
User: louis
Spectrometer: USB4F10415
Trigger mode: 4
Integration Time (sec): 2.250200E-1
Scans to average: 1
Electric dark correction enabled: true
Nonlinearity correction enabled: false
Boxcar width: 0
XAxis mode: Wavelengths
Number of Pixels in Spectrum: 3648
>>>>>Begin Spectral Data<<<<<
178.204	-795.81
178.424	-795.81
178.644	-795.81
178.864	-822.43
179.084	-853.15
179.304	193.36
179.524	136.02
179.744	31.57
179.964	-283.81
180.184	211.79
180.404	133.97
180.624	-259.24
180.844	-158.89
181.064	-3.24
181.283	219.99
181.503	-142.5
181.723	-79.02
181.943	-23.72
182.163	422.73
182.383	-285.86
182.602	-261.29
182.822	406.35
183.042	195.41
183.262	-222.38
183.482	-212.14
183.701	203.6
183.921	176.98
184.141	-132.26
184.361	-124.07
184.58	258.9
184.8	205.65
185.02	-205.99
185.239	-138.41
185.459	260.95
185.679	334.67
185.898	-324.77
186.118	-285.86
186.338	283.47
186.557	303.95
186.777	-238.76
186.997	-263.33
187.216	197.46
187.436	465.74
187.655	-156.84
187.875	-74.92
188.095	242.51
188.314	398.16
188.534	-97.45
188.753	-271.53
188.973	353.1
189.192	392.02
189.412	-230.57
189.631	-107.69
189.851	306
190.07	381.78
190.29	-212.14
190.509	-269.48
190.729	230.23
190.948	398.16
191.168	-85.16
191.387	-251.05
191.607	189.27
191.826	246.61
192.045	-191.66
192.265	-185.51
192.484	295.76
192.704	156.5
192.923	-175.27
193.142	-97.45
193.362	267.09
193.581	371.54
193.8	-134.31
194.02	-142.5
194.239	209.75
194.458	369.49
194.678	-126.12
194.897	-240.81
195.116	181.07
195.335	246.61
195.555	-154.79
195.774	-251.05
195.993	449.36
196.212	205.65
196.432	-119.98
196.651	-255.14
196.87	166.74
197.089	602.96
197.308	-259.24
197.528	-64.68
197.747	29.52
197.966	213.84
198.185	-36.01
198.404	-187.56
198.623	283.47
198.842	375.63
199.062	-103.59
199.281	-58.54
199.5	258.9
199.719	310.1
199.938	-191.66
200.157	-191.66
200.376	371.54
200.595	508.75
200.814	-115.88
201.033	-165.03
201.252	408.4
201.471	232.27
201.69	-253.09
201.909	-197.8
202.128	306
202.347	201.55
202.566	-165.03
202.785	-322.73
203.004	70.48
203.223	478.03
203.442	-181.42
203.661	-277.67
203.879	318.29
204.098	383.82
204.317	-169.13
204.536	-27.82
204.755	349.01
204.974	349.01
205.193	-298.15
205.411	-97.45
205.63	303.95
205.849	279.38
206.068	-199.85
206.287	-253.09
206.505	367.44
206.724	189.27
206.943	-289.96
207.162	-267.43
207.381	228.18
207.599	185.17
207.818	-54.44
208.037	-259.24
208.255	252.75
208.474	246.61
208.693	-144.55
208.911	-152.74
209.13	258.9
209.349	334.67
209.567	-70.83
209.786	-240.81
210.005	349.01
210.223	275.28
210.442	-398.5
210.661	-255.14
210.879	250.71
211.098	164.69
211.316	-52.39
211.535	-134.31
211.753	283.47
211.972	275.28
212.191	-171.18
212.409	-251.05
212.628	236.37
212.846	156.5
213.065	-275.62
213.283	-171.18
213.502	187.22
213.72	105.3
213.938	-146.6
214.157	-197.8
214.375	299.86
214.594	174.93
214.812	-95.4
215.031	-191.66
215.249	217.94
215.467	291.66
215.686	-115.88
215.904	-238.76
216.122	168.79
216.341	398.16
216.559	-9.39
216.778	-9.39
216.996	435.02
217.214	144.21
217.432	-126.12
217.651	-330.92
217.869	262.99
218.087	213.84
218.306	-242.85
218.524	-199.85
218.742	146.26
218.96	420.69
219.179	-162.98
219.397	-156.84
219.615	414.54
219.833	297.81
220.051	-259.24
220.27	-109.74
220.488	400.21
220.706	217.94
220.924	-197.8
221.142	-246.95
221.36	234.32
221.578	326.48
221.796	-160.94
222.015	-109.74
222.233	232.27
222.451	371.54
222.669	-58.54
222.887	-54.44
223.105	154.45
223.323	168.79
223.541	-162.98
223.759	-83.11
223.977	209.75
224.195	467.79
224.413	-99.5
224.631	-214.18
224.849	283.47
225.067	570.19
225.285	-93.35
225.503	-197.8
225.721	-42.15
225.939	176.98
226.157	-23.72
226.375	43.86
226.592	172.88
226.81	191.31
227.028	11.09
227.246	-93.35
227.464	164.69
227.682	273.23
227.9	-156.84
228.117	-60.59
228.335	265.04
228.553	262.99
228.771	-236.71
228.989	-152.74
229.206	306
229.424	160.59
229.642	-191.66
229.86	-187.56
230.077	381.78
230.295	168.79
230.513	-105.64
230.731	-156.84
230.948	465.74
231.166	387.92
231.384	-93.35
231.601	-126.12
231.819	375.63
232.037	90.96
232.254	-44.2
232.472	-99.5
232.689	70.48
232.907	295.76
233.125	-165.03
233.342	-249
233.56	191.31
233.777	99.16
233.995	-203.94
234.213	-109.74
234.43	299.86
234.648	162.64
234.865	-154.79
235.083	-13.48
235.3	203.6
235.518	262.99
235.735	-50.35
235.953	-130.22
236.17	236.37
236.388	113.49
236.605	15.19
236.822	-117.93
237.04	293.71
237.257	295.76
237.475	-199.85
237.692	-126.12
237.909	287.57
238.127	172.88
238.344	2.9
238.562	-142.5
238.779	21.33
238.996	13.14
239.214	-76.97
239.431	-146.6
239.648	146.26
239.865	217.94
240.083	-83.11
240.3	-165.03
240.517	156.5
240.735	179.03
240.952	-68.78
241.169	-87.21
241.386	269.14
241.603	86.87
241.821	-197.8
242.038	-81.07
242.255	297.81
242.472	19.29
242.689	-138.41
242.907	-179.37
243.124	172.88
243.341	170.83
243.558	-103.59
243.775	-199.85
243.992	47.96
244.209	195.41
244.426	-50.35
244.643	-113.83
244.86	164.69
245.078	269.14
245.295	-72.87
245.512	-179.37
245.729	72.53
245.946	205.65
246.163	-115.88
246.38	-150.7
246.597	228.18
246.814	148.31
247.031	-58.54
247.248	-195.75
247.464	201.55
247.681	230.23
247.898	-144.55
248.115	-60.59
248.332	119.64
248.549	381.78
248.766	-9.39
248.983	-119.98
249.2	267.09
249.417	346.96
249.633	-101.55
249.85	4.95
250.067	133.97
250.284	217.94
250.501	-177.32
250.717	-156.84
250.934	131.92
251.151	185.17
251.368	-46.25
251.585	-167.08
251.801	219.99
252.018	70.48
252.235	27.48
252.451	-146.6
252.668	252.75
252.885	246.61
253.102	-101.55
253.318	-146.6
253.535	154.45
253.752	103.25
253.968	-228.52
254.185	-226.47
254.401	160.59
254.618	248.66
254.835	-91.31
255.051	-60.59
255.268	279.38
255.484	179.03
255.701	-109.74
255.917	-128.17
256.134	76.63
256.351	103.25
256.567	-261.29
256.784	4.95
257	-19.63
257.217	318.29
257.433	-3.24
257.65	-83.11
257.866	367.44
258.082	56.15
258.299	-210.09
258.515	-70.83
258.732	84.82
258.948	80.72
259.165	-117.93
259.381	-142.5
259.597	254.8
259.814	90.96
260.03	-173.22
260.246	-128.17
260.463	308.05
260.679	330.58
260.895	9.05
261.112	-70.83
261.328	162.64
261.544	54.1
261.761	-109.74
261.977	-64.68
262.193	47.96
262.409	250.71
262.626	2.9
262.842	-150.7
263.058	105.3
263.274	338.77
263.49	-117.93
263.707	-162.98
263.923	283.47
264.139	37.72
264.355	-111.78
264.571	-40.11
264.787	228.18
265.004	256.85
265.22	-81.07
265.436	-185.51
265.652	148.31
265.868	246.61
266.084	-195.75
266.3	-119.98
266.516	43.86
266.732	187.22
266.948	-76.97
267.164	-212.14
267.38	297.81
267.596	252.75
267.812	129.88
268.028	-115.88
268.244	199.51
268.46	158.55
268.676	-99.5
268.892	17.24
269.108	60.24
269.324	-1.19
269.54	-169.13
269.756	-44.2
269.972	35.67
270.188	146.26
270.403	-95.4
270.619	-89.26
270.835	140.12
271.051	152.4
271.267	-115.88
271.483	-263.33
271.698	254.8
271.914	240.47
272.13	-54.44
272.346	-132.26
272.562	133.97
272.777	351.06
272.993	23.38
273.209	-175.27
273.425	222.03
273.64	-27.82
273.856	-56.49
274.072	-183.46
274.287	47.96
274.503	256.85
274.719	54.1
274.934	-134.31
275.15	-3.24
275.366	123.73
275.581	-115.88
275.797	-91.31
276.012	242.51
276.228	72.53
276.444	-5.29
276.659	95.06
276.875	17.24
277.09	66.39
277.306	-15.53
277.521	-132.26
277.737	189.27
277.952	219.99
278.168	-99.5
278.383	-91.31
278.599	170.83
278.814	248.66
279.03	-105.64
279.245	13.14
279.461	113.49
279.676	170.83
279.892	-23.72
280.107	-99.5
280.322	101.2
280.538	222.03
280.753	-146.6
280.969	-93.35
281.184	238.42
281.399	287.57
281.615	15.19
281.83	-3.24
282.045	90.96
282.26	-27.82
282.476	-5.29
282.691	70.48
282.906	152.4
283.122	191.31
283.337	-36.01
283.552	-52.39
283.767	125.78
283.983	195.41
284.198	-27.82
284.413	-136.36
284.628	0.85
284.843	168.79
285.058	-79.02
285.274	-87.21
285.489	195.41
285.704	185.17
285.919	-33.96
286.134	-48.3
286.349	123.73
286.564	33.62
286.779	37.72
286.995	-38.06
287.21	13.14
287.425	172.88
287.64	-83.11
287.855	84.82
288.07	-62.63
288.285	215.89
288.5	72.53
288.715	-31.91
288.93	217.94
289.145	35.67
289.36	-50.35
289.575	-64.68
289.79	283.47
290.004	27.48
290.219	58.2
290.434	-48.3
290.649	56.15
290.864	68.44
291.079	-38.06
291.294	17.24
291.509	207.7
291.724	88.92
291.938	-70.83
292.153	-52.39
292.368	166.74
292.583	226.13
292.798	-58.54
293.012	-31.91
293.227	205.65
293.442	168.79
293.657	54.1
293.871	-11.43
294.086	246.61
294.301	320.34
294.516	37.72
294.73	66.39
294.945	43.86
295.16	170.83
295.374	-29.87
295.589	72.53
295.804	125.78
296.018	236.37
296.233	-85.16
296.447	97.11
296.662	156.5
296.877	367.44
297.091	-23.72
297.306	-27.82
297.52	88.92
297.735	277.33
297.949	76.63
298.164	-195.75
298.378	168.79
298.593	21.33
298.807	-42.15
299.022	35.67
299.236	353.1
299.451	62.29
299.665	29.52
299.88	-38.06
300.094	260.95
300.309	97.11
300.523	-42.15
300.737	-113.83
300.952	279.38
301.166	205.65
301.381	31.57
301.595	-130.22
301.809	107.35
302.024	107.35
302.238	-93.35
302.452	113.49
302.667	129.88
302.881	301.9
303.095	-3.24
303.309	11.09
303.524	97.11
303.738	160.59
303.952	80.72
304.166	74.58
304.381	-99.5
304.595	248.66
304.809	13.14
305.023	-74.92
305.237	136.02
305.452	136.02
305.666	-81.07
305.88	-19.63
306.094	252.75
306.308	203.6
306.522	-42.15
306.736	41.81
306.95	209.75
307.164	15.19
307.379	-15.53
307.593	82.77
307.807	256.85
308.021	258.9
308.235	88.92
308.449	-70.83
308.663	64.34
308.877	580.43
309.091	50
309.305	150.36
309.519	-85.16
309.733	219.99
309.947	-29.87
310.161	-70.83
310.374	179.03
310.588	213.84
310.802	-95.4
311.016	0.85
311.23	119.64
311.444	29.52
311.658	4.95
311.872	154.45
312.085	299.86
312.299	281.43
312.513	185.17
312.727	-85.16
312.941	-25.77
313.154	119.64
313.368	15.19
313.582	-11.43
313.796	164.69
314.009	146.26
314.223	144.21
314.437	111.44
314.651	226.13
314.864	60.24
315.078	-105.64
315.292	-134.31
315.505	115.54
315.719	105.3
315.933	17.24
316.146	-72.87
316.36	41.81
316.573	205.65
316.787	144.21
317.001	70.48
317.214	-11.43
317.428	123.73
317.641	-97.45
317.855	-36.01
318.068	244.56
318.282	168.79
318.495	105.3
318.709	-83.11
318.922	127.83
319.136	256.85
319.349	-27.82
319.563	-68.78
319.776	222.03
319.99	-124.07
320.203	35.67
320.417	21.33
320.63	129.88
320.843	254.8
321.057	68.44
321.27	15.19
321.483	219.99
321.697	209.75
321.91	-19.63
322.124	-15.53
322.337	138.07
322.55	23.38
322.763	-62.63
322.977	-81.07
323.19	43.86
323.403	109.4
323.617	37.72
323.83	154.45
324.043	45.91
324.256	138.07
324.469	-201.9
324.683	136.02
324.896	164.69
325.109	72.53
325.322	-183.46
325.535	25.43
325.748	349.01
325.962	125.78
326.175	21.33
326.388	2.9
326.601	152.4
326.814	41.81
327.027	107.35
327.24	99.16
327.453	-36.01
327.666	232.27
327.879	123.73
328.092	64.34
328.305	185.17
328.518	109.4
328.731	-29.87
328.944	-101.55
329.157	164.69
329.37	70.48
329.583	93.01
329.796	170.83
330.009	-142.5
330.222	269.14
330.435	82.77
330.648	97.11
330.861	219.99
331.073	84.82
331.286	66.39
331.499	-33.96
331.712	41.81
331.925	136.02
332.138	-44.2
332.35	-17.58
332.563	168.79
332.776	293.71
332.989	-93.35
333.202	-89.26
333.414	154.45
333.627	103.25
333.84	-107.69
334.053	95.06
334.265	-23.72
334.478	54.1
334.691	-29.87
334.903	54.1
335.116	148.31
335.329	78.68
335.541	-40.11
335.754	226.13
335.966	88.92
336.179	168.79
336.392	-13.48
336.604	54.1
336.817	136.02
337.029	205.65
337.242	-33.96
337.454	4.95
337.667	133.97
337.88	219.99
338.092	111.44
338.305	88.92
338.517	86.87
338.729	228.18
338.942	70.48
339.154	-60.59
339.367	60.24
339.579	293.71
339.792	-105.64
340.004	66.39
340.217	64.34
340.429	230.23
340.641	-29.87
340.854	-140.46
341.066	189.27
341.278	308.05
341.491	121.68
341.703	19.29
341.915	74.58
342.128	267.09
342.34	60.24
342.552	-52.39
342.764	191.31
342.977	201.55
343.189	95.06
343.401	37.72
343.613	7
343.826	140.12
344.038	-48.3
344.25	43.86
344.462	105.3
344.674	211.79
344.886	-105.64
345.099	-9.39
345.311	279.38
345.523	117.59
345.735	-165.03
345.947	21.33
346.159	187.22
346.371	138.07
346.583	33.62
346.795	45.91
347.007	99.16
347.219	246.61
347.431	41.81
347.643	111.44
347.855	84.82
348.067	295.76
348.279	-99.5
348.491	-52.39
348.703	299.86
348.915	117.59
349.127	-62.63
349.339	17.24
349.551	109.4
349.763	211.79
349.975	35.67
350.187	25.43
350.399	392.02
350.61	174.93
350.822	-27.82
351.034	-64.68
351.246	322.38
351.458	211.79
351.669	80.72
351.881	11.09
352.093	320.34
352.305	219.99
352.517	-58.54
352.728	117.59
352.94	133.97
353.152	267.09
353.363	-74.92
353.575	9.05
353.787	342.86
353.999	267.09
354.21	136.02
354.422	-142.5
354.633	127.83
354.845	166.74
355.057	4.95
355.268	4.95
355.48	234.32
355.692	-7.34
355.903	4.95
356.115	-93.35
356.326	-50.35
356.538	324.43
356.749	-64.68
356.961	97.11
357.172	138.07
357.384	72.53
357.595	217.94
357.807	29.52
358.018	72.53
358.23	142.16
358.441	-85.16
358.653	9.05
358.864	138.07
359.075	-13.48
359.287	76.63
359.498	-9.39
359.709	189.27
359.921	191.31
360.132	70.48
360.344	-79.02
360.555	78.68
360.766	205.65
360.977	-7.34
361.189	9.05
361.4	62.29
361.611	306
361.823	78.68
362.034	27.48
362.245	-42.15
362.456	54.1
362.667	195.41
362.879	-224.42
363.09	252.75
363.301	168.79
363.512	13.14
363.723	-79.02
363.935	101.2
364.146	248.66
364.357	11.09
364.568	-15.53
364.779	54.1
364.99	234.32
365.201	-1.19
365.412	74.58
365.623	17.24
365.834	199.51
366.045	70.48
366.256	29.52
366.467	256.85
366.678	101.2
366.889	60.24
367.1	-40.11
367.311	244.56
367.522	88.92
367.733	56.15
367.944	4.95
368.155	148.31
368.366	164.69
368.577	152.4
368.788	99.16
368.999	82.77
369.209	160.59
369.42	2.9
369.631	402.26
369.842	230.23
370.053	152.4
370.264	-7.34
370.474	-87.21
370.685	277.33
370.896	47.96
371.107	97.11
371.317	-3.24
371.528	148.31
371.739	203.6
371.95	9.05
372.16	72.53
372.371	-36.01
372.582	183.12
372.792	-21.67
373.003	50
373.214	97.11
373.424	222.03
373.635	-52.39
373.846	129.88
374.056	160.59
374.267	136.02
374.477	90.96
374.688	-23.72
374.898	277.33
375.109	142.16
375.319	50
375.53	41.81
375.74	277.33
375.951	50
376.161	113.49
376.372	121.68
376.582	86.87
376.793	189.27
377.003	-117.93
377.214	0.85
377.424	244.56
377.635	160.59
377.845	9.05
378.055	41.81
378.266	68.44
378.476	199.51
378.686	78.68
378.897	-42.15
379.107	283.47
379.317	174.93
379.528	-68.78
379.738	62.29
379.948	-111.78
380.158	279.38
380.369	70.48
380.579	29.52
380.789	90.96
380.999	230.23
381.21	80.72
381.42	193.36
381.63	95.06
381.84	275.28
382.05	99.16
382.261	60.24
382.471	195.41
382.681	17.24
382.891	45.91
383.101	47.96
383.311	-19.63
383.521	47.96
383.731	-15.53
383.941	166.74
384.151	140.12
384.361	56.15
384.571	-72.87
384.781	-52.39
384.991	187.22
385.201	340.82
385.411	166.74
385.621	-21.67
385.831	254.8
386.041	154.45
386.251	-7.34
386.461	62.29
386.671	136.02
386.881	191.31
387.091	25.43
387.301	176.98
387.511	105.3
387.72	129.88
387.93	84.82
388.14	-89.26
388.35	183.12
388.56	226.13
388.769	62.29
388.979	-68.78
389.189	29.52
389.399	70.48
389.609	15.19
389.818	15.19
390.028	228.18
390.238	146.26
390.447	-64.68
390.657	86.87
390.867	199.51
391.076	-99.5
391.286	-44.2
391.496	-68.78
391.705	209.75
391.915	316.24
392.125	-25.77
392.334	-17.58
392.544	383.82
392.753	95.06
392.963	-27.82
393.172	21.33
393.382	144.21
393.591	430.93
393.801	-3.24
394.01	-3.24
394.22	162.64
394.429	160.59
394.639	-17.58
394.848	82.77
395.058	211.79
395.267	168.79
395.477	62.29
395.686	-15.53
395.895	486.22
396.105	291.66
396.314	21.33
396.524	78.68
396.733	45.91
396.942	359.25
397.152	-15.53
397.361	142.16
397.57	140.12
397.78	144.21
397.989	123.73
398.198	238.42
398.407	146.26
398.617	103.25
398.826	0.85
399.035	-15.53
399.244	170.83
399.453	174.93
399.663	-76.97
399.872	-128.17
400.081	-7.34
400.29	289.62
400.499	-93.35
400.708	156.5
400.917	170.83
401.127	109.4
401.336	-27.82
401.545	260.95
401.754	254.8
401.963	207.7
402.172	-21.67
402.381	-42.15
402.59	252.75
402.799	174.93
403.008	148.31
403.217	45.91
403.426	193.36
403.635	-132.26
403.844	-140.46
404.053	4.95
404.262	146.26
404.471	271.19
404.68	68.44
404.888	140.12
405.097	70.48
405.306	152.4
405.515	125.78
405.724	-38.06
405.933	287.57
406.142	228.18
406.35	19.29
406.559	50
406.768	191.31
406.977	400.21
407.185	66.39
407.394	107.35
407.603	11.09
407.812	129.88
408.02	179.03
408.229	37.72
408.438	232.27
408.646	-62.63
408.855	-81.07
409.064	-76.97
409.272	111.44
409.481	185.17
409.69	11.09
409.898	-95.4
410.107	275.28
410.315	351.06
410.524	25.43
410.733	95.06
410.941	277.33
411.15	228.18
411.358	58.2
411.567	179.03
411.775	222.03
411.984	99.16
412.192	76.63
412.401	23.38
412.609	353.1
412.818	209.75
413.026	80.72
413.234	-23.72
413.443	207.7
413.651	84.82
413.86	-68.78
414.068	236.37
414.276	379.73
414.485	74.58
414.693	76.63
414.901	187.22
415.11	291.66
415.318	123.73
415.526	2.9
415.734	99.16
415.943	176.98
416.151	328.53
416.359	-66.73
416.567	66.39
416.776	232.27
416.984	185.17
417.192	113.49
417.4	-29.87
417.608	86.87
417.817	-25.77
418.025	172.88
418.233	95.06
418.441	15.19
418.649	31.57
418.857	7
419.065	154.45
419.273	152.4
419.481	127.83
419.689	13.14
419.897	-7.34
420.105	-29.87
420.313	203.6
420.521	76.63
420.729	144.21
420.937	136.02
421.145	29.52
421.353	2.9
421.561	76.63
421.769	199.51
421.977	27.48
422.185	68.44
422.393	60.24
422.601	199.51
422.809	332.62
423.017	43.86
423.224	-36.01
423.432	252.75
423.64	160.59
423.848	43.86
424.056	-76.97
424.263	328.53
424.471	152.4
424.679	142.16
424.887	-97.45
425.094	252.75
425.302	213.84
425.51	-107.69
425.718	84.82
425.925	154.45
426.133	93.01
426.341	160.59
426.548	-11.43
426.756	88.92
426.964	301.9
427.171	-46.25
427.379	45.91
427.586	246.61
427.794	197.46
428.001	154.45
428.209	95.06
428.417	283.47
428.624	211.79
428.832	95.06
429.039	152.4
429.247	158.55
429.454	129.88
429.662	90.96
429.869	52.05
430.076	336.72
430.284	185.17
430.491	109.4
430.699	78.68
430.906	324.43
431.114	201.55
431.321	129.88
431.528	215.89
431.736	181.07
431.943	203.6
432.15	78.68
432.358	-9.39
432.565	473.93
432.772	-113.83
432.979	154.45
433.187	64.34
433.394	320.34
433.601	127.83
433.808	29.52
434.016	129.88
434.223	209.75
434.43	213.84
434.637	93.01
434.844	181.07
435.052	271.19
435.259	248.66
435.466	144.21
435.673	76.63
435.88	308.05
436.087	344.91
436.294	310.1
436.501	195.41
436.708	203.6
436.915	256.85
437.122	209.75
437.329	-38.06
437.537	234.32
437.743	252.75
437.95	242.51
438.157	148.31
438.364	199.51
438.571	191.31
438.778	140.12
438.985	234.32
439.192	373.58
439.399	293.71
439.606	152.4
439.813	211.79
440.02	437.07
440.227	600.91
440.433	164.69
440.64	121.68
440.847	322.38
441.054	191.31
441.261	240.47
441.467	209.75
441.674	136.02
441.881	426.83
442.088	121.68
442.294	224.08
442.501	394.06
442.708	494.41
442.914	211.79
443.121	250.71
443.328	394.06
443.534	525.13
443.741	203.6
443.948	213.84
444.154	453.45
444.361	670.54
444.568	213.84
444.774	410.45
444.981	222.03
445.187	645.96
445.394	258.9
445.6	320.34
445.807	490.32
446.013	500.56
446.22	271.19
446.426	416.59
446.633	551.76
446.839	746.31
447.046	287.57
447.252	443.21
447.459	488.27
447.665	443.21
447.871	453.45
448.078	768.84
448.284	766.79
448.491	799.56
448.697	615.24
448.903	664.4
449.11	768.84
449.316	699.21
449.522	801.61
449.728	719.69
449.935	906.06
450.141	832.33
450.347	848.71
450.553	709.45
450.76	961.35
450.966	1061.7
451.172	871.24
451.378	760.65
451.584	1063.75
451.791	1329.99
451.997	1022.79
452.203	1020.74
452.409	1364.8
452.615	1250.11
452.821	1022.79
453.027	1104.71
453.233	1454.91
453.44	1293.12
453.646	1129.28
453.852	1282.88
454.058	1209.15
454.264	1395.52
454.47	1366.85
454.676	1227.59
454.882	1647.42
455.088	1536.83
455.294	1401.66
455.5	1467.2
455.705	1663.8
455.911	1643.32
456.117	1463.1
456.323	1395.52
456.529	1614.65
456.735	1700.67
456.941	1483.58
457.147	1579.84
457.352	1626.94
457.558	1635.13
457.764	1594.17
457.97	1614.65
458.176	1608.51
458.381	1798.97
458.587	1848.12
458.793	1549.12
458.999	1473.34
459.204	1727.29
459.41	1553.21
459.616	1624.89
459.821	1749.82
460.027	1567.55
460.233	1700.67
460.438	1547.07
460.644	1626.94
460.85	1715
461.055	1651.52
461.261	1565.5
461.466	1381.18
461.672	1493.82
461.878	1334.08
462.083	1553.21
462.289	1360.7
462.494	1377.09
462.7	1321.79
462.905	1192.77
463.111	1553.21
463.316	1536.83
463.522	1358.66
463.727	1252.16
463.932	1440.58
464.138	1454.91
464.343	1334.08
464.549	1219.39
464.754	1571.65
464.959	1575.74
465.165	1280.83
465.37	1336.13
465.575	1340.22
465.781	1321.79
465.986	1260.35
466.191	1061.7
466.397	1301.31
466.602	1473.34
466.807	1119.04
467.012	1184.58
467.218	1534.78
467.423	1241.92
467.628	1088.32
467.833	1160
468.038	1327.94
468.244	1153.86
468.449	1213.25
468.654	1266.5
468.859	1172.29
469.064	1323.84
469.269	1063.75
469.474	1035.08
469.679	1391.42
469.885	1393.47
470.09	1198.92
470.295	1151.81
470.5	1225.54
470.705	1413.95
470.91	1233.73
471.115	1252.16
471.32	1383.23
471.525	1512.25
471.73	1119.04
471.935	1203.01
472.139	1174.34
472.344	1266.5
472.549	1157.96
472.754	1327.94
472.959	1381.18
473.164	1313.6
473.369	1235.78
473.574	1338.18
473.778	1340.22
473.983	1520.45
474.188	1559.36
474.393	1149.76
474.598	1489.73
474.802	1336.13
475.007	1170.24
475.212	1266.5
475.417	1352.51
475.621	1526.59
475.826	1231.68
476.031	1413.95
476.235	1381.18
476.44	1364.8
476.645	1198.92
476.849	1286.98
477.054	1344.32
477.259	1465.15
477.463	1383.23
477.668	1332.03
477.872	1655.61
478.077	1454.91
478.282	1301.31
478.486	1342.27
478.691	1467.2
478.895	1385.28
479.1	1459.01
479.304	1375.04
479.509	1370.94
479.713	1651.52
479.918	1401.66
480.122	1329.99
480.326	1434.43
480.531	1436.48
480.735	1411.9
480.94	1282.88
481.144	1694.52
481.348	1530.69
481.553	1416
481.757	1409.86
481.961	1528.64
482.166	1514.3
482.37	1375.04
482.574	1411.9
482.778	1495.87
482.983	1706.81
483.187	1332.03
483.391	1493.82
483.595	1487.68
483.8	1579.84
484.004	1542.97
484.208	1489.73
484.412	1743.67
484.616	1639.23
484.821	1518.4
485.025	1354.56
485.229	1485.63
485.433	1848.12
485.637	1526.59
485.841	1633.08
486.045	1760.06
486.249	1995.57
486.453	1602.36
486.657	1536.83
486.861	1528.64
487.065	1737.53
487.269	1569.6
487.473	1538.88
487.677	1887.03
487.881	2022.2
488.085	1624.89
488.289	1917.75
488.493	1807.16
488.697	2071.35
488.901	1815.35
489.105	1764.15
489.309	1934.14
489.512	2253.62
489.716	2014.01
489.92	2014.01
490.124	2181.94
490.328	2190.13
490.531	1954.62
490.735	2134.84
490.939	2036.53
491.143	2100.02
491.346	2102.07
491.55	2159.41
491.754	2300.72
491.958	2265.91
492.161	2306.87
492.365	2372.4
492.569	2401.07
492.772	2442.03
492.976	2421.55
493.18	2419.5
493.383	2636.59
493.587	2630.45
493.79	2450.22
493.994	2405.17
494.197	2607.92
494.401	2765.61
494.605	2548.53
494.808	2687.79
495.012	2781.99
495.215	3040.04
495.419	2804.52
495.622	2765.61
495.825	3037.99
496.029	2992.94
496.232	2992.94
496.436	2825
496.639	3285.8
496.843	3156.77
497.046	3117.86
497.249	3334.95
497.453	3435.3
497.656	3377.95
497.859	3535.65
498.063	3402.53
498.266	3748.64
498.469	3474.21
498.673	3459.87
498.876	3392.29
499.079	3898.14
499.282	3971.86
499.485	4084.5
499.689	3969.82
499.892	4363.03
500.095	4012.82
500.298	4174.61
500.501	4129.56
500.705	4377.36
500.908	4490
501.111	4586.26
501.314	4670.22
501.517	4692.75
501.72	4784.91
501.923	4723.47
502.126	4903.69
502.329	5157.64
502.532	5133.06
502.735	5081.86
502.938	5401.35
503.141	5704.45
503.344	5540.61
503.547	5688.06
503.75	5616.38
503.953	5837.56
504.156	6103.8
504.359	6046.46
504.562	5937.91
504.765	6277.88
504.968	6486.77
505.17	6464.24
505.373	6552.31
505.576	6820.59
505.779	6929.13
505.982	6666.99
506.185	7047.91
506.387	7201.51
506.59	7289.57
506.793	7422.69
506.996	7578.34
507.198	7932.64
507.401	8002.27
507.604	7885.53
507.807	8237.78
508.009	8397.53
508.212	8671.95
508.415	8628.95
508.617	8524.5
508.82	8811.21
509.022	9067.21
509.225	8966.86
509.428	9296.58
509.63	9827.01
509.833	9759.42
510.035	10257.08
510.238	9949.89
510.44	9982.65
510.643	10595
510.845	10291.9
511.048	10601.14
511.25	10859.18
511.453	10971.82
511.655	11467.43
511.858	11377.32
512.06	11807.39
512.262	11690.66
512.465	11858.59
512.667	12147.36
512.87	12296.86
513.072	12901.01
513.274	12743.31
513.477	12792.47
513.679	13187.72
513.881	13271.69
514.084	13640.33
514.286	13892.23
514.488	14033.54
514.69	14631.54
514.893	14377.59
515.095	14682.74
515.297	14795.38
515.499	15280.75
515.701	15276.65
515.904	15694.44
516.106	16036.45
516.308	15979.11
516.51	16372.32
516.712	16583.26
516.914	16900.69
517.116	16923.22
517.318	17066.58
517.52	17418.83
517.722	18086.47
517.925	17922.63
518.127	18451
518.329	18375.23
518.531	18629.18
518.733	19202.61
518.935	19157.55
519.136	19477.04
519.338	19739.18
519.54	20046.37
519.742	20111.91
519.944	20552.22
520.146	21291.54
520.348	21148.18
520.55	21369.36
520.752	21557.77
520.954	21928.45
521.155	22211.07
521.357	22309.38
521.559	22571.52
521.761	23110.13
521.963	23605.74
522.164	23439.86
522.366	23470.58
522.568	24007.14
522.77	24490.46
522.971	24451.55
523.173	24273.38
523.375	24914.39
523.576	25149.91
523.778	25194.96
523.98	25301.46
524.181	26077.64
524.383	26141.13
524.584	26413.51
524.786	26399.17
524.988	26679.74
525.189	26923.45
525.391	27148.73
525.592	27132.34
525.794	27384.24
525.995	27726.25
526.197	28021.16
526.398	28121.51
526.6	28666.27
526.801	28475.81
527.003	28490.15
527.204	28594.59
527.406	29598.1
527.607	29200.79
527.808	29329.81
528.01	28809.63
528.211	29641.11
528.412	30144.91
528.614	30185.86
528.815	30204.3
529.016	30413.19
529.218	30134.67
529.419	30470.53
529.62	30738.82
529.822	30810.5
530.023	30708.1
530.224	30763.39
530.425	30908.8
530.626	30835.07
530.828	30683.52
531.029	31498.61
531.23	31142.27
531.431	31654.26
531.632	31754.61
531.833	31519.09
532.035	31512.95
532.236	31826.29
532.437	32332.14
532.638	31977.84
532.839	31922.54
533.04	32637.28
533.241	32037.23
533.442	32627.04
533.643	32356.71
533.844	32461.16
534.045	32731.49
534.246	32141.67
534.447	32559.46
534.648	32616.8
534.849	32776.55
535.05	32733.54
535.251	32489.83
535.451	32952.67
535.652	32979.29
535.853	32784.74
536.054	33108.32
536.255	33112.41
536.456	32846.18
536.657	32964.96
536.857	32856.42
537.058	32985.44
537.259	33466.71
537.46	32960.86
537.66	33136.99
537.861	33534.29
538.062	33395.03
538.263	33180
538.463	33202.52
538.664	33182.04
538.865	33356.12
539.065	33665.36
539.266	33153.37
539.466	33493.33
539.667	33220.95
539.868	33726.8
540.068	33358.17
540.269	33675.6
540.469	33921.36
540.67	33071.45
540.87	33575.25
541.071	33534.29
541.271	33583.44
541.472	33479
541.672	33526.1
541.873	33513.81
542.073	33141.08
542.274	33904.98
542.474	34079.05
542.675	33677.65
542.875	33833.3
543.075	33378.65
543.276	33061.21
543.476	34189.64
543.676	33954.13
543.877	33952.08
544.077	33456.47
544.277	34216.27
544.478	34064.72
544.678	33952.08
544.878	33976.65
545.078	34109.77
545.279	34111.82
545.479	33536.34
545.679	33849.68
545.879	34181.45
546.079	34124.11
546.28	34040.14
546.48	34197.84
546.68	34550.09
546.88	34269.51
547.08	34181.45
547.28	34126.16
547.48	33945.94
547.68	34277.71
547.88	34021.71
548.081	34611.53
548.281	34124.11
548.481	34478.41
548.681	34122.06
548.881	34074.96
549.081	34636.1
549.28	34347.34
549.48	34314.57
549.68	34494.79
549.88	34722.12
550.08	34490.7
550.28	34691.4
550.48	34496.84
550.68	34685.25
550.88	34605.38
551.08	34521.41
551.279	34824.51
551.479	34271.56
551.679	35260.73
551.879	34445.64
552.079	34804.03
552.278	34605.38
552.478	34959.68
552.678	34634.05
552.878	35000.64
553.077	34720.07
553.277	34552.13
553.477	34967.87
553.676	34773.31
553.876	35027.26
554.076	34818.37
554.275	34996.54
554.475	34122.06
554.674	35219.77
554.874	34838.85
555.074	34494.79
555.273	35008.83
555.473	34974.02
555.672	34259.27
555.872	34838.85
556.071	34369.86
556.271	34996.54
556.47	34517.32
556.67	34070.86
556.869	34564.42
557.068	34898.24
557.268	34197.84
557.467	34718.02
557.667	34445.64
557.866	34550.09
558.065	34236.75
558.265	34312.52
558.464	33986.89
558.663	34545.99
558.863	33921.36
559.062	34361.67
559.261	33714.51
559.461	34574.66
559.66	33818.96
559.859	33778
560.058	33651.03
560.258	33558.87
560.457	33309.02
560.656	33839.44
560.855	33292.63
561.054	33620.31
561.253	33601.88
561.453	33440.09
561.652	33556.82
561.851	33706.32
562.05	33276.25
562.249	33005.92
562.448	32713.06
562.647	32678.24
562.846	33026.4
563.045	32696.67
563.244	32842.08
563.443	33177.95
563.642	32330.09
563.841	32450.92
564.04	32389.48
564.239	32620.9
564.438	32176.49
564.637	32172.39
564.836	32258.41
565.035	31811.95
565.234	31963.5
565.432	31367.54
565.631	31850.86
565.83	32110.96
566.029	31893.87
566.228	31144.31
566.427	31379.83
566.625	30929.28
566.824	30908.8
567.023	30960
567.222	30497.16
567.42	31003
567.619	30759.3
567.818	30421.38
568.016	30810.5
568.215	30499.2
568.414	30593.41
568.612	30689.67
568.811	30161.29
569.01	30003.6
569.208	29782.41
569.407	29901.2
569.605	29288.85
569.804	29753.74
570.002	29399.44
570.201	29051.29
570.4	28998.04
570.598	28918.17
570.797	28768.67
570.995	28750.24
571.193	28668.32
571.392	28596.64
571.59	28436.9
571.789	28381.6
571.987	28246.44
572.186	28447.14
572.384	27806.13
572.582	27644.34
572.781	27992.49
572.979	27247.03
573.177	27795.89
573.376	27687.34
573.574	27142.58
573.772	27322.8
573.971	26874.3
574.169	26663.36
574.367	26681.79
574.565	27023.8
574.763	26933.69
574.962	26565.06
575.16	26163.65
575.358	26452.42
575.556	26216.9
575.754	26165.7
575.952	25981.38
576.151	26094.02
576.349	25752.01
576.547	25410
576.745	25895.37
576.943	25700.81
577.141	25622.99
577.339	25444.82
577.537	25283.03
577.735	25614.8
577.933	25033.18
578.131	24941.02
578.329	24879.58
578.527	24699.36
578.725	25113.05
578.923	24617.44
579.121	24576.48
579.319	24154.6
579.516	24322.53
579.714	24369.63
579.912	24259.04
580.11	23978.47
580.308	24226.28
580.506	23761.39
580.704	23691.76
580.901	24142.31
581.099	24248.8
581.297	23476.72
581.495	23556.59
581.692	23806.44
581.89	23538.16
582.088	23624.17
582.285	22854.14
582.483	23599.6
582.681	23337.46
582.878	23235.06
583.076	22911.48
583.274	23398.9
583.471	23237.11
583.669	23042.55
583.866	22635
584.064	22919.67
584.262	22422.02
584.459	22628.86
584.657	22602.24
584.854	22913.53
585.052	22282.75
585.249	22358.53
585.447	22567.42
585.644	21991.94
585.841	22620.67
586.039	22295.04
586.236	22127.11
586.434	22381.06
586.631	22194.69
586.828	21760.52
587.026	22061.57
587.223	21737.99
587.42	21711.37
587.618	21766.67
587.815	21606.92
588.012	21799.43
588.21	21590.54
588.407	21565.96
588.604	21350.93
588.801	21223.95
588.999	21316.11
589.196	21234.19
589.393	21068.31
589.59	21391.89
589.787	21004.82
589.984	21062.16
590.182	21084.69
590.379	20963.86
590.576	21039.64
590.773	20890.13
590.97	20795.93
591.167	21137.94
591.364	20904.47
591.561	20580.89
591.758	20658.71
591.955	20834.84
592.152	20802.07
592.349	20554.27
592.546	20785.69
592.743	20800.02
592.94	20597.28
593.137	20464.16
593.334	20380.19
593.531	20572.7
593.727	20419.1
593.924	20460.06
594.121	20587.04
594.318	20312.61
594.515	20091.43
594.712	20230.69
594.908	20228.64
595.105	19890.73
595.302	20079.14
595.499	20167.2
595.696	20433.44
595.892	20255.26
596.089	20218.4
596.286	20081.19
596.482	19933.73
596.679	20175.39
596.876	19960.36
597.072	20015.65
597.269	19874.34
597.466	20159.01
597.662	20204.07
597.859	19888.68
598.055	19880.49
598.252	19911.21
598.448	20150.82
598.645	19935.78
598.841	19585.58
599.038	19878.44
599.234	20161.06
599.431	19526.19
599.627	19661.35
599.824	19796.52
600.02	19692.07
600.217	19565.1
600.413	19542.57
600.609	19620.39
600.806	19714.6
601.002	19767.85
601.198	19431.98
601.395	19857.96
601.591	19429.93
601.787	19403.31
601.984	19599.91
602.18	19577.39
602.376	19810.86
602.572	19388.97
602.769	19200.56
602.965	19241.52
603.161	19757.61
603.357	19083.83
603.553	19464.75
603.75	19200.56
603.946	19251.76
604.142	19192.37
604.338	19108.4
604.534	19313.2
604.73	19030.58
604.926	18776.63
605.122	19302.96
605.318	19196.46
605.514	19341.87
605.71	18817.59
605.906	19327.53
606.102	18997.81
606.298	19372.59
606.494	18895.41
606.69	19006
606.886	19208.75
607.082	18825.78
607.278	18797.11
607.474	18827.83
607.67	19167.79
607.866	18430.52
608.062	19135.03
608.257	18428.48
608.453	18530.87
608.649	18932.28
608.845	18254.4
609.041	18166.34
609.236	18739.77
609.432	18424.38
609.628	18338.37
609.824	18346.56
610.019	18446.91
610.215	18426.43
610.411	18453.05
610.606	18375.23
610.802	18598.46
610.998	18381.37
611.193	18602.55
611.389	18094.66
611.584	18377.28
611.78	18217.54
611.976	17971.78
612.171	18123.33
612.367	18238.02
612.562	18012.74
612.758	17920.58
612.953	17709.64
613.149	18076.23
613.344	17625.67
613.539	18113.09
613.735	18072.13
613.93	18078.27
614.126	17900.1
614.321	18104.9
614.517	17726.02
614.712	17816.13
614.907	17857.09
615.103	17707.59
615.298	17599.05
615.493	17529.42
615.688	17259.09
615.884	17877.57
616.079	17443.4
616.274	17621.58
616.47	17420.88
616.665	17472.07
616.86	17611.34
617.055	17394.25
617.25	17480.27
617.445	17398.35
617.641	17146.45
617.836	17234.51
618.031	16824.92
618.226	17400.4
618.421	17275.47
618.616	17480.27
618.811	17103.44
619.006	17240.65
619.201	16888.4
619.396	17201.74
619.591	16581.21
619.786	16988.75
619.981	16659.03
620.176	16933.46
620.371	16681.56
620.566	16685.65
620.761	16652.89
620.956	16527.96
621.151	16429.66
621.346	16759.38
621.541	15968.87
621.735	16468.57
621.93	16413.27
622.125	16265.82
622.32	15886.95
622.515	16216.67
622.709	16124.51
622.904	16439.9
623.099	16013.92
623.294	16026.21
623.488	15817.32
623.683	16058.98
623.878	15571.56
624.072	16073.31
624.267	16015.97
624.462	15571.56
624.656	15446.63
624.851	15956.58
625.046	15719.01
625.24	15546.98
625.435	15510.12
625.629	15352.43
625.824	15444.59
626.018	15153.77
626.213	15049.33
626.407	15258.22
626.602	15282.8
626.796	15202.93
626.991	15129.2
627.185	14991.98
627.38	14828.15
627.574	14844.53
627.768	14711.41
627.963	14748.28
628.157	14797.43
628.352	14834.29
628.546	14457.46
628.74	14813.81
628.935	14498.42
629.129	14475.9
629.323	14439.03
629.517	14404.22
629.712	14422.65
629.906	14148.22
630.1	14340.73
630.294	14813.81
630.489	14406.27
630.683	14422.65
630.877	14119.55
631.071	14336.63
631.265	14254.72
631.459	14254.72
631.653	14125.69
631.848	14215.8
632.042	14310.01
632.236	13890.18
632.43	13847.17
632.624	13951.62
632.818	13640.33
633.012	13460.1
633.206	13652.61
633.4	13820.55
633.594	13517.45
633.788	13613.7
633.982	13564.55
634.176	13632.13
634.369	13161.1
634.563	13105.81
634.757	12948.11
634.951	13195.92
635.145	13359.75
635.339	12976.78
635.533	12874.38
635.726	13023.89
635.92	12610.2
636.114	12559
636.308	12481.17
636.501	12567.19
636.695	12425.88
636.889	12130.97
637.083	12063.39
637.276	12104.35
637.47	11694.75
637.664	11743.91
637.857	11862.69
638.051	11561.64
638.244	11616.93
638.438	11524.77
638.632	11338.41
638.825	11102.89
639.019	11524.77
639.212	10818.22
639.406	11240.11
639.599	10994.35
639.793	10625.72
639.986	10412.73
640.18	10674.87
640.373	10427.06
640.567	10511.03
640.76	10242.75
640.954	10046.14
641.147	9923.26
641.34	9816.77
641.534	9693.89
641.727	9550.53
641.92	9827.01
642.114	9523.91
642.307	9304.78
642.5	9276.1
642.694	8868.56
642.887	9089.74
643.08	9161.42
643.273	8575.7
643.467	8786.64
643.66	8485.59
643.853	8571.6
644.046	8325.85
644.239	8485.59
644.432	8139.48
644.626	7820
644.819	7961.31
645.012	7838.43
645.205	7918.3
645.398	7627.49
645.591	7471.84
645.784	7336.68
645.977	7265
646.17	7217.9
646.363	7058.15
646.556	7066.35
646.749	6802.16
646.942	6705.9
647.135	6871.79
647.328	6918.89
647.521	6726.38
647.714	6320.88
647.907	6513.39
648.099	6355.7
648.292	6623.98
648.485	6302.45
648.678	6163.19
648.871	6071.03
649.064	6019.83
649.256	5841.66
649.449	5804.8
649.642	5694.21
649.835	5765.89
650.027	5632.77
650.22	5755.65
650.413	5663.49
650.605	5759.74
650.798	5561.09
650.991	5430.02
651.183	5542.66
651.376	5495.55
651.568	5284.61
651.761	5266.18
651.954	5403.39
652.146	5253.89
652.339	5128.97
652.531	5155.59
652.724	4901.64
652.916	5034.76
653.109	4807.44
653.301	4991.75
653.494	5206.79
653.686	4967.18
653.879	4897.55
654.071	4891.4
654.263	4741.9
654.456	4764.43
654.648	4678.41
654.84	4535.06
655.033	4610.83
655.225	4838.16
655.417	4293.4
655.61	4547.34
655.802	4670.22
655.994	4776.72
656.186	4104.98
656.379	4373.27
656.571	4379.41
656.763	4358.93
656.955	4225.81
657.148	4125.46
657.34	4377.36
657.532	4096.79
657.724	4113.17
657.916	3978.01
658.108	4377.36
658.3	4133.65
658.492	4088.6
658.684	3818.27
658.876	4070.17
659.068	3652.38
659.26	3511.07
659.452	3605.28
659.644	3592.99
659.836	3879.71
660.028	3394.34
660.22	3486.5
660.412	3574.56
660.604	3427.11
660.796	3304.23
660.988	3269.41
661.18	3423.01
661.372	3236.64
661.563	3128.1
661.755	3009.32
661.947	3107.62
662.139	3035.94
662.331	2976.55
662.522	2863.91
662.714	2933.54
662.906	2712.36
663.097	2784.04
663.289	2669.36
663.481	2646.83
663.673	2769.71
663.864	2497.33
664.056	2423.6
664.247	2513.71
664.439	2743.08
664.631	2349.87
664.822	2329.39
665.014	2478.9
665.205	2274.1
665.397	2227
665.588	2157.36
665.78	2257.71
665.971	2308.91
666.163	1903.42
666.354	1958.71
666.546	1989.43
666.737	1997.62
666.929	1921.85
667.12	1817.4
667.311	2128.69
667.503	1809.21
667.694	1870.65
667.885	1741.63
668.077	2046.77
668.268	1635.13
668.459	1815.35
668.651	1755.96
668.842	1866.55
669.033	1706.81
669.224	1512.25
669.416	1811.26
669.607	1772.35
669.798	1497.92
669.989	1487.68
670.18	1372.99
670.371	1782.59
670.563	1528.64
670.754	1510.21
670.945	1456.96
671.136	1700.67
671.327	1436.48
671.518	1372.99
671.709	1440.58
671.9	1616.7
672.091	1717.05
672.282	1481.53
672.473	1266.5
672.664	1379.14
672.855	1454.91
673.046	1350.46
673.237	1340.22
673.428	1465.15
673.619	1461.06
673.809	1364.8
674	1250.11
674.191	1538.88
674.382	1338.18
674.573	1211.2
674.764	1293.12
674.954	1508.16
675.145	1246.02
675.336	1135.43
675.527	1274.69
675.717	1336.13
675.908	1200.96
676.099	1215.3
676.289	1315.65
676.48	1121.09
676.671	1303.36
676.861	1260.35
677.052	1043.27
677.243	1338.18
677.433	1299.27
677.624	1155.91
677.814	1258.31
678.005	1203.01
678.195	1483.58
678.386	1223.49
678.576	1153.86
678.767	1184.58
678.957	1250.11
679.148	1215.3
679.338	1323.84
679.529	1538.88
679.719	1303.36
679.909	1340.22
680.1	1399.62
680.29	1495.87
680.481	1096.52
680.671	1409.86
680.861	1385.28
681.052	1483.58
681.242	1397.57
681.432	1385.28
681.622	1385.28
681.813	1399.62
682.003	1569.6
682.193	1360.7
682.383	1508.16
682.573	1508.16
682.764	1573.69
682.954	1618.75
683.144	1692.48
683.334	1639.23
683.524	1725.24
683.714	1661.76
683.904	1698.62
684.094	1827.64
684.284	1811.26
684.474	1950.52
684.664	1864.5
684.854	1999.67
685.044	1999.67
685.234	1938.23
685.424	1960.76
685.614	2114.36
685.804	2409.26
685.994	2124.6
686.184	2218.8
686.374	2515.76
686.564	2462.51
686.753	2601.77
686.943	2405.17
687.133	2683.69
687.323	2691.88
687.513	2691.88
687.702	2667.31
687.892	2849.58
688.082	3171.11
688.272	3078.95
688.461	3105.57
688.651	3535.65
688.841	3529.5
689.03	3312.42
689.22	3406.63
689.41	3814.17
689.599	3758.88
689.789	3732.25
689.979	3955.48
690.168	3887.9
690.358	4182.81
690.547	4078.36
690.737	4205.33
690.926	4504.34
691.116	4526.86
691.305	4635.41
691.495	4639.5
691.684	4760.33
691.874	4930.31
692.063	4954.89
692.252	5147.4
692.442	5372.68
692.631	5376.77
692.82	5376.77
693.01	5554.94
693.199	5798.65
693.388	5769.98
693.578	5925.63
693.767	6042.36
693.956	6171.38
694.146	6101.75
694.335	6208.25
694.524	6275.83
694.713	6771.44
694.902	6744.81
695.092	6630.13
695.281	6839.02
695.47	6966
695.659	6879.98
695.848	6949.61
696.037	7107.3
696.226	7512.8
696.415	7367.4
696.604	7459.56
696.793	7502.56
696.982	7742.18
697.171	7863.01
697.36	7609.06
697.549	7869.15
697.738	7834.33
697.927	8139.48
698.116	8037.08
698.305	8286.93
698.494	8614.61
698.683	8444.63
698.872	8448.72
699.061	8358.61
699.25	8516.31
699.438	8649.43
699.627	8721.1
699.816	8954.57
700.005	8809.17
700.193	9040.59
700.382	9104.07
700.571	8964.81
700.76	9265.86
700.948	9448.13
701.137	9022.16
701.326	9294.54
701.514	9231.05
701.703	9478.85
701.892	9251.53
702.08	9579.2
702.269	9597.63
702.457	9423.56
702.646	9642.69
702.834	9351.88
703.023	9810.62
703.212	9910.97
703.4	9814.72
703.589	9556.68
703.777	9990.84
703.965	9677.51
704.154	9644.74
704.342	9798.34
704.531	10017.47
704.719	9910.97
704.907	10031.8
705.096	9849.54
705.284	9859.77
705.472	9845.44
705.661	9951.93
705.849	10093.24
706.037	10269.37
706.226	10193.59
706.414	10121.91
706.602	10199.74
706.79	10433.21
706.979	10089.15
707.167	10220.22
707.355	10128.06
707.543	10289.85
707.731	10318.52
707.919	10191.55
708.107	10113.72
708.296	10392.25
708.484	10326.71
708.672	10398.39
708.86	10240.7
709.048	10339
709.236	10056.38
709.424	10449.59
709.612	10257.08
709.8	10119.87
709.988	10224.31
710.176	10367.67
710.364	10336.95
710.551	10480.31
710.739	10140.35
710.927	10101.44
711.115	10089.15
711.303	10304.18
711.491	10336.95
711.679	10140.35
711.866	10199.74
712.054	10404.53
712.242	10222.27
712.43	10283.7
712.617	10134.2
712.805	10414.77
712.993	10023.61
713.181	10162.87
713.368	10015.42
713.556	10328.76
713.744	10040
713.931	10171.07
714.119	10044.09
714.306	10232.51
714.494	9910.97
714.682	10040
714.869	9863.87
715.057	10146.49
715.244	9964.22
715.432	9917.12
715.619	9915.07
715.807	10078.91
715.994	10076.86
716.182	9777.86
716.369	9802.43
716.556	9962.17
716.744	9812.67
716.931	9665.22
717.119	9853.63
717.306	9888.45
717.493	9945.79
717.681	9538.24
717.868	9607.87
718.055	9929.41
718.242	9757.38
718.43	9644.74
718.617	9587.4
718.804	9751.23
718.991	9665.22
719.179	9444.04
719.366	9200.33
719.553	9714.37
719.74	9493.19
719.927	9503.43
720.114	9364.17
720.301	9175.75
720.488	9161.42
720.676	8983.24
720.863	9237.19
721.05	9982.65
721.237	9220.81
721.424	9263.82
721.611	9116.36
721.798	8989.39
721.985	9065.16
722.172	8981.2
722.358	8925.9
722.545	9321.16
722.732	9091.79
722.919	8995.53
723.106	8850.13
723.293	9048.78
723.48	9081.55
723.667	8729.3
723.853	8989.39
724.04	8944.33
724.227	8827.6
724.414	8512.21
724.6	8688.34
724.787	8782.54
724.974	9061.07
725.161	8782.54
725.347	8495.83
725.534	8745.68
725.72	8567.51
725.907	8641.23
726.094	8780.5
726.28	8518.36
726.467	8467.16
726.653	8278.74
726.84	8381.14
727.027	8614.61
727.213	8491.73
727.4	8399.57
727.586	8213.21
727.773	8436.44
727.959	8344.28
728.145	8143.58
728.332	8010.46
728.518	8063.71
728.705	8383.19
728.891	7924.44
729.077	7998.17
729.264	7959.26
729.45	8057.56
729.636	8028.89
729.823	7926.49
730.009	7975.64
730.195	7985.88
730.382	8047.32
730.568	7807.71
730.754	7928.54
730.94	7795.42
731.126	7985.88
731.313	7514.85
731.499	7838.43
731.685	7742.18
731.871	7682.78
732.057	7725.79
732.243	7787.23
732.429	7766.75
732.615	7713.5
732.801	7496.42
732.987	7533.28
733.173	7510.75
733.359	7496.42
733.545	7387.88
733.731	7396.07
733.917	7762.65
734.103	7291.62
734.289	7477.99
734.475	7336.68
734.661	7559.91
734.847	7316.2
735.033	7318.25
735.219	7215.85
735.404	7301.86
735.59	7197.42
735.776	7009
735.962	7197.42
736.148	7379.68
736.333	7363.3
736.519	6873.84
736.705	7119.59
736.89	7064.3
737.076	6877.93
737.262	6689.52
737.447	6910.7
737.633	6771.44
737.819	6726.38
738.004	6648.56
738.19	6806.25
738.375	6935.28
738.561	6857.45
738.747	6626.03
738.932	6591.22
739.118	6959.85
739.303	6574.83
739.489	6662.9
739.674	6517.49
739.859	6347.51
740.045	6464.24
740.23	6472.43
740.416	6138.62
740.601	6378.23
740.786	6318.84
740.972	6134.52
741.157	6398.71
741.342	5982.97
741.528	6073.08
741.713	6222.58
741.898	6159.1
742.084	6335.22
742.269	6118.14
742.454	6161.14
742.639	6298.36
742.824	6157.05
743.01	6140.66
743.195	5978.87
743.38	6077.18
743.565	6013.69
743.75	5741.31
743.935	5696.25
744.12	5954.3
744.305	5753.6
744.49	5858.04
744.675	5686.01
744.86	5774.08
745.045	5806.84
745.23	5546.75
745.415	5542.66
745.6	5948.15
745.785	5419.78
745.97	5391.11
746.155	5438.21
746.34	5716.73
746.525	5507.84
746.71	5436.16
746.895	5278.47
747.079	5182.21
747.264	5192.45
747.449	5198.6
747.634	5208.84
747.819	5518.08
748.003	5075.72
748.188	4963.08
748.373	5108.49
748.557	5026.57
748.742	5202.69
748.927	4934.41
749.111	4725.52
749.296	4881.16
749.481	5059.34
749.665	4936.46
749.85	4651.79
750.034	5020.42
750.219	4789
750.404	4627.21
750.588	4614.93
750.773	4666.13
750.957	4633.36
751.141	4320.02
751.326	4399.89
751.51	4332.31
751.695	4567.82
751.879	4485.9
752.064	4580.11
752.248	4418.32
752.432	4698.89
752.617	4248.34
752.801	4360.98
752.985	4270.87
753.17	4451.09
753.354	4274.96
753.538	4152.09
753.722	4225.81
753.907	4051.74
754.091	3871.51
754.275	4037.4
754.459	4016.92
754.643	4016.92
754.828	3760.92
755.012	3746.59
755.196	3937.05
755.38	3910.43
755.564	3756.83
755.748	3775.26
755.932	3906.33
756.116	4021.02
756.3	3773.21
756.484	3748.64
756.668	3834.65
756.852	3472.16
757.036	3597.09
757.22	3519.26
757.404	3650.33
757.588	3457.82
757.772	3693.34
757.956	3457.82
758.14	3762.97
758.323	3398.43
758.507	3506.98
758.691	3404.58
758.875	3578.65
759.059	3613.47
759.242	3197.73
759.426	3183.4
759.61	3322.66
759.794	3087.14
759.977	3001.13
760.161	3599.13
760.345	3228.45
760.528	3261.22
760.712	3091.24
760.895	2956.07
761.079	3050.28
761.263	2849.58
761.446	2812.71
761.63	2718.51
761.813	2943.78
761.997	2732.84
762.18	2835.24
762.364	2896.68
762.547	2710.32
762.731	2810.67
762.914	2726.7
763.098	2661.16
763.281	2759.47
763.464	2792.23
763.648	2607.92
763.831	2671.4
764.015	2632.49
764.198	2771.76
764.381	2638.64
764.564	2519.85
764.748	2773.8
764.931	2804.52
765.114	2640.69
765.297	2794.28
765.481	2652.97
765.664	2716.46
765.847	2523.95
766.03	2620.21
766.213	2693.93
766.397	2677.55
766.58	2575.15
766.763	2749.23
766.946	2650.92
767.129	2667.31
767.312	2603.82
767.495	2634.54
767.678	2695.98
767.861	2693.93
768.044	2607.92
768.227	2532.14
768.41	2679.6
768.593	2646.83
768.776	2659.12
768.959	2609.97
769.142	2945.83
769.324	2579.25
769.507	2601.77
769.69	2497.33
769.873	2620.21
770.056	2874.15
770.239	2628.4
770.421	2675.5
770.604	2743.08
770.787	2478.9
770.97	2519.85
771.152	2399.02
771.335	2644.78
771.518	2442.03
771.7	2401.07
771.883	2655.02
772.066	2462.51
772.248	2706.22
772.431	2392.88
772.613	2394.93
772.796	2528.05
772.978	2505.52
773.161	2478.9
773.343	2315.06
773.526	2337.59
773.708	2175.8
773.891	2179.89
774.073	2276.15
774.256	2351.92
774.438	2530.09
774.621	2239.28
774.803	2290.48
774.985	2331.44
775.168	2384.69
775.35	2183.99
775.532	2284.34
775.715	2208.56
775.897	2358.07
776.079	2147.12
776.261	2161.46
776.444	2267.95
776.626	2102.07
776.808	2130.74
776.99	1893.18
777.173	2100.02
777.355	2143.03
777.537	2046.77
777.719	1938.23
777.901	2016.05
778.083	2036.53
778.265	1995.57
778.447	2044.73
778.629	1868.6
778.811	2052.92
778.993	1893.18
779.175	1917.75
779.357	2001.72
779.539	1712.96
779.721	1940.28
779.903	1889.08
780.085	1911.61
780.267	1874.74
780.449	1717.05
780.631	1887.03
780.812	2009.91
780.994	1868.6
781.176	1672
781.358	1620.8
781.54	1770.3
781.721	1837.88
781.903	1602.36
782.085	1647.42
782.267	1848.12
782.448	1608.51
782.63	1694.52
782.812	1676.09
782.993	1905.46
783.175	1762.11
783.357	1506.11
783.538	1561.41
783.72	1639.23
783.901	1674.04
784.083	1571.65
784.264	1631.04
784.446	1442.62
784.627	1342.27
784.809	1620.8
784.99	1340.22
785.172	1622.84
785.353	1508.16
785.535	1491.77
785.716	1348.42
785.897	1407.81
786.079	1504.06
786.26	1502.01
786.441	1479.49
786.623	1256.26
786.804	1325.89
786.985	1387.33
787.167	1262.4
787.348	1424.19
787.529	1301.31
787.71	1299.27
787.891	1340.22
788.073	1334.08
788.254	1153.86
788.435	1444.67
788.616	1123.14
788.797	1176.39
788.978	1276.74
789.159	1207.11
789.34	1264.45
789.522	1305.41
789.703	1219.39
789.884	1258.31
790.065	1270.59
790.246	1495.87
790.427	1168.2
790.607	1186.63
790.788	1114.95
790.969	1082.18
791.15	1391.42
791.331	1061.7
791.512	1002.31
791.693	1026.89
791.874	1065.8
792.054	1366.85
792.235	1110.85
792.416	1053.51
792.597	916.3
792.778	1119.04
792.958	1082.18
793.139	1141.57
793.32	1135.43
793.5	848.71
793.681	1043.27
793.862	1205.06
794.042	1020.74
794.223	883.53
794.404	916.3
794.584	768.84
794.765	1039.17
794.945	1022.79
795.126	1041.22
795.306	1069.89
795.487	1020.74
795.667	990.02
795.848	895.82
796.028	932.68
796.209	936.78
796.389	1037.13
796.57	879.43
796.75	987.97
796.93	1018.69
797.111	789.32
797.291	852.81
797.471	1024.84
797.652	904.01
797.832	826.18
798.012	840.52
798.192	787.27
798.373	672.59
798.553	807.75
798.733	957.25
798.913	840.52
799.093	928.58
799.274	848.71
799.454	836.42
799.634	1000.26
799.814	1037.13
799.994	852.81
800.174	852.81
800.354	867.14
800.534	664.4
800.714	740.17
800.894	547.66
801.074	660.3
801.254	752.46
801.434	916.3
801.614	662.35
801.794	725.83
801.974	4377.36
802.154	701.26
802.334	774.99
802.514	637.77
802.693	707.4
802.873	637.77
803.053	824.14
803.233	826.18
803.413	830.28
803.592	586.57
803.772	639.82
803.952	709.45
804.131	588.62
804.311	766.79
804.491	697.16
804.67	553.8
804.85	498.51
805.03	748.36
805.209	840.52
805.389	586.57
805.568	592.72
805.748	625.48
805.928	602.96
806.107	795.47
806.287	754.51
806.466	742.22
806.646	656.2
806.825	772.94
807.004	562
807.184	770.89
807.363	721.74
807.543	709.45
807.722	568.14
807.901	707.4
808.081	566.09
808.26	324.43
808.439	668.49
808.619	557.9
808.798	557.9
808.977	727.88
809.156	764.75
809.336	664.4
809.515	566.09
809.694	502.61
809.873	578.38
810.052	549.71
810.231	715.59
810.411	691.02
810.59	748.36
810.769	648.01
810.948	580.43
811.127	351.06
811.306	594.76
811.485	435.02
811.664	643.92
811.843	602.96
812.022	650.06
812.201	492.37
812.38	463.69
812.559	533.33
812.737	566.09
812.916	426.83
813.095	441.17
813.274	609.1
813.453	639.82
813.632	531.28
813.811	578.38
813.989	342.86
814.168	514.89
814.347	318.29
814.526	529.23
814.704	750.41
814.883	731.98
815.062	426.83
815.24	340.82
815.419	375.63
815.598	631.63
815.776	205.65
815.955	480.08
816.133	244.56
816.312	508.75
816.49	353.1
816.669	412.5
816.847	459.6
817.026	484.17
817.204	361.3
817.383	414.54
817.561	463.69
817.74	672.59
817.918	428.88
818.097	365.39
818.275	355.15
818.453	547.66
818.632	486.22
818.81	349.01
818.988	451.41
819.167	275.28
819.345	365.39
819.523	330.58
819.701	605
819.879	416.59
820.058	473.93
820.236	318.29
820.414	473.93
820.592	447.31
820.77	359.25
820.948	217.94
821.127	408.4
821.305	490.32
821.483	271.19
821.661	424.78
821.839	441.17
822.017	332.62
822.195	269.14
822.373	344.91
822.551	447.31
822.729	496.46
822.907	381.78
823.085	439.12
823.262	430.93
823.44	426.83
823.618	330.58
823.796	357.2
823.974	404.3
824.152	248.66
824.329	336.72
824.507	461.65
824.685	545.61
824.863	426.83
825.04	299.86
825.218	291.66
825.396	349.01
825.574	502.61
825.751	373.58
825.929	234.32
826.107	269.14
826.284	424.78
826.462	287.57
826.639	260.95
826.817	226.13
826.994	406.35
827.172	123.73
827.349	379.73
827.527	426.83
827.704	387.92
827.882	416.59
828.059	310.1
828.237	338.77
828.414	490.32
828.591	129.88
828.769	306
828.946	351.06
829.124	473.93
829.301	389.97
829.478	234.32
829.655	430.93
829.833	389.97
830.01	58.2
830.187	461.65
830.364	437.07
830.542	439.12
830.719	340.82
830.896	375.63
831.073	387.92
831.25	373.58
831.427	295.76
831.604	283.47
831.782	248.66
831.959	408.4
832.136	203.6
832.313	353.1
832.49	328.53
832.667	400.21
832.844	148.31
833.021	445.26
833.198	408.4
833.374	222.03
833.551	267.09
833.728	197.46
833.905	408.4
834.082	97.11
834.259	334.67
834.436	359.25
834.612	361.3
834.789	480.08
834.966	260.95
835.143	209.75
835.319	226.13
835.496	416.59
835.673	191.31
835.85	228.18
836.026	418.64
836.203	437.07
836.38	211.79
836.556	199.51
836.733	275.28
836.909	549.71
837.086	248.66
837.262	154.45
837.439	248.66
837.616	176.98
837.792	240.47
837.968	306
838.145	97.11
838.321	361.3
838.498	211.79
838.674	396.11
838.851	453.45
839.027	308.05
839.203	179.03
839.38	363.34
839.556	252.75
839.732	414.54
839.909	140.12
840.085	197.46
840.261	203.6
840.437	267.09
840.614	152.4
840.79	281.43
840.966	394.06
841.142	308.05
841.318	293.71
841.494	228.18
841.671	475.98
841.847	152.4
842.023	131.92
842.199	179.03
842.375	500.56
842.551	80.72
842.727	105.3
842.903	252.75
843.079	154.45
843.255	414.54
843.431	224.08
843.607	242.51
843.783	-42.15
843.959	328.53
844.134	168.79
844.31	324.43
844.486	244.56
844.662	238.42
844.838	166.74
845.013	181.07
845.189	432.97
845.365	303.95
845.541	183.12
845.716	275.28
845.892	408.4
846.068	219.99
846.244	133.97
846.419	201.55
846.595	119.64
846.77	127.83
846.946	267.09
847.122	199.51
847.297	133.97
847.473	590.67
847.648	138.07
847.824	209.75
847.999	15.19
848.175	201.55
848.35	328.53
848.526	326.48
848.701	375.63
848.876	426.83
849.052	398.16
849.227	129.88
849.403	324.43
849.578	162.64
849.753	234.32
849.929	201.55
850.104	29.52
850.279	254.8
850.454	301.9
850.63	209.75
850.805	250.71
850.98	234.32
851.155	129.88
851.33	224.08
851.505	185.17
851.681	324.43
851.856	238.42
852.031	197.46
852.206	254.8
852.381	117.59
852.556	174.93
852.731	158.55
852.906	275.28
853.081	224.08
853.256	383.82
853.431	97.11
853.606	191.31
853.781	76.63
853.956	-5.29
854.131	107.35
854.305	152.4
854.48	179.03
854.655	144.21
854.83	115.54
855.005	252.75
855.18	203.6
855.354	119.64
855.529	129.88
855.704	154.45
855.879	334.67
856.053	29.52
856.228	199.51
856.403	82.77
856.577	312.14
856.752	-21.67
856.926	166.74
857.101	334.67
857.276	39.76
857.45	152.4
857.625	254.8
857.799	203.6
857.974	203.6
858.148	-25.77
858.323	209.75
858.497	219.99
858.672	86.87
858.846	76.63
859.02	181.07
859.195	95.06
859.369	148.31
859.543	193.36
859.718	123.73
859.892	254.8
860.066	279.38
860.241	64.34
860.415	93.01
860.589	215.89
860.763	170.83
860.938	131.92
861.112	66.39
861.286	142.16
861.46	314.19
861.634	129.88
861.808	80.72
861.982	86.87
862.157	23.38
862.331	78.68
862.505	-19.63
862.679	72.53
862.853	140.12
863.027	138.07
863.201	230.23
863.375	23.38
863.549	260.95
863.722	226.13
863.896	193.36
864.07	64.34
864.244	203.6
864.418	123.73
864.592	119.64
864.766	252.75
864.939	215.89
865.113	88.92
865.287	297.81
865.461	107.35
865.634	185.17
865.808	138.07
865.982	142.16
866.156	199.51
866.329	47.96
866.503	127.83
866.676	195.41
866.85	217.94
867.024	62.29
867.197	189.27
867.371	164.69
867.544	295.76
867.718	-74.92
867.891	234.32
868.065	37.72
868.238	224.08
868.412	394.06
868.585	136.02
868.759	103.25
868.932	219.99
869.105	43.86
869.279	193.36
869.452	-54.44
869.625	289.62
869.799	150.36
869.972	4.95
870.145	95.06
870.319	363.34
870.492	82.77
870.665	7
870.838	99.16
871.011	-113.83
871.185	181.07
871.358	113.49
871.531	297.81
871.704	39.76
871.877	140.12
872.05	-11.43
872.223	-13.48
872.396	408.4
872.569	314.19
872.742	-3.24
872.915	97.11
873.088	111.44
873.261	45.91
873.434	234.32
873.607	62.29
873.78	437.07
873.953	-42.15
874.126	117.59
874.299	140.12
874.471	101.2
874.644	105.3
874.817	209.75
874.99	340.82
875.163	121.68
875.335	197.46
875.508	60.24
875.681	187.22
875.853	138.07
876.026	133.97
876.199	240.47
876.371	54.1
876.544	127.83
876.717	185.17
876.889	54.1
877.062	82.77
877.234	70.48
877.407	37.72
877.579	105.3
877.752	138.07
877.924	269.14
878.097	254.8
878.269	76.63
878.442	170.83
878.614	277.33
878.786	105.3
878.959	97.11
879.131	111.44
879.303	-66.73
879.476	129.88
879.648	146.26
879.82	31.57
879.993	207.7
880.165	43.86
880.337	7
880.509	154.45
880.681	-60.59
880.854	56.15
881.026	269.14
881.198	172.88
881.37	168.79
881.542	183.12
881.714	84.82
881.886	-36.01
882.058	164.69
882.23	111.44
882.402	76.63
882.574	142.16
882.746	342.86
882.918	385.87
883.09	179.03
883.262	66.39
883.434	283.47
883.606	-40.11
883.778	138.07
883.95	213.84
884.122	78.68
884.293	285.52
884.465	43.86
884.637	162.64
884.809	78.68
884.98	158.55
885.152	187.22
885.324	136.02
885.496	45.91
885.667	80.72
885.839	-36.01
886.011	62.29
886.182	289.62
886.354	250.71
886.525	131.92
886.697	50
886.869	56.15
887.04	185.17
887.212	324.43
887.383	183.12
887.555	170.83
887.726	95.06
887.897	4.95
888.069	90.96
888.24	215.89
888.412	168.79
888.583	43.86
888.754	13.14
888.926	-33.96
889.097	-36.01
889.268	-85.16
889.44	52.05
889.611	-48.3
889.782	90.96
889.953	-29.87
890.125	193.36
890.296	-5.29
890.467	60.24
890.638	107.35
890.809	84.82
890.98	72.53
891.151	219.99
891.323	217.94
891.494	64.34
891.665	160.59
891.836	226.13
892.007	76.63
892.178	181.07
892.349	215.89
892.52	105.3
892.691	90.96
892.862	101.2
893.032	-3.24
893.203	90.96
893.374	170.83
893.545	181.07
893.716	146.26
893.887	349.01
894.057	-19.63
894.228	47.96
894.399	95.06
894.57	328.53
894.74	47.96
894.911	125.78
895.082	82.77
895.253	54.1
895.423	93.01
895.594	142.16
895.764	279.38
895.935	-70.83
896.106	121.68
896.276	-38.06
896.447	269.14
896.617	37.72
896.788	-62.63
896.958	-11.43
897.129	56.15
897.299	-11.43
897.47	176.98
897.64	95.06
897.81	121.68
897.981	183.12
898.151	76.63
898.322	103.25
898.492	279.38
898.662	-11.43
898.832	90.96
899.003	-7.34
899.173	269.14
899.343	74.58
899.513	-3.24
