Data from USB4F104151__28__12-19-52-066.txt Node

Date: Wed Feb 19 12:19:52 EST 2025
User: louis
Spectrometer: USB4F10415
Trigger mode: 4
Integration Time (sec): 2.250200E-1
Scans to average: 1
Electric dark correction enabled: true
Nonlinearity correction enabled: false
Boxcar width: 0
XAxis mode: Wavelengths
Number of Pixels in Spectrum: 3648
>>>>>Begin Spectral Data<<<<<
178.204	-729.59
178.424	-729.59
178.644	-729.59
178.864	-739.83
179.084	-856.56
179.304	93.69
179.524	83.45
179.744	-41.47
179.964	-168.45
180.184	243.2
180.404	192
180.624	-254.46
180.844	-86.53
181.064	-6.66
181.283	161.28
181.503	-209.4
181.723	-6.66
181.943	-43.52
182.163	476.66
182.383	-164.35
182.602	-195.07
182.822	460.28
183.042	255.48
183.262	-160.25
183.482	-168.45
183.701	245.24
183.921	259.58
184.141	-88.57
184.361	-92.67
184.58	214.52
184.8	169.47
185.02	-147.97
185.239	-90.62
185.459	282.11
185.679	402.94
185.898	-248.32
186.118	-217.6
186.338	294.4
186.557	343.55
186.777	-281.08
186.997	-238.08
187.216	228.86
187.436	560.63
187.655	-92.67
187.875	-31.23
188.095	169.47
188.314	470.52
188.534	-39.42
188.753	-203.26
188.973	417.27
189.192	493.05
189.412	-217.6
189.631	-100.86
189.851	253.44
190.07	540.15
190.29	-201.21
190.509	-135.68
190.729	298.49
190.948	447.99
191.168	-47.62
191.387	-213.5
191.607	243.2
191.826	339.45
192.045	-92.67
192.265	-125.44
192.484	359.93
192.704	235
192.923	-96.77
193.142	-23.04
193.362	318.97
193.581	357.88
193.8	-107.01
194.02	-111.1
194.239	273.92
194.458	304.64
194.678	-98.81
194.897	-240.12
195.116	239.1
195.335	343.55
195.555	-121.34
195.774	-164.35
195.993	474.62
196.212	155.13
196.432	-27.14
196.651	-229.88
196.87	169.47
197.089	626.17
197.308	-168.45
197.528	-82.43
197.747	44.54
197.966	228.86
198.185	-72.19
198.404	-217.6
198.623	312.83
198.842	378.36
199.062	-104.96
199.281	-4.61
199.5	239.1
199.719	345.59
199.938	-197.12
200.157	-88.57
200.376	413.18
200.595	462.33
200.814	-80.38
201.033	-182.78
201.252	513.53
201.471	237.05
201.69	-168.45
201.909	-143.87
202.128	269.82
202.347	337.4
202.566	-119.29
202.785	-289.28
203.004	183.81
203.223	607.73
203.442	-156.16
203.661	-328.19
203.879	374.27
204.098	427.51
204.317	-156.16
204.536	5.63
204.755	351.74
204.974	292.35
205.193	-346.62
205.411	-82.43
205.63	398.84
205.849	286.2
206.068	-158.21
206.287	-158.21
206.505	458.23
206.724	308.73
206.943	-213.5
207.162	-164.35
207.381	255.48
207.599	257.53
207.818	-131.58
208.037	-264.7
208.255	302.59
208.474	374.27
208.693	-143.87
208.911	-215.55
209.13	321.02
209.349	404.99
209.567	-41.47
209.786	-221.69
210.005	394.75
210.223	185.85
210.442	-246.27
210.661	-203.26
210.879	347.64
211.098	161.28
211.316	-137.73
211.535	-150.01
211.753	329.21
211.972	341.5
212.191	-205.31
212.409	-190.97
212.628	341.5
212.846	169.47
213.065	-207.36
213.283	-119.29
213.502	177.66
213.72	161.28
213.938	-303.61
214.157	-137.73
214.375	341.5
214.594	267.77
214.812	-143.87
215.031	-129.53
215.249	306.68
215.467	251.39
215.686	-100.86
215.904	-133.63
216.122	304.64
216.341	321.02
216.559	-37.38
216.778	-27.14
216.996	398.84
217.214	171.52
217.432	-96.77
217.651	-211.45
217.869	294.4
218.087	185.85
218.306	-233.98
218.524	-215.55
218.742	204.28
218.96	316.92
219.179	-223.74
219.397	-197.12
219.615	488.95
219.833	339.45
220.051	-121.34
220.27	-117.25
220.488	361.98
220.706	267.77
220.924	-231.93
221.142	-115.2
221.36	300.54
221.578	296.44
221.796	-203.26
222.015	-64
222.233	316.92
222.451	374.27
222.669	-55.81
222.887	-59.9
223.105	208.38
223.323	169.47
223.541	-125.44
223.759	-70.14
223.977	259.58
224.195	386.55
224.413	-76.29
224.631	-162.3
224.849	282.11
225.067	488.95
225.285	-131.58
225.503	-154.11
225.721	-68.09
225.939	222.72
226.157	-55.81
226.375	83.45
226.592	196.09
226.81	122.37
227.028	26.11
227.246	-107.01
227.464	245.24
227.682	339.45
227.9	-109.05
228.117	-61.95
228.335	241.15
228.553	228.86
228.771	-238.08
228.989	-125.44
229.206	333.31
229.424	232.96
229.642	-154.11
229.86	-133.63
230.077	484.86
230.295	247.29
230.513	-39.42
230.731	-127.49
230.948	472.57
231.166	421.37
231.384	-123.39
231.601	-174.59
231.819	474.62
232.037	103.93
232.254	-45.57
232.472	-86.53
232.689	146.94
232.907	433.66
233.125	-252.41
233.342	-203.26
233.56	177.66
233.777	151.04
233.995	-201.21
234.213	-61.95
234.43	382.46
234.648	208.38
234.865	-178.69
235.083	-84.48
235.3	210.43
235.518	275.96
235.735	-66.05
235.953	-74.24
236.17	259.58
236.388	153.09
236.605	5.63
236.822	-111.1
237.04	316.92
237.257	337.4
237.475	-125.44
237.692	-102.91
237.909	300.54
238.127	120.32
238.344	22.02
238.562	-104.96
238.779	67.07
238.996	38.4
239.214	-100.86
239.431	-139.77
239.648	189.95
239.865	275.96
240.083	-74.24
240.3	-141.82
240.517	97.79
240.735	202.24
240.952	46.59
241.169	-164.35
241.386	419.32
241.603	218.62
241.821	-147.97
242.038	-100.86
242.255	357.88
242.472	46.59
242.689	-31.23
242.907	-125.44
243.124	247.29
243.341	232.96
243.558	-145.92
243.775	-307.71
243.992	79.36
244.209	241.15
244.426	-8.7
244.643	-156.16
244.86	304.64
245.078	300.54
245.295	-18.94
245.512	-129.53
245.729	103.93
245.946	226.81
246.163	-125.44
246.38	-195.07
246.597	243.2
246.814	261.63
247.031	-64
247.248	-176.64
247.464	331.26
247.681	206.33
247.898	-35.33
248.115	-53.76
248.332	173.57
248.549	429.56
248.766	-23.04
248.983	-74.24
249.2	347.64
249.417	409.08
249.633	-145.92
249.85	-66.05
250.067	212.48
250.284	224.76
250.501	-137.73
250.717	-92.67
250.934	58.88
251.151	204.28
251.368	46.59
251.585	-78.33
251.801	339.45
252.018	24.06
252.235	15.87
252.451	-172.54
252.668	167.42
252.885	308.73
253.102	-37.38
253.318	-117.25
253.535	169.47
253.752	138.75
253.968	-154.11
254.185	-270.84
254.401	265.72
254.618	292.35
254.835	-127.49
255.051	-43.52
255.268	292.35
255.484	294.4
255.701	-76.29
255.917	-84.48
256.134	75.26
256.351	187.9
256.567	-166.4
256.784	-76.29
257	-53.76
257.217	347.64
257.433	75.26
257.65	-57.86
257.866	378.36
258.082	48.64
258.299	-117.25
258.515	-109.05
258.732	99.84
258.948	60.93
259.165	-66.05
259.381	-158.21
259.597	321.02
259.814	198.14
260.03	-129.53
260.246	-133.63
260.463	374.27
260.679	314.88
260.895	-55.81
261.112	-41.47
261.328	218.62
261.544	75.26
261.761	-25.09
261.977	-59.9
262.193	60.93
262.409	278.01
262.626	-49.66
262.842	-98.81
263.058	151.04
263.274	409.08
263.49	-47.62
263.707	-86.53
263.923	314.88
264.139	-27.14
264.355	7.68
264.571	-72.19
264.787	333.31
265.004	327.16
265.22	-102.91
265.436	-180.73
265.652	198.14
265.868	204.28
266.084	-133.63
266.3	-133.63
266.516	-14.85
266.732	259.58
266.948	-96.77
267.164	-166.4
267.38	376.31
267.596	243.2
267.812	42.5
268.028	-143.87
268.244	161.28
268.46	136.7
268.676	-35.33
268.892	-10.75
269.108	83.45
269.324	114.17
269.54	-104.96
269.756	-55.81
269.972	146.94
270.188	259.58
270.403	-90.62
270.619	-39.42
270.835	280.06
271.051	192
271.267	-76.29
271.483	-174.59
271.698	357.88
271.914	284.16
272.13	-98.81
272.346	-68.09
272.562	212.48
272.777	372.22
272.993	-37.38
273.209	-51.71
273.425	341.5
273.64	11.78
273.856	11.78
274.072	-219.64
274.287	97.79
274.503	300.54
274.719	22.02
274.934	-117.25
275.15	-68.09
275.366	169.47
275.581	-61.95
275.797	-49.66
276.012	183.81
276.228	122.37
276.444	7.68
276.659	112.13
276.875	103.93
277.09	75.26
277.306	-10.75
277.521	136.7
277.737	167.42
277.952	214.52
278.168	-33.28
278.383	-25.09
278.599	132.61
278.814	321.02
279.03	-82.43
279.245	85.5
279.461	134.65
279.676	196.09
279.892	-98.81
280.107	-125.44
280.322	169.47
280.538	327.16
280.753	-102.91
280.969	-96.77
281.184	288.25
281.399	335.35
281.615	24.06
281.83	52.74
282.045	26.11
282.26	146.94
282.476	-53.76
282.691	24.06
282.906	128.51
283.122	155.13
283.337	-27.14
283.552	-10.75
283.767	165.37
283.983	189.95
284.198	-16.9
284.413	-51.71
284.628	15.87
284.843	255.48
285.058	-29.18
285.274	-78.33
285.489	97.79
285.704	159.23
285.919	5.63
286.134	-76.29
286.349	181.76
286.564	130.56
286.779	69.12
286.995	93.69
287.21	-16.9
287.425	243.2
287.64	-100.86
287.855	99.84
288.07	-43.52
288.285	232.96
288.5	-0.51
288.715	19.97
288.93	192
289.145	177.66
289.36	15.87
289.575	32.26
289.79	321.02
290.004	110.08
290.219	108.03
290.434	-16.9
290.649	118.27
290.864	159.23
291.079	-64
291.294	13.82
291.509	232.96
291.724	99.84
291.938	-29.18
292.153	-37.38
292.368	228.86
292.583	300.54
292.798	87.55
293.012	26.11
293.227	237.05
293.442	108.03
293.657	114.17
293.871	101.89
294.086	235
294.301	302.59
294.516	9.73
294.73	71.17
294.945	30.21
295.16	128.51
295.374	-8.7
295.589	95.74
295.804	175.61
296.018	189.95
296.233	22.02
296.447	87.55
296.662	99.84
296.877	343.55
297.091	-2.56
297.306	26.11
297.52	169.47
297.735	284.16
297.949	32.26
298.164	-123.39
298.378	157.18
298.593	79.36
298.807	24.06
299.022	38.4
299.236	308.73
299.451	58.88
299.665	40.45
299.88	11.78
300.094	263.68
300.309	173.57
300.523	30.21
300.737	-2.56
300.952	349.69
301.166	224.76
301.381	-47.62
301.595	-90.62
301.809	175.61
302.024	185.85
302.238	22.02
302.452	87.55
302.667	249.34
302.881	353.79
303.095	71.17
303.309	52.74
303.524	122.37
303.738	151.04
303.952	-27.14
304.166	58.88
304.381	-92.67
304.595	222.72
304.809	26.11
305.023	-14.85
305.237	65.02
305.452	75.26
305.666	9.73
305.88	56.83
306.094	235
306.308	212.48
306.522	-66.05
306.736	118.27
306.95	206.33
307.164	75.26
307.379	132.61
307.593	126.46
307.807	278.01
308.021	226.81
308.235	179.71
308.449	-125.44
308.663	192
308.877	527.86
309.091	105.98
309.305	124.41
309.519	-64
309.733	306.68
309.947	-33.28
310.161	5.63
310.374	167.42
310.588	304.64
310.802	-61.95
311.016	13.82
311.23	163.33
311.444	71.17
311.658	44.54
311.872	114.17
312.085	282.11
312.299	329.21
312.513	153.09
312.727	-27.14
312.941	62.98
313.154	161.28
313.368	38.4
313.582	56.83
313.796	243.2
314.009	179.71
314.223	181.76
314.437	71.17
314.651	253.44
314.864	179.71
315.078	-29.18
315.292	-84.48
315.505	140.8
315.719	124.41
315.933	140.8
316.146	-53.76
316.36	132.61
316.573	210.43
316.787	214.52
317.001	28.16
317.214	54.78
317.428	97.79
317.641	-23.04
317.855	95.74
318.068	206.33
318.282	192
318.495	112.13
318.709	30.21
318.922	138.75
319.136	302.59
319.349	44.54
319.563	-64
319.776	237.05
319.99	-47.62
320.203	38.4
320.417	32.26
320.63	142.85
320.843	259.58
321.057	69.12
321.27	-23.04
321.483	200.19
321.697	163.33
321.91	1.54
322.124	48.64
322.337	173.57
322.55	62.98
322.763	44.54
322.977	-123.39
323.19	105.98
323.403	183.81
323.617	79.36
323.83	245.24
324.043	153.09
324.256	185.85
324.469	-276.99
324.683	136.7
324.896	128.51
325.109	95.74
325.322	-184.83
325.535	171.52
325.748	273.92
325.962	140.8
326.175	19.97
326.388	-20.99
326.601	216.57
326.814	144.89
327.027	36.35
327.24	62.98
327.453	-55.81
327.666	228.86
327.879	220.67
328.092	126.46
328.305	284.16
328.518	146.94
328.731	32.26
328.944	-47.62
329.157	165.37
329.37	42.5
329.583	171.52
329.796	108.03
330.009	99.84
330.222	163.33
330.435	69.12
330.648	-18.94
330.861	179.71
331.073	112.13
331.286	79.36
331.499	77.31
331.712	140.8
331.925	144.89
332.138	-25.09
332.35	38.4
332.563	142.85
332.776	353.79
332.989	13.82
333.202	-80.38
333.414	165.37
333.627	136.7
333.84	-10.75
334.053	81.41
334.265	22.02
334.478	-20.99
334.691	-2.56
334.903	187.9
335.116	132.61
335.329	65.02
335.541	89.6
335.754	265.72
335.966	93.69
336.179	177.66
336.392	34.3
336.604	95.74
336.817	216.57
337.029	175.61
337.242	-14.85
337.454	26.11
337.667	194.05
337.88	327.16
338.092	67.07
338.305	30.21
338.517	120.32
338.729	204.28
338.942	105.98
339.154	-133.63
339.367	-2.56
339.579	204.28
339.792	-0.51
340.004	22.02
340.217	97.79
340.429	261.63
340.641	-92.67
340.854	-82.43
341.066	292.35
341.278	298.49
341.491	108.03
341.703	34.3
341.915	89.6
342.128	187.9
342.34	-6.66
342.552	-51.71
342.764	185.85
342.977	144.89
343.189	54.78
343.401	58.88
343.613	19.97
343.826	181.76
344.038	-72.19
344.25	81.41
344.462	69.12
344.674	247.29
344.886	-55.81
345.099	103.93
345.311	220.67
345.523	179.71
345.735	-152.06
345.947	58.88
346.159	235
346.371	116.22
346.583	3.58
346.795	101.89
347.007	56.83
347.219	269.82
347.431	42.5
347.643	95.74
347.855	108.03
348.067	376.31
348.279	-78.33
348.491	-4.61
348.703	259.58
348.915	136.7
349.127	-47.62
349.339	36.35
349.551	116.22
349.763	347.64
349.975	42.5
350.187	126.46
350.399	409.08
350.61	153.09
350.822	7.68
351.034	-29.18
351.246	321.02
351.458	185.85
351.669	30.21
351.881	5.63
352.093	351.74
352.305	189.95
352.517	-4.61
352.728	97.79
352.94	148.99
353.152	228.86
353.363	-59.9
353.575	105.98
353.787	433.66
353.999	288.25
354.21	101.89
354.422	-41.47
354.633	175.61
354.845	204.28
355.057	69.12
355.268	77.31
355.48	337.4
355.692	-2.56
355.903	79.36
356.115	-107.01
356.326	-68.09
356.538	400.89
356.749	28.16
356.961	124.41
357.172	196.09
357.384	48.64
357.595	194.05
357.807	-4.61
358.018	181.76
358.23	167.42
358.441	44.54
358.653	-2.56
358.864	204.28
359.075	56.83
359.287	-43.52
359.498	73.21
359.709	179.71
359.921	241.15
360.132	103.93
360.344	-82.43
360.555	128.51
360.766	235
360.977	-27.14
361.189	30.21
361.4	214.52
361.611	228.86
361.823	24.06
362.034	58.88
362.245	13.82
362.456	136.7
362.667	138.75
362.879	-59.9
363.09	255.48
363.301	290.3
363.512	-45.57
363.723	-18.94
363.935	212.48
364.146	302.59
364.357	-14.85
364.568	30.21
364.779	17.92
364.99	267.77
365.201	28.16
365.412	179.71
365.623	-33.28
365.834	175.61
366.045	93.69
366.256	108.03
366.467	304.64
366.678	93.69
366.889	24.06
367.1	-25.09
367.311	312.83
367.522	144.89
367.733	85.5
367.944	48.64
368.155	81.41
368.366	296.44
368.577	120.32
368.788	189.95
368.999	144.89
369.209	87.55
369.42	114.17
369.631	400.89
369.842	235
370.053	187.9
370.264	81.41
370.474	-33.28
370.685	302.59
370.896	50.69
371.107	124.41
371.317	-74.24
371.528	144.89
371.739	353.79
371.95	105.98
372.16	42.5
372.371	110.08
372.582	212.48
372.792	65.02
373.003	91.65
373.214	247.29
373.424	177.66
373.635	44.54
373.846	185.85
374.056	247.29
374.267	185.85
374.477	46.59
374.688	-66.05
374.898	259.58
375.109	103.93
375.319	124.41
375.53	128.51
375.74	294.4
375.951	62.98
376.161	11.78
376.372	108.03
376.582	134.65
376.793	288.25
377.003	-33.28
377.214	-39.42
377.424	241.15
377.635	151.04
377.845	105.98
378.055	114.17
378.266	9.73
378.476	196.09
378.686	62.98
378.897	48.64
379.107	341.5
379.317	232.96
379.528	-80.38
379.738	34.3
379.948	69.12
380.158	206.33
380.369	54.78
380.579	196.09
380.789	138.75
380.999	187.9
381.21	132.61
381.42	179.71
381.63	183.81
381.84	318.97
382.05	151.04
382.261	83.45
382.471	343.55
382.681	179.71
382.891	146.94
383.101	83.45
383.311	38.4
383.521	44.54
383.731	-16.9
383.941	230.91
384.151	206.33
384.361	-4.61
384.571	38.4
384.781	34.3
384.991	349.69
385.201	400.89
385.411	112.13
385.621	34.3
385.831	230.91
386.041	179.71
386.251	17.92
386.461	118.27
386.671	241.15
386.881	151.04
387.091	22.02
387.301	181.76
387.511	235
387.72	189.95
387.93	99.84
388.14	56.83
388.35	212.48
388.56	349.69
388.769	65.02
388.979	1.54
389.189	81.41
389.399	155.13
389.609	60.93
389.818	161.28
390.028	208.38
390.238	192
390.447	15.87
390.657	97.79
390.867	247.29
391.076	165.37
391.286	24.06
391.496	7.68
391.705	288.25
391.915	380.41
392.125	-23.04
392.334	9.73
392.544	329.21
392.753	226.81
392.963	22.02
393.172	48.64
393.382	185.85
393.591	384.51
393.801	-16.9
394.01	130.56
394.22	341.5
394.429	194.05
394.639	56.83
394.848	85.5
395.058	298.49
395.267	206.33
395.477	75.26
395.686	136.7
395.895	499.19
396.105	474.62
396.314	73.21
396.524	32.26
396.733	151.04
396.942	331.26
397.152	65.02
397.361	228.86
397.57	220.67
397.78	173.57
397.989	175.61
398.198	312.83
398.407	108.03
398.617	226.81
398.826	126.46
399.035	124.41
399.244	321.02
399.453	275.96
399.663	34.3
399.872	-16.9
400.081	79.36
400.29	331.26
400.499	-27.14
400.708	187.9
400.917	153.09
401.127	151.04
401.336	15.87
401.545	308.73
401.754	378.36
401.963	296.44
402.172	81.41
402.381	46.59
402.59	243.2
402.799	235
403.008	247.29
403.217	124.41
403.426	310.78
403.635	5.63
403.844	1.54
404.053	54.78
404.262	253.44
404.471	443.9
404.68	42.5
404.888	179.71
405.097	230.91
405.306	187.9
405.515	140.8
405.724	81.41
405.933	402.94
406.142	300.54
406.35	126.46
406.559	173.57
406.768	224.76
406.977	554.49
407.185	101.89
407.394	235
407.603	126.46
407.812	114.17
408.02	243.2
408.229	58.88
408.438	243.2
408.646	-45.57
408.855	71.17
409.064	71.17
409.272	202.24
409.481	259.58
409.69	130.56
409.898	-2.56
410.107	243.2
410.315	366.07
410.524	38.4
410.733	120.32
410.941	230.91
411.15	333.31
411.358	40.45
411.567	183.81
411.775	247.29
411.984	275.96
412.192	77.31
412.401	-0.51
412.609	474.62
412.818	245.24
413.026	155.13
413.234	81.41
413.443	286.2
413.651	144.89
413.86	-35.33
414.068	267.77
414.276	531.96
414.485	134.65
414.693	112.13
414.901	292.35
415.11	298.49
415.318	292.35
415.526	134.65
415.734	216.57
415.943	294.4
416.151	400.89
416.359	79.36
416.567	183.81
416.776	327.16
416.984	316.92
417.192	148.99
417.4	83.45
417.608	128.51
417.817	77.31
418.025	208.38
418.233	169.47
418.441	140.8
418.649	95.74
418.857	175.61
419.065	169.47
419.273	230.91
419.481	235
419.689	140.8
419.897	-14.85
420.105	159.23
420.313	321.02
420.521	192
420.729	243.2
420.937	237.05
421.145	105.98
421.353	105.98
421.561	230.91
421.769	359.93
421.977	171.52
422.185	232.96
422.393	185.85
422.601	284.16
422.809	335.35
423.017	216.57
423.224	136.7
423.432	450.04
423.64	228.86
423.848	54.78
424.056	-14.85
424.263	415.23
424.471	292.35
424.679	288.25
424.887	79.36
425.094	423.42
425.302	382.46
425.51	17.92
425.718	124.41
425.925	310.78
426.133	142.85
426.341	292.35
426.548	157.18
426.756	189.95
426.964	323.07
427.171	103.93
427.379	136.7
427.586	284.16
427.794	396.79
428.001	251.39
428.209	175.61
428.417	376.31
428.624	318.97
428.832	159.23
429.039	214.52
429.247	310.78
429.454	337.4
429.662	282.11
429.869	179.71
430.076	265.72
430.284	376.31
430.491	239.1
430.699	245.24
430.906	493.05
431.114	431.61
431.321	237.05
431.528	294.4
431.736	368.12
431.943	372.22
432.15	335.35
432.358	204.28
432.565	568.82
432.772	140.8
432.979	333.31
433.187	253.44
433.394	452.09
433.601	321.02
433.808	298.49
434.016	337.4
434.223	505.34
434.43	339.45
434.637	212.48
434.844	298.49
435.052	478.71
435.259	404.99
435.466	302.59
435.673	351.74
435.88	570.87
436.087	671.22
436.294	482.81
436.501	429.56
436.708	544.25
436.915	579.06
437.122	517.62
437.329	292.35
437.537	447.99
437.743	454.14
437.95	460.28
438.157	376.31
438.364	437.75
438.571	546.3
438.778	335.35
438.985	468.47
439.192	538.1
439.399	464.38
439.606	470.52
439.813	517.62
440.02	906.74
440.227	894.45
440.433	529.91
440.64	509.43
440.847	536.06
441.054	570.87
441.261	538.1
441.467	630.26
441.674	554.49
441.881	732.66
442.088	507.38
442.294	595.45
442.501	755.19
442.708	855.54
442.914	511.48
443.121	603.64
443.328	830.96
443.534	884.21
443.741	554.49
443.948	466.42
444.154	781.81
444.361	994.8
444.568	689.65
444.774	673.27
444.981	597.49
445.187	1046
445.394	693.75
445.6	777.72
445.807	894.45
446.013	957.94
446.22	695.8
446.426	898.55
446.633	980.47
446.839	1209.84
447.046	757.24
447.252	894.45
447.459	1052.14
447.665	902.64
447.871	845.3
448.078	1285.61
448.284	1175.02
448.491	1332.72
448.697	1127.92
448.903	1195.5
449.11	1312.24
449.316	1058.29
449.522	1392.11
449.728	1179.12
449.935	1404.39
450.141	1236.46
450.347	1332.72
450.553	1336.81
450.76	1494.51
450.966	1560.04
451.172	1396.2
451.378	1465.83
451.584	1635.82
451.791	1822.18
451.997	1670.63
452.203	1500.65
452.409	1969.63
452.615	1809.89
452.821	1670.63
453.027	1637.86
453.233	2139.62
453.44	1848.8
453.646	1770.98
453.852	1983.97
454.058	1932.77
454.264	2076.13
454.47	2051.55
454.676	1934.82
454.882	2325.98
455.088	2186.72
455.294	2196.96
455.5	2258.4
455.705	2362.84
455.911	2360.8
456.117	2160.1
456.323	2391.52
456.529	2235.87
456.735	2405.85
456.941	2182.62
457.147	2495.96
457.352	2491.87
457.558	2248.16
457.764	2366.94
457.97	2201.05
458.176	2495.96
458.381	2571.74
458.587	2385.37
458.793	2321.88
458.999	2172.38
459.204	2553.31
459.41	2403.8
459.616	2389.47
459.821	2567.64
460.027	2303.45
460.233	2489.82
460.438	2381.28
460.644	2448.86
460.85	2407.9
461.055	2422.24
461.261	2317.79
461.466	2194.91
461.672	2262.49
461.878	2194.91
462.083	2231.77
462.289	2135.52
462.494	2033.12
462.7	2090.46
462.905	2008.55
463.111	2358.75
463.316	2303.45
463.522	2041.31
463.727	1955.3
463.932	2149.86
464.138	2092.51
464.343	2094.56
464.549	2012.64
464.754	2334.17
464.959	2264.54
465.165	2072.03
465.37	1916.39
465.575	1986.02
465.781	2088.42
465.986	1889.76
466.191	1902.05
466.397	2203.1
466.602	2065.89
466.807	1908.19
467.012	1857
467.218	2282.97
467.423	1986.02
467.628	1738.21
467.833	1988.07
468.038	2031.07
468.244	1857
468.449	1979.87
468.654	1977.83
468.859	2010.59
469.064	1938.91
469.269	1754.6
469.474	1807.84
469.679	2133.47
469.885	2147.81
470.09	1918.43
470.295	1906.15
470.5	2110.94
470.705	2129.38
470.91	1945.06
471.115	1900
471.32	2110.94
471.525	2289.12
471.73	1836.52
471.935	2041.31
472.139	1897.96
472.344	1922.53
472.549	1988.07
472.754	1949.15
472.959	2117.09
473.164	2203.1
473.369	1992.16
473.574	2125.28
473.778	2213.34
473.983	2115.04
474.188	2078.18
474.393	1908.19
474.598	2233.82
474.802	2274.78
475.007	1975.78
475.212	2049.5
475.417	1986.02
475.621	2252.25
475.826	1963.49
476.031	2092.51
476.235	2174.43
476.44	2203.1
476.645	2031.07
476.849	1852.9
477.054	1994.21
477.259	2141.66
477.463	2041.31
477.668	2205.15
477.872	2364.89
478.077	2051.55
478.282	1883.62
478.486	2110.94
478.691	2176.48
478.895	2221.53
479.1	2260.45
479.304	2061.79
479.509	2082.27
479.713	2272.73
479.918	2102.75
480.122	2055.65
480.326	2209.25
480.531	2235.87
480.735	2076.13
480.94	2037.22
481.144	2362.84
481.348	2303.45
481.553	2110.94
481.757	2051.55
481.961	2303.45
482.166	2287.07
482.37	2055.65
482.574	2256.35
482.778	2135.52
482.983	2342.36
483.187	2059.74
483.391	2151.9
483.595	2196.96
483.8	2287.07
484.004	2176.48
484.208	2268.64
484.412	2481.63
484.616	2479.58
484.821	2166.24
485.025	2094.56
485.229	2188.77
485.433	2344.41
485.637	2301.4
485.841	2203.1
486.045	2530.78
486.249	2551.26
486.453	2250.21
486.657	2274.78
486.861	2244.06
487.065	2469.34
487.269	2194.91
487.473	2266.59
487.677	2506.2
487.881	2827.73
488.085	2401.76
488.289	2489.82
488.493	2514.39
488.697	3046.87
488.901	2493.91
489.105	2653.66
489.309	2651.61
489.512	2891.22
489.716	2606.55
489.92	2663.9
490.124	2837.97
490.328	2928.08
490.531	2555.35
490.735	2692.57
490.939	2688.47
491.143	2774.49
491.346	2786.77
491.55	2811.35
491.754	2942.42
491.958	2971.09
492.161	2946.52
492.365	2883.03
492.569	3016.15
492.772	3071.44
492.976	2923.99
493.18	2993.62
493.383	3100.11
493.587	3165.65
493.79	3163.6
493.994	2874.84
494.197	3141.07
494.401	3366.35
494.605	3075.54
494.808	3190.22
495.012	3290.57
495.215	3487.18
495.419	3360.2
495.622	3298.77
495.825	3372.49
496.029	3315.15
496.232	3405.26
496.436	3319.25
496.639	3702.22
496.843	3505.61
497.046	3444.17
497.249	3587.53
497.453	3798.47
497.656	3571.15
497.859	3644.87
498.063	3708.36
498.266	3833.29
498.469	3593.67
498.673	3661.26
498.876	3904.96
499.079	3792.33
499.282	3925.44
499.485	4111.81
499.689	4011.46
499.892	4275.65
500.095	4195.78
500.298	4171.2
500.501	3923.4
500.705	4371.9
500.908	4376
501.111	4244.93
501.314	4281.79
501.517	4601.27
501.72	4527.55
501.923	4365.76
502.126	4439.48
502.329	4836.79
502.532	4828.6
502.735	4617.66
502.938	4865.46
503.141	4926.9
503.344	4887.99
503.547	5162.42
503.75	4924.85
503.953	4971.96
504.156	5154.23
504.359	5227.95
504.562	5133.75
504.765	5223.86
504.968	5463.47
505.17	5404.08
505.373	5518.76
505.576	5741.99
505.779	5596.59
505.982	5418.41
506.185	5531.05
506.387	5897.64
506.59	6129.06
506.793	5840.29
506.996	5959.08
507.198	6374.81
507.401	6221.22
507.604	6122.91
507.807	6325.66
508.009	6446.49
508.212	6462.88
508.415	6321.57
508.617	6307.23
508.82	6583.71
509.022	6665.63
509.225	6702.49
509.428	6675.87
509.63	7042.45
509.833	6995.35
510.035	7177.62
510.238	7132.56
510.44	7214.48
510.643	7568.78
510.845	7474.57
511.048	7249.3
511.25	7466.38
511.453	7644.56
511.655	7734.67
511.858	7957.89
512.06	8215.94
512.262	8162.69
512.465	7865.74
512.667	8369.54
512.87	8473.98
513.072	8727.93
513.274	8295.81
513.477	8222.08
513.679	8723.83
513.881	8801.66
514.084	8959.35
514.286	8863.1
514.488	9155.96
514.69	9237.88
514.893	9284.98
515.095	9457.01
515.297	9467.25
515.499	9694.57
515.701	9512.3
515.904	9778.54
516.106	10042.73
516.308	9997.67
516.51	10128.74
516.712	10222.95
516.914	10509.66
517.116	10450.27
517.318	10315.11
517.52	10773.85
517.722	10868.06
517.925	10734.94
518.127	11095.38
518.329	11162.97
518.531	10896.73
518.733	11355.47
518.935	11291.99
519.136	11490.64
519.338	11545.94
519.54	11771.21
519.742	12016.97
519.944	12328.26
520.146	12475.71
520.348	12539.2
520.55	12254.53
520.752	12346.69
520.954	12705.09
521.155	12811.58
521.357	12504.39
521.559	13057.34
521.761	13278.52
521.963	13319.48
522.164	13475.12
522.366	13264.18
522.568	13679.92
522.77	13897
522.971	13739.31
523.173	13632.82
523.375	13942.06
523.576	14087.47
523.778	14220.58
523.98	14392.61
524.181	14638.37
524.383	14601.51
524.584	14501.15
524.786	14576.93
524.988	14669.09
525.189	14888.22
525.391	15179.03
525.592	14689.57
525.794	15119.64
525.995	15160.6
526.197	15136.03
526.398	15158.55
526.6	15527.19
526.801	15439.12
527.003	15359.25
527.204	15514.9
527.406	15897.87
527.607	15883.53
527.808	15777.04
528.01	15699.22
528.211	15987.98
528.412	16454.92
528.614	16190.73
528.815	16157.96
529.016	16514.31
529.218	16375.05
529.419	16575.75
529.62	16272.65
529.822	16749.82
530.023	16547.08
530.224	16502.02
530.425	16669.95
530.626	16475.4
530.828	16465.16
531.029	16964.86
531.23	16944.38
531.431	16866.56
531.632	16844.03
531.833	16798.98
532.035	16753.92
532.236	16831.74
532.437	17313.02
532.638	17020.16
532.839	17011.96
533.04	17227
533.241	17009.92
533.442	17218.81
533.643	17067.26
533.844	17073.4
534.045	17130.75
534.246	17368.31
534.447	17347.83
534.648	17425.65
534.849	17562.87
535.05	17339.64
535.251	17495.29
535.451	17462.52
535.652	17169.66
535.853	17253.62
536.054	17544.44
536.255	17384.69
536.456	17321.21
536.657	17599.73
536.857	17439.99
537.058	17614.07
537.259	17548.53
537.46	17657.07
537.66	17638.64
537.861	17839.34
538.062	17478.9
538.263	17470.71
538.463	17732.85
538.664	17753.33
538.865	17743.09
539.065	17771.76
539.266	17796.34
539.466	17650.93
539.667	17585.4
539.868	17839.34
540.068	17659.12
540.269	17859.82
540.469	17726.71
540.67	17362.17
540.87	17792.24
541.071	17605.88
541.271	17984.75
541.472	17745.14
541.672	18029.8
541.873	18056.43
542.073	17880.3
542.274	18173.16
542.474	17874.16
542.675	18044.14
542.875	18181.35
543.075	17679.6
543.276	17454.33
543.476	18418.92
543.676	17974.51
543.877	17935.6
544.077	18009.33
544.277	18293.99
544.478	17976.56
544.678	17990.89
544.878	17980.65
545.078	18015.47
545.279	17999.09
545.479	17845.49
545.679	18005.23
545.879	18035.95
546.079	18269.42
546.28	17990.89
546.48	17884.4
546.68	18584.8
546.88	18431.21
547.08	18078.96
547.28	18029.8
547.48	17898.73
547.68	18308.33
547.88	17999.09
548.081	17992.94
548.281	17939.69
548.481	17874.16
548.681	18207.98
548.881	18277.61
549.081	18304.23
549.28	18314.47
549.48	18156.78
549.68	18490.6
549.88	18506.98
550.08	18074.86
550.28	18359.53
550.48	18224.36
550.68	18586.85
550.88	18283.75
551.08	18197.74
551.279	18642.15
551.479	18048.24
551.679	18703.59
551.879	18154.73
552.079	18380.01
552.278	18453.73
552.478	18906.34
552.678	18496.74
552.878	18549.99
553.077	18373.86
553.277	18351.34
553.477	18513.13
553.676	18662.63
553.876	18728.16
554.076	18531.56
554.275	18361.58
554.475	18339.05
554.674	18642.15
554.874	18683.11
555.074	18298.09
555.273	18650.34
555.473	18531.56
555.672	18302.18
555.872	18529.51
556.071	18404.58
556.271	18910.43
556.47	18443.49
556.67	18527.46
556.869	18263.27
557.068	18459.88
557.268	18431.21
557.467	18398.44
557.667	18357.48
557.866	18373.86
558.065	18435.3
558.265	18320.62
558.464	18310.38
558.663	18400.49
558.863	17997.04
559.062	18142.44
559.261	17894.64
559.461	18355.43
559.66	17865.97
559.859	18117.87
560.058	17933.55
560.258	18236.65
560.457	18185.45
560.656	18173.16
560.855	17738.99
561.054	18310.38
561.253	18109.68
561.453	18025.71
561.652	18179.31
561.851	18289.9
562.05	17982.7
562.249	17517.81
562.448	17937.65
562.647	17702.13
562.846	17714.42
563.045	18101.48
563.244	17491.19
563.443	18017.52
563.642	17638.64
563.841	17478.9
564.04	17620.21
564.239	17917.17
564.438	17652.98
564.637	17339.64
564.836	17698.03
565.035	17356.02
565.234	17290.49
565.432	17171.71
565.631	17100.03
565.83	17255.67
566.029	16977.15
566.228	16880.89
566.427	17067.26
566.625	16889.09
566.824	17241.34
567.023	17362.17
567.222	16704.77
567.42	16909.57
567.619	16850.17
567.818	16901.37
568.016	17118.46
568.215	16831.74
568.414	17022.2
568.612	17050.88
568.811	16479.49
569.01	16833.79
569.208	16295.18
569.407	16565.51
569.605	16545.03
569.804	16387.33
570.002	16530.69
570.201	16248.07
570.4	16266.5
570.598	16223.5
570.797	16137.48
570.995	15998.22
571.193	16010.51
571.392	16086.28
571.59	15791.38
571.789	15717.65
571.987	15987.98
572.186	16262.41
572.384	15738.13
572.582	15987.98
572.781	16051.47
572.979	15508.76
573.177	15615.25
573.376	15590.67
573.574	15422.74
573.772	15654.16
573.971	15422.74
574.169	15408.4
574.367	15144.22
574.565	15201.56
574.763	15082.78
574.962	15125.79
575.16	15056.15
575.358	15189.27
575.556	15037.72
575.754	15031.58
575.952	15027.48
576.151	15254.81
576.349	14943.52
576.547	14644.51
576.745	14937.37
576.943	14869.79
577.141	14607.65
577.339	14679.33
577.537	14484.77
577.735	14822.69
577.933	14693.66
578.131	14613.79
578.329	14583.07
578.527	14386.47
578.725	14648.61
578.923	14165.29
579.121	14513.44
579.319	14005.55
579.516	14515.49
579.714	14267.69
579.912	14165.29
580.11	14118.18
580.308	14275.88
580.506	14243.11
580.704	13509.94
580.901	14173.48
581.099	14288.17
581.297	14134.57
581.495	13890.86
581.692	14210.34
581.89	14325.03
582.088	13905.2
582.285	13974.83
582.483	13884.72
582.681	13966.63
582.878	13876.52
583.076	13753.65
583.274	13880.62
583.471	13837.61
583.669	13751.6
583.866	13554.99
584.064	13868.33
584.262	13698.35
584.459	13589.81
584.657	13602.1
584.854	13669.68
585.052	13413.68
585.249	13589.81
585.447	13440.31
585.644	13200.69
585.841	13808.94
586.039	13511.99
586.236	13038.91
586.434	13395.25
586.631	13245.75
586.828	13239.61
587.026	12983.61
587.223	13231.41
587.42	13131.06
587.618	13425.97
587.815	13051.19
588.012	13352.24
588.21	12916.03
588.407	13129.02
588.604	13063.48
588.801	12924.22
588.999	13159.74
589.196	12899.64
589.393	12817.72
589.59	13190.45
589.787	13165.88
589.984	12778.81
590.182	12696.89
590.379	12991.8
590.576	12844.35
590.773	12762.43
590.97	12576.06
591.167	13296.95
591.364	13120.82
591.561	12782.91
591.758	12823.87
591.955	12774.72
592.152	12817.72
592.349	12651.84
592.546	12483.91
592.743	12696.89
592.94	12672.32
593.137	12772.67
593.334	12725.57
593.531	12768.57
593.727	12832.06
593.924	12645.7
594.121	12393.79
594.318	12614.98
594.515	12612.93
594.712	12967.23
594.908	12657.98
595.105	12567.87
595.302	12457.28
595.499	12430.66
595.696	12678.46
595.892	12543.3
596.089	12451.14
596.286	12528.96
596.482	12477.76
596.679	12578.11
596.876	12340.55
597.072	12504.39
597.269	12375.36
597.466	12252.49
597.662	12586.3
597.859	12297.54
598.055	12574.02
598.252	12453.19
598.448	12690.75
598.645	12381.51
598.841	12219.72
599.038	12670.27
599.234	12711.23
599.431	12154.18
599.627	12289.35
599.824	12625.22
600.02	12211.53
600.217	12100.94
600.413	12444.99
600.609	12518.72
600.806	12756.29
601.002	12426.56
601.198	11990.35
601.395	12569.92
601.591	12500.29
601.787	12240.2
601.984	12283.2
602.18	12799.29
602.376	12246.34
602.572	12334.4
602.769	12342.6
602.965	12369.22
603.161	12428.61
603.357	12168.52
603.553	12416.32
603.75	12412.23
603.946	12191.05
604.142	12350.79
604.338	12039.5
604.534	12344.64
604.73	12406.08
604.926	12047.69
605.122	12277.06
605.318	12107.08
605.514	12232.01
605.71	12084.55
605.906	12180.81
606.102	11957.58
606.298	12506.43
606.494	12311.88
606.69	12135.75
606.886	12252.49
607.082	12232.01
607.278	12094.79
607.474	12057.93
607.67	12193.09
607.866	11840.84
608.062	12272.96
608.257	12000.58
608.453	12272.96
608.649	12289.35
608.845	12084.55
609.041	11836.75
609.236	12307.78
609.432	12229.96
609.628	12039.5
609.824	12094.79
610.019	12070.22
610.215	12074.31
610.411	12084.55
610.606	11912.52
610.802	12113.22
610.998	12244.29
611.193	12174.66
611.389	12027.21
611.584	12098.89
611.78	12070.22
611.976	11935.05
612.171	12307.78
612.367	12199.24
612.562	12158.28
612.758	11877.71
612.953	11752.78
613.149	11914.57
613.344	12006.73
613.539	12121.42
613.735	11885.9
613.93	11978.06
614.126	11926.86
614.321	11873.61
614.517	11846.99
614.712	12002.63
614.907	11994.44
615.103	12006.73
615.298	11885.9
615.493	11863.37
615.688	11484.5
615.884	12166.47
616.079	11597.14
616.274	12076.36
616.47	11621.71
616.665	11736.4
616.86	11773.26
617.055	11908.43
617.25	11760.97
617.445	11844.94
617.641	11400.53
617.836	11822.41
618.031	11529.55
618.226	11787.6
618.421	11799.88
618.616	11803.98
618.811	11711.82
619.006	11599.18
619.201	11490.64
619.396	11965.77
619.591	11425.11
619.786	11767.12
619.981	11328.85
620.176	11689.29
620.371	11449.68
620.566	11312.47
620.761	11541.84
620.956	11533.65
621.151	11410.77
621.346	11533.65
621.541	11140.44
621.735	11806.03
621.93	11545.94
622.125	11208.02
622.32	10868.06
622.515	11091.29
622.709	11228.5
622.904	11406.67
623.099	10935.64
623.294	11248.98
623.488	11222.36
623.683	11019.61
623.878	11009.37
624.072	11310.42
624.267	10886.49
624.462	10902.87
624.656	10896.73
624.851	11246.93
625.046	10777.95
625.24	10732.89
625.435	10661.21
625.629	10886.49
625.824	10872.15
626.018	10667.36
626.213	10605.92
626.407	10745.18
626.602	10456.42
626.796	10769.76
626.991	10521.95
627.185	10429.79
627.38	10528.1
627.574	10403.17
627.768	10333.54
627.963	10319.2
628.157	10610.01
628.352	10360.16
628.546	10108.26
628.74	10528.1
628.935	10138.98
629.129	10468.7
629.323	10460.51
629.517	10161.51
629.712	10173.8
629.906	10225
630.1	10153.32
630.294	10253.67
630.489	10151.27
630.683	10175.84
630.877	9866.6
631.071	10098.02
631.265	10063.21
631.459	10012.01
631.653	9889.13
631.848	10163.56
632.042	9772.39
632.236	9887.08
632.43	9831.79
632.624	9796.97
632.818	9958.76
633.012	9661.8
633.206	9686.38
633.4	9756.01
633.594	9753.96
633.788	9567.6
633.982	9616.75
634.176	9835.88
634.369	9579.89
634.563	9362.8
634.757	9370.99
634.951	9512.3
635.145	9696.62
635.339	9452.91
635.533	9368.95
635.726	9350.51
635.92	9190.77
636.114	9223.54
636.308	8947.06
636.501	9145.72
636.695	9235.83
636.889	8818.04
637.083	8834.43
637.276	8959.35
637.47	8467.84
637.664	8568.19
637.857	8729.98
638.051	8623.48
638.244	8832.38
638.438	8598.91
638.632	8416.64
638.825	8377.73
639.019	8562.05
639.212	8365.44
639.406	8347.01
639.599	8240.51
639.793	8213.89
639.986	7953.8
640.18	8000.9
640.373	8156.55
640.567	7839.11
640.76	7849.35
640.954	7908.74
641.147	7681.42
641.34	7628.17
641.534	7681.42
641.727	7503.25
641.92	7751.05
642.114	7306.64
642.307	7370.13
642.5	7409.04
642.694	7150.99
642.887	7099.8
643.08	7269.78
643.273	7107.99
643.467	6981.01
643.66	6745.5
643.853	6686.11
644.046	6690.2
644.239	6921.62
644.432	6542.75
644.626	6409.63
644.819	6237.6
645.012	6507.93
645.205	6598.04
645.398	6495.64
645.591	6436.25
645.784	6225.31
645.977	6170.02
646.17	6178.21
646.363	5987.75
646.556	6043.04
646.749	5893.54
646.942	5932.45
647.135	6053.28
647.328	5739.94
647.521	5922.21
647.714	5617.07
647.907	5623.21
648.099	5504.43
648.292	6012.32
648.485	5698.99
648.678	5490.09
648.871	5645.74
649.064	5375.41
649.256	5305.78
649.449	5344.69
649.642	5209.52
649.835	5342.64
650.027	5084.59
650.22	5336.49
650.413	5436.85
650.605	5406.13
650.798	5068.21
650.991	4928.95
651.183	5148.08
651.376	5068.21
651.568	5080.5
651.761	4830.65
651.954	5170.61
652.146	4900.28
652.339	4953.52
652.531	4974
652.724	4879.8
652.916	4718.01
653.109	4570.55
653.301	4933.04
653.494	4961.72
653.686	4787.64
653.879	4758.97
654.071	4685.24
654.263	4601.27
654.456	4611.51
654.648	4652.47
654.84	4466.11
655.033	4605.37
655.225	4709.82
655.417	4218.3
655.61	4365.76
655.802	4541.88
655.994	4699.58
656.186	4230.59
656.379	4261.31
656.571	4357.57
656.763	4300.22
656.955	4246.98
657.148	4126.15
657.34	4478.4
657.532	4244.93
657.724	4062.66
657.916	4023.75
658.108	4242.88
658.3	4246.98
658.492	4152.77
658.684	3792.33
658.876	4191.68
659.068	3823.05
659.26	3880.39
659.452	3755.46
659.644	4021.7
659.836	4128.19
660.028	3667.4
660.22	3718.6
660.412	3786.18
660.604	3728.84
660.796	3644.87
660.988	3597.77
661.18	3784.13
661.372	3675.59
661.563	3427.79
661.755	3329.49
661.947	3526.09
662.139	3458.51
662.331	3470.8
662.522	3261.9
662.714	3321.29
662.906	3327.44
663.097	3198.42
663.289	3091.92
663.481	3212.75
663.673	3321.29
663.864	3171.79
664.056	3061.2
664.247	3001.81
664.439	3421.64
664.631	2932.18
664.822	3057.11
665.014	3145.17
665.205	2954.71
665.397	2868.69
665.588	2862.55
665.78	2790.87
665.971	3126.74
666.163	2749.91
666.354	2622.94
666.546	2762.2
666.737	2840.02
666.929	2659.8
667.12	2647.51
667.311	2751.96
667.503	2655.7
667.694	2670.04
667.885	2569.69
668.077	2809.3
668.268	2368.99
668.459	2545.11
668.651	2530.78
668.842	2485.72
669.033	2393.56
669.224	2307.55
669.416	2637.27
669.607	2405.85
669.798	2348.51
669.989	2203.1
670.18	2291.17
670.371	2461.15
670.563	2211.29
670.754	2221.53
670.945	2229.73
671.136	2592.22
671.327	2112.99
671.518	2330.08
671.709	2147.81
671.9	2336.22
672.091	2463.19
672.282	2110.94
672.473	2149.86
672.664	2262.49
672.855	2158.05
673.046	2057.7
673.237	2125.28
673.428	2160.1
673.619	2309.6
673.809	2035.17
674	1988.07
674.191	2332.12
674.382	2260.45
674.573	1947.11
674.764	1992.16
674.954	2276.83
675.145	2051.55
675.336	1916.39
675.527	1906.15
675.717	1981.92
675.908	1953.25
676.099	1879.52
676.289	1998.31
676.48	1850.85
676.671	2018.79
676.861	1953.25
677.052	1840.61
677.243	1996.26
677.433	1859.04
677.624	2006.5
677.814	1889.76
678.005	1943.01
678.195	2287.07
678.386	1910.24
678.576	1932.77
678.767	1822.18
678.957	2045.41
679.148	2059.74
679.338	2051.55
679.529	2059.74
679.719	1965.54
679.909	2031.07
680.1	1961.44
680.29	2127.33
680.481	1850.85
680.671	1953.25
680.861	1818.08
681.052	2102.75
681.242	2002.4
681.432	2026.98
681.622	2004.45
681.813	1836.52
682.003	2053.6
682.193	1893.86
682.383	1998.31
682.573	2112.99
682.764	1930.72
682.954	2041.31
683.144	2196.96
683.334	2115.04
683.524	2299.36
683.714	2082.27
683.904	2225.63
684.094	2231.77
684.284	2192.86
684.474	2397.66
684.664	2254.3
684.854	2338.27
685.044	2348.51
685.234	2358.75
685.424	2368.99
685.614	2309.6
685.804	2762.2
685.994	2299.36
686.184	2463.19
686.374	2696.66
686.564	2551.26
686.753	2618.84
686.943	2518.49
687.133	2598.36
687.323	2600.41
687.513	2713.05
687.702	2670.04
687.892	2749.91
688.082	2905.56
688.272	2715.09
688.461	2794.97
688.651	3065.3
688.841	3081.68
689.03	2848.21
689.22	2930.13
689.41	3345.87
689.599	3106.26
689.789	3053.01
689.979	3456.46
690.168	3325.39
690.358	3472.84
690.547	3231.18
690.737	3450.32
690.926	3548.62
691.116	3657.16
691.305	3550.67
691.495	3558.86
691.684	3605.96
691.874	3689.93
692.063	3687.88
692.252	3595.72
692.442	3913.16
692.631	3911.11
692.82	3755.46
693.01	4144.58
693.199	3984.84
693.388	4165.06
693.578	4076.99
693.767	4214.21
693.956	4365.76
694.146	4283.84
694.335	4267.45
694.524	4341.18
694.713	4619.71
694.902	4396.48
695.092	4511.16
695.281	4527.55
695.47	4644.28
695.659	4580.79
695.848	4484.54
696.037	4560.31
696.226	4826.55
696.415	4806.07
696.604	4914.61
696.793	4838.84
696.982	5035.44
697.171	5150.13
697.36	4890.04
697.549	4761.02
697.738	4941.24
697.927	5002.68
698.116	4816.31
698.305	4928.95
698.494	5252.53
698.683	5203.38
698.872	5127.6
699.061	5084.59
699.25	5232.05
699.438	5221.81
699.627	5174.71
699.816	5371.31
700.005	5172.66
700.193	5395.89
700.382	5361.07
700.571	5291.44
700.76	5514.67
700.948	5612.97
701.137	5340.59
701.326	5594.54
701.514	5500.33
701.703	5719.46
701.892	5377.45
702.08	5461.42
702.269	5662.12
702.457	5582.25
702.646	5451.18
702.834	5526.96
703.023	5698.99
703.212	5873.06
703.4	5592.49
703.589	5449.13
703.777	5684.65
703.965	5488.04
704.154	5649.83
704.342	5660.07
704.531	5797.29
704.719	5678.51
704.907	5698.99
705.096	5563.82
705.284	5809.58
705.472	5762.47
705.661	5655.98
705.849	5617.07
706.037	5993.89
706.226	5715.37
706.414	5735.85
706.602	5422.51
706.79	5899.69
706.979	5805.48
707.167	5604.78
707.355	5457.32
707.543	5653.93
707.731	5770.66
707.919	5756.33
708.107	5545.39
708.296	5793.19
708.484	5608.87
708.672	5686.7
708.86	5676.46
709.048	5764.52
709.236	5498.28
709.424	5586.35
709.612	5653.93
709.8	5641.64
709.988	5854.63
710.176	5719.46
710.364	5791.14
710.551	5635.5
710.739	5651.88
710.927	5549.48
711.115	5782.95
711.303	5563.82
711.491	5756.33
711.679	5424.56
711.866	5545.39
712.054	5764.52
712.242	5664.17
712.43	5809.58
712.617	5567.92
712.805	5848.49
712.993	5631.4
713.181	5342.64
713.368	5535.15
713.556	5785
713.744	5369.26
713.931	5539.24
714.119	5309.87
714.306	5555.63
714.494	5465.52
714.682	5426.61
714.869	5180.85
715.057	5576.11
715.244	5250.48
715.432	5428.65
715.619	5270.96
715.807	5506.48
715.994	5340.59
716.182	5307.82
716.369	5313.97
716.556	5479.85
716.744	5088.69
716.931	5256.62
717.119	5328.3
717.306	5316.01
717.493	5356.97
717.681	5080.5
717.868	5086.64
718.055	5135.79
718.242	5143.99
718.43	4996.53
718.617	4994.48
718.804	5070.26
718.991	5176.75
719.179	4857.27
719.366	4744.63
719.553	4996.53
719.74	4871.61
719.927	4879.8
720.114	4906.42
720.301	4842.93
720.488	4783.54
720.676	4541.88
720.863	4865.46
721.05	5217.71
721.237	5070.26
721.424	4832.69
721.611	4619.71
721.798	4730.3
721.985	4468.16
722.172	4636.09
722.358	4650.43
722.545	4945.33
722.732	4898.23
722.919	4789.69
723.106	4609.47
723.293	4617.66
723.48	4629.95
723.667	4627.9
723.853	4597.18
724.04	4801.97
724.227	4834.74
724.414	4330.94
724.6	4406.72
724.787	4789.69
724.974	4875.7
725.161	4552.12
725.347	4220.35
725.534	4572.6
725.72	4484.54
725.907	4552.12
726.094	4513.21
726.28	4357.57
726.467	4277.69
726.653	4222.4
726.84	4253.12
727.027	4691.38
727.213	4388.29
727.4	4517.31
727.586	4175.3
727.773	4351.42
727.959	4351.42
728.145	4242.88
728.332	4052.42
728.518	4173.25
728.705	4378.05
728.891	4076.99
729.077	4056.51
729.264	4038.08
729.45	4124.1
729.636	4169.15
729.823	4095.43
730.009	4322.75
730.195	4191.68
730.382	4177.34
730.568	3964.36
730.754	4244.93
730.94	4087.23
731.126	3970.5
731.313	3821
731.499	4068.8
731.685	4167.1
731.871	3990.98
732.057	4109.76
732.243	4103.62
732.429	3974.6
732.615	4068.8
732.801	3839.43
732.987	4044.23
733.173	3904.96
733.359	3745.22
733.545	3982.79
733.731	3943.88
733.917	4128.19
734.103	3796.42
734.289	3872.2
734.475	3808.71
734.661	4068.8
734.847	3841.48
735.033	3628.49
735.219	3851.72
735.404	3728.84
735.59	3677.64
735.776	3700.17
735.962	3710.41
736.148	3814.85
736.333	3700.17
736.519	3519.95
736.705	3640.78
736.89	3700.17
737.076	3345.87
737.262	3544.52
737.447	3507.66
737.633	3640.78
737.819	3565
738.004	3425.74
738.19	3632.58
738.375	3644.87
738.561	3526.09
738.747	3417.55
738.932	3378.64
739.118	3782.09
739.303	3505.61
739.489	3251.66
739.674	3429.84
739.859	3243.47
740.045	3300.81
740.23	3302.86
740.416	3120.59
740.601	3423.69
740.786	3182.03
740.972	3190.22
741.157	3304.91
741.342	3061.2
741.528	3175.89
741.713	3313.1
741.898	3208.66
742.084	3243.47
742.269	3134.93
742.454	3141.07
742.639	3497.42
742.824	3233.23
743.01	3208.66
743.195	3268.05
743.38	3280.33
743.565	3091.92
743.75	3102.16
743.935	3034.58
744.12	3298.77
744.305	2893.27
744.49	2948.56
744.675	2860.5
744.86	3010
745.045	3044.82
745.23	2885.08
745.415	2889.17
745.6	3284.43
745.785	2788.82
745.97	2926.04
746.155	2794.97
746.34	3073.49
746.525	2790.87
746.71	2809.3
746.895	2682.33
747.079	2776.53
747.264	2854.36
747.449	2803.16
747.634	2708.95
747.819	2950.61
748.003	2600.41
748.188	2665.94
748.373	2674.14
748.557	2696.66
748.742	2708.95
748.927	2651.61
749.111	2487.77
749.296	2667.99
749.481	2684.38
749.665	2627.03
749.85	2549.21
750.034	2719.19
750.219	2680.28
750.404	2430.43
750.588	2399.71
750.773	2471.39
750.957	2420.19
751.141	2352.6
751.326	2459.1
751.51	2358.75
751.695	2547.16
751.879	2366.94
752.064	2530.78
752.248	2412
752.432	2543.07
752.617	2266.59
752.801	2438.62
752.985	2364.89
753.17	2651.61
753.354	2270.69
753.538	2207.2
753.722	2186.72
753.907	2053.6
754.091	2149.86
754.275	2143.71
754.459	2217.44
754.643	2129.38
754.828	2082.27
755.012	2047.46
755.196	2045.41
755.38	2186.72
755.564	1981.92
755.748	2026.98
755.932	2336.22
756.116	2317.79
756.3	2059.74
756.484	2092.51
756.668	2211.29
756.852	1850.85
757.036	1973.73
757.22	1973.73
757.404	1871.33
757.588	2014.69
757.772	2022.88
757.956	1945.06
758.14	2178.53
758.323	1873.38
758.507	1947.11
758.691	1762.79
758.875	2031.07
759.059	2115.04
759.242	1668.58
759.426	1832.42
759.61	1904.1
759.794	1574.38
759.977	1740.26
760.161	2088.42
760.345	1865.19
760.528	1644.01
760.712	1525.22
760.895	1502.7
761.079	1467.88
761.263	1381.87
761.446	1385.96
761.63	1287.66
761.813	1551.85
761.997	1422.83
762.18	1414.63
762.364	1508.84
762.547	1193.45
762.731	1345
762.914	1365.48
763.098	1320.43
763.281	1408.49
763.464	1373.68
763.648	1283.56
763.831	1355.24
764.015	1480.17
764.198	1416.68
764.381	1379.82
764.564	1310.19
764.748	1486.31
764.931	1584.62
765.114	1283.56
765.297	1385.96
765.481	1424.87
765.664	1398.25
765.847	1400.3
766.03	1437.16
766.213	1422.83
766.397	1467.88
766.58	1357.29
766.763	1519.08
766.946	1545.7
767.129	1549.8
767.312	1467.88
767.495	1469.93
767.678	1555.94
767.861	1631.72
768.044	1416.68
768.227	1586.66
768.41	1564.14
768.593	1594.86
768.776	1672.68
768.959	1506.79
769.142	1693.16
769.324	1631.72
769.507	1469.93
769.69	1478.12
769.873	1596.9
770.056	1848.8
770.239	1433.07
770.421	1615.34
770.604	1721.83
770.787	1476.07
770.97	1506.79
771.152	1428.97
771.335	1611.24
771.518	1361.39
771.7	1379.82
771.883	1474.03
772.066	1512.94
772.248	1646.05
772.431	1547.75
772.613	1562.09
772.796	1605.1
772.978	1615.34
773.161	1422.83
773.343	1435.11
773.526	1478.12
773.708	1310.19
773.891	1230.32
774.073	1471.98
774.256	1431.02
774.438	1676.77
774.621	1240.56
774.803	1324.52
774.985	1408.49
775.168	1480.17
775.35	1365.48
775.532	1381.87
775.715	1353.2
775.897	1537.51
776.079	1433.07
776.261	1373.68
776.444	1392.11
776.626	1293.8
776.808	1291.76
776.99	1254.89
777.173	1402.35
777.355	1385.96
777.537	1295.85
777.719	1211.89
777.901	1345
778.083	1324.52
778.265	1193.45
778.447	1254.89
778.629	1228.27
778.811	1250.8
778.993	1238.51
779.175	1238.51
779.357	1230.32
779.539	1093.1
779.721	1213.93
779.903	1330.67
780.085	1183.21
780.267	1222.13
780.449	1168.88
780.631	1244.65
780.812	1410.54
780.994	1105.39
781.176	1150.45
781.358	1046
781.54	1222.13
781.721	1277.42
781.903	1091.06
782.085	1080.82
782.267	1281.52
782.448	1080.82
782.63	1134.06
782.812	1021.42
782.993	1230.32
783.175	1177.07
783.357	1009.14
783.538	1154.54
783.72	927.22
783.901	1164.78
784.083	1099.25
784.264	1148.4
784.446	882.16
784.627	937.46
784.809	1029.62
784.99	894.45
785.172	1000.94
785.353	1007.09
785.535	939.51
785.716	822.77
785.897	927.22
786.079	955.89
786.26	900.59
786.441	1043.95
786.623	890.35
786.804	871.92
786.985	841.2
787.167	804.34
787.348	994.8
787.529	972.27
787.71	957.94
787.891	890.35
788.073	929.27
788.254	685.56
788.435	1005.04
788.616	796.15
788.797	738.8
788.978	943.6
789.159	814.58
789.34	826.87
789.522	843.25
789.703	796.15
789.884	720.37
790.065	867.83
790.246	1101.3
790.427	757.24
790.607	966.13
790.788	824.82
790.969	800.24
791.15	878.07
791.331	726.52
791.512	804.34
791.693	679.41
791.874	660.98
792.054	896.5
792.235	835.06
792.416	581.11
792.597	624.12
792.778	818.68
792.958	669.17
793.139	814.58
793.32	785.91
793.5	593.4
793.681	720.37
793.862	873.97
794.042	753.14
794.223	458.23
794.404	587.26
794.584	574.97
794.765	716.28
794.945	706.04
795.126	765.43
795.306	779.76
795.487	804.34
795.667	556.54
795.848	650.74
796.028	673.27
796.209	660.98
796.389	732.66
796.57	652.79
796.75	591.35
796.93	722.42
797.111	550.39
797.291	552.44
797.471	804.34
797.652	650.74
797.832	540.15
798.012	654.84
798.192	636.41
798.373	470.52
798.553	482.81
798.733	656.89
798.913	491
799.093	486.9
799.274	589.3
799.454	636.41
799.634	796.15
799.814	816.63
799.994	689.65
800.174	656.89
800.354	665.08
800.534	419.32
800.714	620.02
800.894	427.51
801.074	527.86
801.254	568.82
801.434	716.28
801.614	427.51
801.794	435.71
801.974	5199.28
802.154	482.81
802.334	609.78
802.514	531.96
802.693	583.16
802.873	398.84
803.053	673.27
803.233	626.17
803.413	587.26
803.592	413.18
803.772	427.51
803.952	589.3
804.131	304.64
804.311	628.21
804.491	585.21
804.67	519.67
804.85	421.37
805.03	560.63
805.209	632.31
805.389	521.72
805.568	546.3
805.748	554.49
805.928	409.08
806.107	642.55
806.287	581.11
806.466	550.39
806.646	439.8
806.825	509.43
807.004	368.12
807.184	568.82
807.363	570.87
807.543	638.45
807.722	368.12
807.901	611.83
808.081	538.1
808.26	339.45
808.439	505.34
808.619	441.85
808.798	374.27
808.977	595.45
809.156	689.65
809.336	464.38
809.515	419.32
809.694	396.79
809.873	411.13
810.052	376.31
810.231	636.41
810.411	505.34
810.59	597.49
810.769	417.27
810.948	540.15
811.127	261.63
811.306	370.17
811.485	400.89
811.664	458.23
811.843	529.91
812.022	495.1
812.201	431.61
812.38	335.35
812.559	382.46
812.737	523.77
812.916	306.68
813.095	323.07
813.274	501.24
813.453	443.9
813.632	316.92
813.811	497.14
813.989	337.4
814.168	501.24
814.347	159.23
814.526	284.16
814.704	595.45
814.883	564.73
815.062	177.66
815.24	394.75
815.419	292.35
815.598	466.42
815.776	187.9
815.955	292.35
816.133	153.09
816.312	413.18
816.49	314.88
816.669	335.35
816.847	417.27
817.026	472.57
817.204	341.5
817.383	257.53
817.561	251.39
817.74	480.76
817.918	355.83
818.097	196.09
818.275	251.39
818.453	531.96
818.632	361.98
818.81	302.59
818.988	337.4
819.167	306.68
819.345	302.59
819.523	253.44
819.701	445.95
819.879	484.86
820.058	423.42
820.236	273.92
820.414	437.75
820.592	376.31
820.77	316.92
820.948	235
821.127	351.74
821.305	470.52
821.483	155.13
821.661	331.26
821.839	419.32
822.017	157.18
822.195	239.1
822.373	316.92
822.551	370.17
822.729	417.27
822.907	222.72
823.085	364.03
823.262	359.93
823.44	273.92
823.618	282.11
823.796	245.24
823.974	302.59
824.152	308.73
824.329	200.19
824.507	228.86
824.685	527.86
824.863	327.16
825.04	275.96
825.218	245.24
825.396	349.69
825.574	284.16
825.751	255.48
825.929	251.39
826.107	267.77
826.284	413.18
826.462	235
826.639	261.63
826.817	222.72
826.994	353.79
827.172	138.75
827.349	325.12
827.527	341.5
827.704	269.82
827.882	409.08
828.059	194.05
828.237	259.58
828.414	474.62
828.591	71.17
828.769	216.57
828.946	273.92
829.124	415.23
829.301	337.4
829.478	241.15
829.655	345.59
829.833	368.12
830.01	-59.9
830.187	359.93
830.364	347.64
830.542	282.11
830.719	288.25
830.896	300.54
831.073	271.87
831.25	359.93
831.427	230.91
831.604	308.73
831.782	298.49
831.959	351.74
832.136	267.77
832.313	280.06
832.49	255.48
832.667	292.35
832.844	110.08
833.021	458.23
833.198	417.27
833.374	282.11
833.551	204.28
833.728	194.05
833.905	364.03
834.082	142.85
834.259	269.82
834.436	284.16
834.612	212.48
834.789	462.33
834.966	212.48
835.143	247.29
835.319	128.51
835.496	273.92
835.673	140.8
835.85	251.39
836.026	359.93
836.203	390.65
836.38	146.94
836.556	144.89
836.733	206.33
836.909	503.29
837.086	218.62
837.262	75.26
837.439	286.2
837.616	267.77
837.792	177.66
837.968	153.09
838.145	-53.76
838.321	237.05
838.498	181.76
838.674	372.22
838.851	335.35
839.027	232.96
839.203	261.63
839.38	275.96
839.556	247.29
839.732	441.85
839.909	110.08
840.085	202.24
840.261	212.48
840.437	353.79
840.614	196.09
840.79	306.68
840.966	417.27
841.142	288.25
841.318	290.3
841.494	140.8
841.671	364.03
841.847	75.26
842.023	144.89
842.199	263.68
842.375	486.9
842.551	87.55
842.727	91.65
842.903	327.16
843.079	126.46
843.255	400.89
843.431	163.33
843.607	318.97
843.783	1.54
843.959	331.26
844.134	165.37
844.31	286.2
844.486	140.8
844.662	112.13
844.838	247.29
845.013	228.86
845.189	374.27
845.365	300.54
845.541	81.41
845.716	194.05
845.892	421.37
846.068	198.14
846.244	138.75
846.419	177.66
846.595	144.89
846.77	142.85
846.946	327.16
847.122	196.09
847.297	159.23
847.473	507.38
847.648	48.64
847.824	159.23
847.999	-41.47
848.175	261.63
848.35	327.16
848.526	327.16
848.701	425.47
848.876	361.98
849.052	370.17
849.227	171.52
849.403	257.53
849.578	210.43
849.753	226.81
849.929	103.93
850.104	46.59
850.279	251.39
850.454	269.82
850.63	198.14
850.805	255.48
850.98	261.63
851.155	126.46
851.33	230.91
851.505	155.13
851.681	359.93
851.856	148.99
852.031	243.2
852.206	237.05
852.381	136.7
852.556	118.27
852.731	81.41
852.906	325.12
853.081	275.96
853.256	304.64
853.431	103.93
853.606	161.28
853.781	54.78
853.956	42.5
854.131	144.89
854.305	126.46
854.48	208.38
854.655	65.02
854.83	112.13
855.005	140.8
855.18	271.87
855.354	157.18
855.529	173.57
855.704	114.17
855.879	327.16
856.053	46.59
856.228	120.32
856.403	138.75
856.577	271.87
856.752	11.78
856.926	95.74
857.101	312.83
857.276	112.13
857.45	192
857.625	216.57
857.799	259.58
857.974	50.69
858.148	22.02
858.323	189.95
858.497	185.85
858.672	36.35
858.846	50.69
859.02	103.93
859.195	79.36
859.369	161.28
859.543	153.09
859.718	196.09
859.892	333.31
860.066	226.81
860.241	50.69
860.415	97.79
860.589	261.63
860.763	185.85
860.938	138.75
861.112	99.84
861.286	187.9
861.46	241.15
861.634	216.57
861.808	222.72
861.982	9.73
862.157	112.13
862.331	46.59
862.505	30.21
862.679	-18.94
862.853	112.13
863.027	171.52
863.201	202.24
863.375	136.7
863.549	271.87
863.722	165.37
863.896	194.05
864.07	226.81
864.244	177.66
864.418	224.76
864.592	159.23
864.766	204.28
864.939	202.24
865.113	65.02
865.287	157.18
865.461	144.89
865.634	194.05
865.808	171.52
865.982	153.09
866.156	54.78
866.329	-45.57
866.503	208.38
866.676	122.37
866.85	251.39
867.024	136.7
867.197	224.76
867.371	114.17
867.544	241.15
867.718	-18.94
867.891	273.92
868.065	-18.94
868.238	222.72
868.412	314.88
868.585	163.33
868.759	165.37
868.932	185.85
869.105	-27.14
869.279	259.58
869.452	32.26
869.625	300.54
869.799	108.03
869.972	-2.56
870.145	101.89
870.319	304.64
870.492	136.7
870.665	-2.56
870.838	-2.56
871.011	-66.05
871.185	300.54
871.358	132.61
871.531	302.59
871.704	134.65
871.877	243.2
872.05	128.51
872.223	-6.66
872.396	421.37
872.569	257.53
872.742	-8.7
872.915	187.9
873.088	118.27
873.261	71.17
873.434	251.39
873.607	118.27
873.78	370.17
873.953	-47.62
874.126	116.22
874.299	103.93
874.471	132.61
874.644	163.33
874.817	177.66
874.99	278.01
875.163	134.65
875.335	216.57
875.508	65.02
875.681	220.67
875.853	218.62
876.026	187.9
876.199	245.24
876.371	62.98
876.544	165.37
876.717	228.86
876.889	171.52
877.062	202.24
877.234	44.54
877.407	112.13
877.579	95.74
877.752	192
877.924	278.01
878.097	253.44
878.269	97.79
878.442	148.99
878.614	226.81
878.786	192
878.959	89.6
879.131	132.61
879.303	-12.8
879.476	122.37
879.648	177.66
879.82	56.83
879.993	108.03
880.165	140.8
880.337	-47.62
880.509	67.07
880.681	-53.76
880.854	32.26
881.026	179.71
881.198	198.14
881.37	116.22
881.542	210.43
881.714	136.7
881.886	11.78
882.058	187.9
882.23	185.85
882.402	56.83
882.574	173.57
882.746	316.92
882.918	292.35
883.09	185.85
883.262	124.41
883.434	200.19
883.606	-20.99
883.778	73.21
883.95	187.9
884.122	110.08
884.293	294.4
884.465	148.99
884.637	167.42
884.809	171.52
884.98	316.92
885.152	235
885.324	163.33
885.496	40.45
885.667	122.37
885.839	140.8
886.011	159.23
886.182	202.24
886.354	308.73
886.525	108.03
886.697	-10.75
886.869	81.41
887.04	130.56
887.212	273.92
887.383	284.16
887.555	165.37
887.726	73.21
887.897	71.17
888.069	134.65
888.24	390.65
888.412	245.24
888.583	144.89
888.754	32.26
888.926	-59.9
889.097	110.08
889.268	-4.61
889.44	-6.66
889.611	-92.67
889.782	26.11
889.953	-2.56
890.125	140.8
890.296	56.83
890.467	192
890.638	44.54
890.809	65.02
890.98	146.94
891.151	216.57
891.323	230.91
891.494	-0.51
891.665	155.13
891.836	169.47
892.007	165.37
892.178	142.85
892.349	271.87
892.52	105.98
892.691	144.89
892.862	136.7
893.032	1.54
893.203	126.46
893.374	91.65
893.545	171.52
893.716	81.41
893.887	237.05
894.057	62.98
894.228	128.51
894.399	105.98
894.57	316.92
894.74	138.75
894.911	169.47
895.082	144.89
895.253	140.8
895.423	183.81
895.594	202.24
895.764	210.43
895.935	40.45
896.106	157.18
896.276	60.93
896.447	224.76
896.617	28.16
896.788	7.68
896.958	97.79
897.129	17.92
897.299	62.98
897.47	318.97
897.64	83.45
897.81	126.46
897.981	189.95
898.151	-29.18
898.322	112.13
898.492	253.44
898.662	22.02
898.832	101.89
899.003	93.69
899.173	267.77
899.343	-18.94
899.513	-0.51
