Data from USB4F104151__14__11-55-41-743.txt Node

Date: Wed Feb 19 11:55:41 EST 2025
User: louis
Spectrometer: USB4F10415
Trigger mode: 4
Integration Time (sec): 2.250200E-1
Scans to average: 1
Electric dark correction enabled: true
Nonlinearity correction enabled: false
Boxcar width: 0
XAxis mode: Wavelengths
Number of Pixels in Spectrum: 3648
>>>>>Begin Spectral Data<<<<<
178.204	-790.35
178.424	-790.35
178.644	-790.35
178.864	-773.96
179.084	-786.25
179.304	82.09
179.524	121
179.744	0.17
179.964	-208.72
180.184	247.97
180.404	118.95
180.624	-257.87
180.844	-42.84
181.064	71.85
181.283	77.99
181.503	-159.57
181.723	-51.03
181.943	-12.12
182.163	471.2
182.383	-284.5
182.602	-98.13
182.822	393.38
183.042	217.26
183.262	-214.87
183.482	-229.2
183.701	147.62
183.921	329.89
184.141	-126.8
184.361	-81.75
184.58	247.97
184.8	290.98
185.02	-204.63
185.239	-44.88
185.459	198.82
185.679	417.96
185.898	-241.49
186.118	-151.38
186.338	202.92
186.557	348.33
186.777	-145.24
186.997	-229.2
187.216	135.34
187.436	520.35
187.655	-114.52
187.875	-59.22
188.095	215.21
188.314	397.48
188.534	-75.6
188.753	-208.72
188.973	358.57
189.192	495.78
189.412	-208.72
189.631	-190.29
189.851	358.57
190.07	530.59
190.29	-186.19
190.509	-153.43
190.729	215.21
190.948	344.23
191.168	-38.74
191.387	-104.28
191.607	176.3
191.826	280.74
192.045	-106.32
192.265	-169.81
192.484	282.79
192.704	204.97
192.923	-153.43
193.142	32.94
193.362	315.56
193.581	430.24
193.8	-104.28
194.02	-126.8
194.239	182.44
194.458	348.33
194.678	-63.32
194.897	-202.58
195.116	284.84
195.335	266.41
195.555	-122.71
195.774	-198.48
195.993	362.66
196.212	180.39
196.432	-173.91
196.651	-137.04
196.87	225.45
197.089	518.31
197.308	-210.77
197.528	-71.51
197.747	53.42
197.966	245.93
198.185	-18.26
198.404	-182.1
198.623	397.48
198.842	362.66
199.062	-12.12
199.281	-104.28
199.5	262.31
199.719	311.46
199.938	-198.48
200.157	-190.29
200.376	422.05
200.595	422.05
200.814	-137.04
201.033	-165.71
201.252	420
201.471	256.17
201.69	-206.67
201.909	-87.89
202.128	344.23
202.347	301.22
202.566	-87.89
202.785	-274.26
203.004	112.81
203.223	497.83
203.442	-190.29
203.661	-317.26
203.879	372.9
204.098	321.7
204.317	-163.67
204.536	26.79
204.755	342.18
204.974	331.94
205.193	-280.4
205.411	-98.13
205.63	387.24
205.849	211.11
206.068	-114.52
206.287	-249.68
206.505	401.57
206.724	176.3
206.943	-257.87
207.162	-143.19
207.381	272.55
207.599	135.34
207.818	-96.08
208.037	-206.67
208.255	170.15
208.474	323.75
208.693	-143.19
208.911	-112.47
209.13	368.81
209.349	297.13
209.567	6.31
209.786	-130.9
210.005	290.98
210.223	243.88
210.442	-264.02
210.661	-235.35
210.879	247.97
211.098	250.02
211.316	-128.85
211.535	-184.15
211.753	229.54
211.972	297.13
212.191	-137.04
212.409	-96.08
212.628	346.28
212.846	145.58
213.065	-200.53
213.283	-94.04
213.502	135.34
213.72	237.74
213.938	-208.72
214.157	-96.08
214.375	340.13
214.594	233.64
214.812	-77.65
215.031	-141.14
215.249	94.38
215.467	213.16
215.686	-46.93
215.904	-167.76
216.122	329.89
216.341	413.86
216.559	-67.41
216.778	-65.36
216.996	528.55
217.214	161.96
217.432	-167.76
217.651	-169.81
217.869	215.21
218.087	114.86
218.306	-245.59
218.524	-212.82
218.742	139.43
218.96	356.52
219.179	-178
219.397	-122.71
219.615	559.27
219.833	250.02
220.051	-171.86
220.27	-36.69
220.488	391.33
220.706	288.93
220.924	-198.48
221.142	-182.1
221.36	297.13
221.578	352.42
221.796	-139.09
222.015	-46.93
222.233	280.74
222.451	417.96
222.669	-75.6
222.887	-14.17
223.105	141.48
223.323	235.69
223.541	-116.56
223.759	-38.74
223.977	211.11
224.195	370.85
224.413	-108.37
224.631	-153.43
224.849	221.35
225.067	518.31
225.285	-151.38
225.503	-194.39
225.721	-12.12
225.939	172.2
226.157	-106.32
226.375	43.18
226.592	182.44
226.81	188.58
227.028	-3.93
227.246	-96.08
227.464	237.74
227.682	340.13
227.9	-159.57
228.117	-65.36
228.335	243.88
228.553	194.73
228.771	-241.49
228.989	-210.77
229.206	309.41
229.424	192.68
229.642	-139.09
229.86	-126.8
230.077	346.28
230.295	223.4
230.513	-32.6
230.731	-114.52
230.948	434.34
231.166	338.09
231.384	-83.8
231.601	-159.57
231.819	452.77
232.037	133.29
232.254	-104.28
232.472	-96.08
232.689	143.53
232.907	350.37
233.125	-184.15
233.342	-186.19
233.56	149.67
233.777	161.96
233.995	-169.81
234.213	-51.03
234.43	250.02
234.648	184.49
234.865	-173.91
235.083	-5.97
235.3	127.14
235.518	295.08
235.735	-12.12
235.953	-132.95
236.17	233.64
236.388	196.78
236.605	37.03
236.822	-20.31
237.04	383.14
237.257	237.74
237.475	-147.28
237.692	-198.48
237.909	358.57
238.127	221.35
238.344	12.46
238.562	-48.98
238.779	112.81
238.996	6.31
239.214	-55.12
239.431	-38.74
239.648	135.34
239.865	225.45
240.083	-34.64
240.3	-210.77
240.517	147.62
240.735	190.63
240.952	84.14
241.169	-208.72
241.386	336.04
241.603	209.06
241.821	-165.71
242.038	-16.21
242.255	280.74
242.472	-5.97
242.689	-100.18
242.907	-135
243.124	233.64
243.341	198.82
243.558	-63.32
243.775	-253.78
243.992	-53.08
244.209	350.37
244.426	14.51
244.643	-151.38
244.86	233.64
245.078	288.93
245.295	-81.75
245.512	-71.51
245.729	110.76
245.946	276.65
246.163	-85.84
246.38	-112.47
246.597	172.2
246.814	260.26
247.031	2.22
247.248	-182.1
247.464	325.8
247.681	225.45
247.898	-12.12
248.115	10.41
248.332	151.72
248.549	356.52
248.766	73.9
248.983	-87.89
249.2	331.94
249.417	297.13
249.633	-94.04
249.85	39.08
250.067	161.96
250.284	200.87
250.501	-112.47
250.717	-79.7
250.934	-36.69
251.151	229.54
251.368	26.79
251.585	-102.23
251.801	278.69
252.018	80.04
252.235	-36.69
252.451	-163.67
252.668	127.14
252.885	278.69
253.102	-81.75
253.318	-149.33
253.535	174.25
253.752	112.81
253.968	-141.14
254.185	-167.76
254.401	282.79
254.618	323.75
254.835	-122.71
255.051	-167.76
255.268	397.48
255.484	223.4
255.701	-124.76
255.917	-67.41
256.134	69.8
256.351	237.74
256.567	-180.05
256.784	-1.88
257	96.43
257.217	286.89
257.433	45.23
257.65	-124.76
257.866	352.42
258.082	-5.97
258.299	-184.15
258.515	-71.51
258.732	190.63
258.948	102.57
259.165	-1.88
259.381	-239.44
259.597	350.37
259.814	247.97
260.03	-94.04
260.246	-79.7
260.463	374.95
260.679	329.89
260.895	-57.17
261.112	-44.88
261.328	100.52
261.544	69.8
261.761	-77.65
261.977	-34.64
262.193	-5.97
262.409	309.41
262.626	43.18
262.842	-94.04
263.058	188.58
263.274	313.51
263.49	-55.12
263.707	-114.52
263.923	372.9
264.139	39.08
264.355	-44.88
264.571	-104.28
264.787	309.41
265.004	258.21
265.22	-14.17
265.436	-149.33
265.652	137.38
265.868	256.17
266.084	-106.32
266.3	-83.8
266.516	110.76
266.732	198.82
266.948	-67.41
267.164	-159.57
267.38	323.75
267.596	245.93
267.812	-32.6
268.028	69.8
268.244	133.29
268.46	196.78
268.676	12.46
268.892	28.84
269.108	116.9
269.324	24.75
269.54	-83.8
269.756	-36.69
269.972	127.14
270.188	131.24
270.403	-108.37
270.619	-79.7
270.835	252.07
271.051	215.21
271.267	-143.19
271.483	-157.52
271.698	327.85
271.914	235.69
272.13	59.56
272.346	-110.42
272.562	247.97
272.777	342.18
272.993	34.99
273.209	-26.45
273.425	338.09
273.64	102.57
273.856	-65.36
274.072	-169.81
274.287	110.76
274.503	301.22
274.719	92.33
274.934	-159.57
275.15	61.61
275.366	164.01
275.581	-91.99
275.797	-77.65
276.012	286.89
276.228	133.29
276.444	-26.45
276.659	127.14
276.875	67.75
277.09	47.27
277.306	-65.36
277.521	34.99
277.737	256.17
277.952	233.64
278.168	-63.32
278.383	-96.08
278.599	153.77
278.814	317.61
279.03	-128.85
279.245	102.57
279.461	157.86
279.676	262.31
279.892	-157.52
280.107	-122.71
280.322	37.03
280.538	282.79
280.753	-75.6
280.969	-96.08
281.184	194.73
281.399	254.12
281.615	-46.93
281.83	86.19
282.045	57.51
282.26	84.14
282.476	-14.17
282.691	65.71
282.906	288.93
283.122	164.01
283.337	0.17
283.552	49.32
283.767	166.06
283.983	182.44
284.198	-12.12
284.413	-69.46
284.628	-63.32
284.843	104.62
285.058	-12.12
285.274	-153.43
285.489	45.23
285.704	157.86
285.919	18.6
286.134	-5.97
286.349	202.92
286.564	102.57
286.779	55.47
286.995	75.95
287.21	63.66
287.425	227.5
287.64	-77.65
287.855	164.01
288.07	-69.46
288.285	340.13
288.5	22.7
288.715	59.56
288.93	143.53
289.145	6.31
289.36	20.65
289.575	-22.36
289.79	336.04
290.004	96.43
290.219	71.85
290.434	-73.56
290.649	129.19
290.864	84.14
291.079	-30.55
291.294	37.03
291.509	217.26
291.724	45.23
291.938	-20.31
292.153	-22.36
292.368	110.76
292.583	233.64
292.798	4.27
293.012	28.84
293.227	217.26
293.442	186.54
293.657	-26.45
293.871	100.52
294.086	233.64
294.301	364.71
294.516	43.18
294.73	77.99
294.945	106.67
295.16	157.86
295.374	-3.93
295.589	26.79
295.804	86.19
296.018	151.72
296.233	-87.89
296.447	106.67
296.662	133.29
296.877	284.84
297.091	12.46
297.306	-20.31
297.52	57.51
297.735	260.26
297.949	80.04
298.164	-147.28
298.378	188.58
298.593	47.27
298.807	-57.17
299.022	26.79
299.236	221.35
299.451	59.56
299.665	-28.5
299.88	37.03
300.094	254.12
300.309	211.11
300.523	16.55
300.737	-40.79
300.952	309.41
301.166	288.93
301.381	-5.97
301.595	-165.71
301.809	137.38
302.024	127.14
302.238	-42.84
302.452	84.14
302.667	186.54
302.881	387.24
303.095	20.65
303.309	159.91
303.524	202.92
303.738	166.06
303.952	92.33
304.166	14.51
304.381	-106.32
304.595	286.89
304.809	-3.93
305.023	-83.8
305.237	86.19
305.452	82.09
305.666	-40.79
305.88	8.36
306.094	188.58
306.308	204.97
306.522	-14.17
306.736	45.23
306.95	264.36
307.164	80.04
307.379	22.7
307.593	118.95
307.807	321.7
308.021	297.13
308.235	198.82
308.449	-124.76
308.663	151.72
308.877	518.31
309.091	26.79
309.305	41.13
309.519	-16.21
309.733	299.17
309.947	-61.27
310.161	-67.41
310.374	118.95
310.588	297.13
310.802	-94.04
311.016	-3.93
311.23	190.63
311.444	80.04
311.658	73.9
311.872	225.45
312.085	268.45
312.299	278.69
312.513	178.34
312.727	-10.07
312.941	45.23
313.154	254.12
313.368	34.99
313.582	28.84
313.796	258.21
314.009	55.47
314.223	211.11
314.437	45.23
314.651	295.08
314.864	45.23
315.078	-94.04
315.292	-100.18
315.505	172.2
315.719	155.82
315.933	59.56
316.146	-65.36
316.36	45.23
316.573	264.36
316.787	235.69
317.001	53.42
317.214	61.61
317.428	157.86
317.641	-20.31
317.855	59.56
318.068	186.54
318.282	135.34
318.495	198.82
318.709	-108.37
318.922	202.92
319.136	233.64
319.349	118.95
319.563	-53.08
319.776	256.17
319.99	57.51
320.203	4.27
320.417	51.37
320.63	172.2
320.843	309.41
321.057	22.7
321.27	84.14
321.483	331.94
321.697	176.3
321.91	-110.42
322.124	28.84
322.337	198.82
322.55	39.08
322.763	-38.74
322.977	-71.51
323.19	90.28
323.403	127.14
323.617	88.23
323.83	143.53
324.043	239.78
324.256	125.1
324.469	-227.15
324.683	143.53
324.896	159.91
325.109	133.29
325.322	-87.89
325.535	118.95
325.748	346.28
325.962	43.18
326.175	20.65
326.388	-10.07
326.601	202.92
326.814	49.32
327.027	26.79
327.24	131.24
327.453	2.22
327.666	272.55
327.879	192.68
328.092	67.75
328.305	250.02
328.518	133.29
328.731	-81.75
328.944	-132.95
329.157	184.49
329.37	53.42
329.583	145.58
329.796	53.42
330.009	53.42
330.222	256.17
330.435	100.52
330.648	49.32
330.861	204.97
331.073	135.34
331.286	86.19
331.499	12.46
331.712	55.47
331.925	121
332.138	26.79
332.35	-36.69
332.563	94.38
332.776	290.98
332.989	-44.88
333.202	-167.76
333.414	135.34
333.627	188.58
333.84	8.36
334.053	2.22
334.265	-18.26
334.478	-1.88
334.691	10.41
334.903	57.51
335.116	123.05
335.329	100.52
335.541	8.36
335.754	200.87
335.966	151.72
336.179	121
336.392	-10.07
336.604	20.65
336.817	178.34
337.029	125.1
337.242	-22.36
337.454	47.27
337.667	168.1
337.88	379.04
338.092	67.75
338.305	94.38
338.517	69.8
338.729	174.25
338.942	18.6
339.154	2.22
339.367	32.94
339.579	336.04
339.792	-55.12
340.004	-30.55
340.217	71.85
340.429	223.4
340.641	-71.51
340.854	-120.66
341.066	137.38
341.278	254.12
341.491	77.99
341.703	-18.26
341.915	143.53
342.128	219.3
342.34	45.23
342.552	-87.89
342.764	196.78
342.977	180.39
343.189	32.94
343.401	145.58
343.613	8.36
343.826	129.19
344.038	-32.6
344.25	28.84
344.462	90.28
344.674	168.1
344.886	-51.03
345.099	49.32
345.311	215.21
345.523	82.09
345.735	-65.36
345.947	39.08
346.159	307.37
346.371	225.45
346.583	123.05
346.795	125.1
347.007	96.43
347.219	321.7
347.431	102.57
347.643	168.1
347.855	92.33
348.067	311.46
348.279	-51.03
348.491	-59.22
348.703	237.74
348.915	108.71
349.127	-87.89
349.339	61.61
349.551	88.23
349.763	290.98
349.975	34.99
350.187	47.27
350.399	420
350.61	143.53
350.822	-63.32
351.034	37.03
351.246	288.93
351.458	192.68
351.669	-22.36
351.881	-5.97
352.093	360.61
352.305	274.6
352.517	45.23
352.728	102.57
352.94	149.67
353.152	241.83
353.363	-167.76
353.575	26.79
353.787	381.09
353.999	239.78
354.21	200.87
354.422	-67.41
354.633	168.1
354.845	168.1
355.057	88.23
355.268	51.37
355.48	342.18
355.692	12.46
355.903	71.85
356.115	-114.52
356.326	-69.46
356.538	352.42
356.749	37.03
356.961	90.28
357.172	149.67
357.384	63.66
357.595	280.74
357.807	65.71
358.018	127.14
358.23	200.87
358.441	-48.98
358.653	-1.88
358.864	153.77
359.075	61.61
359.287	41.13
359.498	69.8
359.709	217.26
359.921	233.64
360.132	121
360.344	8.36
360.555	22.7
360.766	135.34
360.977	-75.6
361.189	200.87
361.4	184.49
361.611	284.84
361.823	86.19
362.034	12.46
362.245	-5.97
362.456	149.67
362.667	145.58
362.879	-102.23
363.09	237.74
363.301	151.72
363.512	26.79
363.723	-65.36
363.935	133.29
364.146	284.84
364.357	59.56
364.568	22.7
364.779	39.08
364.99	329.89
365.201	53.42
365.412	143.53
365.623	16.55
365.834	254.12
366.045	57.51
366.256	106.67
366.467	260.26
366.678	98.47
366.889	55.47
367.1	24.75
367.311	323.75
367.522	86.19
367.733	121
367.944	41.13
368.155	176.3
368.366	260.26
368.577	108.71
368.788	174.25
368.999	174.25
369.209	168.1
369.42	49.32
369.631	401.57
369.842	272.55
370.053	168.1
370.264	49.32
370.474	-48.98
370.685	288.93
370.896	190.63
371.107	49.32
371.317	-38.74
371.528	143.53
371.739	313.51
371.95	12.46
372.16	2.22
372.371	-42.84
372.582	104.62
372.792	-10.07
373.003	125.1
373.214	274.6
373.424	202.92
373.635	-36.69
373.846	200.87
374.056	241.83
374.267	241.83
374.477	127.14
374.688	4.27
374.898	307.37
375.109	178.34
375.319	18.6
375.53	18.6
375.74	323.75
375.951	114.86
376.161	84.14
376.372	94.38
376.582	157.86
376.793	284.84
377.003	-48.98
377.214	-87.89
377.424	231.59
377.635	237.74
377.845	6.31
378.055	102.57
378.266	0.17
378.476	196.78
378.686	24.75
378.897	121
379.107	333.99
379.317	211.11
379.528	-59.22
379.738	67.75
379.948	67.75
380.158	280.74
380.369	67.75
380.579	92.33
380.789	211.11
380.999	215.21
381.21	198.82
381.42	151.72
381.63	110.76
381.84	235.69
382.05	118.95
382.261	116.9
382.471	280.74
382.681	100.52
382.891	145.58
383.101	176.3
383.311	14.51
383.521	90.28
383.731	41.13
383.941	139.43
384.151	192.68
384.361	123.05
384.571	-5.97
384.781	28.84
384.991	336.04
385.201	344.23
385.411	114.86
385.621	65.71
385.831	237.74
386.041	196.78
386.251	110.76
386.461	77.99
386.671	139.43
386.881	217.26
387.091	14.51
387.301	145.58
387.511	170.15
387.72	184.49
387.93	127.14
388.14	-48.98
388.35	172.2
388.56	342.18
388.769	67.75
388.979	-26.45
389.189	28.84
389.399	131.24
389.609	22.7
389.818	96.43
390.028	262.31
390.238	276.65
390.447	-57.17
390.657	22.7
390.867	133.29
391.076	-5.97
391.286	-104.28
391.496	8.36
391.705	135.34
391.915	377
392.125	-28.5
392.334	16.55
392.544	327.85
392.753	53.42
392.963	-38.74
393.172	94.38
393.382	47.27
393.591	413.86
393.801	8.36
394.01	49.32
394.22	217.26
394.429	172.2
394.639	67.75
394.848	57.51
395.058	235.69
395.267	102.57
395.477	102.57
395.686	47.27
395.895	526.5
396.105	374.95
396.314	32.94
396.524	32.94
396.733	186.54
396.942	299.17
397.152	73.9
397.361	194.73
397.57	190.63
397.78	170.15
397.989	143.53
398.198	272.55
398.407	186.54
398.617	166.06
398.826	18.6
399.035	-30.55
399.244	207.02
399.453	106.67
399.663	28.84
399.872	-24.4
400.081	30.89
400.29	329.89
400.499	-42.84
400.708	192.68
400.917	184.49
401.127	170.15
401.336	98.47
401.545	235.69
401.754	321.7
401.963	313.51
402.172	92.33
402.381	-12.12
402.59	106.67
402.799	114.86
403.008	268.45
403.217	84.14
403.426	278.69
403.635	20.65
403.844	30.89
404.053	-65.36
404.262	161.96
404.471	333.99
404.68	37.03
404.888	73.9
405.097	137.38
405.306	196.78
405.515	71.85
405.724	0.17
405.933	307.37
406.142	198.82
406.35	16.55
406.559	84.14
406.768	225.45
406.977	428.2
407.185	41.13
407.394	59.56
407.603	102.57
407.812	155.82
408.02	108.71
408.229	92.33
408.438	209.06
408.646	-57.17
408.855	-16.21
409.064	18.6
409.272	192.68
409.481	211.11
409.69	-5.97
409.898	0.17
410.107	182.44
410.315	282.79
410.524	84.14
410.733	96.43
410.941	237.74
411.15	209.06
411.358	92.33
411.567	219.3
411.775	276.65
411.984	135.34
412.192	96.43
412.401	67.75
412.609	489.64
412.818	274.6
413.026	100.52
413.234	14.51
413.443	215.21
413.651	24.75
413.86	-85.84
414.068	247.97
414.276	430.24
414.485	147.62
414.693	153.77
414.901	217.26
415.11	282.79
415.318	182.44
415.526	32.94
415.734	135.34
415.943	200.87
416.151	338.09
416.359	39.08
416.567	135.34
416.776	209.06
416.984	336.04
417.192	200.87
417.4	14.51
417.608	82.09
417.817	55.47
418.025	198.82
418.233	166.06
418.441	102.57
418.649	55.47
418.857	65.71
419.065	71.85
419.273	121
419.481	190.63
419.689	65.71
419.897	45.23
420.105	53.42
420.313	260.26
420.521	164.01
420.729	86.19
420.937	51.37
421.145	164.01
421.353	61.61
421.561	211.11
421.769	219.3
421.977	161.96
422.185	65.71
422.393	18.6
422.601	200.87
422.809	237.74
423.017	61.61
423.224	57.51
423.432	358.57
423.64	184.49
423.848	77.99
424.056	-63.32
424.263	362.66
424.471	241.83
424.679	217.26
424.887	37.03
425.094	420
425.302	276.65
425.51	-77.65
425.718	170.15
425.925	209.06
426.133	149.67
426.341	272.55
426.548	110.76
426.756	139.43
426.964	342.18
427.171	84.14
427.379	135.34
427.586	250.02
427.794	329.89
428.001	104.62
428.209	202.92
428.417	401.57
428.624	256.17
428.832	215.21
429.039	221.35
429.247	272.55
429.454	329.89
429.662	168.1
429.869	147.62
430.076	290.98
430.284	342.18
430.491	217.26
430.699	243.88
430.906	454.82
431.114	342.18
431.321	139.43
431.528	194.73
431.736	309.41
431.943	321.7
432.15	207.02
432.358	182.44
432.565	577.7
432.772	26.79
432.979	258.21
433.187	164.01
433.394	460.96
433.601	227.5
433.808	211.11
434.016	315.56
434.223	305.32
434.43	313.51
434.637	274.6
434.844	366.76
435.052	432.29
435.259	456.87
435.466	293.03
435.673	301.22
435.88	528.55
436.087	465.06
436.294	575.65
436.501	422.05
436.708	458.92
436.915	544.93
437.122	463.01
437.329	290.98
437.537	393.38
437.743	446.63
437.95	444.58
438.157	383.14
438.364	475.3
438.571	487.59
438.778	356.52
438.985	420
439.192	585.89
439.399	518.31
439.606	413.86
439.813	506.02
440.02	805.02
440.227	882.85
440.433	561.31
440.64	581.79
440.847	559.27
441.054	671.9
441.261	452.77
441.467	522.4
441.674	600.23
441.881	813.21
442.088	481.44
442.294	532.64
442.501	821.41
442.708	821.41
442.914	592.03
443.121	567.46
443.328	794.78
443.534	905.37
443.741	600.23
443.948	530.59
444.154	794.78
444.361	1009.82
444.568	641.18
444.774	798.88
444.981	704.67
445.187	979.1
445.394	829.6
445.6	712.86
445.807	1042.59
446.013	864.41
446.22	671.9
446.426	934.04
446.633	1073.31
446.839	1255.58
447.046	747.68
447.252	975
447.459	1079.45
447.665	1018.01
447.871	917.66
448.078	1271.96
448.284	1106.07
448.491	1349.78
448.697	1138.84
448.903	1224.86
449.11	1312.92
449.316	1243.29
449.522	1302.68
449.728	1228.95
449.935	1505.43
450.141	1292.44
450.347	1355.93
450.553	1343.64
450.76	1435.8
450.966	1546.39
451.172	1386.65
451.378	1413.27
451.584	1601.68
451.791	1831.05
451.997	1640.59
452.203	1462.42
452.409	1718.42
452.615	1919.12
452.821	1628.31
453.027	1652.88
453.233	2093.19
453.44	1761.42
453.646	1691.79
453.852	1777.81
454.058	1835.15
454.264	2039.95
454.47	2095.24
454.676	1904.78
454.882	2193.55
455.088	2068.62
455.294	1990.8
455.5	2148.49
455.705	2291.85
455.911	2287.75
456.117	1970.32
456.323	2107.53
456.529	2156.68
456.735	2134.15
456.941	1982.6
457.147	2148.49
457.352	2330.76
457.558	2142.35
457.764	2201.74
457.97	2148.49
458.176	2271.37
458.381	2386.05
458.587	2308.23
458.793	2230.41
458.999	2056.33
459.204	2447.49
459.41	2205.83
459.616	2273.42
459.821	2398.34
460.027	2125.96
460.233	2175.11
460.438	2140.3
460.644	2166.92
460.85	2209.93
461.055	2123.91
461.261	2089.1
461.466	1984.65
461.672	1994.89
461.878	1874.06
462.083	1978.51
462.289	1878.16
462.494	2021.52
462.7	1790.1
462.905	1792.14
463.111	2156.68
463.316	2033.8
463.522	1804.43
463.727	1736.85
463.932	1935.5
464.138	2021.52
464.343	1829.01
464.549	1904.78
464.754	2128.01
464.959	1996.94
465.165	1802.38
465.37	1730.7
465.575	1829.01
465.781	1906.83
465.986	1783.95
466.191	1704.08
466.397	1810.58
466.602	1812.62
466.807	1722.51
467.012	1829.01
467.218	1888.4
467.423	1755.28
467.628	1724.56
467.833	1736.85
468.038	1765.52
468.244	1669.27
468.449	1738.9
468.654	1693.84
468.859	1738.9
469.064	1738.9
469.269	1511.57
469.474	1595.54
469.679	1927.31
469.885	1886.35
470.09	1609.87
470.295	1675.41
470.5	1798.29
470.705	1869.97
470.91	1740.94
471.115	1558.67
471.32	1814.67
471.525	1964.17
471.73	1609.87
471.935	1740.94
472.139	1798.29
472.344	1736.85
472.549	1661.07
472.754	1710.22
472.959	1910.93
473.164	1693.84
473.369	1716.37
473.574	1634.45
473.778	1822.86
473.983	1906.83
474.188	1904.78
474.393	1646.74
474.598	1837.2
474.802	1894.54
475.007	1738.9
475.212	1716.37
475.417	1704.08
475.621	1886.35
475.826	1521.81
476.031	1712.27
476.235	1802.38
476.44	1738.9
476.645	1677.46
476.849	1566.87
477.054	1730.7
477.259	1943.69
477.463	1730.7
477.668	1769.62
477.872	1943.69
478.077	1755.28
478.282	1568.91
478.486	1556.63
478.691	1710.22
478.895	1779.86
479.1	1779.86
479.304	1622.16
479.509	1722.51
479.713	1935.5
479.918	1636.5
480.122	1591.44
480.326	1732.75
480.531	1845.39
480.735	1683.6
480.94	1648.79
481.144	1820.81
481.348	1747.09
481.553	1745.04
481.757	1685.65
481.961	1796.24
482.166	1808.53
482.37	1630.35
482.574	1759.38
482.778	1599.63
482.983	1935.5
483.187	1550.48
483.391	1683.6
483.595	1749.14
483.8	1822.86
484.004	1732.75
484.208	1611.92
484.412	1992.84
484.616	1792.14
484.821	1708.18
485.025	1585.3
485.229	1742.99
485.433	1874.06
485.637	1781.9
485.841	1730.7
486.045	1974.41
486.249	1884.3
486.453	1640.59
486.657	1681.55
486.861	1611.92
487.065	1888.4
487.269	1665.17
487.473	1579.15
487.677	1910.93
487.881	2216.07
488.085	1738.9
488.289	1865.87
488.493	1876.11
488.697	2232.46
488.901	1857.68
489.105	1773.71
489.309	1804.43
489.512	2074.76
489.716	2005.13
489.92	1872.01
490.124	2033.8
490.328	2193.55
490.531	1788.05
490.735	1953.93
490.939	1788.05
491.143	1970.32
491.346	1843.34
491.55	1966.22
491.754	2044.04
491.958	2074.76
492.161	2039.95
492.365	1888.4
492.569	2001.04
492.772	2220.17
492.976	2066.57
493.18	1960.08
493.383	2066.57
493.587	2150.54
493.79	2076.81
493.994	1943.69
494.197	2146.44
494.401	2195.59
494.605	1949.84
494.808	2197.64
495.012	2236.55
495.215	2381.96
495.419	2246.79
495.622	2017.42
495.825	2164.87
496.029	2201.74
496.232	2152.59
496.436	2031.76
496.639	2384.01
496.843	2136.2
497.046	2099.34
497.249	2185.35
497.453	2304.14
497.656	2236.55
497.859	2228.36
498.063	2316.42
498.266	2463.88
498.469	2166.92
498.673	2240.65
498.876	2232.46
499.079	2179.21
499.282	2351.24
499.485	2289.8
499.689	2414.73
499.892	2525.32
500.095	2418.82
500.298	2295.94
500.501	2265.22
500.705	2472.07
500.908	2558.08
501.111	2386.05
501.314	2467.97
501.517	2787.46
501.72	2549.89
501.923	2480.26
502.126	2488.45
502.329	2836.61
502.532	2801.79
502.735	2572.42
502.938	2754.69
503.141	2732.16
503.344	2605.19
503.547	2740.35
503.75	2551.94
503.953	2752.64
504.156	2939.01
504.359	2830.46
504.562	2615.43
504.765	2816.13
504.968	2971.77
505.17	2795.65
505.373	2822.27
505.576	3012.73
505.779	2982.01
505.982	2812.03
506.185	2902.14
506.387	2867.33
506.59	3090.56
506.793	2939.01
506.996	3053.69
507.198	3387.51
507.401	3326.07
507.604	3094.65
507.807	3111.04
508.009	3348.6
508.212	3340.41
508.415	3108.99
508.617	3063.93
508.82	3504.25
509.022	3231.87
509.225	3201.15
509.428	3063.93
509.63	3528.82
509.833	3422.33
510.035	3700.85
510.238	3518.58
510.44	3551.35
510.643	3780.72
510.845	3629.17
511.048	3524.72
511.25	3633.27
511.453	3764.34
511.655	3813.49
511.858	3694.71
512.06	3919.98
512.262	3862.64
512.465	3706.99
512.667	3829.87
512.87	3827.82
513.072	4231.27
513.274	4057.2
513.477	3901.55
513.679	4247.66
513.881	4040.81
514.084	4065.39
514.286	4126.83
514.488	4270.19
514.69	4348.01
514.893	4423.78
515.095	4239.47
515.297	4384.87
515.499	4515.94
515.701	4313.19
515.904	4612.2
516.106	4857.95
516.308	4755.55
516.51	4694.12
516.712	4745.31
516.914	4878.43
517.116	4800.61
517.318	4819.04
517.52	4872.29
517.722	4989.02
517.925	5060.7
518.127	4960.35
518.329	5054.56
518.531	4986.97
518.733	5261.4
518.935	5093.47
519.136	5388.38
519.338	5380.18
519.54	5458.01
519.742	5265.5
519.944	5566.55
520.146	5601.37
520.348	5517.4
520.55	5675.09
520.752	5558.36
520.954	5881.94
521.155	5800.02
521.357	5724.24
521.559	6041.68
521.761	6137.93
521.963	6047.82
522.164	6168.65
522.366	6115.41
522.568	6389.83
522.77	6236.24
522.971	6287.43
523.173	6367.31
523.375	6488.14
523.576	6479.94
523.778	6342.73
523.98	6539.33
524.181	6666.31
524.383	6787.14
524.584	6580.29
524.786	6688.84
524.988	6580.29
525.189	6852.67
525.391	7088.19
525.592	6852.67
525.794	6854.72
525.995	6977.6
526.197	6971.46
526.398	7065.66
526.6	7233.6
526.801	7374.91
527.003	7106.62
527.204	7231.55
527.406	7571.51
527.607	7401.53
527.808	7288.89
528.01	7254.08
528.211	7495.74
528.412	7426.11
528.614	7630.9
528.815	7508.02
529.016	7768.12
529.218	7649.33
529.419	7528.5
529.62	7417.91
529.822	7931.95
530.023	7909.43
530.224	7792.69
530.425	7788.6
530.626	7616.57
530.828	7858.23
531.029	7684.15
531.23	7688.25
531.431	7647.29
531.632	8171.57
531.833	7897.14
532.035	7890.99
532.236	7899.19
532.437	8185.9
532.638	7882.8
532.839	7929.91
533.04	8245.29
533.241	8202.29
533.442	8077.36
533.643	7989.3
533.844	8077.36
534.045	8099.89
534.246	7913.52
534.447	7917.62
534.648	8079.41
534.849	8445.99
535.05	8073.26
535.251	7993.39
535.451	8144.94
535.652	8132.65
535.853	8089.65
536.054	8341.55
536.255	8226.86
536.456	8192.05
536.657	8253.48
536.857	8087.6
537.058	8261.68
537.259	8370.22
537.46	8292.4
537.66	8054.83
537.861	8362.03
538.062	8405.03
538.263	8050.74
538.463	8214.57
538.664	8294.44
538.865	8192.05
539.065	8474.67
539.266	8235.05
539.466	8292.4
539.667	8316.97
539.868	8321.07
540.068	8343.6
540.269	8392.75
540.469	8319.02
540.67	8167.47
540.87	8380.46
541.071	8235.05
541.271	8605.74
541.472	8386.6
541.672	8337.45
541.873	8548.39
542.073	8335.4
542.274	8452.14
542.474	8321.07
542.675	8480.81
542.875	8425.51
543.075	8347.69
543.276	8214.57
543.476	8538.15
543.676	8550.44
543.877	8529.96
544.077	8368.17
544.277	8521.77
544.478	8441.9
544.678	8441.9
544.878	8333.36
545.078	8282.16
545.279	8431.66
545.479	8454.19
545.679	8327.21
545.879	8312.88
546.079	8603.69
546.28	8312.88
546.48	8351.79
546.68	8669.22
546.88	8724.52
547.08	8544.3
547.28	8359.98
547.48	8169.52
547.68	8611.88
547.88	8470.57
548.081	8355.88
548.281	8474.67
548.481	8489
548.681	8263.72
548.881	8503.34
549.081	8476.71
549.28	8513.58
549.48	8476.71
549.68	8603.69
549.88	8620.07
550.08	8474.67
550.28	8495.15
550.48	8564.78
550.68	8456.23
550.88	8603.69
551.08	8560.68
551.279	8759.33
551.479	8538.15
551.679	8818.72
551.879	8351.79
552.079	8534.06
552.278	8615.98
552.478	8900.64
552.678	8435.75
552.878	8663.08
553.077	8620.07
553.277	8245.29
553.477	8638.5
553.676	8628.26
553.876	8589.35
554.076	8722.47
554.275	8720.42
554.475	8261.68
554.674	8947.75
554.874	8753.19
555.074	8464.43
555.273	8605.74
555.473	8654.89
555.672	8669.22
555.872	8472.62
556.071	8792.1
556.271	8925.22
556.47	8624.17
556.67	8441.9
556.869	8454.19
557.068	8540.2
557.268	8398.89
557.467	8480.81
557.667	8384.55
557.866	8468.52
558.065	8654.89
558.265	8251.44
558.464	8493.1
558.663	8476.71
558.863	8540.2
559.062	8532.01
559.261	8376.36
559.461	8556.58
559.66	8529.96
559.859	8595.5
560.058	8321.07
560.258	8261.68
560.457	8339.5
560.656	8214.57
560.855	8175.66
561.054	8534.06
561.253	8323.12
561.453	8177.71
561.652	8300.59
561.851	8513.58
562.05	8233.01
562.249	7874.61
562.448	8298.54
562.647	8298.54
562.846	8128.56
563.045	8216.62
563.244	7950.39
563.443	8374.31
563.642	8073.26
563.841	8108.08
564.04	7999.54
564.239	8216.62
564.438	8077.36
564.637	8003.63
564.836	7944.24
565.035	7866.42
565.234	7819.32
565.432	7835.7
565.631	7831.6
565.83	7845.94
566.029	7874.61
566.228	7714.87
566.427	7800.88
566.625	7809.08
566.824	7753.78
567.023	7575.61
567.222	7561.27
567.42	7620.66
567.619	7483.45
567.818	7641.14
568.016	7727.16
568.215	7579.7
568.414	7856.18
568.612	7559.22
568.811	7315.52
569.01	7452.73
569.208	7344.19
569.407	7508.02
569.605	7446.59
569.804	7245.88
570.002	7356.47
570.201	7137.34
570.4	7540.79
570.598	7233.6
570.797	7157.82
570.995	7282.75
571.193	7028.8
571.392	7319.61
571.59	6987.84
571.789	7008.32
571.987	7233.6
572.186	7278.65
572.384	7123.01
572.582	6938.69
572.781	7284.8
572.979	6903.87
573.177	6936.64
573.376	6916.16
573.574	6873.15
573.772	6942.78
573.971	6785.09
574.169	6549.57
574.367	6549.57
574.565	6785.09
574.763	6584.39
574.962	6500.42
575.16	6645.83
575.358	6525
575.556	6629.45
575.754	6627.4
575.952	6490.18
576.151	6651.97
576.349	6754.37
576.547	6205.52
576.745	6514.76
576.943	6578.25
577.141	6537.29
577.339	6266.96
577.537	6285.39
577.735	6619.21
577.933	6518.86
578.131	6260.81
578.329	6344.78
578.527	6404.17
578.725	6283.34
578.923	5965.9
579.121	6215.76
579.319	6197.32
579.516	6412.36
579.714	6402.12
579.912	6092.88
580.11	6045.77
580.308	6199.37
580.506	6180.94
580.704	5757.01
580.901	6254.67
581.099	6459.46
581.297	6185.04
581.495	6008.91
581.692	6135.89
581.89	6164.56
582.088	6146.12
582.285	5924.94
582.483	6139.98
582.681	5998.67
582.878	5875.79
583.076	5965.9
583.274	5924.94
583.471	6158.41
583.669	5947.47
583.866	5800.02
584.064	5826.64
584.262	5656.66
584.459	5822.55
584.657	5705.81
584.854	6086.73
585.052	5961.81
585.249	5908.56
585.447	5726.29
585.644	5726.29
585.841	5933.14
586.039	5920.85
586.236	5673.04
586.434	5869.65
586.631	5654.61
586.828	5484.63
587.026	5640.28
587.223	5578.84
587.42	5926.99
587.618	5558.36
587.815	5701.72
588.012	5748.82
588.21	5564.5
588.407	5662.8
588.604	5535.83
588.801	5474.39
588.999	5587.03
589.196	5541.97
589.393	5257.31
589.59	5697.62
589.787	5652.56
589.984	5527.64
590.182	5568.6
590.379	5425.24
590.576	5673.04
590.773	5488.73
590.97	5427.29
591.167	5636.18
591.364	5619.8
591.561	5455.96
591.758	5449.82
591.955	5687.38
592.152	5638.23
592.349	5476.44
592.546	5214.3
592.743	5519.45
592.94	5406.81
593.137	5320.79
593.334	5482.58
593.531	5603.41
593.727	5595.22
593.924	5523.54
594.121	5398.62
594.318	5449.82
594.515	5511.25
594.712	5550.17
594.908	5419.1
595.105	5095.52
595.302	5515.35
595.499	5415
595.696	5478.49
595.892	5150.81
596.089	5509.21
596.286	5187.68
596.482	5445.72
596.679	5464.15
596.876	5367.9
597.072	5343.32
597.269	5294.17
597.466	5236.83
597.662	5318.75
597.859	5204.06
598.055	5423.19
598.252	5367.9
598.448	5460.06
598.645	5402.71
598.841	5148.76
599.038	5511.25
599.234	5525.59
599.431	5296.22
599.627	4989.02
599.824	5281.88
600.02	5331.03
600.217	5288.03
600.413	5105.76
600.609	5228.63
600.806	5656.66
601.002	5267.55
601.198	4923.49
601.395	5431.38
601.591	5261.4
601.787	5300.31
601.984	5195.87
602.18	5361.75
602.376	5294.17
602.572	5279.83
602.769	5328.99
602.965	5120.09
603.161	5269.59
603.357	5144.67
603.553	5335.13
603.75	5273.69
603.946	5101.66
604.142	5191.77
604.338	5208.16
604.534	5271.64
604.73	5427.29
604.926	5087.33
605.122	5472.34
605.318	5347.42
605.514	5400.66
605.71	5070.94
605.906	5171.29
606.102	5193.82
606.298	5511.25
606.494	5099.61
606.69	5353.56
606.886	5288.03
607.082	5253.21
607.278	5034.08
607.474	5027.93
607.67	5300.31
607.866	5015.65
608.062	5122.14
608.257	5113.95
608.453	5095.52
608.649	5314.65
608.845	5048.41
609.041	4968.54
609.236	5269.59
609.432	5285.98
609.628	5253.21
609.824	5081.18
610.019	4962.4
610.215	5099.61
610.411	4993.12
610.606	5128.28
610.802	5177.44
610.998	5224.54
611.193	5060.7
611.389	4888.67
611.584	5380.18
611.78	5111.9
611.976	5070.94
612.171	5292.12
612.367	5331.03
612.562	5161.05
612.758	5212.25
612.953	4903.01
613.149	5171.29
613.344	5009.5
613.539	5130.33
613.735	5072.99
613.93	5187.68
614.126	5171.29
614.321	4976.73
614.517	5199.96
614.712	5361.75
614.907	5175.39
615.103	4991.07
615.298	5029.98
615.493	4796.51
615.688	5023.84
615.884	5116
616.079	4933.73
616.274	5144.67
616.47	4845.66
616.665	4943.97
616.86	5025.89
617.055	4925.54
617.25	4931.68
617.445	4991.07
617.641	5109.85
617.836	4978.78
618.031	4958.3
618.226	5136.48
618.421	5052.51
618.616	5001.31
618.811	5075.04
619.006	5015.65
619.201	4964.45
619.396	5042.27
619.591	4870.24
619.786	4978.78
619.981	4911.2
620.176	5179.48
620.371	5009.5
620.566	4851.81
620.761	5068.89
620.956	5083.23
621.151	4939.87
621.346	4849.76
621.541	4696.16
621.735	4991.07
621.93	4794.47
622.125	4831.33
622.32	4677.73
622.515	4749.41
622.709	4919.39
622.904	4882.53
623.099	4870.24
623.294	4819.04
623.488	4968.54
623.683	4796.51
623.878	4499.56
624.072	4980.83
624.267	4778.08
624.462	4743.27
624.656	4474.98
624.851	4763.75
625.046	4638.82
625.24	4610.15
625.435	4642.92
625.629	4816.99
625.824	4788.32
626.018	4647.01
626.213	4434.02
626.407	4520.04
626.602	4706.4
626.796	4495.46
626.991	4655.2
627.185	4724.83
627.38	4552.81
627.574	4495.46
627.768	4354.15
627.963	4542.57
628.157	4575.33
628.352	4442.21
628.546	4376.68
628.74	4444.26
628.935	4376.68
629.129	4401.26
629.323	4370.54
629.517	4147.31
629.712	4231.27
629.906	4354.15
630.1	4358.25
630.294	4554.85
630.489	4292.71
630.683	4294.76
630.877	4196.46
631.071	4579.43
631.265	4268.14
631.459	4366.44
631.653	4190.31
631.848	4393.06
632.042	4407.4
632.236	4218.99
632.43	4085.87
632.624	4280.43
632.818	4206.7
633.012	4171.88
633.206	4026.48
633.4	4126.83
633.594	4315.24
633.788	4100.2
633.982	4259.95
634.176	4339.82
634.369	3952.75
634.563	3944.56
634.757	3770.48
634.951	4204.65
635.145	4247.66
635.339	4112.49
635.533	4075.63
635.726	4135.02
635.92	3942.51
636.114	3836.02
636.308	3799.15
636.501	3854.45
636.695	4149.36
636.889	3729.52
637.083	3803.25
637.276	3709.04
637.47	3739.76
637.664	3692.66
637.857	3600.5
638.051	3813.49
638.244	3825.78
638.438	3672.18
638.632	3631.22
638.825	3504.25
639.019	3870.83
639.212	3524.72
639.406	3690.61
639.599	3590.26
639.793	3600.5
639.986	3332.22
640.18	3713.14
640.373	3469.43
640.567	3430.52
640.76	3473.53
640.954	3420.28
641.147	3381.37
641.34	3309.69
641.534	3295.35
641.727	3285.11
641.92	3303.54
642.114	3489.91
642.307	3072.12
642.5	3203.19
642.694	3084.41
642.887	3158.14
643.08	3184.76
643.273	3229.82
643.467	3190.91
643.66	3096.7
643.853	2893.95
644.046	2990.21
644.239	3063.93
644.432	2967.68
644.626	2680.96
644.819	2799.74
645.012	2850.94
645.205	2982.01
645.398	2836.61
645.591	2785.41
645.784	2664.58
645.977	2803.84
646.17	2719.87
646.363	2623.62
646.556	2736.26
646.749	2613.38
646.942	2648.19
647.135	2656.39
647.328	2764.93
647.521	2939.01
647.714	2482.31
647.907	2637.95
648.099	2623.62
648.292	2789.5
648.485	2666.63
648.678	2336.9
648.871	2467.97
649.064	2490.5
649.256	2433.16
649.449	2392.2
649.642	2408.58
649.835	2435.21
650.027	2328.71
650.22	2375.81
650.413	2451.59
650.605	2433.16
650.798	2377.86
650.991	2279.56
651.183	2422.92
651.376	2316.42
651.568	2201.74
651.761	2173.07
651.954	2531.46
652.146	2254.98
652.339	2388.1
652.531	2412.68
652.724	2287.75
652.916	2300.04
653.109	1984.65
653.301	2207.88
653.494	2658.43
653.686	2269.32
653.879	2322.57
654.071	2248.84
654.263	2160.78
654.456	2144.39
654.648	2154.63
654.84	2173.07
655.033	2250.89
655.225	2529.41
655.417	1992.84
655.61	2250.89
655.802	2404.49
655.994	2506.88
656.186	1945.74
656.379	2240.65
656.571	2166.92
656.763	2085
656.955	2046.09
657.148	1937.55
657.34	2238.6
657.532	2017.42
657.724	2031.76
657.916	1976.46
658.108	2320.52
658.3	2117.77
658.492	2076.81
658.684	1867.92
658.876	2277.51
659.068	1833.1
659.26	1802.38
659.452	1886.35
659.644	2046.09
659.836	2248.84
660.028	1867.92
660.22	1816.72
660.412	2027.66
660.604	1962.12
660.796	1859.73
660.988	1792.14
661.18	1917.07
661.372	1939.6
661.563	1833.1
661.755	1788.05
661.947	1771.66
662.139	1759.38
662.331	1857.68
662.522	1839.25
662.714	1810.58
662.906	1697.94
663.097	1747.09
663.289	1673.36
663.481	1616.02
663.673	1988.75
663.864	1577.11
664.056	1773.71
664.247	1695.89
664.439	1978.51
664.631	1663.12
664.822	1689.74
665.014	1771.66
665.205	1605.78
665.397	1626.26
665.588	1697.94
665.78	1818.77
665.971	1704.08
666.163	1476.76
666.354	1480.85
666.546	1618.07
666.737	1618.07
666.929	1523.86
667.12	1519.76
667.311	1822.86
667.503	1611.92
667.694	1579.15
667.885	1503.38
668.077	1751.18
668.268	1489.04
668.459	1415.32
668.651	1613.97
668.842	1683.6
669.033	1458.32
669.224	1472.66
669.416	1697.94
669.607	1579.15
669.798	1394.84
669.989	1427.6
670.18	1380.5
670.371	1597.59
670.563	1394.84
670.754	1476.76
670.945	1464.47
671.136	1738.9
671.327	1421.46
671.518	1347.73
671.709	1454.23
671.9	1650.83
672.091	1753.23
672.282	1357.97
672.473	1333.4
672.664	1390.74
672.855	1484.95
673.046	1487
673.237	1519.76
673.428	1611.92
673.619	1591.44
673.809	1312.92
674	1480.85
674.191	1589.39
674.382	1579.15
674.573	1386.65
674.764	1325.21
674.954	1624.21
675.145	1419.41
675.336	1337.49
675.527	1351.83
675.717	1433.75
675.908	1489.04
676.099	1409.17
676.289	1151.13
676.48	1304.73
676.671	1554.58
676.861	1425.56
677.052	1261.72
677.243	1390.74
677.433	1392.79
677.624	1392.79
677.814	1417.37
678.005	1403.03
678.195	1620.11
678.386	1419.41
678.576	1333.4
678.767	1325.21
678.957	1480.85
679.148	1495.19
679.338	1478.8
679.529	1480.85
679.719	1507.48
679.909	1560.72
680.1	1296.53
680.29	1460.37
680.481	1329.3
680.671	1460.37
680.861	1360.02
681.052	1599.63
681.242	1380.5
681.432	1505.43
681.622	1448.08
681.813	1443.99
682.003	1599.63
682.193	1274.01
682.383	1439.89
682.573	1521.81
682.764	1411.22
682.954	1509.52
683.144	1556.63
683.334	1484.95
683.524	1448.08
683.714	1450.13
683.904	1470.61
684.094	1507.48
684.284	1648.79
684.474	1460.37
684.664	1521.81
684.854	1718.42
685.044	1470.61
685.234	1409.17
685.424	1400.98
685.614	1544.34
685.804	1720.46
685.994	1495.19
686.184	1562.77
686.374	1556.63
686.564	1456.28
686.753	1448.08
686.943	1417.37
687.133	1640.59
687.323	1575.06
687.513	1577.11
687.702	1468.56
687.892	1638.55
688.082	1730.7
688.272	1511.57
688.461	1544.34
688.651	1691.79
688.841	1763.47
689.03	1495.19
689.22	1517.72
689.41	1855.63
689.599	1804.43
689.789	1532.05
689.979	1712.27
690.168	1665.17
690.358	1783.95
690.547	1517.72
690.737	1732.75
690.926	1851.53
691.116	1839.25
691.305	1775.76
691.495	1769.62
691.684	1716.37
691.874	1736.85
692.063	1646.74
692.252	1765.52
692.442	2001.04
692.631	1769.62
692.82	1732.75
693.01	1878.16
693.199	1896.59
693.388	1972.36
693.578	1876.11
693.767	1849.49
693.956	1964.17
694.146	2015.37
694.335	1861.77
694.524	1917.07
694.713	2093.19
694.902	2095.24
695.092	1904.78
695.281	1906.83
695.47	2097.29
695.659	2060.43
695.848	1978.51
696.037	1986.7
696.226	2222.22
696.415	2379.91
696.604	2287.75
696.793	2154.63
696.982	2341
697.171	2447.49
697.36	2101.39
697.549	2218.12
697.738	2039.95
697.927	2189.45
698.116	2175.11
698.305	2414.73
698.494	2502.79
698.683	2410.63
698.872	2418.82
699.061	2334.86
699.25	2517.12
699.438	2467.97
699.627	2320.52
699.816	2564.23
700.005	2345.09
700.193	2492.55
700.382	2568.32
700.571	2416.77
700.76	2691.2
700.948	2697.35
701.137	2357.38
701.326	2689.15
701.514	2617.47
701.703	2713.73
701.892	2633.86
702.08	2781.31
702.269	2844.8
702.457	2693.25
702.646	2644.1
702.834	2478.21
703.023	2883.71
703.212	2873.47
703.4	2594.95
703.589	2642.05
703.777	2742.4
703.965	2642.05
704.154	2603.14
704.342	2592.9
704.531	2814.08
704.719	2799.74
704.907	2740.35
705.096	2584.71
705.284	2814.08
705.472	2838.66
705.661	2779.26
705.849	2846.85
706.037	3053.69
706.226	2998.4
706.414	2812.03
706.602	2633.86
706.79	2914.43
706.979	2848.9
707.167	2826.37
707.355	2771.07
707.543	2939.01
707.731	2875.52
707.919	2820.22
708.107	2705.54
708.296	2865.28
708.484	2742.4
708.672	2957.44
708.86	2932.86
709.048	2965.63
709.236	2787.46
709.424	2861.18
709.612	2936.96
709.8	2814.08
709.988	2852.99
710.176	2975.87
710.364	3010.68
710.551	2936.96
710.739	2975.87
710.927	2746.5
711.115	2816.13
711.303	2975.87
711.491	3096.7
711.679	2746.5
711.866	2904.19
712.054	3037.31
712.242	2949.25
712.43	3080.32
712.617	2916.48
712.805	3125.37
712.993	2998.4
713.181	2689.15
713.368	2965.63
713.556	3063.93
713.744	2951.29
713.931	2996.35
714.119	2957.44
714.306	2871.42
714.494	2879.61
714.682	2738.3
714.869	2691.2
715.057	2869.37
715.244	2779.26
715.432	2848.9
715.619	2703.49
715.807	2951.29
715.994	2885.76
716.182	2838.66
716.369	2896
716.556	3049.6
716.744	2760.83
716.931	2619.52
717.119	2816.13
717.306	2918.53
717.493	2959.49
717.681	2680.96
717.868	2705.54
718.055	2914.43
718.242	2797.7
718.43	2857.09
718.617	2709.63
718.804	2828.42
718.991	2975.87
719.179	2762.88
719.366	2730.11
719.553	2951.29
719.74	2793.6
719.927	2652.29
720.114	2660.48
720.301	2748.54
720.488	2672.77
720.676	2654.34
720.863	2781.31
721.05	3088.51
721.237	2834.56
721.424	2650.24
721.611	2672.77
721.798	2736.26
721.985	2680.96
722.172	2541.7
722.358	2754.69
722.545	2885.76
722.732	2836.61
722.919	2723.97
723.106	2689.15
723.293	2760.83
723.48	2781.31
723.667	2580.61
723.853	2599.04
724.04	2793.6
724.227	2922.62
724.414	2691.2
724.6	2560.13
724.787	2887.81
724.974	2928.77
725.161	2640
725.347	2437.25
725.534	2740.35
725.72	2822.27
725.907	2676.87
726.094	2664.58
726.28	2574.47
726.467	2672.77
726.653	2578.56
726.84	2510.98
727.027	2736.26
727.213	2633.86
727.4	2711.68
727.586	2601.09
727.773	2693.25
727.959	2515.08
728.145	2525.32
728.332	2506.88
728.518	2412.68
728.705	2744.45
728.891	2275.46
729.077	2533.51
729.264	2570.37
729.45	2519.17
729.636	2484.36
729.823	2453.64
730.009	2852.99
730.195	2640
730.382	2560.13
730.568	2334.86
730.754	2609.28
730.94	2394.25
731.126	2447.49
731.313	2451.59
731.499	2617.47
731.685	2472.07
731.871	2553.99
732.057	2498.69
732.243	2601.09
732.429	2560.13
732.615	2599.04
732.801	2443.4
732.987	2609.28
733.173	2431.11
733.359	2416.77
733.545	2521.22
733.731	2472.07
733.917	2691.2
734.103	2406.53
734.289	2384.01
734.475	2338.95
734.661	2672.77
734.847	2297.99
735.033	2398.34
735.219	2633.86
735.404	2527.36
735.59	2205.83
735.776	2347.14
735.962	2558.08
736.148	2523.27
736.333	2433.16
736.519	2353.29
736.705	2480.26
736.89	2371.72
737.076	2244.74
737.262	2179.21
737.447	2302.09
737.633	2332.81
737.819	2252.94
738.004	2160.78
738.19	2379.91
738.375	2388.1
738.561	2412.68
738.747	2338.95
738.932	2134.15
739.118	2549.89
739.303	2273.42
739.489	2207.88
739.674	2117.77
739.859	2199.69
740.045	2261.13
740.23	2201.74
740.416	2052.24
740.601	2222.22
740.786	2093.19
740.972	2097.29
741.157	2197.64
741.342	2054.28
741.528	2015.37
741.713	2205.83
741.898	2156.68
742.084	2156.68
742.269	2097.29
742.454	2019.47
742.639	2287.75
742.824	2254.98
743.01	2109.58
743.195	2105.48
743.38	2103.43
743.565	2033.8
743.75	2044.04
743.935	2039.95
744.12	2275.46
744.305	2072.72
744.49	2048.14
744.675	1976.46
744.86	1996.94
745.045	2158.73
745.23	1964.17
745.415	1880.21
745.6	2191.5
745.785	1935.5
745.97	1943.69
746.155	1925.26
746.34	2240.65
746.525	2091.15
746.71	1910.93
746.895	1808.53
747.079	1943.69
747.264	1876.11
747.449	2003.08
747.634	1869.97
747.819	2138.25
748.003	1898.64
748.188	1646.74
748.373	1872.01
748.557	1919.12
748.742	1964.17
748.927	1863.82
749.111	1652.88
749.296	1886.35
749.481	1896.59
749.665	1808.53
749.85	1607.83
750.034	1917.07
750.219	1845.39
750.404	1570.96
750.588	1632.4
750.773	1726.61
750.957	1786
751.141	1556.63
751.326	1732.75
751.51	1665.17
751.695	1687.7
751.879	1720.46
752.064	1745.04
752.248	1755.28
752.432	1835.15
752.617	1605.78
752.801	1685.65
752.985	1624.21
753.17	1839.25
753.354	1613.97
753.538	1478.8
753.722	1642.64
753.907	1566.87
754.091	1487
754.275	1472.66
754.459	1394.84
754.643	1517.72
754.828	1558.67
755.012	1448.08
755.196	1454.23
755.38	1583.25
755.564	1446.04
755.748	1333.4
755.932	1609.87
756.116	1570.96
756.3	1521.81
756.484	1403.03
756.668	1548.44
756.852	1269.91
757.036	1265.82
757.22	1380.5
757.404	1415.32
757.588	1400.98
757.772	1357.97
757.956	1376.41
758.14	1626.26
758.323	1249.43
758.507	1376.41
758.691	1247.38
758.875	1495.19
759.059	1532.05
759.242	1198.23
759.426	1300.63
759.61	1321.11
759.794	1179.8
759.977	1241.24
760.161	1437.84
760.345	1357.97
760.528	1253.53
760.712	1097.88
760.895	1083.55
761.079	1120.41
761.263	1022.11
761.446	872.61
761.63	936.09
761.813	1212.57
761.997	1003.68
762.18	950.43
762.364	1175.7
762.547	839.84
762.731	1087.64
762.914	956.57
763.098	831.65
763.281	1046.68
763.464	999.58
763.648	995.48
763.831	968.86
764.015	938.14
764.198	1126.55
764.381	966.81
764.564	927.9
764.748	1118.36
764.931	1140.89
765.114	923.8
765.297	1061.02
765.481	954.52
765.664	1087.64
765.847	936.09
766.03	983.2
766.213	934.04
766.397	1126.55
766.58	886.94
766.763	1085.59
766.946	987.29
767.129	927.9
767.312	948.38
767.495	1034.39
767.678	956.57
767.861	1081.5
768.044	1042.59
768.227	1101.98
768.41	1081.5
768.593	1222.81
768.776	1200.28
768.959	1054.87
769.142	1220.76
769.324	1138.84
769.507	1038.49
769.69	1110.17
769.873	1128.6
770.056	1458.32
770.239	1044.63
770.421	1085.59
770.604	1179.8
770.787	1101.98
770.97	1065.11
771.152	907.42
771.335	1241.24
771.518	911.52
771.7	897.18
771.883	1085.59
772.066	1003.68
772.248	1104.03
772.431	1083.55
772.613	1024.16
772.796	1097.88
772.978	1173.66
773.161	1124.51
773.343	929.95
773.526	983.2
773.708	798.88
773.891	796.83
774.073	962.72
774.256	981.15
774.438	1288.34
774.621	827.55
774.803	938.14
774.985	1015.96
775.168	1077.4
775.35	960.67
775.532	991.39
775.715	868.51
775.897	1091.74
776.079	833.69
776.261	886.94
776.444	987.29
776.626	940.19
776.808	944.28
776.99	778.4
777.173	983.2
777.355	845.98
777.537	764.06
777.719	866.46
777.901	958.62
778.083	911.52
778.265	733.34
778.447	905.37
778.629	784.54
778.811	831.65
778.993	942.24
779.175	899.23
779.357	907.42
779.539	759.97
779.721	794.78
779.903	856.22
780.085	860.32
780.267	923.8
780.449	725.15
780.631	817.31
780.812	977.05
780.994	882.85
781.176	782.49
781.358	747.68
781.54	905.37
781.721	1024.16
781.903	653.47
782.085	635.04
782.267	1013.92
782.448	649.38
782.63	665.76
782.812	692.38
782.993	919.71
783.175	860.32
783.357	671.9
783.538	829.6
783.72	710.82
783.901	770.21
784.083	739.49
784.264	719.01
784.446	649.38
784.627	596.13
784.809	546.98
784.99	649.38
785.172	858.27
785.353	805.02
785.535	624.8
785.716	546.98
785.897	606.37
786.079	649.38
786.26	594.08
786.441	676
786.623	534.69
786.804	655.52
786.985	583.84
787.167	557.22
787.348	698.53
787.529	655.52
787.71	643.23
787.891	651.42
788.073	592.03
788.254	512.16
788.435	733.34
788.616	585.89
788.797	503.97
788.978	600.23
789.159	565.41
789.34	651.42
789.522	608.42
789.703	594.08
789.884	610.47
790.065	626.85
790.246	925.85
790.427	604.32
790.607	596.13
790.788	616.61
790.969	557.22
791.15	735.39
791.331	485.54
791.512	575.65
791.693	499.88
791.874	606.37
792.054	628.9
792.235	610.47
792.416	477.35
792.597	497.83
792.778	602.27
792.958	503.97
793.139	616.61
793.32	565.41
793.5	368.81
793.681	632.99
793.862	647.33
794.042	413.86
794.223	385.19
794.404	467.11
794.584	327.85
794.765	440.48
794.945	542.88
795.126	520.35
795.306	553.12
795.487	592.03
795.667	362.66
795.848	452.77
796.028	579.75
796.209	561.31
796.389	706.72
796.57	475.3
796.75	405.67
796.93	600.23
797.111	323.75
797.291	381.09
797.471	610.47
797.652	477.35
797.832	366.76
798.012	444.58
798.192	428.2
798.373	444.58
798.553	430.24
798.733	497.83
798.913	372.9
799.093	471.2
799.274	329.89
799.454	512.16
799.634	665.76
799.814	661.66
799.994	467.11
800.174	557.22
800.354	555.17
800.534	301.22
800.714	458.92
800.894	264.36
801.074	315.56
801.254	346.28
801.434	520.35
801.614	340.13
801.794	331.94
801.974	4991.07
802.154	223.4
802.334	538.79
802.514	321.7
802.693	460.96
802.873	274.6
803.053	534.69
803.233	571.55
803.413	485.54
803.592	256.17
803.772	284.84
803.952	463.01
804.131	293.03
804.311	460.96
804.491	501.92
804.67	311.46
804.85	348.33
805.03	389.28
805.209	594.08
805.389	415.91
805.568	340.13
805.748	352.42
805.928	379.04
806.107	555.17
806.287	454.82
806.466	444.58
806.646	379.04
806.825	413.86
807.004	333.99
807.184	354.47
807.363	424.1
807.543	409.76
807.722	243.88
807.901	526.5
808.081	333.99
808.26	92.33
808.439	415.91
808.619	299.17
808.798	266.41
808.977	458.92
809.156	489.64
809.336	436.39
809.515	383.14
809.694	260.26
809.873	299.17
810.052	233.64
810.231	434.34
810.411	489.64
810.59	546.98
810.769	299.17
810.948	391.33
811.127	204.97
811.306	372.9
811.485	243.88
811.664	413.86
811.843	366.76
812.022	440.48
812.201	178.34
812.38	266.41
812.559	164.01
812.737	393.38
812.916	133.29
813.095	260.26
813.274	399.52
813.453	397.48
813.632	338.09
813.811	422.05
813.989	219.3
814.168	385.19
814.347	86.19
814.526	258.21
814.704	544.93
814.883	503.97
815.062	84.14
815.24	309.41
815.419	86.19
815.598	358.57
815.776	69.8
815.955	256.17
816.133	133.29
816.312	360.61
816.49	221.35
816.669	147.62
816.847	290.98
817.026	415.91
817.204	202.92
817.383	288.93
817.561	223.4
817.74	456.87
817.918	247.97
818.097	69.8
818.275	213.16
818.453	362.66
818.632	293.03
818.81	237.74
818.988	256.17
819.167	137.38
819.345	147.62
819.523	198.82
819.701	305.32
819.879	372.9
820.058	278.69
820.236	184.49
820.414	313.51
820.592	295.08
820.77	149.67
820.948	116.9
821.127	284.84
821.305	352.42
821.483	84.14
821.661	227.5
821.839	366.76
822.017	215.21
822.195	194.73
822.373	225.45
822.551	272.55
822.729	331.94
822.907	278.69
823.085	237.74
823.262	258.21
823.44	223.4
823.618	245.93
823.796	225.45
823.974	215.21
824.152	198.82
824.329	225.45
824.507	198.82
824.685	407.72
824.863	266.41
825.04	143.53
825.218	262.31
825.396	436.39
825.574	342.18
825.751	258.21
825.929	209.06
826.107	170.15
826.284	262.31
826.462	182.44
826.639	153.77
826.817	61.61
826.994	233.64
827.172	53.42
827.349	295.08
827.527	225.45
827.704	245.93
827.882	309.41
828.059	104.62
828.237	309.41
828.414	407.72
828.591	69.8
828.769	192.68
828.946	98.47
829.124	344.23
829.301	295.08
829.478	213.16
829.655	293.03
829.833	266.41
830.01	-77.65
830.187	307.37
830.364	288.93
830.542	266.41
830.719	180.39
830.896	237.74
831.073	385.19
831.25	313.51
831.427	166.06
831.604	256.17
831.782	223.4
831.959	299.17
832.136	207.02
832.313	321.7
832.49	129.19
832.667	190.63
832.844	133.29
833.021	463.01
833.198	274.6
833.374	297.13
833.551	196.78
833.728	153.77
833.905	299.17
834.082	51.37
834.259	215.21
834.436	309.41
834.612	184.49
834.789	325.8
834.966	227.5
835.143	141.48
835.319	61.61
835.496	288.93
835.673	260.26
835.85	247.97
836.026	323.75
836.203	366.76
836.38	98.47
836.556	178.34
836.733	88.23
836.909	397.48
837.086	166.06
837.262	18.6
837.439	186.54
837.616	135.34
837.792	229.54
837.968	69.8
838.145	-24.4
838.321	207.02
838.498	145.58
838.674	219.3
838.851	329.89
839.027	166.06
839.203	82.09
839.38	233.64
839.556	59.56
839.732	288.93
839.909	137.38
840.085	168.1
840.261	209.06
840.437	290.98
840.614	219.3
840.79	211.11
840.966	346.28
841.142	237.74
841.318	153.77
841.494	133.29
841.671	323.75
841.847	182.44
842.023	61.61
842.199	209.06
842.375	407.72
842.551	-18.26
842.727	67.75
842.903	278.69
843.079	37.03
843.255	364.71
843.431	147.62
843.607	213.16
843.783	-81.75
843.959	295.08
844.134	116.9
844.31	258.21
844.486	139.43
844.662	166.06
844.838	293.03
845.013	63.66
845.189	409.76
845.365	274.6
845.541	182.44
845.716	135.34
845.892	305.32
846.068	161.96
846.244	141.48
846.419	55.47
846.595	125.1
846.77	112.81
846.946	196.78
847.122	118.95
847.297	176.3
847.473	426.15
847.648	-63.32
847.824	149.67
847.999	-61.27
848.175	182.44
848.35	284.84
848.526	299.17
848.701	397.48
848.876	329.89
849.052	309.41
849.227	198.82
849.403	223.4
849.578	182.44
849.753	250.02
849.929	159.91
850.104	61.61
850.279	268.45
850.454	264.36
850.63	129.19
850.805	290.98
850.98	258.21
851.155	178.34
851.33	233.64
851.505	14.51
851.681	407.72
851.856	22.7
852.031	174.25
852.206	231.59
852.381	14.51
852.556	108.71
852.731	116.9
852.906	356.52
853.081	256.17
853.256	250.02
853.431	143.53
853.606	84.14
853.781	133.29
853.956	-94.04
854.131	118.95
854.305	106.67
854.48	157.86
854.655	39.08
854.83	59.56
855.005	192.68
855.18	290.98
855.354	147.62
855.529	67.75
855.704	225.45
855.879	270.5
856.053	53.42
856.228	118.95
856.403	-34.64
856.577	313.51
856.752	-14.17
856.926	182.44
857.101	313.51
857.276	43.18
857.45	225.45
857.625	149.67
857.799	313.51
857.974	211.11
858.148	-65.36
858.323	161.96
858.497	200.87
858.672	67.75
858.846	147.62
859.02	217.26
859.195	53.42
859.369	108.71
859.543	176.3
859.718	116.9
859.892	282.79
860.066	211.11
860.241	55.47
860.415	92.33
860.589	184.49
860.763	147.62
860.938	114.86
861.112	108.71
861.286	192.68
861.46	274.6
861.634	121
861.808	34.99
861.982	104.62
862.157	18.6
862.331	84.14
862.505	-44.88
862.679	69.8
862.853	170.15
863.027	123.05
863.201	192.68
863.375	159.91
863.549	147.62
863.722	211.11
863.896	186.54
864.07	143.53
864.244	207.02
864.418	190.63
864.592	149.67
864.766	225.45
864.939	121
865.113	82.09
865.287	192.68
865.461	71.85
865.634	229.54
865.808	24.75
865.982	32.94
866.156	-10.07
866.329	22.7
866.503	20.65
866.676	184.49
866.85	166.06
867.024	34.99
867.197	260.26
867.371	67.75
867.544	217.26
867.718	20.65
867.891	247.97
868.065	-67.41
868.238	200.87
868.412	331.94
868.585	73.9
868.759	84.14
868.932	190.63
869.105	-20.31
869.279	164.01
869.452	26.79
869.625	270.5
869.799	80.04
869.972	-71.51
870.145	98.47
870.319	329.89
870.492	88.23
870.665	96.43
870.838	51.37
871.011	-83.8
871.185	57.51
871.358	149.67
871.531	237.74
871.704	112.81
871.877	108.71
872.05	8.36
872.223	-5.97
872.396	352.42
872.569	280.74
872.742	34.99
872.915	186.54
873.088	147.62
873.261	41.13
873.434	137.38
873.607	51.37
873.78	393.38
873.953	16.55
874.126	143.53
874.299	194.73
874.471	133.29
874.644	67.75
874.817	211.11
874.99	325.8
875.163	121
875.335	239.78
875.508	139.43
875.681	262.31
875.853	145.58
876.026	207.02
876.199	250.02
876.371	90.28
876.544	155.82
876.717	227.5
876.889	65.71
877.062	170.15
877.234	4.27
877.407	166.06
877.579	121
877.752	170.15
877.924	358.57
878.097	198.82
878.269	147.62
878.442	116.9
878.614	250.02
878.786	221.35
878.959	43.18
879.131	121
879.303	-38.74
879.476	141.48
879.648	237.74
879.82	4.27
879.993	135.34
880.165	92.33
880.337	-42.84
880.509	129.19
880.681	-22.36
880.854	92.33
881.026	245.93
881.198	174.25
881.37	118.95
881.542	166.06
881.714	82.09
881.886	92.33
882.058	151.72
882.23	245.93
882.402	80.04
882.574	151.72
882.746	352.42
882.918	229.54
883.09	153.77
883.262	77.99
883.434	227.5
883.606	-18.26
883.778	86.19
883.95	233.64
884.122	139.43
884.293	315.56
884.465	77.99
884.637	168.1
884.809	57.51
884.98	192.68
885.152	196.78
885.324	141.48
885.496	18.6
885.667	75.95
885.839	100.52
886.011	94.38
886.182	272.55
886.354	276.65
886.525	143.53
886.697	127.14
886.869	10.41
887.04	84.14
887.212	239.78
887.383	188.58
887.555	182.44
887.726	108.71
887.897	69.8
888.069	112.81
888.24	256.17
888.412	108.71
888.583	96.43
888.754	28.84
888.926	-104.28
889.097	77.99
889.268	-38.74
889.44	55.47
889.611	-18.26
889.782	-26.45
889.953	-59.22
890.125	102.57
890.296	-14.17
890.467	80.04
890.638	37.03
890.809	149.67
890.98	8.36
891.151	227.5
891.323	198.82
891.494	-42.84
891.665	149.67
891.836	57.51
892.007	159.91
892.178	166.06
892.349	176.3
892.52	161.96
892.691	53.42
892.862	77.99
893.032	-30.55
893.203	90.28
893.374	55.47
893.545	233.64
893.716	202.92
893.887	311.46
894.057	63.66
894.228	63.66
894.399	108.71
894.57	368.81
894.74	135.34
894.911	207.02
895.082	98.47
895.253	-14.17
895.423	200.87
895.594	213.16
895.764	264.36
895.935	-34.64
896.106	61.61
896.276	8.36
896.447	157.86
896.617	-20.31
896.788	-63.32
896.958	-24.4
897.129	63.66
897.299	8.36
897.47	204.97
897.64	139.43
897.81	127.14
897.981	227.5
898.151	-10.07
898.322	149.67
898.492	284.84
898.662	-12.12
898.832	139.43
899.003	73.9
899.173	217.26
899.343	34.99
899.513	20.65
