Data from USB4F104151__13__11-55-29-143.txt Node

Date: Wed Feb 19 11:55:29 EST 2025
User: louis
Spectrometer: USB4F10415
Trigger mode: 4
Integration Time (sec): 2.250200E-1
Scans to average: 1
Electric dark correction enabled: true
Nonlinearity correction enabled: false
Boxcar width: 0
XAxis mode: Wavelengths
Number of Pixels in Spectrum: 3648
>>>>>Begin Spectral Data<<<<<
178.204	-787.79
178.424	-787.79
178.644	-787.79
178.864	-822.6
179.084	-763.21
179.304	189.1
179.524	78.51
179.744	-27.99
179.964	-148.82
180.184	215.72
180.404	133.8
180.624	-232.79
180.844	-97.62
181.064	37.55
181.283	111.27
181.503	-154.96
181.723	-103.76
181.943	-114
182.163	477.86
182.383	-210.26
182.602	-243.03
182.822	385.7
183.042	252.58
183.262	-240.98
183.482	-177.49
183.701	244.39
183.921	232.1
184.141	-226.64
184.361	-150.87
184.58	223.91
184.8	217.77
185.02	-228.69
185.239	29.35
185.459	260.77
185.679	346.79
185.898	-208.21
186.118	-224.59
186.338	225.96
186.557	264.87
186.777	-259.41
186.997	-193.87
187.216	201.38
187.436	576.16
187.655	-142.68
187.875	-30.04
188.095	129.7
188.314	389.8
188.534	-42.32
188.753	-271.7
188.973	391.84
189.192	430.76
189.412	-116.05
189.631	-251.22
189.851	387.75
190.07	504.48
190.29	-144.72
190.509	-265.55
190.729	191.14
190.948	438.95
191.168	10.92
191.387	-224.59
191.607	148.14
191.826	275.11
192.045	-169.3
192.265	-140.63
192.484	297.64
192.704	189.1
192.923	-222.55
193.142	15.02
193.362	344.74
193.581	363.17
193.8	-103.76
194.02	-157.01
194.239	252.58
194.458	359.08
194.678	-75.09
194.897	-193.87
195.116	307.88
195.335	316.07
195.555	-150.87
195.774	-259.41
195.993	332.45
196.212	209.58
196.432	-52.56
196.651	-271.7
196.87	133.8
197.089	533.15
197.308	-171.35
197.528	-56.66
197.747	66.22
197.966	254.63
198.185	-62.8
198.404	-257.36
198.623	354.98
198.842	303.78
199.062	-95.57
199.281	-107.86
199.5	244.39
199.719	271.01
199.938	-185.68
200.157	-202.07
200.376	445.09
200.595	428.71
200.814	-146.77
201.033	-214.35
201.252	432.8
201.471	246.44
201.69	-216.4
201.909	-128.34
202.128	293.54
202.347	281.25
202.566	-157.01
202.785	-322.9
203.004	96.94
203.223	559.78
203.442	-185.68
203.661	-232.79
203.879	324.26
204.098	410.28
204.317	-204.11
204.536	-64.85
204.755	256.68
204.974	285.35
205.193	-283.98
205.411	-111.96
205.63	330.41
205.849	348.84
206.068	-236.88
206.287	-249.17
206.505	367.27
206.724	209.58
206.943	-204.11
207.162	-216.4
207.381	234.15
207.599	158.38
207.818	-118.1
208.037	-224.59
208.255	240.3
208.474	250.53
208.693	-185.68
208.911	-154.96
209.13	303.78
209.349	268.97
209.567	-79.19
209.786	-167.25
210.005	344.74
210.223	187.05
210.442	-357.71
210.661	-181.59
210.879	219.82
211.098	139.94
211.316	-109.91
211.535	-146.77
211.753	311.97
211.972	287.4
212.191	-124.24
212.409	-105.81
212.628	318.12
212.846	90.79
213.065	-191.83
213.283	-19.8
213.502	168.62
213.72	199.34
213.938	-171.35
214.157	-228.69
214.375	338.6
214.594	197.29
214.812	-134.48
215.031	-193.87
215.249	273.06
215.467	217.77
215.686	-36.18
215.904	-118.1
216.122	187.05
216.341	463.52
216.559	-44.37
216.778	-77.14
216.996	443.04
217.214	90.79
217.432	-73.04
217.651	-279.89
217.869	209.58
218.087	191.14
218.306	-224.59
218.524	-183.63
218.742	135.85
218.96	453.28
219.179	-161.11
219.397	-183.63
219.615	494.24
219.833	279.21
220.051	-197.97
220.27	-103.76
220.488	418.47
220.706	291.49
220.924	-181.59
221.142	-177.49
221.36	291.49
221.578	273.06
221.796	-148.82
222.015	-17.75
222.233	215.72
222.451	455.33
222.669	-64.85
222.887	-109.91
223.105	129.7
223.323	203.43
223.541	-71
223.759	-175.44
223.977	131.75
224.195	430.76
224.413	-114
224.631	-114
224.849	193.19
225.067	475.81
225.285	-85.33
225.503	-251.22
225.721	58.03
225.939	215.72
226.157	-58.71
226.375	96.94
226.592	129.7
226.81	191.14
227.028	90.79
227.246	-157.01
227.464	289.45
227.682	318.12
227.9	-111.96
228.117	-93.52
228.335	254.63
228.553	207.53
228.771	-152.91
228.989	-148.82
229.206	277.16
229.424	219.82
229.642	-77.14
229.86	-152.91
230.077	428.71
230.295	199.34
230.513	-3.41
230.731	-163.15
230.948	467.62
231.166	402.08
231.384	-54.61
231.601	-114
231.819	447.14
232.037	135.85
232.254	-111.96
232.472	-103.76
232.689	178.86
232.907	324.26
233.125	-208.21
233.342	-202.07
233.56	197.29
233.777	113.32
233.995	-167.25
234.213	-42.32
234.43	324.26
234.648	185
234.865	-111.96
235.083	-62.8
235.3	150.18
235.518	289.45
235.735	-58.71
235.953	-177.49
236.17	266.92
236.388	135.85
236.605	39.59
236.822	-77.14
237.04	223.91
237.257	189.1
237.475	-126.29
237.692	-167.25
237.909	314.02
238.127	137.9
238.344	-7.51
238.562	-111.96
238.779	139.94
238.996	-3.41
239.214	-79.19
239.431	-87.38
239.648	152.23
239.865	254.63
240.083	-77.14
240.3	-189.78
240.517	180.9
240.735	168.62
240.952	53.93
241.169	-195.92
241.386	279.21
241.603	176.81
241.821	-148.82
242.038	-118.1
242.255	391.84
242.472	103.08
242.689	-114
242.907	-93.52
243.124	201.38
243.341	166.57
243.558	-103.76
243.775	-210.26
243.992	76.46
244.209	318.12
244.426	39.59
244.643	-122.2
244.86	166.57
245.078	297.64
245.295	-73.04
245.512	-171.35
245.729	156.33
245.946	236.2
246.163	-136.53
246.38	-169.3
246.597	185
246.814	121.51
247.031	-42.32
247.248	-193.87
247.464	348.84
247.681	158.38
247.898	-118.1
248.115	-30.04
248.332	76.46
248.549	338.6
248.766	-85.33
248.983	-114
249.2	307.88
249.417	346.79
249.633	-111.96
249.85	-17.75
250.067	178.86
250.284	141.99
250.501	-197.97
250.717	-116.05
250.934	37.55
251.151	203.43
251.368	-52.56
251.585	-191.83
251.801	209.58
252.018	35.5
252.235	-44.37
252.451	-173.39
252.668	141.99
252.885	297.64
253.102	-23.89
253.318	-146.77
253.535	109.23
253.752	137.9
253.968	-165.2
254.185	-218.45
254.401	271.01
254.618	271.01
254.835	-120.15
255.051	-89.43
255.268	256.68
255.484	271.01
255.701	-83.28
255.917	-134.48
256.134	109.23
256.351	246.44
256.567	-191.83
256.784	-23.89
257	-13.65
257.217	367.27
257.433	19.11
257.65	-101.72
257.866	314.02
258.082	21.16
258.299	-64.85
258.515	-32.08
258.732	178.86
258.948	76.46
259.165	-85.33
259.381	-173.39
259.597	289.45
259.814	182.95
260.03	-144.72
260.246	-111.96
260.463	363.17
260.679	316.07
260.895	-97.62
261.112	-109.91
261.328	146.09
261.544	43.69
261.761	-56.66
261.977	-107.86
262.193	8.87
262.409	354.98
262.626	-17.75
262.842	-66.9
263.058	127.66
263.274	316.07
263.49	-44.37
263.707	-134.48
263.923	266.92
264.139	-3.41
264.355	-73.04
264.571	15.02
264.787	303.78
265.004	322.21
265.22	-23.89
265.436	-105.81
265.652	266.92
265.868	250.53
266.084	-150.87
266.3	-97.62
266.516	43.69
266.732	256.68
266.948	-81.24
267.164	-193.87
267.38	279.21
267.596	258.73
267.812	117.42
268.028	-128.34
268.244	146.09
268.46	242.34
268.676	-73.04
268.892	-9.56
269.108	43.69
269.324	19.11
269.54	-220.5
269.756	-87.38
269.972	62.12
270.188	103.08
270.403	-109.91
270.619	-124.24
270.835	223.91
271.051	182.95
271.267	-216.4
271.483	-152.91
271.698	258.73
271.914	293.54
272.13	-46.42
272.346	-134.48
272.562	137.9
272.777	393.89
272.993	-44.37
273.209	21.16
273.425	201.38
273.64	-89.43
273.856	-73.04
274.072	-226.64
274.287	19.11
274.503	305.83
274.719	23.21
274.934	-226.64
275.15	-17.75
275.366	92.84
275.581	-116.05
275.797	-3.41
276.012	94.89
276.228	17.07
276.444	-77.14
276.659	68.27
276.875	78.51
277.09	39.59
277.306	-56.66
277.521	-17.75
277.737	166.57
277.952	152.23
278.168	-77.14
278.383	-46.42
278.599	119.46
278.814	244.39
279.03	-144.72
279.245	47.79
279.461	137.9
279.676	225.96
279.892	-25.94
280.107	-64.85
280.322	78.51
280.538	305.83
280.753	-87.38
280.969	-27.99
281.184	305.83
281.399	344.74
281.615	-34.13
281.83	127.66
282.045	-21.84
282.26	53.93
282.476	-40.28
282.691	103.08
282.906	174.76
283.122	213.67
283.337	-44.37
283.552	-48.47
283.767	117.42
283.983	137.9
284.198	-81.24
284.413	-103.76
284.628	21.16
284.843	211.62
285.058	-19.8
285.274	-62.8
285.489	41.64
285.704	199.34
285.919	-38.23
286.134	2.73
286.349	29.35
286.564	41.64
286.779	37.55
286.995	4.78
287.21	-30.04
287.425	195.24
287.64	-25.94
287.855	172.71
288.07	0.68
288.285	397.99
288.5	53.93
288.715	-40.28
288.93	111.27
289.145	58.03
289.36	-60.76
289.575	-42.32
289.79	293.54
290.004	86.7
290.219	-3.41
290.434	-83.28
290.649	23.21
290.864	94.89
291.079	-101.72
291.294	29.35
291.509	234.15
291.724	123.56
291.938	-50.52
292.153	-75.09
292.368	185
292.583	170.66
292.798	37.55
293.012	68.27
293.227	246.44
293.442	68.27
293.657	88.75
293.871	-3.41
294.086	154.28
294.301	326.31
294.516	-11.61
294.73	49.83
294.945	55.98
295.16	137.9
295.374	43.69
295.589	43.69
295.804	127.66
296.018	164.52
296.233	-9.56
296.447	70.31
296.662	170.66
296.877	346.79
297.091	-11.61
297.306	-30.04
297.52	160.42
297.735	209.58
297.949	105.13
298.164	-152.91
298.378	172.71
298.593	25.26
298.807	-1.37
299.022	-5.46
299.236	361.13
299.451	53.93
299.665	-50.52
299.88	33.45
300.094	352.93
300.309	129.7
300.523	37.55
300.737	-95.57
300.952	201.38
301.166	213.67
301.381	-25.94
301.595	-101.72
301.809	127.66
302.024	193.19
302.238	-62.8
302.452	160.42
302.667	254.63
302.881	234.15
303.095	31.4
303.309	25.26
303.524	62.12
303.738	113.32
303.952	-13.65
304.166	19.11
304.381	-138.58
304.595	275.11
304.809	35.5
305.023	-21.84
305.237	37.55
305.452	141.99
305.666	-77.14
305.88	92.84
306.094	242.34
306.308	148.14
306.522	-62.8
306.736	117.42
306.95	281.25
307.164	125.61
307.379	45.74
307.593	125.61
307.807	320.17
308.021	205.48
308.235	137.9
308.449	-120.15
308.663	139.94
308.877	502.44
309.091	68.27
309.305	29.35
309.519	39.59
309.733	291.49
309.947	-50.52
310.161	-95.57
310.374	199.34
310.588	348.84
310.802	-71
311.016	-3.41
311.23	215.72
311.444	74.41
311.658	55.98
311.872	174.76
312.085	250.53
312.299	326.31
312.513	139.94
312.727	-122.2
312.941	23.21
313.154	189.1
313.368	-30.04
313.582	-44.37
313.796	217.77
314.009	193.19
314.223	123.56
314.437	119.46
314.651	230.06
314.864	107.18
315.078	23.21
315.292	-150.87
315.505	72.36
315.719	180.9
315.933	86.7
316.146	-103.76
316.36	92.84
316.573	223.91
316.787	178.86
317.001	90.79
317.214	10.92
317.428	250.53
317.641	2.73
317.855	-17.75
318.068	230.06
318.282	207.53
318.495	117.42
318.709	31.4
318.922	135.85
319.136	395.94
319.349	103.08
319.563	-46.42
319.776	209.58
319.99	-91.48
320.203	25.26
320.417	-36.18
320.63	193.19
320.843	258.73
321.057	98.99
321.27	-5.46
321.483	299.69
321.697	260.77
321.91	47.79
322.124	-19.8
322.337	111.27
322.55	98.99
322.763	39.59
322.977	-25.94
323.19	8.87
323.403	72.36
323.617	105.13
323.83	170.66
324.043	146.09
324.256	246.44
324.469	-204.11
324.683	92.84
324.896	154.28
325.109	74.41
325.322	-140.63
325.535	76.46
325.748	301.73
325.962	10.92
326.175	-15.7
326.388	-58.71
326.601	230.06
326.814	49.83
327.027	-21.84
327.24	88.75
327.453	-30.04
327.666	209.58
327.879	195.24
328.092	-1.37
328.305	277.16
328.518	29.35
328.731	-30.04
328.944	-17.75
329.157	172.71
329.37	33.45
329.583	146.09
329.796	162.47
330.009	-116.05
330.222	199.34
330.435	31.4
330.648	37.55
330.861	199.34
331.073	187.05
331.286	82.6
331.499	-3.41
331.712	-25.94
331.925	180.9
332.138	70.31
332.35	53.93
332.563	78.51
332.776	277.16
332.989	-27.99
333.202	-109.91
333.414	168.62
333.627	119.46
333.84	-85.33
334.053	29.35
334.265	127.66
334.478	35.5
334.691	-71
334.903	66.22
335.116	29.35
335.329	82.6
335.541	29.35
335.754	264.87
335.966	113.32
336.179	199.34
336.392	45.74
336.604	58.03
336.817	166.57
337.029	125.61
337.242	-48.47
337.454	64.17
337.667	185
337.88	260.77
338.092	60.07
338.305	78.51
338.517	133.8
338.729	172.71
338.942	86.7
339.154	-140.63
339.367	17.07
339.579	158.38
339.792	-99.67
340.004	-21.84
340.217	146.09
340.429	201.38
340.641	-114
340.854	-128.34
341.066	137.9
341.278	287.4
341.491	139.94
341.703	31.4
341.915	80.55
342.128	246.44
342.34	53.93
342.552	39.59
342.764	86.7
342.977	94.89
343.189	101.03
343.401	68.27
343.613	8.87
343.826	121.51
344.038	-54.61
344.25	70.31
344.462	60.07
344.674	135.85
344.886	-103.76
345.099	4.78
345.311	191.14
345.523	98.99
345.735	-130.39
345.947	0.68
346.159	131.75
346.371	78.51
346.583	53.93
346.795	121.51
347.007	68.27
347.219	201.38
347.431	94.89
347.643	182.95
347.855	162.47
348.067	322.21
348.279	-118.1
348.491	-11.61
348.703	363.17
348.915	148.14
349.127	-68.95
349.339	29.35
349.551	115.37
349.763	344.74
349.975	51.88
350.187	70.31
350.399	311.97
350.61	207.53
350.822	-36.18
351.034	68.27
351.246	176.81
351.458	217.77
351.669	96.94
351.881	41.64
352.093	338.6
352.305	189.1
352.517	-27.99
352.728	51.88
352.94	230.06
353.152	293.54
353.363	-107.86
353.575	-34.13
353.787	430.76
353.999	273.06
354.21	111.27
354.422	-101.72
354.633	111.27
354.845	242.34
355.057	25.26
355.268	35.5
355.48	236.2
355.692	15.02
355.903	-15.7
356.115	-60.76
356.326	-75.09
356.538	359.08
356.749	17.07
356.961	111.27
357.172	199.34
357.384	68.27
357.595	289.45
357.807	8.87
358.018	129.7
358.23	168.62
358.441	60.07
358.653	88.75
358.864	178.86
359.075	-34.13
359.287	49.83
359.498	27.31
359.709	174.76
359.921	217.77
360.132	6.83
360.344	-99.67
360.555	148.14
360.766	152.23
360.977	-97.62
361.189	72.36
361.4	201.38
361.611	250.53
361.823	119.46
362.034	68.27
362.245	2.73
362.456	178.86
362.667	139.94
362.879	-134.48
363.09	152.23
363.301	232.1
363.512	31.4
363.723	-38.23
363.935	121.51
364.146	277.16
364.357	4.78
364.568	53.93
364.779	43.69
364.99	383.65
365.201	-7.51
365.412	199.34
365.623	17.07
365.834	223.91
366.045	43.69
366.256	107.18
366.467	260.77
366.678	168.62
366.889	-19.8
367.1	-23.89
367.311	281.25
367.522	92.84
367.733	92.84
367.944	41.64
368.155	158.38
368.366	281.25
368.577	58.03
368.788	189.1
368.999	101.03
369.209	236.2
369.42	109.23
369.631	400.04
369.842	258.73
370.053	170.66
370.264	-15.7
370.474	-25.94
370.685	219.82
370.896	213.67
371.107	123.56
371.317	12.97
371.528	223.91
371.739	338.6
371.95	111.27
372.16	96.94
372.371	-34.13
372.582	146.09
372.792	-30.04
373.003	125.61
373.214	182.95
373.424	207.53
373.635	-15.7
373.846	121.51
374.056	207.53
374.267	211.62
374.477	121.51
374.688	-1.37
374.898	195.24
375.109	195.24
375.319	74.41
375.53	113.32
375.74	242.34
375.951	158.38
376.161	158.38
376.372	64.17
376.582	154.28
376.793	236.2
377.003	70.31
377.214	-21.84
377.424	219.82
377.635	232.1
377.845	-13.65
378.055	203.43
378.266	27.31
378.476	215.72
378.686	10.92
378.897	88.75
379.107	297.64
379.317	297.64
379.528	-79.19
379.738	109.23
379.948	31.4
380.158	279.21
380.369	129.7
380.579	86.7
380.789	156.33
380.999	160.42
381.21	180.9
381.42	228.01
381.63	203.43
381.84	277.16
382.05	66.22
382.261	117.42
382.471	375.46
382.681	92.84
382.891	146.09
383.101	135.85
383.311	92.84
383.521	123.56
383.731	12.97
383.941	168.62
384.151	135.85
384.361	139.94
384.571	49.83
384.781	84.65
384.991	326.31
385.201	479.91
385.411	160.42
385.621	80.55
385.831	283.3
386.041	207.53
386.251	141.99
386.461	146.09
386.671	207.53
386.881	217.77
387.091	12.97
387.301	182.95
387.511	213.67
387.72	137.9
387.93	137.9
388.14	-44.37
388.35	230.06
388.56	326.31
388.769	60.07
388.979	74.41
389.189	55.98
389.399	191.14
389.609	37.55
389.818	37.55
390.028	215.72
390.238	307.88
390.447	-38.23
390.657	66.22
390.867	109.23
391.076	43.69
391.286	66.22
391.496	29.35
391.705	193.19
391.915	354.98
392.125	62.12
392.334	191.14
392.544	389.8
392.753	107.18
392.963	86.7
393.172	12.97
393.382	53.93
393.591	397.99
393.801	-32.08
394.01	88.75
394.22	240.3
394.429	121.51
394.639	158.38
394.848	66.22
395.058	332.45
395.267	109.23
395.477	129.7
395.686	119.46
395.895	488.1
396.105	397.99
396.314	117.42
396.524	105.13
396.733	195.24
396.942	316.07
397.152	-103.76
397.361	232.1
397.57	281.25
397.78	283.3
397.989	154.28
398.198	250.53
398.407	232.1
398.617	197.29
398.826	98.99
399.035	31.4
399.244	293.54
399.453	232.1
399.663	17.07
399.872	-36.18
400.081	6.83
400.29	357.03
400.499	-3.41
400.708	131.75
400.917	236.2
401.127	207.53
401.336	66.22
401.545	363.17
401.754	361.13
401.963	387.75
402.172	127.66
402.381	-17.75
402.59	205.48
402.799	275.11
403.008	230.06
403.217	105.13
403.426	264.87
403.635	-30.04
403.844	27.31
404.053	2.73
404.262	129.7
404.471	412.32
404.68	119.46
404.888	139.94
405.097	260.77
405.306	236.2
405.515	90.79
405.724	-3.41
405.933	367.27
406.142	244.39
406.35	170.66
406.559	133.8
406.768	268.97
406.977	492.2
407.185	109.23
407.394	137.9
407.603	113.32
407.812	326.31
408.02	189.1
408.229	152.23
408.438	262.82
408.646	-11.61
408.855	78.51
409.064	47.79
409.272	211.62
409.481	336.55
409.69	-5.46
409.898	12.97
410.107	256.68
410.315	363.17
410.524	133.8
410.733	127.66
410.941	314.02
411.15	334.5
411.358	141.99
411.567	328.36
411.775	320.17
411.984	242.34
412.192	199.34
412.401	109.23
412.609	395.94
412.818	322.21
413.026	172.71
413.234	111.27
413.443	264.87
413.651	60.07
413.86	-27.99
414.068	334.5
414.276	512.67
414.485	236.2
414.693	150.18
414.901	287.4
415.11	346.79
415.318	281.25
415.526	146.09
415.734	225.96
415.943	268.97
416.151	424.61
416.359	115.37
416.567	182.95
416.776	359.08
416.984	410.28
417.192	287.4
417.4	117.42
417.608	101.03
417.817	84.65
418.025	217.77
418.233	230.06
418.441	182.95
418.649	174.76
418.857	141.99
419.065	146.09
419.273	277.16
419.481	215.72
419.689	236.2
419.897	139.94
420.105	185
420.313	389.8
420.521	199.34
420.729	217.77
420.937	277.16
421.145	115.37
421.353	154.28
421.561	291.49
421.769	391.84
421.977	211.62
422.185	297.64
422.393	103.08
422.601	436.9
422.809	342.69
423.017	172.71
423.224	191.14
423.432	490.15
423.64	371.37
423.848	103.08
424.056	195.24
424.263	512.67
424.471	389.8
424.679	307.88
424.887	115.37
425.094	516.77
425.302	486.05
425.51	180.9
425.718	258.73
425.925	412.32
426.133	197.29
426.341	330.41
426.548	289.45
426.756	383.65
426.964	453.28
427.171	271.01
427.379	266.92
427.586	412.32
427.794	600.74
428.001	352.93
428.209	326.31
428.417	668.32
428.624	588.45
428.832	377.51
429.039	350.89
429.247	547.49
429.454	447.14
429.662	488.1
429.869	422.56
430.076	590.5
430.284	445.09
430.491	404.13
430.699	471.72
430.906	772.77
431.114	594.59
431.321	486.05
431.528	502.44
431.736	535.2
431.943	608.93
432.15	567.97
432.358	522.91
432.565	948.89
432.772	397.99
432.979	633.51
433.187	555.68
433.394	967.32
433.601	641.7
433.808	604.83
434.016	762.53
434.223	817.82
434.43	862.88
434.637	664.22
434.844	934.56
435.052	864.93
435.259	877.21
435.466	842.4
435.673	840.35
435.88	1104.54
436.087	1145.5
436.294	1233.56
436.501	1049.24
436.708	1094.3
436.915	1114.78
437.122	1084.06
437.329	895.64
437.537	1182.36
437.743	1340.05
437.95	1331.86
438.157	1262.23
438.364	1407.64
438.571	1374.87
438.778	1256.09
438.985	1485.46
439.192	1651.35
439.399	1528.47
439.606	1364.63
439.813	1725.07
440.02	1946.25
440.227	1979.02
440.433	1608.34
440.64	1624.72
440.847	1749.65
441.054	1710.74
441.261	1841.81
441.467	1995.4
441.674	1864.33
441.881	2151.05
442.088	1946.25
442.294	2009.74
442.501	2267.78
442.708	2275.98
442.914	2267.78
443.121	2361.99
443.328	2474.63
443.534	2785.92
443.741	2454.15
443.948	2388.61
444.154	2814.59
444.361	3156.6
444.568	2761.34
444.774	2712.19
444.981	2779.78
445.187	3232.38
445.394	3097.21
445.6	3027.58
445.807	3437.17
446.013	3291.77
446.22	3220.09
446.426	3484.28
446.633	3785.33
446.839	4065.9
447.046	3439.22
447.252	3951.21
447.459	4239.98
447.665	3938.93
447.871	4213.35
448.078	4721.25
448.284	4495.97
448.491	4762.21
448.697	4704.87
448.903	4815.46
449.11	4993.63
449.316	5022.3
449.522	5280.35
449.728	5329.5
449.935	5788.24
450.141	5485.14
450.347	5882.45
450.553	5511.77
450.76	6107.73
450.966	6120.01
451.172	6335.05
451.378	6468.17
451.584	6500.94
451.791	7039.55
451.997	6808.13
452.203	6965.82
452.409	7322.17
452.615	7676.47
452.821	7174.72
453.027	7090.75
453.233	8124.97
453.44	7621.17
453.646	7828.02
453.852	7977.52
454.058	8299.05
454.264	8167.98
454.47	8897.06
454.676	8434.22
454.882	9144.86
455.088	8765.99
455.294	8872.48
455.5	9251.36
455.705	9376.28
455.911	9423.39
456.117	8997.41
456.323	9429.53
456.529	9091.62
456.735	9720.34
456.941	9445.91
457.147	9597.46
457.352	9556.5
457.558	9390.62
457.764	9699.86
457.97	9447.96
458.176	9861.65
458.381	9835.03
458.587	9648.66
458.793	9703.96
458.999	9355.8
459.204	10254.86
459.41	10068.5
459.616	9587.22
459.821	9665.05
460.027	9386.52
460.233	9675.29
460.438	9312.8
460.644	9476.63
460.85	9218.59
461.055	9196.06
461.261	9216.54
461.466	8516.14
461.672	8219.18
461.878	8829.48
462.083	8509.99
462.289	8430.12
462.494	8286.76
462.7	7952.95
462.905	7639.61
463.111	8374.83
463.316	8307.24
463.522	7954.99
463.727	7971.38
463.932	8022.58
464.138	7905.84
464.343	8016.43
464.549	7799.35
464.754	8356.4
464.959	8030.77
465.165	7766.58
465.37	7473.72
465.575	7592.5
465.781	7727.67
465.986	7610.93
466.191	7447.1
466.397	7356.99
466.602	7301.69
466.807	7230.01
467.012	7281.21
467.218	7438.91
467.423	7455.29
467.628	7082.56
467.833	7653.94
468.038	7303.74
468.244	7258.68
468.449	7563.83
468.654	7322.17
468.859	7428.67
469.064	7291.45
469.269	7074.37
469.474	7049.79
469.679	7584.31
469.885	7164.48
470.09	7385.66
470.295	7180.86
470.5	7277.12
470.705	7291.45
470.91	7004.74
471.115	7148.09
471.32	7488.06
471.525	7598.65
471.73	7215.68
471.935	7004.74
472.139	7182.91
472.344	7361.08
472.549	7160.38
472.754	7168.57
472.959	7250.49
473.164	7344.7
473.369	7146.05
473.574	7522.87
473.778	7465.53
473.983	7451.19
474.188	7643.7
474.393	7211.58
474.598	7492.15
474.802	7166.53
475.007	7238.2
475.212	7506.49
475.417	7115.33
475.621	7309.88
475.826	7113.28
476.031	7123.52
476.235	6992.45
476.44	7350.84
476.645	7158.33
476.849	7184.96
477.054	7086.65
477.259	7141.95
477.463	7176.77
477.668	7029.31
477.872	7506.49
478.077	7019.07
478.282	6873.67
478.486	6924.86
478.691	7051.84
478.895	7100.99
479.1	7209.53
479.304	7055.93
479.509	6928.96
479.713	7277.12
479.918	6933.06
480.122	6748.74
480.326	7170.62
480.531	7017.02
480.735	7037.5
480.94	6814.27
481.144	7346.75
481.348	6853.19
481.553	7062.08
481.757	6836.8
481.961	7080.51
482.166	7215.68
482.37	6900.29
482.574	6773.32
482.778	6951.49
482.983	7354.94
483.187	6867.52
483.391	7064.13
483.595	7088.7
483.8	7096.89
484.004	7227.96
484.208	7111.23
484.412	7377.47
484.616	7412.28
484.821	7137.85
485.025	7291.45
485.229	7227.96
485.433	7279.16
485.637	7260.73
485.841	7295.55
486.045	7416.38
486.249	7580.22
486.453	7221.82
486.657	7434.81
486.861	7496.25
487.065	7367.23
487.269	7488.06
487.473	7246.4
487.677	7594.55
487.881	8061.49
488.085	7506.49
488.289	7696.95
488.493	7707.19
488.697	8059.44
488.901	7875.12
489.105	7578.17
489.309	8088.11
489.512	8159.79
489.716	7932.47
489.92	7965.23
490.124	8131.12
490.328	8423.98
490.531	7959.09
490.735	8135.21
490.939	8098.35
491.143	8276.52
491.346	8202.8
491.55	8159.79
491.754	8395.31
491.958	8385.07
492.161	8374.83
492.365	8321.58
492.569	8393.26
492.772	8684.07
492.976	8458.79
493.18	8329.77
493.383	8817.19
493.587	8673.83
493.79	8817.19
493.994	8454.7
494.197	8782.37
494.401	8835.62
494.605	8452.65
494.808	8553
495.012	9017.89
495.215	9185.82
495.419	8829.48
495.622	8925.73
495.825	9087.52
496.029	8935.97
496.232	9038.37
496.436	8970.79
496.639	9253.41
496.843	9161.25
497.046	9015.84
497.249	9351.71
497.453	9239.07
497.656	9130.53
497.859	9329.18
498.063	9380.38
498.266	9597.46
498.469	9296.41
498.673	9404.96
498.876	9271.84
499.079	9568.79
499.282	9441.82
499.485	9576.98
499.689	9634.33
499.892	10000.91
500.095	9589.27
500.298	9775.64
500.501	9536.03
500.705	9990.67
500.908	9949.71
501.111	9720.34
501.314	9980.43
501.517	10211.85
501.72	10213.9
501.923	9937.43
502.126	10160.66
502.329	10617.35
502.532	10281.49
502.735	10218
502.938	10510.86
503.141	10517
503.344	10283.53
503.547	10646.02
503.75	10396.17
503.953	10836.49
504.156	10879.49
504.359	10746.37
504.562	10537.48
504.765	10840.58
504.968	11155.97
505.17	10873.35
505.373	10906.12
505.576	10983.94
505.779	11149.82
505.982	10994.18
506.185	11176.45
506.387	11373.05
506.59	11524.6
506.793	11416.06
506.996	11493.88
507.198	11799.03
507.401	11997.68
507.604	11467.26
507.807	11786.74
508.009	12057.07
508.212	12022.26
508.415	12098.03
508.617	12026.36
508.82	12304.88
509.022	12272.11
509.225	12444.14
509.428	12194.29
509.63	12536.3
509.833	12354.03
510.035	12808.68
510.238	12665.32
510.44	12665.32
510.643	13013.48
510.845	13031.91
511.048	12718.57
511.25	13101.54
511.453	13019.62
511.655	13552.09
511.858	13246.94
512.06	13603.29
512.262	13582.81
512.465	13388.25
512.667	13513.18
512.87	13713.88
513.072	14174.67
513.274	14096.85
513.477	14227.92
513.679	14264.79
513.881	14510.54
514.084	14328.27
514.286	14205.39
514.488	14541.26
514.69	15102.4
514.893	15004.1
515.095	14961.09
515.297	15212.99
515.499	15100.36
515.701	15288.77
515.904	15327.68
516.106	15892.92
516.308	16089.53
516.51	15849.91
516.712	15858.1
516.914	16167.35
517.116	16335.28
517.318	16355.76
517.52	16329.14
517.722	16744.88
517.925	16791.98
518.127	16863.66
518.329	17226.15
518.531	16896.42
518.733	17377.7
518.935	17230.24
519.136	17615.26
519.338	17623.45
519.54	17875.35
519.742	18061.72
519.944	18293.14
520.146	18512.27
520.348	18751.88
520.55	18497.94
520.752	18610.57
520.954	18737.55
521.155	18755.98
521.357	19065.22
521.559	19308.93
521.761	19718.53
521.963	19652.99
522.164	19763.58
522.366	19616.13
522.568	19992.95
522.77	20588.91
522.971	20398.45
523.173	20154.74
523.375	20629.87
523.576	20484.47
523.778	20629.87
523.98	21037.42
524.181	21498.21
524.383	21156.2
524.584	21209.45
524.786	21129.58
524.988	21377.38
525.189	21776.73
525.391	21881.18
525.592	21698.91
525.794	21977.44
525.995	22233.43
526.197	21924.19
526.398	22370.65
526.6	22610.26
526.801	22722.9
527.003	22507.86
527.204	22577.49
527.406	23083.34
527.607	22944.08
527.808	23107.91
528.01	22923.6
528.211	23169.35
528.412	23468.36
528.614	23523.65
528.815	23333.19
529.016	24064.32
529.218	23675.2
529.419	23773.5
529.62	23750.98
529.822	23988.54
530.023	24088.89
530.224	23949.63
530.425	24164.67
530.626	23855.42
530.828	23576.9
531.029	24287.54
531.23	24246.58
531.431	24293.69
531.632	24269.11
531.833	24168.76
532.035	24400.18
532.236	24209.72
532.437	24340.79
532.638	24338.74
532.839	24533.3
533.04	25147.69
533.241	24764.72
533.442	24865.07
533.643	24998.19
533.844	24695.09
534.045	25229.61
534.246	24590.64
534.447	24785.2
534.648	24824.11
534.849	24973.61
535.05	25000.24
535.251	24901.93
535.451	25071.92
535.652	25258.28
535.853	24785.2
536.054	25106.73
536.255	25157.93
536.456	25178.41
536.657	25669.92
536.857	25121.07
537.058	25428.26
537.259	25196.84
537.46	25102.64
537.66	24994.09
537.861	25430.31
538.062	25411.88
538.263	25262.38
538.463	25299.24
538.664	25473.32
538.865	25327.91
539.065	25612.58
539.266	25024.81
539.466	25233.71
539.667	25178.41
539.868	25747.75
540.068	25401.64
540.269	25561.38
540.469	25768.23
540.67	25217.32
540.87	25405.73
541.071	25614.63
541.271	25778.47
541.472	25616.68
541.672	25614.63
541.873	25680.16
542.073	25323.82
542.274	25876.77
542.474	25467.17
542.675	25469.22
542.875	26097.95
543.075	25366.82
543.276	25499.94
543.476	25960.73
543.676	25739.55
543.877	25610.53
544.077	25551.14
544.277	26032.41
544.478	26095.9
544.678	25844
544.878	25671.97
545.078	25739.55
545.279	25786.66
545.479	25334.06
545.679	25932.06
545.879	25788.71
546.079	25887.01
546.28	25602.34
546.48	25618.72
546.68	26128.67
546.88	26026.27
547.08	25704.74
547.28	25932.06
547.48	25555.24
547.68	26067.23
547.88	25878.82
548.081	25993.5
548.281	25770.27
548.481	25800.99
548.681	26143
548.881	25831.71
549.081	25870.62
549.28	25846.05
549.48	26143
549.68	25868.58
549.88	26401.05
550.08	25950.49
550.28	26200.35
550.48	26542.36
550.68	26292.51
550.88	26118.43
551.08	26257.69
551.279	26124.57
551.479	26081.56
551.679	26650.9
551.879	26251.55
552.079	26292.51
552.278	26284.31
552.478	26272.03
552.678	26179.87
552.878	26460.44
553.077	26341.66
553.277	26140.96
553.477	26491.16
553.676	26325.27
553.876	26380.57
554.076	26003.74
554.275	26276.12
554.475	25790.75
554.674	26667.28
554.874	25983.26
555.074	26149.15
555.273	26251.55
555.473	26417.43
555.672	26298.65
555.872	26063.13
556.071	26151.2
556.271	26491.16
556.47	26269.98
556.67	25798.94
556.869	26028.32
557.068	26208.54
557.268	26333.46
557.467	25825.57
557.667	26458.39
557.866	25813.28
558.065	25882.91
558.265	25692.45
558.464	25663.78
558.663	25792.8
558.863	25993.5
559.062	25844
559.261	25516.33
559.461	26358.04
559.66	25700.64
559.859	25809.18
560.058	25446.69
560.258	25764.13
560.457	25332.01
560.656	25858.34
560.855	25211.18
561.054	26003.74
561.253	25332.01
561.453	25334.06
561.652	25569.57
561.851	25368.87
562.05	25549.09
562.249	24654.13
562.448	25211.18
562.647	25258.28
562.846	25024.81
563.045	25211.18
563.244	24629.55
563.443	25119.02
563.642	24944.94
563.841	24748.34
564.04	24777.01
564.239	24846.64
564.438	24959.28
564.637	24578.36
564.836	24525.11
565.035	24234.3
565.234	24240.44
565.432	24092.99
565.631	24193.34
565.83	24195.39
566.029	24207.67
566.228	23945.53
566.427	24015.16
566.625	23611.71
566.824	23701.82
567.023	23648.58
567.222	23445.83
567.42	23599.43
567.619	23871.81
567.818	23241.03
568.016	23460.16
568.215	23597.38
568.414	23484.74
568.612	23363.91
568.811	23281.99
569.01	23294.28
569.208	23050.57
569.407	23013.71
569.605	22786.38
569.804	23081.29
570.002	22894.93
570.201	22561.11
570.4	22573.39
570.598	22364.5
570.797	22493.52
570.995	22100.31
571.193	22212.95
571.392	22266.2
571.59	21645.66
571.789	22061.4
571.987	21864.8
572.186	22206.81
572.384	21715.3
572.582	21944.67
572.781	22253.91
572.979	21573.99
573.177	21619.04
573.376	21721.44
573.574	21606.75
573.772	21676.38
573.971	21307.75
574.169	21131.62
574.367	21125.48
574.565	21379.43
574.763	21117.29
574.962	21010.79
575.16	20953.45
575.358	21111.14
575.556	20738.41
575.754	20683.12
575.952	20375.92
576.151	20865.39
576.349	20773.23
576.547	20396.4
576.745	20554.1
576.943	20640.11
577.141	20693.36
577.339	20466.03
577.537	20513.14
577.735	20468.08
577.933	20048.25
578.131	20193.65
578.329	19804.54
578.527	19976.57
578.725	20242.81
578.923	19800.44
579.121	19714.43
579.319	19911.03
579.516	19943.8
579.714	19931.51
579.912	19911.03
580.11	19333.51
580.308	19716.48
580.506	19558.78
580.704	19083.66
580.901	19419.52
581.099	19763.58
581.297	19620.22
581.495	19184.01
581.692	19308.93
581.89	19345.8
582.088	19378.56
582.285	19374.47
582.483	19251.59
582.681	19546.5
582.878	19300.74
583.076	19007.88
583.274	19057.03
583.471	18989.45
583.669	18946.44
583.866	18665.87
584.064	19071.37
584.262	18532.75
584.459	18921.87
584.657	18833.8
584.854	19261.83
585.052	18993.54
585.249	18579.86
585.447	18872.71
585.644	18280.85
585.841	19063.18
586.039	18672.01
586.236	18485.65
586.434	18618.77
586.631	18463.12
586.828	18485.65
587.026	18319.76
587.223	18459.02
587.42	18418.07
587.618	18788.75
587.815	18399.63
588.012	18438.55
588.21	18426.26
588.407	18321.81
588.604	18074.01
588.801	18246.04
588.999	18416.02
589.196	18274.71
589.393	18043.29
589.59	18786.7
589.787	18289.04
589.984	17979.8
590.182	17848.73
590.379	18254.23
590.576	17910.17
590.773	17877.4
590.97	17615.26
591.167	18213.27
591.364	18254.23
591.561	17756.57
591.758	17856.92
591.955	18114.97
592.152	18151.83
592.349	17623.45
592.546	17889.69
592.743	17830.3
592.94	17648.03
593.137	17779.1
593.334	17965.46
593.531	17711.52
593.727	17756.57
593.924	17740.19
594.121	17447.33
594.318	17801.63
594.515	17813.91
594.712	17729.95
594.908	17828.25
595.105	17533.34
595.302	17519.01
595.499	17351.07
595.696	17621.41
595.892	17514.91
596.089	17928.6
596.286	17697.18
596.482	17396.13
596.679	17666.46
596.876	17531.3
597.072	17476
597.269	17201.57
597.466	17465.76
597.662	17547.68
597.859	17217.96
598.055	17447.33
598.252	17598.88
598.448	17762.72
598.645	17598.88
598.841	17168.8
599.038	17547.68
599.234	17648.03
599.431	17549.73
599.627	17172.9
599.824	17580.45
600.02	17494.43
600.217	17432.99
600.413	17416.61
600.609	17437.09
600.806	17957.27
601.002	17203.62
601.198	17035.69
601.395	17541.53
601.591	17314.21
601.787	17514.91
601.984	17293.73
602.18	17209.76
602.376	17389.99
602.572	17209.76
602.769	17766.81
602.965	17353.12
603.161	17668.51
603.357	17144.23
603.553	17263.01
603.75	17240.48
603.946	17123.75
604.142	17224.1
604.338	17207.72
604.534	17482.14
604.73	16970.15
604.926	16988.58
605.122	17510.82
605.318	17291.68
605.514	17170.85
605.71	16980.39
605.906	17303.97
606.102	17269.16
606.298	17545.63
606.494	17105.32
606.69	17471.9
606.886	17146.28
607.082	17119.65
607.278	17437.09
607.474	16892.33
607.67	17402.27
607.866	16640.43
608.062	17377.7
608.257	16875.95
608.453	17222.05
608.649	17408.42
608.845	17203.62
609.041	16925.1
609.236	17379.75
609.432	17064.36
609.628	17310.11
609.824	17152.42
610.019	16925.1
610.215	17066.41
610.411	17246.63
610.606	17217.96
610.802	17203.62
610.998	16974.25
611.193	17451.42
611.389	16980.39
611.584	17236.39
611.78	16912.81
611.976	17144.23
612.171	17365.41
612.367	17418.66
612.562	17306.02
612.758	17220
612.953	17017.25
613.149	17289.63
613.344	17353.12
613.539	17432.99
613.735	17316.26
613.93	17240.48
614.126	16828.84
614.321	17242.53
614.517	17113.51
614.712	17414.56
614.907	17306.02
615.103	17258.92
615.298	17099.17
615.493	17201.57
615.688	16996.78
615.884	17594.78
616.079	17011.11
616.274	17230.24
616.47	17090.98
616.665	17201.57
616.86	17291.68
617.055	17191.33
617.25	16937.38
617.445	17285.54
617.641	16753.07
617.836	17328.55
618.031	16998.82
618.226	17275.3
618.421	16931.24
618.616	17492.38
618.811	17127.85
619.006	17365.41
619.201	16904.62
619.396	17303.97
619.591	16656.81
619.786	17217.96
619.981	16808.36
620.176	17279.39
620.371	16900.52
620.566	16972.2
620.761	16869.8
620.956	17095.08
621.151	16818.6
621.346	16832.94
621.541	16576.94
621.735	16892.33
621.93	16597.42
622.125	16384.43
622.32	16366
622.515	16609.71
622.709	16521.65
622.904	16449.97
623.099	16554.41
623.294	16695.72
623.488	16478.64
623.683	16445.87
623.878	16228.79
624.072	16462.26
624.267	16263.6
624.462	16247.22
624.656	16075.19
624.851	16378.29
625.046	16177.59
625.24	16079.29
625.435	15942.07
625.629	16140.72
625.824	16017.85
626.018	15989.17
626.213	15544.77
626.407	15860.15
626.602	15833.53
626.796	15864.25
626.991	15970.74
627.185	15516.09
627.38	15528.38
627.574	15327.68
627.768	15290.82
627.963	15405.5
628.157	15462.85
628.352	15585.72
628.546	15040.97
628.74	15622.59
628.935	15073.73
629.129	15268.29
629.323	15155.65
629.517	15194.56
629.712	15274.43
629.906	14811.59
630.1	14842.31
630.294	14991.81
630.489	15047.11
630.683	15083.97
630.877	14717.39
631.071	14805.45
631.265	14916.04
631.459	15006.15
631.653	14922.18
631.848	14772.68
632.042	14737.87
632.236	14676.43
632.43	14711.24
632.624	14561.74
632.818	14453.2
633.012	14449.1
633.206	14217.68
633.4	14580.17
633.594	14420.43
633.788	14367.18
633.982	14438.86
634.176	14436.81
634.369	14119.38
634.563	14035.41
634.757	13875.67
634.951	14262.74
635.145	14232.02
635.339	13914.58
635.533	13898.2
635.726	13855.19
635.92	13689.31
636.114	13642.2
636.308	13418.97
636.501	13521.37
636.695	13689.31
636.889	13224.42
637.083	13447.65
637.276	13494.75
637.47	12958.18
637.664	13056.48
637.857	13068.77
638.051	13306.34
638.244	13269.47
638.438	12919.27
638.632	13062.63
638.825	12653.03
639.019	12833.25
639.212	12751.34
639.406	12491.24
639.599	12409.33
639.793	12562.92
639.986	12212.72
640.18	12440.04
640.373	12358.13
640.567	12057.07
640.76	12280.3
640.954	11981.3
641.147	12171.76
641.34	11792.89
641.534	11805.17
641.727	11842.04
641.92	11923.96
642.114	11735.54
642.307	11629.05
642.5	11561.47
642.694	11440.64
642.887	11504.12
643.08	11502.08
643.273	11434.49
643.467	11139.58
643.66	10906.12
643.853	10793.48
644.046	10910.21
644.239	10693.13
644.432	10760.71
644.626	10660.36
644.819	10596.87
645.012	10883.59
645.205	10883.59
645.398	10760.71
645.591	10600.97
645.784	10535.43
645.977	10279.44
646.17	10334.73
646.363	10254.86
646.556	10058.26
646.749	9945.62
646.942	10256.91
647.135	10048.02
647.328	10088.98
647.521	10140.18
647.714	9830.93
647.907	9796.12
648.099	9746.97
648.292	9968.15
648.485	9884.18
648.678	9495.07
648.871	9669.14
649.064	9495.07
649.256	9601.56
649.449	9271.84
649.642	9394.72
649.835	9409.05
650.027	9128.48
650.22	9327.13
650.413	9343.52
650.605	9161.25
650.798	9095.71
650.991	9021.99
651.183	9073.18
651.376	9024.03
651.568	9116.19
651.761	9071.14
651.954	8995.36
652.146	8765.99
652.339	8909.35
652.531	9011.75
652.724	8688.17
652.916	8694.31
653.109	8340.01
653.301	8755.75
653.494	8796.71
653.686	8489.51
653.879	8540.71
654.071	8614.44
654.263	8507.94
654.456	8563.24
654.648	8354.35
654.84	8284.72
655.033	8362.54
655.225	8536.62
655.417	8124.97
655.61	8419.88
655.802	8569.38
655.994	8481.32
656.186	8315.44
656.379	8145.45
656.571	8081.97
656.763	8120.88
656.955	7973.43
657.148	7989.81
657.34	8182.32
657.532	8026.67
657.724	7666.23
657.916	7830.07
658.108	8180.27
658.3	7776.82
658.492	7858.74
658.684	7486.01
658.876	7907.89
659.068	7727.67
659.26	7242.3
659.452	7338.55
659.644	7729.72
659.836	7836.21
660.028	7338.55
660.22	7301.69
660.412	7506.49
660.604	7336.51
660.796	7420.47
660.988	7201.34
661.18	7182.91
661.372	7324.22
661.563	7340.6
661.755	6920.77
661.947	7176.77
662.139	7057.98
662.331	6941.25
662.522	6988.35
662.714	6754.88
662.906	6957.63
663.097	6685.25
663.289	6613.57
663.481	6613.57
663.673	6814.27
663.864	6722.12
664.056	6761.03
664.247	6685.25
664.439	6828.61
664.631	6572.61
664.822	6603.33
665.014	6769.22
665.205	6429.26
665.397	6361.67
665.588	6359.63
665.78	6480.46
665.971	6441.54
666.163	6294.09
666.354	6093.39
666.546	6386.25
666.737	6328.91
666.929	6089.29
667.12	6214.22
667.311	6376.01
667.503	6163.02
667.694	6230.6
667.885	6177.36
668.077	6171.21
668.268	5956.18
668.459	5945.94
668.651	5810.77
668.842	6105.68
669.033	5978.7
669.224	5810.77
669.416	6171.21
669.607	5884.5
669.798	5687.89
669.989	5763.67
670.18	5626.45
670.371	5997.14
670.563	5614.16
670.754	5802.58
670.945	5663.32
671.136	6081.1
671.327	5589.59
671.518	5667.41
671.709	5589.59
671.9	5876.31
672.091	5831.25
672.282	5390.94
672.473	5364.31
672.664	5644.88
672.855	5513.81
673.046	5302.87
673.237	5519.96
673.428	5499.48
673.619	5519.96
673.809	5366.36
674	5567.06
674.191	5556.82
674.382	5411.42
674.573	5313.11
674.764	5460.57
674.954	5548.63
675.145	5139.04
675.336	5149.28
675.527	5243.48
675.717	5196.38
675.908	5309.02
676.099	5286.49
676.289	5134.94
676.48	5186.14
676.671	5270.11
676.861	5243.48
677.052	4995.68
677.243	5278.3
677.433	5071.45
677.624	5134.94
677.814	5073.5
678.005	5311.07
678.195	5392.98
678.386	5081.69
678.576	5077.6
678.767	5044.83
678.957	5116.51
679.148	5214.81
679.338	5128.8
679.529	5116.51
679.719	5012.06
679.909	5292.63
680.1	4942.43
680.29	5245.53
680.481	4829.79
680.671	5057.12
680.861	4954.72
681.052	5268.06
681.242	5202.52
681.432	5053.02
681.622	5059.17
681.813	4883.04
682.003	4958.82
682.193	4926.05
682.383	5005.92
682.573	4903.52
682.764	5126.75
682.954	4989.53
683.144	5300.83
683.334	5065.31
683.524	5048.93
683.714	5098.08
683.904	5012.06
684.094	4975.2
684.284	5104.22
684.474	5223
684.664	5007.97
684.854	5235.29
685.044	5059.17
685.234	4823.65
685.424	5046.88
685.614	5245.53
685.804	5175.9
685.994	4995.68
686.184	5040.73
686.374	5173.85
686.564	5112.41
686.753	5089.89
686.943	4852.32
687.133	5091.93
687.323	5057.12
687.513	4889.18
687.702	4954.72
687.892	5116.51
688.082	5032.54
688.272	5102.17
688.461	5077.6
688.651	5298.78
688.841	5067.36
689.03	5147.23
689.22	4891.23
689.41	5511.77
689.599	5184.09
689.789	5161.56
689.979	5223
690.168	5268.06
690.358	5317.21
690.547	5079.65
690.737	5223
690.926	5325.4
691.116	5315.16
691.305	5456.47
691.495	5268.06
691.684	5433.94
691.874	5499.48
692.063	5382.74
692.252	5356.12
692.442	5593.69
692.631	5489.24
692.82	5581.4
693.01	5593.69
693.199	5626.45
693.388	5640.79
693.578	5763.67
693.767	5771.86
693.956	5890.64
694.146	5821.01
694.335	5743.19
694.524	5722.71
694.713	6146.64
694.902	5904.98
695.092	5878.35
695.281	5907.02
695.47	6120.01
695.659	5861.97
695.848	5956.18
696.037	5933.65
696.226	6419.02
696.415	6246.99
696.604	6478.41
696.793	6214.22
696.982	6412.87
697.171	6648.39
697.36	6289.99
697.549	6302.28
697.738	6384.2
697.927	6480.46
698.116	6410.82
698.305	6623.81
698.494	6996.54
698.683	6894.15
698.872	6795.84
699.061	6634.05
699.25	7047.74
699.438	7041.6
699.627	6746.69
699.816	6957.63
700.005	6924.86
700.193	6926.91
700.382	7076.41
700.571	7070.27
700.76	7236.16
700.948	7555.64
701.137	7197.24
701.326	7266.88
701.514	7182.91
701.703	7483.96
701.892	7252.54
702.08	7256.64
702.269	7461.43
702.457	7281.21
702.646	7328.31
702.834	7309.88
703.023	7578.17
703.212	7811.64
703.4	7397.95
703.589	7514.68
703.777	7772.72
703.965	7479.86
704.154	7252.54
704.342	7655.99
704.531	7584.31
704.719	7578.17
704.907	7768.63
705.096	7662.13
705.284	7510.58
705.472	7815.73
705.661	7809.59
705.849	7637.56
706.037	8041.01
706.226	7750.2
706.414	7887.41
706.602	7668.28
706.79	7959.09
706.979	7971.38
707.167	7803.44
707.355	7694.9
707.543	8159.79
707.731	8174.13
707.919	8004.14
708.107	7895.6
708.296	7918.13
708.484	7670.33
708.672	8084.02
708.86	7731.76
709.048	8149.55
709.236	8098.35
709.424	8034.86
709.612	8032.82
709.8	7909.94
709.988	8127.02
710.176	7926.32
710.364	8088.11
710.551	8337.96
710.739	8204.85
710.927	7987.76
711.115	8153.65
711.303	8231.47
711.491	8200.75
711.679	8084.02
711.866	8092.21
712.054	8184.37
712.242	8137.26
712.43	7965.23
712.617	7846.45
712.805	8159.79
712.993	8120.88
713.181	7889.46
713.368	8170.03
713.556	8102.45
713.744	7854.64
713.931	7977.52
714.119	7787.06
714.306	8182.32
714.494	8004.14
714.682	8026.67
714.869	7776.82
715.057	8030.77
715.244	7922.23
715.432	8131.12
715.619	7916.08
715.807	8079.92
715.994	8034.86
716.182	7932.47
716.369	7891.51
716.556	8133.17
716.744	7762.48
716.931	7660.09
717.119	7971.38
717.306	8114.73
717.493	8073.78
717.681	7954.99
717.868	7911.99
718.055	8063.54
718.242	8071.73
718.43	7909.94
718.617	7983.66
718.804	7825.97
718.991	8163.89
719.179	7977.52
719.366	7694.9
719.553	8159.79
719.74	7879.22
719.927	7791.16
720.114	7752.24
720.301	7811.64
720.488	7621.17
720.676	7524.92
720.863	7731.76
721.05	8108.59
721.237	7895.6
721.424	7731.76
721.611	7889.46
721.798	7756.34
721.985	7703.09
722.172	7612.98
722.358	7670.33
722.545	7895.6
722.732	7787.06
722.919	7862.83
723.106	7723.57
723.293	7594.55
723.48	7653.94
723.667	7584.31
723.853	7561.78
724.04	7647.8
724.227	7914.03
724.414	7459.38
724.6	7422.52
724.787	7660.09
724.974	7760.44
725.161	7596.6
725.347	7418.43
725.534	7561.78
725.72	7860.79
725.907	7385.66
726.094	7520.82
726.28	7598.65
726.467	7434.81
726.653	7350.84
726.84	7383.61
727.027	7639.61
727.213	7399.99
727.4	7432.76
727.586	7397.95
727.773	7553.59
727.959	7537.21
728.145	7504.44
728.332	7178.81
728.518	7320.12
728.705	7361.08
728.891	7098.94
729.077	7369.27
729.264	7336.51
729.45	7230.01
729.636	7248.44
729.823	7189.05
730.009	7406.14
730.195	7381.56
730.382	7146.05
730.568	6994.5
730.754	7254.59
730.94	7162.43
731.126	7162.43
731.313	7139.9
731.499	7256.64
731.685	7162.43
731.871	7012.93
732.057	6869.57
732.243	7393.85
732.429	7236.16
732.615	7072.32
732.801	6963.78
732.987	6980.16
733.173	7055.93
733.359	6943.3
733.545	7053.89
733.731	7221.82
733.917	7041.6
734.103	7123.52
734.289	6908.48
734.475	7068.22
734.661	7230.01
734.847	6906.43
735.033	6799.94
735.219	7125.57
735.404	6900.29
735.59	6801.99
735.776	6613.57
735.962	6971.97
736.148	6961.73
736.333	6838.85
736.519	6664.77
736.705	6679.11
736.89	6873.67
737.076	6545.99
737.262	6535.75
737.447	6685.25
737.633	6570.57
737.819	6505.03
738.004	6539.85
738.19	6484.55
738.375	6677.06
738.561	6601.29
738.747	6550.09
738.932	6414.92
739.118	6969.92
739.303	6523.46
739.489	6345.29
739.674	6484.55
739.859	6289.99
740.045	6423.11
740.23	6281.8
740.416	6132.3
740.601	6515.27
740.786	6238.8
740.972	5956.18
741.157	6144.59
741.342	6009.42
741.528	6029.9
741.713	6136.4
741.898	6167.12
742.084	6124.11
742.269	6099.53
742.454	5974.61
742.639	6138.44
742.824	5937.74
743.01	6062.67
743.195	5960.27
743.38	5925.46
743.565	5993.04
743.75	5878.35
743.935	5800.53
744.12	5993.04
744.305	5691.99
744.49	5685.84
744.675	5657.17
744.86	5904.98
745.045	5784.15
745.23	5605.97
745.415	5517.91
745.6	5839.44
745.785	5509.72
745.97	5522.01
746.155	5493.33
746.34	5837.39
746.525	5435.99
746.71	5466.71
746.895	5161.56
747.079	5300.83
747.264	5349.98
747.449	5306.97
747.634	5306.97
747.819	5349.98
748.003	5192.28
748.188	5106.27
748.373	5026.4
748.557	5263.96
748.742	5188.19
748.927	5012.06
749.111	5081.69
749.296	5005.92
749.481	5024.35
749.665	4962.91
749.85	4778.59
750.034	4895.33
750.219	4837.98
750.404	4633.19
750.588	4530.79
750.773	4733.54
750.957	4829.79
751.141	4526.69
751.326	4612.71
751.51	4719.2
751.695	4493.93
751.879	4586.08
752.064	4721.25
752.248	4717.15
752.432	4688.48
752.617	4377.19
752.801	4350.57
752.985	4270.7
753.17	4532.84
753.354	4330.09
753.538	4110.96
753.722	4205.16
753.907	4237.93
754.091	4049.52
754.275	4115.05
754.459	4061.8
754.643	3949.17
754.828	3986.03
755.012	3994.22
755.196	3988.08
755.38	4074.09
755.564	3897.97
755.748	3943.02
755.932	4199.02
756.116	3961.45
756.3	3836.53
756.484	3756.66
756.668	3953.26
756.852	3613.3
757.036	3695.22
757.22	3490.42
757.404	3617.4
757.588	3523.19
757.772	3633.78
757.956	3621.49
758.14	3805.81
758.323	3474.04
758.507	3447.41
758.691	3541.62
758.875	3705.46
759.059	3703.41
759.242	3383.93
759.426	3336.82
759.61	3371.64
759.794	3269.24
759.977	3259
760.161	3658.35
760.345	3408.5
760.528	3328.63
760.712	3000.96
760.895	3095.16
761.079	3074.68
761.263	2871.93
761.446	2974.33
761.63	2771.58
761.813	3156.6
761.997	2927.23
762.18	2845.31
762.364	2976.38
762.547	2736.77
762.731	2968.19
762.914	2925.18
763.098	2624.13
763.281	2962.05
763.464	2937.47
763.648	2714.24
763.831	2681.47
764.015	2792.06
764.198	2925.18
764.381	2671.23
764.564	2822.78
764.748	2949.76
764.931	2744.96
765.114	2730.63
765.297	2710.15
765.481	2681.47
765.664	2747.01
765.847	2529.92
766.03	2704
766.213	2634.37
766.397	2759.3
766.58	2585.22
766.763	2740.86
766.946	2701.95
767.129	2689.67
767.312	2591.36
767.495	2601.6
767.678	2796.16
767.861	2884.22
768.044	2480.77
768.227	2685.57
768.41	2794.11
768.593	2708.1
768.776	2704
768.959	2587.27
769.142	2982.53
769.324	2613.89
769.507	2443.91
769.69	2566.79
769.873	2605.7
770.056	2904.7
770.239	2460.29
770.421	2706.05
770.604	2769.54
770.787	2558.6
770.97	2583.17
771.152	2361.99
771.335	2732.67
771.518	2294.41
771.7	2388.61
771.883	2554.5
772.066	2493.06
772.248	2493.06
772.431	2454.15
772.613	2392.71
772.796	2298.5
772.978	2509.44
773.161	2450.05
773.343	2169.48
773.526	2376.33
773.708	2071.18
773.891	2126.47
774.073	2212.49
774.256	2304.65
774.438	2566.79
774.621	2081.42
774.803	2198.15
774.985	2296.46
775.168	2290.31
775.35	2132.62
775.532	2110.09
775.715	2232.97
775.897	2316.94
776.079	2071.18
776.261	2132.62
776.444	2163.34
776.626	2060.94
776.808	2036.36
776.99	1936.01
777.173	2142.86
777.355	1964.68
777.537	2003.6
777.719	1987.21
777.901	1962.64
778.083	1870.48
778.265	1772.18
778.447	2026.12
778.629	1872.53
778.811	1872.53
778.993	1856.14
779.175	1780.37
779.357	1893.01
779.539	1731.22
779.721	1899.15
779.903	1772.18
780.085	1786.51
780.267	1852.05
780.449	1798.8
780.631	1784.46
780.812	1950.35
780.994	1737.36
781.176	1698.45
781.358	1594
781.54	1772.18
781.721	1802.9
781.903	1575.57
782.085	1551
782.267	1845.9
782.448	1491.6
782.63	1729.17
782.812	1557.14
782.993	1749.65
783.175	1692.3
783.357	1471.12
783.538	1649.3
783.72	1436.31
783.901	1641.11
784.083	1452.69
784.264	1491.6
784.446	1403.54
784.627	1243.8
784.809	1403.54
784.99	1313.43
785.172	1591.95
785.353	1383.06
785.535	1335.96
785.716	1159.83
785.897	1266.33
786.079	1376.92
786.26	1374.87
786.441	1352.34
786.623	1237.66
786.804	1188.5
786.985	1286.81
787.167	1274.52
787.348	1309.33
787.529	1247.9
787.71	1333.91
787.891	1264.28
788.073	1157.79
788.254	1043.1
788.435	1340.05
788.616	1131.16
788.797	1149.59
788.978	1192.6
789.159	1151.64
789.34	1165.98
789.522	1225.37
789.703	1045.15
789.884	1043.1
790.065	1223.32
790.246	1403.54
790.427	1182.36
790.607	1168.02
790.788	1155.74
790.969	1036.95
791.15	1102.49
791.331	1096.35
791.512	1055.39
791.693	1018.52
791.874	899.74
792.054	1196.7
792.235	1082.01
792.416	1008.28
792.597	838.3
792.778	1088.15
792.958	975.52
793.139	1073.82
793.32	981.66
793.5	803.49
793.681	1071.77
793.862	1088.15
794.042	934.56
794.223	717.47
794.404	873.12
794.584	758.43
794.765	965.28
794.945	959.13
795.126	950.94
795.306	1030.81
795.487	977.56
795.667	795.29
795.848	797.34
796.028	957.08
796.209	938.65
796.389	952.99
796.57	842.4
796.75	686.75
796.93	760.48
797.111	778.91
797.291	846.49
797.471	1069.72
797.652	789.15
797.832	762.53
798.012	952.99
798.192	840.35
798.373	696.99
798.553	713.38
798.733	881.31
798.913	711.33
799.093	746.14
799.274	744.1
799.454	799.39
799.634	883.36
799.814	993.95
799.994	746.14
800.174	715.42
800.354	828.06
800.534	533.15
800.714	694.94
800.894	488.1
801.074	588.45
801.254	633.51
801.434	854.69
801.614	684.7
801.794	623.27
801.974	5657.17
802.154	643.74
802.334	750.24
802.514	596.64
802.693	653.98
802.873	531.11
803.053	866.97
803.233	819.87
803.413	705.18
803.592	596.64
803.772	596.64
803.952	623.27
804.131	615.07
804.311	703.14
804.491	635.55
804.67	555.68
804.85	537.25
805.03	639.65
805.209	774.81
805.389	610.98
805.568	617.12
805.748	623.27
805.928	578.21
806.107	760.48
806.287	682.66
806.466	623.27
806.646	559.78
806.825	617.12
807.004	567.97
807.184	688.8
807.363	635.55
807.543	668.32
807.722	488.1
807.901	711.33
808.081	565.92
808.26	281.25
808.439	625.31
808.619	479.91
808.798	479.91
808.977	662.18
809.156	688.8
809.336	621.22
809.515	584.35
809.694	502.44
809.873	479.91
810.052	488.1
810.231	561.83
810.411	672.42
810.59	742.05
810.769	492.2
810.948	527.01
811.127	369.32
811.306	441
811.485	408.23
811.664	600.74
811.843	615.07
812.022	602.79
812.201	461.48
812.38	365.22
812.559	393.89
812.737	586.4
812.916	359.08
813.095	328.36
813.274	651.94
813.453	574.11
813.632	510.63
813.811	555.68
813.989	318.12
814.168	641.7
814.347	281.25
814.526	412.32
814.704	635.55
814.883	641.7
815.062	266.92
815.24	395.94
815.419	359.08
815.598	545.44
815.776	199.34
815.955	395.94
816.133	283.3
816.312	363.17
816.49	324.26
816.669	303.78
816.847	371.37
817.026	529.06
817.204	436.9
817.383	303.78
817.561	258.73
817.74	498.34
817.918	438.95
818.097	418.47
818.275	354.98
818.453	574.11
818.632	477.86
818.81	352.93
818.988	266.92
819.167	332.45
819.345	338.6
819.523	344.74
819.701	434.85
819.879	551.59
820.058	490.15
820.236	324.26
820.414	457.38
820.592	367.27
820.77	289.45
820.948	193.19
821.127	350.89
821.305	475.81
821.483	207.53
821.661	455.33
821.839	479.91
822.017	283.3
822.195	232.1
822.373	311.97
822.551	365.22
822.729	453.28
822.907	299.69
823.085	416.42
823.262	457.38
823.44	316.07
823.618	363.17
823.796	373.41
823.974	299.69
824.152	434.85
824.329	291.49
824.507	334.5
824.685	438.95
824.863	363.17
825.04	332.45
825.218	291.49
825.396	371.37
825.574	426.66
825.751	389.8
825.929	281.25
826.107	236.2
826.284	432.8
826.462	328.36
826.639	268.97
826.817	187.05
826.994	391.84
827.172	125.61
827.349	359.08
827.527	357.03
827.704	397.99
827.882	430.76
828.059	223.91
828.237	445.09
828.414	430.76
828.591	72.36
828.769	266.92
828.946	232.1
829.124	586.4
829.301	324.26
829.478	228.01
829.655	385.7
829.833	352.93
830.01	10.92
830.187	371.37
830.364	332.45
830.542	309.93
830.719	273.06
830.896	295.59
831.073	422.56
831.25	387.75
831.427	275.11
831.604	187.05
831.782	205.48
831.959	391.84
832.136	293.54
832.313	260.77
832.49	268.97
832.667	287.4
832.844	225.96
833.021	395.94
833.198	328.36
833.374	307.88
833.551	293.54
833.728	199.34
833.905	406.18
834.082	117.42
834.259	414.37
834.436	322.21
834.612	170.66
834.789	502.44
834.966	201.38
835.143	215.72
835.319	260.77
835.496	363.17
835.673	207.53
835.85	314.02
836.026	430.76
836.203	365.22
836.38	103.08
836.556	168.62
836.733	199.34
836.909	502.44
837.086	213.67
837.262	113.32
837.439	303.78
837.616	217.77
837.792	223.91
837.968	158.38
838.145	41.64
838.321	256.68
838.498	150.18
838.674	318.12
838.851	318.12
839.027	217.77
839.203	166.57
839.38	318.12
839.556	242.34
839.732	279.21
839.909	160.42
840.085	103.08
840.261	182.95
840.437	289.45
840.614	195.24
840.79	240.3
840.966	402.08
841.142	264.87
841.318	215.72
841.494	121.51
841.671	416.42
841.847	158.38
842.023	70.31
842.199	230.06
842.375	436.9
842.551	72.36
842.727	68.27
842.903	363.17
843.079	76.46
843.255	395.94
843.431	193.19
843.607	320.17
843.783	-46.42
843.959	297.64
844.134	23.21
844.31	232.1
844.486	197.29
844.662	131.75
844.838	258.73
845.013	131.75
845.189	397.99
845.365	293.54
845.541	137.9
845.716	285.35
845.892	361.13
846.068	129.7
846.244	185
846.419	187.05
846.595	113.32
846.77	191.14
846.946	250.53
847.122	96.94
847.297	148.14
847.473	527.01
847.648	27.31
847.824	191.14
847.999	111.27
848.175	123.56
848.35	250.53
848.526	326.31
848.701	336.55
848.876	328.36
849.052	258.73
849.227	152.23
849.403	289.45
849.578	154.28
849.753	250.53
849.929	248.49
850.104	80.55
850.279	291.49
850.454	246.44
850.63	258.73
850.805	281.25
850.98	340.65
851.155	148.14
851.33	268.97
851.505	144.04
851.681	418.47
851.856	111.27
852.031	238.25
852.206	271.01
852.381	125.61
852.556	105.13
852.731	68.27
852.906	316.07
853.081	230.06
853.256	285.35
853.431	154.28
853.606	203.43
853.781	168.62
853.956	10.92
854.131	191.14
854.305	166.57
854.48	176.81
854.655	0.68
854.83	152.23
855.005	281.25
855.18	330.41
855.354	148.14
855.529	72.36
855.704	168.62
855.879	311.97
856.053	47.79
856.228	103.08
856.403	203.43
856.577	350.89
856.752	-62.8
856.926	185
857.101	309.93
857.276	119.46
857.45	223.91
857.625	225.96
857.799	271.01
857.974	203.43
858.148	4.78
858.323	121.51
858.497	203.43
858.672	156.33
858.846	82.6
859.02	158.38
859.195	109.23
859.369	248.49
859.543	137.9
859.718	94.89
859.892	219.82
860.066	217.77
860.241	21.16
860.415	86.7
860.589	178.86
860.763	115.37
860.938	109.23
861.112	164.52
861.286	176.81
861.46	322.21
861.634	76.46
861.808	152.23
861.982	135.85
862.157	17.07
862.331	150.18
862.505	2.73
862.679	72.36
862.853	131.75
863.027	168.62
863.201	203.43
863.375	152.23
863.549	252.58
863.722	154.28
863.896	168.62
864.07	172.71
864.244	189.1
864.418	254.63
864.592	115.37
864.766	305.83
864.939	264.87
865.113	82.6
865.287	182.95
865.461	62.12
865.634	162.47
865.808	37.55
865.982	109.23
866.156	74.41
866.329	21.16
866.503	141.99
866.676	211.62
866.85	205.48
867.024	60.07
867.197	166.57
867.371	125.61
867.544	240.3
867.718	-77.14
867.891	266.92
868.065	47.79
868.238	244.39
868.412	256.68
868.585	119.46
868.759	148.14
868.932	150.18
869.105	21.16
869.279	185
869.452	-25.94
869.625	293.54
869.799	53.93
869.972	41.64
870.145	62.12
870.319	314.02
870.492	74.41
870.665	123.56
870.838	21.16
871.011	-122.2
871.185	68.27
871.358	80.55
871.531	320.17
871.704	76.46
871.877	166.57
872.05	68.27
872.223	-7.51
872.396	350.89
872.569	277.16
872.742	64.17
872.915	121.51
873.088	125.61
873.261	39.59
873.434	164.52
873.607	113.32
873.78	428.71
873.953	15.02
874.126	150.18
874.299	234.15
874.471	117.42
874.644	127.66
874.817	187.05
874.99	232.1
875.163	119.46
875.335	144.04
875.508	78.51
875.681	211.62
875.853	162.47
876.026	178.86
876.199	211.62
876.371	45.74
876.544	189.1
876.717	129.7
876.889	125.61
877.062	174.76
877.234	101.03
877.407	98.99
877.579	178.86
877.752	166.57
877.924	352.93
878.097	242.34
878.269	170.66
878.442	152.23
878.614	172.71
878.786	217.77
878.959	2.73
879.131	168.62
879.303	-68.95
879.476	66.22
879.648	201.38
879.82	-1.37
879.993	88.75
880.165	21.16
880.337	-64.85
880.509	29.35
880.681	6.83
880.854	80.55
881.026	168.62
881.198	150.18
881.37	131.75
881.542	84.65
881.714	146.09
881.886	82.6
882.058	201.38
882.23	166.57
882.402	96.94
882.574	113.32
882.746	330.41
882.918	297.64
883.09	96.94
883.262	125.61
883.434	191.14
883.606	-46.42
883.778	164.52
883.95	232.1
884.122	88.75
884.293	328.36
884.465	146.09
884.637	230.06
884.809	43.69
884.98	266.92
885.152	180.9
885.324	207.53
885.496	90.79
885.667	55.98
885.839	84.65
886.011	92.84
886.182	201.38
886.354	264.87
886.525	107.18
886.697	64.17
886.869	41.64
887.04	80.55
887.212	299.69
887.383	232.1
887.555	170.66
887.726	101.03
887.897	98.99
888.069	25.26
888.24	338.6
888.412	146.09
888.583	135.85
888.754	86.7
888.926	-11.61
889.097	101.03
889.268	25.26
889.44	39.59
889.611	2.73
889.782	-34.13
889.953	-17.75
890.125	168.62
890.296	51.88
890.467	111.27
890.638	-85.33
890.809	101.03
890.98	109.23
891.151	223.91
891.323	211.62
891.494	-13.65
891.665	111.27
891.836	156.33
892.007	92.84
892.178	107.18
892.349	168.62
892.52	62.12
892.691	160.42
892.862	78.51
893.032	-99.67
893.203	94.89
893.374	141.99
893.545	115.37
893.716	2.73
893.887	307.88
894.057	-71
894.228	37.55
894.399	105.13
894.57	332.45
894.74	88.75
894.911	158.38
895.082	156.33
895.253	-11.61
895.423	172.71
895.594	205.48
895.764	232.1
895.935	31.4
896.106	70.31
896.276	47.79
896.447	230.06
896.617	2.73
896.788	47.79
896.958	-36.18
897.129	125.61
897.299	49.83
897.47	232.1
897.64	154.28
897.81	131.75
897.981	166.57
898.151	62.12
898.322	164.52
898.492	150.18
898.662	-23.89
898.832	4.78
899.003	80.55
899.173	244.39
899.343	78.51
899.513	35.5
