Data from USB4F104151__36__12-21-33-315.txt Node

Date: Wed Feb 19 12:21:33 EST 2025
User: louis
Spectrometer: USB4F10415
Trigger mode: 4
Integration Time (sec): 2.250200E-1
Scans to average: 1
Electric dark correction enabled: true
Nonlinearity correction enabled: false
Boxcar width: 0
XAxis mode: Wavelengths
Number of Pixels in Spectrum: 3648
>>>>>Begin Spectral Data<<<<<
178.204	-806.39
178.424	-806.39
178.644	-806.39
178.864	-863.73
179.084	-749.04
179.304	111.1
179.524	94.72
179.744	-34.3
179.964	-200.19
180.184	131.58
180.404	233.98
180.624	-292.35
180.844	-85.5
181.064	20.99
181.283	258.56
181.503	-153.09
181.723	-85.5
181.943	-116.22
182.163	403.96
182.383	-151.04
182.602	-177.66
182.822	492.02
183.042	203.26
183.262	-253.44
183.482	-151.04
183.701	260.6
183.921	322.04
184.141	-222.72
184.361	-105.98
184.58	229.88
184.8	262.65
185.02	-171.52
185.239	-5.63
185.459	256.51
185.679	375.29
185.898	-300.54
186.118	-216.57
186.338	309.76
186.557	281.08
186.777	-142.85
186.997	-196.09
187.216	266.75
187.436	457.21
187.655	-179.71
187.875	-105.98
188.095	207.36
188.314	442.87
188.534	-128.51
188.753	-314.88
188.973	369.15
189.192	442.87
189.412	-189.95
189.631	-204.28
189.851	326.14
190.07	432.63
190.29	-194.05
190.509	-216.57
190.729	231.93
190.948	365.05
191.168	-73.21
191.387	-177.66
191.607	156.16
191.826	332.28
192.045	-120.32
192.265	-192
192.484	293.37
192.704	219.64
192.923	-161.28
193.142	-81.41
193.362	297.47
193.581	360.95
193.8	-110.08
194.02	-93.69
194.239	199.16
194.458	322.04
194.678	-134.65
194.897	-175.61
195.116	260.6
195.335	322.04
195.555	-89.6
195.774	-232.96
195.993	375.29
196.212	207.36
196.432	-116.22
196.651	-175.61
196.87	201.21
197.089	551.42
197.308	-194.05
197.528	-118.27
197.747	29.18
197.966	211.45
198.185	-9.73
198.404	-216.57
198.623	301.56
198.842	358.91
199.062	-114.17
199.281	-77.31
199.5	205.31
199.719	279.04
199.938	-93.69
200.157	-126.46
200.376	332.28
200.595	406.01
200.814	-134.65
201.033	-124.41
201.252	481.78
201.471	270.84
201.69	-148.99
201.909	-116.22
202.128	274.94
202.347	317.95
202.566	-103.93
202.785	-339.45
203.004	88.57
203.223	512.5
203.442	-177.66
203.661	-247.29
203.879	342.52
204.098	344.57
204.317	-198.14
204.536	14.85
204.755	338.43
204.974	315.9
205.193	-288.25
205.411	-95.74
205.63	399.87
205.849	297.47
206.068	-116.22
206.287	-288.25
206.505	401.91
206.724	143.87
206.943	-202.24
207.162	-185.85
207.381	150.01
207.599	211.45
207.818	-118.27
208.037	-261.63
208.255	215.55
208.474	186.88
208.693	-181.76
208.911	-148.99
209.13	369.15
209.349	348.67
209.567	-32.26
209.786	-171.52
210.005	324.09
210.223	229.88
210.442	-396.79
210.661	-249.34
210.879	322.04
211.098	182.78
211.316	-124.41
211.535	-46.59
211.753	207.36
211.972	322.04
212.191	-79.36
212.409	-77.31
212.628	303.61
212.846	141.82
213.065	-183.81
213.283	-157.18
213.502	215.55
213.72	184.83
213.938	-167.42
214.157	-173.57
214.375	299.52
214.594	203.26
214.812	-122.37
215.031	-204.28
215.249	246.27
215.467	317.95
215.686	-103.93
215.904	-144.89
216.122	205.31
216.341	426.49
216.559	-1.54
216.778	-48.64
216.996	469.5
217.214	111.1
217.432	-103.93
217.651	-224.76
217.869	326.14
218.087	360.95
218.306	-196.09
218.524	-175.61
218.742	184.83
218.96	334.33
219.179	-140.8
219.397	-198.14
219.615	455.16
219.833	252.41
220.051	-173.57
220.27	-67.07
220.488	403.96
220.706	248.32
220.924	-226.81
221.142	-216.57
221.36	293.37
221.578	340.47
221.796	-216.57
222.015	-85.5
222.233	244.22
222.451	485.88
222.669	-101.89
222.887	-50.69
223.105	113.15
223.323	111.1
223.541	-175.61
223.759	-148.99
223.977	203.26
224.195	438.78
224.413	-189.95
224.631	-132.61
224.849	279.04
225.067	483.83
225.285	-99.84
225.503	-159.23
225.721	-157.18
225.939	315.9
226.157	-118.27
226.375	129.53
226.592	162.3
226.81	164.35
227.028	-19.97
227.246	-97.79
227.464	238.08
227.682	305.66
227.9	-48.64
228.117	-69.12
228.335	203.26
228.553	135.68
228.771	-169.47
228.989	-116.22
229.206	223.74
229.424	129.53
229.642	-140.8
229.86	-183.81
230.077	479.74
230.295	184.83
230.513	-77.31
230.731	-128.51
230.948	416.25
231.166	444.92
231.384	-179.71
231.601	-157.18
231.819	469.5
232.037	55.81
232.254	-75.26
232.472	-91.65
232.689	100.86
232.907	449.02
233.125	-212.48
233.342	-116.22
233.56	145.92
233.777	16.9
233.995	-183.81
234.213	-120.32
234.43	266.75
234.648	223.74
234.865	-124.41
235.083	-42.5
235.3	211.45
235.518	291.32
235.735	-52.74
235.953	-103.93
236.17	195.07
236.388	162.3
236.605	98.81
236.822	-142.85
237.04	348.67
237.257	219.64
237.475	-153.09
237.692	-118.27
237.909	315.9
238.127	190.97
238.344	2.56
238.562	-157.18
238.779	137.73
238.996	6.66
239.214	-38.4
239.431	-75.26
239.648	154.11
239.865	309.76
240.083	-69.12
240.3	-239.1
240.517	207.36
240.735	160.25
240.952	72.19
241.169	-146.94
241.386	289.28
241.603	111.1
241.821	-58.88
242.038	-134.65
242.255	369.15
242.472	98.81
242.689	-24.06
242.907	-134.65
243.124	256.51
243.341	231.93
243.558	-116.22
243.775	-144.89
243.992	31.23
244.209	297.47
244.426	35.33
244.643	-120.32
244.86	209.4
245.078	295.42
245.295	-67.07
245.512	-99.84
245.729	152.06
245.946	197.12
246.163	-138.75
246.38	-169.47
246.597	301.56
246.814	197.12
247.031	-101.89
247.248	-151.04
247.464	324.09
247.681	184.83
247.898	-183.81
248.115	-26.11
248.332	64
248.549	420.35
248.766	-44.54
248.983	-103.93
249.2	379.39
249.417	358.91
249.633	-140.8
249.85	-9.73
250.067	162.3
250.284	178.69
250.501	-99.84
250.717	-91.65
250.934	14.85
251.151	219.64
251.368	-13.82
251.585	-118.27
251.801	182.78
252.018	35.33
252.235	25.09
252.451	-144.89
252.668	217.6
252.885	299.52
253.102	-69.12
253.318	-196.09
253.535	141.82
253.752	115.2
253.968	-140.8
254.185	-140.8
254.401	236.03
254.618	240.12
254.835	-62.98
255.051	-5.63
255.268	293.37
255.484	188.93
255.701	-114.17
255.917	-75.26
256.134	117.25
256.351	252.41
256.567	-257.53
256.784	16.9
257	-22.02
257.217	354.81
257.433	16.9
257.65	-126.46
257.866	391.67
258.082	35.33
258.299	-112.13
258.515	-85.5
258.732	209.4
258.948	51.71
259.165	-24.06
259.381	-214.52
259.597	279.04
259.814	215.55
260.03	-161.28
260.246	-198.14
260.463	371.19
260.679	281.08
260.895	-58.88
261.112	-69.12
261.328	166.4
261.544	59.9
261.761	-91.65
261.977	-97.79
262.193	-7.68
262.409	258.56
262.626	8.7
262.842	-71.17
263.058	152.06
263.274	358.91
263.49	-62.98
263.707	-198.14
263.923	266.75
264.139	12.8
264.355	-120.32
264.571	-58.88
264.787	201.21
265.004	354.81
265.22	-54.78
265.436	-17.92
265.652	178.69
265.868	258.56
266.084	-155.13
266.3	-163.33
266.516	23.04
266.732	182.78
266.948	-87.55
267.164	-222.72
267.38	297.47
267.596	244.22
267.812	68.09
268.028	-93.69
268.244	100.86
268.46	207.36
268.676	-108.03
268.892	6.66
269.108	-7.68
269.324	27.14
269.54	-91.65
269.756	35.33
269.972	35.33
270.188	164.35
270.403	-69.12
270.619	-105.98
270.835	166.4
271.051	250.36
271.267	-108.03
271.483	-196.09
271.698	365.05
271.914	309.76
272.13	-60.93
272.346	-91.65
272.562	219.64
272.777	442.87
272.993	-9.73
273.209	-60.93
273.425	209.4
273.64	4.61
273.856	-157.18
274.072	-275.96
274.287	131.58
274.503	283.13
274.719	45.57
274.934	-153.09
275.15	14.85
275.366	178.69
275.581	-124.41
275.797	-99.84
276.012	156.16
276.228	102.91
276.444	-52.74
276.659	78.33
276.875	102.91
277.09	139.77
277.306	-54.78
277.521	-38.4
277.737	199.16
277.952	195.07
278.168	-146.94
278.383	-87.55
278.599	231.93
278.814	279.04
279.03	-85.5
279.245	-1.54
279.461	193.02
279.676	285.18
279.892	-75.26
280.107	-60.93
280.322	66.05
280.538	293.37
280.753	-77.31
280.969	-40.45
281.184	225.79
281.399	309.76
281.615	8.7
281.83	78.33
282.045	33.28
282.26	35.33
282.476	-108.03
282.691	78.33
282.906	223.74
283.122	225.79
283.337	37.38
283.552	-48.64
283.767	125.44
283.983	233.98
284.198	-60.93
284.413	-95.74
284.628	-5.63
284.843	133.63
285.058	-7.68
285.274	-67.07
285.489	53.76
285.704	145.92
285.919	-42.5
286.134	-1.54
286.349	258.56
286.564	119.29
286.779	57.86
286.995	59.9
287.21	-50.69
287.425	254.46
287.64	-124.41
287.855	55.81
288.07	-32.26
288.285	320
288.5	86.53
288.715	-17.92
288.93	152.06
289.145	66.05
289.36	-42.5
289.575	-58.88
289.79	377.34
290.004	39.42
290.219	68.09
290.434	-13.82
290.649	145.92
290.864	88.57
291.079	-3.58
291.294	4.61
291.509	252.41
291.724	143.87
291.938	-22.02
292.153	-85.5
292.368	193.02
292.583	182.78
292.798	41.47
293.012	23.04
293.227	293.37
293.442	133.63
293.657	45.57
293.871	-34.3
294.086	250.36
294.301	291.32
294.516	100.86
294.73	102.91
294.945	119.29
295.16	133.63
295.374	-17.92
295.589	45.57
295.804	107.01
296.018	168.45
296.233	-42.5
296.447	84.48
296.662	76.29
296.877	320
297.091	-36.35
297.306	78.33
297.52	115.2
297.735	248.32
297.949	-11.78
298.164	-134.65
298.378	180.73
298.593	92.67
298.807	-95.74
299.022	80.38
299.236	299.52
299.451	70.14
299.665	33.28
299.88	-36.35
300.094	307.71
300.309	74.24
300.523	29.18
300.737	-36.35
300.952	203.26
301.166	197.12
301.381	-48.64
301.595	-136.7
301.809	197.12
302.024	176.64
302.238	-38.4
302.452	117.25
302.667	168.45
302.881	233.98
303.095	55.81
303.309	96.77
303.524	135.68
303.738	150.01
303.952	66.05
304.166	41.47
304.381	-5.63
304.595	248.32
304.809	-26.11
305.023	12.8
305.237	82.43
305.452	104.96
305.666	-17.92
305.88	123.39
306.094	256.51
306.308	260.6
306.522	-58.88
306.736	59.9
306.95	338.43
307.164	96.77
307.379	6.66
307.593	66.05
307.807	238.08
308.021	227.84
308.235	150.01
308.449	-40.45
308.663	168.45
308.877	528.89
309.091	23.04
309.305	74.24
309.519	-136.7
309.733	252.41
309.947	-194.05
310.161	-26.11
310.374	154.11
310.588	385.53
310.802	-83.45
311.016	16.9
311.23	207.36
311.444	113.15
311.658	-7.68
311.872	215.55
312.085	330.23
312.299	315.9
312.513	135.68
312.727	-26.11
312.941	78.33
313.154	203.26
313.368	-42.5
313.582	29.18
313.796	117.25
314.009	145.92
314.223	154.11
314.437	47.62
314.651	233.98
314.864	88.57
315.078	-95.74
315.292	-56.83
315.505	170.49
315.719	156.16
315.933	70.14
316.146	-50.69
316.36	113.15
316.573	219.64
316.787	205.31
317.001	59.9
317.214	-44.54
317.428	268.8
317.641	-28.16
317.855	72.19
318.068	201.21
318.282	174.59
318.495	143.87
318.709	4.61
318.922	186.88
319.136	315.9
319.349	51.71
319.563	-77.31
319.776	242.17
319.99	-28.16
320.203	49.66
320.417	-42.5
320.63	207.36
320.843	244.22
321.057	84.48
321.27	-89.6
321.483	313.85
321.697	195.07
321.91	-3.58
322.124	0.51
322.337	125.44
322.55	-7.68
322.763	18.94
322.977	-58.88
323.19	150.01
323.403	78.33
323.617	129.53
323.83	244.22
324.043	184.83
324.256	125.44
324.469	-179.71
324.683	160.25
324.896	186.88
325.109	172.54
325.322	-75.26
325.535	45.57
325.748	307.71
325.962	129.53
326.175	20.99
326.388	-17.92
326.601	219.64
326.814	23.04
327.027	104.96
327.24	121.34
327.453	-28.16
327.666	272.89
327.879	180.73
328.092	74.24
328.305	279.04
328.518	70.14
328.731	-50.69
328.944	-22.02
329.157	201.21
329.37	-1.54
329.583	131.58
329.796	94.72
330.009	12.8
330.222	279.04
330.435	43.52
330.648	92.67
330.861	236.03
331.073	135.68
331.286	96.77
331.499	41.47
331.712	86.53
331.925	156.16
332.138	82.43
332.35	-75.26
332.563	152.06
332.776	297.47
332.989	-120.32
333.202	-140.8
333.414	266.75
333.627	139.77
333.84	-34.3
334.053	119.29
334.265	115.2
334.478	72.19
334.691	-32.26
334.903	143.87
335.116	123.39
335.329	104.96
335.541	137.73
335.754	227.84
335.966	129.53
336.179	236.03
336.392	20.99
336.604	47.62
336.817	184.83
337.029	307.71
337.242	-7.68
337.454	57.86
337.667	225.79
337.88	250.36
338.092	45.57
338.305	59.9
338.517	78.33
338.729	158.21
338.942	25.09
339.154	-124.41
339.367	68.09
339.579	274.94
339.792	-30.21
340.004	80.38
340.217	221.69
340.429	215.55
340.641	-28.16
340.854	-40.45
341.066	186.88
341.278	307.71
341.491	158.21
341.703	16.9
341.915	82.43
342.128	268.8
342.34	4.61
342.552	-42.5
342.764	184.83
342.977	143.87
343.189	37.38
343.401	152.06
343.613	-42.5
343.826	188.93
344.038	-24.06
344.25	53.76
344.462	14.85
344.674	145.92
344.886	-110.08
345.099	61.95
345.311	109.05
345.523	127.49
345.735	-58.88
345.947	115.2
346.159	246.27
346.371	90.62
346.583	47.62
346.795	80.38
347.007	201.21
347.219	252.41
347.431	59.9
347.643	115.2
347.855	96.77
348.067	262.65
348.279	-91.65
348.491	-17.92
348.703	367.1
348.915	190.97
349.127	-26.11
349.339	0.51
349.551	135.68
349.763	264.7
349.975	-3.58
350.187	111.1
350.399	446.97
350.61	162.3
350.822	-48.64
351.034	14.85
351.246	248.32
351.458	182.78
351.669	41.47
351.881	-19.97
352.093	391.67
352.305	260.6
352.517	-15.87
352.728	96.77
352.94	199.16
353.152	299.52
353.363	41.47
353.575	-7.68
353.787	416.25
353.999	281.08
354.21	137.73
354.422	-95.74
354.633	195.07
354.845	150.01
355.057	33.28
355.268	37.38
355.48	332.28
355.692	-36.35
355.903	4.61
356.115	-89.6
356.326	-97.79
356.538	305.66
356.749	57.86
356.961	141.82
357.172	178.69
357.384	-30.21
357.595	188.93
357.807	39.42
358.018	107.01
358.23	178.69
358.441	20.99
358.653	-5.63
358.864	201.21
359.075	96.77
359.287	-34.3
359.498	49.66
359.709	238.08
359.921	246.27
360.132	113.15
360.344	-87.55
360.555	186.88
360.766	238.08
360.977	-89.6
361.189	115.2
361.4	160.25
361.611	250.36
361.823	12.8
362.034	-11.78
362.245	-17.92
362.456	164.35
362.667	150.01
362.879	-93.69
363.09	252.41
363.301	184.83
363.512	-15.87
363.723	-9.73
363.935	121.34
364.146	389.63
364.357	6.66
364.568	53.76
364.779	49.66
364.99	367.1
365.201	-3.58
365.412	139.77
365.623	6.66
365.834	205.31
366.045	90.62
366.256	14.85
366.467	266.75
366.678	176.64
366.889	150.01
367.1	37.38
367.311	326.14
367.522	125.44
367.733	45.57
367.944	-3.58
368.155	264.7
368.366	264.7
368.577	174.59
368.788	121.34
368.999	121.34
369.209	170.49
369.42	90.62
369.631	334.33
369.842	197.12
370.053	170.49
370.264	-7.68
370.474	-26.11
370.685	338.43
370.896	160.25
371.107	76.29
371.317	98.81
371.528	205.31
371.739	414.2
371.95	139.77
372.16	104.96
372.371	41.47
372.582	55.81
372.792	88.57
373.003	166.4
373.214	295.42
373.424	221.69
373.635	-48.64
373.846	135.68
374.056	233.98
374.267	211.45
374.477	184.83
374.688	-3.58
374.898	317.95
375.109	295.42
375.319	-1.54
375.53	125.44
375.74	279.04
375.951	156.16
376.161	143.87
376.372	143.87
376.582	170.49
376.793	309.76
377.003	-50.69
377.214	4.61
377.424	211.45
377.635	184.83
377.845	88.57
378.055	113.15
378.266	6.66
378.476	225.79
378.686	31.23
378.897	90.62
379.107	344.57
379.317	307.71
379.528	-48.64
379.738	160.25
379.948	27.14
380.158	252.41
380.369	152.06
380.579	158.21
380.789	225.79
380.999	213.5
381.21	172.54
381.42	168.45
381.63	164.35
381.84	406.01
382.05	178.69
382.261	166.4
382.471	340.47
382.681	70.14
382.891	111.1
383.101	119.29
383.311	176.64
383.521	145.92
383.731	23.04
383.941	213.5
384.151	154.11
384.361	94.72
384.571	53.76
384.781	57.86
384.991	291.32
385.201	412.15
385.411	156.16
385.621	90.62
385.831	315.9
386.041	199.16
386.251	80.38
386.461	221.69
386.671	176.64
386.881	236.03
387.091	84.48
387.301	178.69
387.511	180.73
387.72	186.88
387.93	178.69
388.14	-15.87
388.35	190.97
388.56	391.67
388.769	53.76
388.979	41.47
389.189	37.38
389.399	250.36
389.609	-24.06
389.818	193.02
390.028	307.71
390.238	279.04
390.447	-9.73
390.657	70.14
390.867	195.07
391.076	86.53
391.286	88.57
391.496	37.38
391.705	326.14
391.915	389.63
392.125	49.66
392.334	98.81
392.544	377.34
392.753	201.21
392.963	53.76
393.172	39.42
393.382	174.59
393.591	442.87
393.801	-11.78
394.01	39.42
394.22	254.46
394.429	213.5
394.639	104.96
394.848	168.45
395.058	358.91
395.267	283.13
395.477	154.11
395.686	219.64
395.895	600.57
396.105	375.29
396.314	119.29
396.524	111.1
396.733	131.58
396.942	262.65
397.152	70.14
397.361	258.56
397.57	254.46
397.78	190.97
397.989	240.12
398.198	369.15
398.407	199.16
398.617	215.55
398.826	113.15
399.035	109.05
399.244	309.76
399.453	287.23
399.663	113.15
399.872	53.76
400.081	164.35
400.29	444.92
400.499	35.33
400.708	115.2
400.917	229.88
401.127	166.4
401.336	94.72
401.545	395.77
401.754	375.29
401.963	487.93
402.172	129.53
402.381	76.29
402.59	303.61
402.799	244.22
403.008	268.8
403.217	211.45
403.426	320
403.635	78.33
403.844	18.94
404.053	72.19
404.262	266.75
404.471	426.49
404.68	107.01
404.888	219.64
405.097	225.79
405.306	307.71
405.515	152.06
405.724	59.9
405.933	365.05
406.142	279.04
406.35	217.6
406.559	168.45
406.768	274.94
406.977	557.56
407.185	109.05
407.394	260.6
407.603	197.12
407.812	381.43
408.02	190.97
408.229	223.74
408.438	373.24
408.646	55.81
408.855	129.53
409.064	162.3
409.272	178.69
409.481	414.2
409.69	141.82
409.898	-13.82
410.107	373.24
410.315	418.3
410.524	139.77
410.733	104.96
410.941	334.33
411.15	455.16
411.358	160.25
411.567	291.32
411.775	293.37
411.984	295.42
412.192	297.47
412.401	61.95
412.609	489.98
412.818	365.05
413.026	217.6
413.234	117.25
413.443	293.37
413.651	209.4
413.86	59.9
414.068	373.24
414.276	487.93
414.485	268.8
414.693	164.35
414.901	410.11
415.11	410.11
415.318	360.95
415.526	242.17
415.734	287.23
415.943	338.43
416.151	485.88
416.359	80.38
416.567	211.45
416.776	377.34
416.984	406.01
417.192	197.12
417.4	166.4
417.608	254.46
417.817	287.23
418.025	268.8
418.233	252.41
418.441	225.79
418.649	188.93
418.857	283.13
419.065	274.94
419.273	289.28
419.481	414.2
419.689	350.71
419.897	156.16
420.105	209.4
420.313	469.5
420.521	260.6
420.729	289.28
420.937	287.23
421.145	193.02
421.353	295.42
421.561	354.81
421.769	434.68
421.977	244.22
422.185	299.52
422.393	369.15
422.601	481.78
422.809	383.48
423.017	287.23
423.224	295.42
423.432	508.41
423.64	426.49
423.848	248.32
424.056	195.07
424.263	555.51
424.471	424.44
424.679	350.71
424.887	190.97
425.094	653.81
425.302	561.66
425.51	221.69
425.718	418.3
425.925	469.5
426.133	389.63
426.341	438.78
426.548	375.29
426.756	432.63
426.964	524.79
427.171	436.73
427.379	479.74
427.586	639.48
427.794	645.62
428.001	473.59
428.209	406.01
428.417	735.73
428.624	612.85
428.832	528.89
429.039	457.21
429.247	586.23
429.454	705.01
429.662	582.14
429.869	524.79
430.076	711.16
430.284	668.15
430.491	561.66
430.699	629.24
430.906	885.23
431.114	756.21
431.321	633.33
431.528	571.9
431.736	713.21
431.943	791.03
432.15	608.76
432.358	635.38
432.565	1026.54
432.772	549.37
432.979	788.98
433.187	698.87
433.394	973.3
433.601	791.03
433.808	768.5
434.016	920.05
434.223	965.11
434.43	930.29
434.637	905.71
434.844	905.71
435.052	1094.13
435.259	1065.46
435.466	997.87
435.673	1051.12
435.88	1225.2
436.087	1331.69
436.294	1255.92
436.501	1149.42
436.708	1270.25
436.915	1356.27
437.122	1249.77
437.329	1110.51
437.537	1288.68
437.743	1313.26
437.95	1386.99
438.157	1217.01
438.364	1444.33
438.571	1409.51
438.778	1309.16
438.985	1475.05
439.192	1573.35
439.399	1595.88
439.606	1520.1
439.813	1610.22
440.02	1989.09
440.227	2054.62
440.433	1593.83
440.64	1708.52
440.847	1825.25
441.054	1798.63
441.261	1935.84
441.467	1954.27
441.674	1962.47
441.881	2249.18
442.088	1917.41
442.294	1984.99
442.501	2249.18
442.708	2238.94
442.914	2179.55
443.121	2245.09
443.328	2513.37
443.534	2744.79
443.741	2347.48
443.948	2314.72
444.154	2734.55
444.361	2888.15
444.568	2462.17
444.774	2642.39
444.981	2685.4
445.187	2961.87
445.394	3037.65
445.6	2904.53
445.807	3140.05
446.013	3127.76
446.22	3062.23
446.426	3336.65
446.633	3516.87
446.839	3805.64
447.046	3312.08
447.252	3756.49
447.459	4004.29
447.665	3879.36
447.871	3912.13
448.078	4460.99
448.284	4233.66
448.491	4469.18
448.697	4436.41
448.903	4602.3
449.11	4841.91
449.316	4716.98
449.522	4968.88
449.728	5132.72
449.935	5396.91
450.141	5312.94
450.347	5654.95
450.553	5558.7
450.76	5833.13
450.966	6021.54
451.172	5996.96
451.378	6193.57
451.584	6357.41
451.791	6869.4
451.997	6666.65
452.203	6842.78
452.409	7305.62
452.615	7291.28
452.821	6922.65
453.027	7211.41
453.233	7868.81
453.44	7578
453.646	7692.68
453.852	8028.55
454.058	8184.2
454.264	8262.02
454.47	8597.88
454.676	8284.55
454.882	9140.6
455.088	8432
455.294	8790.39
455.5	8954.23
455.705	9589.1
455.911	9070.97
456.117	9128.31
456.323	9187.7
456.529	8878.46
456.735	9558.38
456.941	9329.01
457.147	9384.3
457.352	9763.18
457.558	9447.79
457.764	9660.78
457.97	9439.6
458.176	9787.75
458.381	9695.6
458.587	9429.36
458.793	9369.97
458.999	9353.59
459.204	10162.53
459.41	9777.51
459.616	9587.05
459.821	9726.32
460.027	9650.54
460.233	9462.13
460.438	9310.58
460.644	9599.34
460.85	9220.47
461.055	9056.63
461.261	9175.41
461.466	8599.93
461.672	8466.81
461.878	8855.93
462.083	8632.7
462.289	8272.26
462.494	8309.12
462.7	7977.35
462.905	7788.94
463.111	8542.59
463.316	8528.25
463.522	8079.75
463.727	8081.8
463.932	8081.8
464.138	7975.3
464.343	8137.09
464.549	7788.94
464.754	8358.27
464.959	8173.96
465.165	7827.85
465.37	7618.96
465.575	7604.62
465.781	7754.12
465.986	7872.9
466.191	7608.72
466.397	7561.61
466.602	7332.24
466.807	7500.17
467.012	7410.06
467.218	7713.16
467.423	7285.14
467.628	7328.14
467.833	7657.87
468.038	7745.93
468.244	7231.89
468.449	7639.44
468.654	7465.36
468.859	7553.42
469.064	7428.49
469.269	7049.62
469.474	7334.29
469.679	7627.15
469.885	7504.27
470.09	7344.53
470.295	7477.65
470.5	7399.82
470.705	7645.58
470.91	7338.38
471.115	7422.35
471.32	7647.63
471.525	7819.66
471.73	7285.14
471.935	7672.2
472.139	7455.12
472.344	7463.31
472.549	7399.82
472.754	7694.73
472.959	7494.03
473.164	7549.32
473.369	7506.32
473.574	7782.79
473.778	7788.94
473.983	7842.18
474.188	7754.12
474.393	7635.34
474.598	7928.2
474.802	7684.49
475.007	7670.15
475.212	7750.03
475.417	7551.37
475.621	7926.15
475.826	7776.65
476.031	7494.03
476.235	7690.63
476.44	7969.16
476.645	7590.28
476.849	7729.55
477.054	7797.13
477.259	7760.27
477.463	7797.13
477.668	7684.49
477.872	8186.24
478.077	7936.39
478.282	7508.37
478.486	7715.21
478.691	7735.69
478.895	7838.09
479.1	7723.4
479.304	7729.55
479.509	7524.75
479.713	7881.1
479.918	7500.17
480.122	7428.49
480.326	7772.55
480.531	7788.94
480.735	7915.91
480.94	7610.76
481.144	8194.43
481.348	7741.83
481.553	7793.03
481.757	7584.14
481.961	7985.54
482.166	7909.77
482.37	7633.29
482.574	7866.76
482.778	7887.24
482.983	8053.13
483.187	7786.89
483.391	8081.8
483.595	8075.65
483.8	7897.48
484.004	8241.54
484.208	8096.13
484.412	8337.79
484.616	8237.44
484.821	7881.1
485.025	7983.49
485.229	8155.52
485.433	8475.01
485.637	8204.67
485.841	8374.66
486.045	8411.52
486.249	8618.36
486.453	8233.35
486.657	8462.72
486.861	8604.03
487.065	8520.06
487.269	8530.3
487.473	8452.48
487.677	8937.85
487.881	9310.58
488.085	8987
488.289	9011.57
488.493	8878.46
488.697	9333.11
488.901	9148.79
489.105	9099.64
489.309	9191.8
489.512	9574.77
489.716	9474.42
489.92	9318.77
490.124	9568.62
490.328	9859.43
490.531	9585.01
490.735	9724.27
490.939	9673.07
491.143	9859.43
491.346	9673.07
491.55	10156.39
491.754	9976.17
491.958	10113.38
492.161	10080.61
492.365	10064.23
492.569	10142.05
492.772	10613.09
492.976	10338.66
493.18	10363.23
493.383	10819.93
493.587	10781.02
493.79	10783.07
493.994	10441.06
494.197	10893.66
494.401	11006.3
494.605	10674.53
494.808	10918.23
495.012	11503.95
495.215	11446.61
495.419	11172.18
495.622	11237.72
495.825	11526.48
496.029	11366.74
496.232	11551.06
496.436	11436.37
496.639	11946.31
496.843	11772.24
497.046	11821.39
497.249	12208.45
497.453	12276.04
497.656	12112.2
497.859	12093.77
498.063	12208.45
498.266	12476.74
498.469	12360
498.673	12624.19
498.876	12265.8
499.079	12908.86
499.282	12863.8
499.485	13125.94
499.689	13146.42
499.892	13443.38
500.095	13273.4
500.298	13383.99
500.501	13279.54
500.705	13605.17
500.908	13717.81
501.111	13734.19
501.314	14182.7
501.517	14162.22
501.72	14141.74
501.923	14160.17
502.126	14281
502.329	14971.16
502.532	14860.57
502.735	14586.15
502.938	15038.75
503.141	14934.3
503.344	15100.19
503.547	15540.5
503.75	15143.19
503.953	15517.97
504.156	15761.68
504.359	15554.83
504.562	15708.43
504.765	15866.13
504.968	16265.48
505.17	16478.47
505.373	16439.56
505.576	16668.93
505.779	16654.59
505.982	16785.66
506.185	16931.07
506.387	17320.18
506.59	17311.99
506.793	17486.07
506.996	17449.21
507.198	17942.77
507.401	17467.64
507.604	17780.98
507.807	18120.94
508.009	18360.55
508.212	18553.06
508.415	18350.31
508.617	18643.17
508.82	18735.33
509.022	18741.47
509.225	18964.7
509.428	19095.77
509.63	19529.94
509.833	19394.78
510.035	19912.91
510.238	19927.25
510.44	19910.86
510.643	20472.01
510.845	20297.93
511.048	20195.53
511.25	20422.86
511.453	20676.8
511.655	21430.46
511.858	21102.78
512.06	21307.58
512.262	21186.75
512.465	20984
512.667	21328.06
512.87	21287.1
513.072	21887.15
513.274	22094
513.477	21991.6
513.679	22282.41
513.881	22694.05
514.084	22634.66
514.286	23058.59
514.488	22935.71
514.69	23605.4
514.893	23275.68
515.095	23548.06
515.297	23855.25
515.499	23773.33
515.701	23640.22
515.904	24172.69
516.106	24850.56
516.308	24692.87
516.51	24727.69
516.712	24983.68
516.914	25235.58
517.116	25010.31
517.318	25331.84
517.52	25712.76
517.722	25880.69
517.925	25956.47
518.127	25935.99
518.329	26423.4
518.531	26327.15
518.733	26833
518.935	26681.45
519.136	26998.88
519.338	27033.7
519.54	27400.29
519.742	27228.26
519.944	27717.72
520.146	27854.93
520.348	28188.75
520.55	28338.26
520.752	28166.23
520.954	29034.56
521.155	28467.28
521.357	28975.17
521.559	28993.61
521.761	29696.06
521.963	29599.8
522.164	29714.49
522.366	29648.96
522.568	29855.8
522.77	30083.12
522.971	30226.48
523.173	29835.32
523.375	30505.01
523.576	30423.09
523.778	30427.18
523.98	30914.6
524.181	31105.06
524.383	31170.6
524.584	31125.54
524.786	31219.75
524.988	31078.44
525.189	31365.15
525.391	31774.75
525.592	31658.01
525.794	31821.85
525.995	32178.2
526.197	32342.03
526.398	31832.09
526.6	32241.68
526.801	32442.38
527.003	32335.89
527.204	32022.55
527.406	32426
527.607	32520.21
527.808	32563.22
528.01	32112.66
528.211	32784.4
528.412	33263.62
528.614	33284.1
528.815	32905.23
529.016	33810.43
529.218	33050.63
529.419	32884.75
529.62	32772.11
529.822	33277.96
530.023	33157.13
530.224	33394.69
530.425	33232.9
530.626	33062.92
530.828	33150.98
531.029	33849.34
531.23	33376.26
531.431	33572.86
531.632	33529.86
531.833	33671.17
532.035	33818.62
532.236	33484.8
532.437	33796.09
532.638	33589.25
532.839	33425.41
533.04	33867.77
533.241	33605.63
533.442	33652.73
533.643	33693.69
533.844	33923.07
534.045	34232.31
534.246	33533.95
534.447	33869.82
534.648	33615.87
534.849	34109.43
535.05	33521.66
535.251	33730.56
535.451	33699.84
535.652	34033.66
535.853	33771.52
536.054	33581.06
536.255	33769.47
536.456	33894.39
536.657	34230.26
536.857	33896.44
537.058	33808.38
537.259	34156.53
537.46	33998.84
537.66	33662.97
537.861	34267.13
538.062	33951.74
538.263	33853.44
538.463	33544.19
538.664	33882.11
538.865	33880.06
539.065	33947.64
539.266	33742.85
539.466	34367.48
539.667	33779.71
539.868	34498.55
540.068	33910.78
540.269	34050.04
540.469	34344.95
540.67	34068.47
540.87	33968.12
541.071	33513.47
541.271	34060.28
541.472	34369.52
541.672	33804.28
541.873	34011.13
542.073	33495.04
542.274	34310.13
542.474	33894.39
542.675	33951.74
542.875	34334.71
543.075	33607.68
543.276	33714.17
543.476	34306.04
543.676	34271.22
543.877	34107.38
544.077	33671.17
544.277	34295.8
544.478	33980.41
544.678	34387.96
544.878	34019.32
545.078	34213.88
545.279	34187.25
545.479	33622.01
545.679	34539.5
545.879	34439.15
546.079	34265.08
546.28	33878.01
546.48	34017.27
546.68	34289.65
546.88	34349.04
547.08	34316.28
547.28	34342.9
547.48	34191.35
547.68	34222.07
547.88	33906.68
548.081	34449.39
548.281	34342.9
548.481	33914.87
548.681	34719.73
548.881	34220.02
549.081	34488.31
549.28	34193.4
549.48	34588.66
549.68	34279.41
549.88	34844.65
550.08	34338.8
550.28	34738.16
550.48	34295.8
550.68	34619.38
550.88	34469.87
551.08	34144.25
551.279	34402.29
551.479	34043.9
551.679	34891.76
551.879	34365.43
552.079	34639.86
552.278	34713.58
552.478	34373.62
552.678	34418.67
552.878	34906.09
553.077	34772.97
553.277	34312.18
553.477	35024.87
553.676	34357.24
553.876	34449.39
554.076	34519.03
554.275	34752.49
554.475	33943.55
554.674	34578.42
554.874	34459.63
555.074	34328.56
555.273	35131.37
555.473	34588.66
555.672	34787.31
555.872	34482.16
556.071	34385.91
556.271	34863.08
556.47	34527.22
556.67	34174.97
556.869	34390
557.068	34965.48
557.268	34549.74
557.467	34549.74
557.667	34523.12
557.866	34916.33
558.065	34406.39
558.265	34217.97
558.464	34306.04
558.663	34648.05
558.863	34615.28
559.062	34519.03
559.261	33878.01
559.461	34721.77
559.66	34322.42
559.859	34344.95
560.058	33978.36
560.258	34066.42
560.457	34197.49
560.656	34473.97
560.855	33949.69
561.054	34660.34
561.253	33910.78
561.453	34013.18
561.652	34164.73
561.851	34381.81
562.05	33908.73
562.249	33607.68
562.448	34252.79
562.647	33767.42
562.846	34119.67
563.045	34215.93
563.244	33691.65
563.443	34082.81
563.642	33605.63
563.841	33544.19
564.04	33669.12
564.239	34136.06
564.438	33787.9
564.637	33277.96
564.836	33779.71
565.035	33155.08
565.234	33492.99
565.432	33497.09
565.631	33112.07
565.83	33282.05
566.029	33619.97
566.228	33294.34
566.427	33099.78
566.625	33132.55
566.824	32813.07
567.023	33200.13
567.222	32763.92
567.42	33349.64
567.619	33157.13
567.818	32888.84
568.016	32747.53
568.215	33499.14
568.414	32956.43
568.612	32796.68
568.811	32829.45
569.01	32692.24
569.208	32415.76
569.407	33196.04
569.605	32690.19
569.804	32665.61
570.002	32139.29
570.201	32301.08
570.4	32020.5
570.598	32069.65
570.797	32493.58
570.995	31918.1
571.193	31885.34
571.392	32108.57
571.59	31713.31
571.789	31963.16
571.987	31936.54
572.186	31930.39
572.384	32194.58
572.582	31615.01
572.781	31782.94
572.979	31477.79
573.177	31528.99
573.376	31426.59
573.574	31162.4
573.772	31838.23
573.971	31229.99
574.169	30748.71
574.367	31111.21
574.565	31305.76
574.763	31100.97
574.962	30662.7
575.16	30548.01
575.358	31162.4
575.556	30740.52
575.754	31156.26
575.952	30326.83
576.151	30969.9
576.349	30801.96
576.547	30394.42
576.745	30752.81
576.943	31076.39
577.141	30345.26
577.339	30662.7
577.537	30720.04
577.735	30244.91
577.933	30222.39
578.131	30087.22
578.329	29771.83
578.527	30003.25
578.725	30156.85
578.923	30183.48
579.121	30036.02
579.319	29884.47
579.516	30226.48
579.714	30199.86
579.912	29913.14
580.11	29696.06
580.308	29784.12
580.506	29599.8
580.704	29157.44
580.901	29730.87
581.099	30185.52
581.297	29145.16
581.495	29386.82
581.692	29569.08
581.89	29540.41
582.088	29208.64
582.285	29448.25
582.483	29509.69
582.681	29438.01
582.878	29388.86
583.076	29081.67
583.274	29651
583.471	29497.41
583.669	29505.6
583.866	28938.31
584.064	29225.03
584.262	29001.8
584.459	28880.97
584.657	28899.4
584.854	29470.78
585.052	28887.11
585.249	28907.59
585.447	29165.63
585.644	28923.97
585.841	29040.71
586.039	28954.69
586.236	28616.78
586.434	28661.83
586.631	28760.14
586.828	28860.49
587.026	28581.96
587.223	28489.81
587.42	28524.62
587.618	28498
587.815	28176.47
588.012	28264.53
588.21	28491.85
588.407	28588.11
588.604	28348.5
588.801	28346.45
588.999	28594.25
589.196	28397.65
589.393	28471.37
589.59	28127.31
589.787	28164.18
589.984	27820.12
590.182	28196.95
590.379	28485.71
590.576	28225.62
590.773	28041.3
590.97	27830.36
591.167	28485.71
591.364	27820.12
591.561	28078.16
591.758	28008.53
591.955	28006.48
592.152	28098.64
592.349	27738.2
592.546	27824.22
592.743	28049.49
592.94	27572.32
593.137	28182.61
593.334	28233.81
593.531	27996.24
593.727	28328.02
593.924	27983.96
594.121	27762.78
594.318	28180.56
594.515	27955.29
594.712	28362.83
594.908	27578.46
595.105	27797.59
595.302	27736.15
595.499	27562.08
595.696	27678.81
595.892	27779.16
596.089	27912.28
596.286	27797.59
596.482	27865.17
596.679	27930.71
596.876	27467.87
597.072	27701.34
597.269	27488.35
597.466	27527.26
597.662	27488.35
597.859	27578.46
598.055	27631.71
598.252	28065.88
598.448	28198.99
598.645	27666.52
598.841	27578.46
599.038	28414.03
599.234	27914.33
599.431	27215.97
599.627	27678.81
599.824	27758.68
600.02	27439.2
600.217	27273.31
600.413	27365.47
600.609	27652.19
600.806	27871.32
601.002	27951.19
601.198	27435.1
601.395	27578.46
601.591	27883.61
601.787	27705.43
601.984	27385.95
602.18	28301.39
602.376	27648.09
602.572	27488.35
602.769	27949.14
602.965	27598.94
603.161	27983.96
603.357	27635.8
603.553	27662.43
603.75	27781.21
603.946	27205.73
604.142	27605.08
604.338	27457.63
604.534	27637.85
604.73	27228.26
604.926	27619.42
605.122	27494.49
605.318	27701.34
605.514	27424.86
605.71	27555.93
605.906	27508.83
606.102	27545.69
606.298	27883.61
606.494	27465.82
606.69	27699.29
606.886	27439.2
607.082	27078.75
607.278	27646.04
607.474	26992.74
607.67	27742.3
607.866	27592.79
608.062	27781.21
608.257	27414.62
608.453	27404.38
608.649	27930.71
608.845	27760.73
609.041	27330.65
609.236	27721.82
609.432	27899.99
609.628	27594.84
609.824	27592.79
610.019	27635.8
610.215	27801.69
610.411	27705.43
610.606	27459.68
610.802	27682.91
610.998	27848.79
611.193	27881.56
611.389	27422.81
611.584	28342.35
611.78	27560.03
611.976	27557.98
612.171	28016.72
612.367	27971.67
612.562	27592.79
612.758	27543.64
612.953	27615.32
613.149	27721.82
613.344	27525.21
613.539	28147.79
613.735	28020.82
613.93	28026.96
614.126	27906.13
614.321	28076.12
614.517	27637.85
614.712	28084.31
614.907	27783.26
615.103	28125.27
615.298	27687
615.493	28184.66
615.688	27684.95
615.884	28395.6
616.079	27574.36
616.274	27930.71
616.47	27566.17
616.665	27977.81
616.86	27899.99
617.055	28094.55
617.25	27691.1
617.445	27983.96
617.641	27580.51
617.836	28188.75
618.031	27605.08
618.226	28035.16
618.421	27803.74
618.616	28145.75
618.811	27443.29
619.006	27961.43
619.201	27596.89
619.396	27902.04
619.591	27451.49
619.786	28006.48
619.981	27388
620.176	27629.66
620.371	27494.49
620.566	27711.58
620.761	27537.5
620.956	27623.51
621.151	27136.1
621.346	27256.93
621.541	26841.19
621.735	27392.09
621.93	26996.84
622.125	27033.7
622.32	26826.85
622.515	27099.23
622.709	27105.38
622.904	27058.28
623.099	26570.86
623.294	27271.26
623.488	26443.88
623.683	26851.43
623.878	26308.72
624.072	26683.5
624.267	26665.07
624.462	26548.33
624.656	26089.59
624.851	26335.34
625.046	26169.46
625.24	26095.73
625.435	26001.52
625.629	26011.76
625.824	26198.13
626.018	25874.55
626.213	25473.15
626.407	25974.9
626.602	25833.59
626.796	26019.95
626.991	25825.4
627.185	25544.83
627.38	25473.15
627.574	25288.83
627.768	24916.1
627.963	25057.41
628.157	24981.63
628.352	25147.52
628.546	24490.12
628.74	25084.03
628.935	24623.24
629.129	24936.58
629.323	24696.97
629.517	24613
629.712	24578.18
629.906	24858.76
630.1	24496.27
630.294	24832.13
630.489	24520.84
630.683	24592.52
630.877	24146.06
631.071	24203.41
631.265	24187.02
631.459	24010.9
631.653	23898.26
631.848	23928.98
632.042	23810.2
632.236	23828.63
632.43	23820.44
632.624	23810.2
632.818	23855.25
633.012	23462.04
633.206	23521.43
633.4	23857.3
633.594	23044.26
633.788	23339.16
633.982	23195.81
634.176	23560.34
634.369	22964.39
634.563	22890.66
634.757	22634.66
634.951	23081.12
635.145	23081.12
635.339	22749.35
635.533	22679.72
635.726	22986.91
635.92	22306.99
636.114	22407.34
636.308	22229.16
636.501	22087.85
636.695	21995.7
636.889	21690.55
637.083	21743.8
637.276	21756.08
637.47	21602.49
637.664	21467.32
637.857	21256.38
638.051	21792.95
638.244	21276.86
638.438	21262.52
638.632	20918.46
638.825	20740.29
639.019	20994.24
639.212	20633.8
639.406	20658.37
639.599	20623.56
639.793	20725.96
639.986	20054.22
640.18	20246.73
640.373	20162.76
640.567	19984.59
640.76	19896.53
640.954	19704.02
641.147	19304.67
641.34	19241.18
641.534	19699.92
641.727	19482.84
641.92	19513.56
642.114	19128.54
642.307	18862.3
642.5	18985.18
642.694	18307.3
642.887	18747.62
643.08	18862.3
643.273	18305.26
643.467	18405.61
643.66	18022.64
643.853	17737.97
644.046	17711.35
644.239	17537.27
644.432	17656.05
644.626	17221.88
644.819	17365.24
645.012	17522.93
645.205	17611
645.398	17160.44
645.591	16943.36
645.784	16965.89
645.977	16507.14
646.17	16812.29
646.363	16361.73
646.556	16576.77
646.749	16290.06
646.942	16406.79
647.135	15989
647.328	16140.55
647.521	16158.99
647.714	15581.46
647.907	15714.58
648.099	15546.64
648.292	15720.72
648.485	15493.4
648.678	15132.95
648.871	15350.04
649.064	15280.41
649.256	15124.76
649.449	14946.59
649.642	14774.56
649.835	14952.73
650.027	14582.05
650.22	14557.47
650.413	14743.84
650.605	14772.51
650.798	14426.4
650.991	14225.7
651.183	14410.02
651.376	14266.66
651.568	14266.66
651.761	13881.64
651.954	14102.82
652.146	13869.36
652.339	14031.15
652.531	13910.32
652.724	13850.92
652.916	13578.54
653.109	13302.07
653.301	13639.98
653.494	13850.92
653.686	13300.02
653.879	13451.57
654.071	13431.09
654.263	13183.29
654.456	13173.05
654.648	13308.21
654.84	12939.58
655.033	12792.12
655.225	13082.94
655.417	12470.59
655.61	13060.41
655.802	12843.32
655.994	12767.55
656.186	12482.88
656.379	12390.72
656.571	12532.03
656.763	12259.65
656.955	12362.05
657.148	12013.9
657.34	12386.63
657.532	12112.2
657.724	11948.36
657.916	12038.47
658.108	12134.73
658.3	12040.52
658.492	11972.94
658.684	11530.58
658.876	11958.6
659.068	11465.04
659.26	11168.09
659.452	11452.75
659.644	11393.36
659.836	11508.05
660.028	11473.23
660.22	10944.86
660.412	11129.17
660.604	10926.43
660.796	10735.96
660.988	10664.29
661.18	10602.85
661.372	10869.08
661.563	10525.02
661.755	10338.66
661.947	10457.44
662.139	10469.73
662.331	10346.85
662.522	10195.3
662.714	9912.68
662.906	9783.66
663.097	9714.03
663.289	9671.02
663.481	9677.16
663.673	9834.86
663.864	9460.08
664.056	9490.8
664.247	9634.16
664.439	9449.84
664.631	9265.52
664.822	9159.03
665.014	9189.75
665.205	8991.09
665.397	8769.91
665.588	8757.63
665.78	8950.14
665.971	8755.58
666.163	8685.95
666.354	8423.81
666.546	8475.01
666.737	8384.9
666.929	8280.45
667.12	8280.45
667.311	8335.74
667.503	7899.53
667.694	7954.82
667.885	8200.58
668.077	8081.8
668.268	7659.92
668.459	7897.48
668.651	7680.39
668.842	7733.64
669.033	7606.67
669.224	7319.95
669.416	7565.71
669.607	7451.02
669.798	7379.34
669.989	7336.34
670.18	7438.73
670.371	7256.47
670.563	6967.7
670.754	7283.09
670.945	6988.18
671.136	7121.3
671.327	6885.78
671.518	6840.73
671.709	6910.36
671.9	7059.86
672.091	6984.09
672.282	6664.6
672.473	6617.5
672.664	6664.6
672.855	6633.88
673.046	6633.88
673.237	6756.76
673.428	6746.52
673.619	6547.87
673.809	6289.82
674	6488.48
674.191	6650.27
674.382	6441.37
674.573	6252.96
674.764	6162.85
674.954	6629.79
675.145	6119.84
675.336	6140.32
675.527	6130.08
675.717	6220.19
675.908	6226.34
676.099	5966.24
676.289	6099.36
676.48	5910.95
676.671	6144.42
676.861	5974.44
677.052	5972.39
677.243	5841.32
677.433	5947.81
677.624	5927.33
677.814	5822.89
678.005	6042.02
678.195	6101.41
678.386	5865.89
678.576	5839.27
678.767	5640.62
678.957	6035.88
679.148	5994.92
679.338	5935.53
679.529	5980.58
679.719	5884.33
679.909	5919.14
680.1	5702.06
680.29	5872.04
680.481	5710.25
680.671	5700.01
680.861	5949.86
681.052	5945.77
681.242	5865.89
681.432	6017.44
681.622	5720.49
681.813	5990.82
682.003	5980.58
682.193	5968.29
682.383	5812.65
682.573	6140.32
682.764	6025.64
682.954	6117.79
683.144	6236.58
683.334	6128.03
683.524	6265.25
683.714	6394.27
683.904	6042.02
684.094	6308.26
684.284	6334.88
684.474	6445.47
684.664	6244.77
684.854	6427.04
685.044	6465.95
685.234	6439.33
685.424	6513.05
685.614	6435.23
685.804	6951.32
685.994	6652.31
686.184	6654.36
686.374	6818.2
686.564	6887.83
686.753	6689.18
686.943	6732.19
687.133	7002.52
687.323	6969.75
687.513	6975.89
687.702	6771.1
687.892	7199.12
688.082	7217.55
688.272	7115.16
688.461	7260.56
688.651	7451.02
688.841	7446.93
689.03	7426.45
689.22	7582.09
689.41	7621
689.599	7664.01
689.789	7485.84
689.979	7803.27
690.168	7983.49
690.358	7737.74
690.547	7768.46
690.737	7707.02
690.926	8305.03
691.116	8003.97
691.305	8067.46
691.495	8030.6
691.684	7960.97
691.874	8163.72
692.063	8092.04
692.252	8085.89
692.442	8348.03
692.631	8221.06
692.82	8135.04
693.01	8405.38
693.199	8470.91
693.388	8591.74
693.578	8651.13
693.767	8468.86
693.956	8704.38
694.146	8735.1
694.335	8726.91
694.524	8724.86
694.713	8798.59
694.902	8964.47
695.092	8577.41
695.281	8632.7
695.47	8995.19
695.659	8982.9
695.848	8735.1
696.037	8675.71
696.226	9068.92
696.415	9060.73
696.604	9169.27
696.793	8851.83
696.982	9142.64
697.171	9228.66
697.36	8755.58
697.549	8782.2
697.738	8763.77
697.927	8907.13
698.116	8872.31
698.305	8864.12
698.494	8954.23
698.683	9079.16
698.872	8950.14
699.061	8841.59
699.25	9124.21
699.438	9025.91
699.627	8860.02
699.816	9156.98
700.005	8966.52
700.193	9050.49
700.382	9148.79
700.571	8835.45
700.76	9132.4
700.948	9027.96
701.137	8661.37
701.326	9030.01
701.514	8847.74
701.703	9027.96
701.892	8982.9
702.08	8874.36
702.269	8943.99
702.457	8771.96
702.646	8753.53
702.834	8573.31
703.023	8900.98
703.212	8882.55
703.4	8886.65
703.589	8685.95
703.777	8839.55
703.965	8548.73
704.154	8530.3
704.342	8558.97
704.531	8700.28
704.719	8593.79
704.907	8507.77
705.096	8540.54
705.284	8610.17
705.472	8757.63
705.661	8591.74
705.849	8460.67
706.037	8860.02
706.226	8259.97
706.414	8466.81
706.602	8399.23
706.79	8630.65
706.979	8411.52
707.167	8315.27
707.355	8077.7
707.543	8513.92
707.731	8513.92
707.919	8137.09
708.107	7954.82
708.296	7993.73
708.484	8180.1
708.672	8282.5
708.86	7997.83
709.048	8143.24
709.236	8073.6
709.424	8089.99
709.612	8126.85
709.8	7893.38
709.988	8163.72
710.176	8102.28
710.364	8022.41
710.551	8014.21
710.739	8012.17
710.927	7780.75
711.115	7684.49
711.303	7911.82
711.491	7844.23
711.679	7582.09
711.866	7741.83
712.054	7829.9
712.242	7850.38
712.43	7829.9
712.617	7524.75
712.805	7823.75
712.993	7549.32
713.181	7295.38
713.368	7561.61
713.556	7707.02
713.744	7385.49
713.931	7379.34
714.119	7420.3
714.306	7397.78
714.494	7428.49
714.682	7092.63
714.869	7029.14
715.057	7293.33
715.244	7051.67
715.432	7283.09
715.619	6914.45
715.807	7221.65
715.994	7281.04
716.182	6959.51
716.369	7133.59
716.556	7180.69
716.744	6795.67
716.931	6764.95
717.119	6695.32
717.306	6848.92
717.493	6846.87
717.681	6627.74
717.868	6588.83
718.055	6898.07
718.242	6742.43
718.43	6490.52
718.617	6418.85
718.804	6734.23
718.991	6554.01
719.179	6377.89
719.366	6242.72
719.553	6476.19
719.74	6355.36
719.927	6283.68
720.114	6236.58
720.301	6275.49
720.488	6070.69
720.676	6113.7
720.863	6166.95
721.05	6558.11
721.237	6267.3
721.424	6265.25
721.611	5826.98
721.798	6093.22
721.985	5831.08
722.172	5798.31
722.358	5878.18
722.545	6072.74
722.732	5956.01
722.919	5941.67
723.106	5806.5
723.293	5990.82
723.48	5843.37
723.667	5728.68
723.853	5853.61
724.04	6044.07
724.227	6005.16
724.414	5700.01
724.6	5566.89
724.787	5831.08
724.974	5949.86
725.161	5583.27
725.347	5317.04
725.534	5622.19
725.72	5493.16
725.907	5595.56
726.094	5427.63
726.28	5310.89
726.467	5366.19
726.653	5136.82
726.84	5345.71
727.027	5554.6
727.213	5214.64
727.4	5200.3
727.586	5177.78
727.773	5460.4
727.959	5257.65
728.145	5095.86
728.332	5065.14
728.518	5034.42
728.705	5218.74
728.891	4905.4
729.077	5026.23
729.264	5032.37
729.45	4962.74
729.636	4878.77
729.823	4903.35
730.009	5190.06
730.195	4954.55
730.382	4983.22
730.568	4821.43
730.754	5011.89
730.94	4737.46
731.126	4721.08
731.313	4723.13
731.499	4813.24
731.685	4817.33
731.871	4764.09
732.057	4751.8
732.243	4972.98
732.429	4837.81
732.615	4807.09
732.801	4610.49
732.987	4600.25
733.173	4643.26
733.359	4528.57
733.545	4516.28
733.731	4678.07
733.917	4731.32
734.103	4508.09
734.289	4532.67
734.475	4393.4
734.661	4719.03
734.847	4381.12
735.033	4315.58
735.219	4561.34
735.404	4465.08
735.59	4268.48
735.776	4188.61
735.962	4444.6
736.148	4471.23
736.333	4358.59
736.519	4248
736.705	4440.51
736.89	4346.3
737.076	4202.94
737.262	4039.11
737.447	4157.89
737.633	4184.51
737.819	4143.55
738.004	4035.01
738.19	4280.77
738.375	4028.87
738.561	4080.07
738.747	3922.37
738.932	3969.48
739.118	4219.33
739.303	4067.78
739.489	3850.69
739.674	3963.33
739.859	3860.93
740.045	3748.29
740.23	3854.79
740.416	3539.4
740.601	3940.8
740.786	3611.08
740.972	3502.54
741.157	3914.18
741.342	3711.43
741.528	3652.04
741.713	3684.81
741.898	3707.34
742.084	3666.38
742.269	3623.37
742.454	3740.1
742.639	3903.94
742.824	3588.55
743.01	3547.59
743.195	3707.34
743.38	3672.52
743.565	3645.9
743.75	3412.43
743.935	3437
744.12	3682.76
744.305	3432.91
744.49	3406.28
744.675	3273.17
744.86	3510.73
745.045	3578.31
745.23	3363.28
745.415	3248.59
745.6	3592.65
745.785	3189.2
745.97	3322.32
746.155	3121.62
746.34	3568.07
746.525	3205.58
746.71	3344.84
746.895	3152.34
747.079	3195.34
747.264	3168.72
747.449	3283.41
747.634	3031.51
747.819	3340.75
748.003	3164.62
748.188	2869.72
748.373	3088.85
748.557	3168.72
748.742	3041.75
748.927	3004.88
749.111	2982.35
749.296	3002.83
749.481	3133.9
749.665	3015.12
749.85	2826.71
750.034	3056.08
750.219	3115.47
750.404	2879.96
750.588	2793.94
750.773	2683.35
750.957	2888.15
751.141	2628.06
751.326	2877.91
751.51	2601.43
751.695	2777.56
751.879	2605.53
752.064	2742.74
752.248	2671.06
752.432	2851.28
752.617	2656.73
752.801	2783.7
752.985	2583
753.17	2879.96
753.354	2585.05
753.538	2476.51
753.722	2539.99
753.907	2587.1
754.091	2509.27
754.275	2501.08
754.459	2482.65
754.643	2564.57
754.828	2398.68
755.012	2316.76
755.196	2290.14
755.38	2552.28
755.564	2335.2
755.748	2179.55
755.932	2460.12
756.116	2474.46
756.3	2365.92
756.484	2228.7
756.668	2564.57
756.852	2249.18
757.036	2224.61
757.22	2253.28
757.404	2101.73
757.588	2363.87
757.772	2259.42
757.956	2136.54
758.14	2445.79
758.323	2267.61
758.507	2126.3
758.691	2103.78
758.875	2327
759.059	2292.19
759.242	1913.31
759.426	2077.15
759.61	2083.3
759.794	1792.48
759.977	1964.51
760.161	2249.18
760.345	2128.35
760.528	1896.93
760.712	1722.85
760.895	1751.53
761.079	1815.01
761.263	1561.06
761.446	1491.43
761.63	1628.65
761.813	1833.44
761.997	1620.46
762.18	1612.26
762.364	1753.57
762.547	1538.54
762.731	1634.79
762.914	1599.98
763.098	1559.02
763.281	1745.38
763.464	1673.7
763.648	1567.21
763.831	1528.3
764.015	1659.37
764.198	1747.43
764.381	1563.11
764.564	1438.19
764.748	1716.71
764.931	1831.4
765.114	1569.26
765.297	1636.84
765.481	1636.84
765.664	1692.13
765.847	1669.61
766.03	1669.61
766.213	1731.05
766.397	1792.48
766.58	1544.68
766.763	1681.89
766.946	1688.04
767.129	1626.6
767.312	1618.41
767.495	1692.13
767.678	1759.72
767.861	1767.91
768.044	1681.89
768.227	1681.89
768.41	1847.78
768.593	1800.68
768.776	1794.53
768.959	1630.7
769.142	1956.32
769.324	1708.52
769.507	1794.53
769.69	1645.03
769.873	1769.96
770.056	2150.88
770.239	1671.65
770.421	1737.19
770.604	1858.02
770.787	1649.13
770.97	1595.88
771.152	1579.5
771.335	1800.68
771.518	1528.3
771.7	1593.83
771.883	1808.87
772.066	1772
772.248	1812.96
772.431	1898.98
772.613	1720.81
772.796	1683.94
772.978	1892.84
773.161	1712.61
773.343	1505.77
773.526	1640.93
773.708	1479.15
773.891	1411.56
774.073	1479.15
774.256	1520.1
774.438	1817.06
774.621	1556.97
774.803	1651.17
774.985	1614.31
775.168	1642.98
775.35	1546.73
775.532	1513.96
775.715	1540.58
775.897	1692.13
776.079	1501.67
776.261	1481.19
776.444	1513.96
776.626	1495.53
776.808	1427.95
776.99	1204.72
777.173	1495.53
777.355	1485.29
777.537	1444.33
777.719	1409.51
777.901	1538.54
778.083	1444.33
778.265	1348.08
778.447	1372.65
778.629	1374.7
778.811	1491.43
778.993	1407.47
779.175	1442.28
779.357	1429.99
779.539	1188.33
779.721	1362.41
779.903	1360.36
780.085	1350.12
780.267	1448.43
780.449	1298.92
780.631	1350.12
780.812	1554.92
780.994	1413.61
781.176	1200.62
781.358	1231.34
781.54	1319.4
781.721	1429.99
781.903	1202.67
782.085	1249.77
782.267	1384.94
782.448	1200.62
782.63	1221.1
782.812	1102.32
782.993	1307.12
783.175	1352.17
783.357	1112.56
783.538	1184.24
783.72	1087.98
783.901	1217.01
784.083	1110.51
784.264	1106.42
784.446	983.54
784.627	1065.46
784.809	1192.43
784.99	1120.75
785.172	1292.78
785.353	1169.9
785.535	1135.09
785.716	918
785.897	991.73
786.079	1135.09
786.26	1022.45
786.441	1100.27
786.623	930.29
786.804	1044.98
786.985	1051.12
787.167	975.35
787.348	1047.02
787.529	1079.79
787.71	1055.22
787.891	961.01
788.073	946.67
788.254	872.95
788.435	1069.55
788.616	1020.4
788.797	954.87
788.978	997.87
789.159	918
789.34	930.29
789.522	1024.5
789.703	782.84
789.884	973.3
790.065	1053.17
790.246	1198.57
790.427	918
790.607	981.49
790.788	995.82
790.969	815.6
791.15	989.68
791.331	838.13
791.512	852.47
791.693	819.7
791.874	825.84
792.054	1036.78
792.235	877.04
792.416	776.69
792.597	725.49
792.778	829.94
792.958	788.98
793.139	926.19
793.32	844.28
793.5	643.57
793.681	836.08
793.862	1016.3
794.042	834.04
794.223	612.85
794.404	606.71
794.584	637.43
794.765	836.08
794.945	729.59
795.126	831.99
795.306	874.99
795.487	786.93
795.667	688.63
795.848	709.11
796.028	774.64
796.209	825.84
796.389	823.8
796.57	680.44
796.75	711.16
796.93	682.49
797.111	688.63
797.291	645.62
797.471	879.09
797.652	711.16
797.832	586.23
798.012	762.36
798.192	639.48
798.373	545.27
798.553	698.87
798.733	791.03
798.913	627.19
799.093	741.88
799.274	631.29
799.454	737.78
799.634	807.41
799.814	834.04
799.994	780.79
800.174	668.15
800.354	799.22
800.534	481.78
800.714	733.68
800.894	500.22
801.074	498.17
801.254	565.75
801.434	698.87
801.614	520.7
801.794	602.61
801.974	5263.79
802.154	578.04
802.334	643.57
802.514	569.85
802.693	619
802.873	416.25
803.053	700.92
803.233	692.73
803.413	608.76
803.592	496.12
803.772	414.2
803.952	608.76
804.131	446.97
804.311	616.95
804.491	621.05
804.67	604.66
804.85	473.59
805.03	580.09
805.209	608.76
805.389	633.33
805.568	561.66
805.748	563.7
805.928	504.31
806.107	737.78
806.287	621.05
806.466	582.14
806.646	481.78
806.825	543.22
807.004	569.85
807.184	555.51
807.363	657.91
807.543	659.96
807.722	473.59
807.901	737.78
808.081	434.68
808.26	291.32
808.439	541.18
808.619	469.5
808.798	489.98
808.977	504.31
809.156	733.68
809.336	475.64
809.515	602.61
809.694	446.97
809.873	545.27
810.052	475.64
810.231	553.46
810.411	608.76
810.59	569.85
810.769	469.5
810.948	553.46
811.127	324.09
811.306	440.83
811.485	457.21
811.664	520.7
811.843	485.88
812.022	567.8
812.201	367.1
812.38	332.28
812.559	430.59
812.737	492.02
812.916	307.71
813.095	332.28
813.274	553.46
813.453	463.35
813.632	446.97
813.811	602.61
813.989	244.22
814.168	561.66
814.347	262.65
814.526	379.39
814.704	684.53
814.883	672.25
815.062	201.21
815.24	342.52
815.419	389.63
815.598	504.31
815.776	211.45
815.955	285.18
816.133	170.49
816.312	471.54
816.49	268.8
816.669	381.43
816.847	438.78
817.026	479.74
817.204	342.52
817.383	354.81
817.561	373.24
817.74	518.65
817.918	358.91
818.097	225.79
818.275	432.63
818.453	403.96
818.632	303.61
818.81	295.42
818.988	326.14
819.167	320
819.345	334.33
819.523	279.04
819.701	455.16
819.879	498.17
820.058	440.83
820.236	311.8
820.414	469.5
820.592	344.57
820.77	334.33
820.948	104.96
821.127	399.87
821.305	424.44
821.483	219.64
821.661	344.57
821.839	403.96
822.017	256.51
822.195	215.55
822.373	270.84
822.551	430.59
822.729	453.11
822.907	256.51
823.085	356.86
823.262	418.3
823.44	211.45
823.618	375.29
823.796	299.52
823.974	326.14
824.152	252.41
824.329	299.52
824.507	444.92
824.685	502.26
824.863	381.43
825.04	307.71
825.218	246.27
825.396	377.34
825.574	344.57
825.751	270.84
825.929	326.14
826.107	215.55
826.284	401.91
826.462	281.08
826.639	193.02
826.817	258.56
826.994	270.84
827.172	186.88
827.349	358.91
827.527	303.61
827.704	293.37
827.882	440.83
828.059	236.03
828.237	293.37
828.414	391.67
828.591	174.59
828.769	299.52
828.946	209.4
829.124	512.5
829.301	367.1
829.478	152.06
829.655	381.43
829.833	299.52
830.01	78.33
830.187	463.35
830.364	399.87
830.542	383.48
830.719	317.95
830.896	227.84
831.073	393.72
831.25	401.91
831.427	154.11
831.604	272.89
831.782	160.25
831.959	367.1
832.136	344.57
832.313	215.55
832.49	307.71
832.667	317.95
832.844	164.35
833.021	432.63
833.198	369.15
833.374	276.99
833.551	242.17
833.728	193.02
833.905	401.91
834.082	127.49
834.259	313.85
834.436	291.32
834.612	285.18
834.789	381.43
834.966	268.8
835.143	240.12
835.319	100.86
835.496	379.39
835.673	250.36
835.85	344.57
836.026	301.56
836.203	424.44
836.38	98.81
836.556	217.6
836.733	213.5
836.909	526.84
837.086	174.59
837.262	104.96
837.439	297.47
837.616	252.41
837.792	289.28
837.968	176.64
838.145	59.9
838.321	268.8
838.498	250.36
838.674	301.56
838.851	377.34
839.027	250.36
839.203	182.78
839.38	293.37
839.556	197.12
839.732	363
839.909	158.21
840.085	195.07
840.261	238.08
840.437	264.7
840.614	160.25
840.79	322.04
840.966	424.44
841.142	334.33
841.318	188.93
841.494	209.4
841.671	391.67
841.847	137.73
842.023	70.14
842.199	193.02
842.375	524.79
842.551	123.39
842.727	129.53
842.903	301.56
843.079	274.94
843.255	461.3
843.431	211.45
843.607	215.55
843.783	-77.31
843.959	320
844.134	176.64
844.31	326.14
844.486	123.39
844.662	156.16
844.838	274.94
845.013	137.73
845.189	463.35
845.365	309.76
845.541	244.22
845.716	262.65
845.892	365.05
846.068	201.21
846.244	133.63
846.419	123.39
846.595	133.63
846.77	115.2
846.946	215.55
847.122	182.78
847.297	152.06
847.473	569.85
847.648	66.05
847.824	174.59
847.999	94.72
848.175	215.55
848.35	348.67
848.526	305.66
848.701	367.1
848.876	352.76
849.052	401.91
849.227	195.07
849.403	193.02
849.578	205.31
849.753	256.51
849.929	172.54
850.104	131.58
850.279	205.31
850.454	289.28
850.63	209.4
850.805	315.9
850.98	258.56
851.155	129.53
851.33	254.46
851.505	127.49
851.681	489.98
851.856	104.96
852.031	188.93
852.206	336.38
852.381	164.35
852.556	217.6
852.731	94.72
852.906	328.19
853.081	295.42
853.256	301.56
853.431	102.91
853.606	203.26
853.781	20.99
853.956	29.18
854.131	113.15
854.305	64
854.48	188.93
854.655	100.86
854.83	113.15
855.005	244.22
855.18	348.67
855.354	156.16
855.529	72.19
855.704	205.31
855.879	242.17
856.053	6.66
856.228	193.02
856.403	90.62
856.577	272.89
856.752	49.66
856.926	131.58
857.101	320
857.276	53.76
857.45	221.69
857.625	268.8
857.799	291.32
857.974	356.86
858.148	20.99
858.323	231.93
858.497	229.88
858.672	39.42
858.846	96.77
859.02	193.02
859.195	111.1
859.369	190.97
859.543	203.26
859.718	182.78
859.892	281.08
860.066	317.95
860.241	86.53
860.415	39.42
860.589	213.5
860.763	203.26
860.938	137.73
861.112	107.01
861.286	205.31
861.46	283.13
861.634	102.91
861.808	139.77
861.982	152.06
862.157	145.92
862.331	72.19
862.505	-46.59
862.679	111.1
862.853	127.49
863.027	141.82
863.201	129.53
863.375	162.3
863.549	295.42
863.722	338.43
863.896	274.94
864.07	197.12
864.244	215.55
864.418	195.07
864.592	172.54
864.766	244.22
864.939	262.65
865.113	76.29
865.287	158.21
865.461	43.52
865.634	160.25
865.808	117.25
865.982	64
866.156	150.01
866.329	-46.59
866.503	193.02
866.676	240.12
866.85	268.8
867.024	104.96
867.197	231.93
867.371	152.06
867.544	336.38
867.718	68.09
867.891	295.42
868.065	57.86
868.238	213.5
868.412	354.81
868.585	150.01
868.759	113.15
868.932	162.3
869.105	98.81
869.279	211.45
869.452	-15.87
869.625	297.47
869.799	221.69
869.972	-11.78
870.145	131.58
870.319	395.77
870.492	147.97
870.665	80.38
870.838	39.42
871.011	-26.11
871.185	131.58
871.358	53.76
871.531	332.28
871.704	121.34
871.877	160.25
872.05	43.52
872.223	-67.07
872.396	356.86
872.569	248.32
872.742	-62.98
872.915	180.73
873.088	102.91
873.261	70.14
873.434	205.31
873.607	31.23
873.78	426.49
873.953	49.66
874.126	109.05
874.299	107.01
874.471	131.58
874.644	152.06
874.817	180.73
874.99	313.85
875.163	111.1
875.335	111.1
875.508	127.49
875.681	197.12
875.853	111.1
876.026	131.58
876.199	209.4
876.371	59.9
876.544	145.92
876.717	135.68
876.889	170.49
877.062	147.97
877.234	107.01
877.407	86.53
877.579	29.18
877.752	154.11
877.924	311.8
878.097	233.98
878.269	117.25
878.442	186.88
878.614	182.78
878.786	139.77
878.959	86.53
879.131	188.93
879.303	-65.02
879.476	164.35
879.648	260.6
879.82	-42.5
879.993	125.44
880.165	98.81
880.337	-24.06
880.509	145.92
880.681	-17.92
880.854	55.81
881.026	213.5
881.198	137.73
881.37	193.02
881.542	158.21
881.714	109.05
881.886	41.47
882.058	166.4
882.23	143.87
882.402	178.69
882.574	199.16
882.746	334.33
882.918	336.38
883.09	170.49
883.262	139.77
883.434	260.6
883.606	-5.63
883.778	25.09
883.95	266.75
884.122	195.07
884.293	358.91
884.465	168.45
884.637	236.03
884.809	119.29
884.98	193.02
885.152	197.12
885.324	137.73
885.496	119.29
885.667	102.91
885.839	131.58
886.011	59.9
886.182	326.14
886.354	244.22
886.525	217.6
886.697	154.11
886.869	61.95
887.04	49.66
887.212	240.12
887.383	209.4
887.555	166.4
887.726	143.87
887.897	64
888.069	129.53
888.24	352.76
888.412	139.77
888.583	121.34
888.754	109.05
888.926	-17.92
889.097	100.86
889.268	12.8
889.44	74.24
889.611	25.09
889.782	41.47
889.953	-34.3
890.125	186.88
890.296	41.47
890.467	94.72
890.638	35.33
890.809	41.47
890.98	111.1
891.151	221.69
891.323	250.36
891.494	20.99
891.665	178.69
891.836	129.53
892.007	61.95
892.178	176.64
892.349	158.21
892.52	104.96
892.691	129.53
892.862	18.94
893.032	-28.16
893.203	33.28
893.374	125.44
893.545	121.34
893.716	-32.26
893.887	209.4
894.057	-15.87
894.228	74.24
894.399	49.66
894.57	344.57
894.74	80.38
894.911	135.68
895.082	64
895.253	193.02
895.423	170.49
895.594	223.74
895.764	268.8
895.935	107.01
896.106	154.11
896.276	18.94
896.447	184.83
896.617	80.38
896.788	-9.73
896.958	88.57
897.129	51.71
897.299	-32.26
897.47	227.84
897.64	180.73
897.81	115.2
897.981	160.25
898.151	2.56
898.322	127.49
898.492	240.12
898.662	-11.78
898.832	20.99
899.003	-15.87
899.173	176.64
899.343	-52.74
899.513	-36.35
