Data from USB4F104151__38__11-51-44-267.txt Node

Date: Fri Mar 14 11:51:44 EDT 2025
User: louis
Spectrometer: USB4F10415
Trigger mode: 4
Integration Time (sec): 2.000000E-2
Scans to average: 1
Electric dark correction enabled: true
Nonlinearity correction enabled: false
Boxcar width: 0
XAxis mode: Wavelengths
Number of Pixels in Spectrum: 3648
>>>>>Begin Spectral Data<<<<<
178.204	-47.27
178.424	-47.27
178.644	-47.27
178.864	-32.94
179.084	-43.18
179.304	1.88
179.524	32.6
179.744	-22.7
179.964	3.93
180.184	-86.19
180.404	-49.32
180.624	36.69
180.844	48.98
181.064	-28.84
181.283	34.64
181.503	-30.89
181.723	59.22
181.943	-30.89
182.163	-0.17
182.383	30.55
182.602	-2.22
182.822	-6.31
183.042	38.74
183.262	46.93
183.482	24.4
183.701	3.93
183.921	24.4
184.141	-30.89
184.361	48.98
184.58	48.98
184.8	-4.27
185.02	24.4
185.239	3.93
185.459	118.61
185.679	53.08
185.898	18.26
186.118	57.17
186.338	96.08
186.557	85.84
186.777	22.36
186.997	48.98
187.216	48.98
187.436	61.27
187.655	28.5
187.875	1.88
188.095	77.65
188.314	30.55
188.534	42.84
188.753	3.93
188.973	26.45
189.192	20.31
189.412	-20.65
189.631	-0.17
189.851	42.84
190.07	75.6
190.29	38.74
190.509	26.45
190.729	59.22
190.948	75.6
191.168	67.41
191.387	-41.13
191.607	36.69
191.826	14.17
192.045	12.12
192.265	48.98
192.484	-12.46
192.704	5.97
192.923	44.88
193.142	61.27
193.362	57.17
193.581	30.55
193.8	63.32
194.02	63.32
194.239	-2.22
194.458	69.46
194.678	-10.41
194.897	55.12
195.116	67.41
195.335	14.17
195.555	104.28
195.774	-18.6
195.993	75.6
196.212	30.55
196.432	-37.03
196.651	57.17
196.87	22.36
197.089	53.08
197.308	98.13
197.528	22.36
197.747	8.02
197.966	8.02
198.185	77.65
198.404	10.07
198.623	42.84
198.842	-20.65
199.062	53.08
199.281	14.17
199.5	44.88
199.719	-51.37
199.938	8.02
200.157	16.21
200.376	59.22
200.595	94.04
200.814	1.88
201.033	5.97
201.252	69.46
201.471	73.56
201.69	28.5
201.909	18.26
202.128	-2.22
202.347	53.08
202.566	22.36
202.785	28.5
203.004	30.55
203.223	190.29
203.442	46.93
203.661	-6.31
203.879	32.6
204.098	30.55
204.317	14.17
204.536	73.56
204.755	14.17
204.974	73.56
205.193	38.74
205.411	128.85
205.63	28.5
205.849	87.89
206.068	26.45
206.287	-8.36
206.505	69.46
206.724	77.65
206.943	81.75
207.162	71.51
207.381	96.08
207.599	57.17
207.818	36.69
208.037	55.12
208.255	42.84
208.474	110.42
208.693	16.21
208.911	22.36
209.13	75.6
209.349	-26.79
209.567	63.32
209.786	-18.6
210.005	26.45
210.223	46.93
210.442	-26.79
210.661	108.37
210.879	24.4
211.098	24.4
211.316	42.84
211.535	32.6
211.753	40.79
211.972	-14.51
212.191	-0.17
212.409	59.22
212.628	-73.9
212.846	128.85
213.065	77.65
213.283	81.75
213.502	36.69
213.72	-12.46
213.938	73.56
214.157	10.07
214.375	22.36
214.594	40.79
214.812	16.21
215.031	42.84
215.249	38.74
215.467	26.45
215.686	-47.27
215.904	-8.36
216.122	63.32
216.341	24.4
216.559	18.26
216.778	110.42
216.996	20.31
217.214	87.89
217.432	-18.6
217.651	-12.46
217.869	36.69
218.087	28.5
218.306	28.5
218.524	75.6
218.742	-14.51
218.96	85.84
219.179	36.69
219.397	98.13
219.615	57.17
219.833	-4.27
220.051	22.36
220.27	-6.31
220.488	67.41
220.706	-2.22
220.924	32.6
221.142	34.64
221.36	30.55
221.578	3.93
221.796	48.98
222.015	61.27
222.233	26.45
222.451	8.02
222.669	36.69
222.887	114.52
223.105	-10.41
223.323	36.69
223.541	20.31
223.759	22.36
223.977	-32.94
224.195	87.89
224.413	122.71
224.631	44.88
224.849	36.69
225.067	38.74
225.285	114.52
225.503	-12.46
225.721	-16.55
225.939	53.08
226.157	75.6
226.375	44.88
226.592	40.79
226.81	44.88
227.028	48.98
227.246	65.36
227.464	48.98
227.682	157.52
227.9	10.07
228.117	10.07
228.335	24.4
228.553	83.8
228.771	36.69
228.989	94.04
229.206	16.21
229.424	96.08
229.642	51.03
229.86	36.69
230.077	40.79
230.295	28.5
230.513	71.51
230.731	87.89
230.948	102.23
231.166	114.52
231.384	69.46
231.601	53.08
231.819	28.5
232.037	65.36
232.254	46.93
232.472	81.75
232.689	44.88
232.907	38.74
233.125	-0.17
233.342	-8.36
233.56	-39.08
233.777	28.5
233.995	44.88
234.213	26.45
234.43	48.98
234.648	14.17
234.865	75.6
235.083	59.22
235.3	51.03
235.518	30.55
235.735	-2.22
235.953	51.03
236.17	-6.31
236.388	20.31
236.605	32.6
236.822	16.21
237.04	124.76
237.257	-10.41
237.475	83.8
237.692	104.28
237.909	44.88
238.127	44.88
238.344	81.75
238.562	10.07
238.779	3.93
238.996	20.31
239.214	38.74
239.431	85.84
239.648	69.46
239.865	94.04
240.083	24.4
240.3	-14.51
240.517	28.5
240.735	-2.22
240.952	63.32
241.169	32.6
241.386	32.6
241.603	46.93
241.821	48.98
242.038	75.6
242.255	61.27
242.472	51.03
242.689	3.93
242.907	61.27
243.124	-14.51
243.341	34.64
243.558	30.55
243.775	38.74
243.992	-20.65
244.209	5.97
244.426	61.27
244.643	89.94
244.86	12.12
245.078	36.69
245.295	130.9
245.512	48.98
245.729	94.04
245.946	12.12
246.163	12.12
246.38	42.84
246.597	28.5
246.814	40.79
247.031	67.41
247.248	53.08
247.464	-8.36
247.681	67.41
247.898	1.88
248.115	51.03
248.332	65.36
248.549	118.61
248.766	104.28
248.983	42.84
249.2	77.65
249.417	79.7
249.633	22.36
249.85	63.32
250.067	16.21
250.284	26.45
250.501	51.03
250.717	30.55
250.934	28.5
251.151	116.56
251.368	-12.46
251.585	61.27
251.801	77.65
252.018	32.6
252.235	85.84
252.451	24.4
252.668	30.55
252.885	30.55
253.102	57.17
253.318	77.65
253.535	-2.22
253.752	53.08
253.968	61.27
254.185	22.36
254.401	65.36
254.618	102.23
254.835	55.12
255.051	-14.51
255.268	77.65
255.484	63.32
255.701	3.93
255.917	89.94
256.134	42.84
256.351	14.17
256.567	-47.27
256.784	32.6
257	67.41
257.217	104.28
257.433	46.93
257.65	57.17
257.866	48.98
258.082	32.6
258.299	-22.7
258.515	12.12
258.732	112.47
258.948	42.84
259.165	8.02
259.381	42.84
259.597	20.31
259.814	40.79
260.03	24.4
260.246	51.03
260.463	61.27
260.679	114.52
260.895	59.22
261.112	106.32
261.328	48.98
261.544	-10.41
261.761	51.03
261.977	42.84
262.193	34.64
262.409	42.84
262.626	81.75
262.842	16.21
263.058	16.21
263.274	16.21
263.49	-39.08
263.707	69.46
263.923	-12.46
264.139	3.93
264.355	124.76
264.571	77.65
264.787	65.36
265.004	34.64
265.22	71.51
265.436	61.27
265.652	18.26
265.868	44.88
266.084	-20.65
266.3	-20.65
266.516	-18.6
266.732	14.17
266.948	28.5
267.164	22.36
267.38	10.07
267.596	1.88
267.812	1.88
268.028	83.8
268.244	104.28
268.46	73.56
268.676	67.41
268.892	-20.65
269.108	59.22
269.324	48.98
269.54	-51.37
269.756	112.47
269.972	12.12
270.188	59.22
270.403	22.36
270.619	-32.94
270.835	22.36
271.051	44.88
271.267	36.69
271.483	-8.36
271.698	94.04
271.914	89.94
272.13	67.41
272.346	61.27
272.562	63.32
272.777	22.36
272.993	98.13
273.209	57.17
273.425	36.69
273.64	20.31
273.856	63.32
274.072	20.31
274.287	51.03
274.503	69.46
274.719	65.36
274.934	12.12
275.15	8.02
275.366	126.8
275.581	22.36
275.797	89.94
276.012	46.93
276.228	14.17
276.444	57.17
276.659	77.65
276.875	1.88
277.09	8.02
277.306	1.88
277.521	65.36
277.737	38.74
277.952	94.04
278.168	116.56
278.383	48.98
278.599	36.69
278.814	57.17
279.03	-12.46
279.245	22.36
279.461	42.84
279.676	112.47
279.892	16.21
280.107	-32.94
280.322	-51.37
280.538	-20.65
280.753	-4.27
280.969	34.64
281.184	32.6
281.399	69.46
281.615	-4.27
281.83	42.84
282.045	-45.23
282.26	22.36
282.476	-6.31
282.691	-10.41
282.906	34.64
283.122	51.03
283.337	28.5
283.552	22.36
283.767	20.31
283.983	67.41
284.198	3.93
284.413	38.74
284.628	65.36
284.843	5.97
285.058	73.56
285.274	-2.22
285.489	36.69
285.704	20.31
285.919	26.45
286.134	102.23
286.349	-22.7
286.564	81.75
286.779	73.56
286.995	51.03
287.21	71.51
287.425	85.84
287.64	98.13
287.855	-4.27
288.07	28.5
288.285	59.22
288.5	85.84
288.715	53.08
288.93	16.21
289.145	57.17
289.36	81.75
289.575	73.56
289.79	59.22
290.004	-4.27
290.219	-14.51
290.434	69.46
290.649	-2.22
290.864	32.6
291.079	-6.31
291.294	3.93
291.509	8.02
291.724	32.6
291.938	10.07
292.153	44.88
292.368	28.5
292.583	73.56
292.798	59.22
293.012	128.85
293.227	5.97
293.442	40.79
293.657	-0.17
293.871	122.71
294.086	34.64
294.301	100.18
294.516	69.46
294.73	20.31
294.945	77.65
295.16	34.64
295.374	118.61
295.589	3.93
295.804	59.22
296.018	46.93
296.233	26.45
296.447	130.9
296.662	63.32
296.877	135
297.091	-4.27
297.306	63.32
297.52	77.65
297.735	46.93
297.949	36.69
298.164	-6.31
298.378	63.32
298.593	42.84
298.807	53.08
299.022	57.17
299.236	85.84
299.451	100.18
299.665	32.6
299.88	-39.08
300.094	59.22
300.309	38.74
300.523	51.03
300.737	124.76
300.952	10.07
301.166	28.5
301.381	-8.36
301.595	46.93
301.809	106.32
302.024	-18.6
302.238	75.6
302.452	63.32
302.667	20.31
302.881	71.51
303.095	-41.13
303.309	38.74
303.524	10.07
303.738	87.89
303.952	73.56
304.166	30.55
304.381	22.36
304.595	-6.31
304.809	-12.46
305.023	89.94
305.237	40.79
305.452	69.46
305.666	51.03
305.88	77.65
306.094	42.84
306.308	75.6
306.522	104.28
306.736	69.46
306.95	141.14
307.164	34.64
307.379	34.64
307.593	89.94
307.807	112.47
308.021	91.99
308.235	44.88
308.449	18.26
308.663	57.17
308.877	89.94
309.091	28.5
309.305	63.32
309.519	26.45
309.733	73.56
309.947	34.64
310.161	24.4
310.374	51.03
310.588	-18.6
310.802	59.22
311.016	53.08
311.23	69.46
311.444	57.17
311.658	57.17
311.872	118.61
312.085	38.74
312.299	73.56
312.513	30.55
312.727	-6.31
312.941	42.84
313.154	-22.7
313.368	28.5
313.582	83.8
313.796	16.21
314.009	61.27
314.223	53.08
314.437	-0.17
314.651	44.88
314.864	18.26
315.078	28.5
315.292	73.56
315.505	20.31
315.719	83.8
315.933	48.98
316.146	67.41
316.36	26.45
316.573	106.32
316.787	69.46
317.001	128.85
317.214	28.5
317.428	42.84
317.641	-2.22
317.855	20.31
318.068	36.69
318.282	38.74
318.495	96.08
318.709	5.97
318.922	46.93
319.136	57.17
319.349	69.46
319.563	51.03
319.776	44.88
319.99	12.12
320.203	42.84
320.417	75.6
320.63	85.84
320.843	87.89
321.057	73.56
321.27	46.93
321.483	32.6
321.697	-24.75
321.91	96.08
322.124	73.56
322.337	-4.27
322.55	-28.84
322.763	55.12
322.977	73.56
323.19	71.51
323.403	36.69
323.617	63.32
323.83	124.76
324.043	18.26
324.256	57.17
324.469	77.65
324.683	-2.22
324.896	48.98
325.109	73.56
325.322	26.45
325.535	122.71
325.748	128.85
325.962	65.36
326.175	24.4
326.388	104.28
326.601	102.23
326.814	-26.79
327.027	51.03
327.24	79.7
327.453	28.5
327.666	48.98
327.879	-6.31
328.092	-4.27
328.305	48.98
328.518	71.51
328.731	51.03
328.944	20.31
329.157	106.32
329.37	85.84
329.583	61.27
329.796	16.21
330.009	34.64
330.222	112.47
330.435	65.36
330.648	61.27
330.861	40.79
331.073	26.45
331.286	38.74
331.499	55.12
331.712	-12.46
331.925	24.4
332.138	108.37
332.35	69.46
332.563	22.36
332.776	124.76
332.989	-8.36
333.202	36.69
333.414	12.12
333.627	22.36
333.84	61.27
334.053	87.89
334.265	1.88
334.478	46.93
334.691	79.7
334.903	65.36
335.116	-4.27
335.329	79.7
335.541	26.45
335.754	108.37
335.966	28.5
336.179	79.7
336.392	44.88
336.604	89.94
336.817	22.36
337.029	120.66
337.242	104.28
337.454	16.21
337.667	46.93
337.88	77.65
338.092	36.69
338.305	96.08
338.517	55.12
338.729	5.97
338.942	116.56
339.154	30.55
339.367	22.36
339.579	-20.65
339.792	1.88
340.004	112.47
340.217	53.08
340.429	16.21
340.641	42.84
340.854	44.88
341.066	63.32
341.278	5.97
341.491	110.42
341.703	42.84
341.915	57.17
342.128	102.23
342.34	12.12
342.552	-8.36
342.764	63.32
342.977	53.08
343.189	42.84
343.401	157.52
343.613	-28.84
343.826	79.7
344.038	20.31
344.25	65.36
344.462	8.02
344.674	24.4
344.886	36.69
345.099	-24.75
345.311	8.02
345.523	87.89
345.735	-75.95
345.947	96.08
346.159	104.28
346.371	59.22
346.583	32.6
346.795	10.07
347.007	57.17
347.219	100.18
347.431	114.52
347.643	46.93
347.855	5.97
348.067	79.7
348.279	26.45
348.491	57.17
348.703	79.7
348.915	71.51
349.127	18.26
349.339	98.13
349.551	-16.55
349.763	55.12
349.975	51.03
350.187	87.89
350.399	65.36
350.61	108.37
350.822	77.65
351.034	108.37
351.246	-8.36
351.458	-4.27
351.669	87.89
351.881	147.28
352.093	67.41
352.305	71.51
352.517	10.07
352.728	77.65
352.94	102.23
353.152	83.8
353.363	46.93
353.575	108.37
353.787	8.02
353.999	-37.03
354.21	67.41
354.422	114.52
354.633	94.04
354.845	130.9
355.057	5.97
355.268	12.12
355.48	36.69
355.692	63.32
355.903	44.88
356.115	28.5
356.326	69.46
356.538	16.21
356.749	26.45
356.961	102.23
357.172	8.02
357.384	30.55
357.595	55.12
357.807	32.6
358.018	20.31
358.23	65.36
358.441	89.94
358.653	96.08
358.864	42.84
359.075	94.04
359.287	91.99
359.498	85.84
359.709	8.02
359.921	65.36
360.132	32.6
360.344	57.17
360.555	87.89
360.766	163.67
360.977	110.42
361.189	161.62
361.4	57.17
361.611	126.8
361.823	59.22
362.034	14.17
362.245	34.64
362.456	36.69
362.667	89.94
362.879	55.12
363.09	20.31
363.301	126.8
363.512	81.75
363.723	89.94
363.935	-6.31
364.146	75.6
364.357	12.12
364.568	65.36
364.779	34.64
364.99	57.17
365.201	53.08
365.412	135
365.623	44.88
365.834	5.97
366.045	59.22
366.256	1.88
366.467	104.28
366.678	104.28
366.889	81.75
367.1	73.56
367.311	65.36
367.522	98.13
367.733	94.04
367.944	67.41
368.155	-2.22
368.366	106.32
368.577	40.79
368.788	137.04
368.999	57.17
369.209	42.84
369.42	67.41
369.631	147.28
369.842	10.07
370.053	112.47
370.264	55.12
370.474	69.46
370.685	36.69
370.896	69.46
371.107	67.41
371.317	36.69
371.528	51.03
371.739	26.45
371.95	46.93
372.16	61.27
372.371	85.84
372.582	73.56
372.792	79.7
373.003	114.52
373.214	44.88
373.424	81.75
373.635	128.85
373.846	83.8
374.056	42.84
374.267	18.26
374.477	100.18
374.688	94.04
374.898	85.84
375.109	85.84
375.319	85.84
375.53	75.6
375.74	18.26
375.951	53.08
376.161	61.27
376.372	40.79
376.582	-30.89
376.793	14.17
377.003	63.32
377.214	77.65
377.424	89.94
377.635	32.6
377.845	44.88
378.055	155.47
378.266	61.27
378.476	-45.23
378.686	59.22
378.897	91.99
379.107	159.57
379.317	51.03
379.528	67.41
379.738	96.08
379.948	3.93
380.158	71.51
380.369	65.36
380.579	91.99
380.789	53.08
380.999	51.03
381.21	118.61
381.42	22.36
381.63	53.08
381.84	98.13
382.05	22.36
382.261	130.9
382.471	53.08
382.681	73.56
382.891	104.28
383.101	51.03
383.311	83.8
383.521	91.99
383.731	36.69
383.941	128.85
384.151	42.84
384.361	42.84
384.571	-2.22
384.781	63.32
384.991	61.27
385.201	71.51
385.411	65.36
385.621	34.64
385.831	104.28
386.041	120.66
386.251	36.69
386.461	61.27
386.671	16.21
386.881	122.71
387.091	75.6
387.301	-0.17
387.511	61.27
387.72	110.42
387.93	63.32
388.14	1.88
388.35	85.84
388.56	-6.31
388.769	38.74
388.979	30.55
389.189	53.08
389.399	79.7
389.609	85.84
389.818	122.71
390.028	100.18
390.238	51.03
390.447	34.64
390.657	114.52
390.867	77.65
391.076	77.65
391.286	65.36
391.496	114.52
391.705	65.36
391.915	87.89
392.125	-39.08
392.334	73.56
392.544	55.12
392.753	30.55
392.963	40.79
393.172	59.22
393.382	61.27
393.591	77.65
393.801	44.88
394.01	96.08
394.22	120.66
394.429	128.85
394.639	77.65
394.848	145.24
395.058	102.23
395.267	75.6
395.477	163.67
395.686	83.8
395.895	69.46
396.105	175.95
396.314	63.32
396.524	110.42
396.733	40.79
396.942	65.36
397.152	116.56
397.361	182.1
397.57	83.8
397.78	96.08
397.989	106.32
398.198	98.13
398.407	100.18
398.617	91.99
398.826	81.75
399.035	110.42
399.244	20.31
399.453	141.14
399.663	139.09
399.872	110.42
400.081	114.52
400.29	192.34
400.499	81.75
400.708	163.67
400.917	40.79
401.127	161.62
401.336	116.56
401.545	167.76
401.754	100.18
401.963	120.66
402.172	143.19
402.381	91.99
402.59	139.09
402.799	87.89
403.008	137.04
403.217	186.19
403.426	155.47
403.635	155.47
403.844	120.66
404.053	221.01
404.262	26.45
404.471	116.56
404.68	159.57
404.888	77.65
405.097	180.05
405.306	139.09
405.515	126.8
405.724	110.42
405.933	126.8
406.142	130.9
406.35	178
406.559	178
406.768	186.19
406.977	307.02
407.185	206.67
407.394	229.2
407.603	180.05
407.812	239.44
408.02	241.49
408.229	204.63
408.438	245.59
408.646	167.76
408.855	282.45
409.064	157.52
409.272	239.44
409.481	331.6
409.69	288.59
409.898	282.45
410.107	360.27
410.315	302.93
410.524	257.87
410.733	360.27
410.941	329.55
411.15	345.94
411.358	317.26
411.567	434
411.775	409.42
411.984	401.23
412.192	364.37
412.401	487.25
412.609	497.49
412.818	468.81
413.026	456.53
413.234	554.83
413.443	380.75
413.651	464.72
413.86	587.6
414.068	589.64
414.276	528.21
414.485	528.21
414.693	630.6
414.901	724.81
415.11	646.99
415.318	675.66
415.526	706.38
415.734	720.71
415.943	724.81
416.151	733
416.359	724.81
416.567	765.77
416.776	839.5
416.984	929.61
417.192	931.66
417.4	982.85
417.608	931.66
417.817	984.9
418.025	1040.2
418.233	1081.16
418.441	1040.2
418.649	1105.73
418.857	1126.21
419.065	1224.51
419.273	1240.9
419.481	1267.52
419.689	1320.77
419.897	1349.44
420.105	1376.06
420.313	1390.4
420.521	1468.22
420.729	1595.2
420.937	1652.54
421.145	1597.24
421.353	1763.13
421.561	1781.56
421.769	1789.75
421.977	1830.71
422.185	1996.6
422.393	1963.83
422.601	2039.61
422.809	2101.05
423.017	2223.92
423.224	2172.72
423.432	2369.33
423.64	2277.17
423.848	2455.34
424.056	2445.1
424.263	2617.13
424.471	2699.05
424.679	2645.8
424.887	2881.32
425.094	2899.75
425.302	2899.75
425.51	3043.11
425.718	3215.14
425.925	2996.01
426.133	3206.95
426.341	3469.09
426.548	3677.98
426.756	3565.34
426.964	3585.82
427.171	3874.59
427.379	3917.59
427.586	3972.89
427.794	4081.43
428.001	4329.24
428.209	4501.26
428.417	4400.91
428.624	4763.4
428.832	4687.63
429.039	4634.38
429.247	4570.9
429.454	5232.39
429.662	5459.71
429.869	5199.62
430.076	5459.71
430.284	5383.94
430.491	5607.17
430.699	6012.67
430.906	5996.28
431.114	6016.76
431.321	6108.92
431.528	6305.53
431.736	6831.85
431.943	7014.12
432.15	6792.94
432.358	6862.57
432.565	7356.13
432.772	7280.36
432.979	7737.06
433.187	7786.21
433.394	7864.03
433.601	8275.67
433.808	8488.66
434.016	8191.7
434.223	8900.3
434.43	9299.66
434.637	9025.23
434.844	9619.14
435.052	9922.24
435.259	9846.46
435.466	9569.99
435.673	9789.12
435.88	10559.16
436.087	10880.69
436.294	11062.96
436.501	10700.47
436.708	11046.57
436.915	11409.06
437.122	11863.71
437.329	11839.14
437.537	12011.17
437.743	12424.86
437.95	12236.44
438.157	12822.16
438.364	13264.52
438.571	13086.35
438.778	13358.73
438.985	14710.39
439.192	14139.01
439.399	14536.31
439.606	14026.37
439.813	14906.99
440.02	15666.79
440.227	15357.55
440.433	15328.88
440.64	15857.25
440.847	15816.29
441.054	16285.28
441.261	17460.81
441.467	17055.31
441.674	17210.96
441.881	18230.85
442.088	17989.19
442.294	17827.4
442.501	18265.66
442.708	18546.23
442.914	19312.17
443.121	19959.33
443.328	19738.15
443.534	20885.01
443.741	20426.27
443.948	19998.24
444.154	21757.45
444.361	21868.04
444.568	21661.19
444.774	21534.22
444.981	22058.5
445.187	22679.04
445.394	23502.32
445.6	23148.02
445.807	25505.23
446.013	24489.44
446.22	24808.92
446.426	25712.08
446.633	25796.04
446.839	26926.52
447.046	25978.31
447.252	27225.53
447.459	27084.22
447.665	26922.43
447.871	28577.19
448.078	29662.61
448.284	28284.33
448.491	28964.25
448.697	29928.84
448.903	30733.7
449.11	30428.55
449.316	29986.19
449.522	30721.41
449.728	31585.65
449.935	31778.16
450.141	31475.06
450.347	32179.56
450.553	31499.64
450.76	32109.93
450.966	33183.07
451.172	32388.46
451.378	33527.13
451.584	32666.98
451.791	33305.95
451.997	33572.18
452.203	33283.42
452.409	34334.03
452.615	33465.69
452.821	32650.6
453.027	32275.82
453.233	33910.1
453.44	33037.66
453.646	33006.94
453.852	33054.04
454.058	33881.42
454.264	32142.7
454.47	33099.1
454.676	32339.3
454.882	33387.86
455.088	30643.59
455.294	31231.35
455.5	31563.12
455.705	31774.06
455.911	30209.42
456.117	29908.36
456.323	29719.95
456.529	27856.3
456.735	29265.3
456.941	28685.73
457.147	27921.84
457.352	27155.89
457.558	26885.56
457.764	26912.19
457.97	26416.58
458.176	25648.59
458.381	26031.56
458.587	24552.93
458.793	24548.83
458.999	23350.77
459.204	24964.57
459.41	24399.33
459.616	22554.11
459.821	22681.08
460.027	22707.71
460.233	21933.57
460.438	21005.84
460.644	21329.42
460.85	20370.97
461.055	20100.64
461.261	19883.56
461.466	18648.63
461.672	17880.64
461.878	19260.98
462.083	17856.07
462.289	17276.49
462.494	17387.08
462.7	16604.76
462.905	16189.02
463.111	16770.65
463.316	17100.37
463.522	16408.15
463.727	16469.59
463.932	16391.77
464.138	16201.31
464.343	16260.7
464.549	15865.44
464.754	16608.86
464.959	16180.83
465.165	16076.38
465.37	15767.14
465.575	15101.55
465.781	15765.09
465.986	15826.53
466.191	15394.41
466.397	14872.18
466.602	14333.56
466.807	14724.72
467.012	14685.81
467.218	14716.53
467.423	14515.83
467.628	14538.36
467.833	14917.23
468.038	14605.94
468.244	14200.44
468.449	14614.13
468.654	14313.08
468.859	14227.07
469.064	14059.13
469.269	13559.43
469.474	13348.49
469.679	13698.69
469.885	13647.49
470.09	13704.84
470.295	13469.32
470.5	13274.76
470.705	13244.04
470.91	13155.98
471.115	12957.33
471.32	12992.14
471.525	13006.48
471.73	12598.93
471.935	12703.38
472.139	12215.96
472.344	12494.49
472.549	12215.96
472.754	12031.65
472.959	11853.47
473.164	11505.32
473.369	11529.89
473.574	11683.49
473.778	11970.21
473.983	11749.03
474.188	11589.28
474.393	11138.73
474.598	11167.4
474.802	10966.7
475.007	10972.85
475.212	11189.93
475.417	10583.73
475.621	10651.31
475.826	10749.62
476.031	10720.95
476.235	10147.51
476.44	10202.81
476.645	10206.91
476.849	10395.32
477.054	9973.44
477.259	10084.03
477.463	9912
477.668	9596.61
477.872	9768.64
478.077	9707.2
478.282	9410.25
478.486	9307.85
478.691	9350.85
478.895	9115.34
479.1	9246.41
479.304	9287.37
479.509	9053.9
479.713	9076.43
479.918	9053.9
480.122	8830.67
480.326	8937.16
480.531	8883.92
480.735	8617.68
480.94	8525.52
481.144	9051.85
481.348	8509.14
481.553	8730.32
481.757	8488.66
481.961	8574.67
482.166	8736.46
482.37	8601.3
482.574	8474.32
482.778	8519.38
482.983	8664.79
483.187	8664.79
483.391	8658.64
483.595	8519.38
483.8	8634.07
484.004	8500.95
484.208	8511.19
484.412	8390.36
484.616	8640.21
484.821	8431.32
485.025	8392.41
485.229	8689.36
485.433	8421.08
485.637	8400.6
485.841	8451.8
486.045	8437.46
486.249	8699.6
486.453	8416.98
486.657	8609.49
486.861	8666.83
487.065	8341.21
487.269	8550.1
487.473	8363.73
487.677	8453.84
487.881	8640.21
488.085	8492.76
488.289	8703.7
488.493	8416.98
488.697	8724.18
488.901	8548.05
489.105	8548.05
489.309	8621.78
489.512	8769.23
489.716	8640.21
489.92	8554.19
490.124	8589.01
490.328	8842.96
490.531	8490.71
490.735	8726.22
490.939	8779.47
491.143	8851.15
491.346	8541.91
491.55	8881.87
491.754	9025.23
491.958	9086.67
492.161	8847.05
492.365	8974.03
492.569	8816.33
492.772	8892.11
492.976	8890.06
493.18	8926.93
493.383	9162.44
493.587	9109.19
493.79	9277.13
493.994	9418.44
494.197	9436.87
494.401	9359.05
494.605	9393.86
494.808	9369.29
495.012	9625.28
495.215	9520.84
495.419	9780.93
495.622	9635.52
495.825	9848.51
496.029	9666.24
496.232	10213.05
496.436	9883.33
496.639	10489.53
496.843	10004.16
497.046	10272.44
497.249	10469.05
497.453	10645.17
497.656	10763.95
497.859	10563.25
498.063	10809.01
498.266	11017.9
498.469	11011.76
498.673	11112.11
498.876	11392.68
499.079	11380.39
499.282	11435.69
499.485	11607.72
499.689	11607.72
499.892	11802.27
500.095	11880.1
500.298	12359.32
500.501	12187.29
500.705	12478.1
500.908	12695.19
501.111	12580.5
501.314	12957.33
501.517	12986
501.72	13006.48
501.923	13010.57
502.126	13303.43
502.329	13577.86
502.532	13747.84
502.735	13778.56
502.938	13665.92
503.141	14030.46
503.344	14157.44
503.547	14233.21
503.75	14388.86
503.953	14798.45
504.156	14976.62
504.359	14755.44
504.562	15332.97
504.765	15251.05
504.968	15308.4
505.17	15625.83
505.373	15681.13
505.576	16010.85
505.779	15890.02
505.982	16045.66
506.185	16578.14
506.387	16250.46
506.59	16604.76
506.793	17102.42
506.996	17051.22
507.198	17376.84
507.401	17100.37
507.604	17462.86
507.807	17808.97
508.009	18103.87
508.212	17995.33
508.415	18273.85
508.617	18312.77
508.82	18662.97
509.022	18312.77
509.225	19033.65
509.428	19228.21
509.63	19349.04
509.833	19346.99
510.035	19709.48
510.238	19930.66
510.44	19912.23
510.643	20375.07
510.845	20491.8
511.048	20516.38
511.25	20629.02
511.453	20672.03
511.655	21667.34
511.858	21290.51
512.06	21734.92
512.262	21704.2
512.465	22072.84
512.667	22093.32
512.87	22423.04
513.072	22593.02
513.274	22945.27
513.477	22992.37
513.679	23246.32
513.881	23561.71
514.084	23219.7
514.286	23574
514.488	23516.65
514.69	24528.35
514.893	24507.87
515.095	24516.06
515.297	24905.18
515.499	25144.79
515.701	24911.32
515.904	25521.62
516.106	25660.88
516.308	25599.44
516.51	26205.64
516.712	26201.54
516.914	26539.46
517.116	26703.29
517.318	27133.37
517.52	27504.05
517.722	27362.74
517.925	27485.62
518.127	27702.7
518.329	28089.77
518.531	27719.09
518.733	28308.9
518.935	28562.85
519.136	28939.68
519.338	29189.53
519.54	29633.94
519.742	29705.62
519.944	29693.33
520.146	30666.11
520.348	30408.07
520.55	30442.88
520.752	30856.57
520.954	31358.33
521.155	31122.81
521.357	31432.05
521.559	31718.77
521.761	32245.1
521.963	32275.82
522.164	32159.08
522.366	32873.82
522.568	32761.19
522.77	32775.52
522.971	33590.61
523.173	33082.72
523.375	33326.42
523.576	33461.59
523.778	33580.37
523.98	34207.05
524.181	34483.53
524.383	34293.07
524.584	34764.1
524.786	34825.54
524.988	34526.53
525.189	35403.07
525.391	35173.69
525.592	35507.51
525.794	35523.9
525.995	35571
526.197	35550.52
526.398	35886.39
526.6	36574.5
526.801	36064.56
527.003	36293.93
527.204	36504.87
527.406	36793.64
527.607	36341.03
527.808	37020.96
528.01	36359.47
528.211	36816.16
528.412	37393.69
528.614	37485.85
528.815	37362.97
529.016	37535
529.218	37563.67
529.419	37530.9
529.62	37575.96
529.822	37584.15
530.023	37608.73
530.224	38100.24
530.425	37995.79
530.626	37860.63
530.828	37635.35
531.029	38370.57
531.23	38190.35
531.431	38216.97
531.632	38937.86
531.833	38491.4
532.035	38333.71
532.236	38497.55
532.437	39195.9
532.638	38116.62
532.839	38571.27
533.04	38925.57
533.241	38460.68
533.442	38743.3
533.643	39038.21
533.844	38620.42
534.045	38862.08
534.246	38319.37
534.447	39267.58
534.648	38767.88
534.849	39021.83
535.05	39009.54
535.251	39040.26
535.451	38823.17
535.652	38771.97
535.853	39066.88
536.054	38976.77
536.255	38790.41
536.456	38620.42
536.657	39316.73
536.857	38845.7
537.058	38745.35
537.259	39120.13
537.46	38937.86
537.66	38909.19
537.861	38767.88
538.062	38774.02
538.263	39144.7
538.463	38898.95
538.664	38628.62
538.865	39189.76
539.065	39402.75
539.266	38677.77
539.466	39456
539.667	38702.34
539.868	39265.53
540.068	39263.49
540.269	39017.73
540.469	39056.64
540.67	39263.49
540.87	38901
541.071	38810.89
541.271	39472.38
541.472	38989.06
541.672	38429.96
541.873	38690.05
542.073	38448.39
542.274	39181.57
542.474	39128.32
542.675	38712.58
542.875	39027.97
543.075	38927.62
543.276	38548.75
543.476	39085.31
543.676	38700.29
543.877	38946.05
544.077	38698.25
544.277	38645
544.478	39286.01
544.678	38765.83
544.878	38958.34
545.078	38579.46
545.279	38745.35
545.479	38487.31
545.679	38909.19
545.879	38706.44
546.079	38601.99
546.28	38673.67
546.48	38622.47
546.68	38737.16
546.88	38507.79
547.08	38681.86
547.28	38622.47
547.48	38216.97
547.68	38499.59
547.88	38462.73
548.081	38776.07
548.281	38575.37
548.481	38292.75
548.681	38552.84
548.881	38380.81
549.081	38511.88
549.28	38429.96
549.48	38509.83
549.68	38294.8
549.88	38804.74
550.08	38241.55
550.28	38659.34
550.48	38268.17
550.68	38827.27
550.88	38348.04
551.08	38227.21
551.279	38571.27
551.479	38393.1
551.679	38302.99
551.879	38315.28
552.079	38536.46
552.278	38176.01
552.478	38427.91
552.678	38368.52
552.878	38364.43
553.077	38112.53
553.277	38309.13
553.477	38614.28
553.676	38278.41
553.876	38081.81
554.076	37731.61
554.275	37797.14
554.475	37668.12
554.674	37905.68
554.874	38038.8
555.074	37975.31
555.273	37813.52
555.473	38286.61
555.672	37666.07
555.872	38085.9
556.071	37860.63
556.271	37932.31
556.47	37684.5
556.67	37459.23
556.869	37850.39
557.068	37922.07
557.268	37426.46
557.467	37311.77
557.667	37508.38
557.866	37301.53
558.065	37608.73
558.265	37053.73
558.464	37209.37
558.663	37829.91
558.863	36945.19
559.062	37834
559.261	36719.91
559.461	37180.7
559.66	36867.36
559.859	37045.54
560.058	37053.73
560.258	37076.26
560.457	36613.41
560.656	37004.58
560.855	36779.3
561.054	37188.89
561.253	36590.89
561.453	36605.22
561.652	36822.31
561.851	36607.27
562.05	36468.01
562.249	36050.22
562.448	36564.26
562.647	36715.81
562.846	36287.79
563.045	36222.25
563.244	36091.18
563.443	36277.55
563.642	35611.96
563.841	35712.31
564.04	35888.43
564.239	36175.15
564.438	35695.92
564.637	35845.43
564.836	35943.73
565.035	35351.87
565.234	35620.15
565.432	35468.6
565.631	35142.97
565.83	35521.85
566.029	35202.36
566.228	35253.56
566.427	34751.81
566.625	34839.87
566.824	34680.13
567.023	35239.23
567.222	34299.21
567.42	35044.67
567.619	34700.61
567.818	34456.9
568.016	34356.55
568.215	34872.64
568.414	34430.28
568.612	34551.11
568.811	34252.11
569.01	34219.34
569.208	33949.01
569.407	34213.2
569.605	33869.14
569.804	34057.55
570.002	33740.11
570.201	33895.76
570.4	33623.38
570.598	33297.75
570.797	33488.21
570.995	33441.11
571.193	33129.82
571.392	33553.75
571.59	33332.57
571.789	33115.48
571.987	33277.27
572.186	33056.09
572.384	32656.74
572.582	33031.52
572.781	33078.62
572.979	32437.61
573.177	32634.21
573.376	32529.76
573.574	32255.34
573.772	32601.44
573.971	32226.67
574.169	32148.84
574.367	31855.98
574.565	32230.76
574.763	32197.99
574.962	32003.44
575.16	31405.43
575.358	31778.16
575.556	31145.34
575.754	32212.33
575.952	31421.81
576.151	31608.18
576.349	31352.18
576.547	31090.04
576.745	31409.53
576.943	31270.26
577.141	31096.19
577.339	31376.76
577.537	31135.1
577.735	30782.85
577.933	30375.3
578.131	30862.72
578.329	30528.9
578.527	30238.09
578.725	30750.08
578.923	30793.09
579.121	29996.43
579.319	30285.19
579.516	30250.38
579.714	30137.74
579.912	30111.11
580.11	29771.15
580.308	29885.84
580.506	29789.58
580.704	29439.38
580.901	29738.38
581.099	29771.15
581.297	29435.28
581.495	29300.12
581.692	29453.72
581.89	29328.79
582.088	29615.51
582.285	29474.2
582.483	29463.96
582.681	28902.81
582.878	28968.35
583.076	29033.88
583.274	28921.24
583.471	28681.63
583.669	28724.64
583.866	28329.38
584.064	28698.02
584.262	28390.82
584.459	28833.18
584.657	28052.91
584.854	28736.93
585.052	28018.09
585.249	28181.93
585.447	28278.18
585.644	27762.09
585.841	27981.23
586.039	27983.27
586.236	27725.23
586.434	27520.43
586.631	27839.92
586.828	27700.65
587.026	27534.77
587.223	27362.74
587.42	27039.16
587.618	27299.25
587.815	27200.95
588.012	26949.05
588.21	26971.58
588.407	27108.79
588.604	26527.17
588.801	26598.85
588.999	26822.08
589.196	26701.25
589.393	26838.46
589.59	26326.47
589.787	26465.73
589.984	26113.48
590.182	26097.1
590.379	26099.14
590.576	26043.85
590.773	26049.99
590.97	26041.8
591.167	25970.12
591.364	25525.71
591.561	25906.63
591.758	25322.96
591.955	25581.01
592.152	25750.99
592.349	25171.41
592.546	25540.05
592.743	25288.15
592.94	24993.24
593.137	25138.65
593.334	25322.96
593.531	24821.21
593.727	24935.9
593.924	24901.08
594.121	24600.03
594.318	24626.65
594.515	24507.87
594.712	24845.79
594.908	24389.09
595.105	24579.55
595.302	24301.03
595.499	24450.53
595.696	24204.77
595.892	23893.48
596.089	23893.48
596.286	24133.09
596.482	23809.51
596.679	24051.17
596.876	23987.69
597.072	24032.74
597.269	23678.44
597.466	23768.55
597.662	23444.98
597.859	23330.29
598.055	23639.53
598.252	23463.41
598.448	23211.51
598.645	23254.51
598.841	23019
599.038	22814.2
599.234	23125.49
599.431	22527.49
599.627	22654.46
599.824	22961.65
600.02	22449.66
600.217	22429.18
600.413	22697.47
600.609	22586.88
600.806	22255.11
601.002	22535.68
601.198	22150.66
601.395	22005.25
601.591	21990.92
601.787	21736.97
601.984	21831.18
602.18	22109.7
602.376	21999.11
602.572	21798.41
602.769	21927.43
602.965	21534.22
603.161	21792.26
603.357	21263.89
603.553	21544.46
603.75	21804.55
603.946	21304.85
604.142	21259.79
604.338	21036.56
604.534	21089.81
604.73	20942.36
604.926	20964.89
605.122	20749.85
605.318	20774.42
605.514	20858.39
605.71	20522.52
605.906	20643.35
606.102	20645.4
606.298	20760.09
606.494	20708.89
606.69	20760.09
606.886	20395.55
607.082	20094.5
607.278	20530.72
607.474	20424.22
607.67	20428.32
607.866	20053.54
608.062	20248.1
608.257	20153.89
608.453	20035.11
608.649	20090.4
608.845	19734.06
609.041	20041.25
609.236	19887.65
609.432	19543.6
609.628	19768.87
609.824	19822.12
610.019	19764.78
610.215	19621.42
610.411	19760.68
610.606	19682.86
610.802	19494.44
610.998	19496.49
611.193	19815.97
611.389	19342.89
611.584	19445.29
611.78	19260.98
611.976	19371.57
612.171	19537.45
612.367	19256.88
612.562	19207.73
612.758	18781.75
612.953	18859.57
613.149	19428.91
613.344	18910.77
613.539	19279.41
613.735	19400.24
613.93	19334.7
614.126	18810.42
614.321	19017.27
614.517	19166.77
614.712	18908.72
614.907	18589.24
615.103	18787.89
615.298	18705.98
615.493	18609.72
615.688	18337.34
615.884	18726.46
616.079	18290.24
616.274	18927.16
616.47	18724.41
616.665	18597.43
616.86	18378.3
617.055	18265.66
617.25	18495.04
617.445	18550.33
617.641	18024
617.836	18445.88
618.031	18226.75
618.226	18216.51
618.421	17833.54
618.616	18400.83
618.811	17962.56
619.006	17948.23
619.201	17745.48
619.396	17835.59
619.591	17327.69
619.786	17653.32
619.981	17362.51
620.176	17509.96
620.371	17499.72
620.566	17434.19
620.761	17466.95
620.956	17604.17
621.151	16948.82
621.346	17051.22
621.541	17030.74
621.735	17045.07
621.93	16823.89
622.125	16772.69
622.32	16301.66
622.515	16719.45
622.709	16365.15
622.904	16479.83
623.099	16215.65
623.294	16223.84
623.488	16186.97
623.683	16229.98
623.878	15978.08
624.072	15894.11
624.267	15949.41
624.462	15834.72
624.656	15750.76
624.851	15736.42
625.046	15470.19
625.24	15421.03
625.435	15492.71
625.629	15308.4
625.824	15226.48
626.018	15154.8
626.213	14759.54
626.407	14818.93
626.602	14767.73
626.796	14745.2
626.991	14870.13
627.185	14665.33
627.38	14550.65
627.574	14593.65
627.768	14300.8
627.963	14206.59
628.157	14112.38
628.352	14042.75
628.546	13780.61
628.74	14212.73
628.935	13766.28
629.129	14059.13
629.323	13698.69
629.517	13622.92
629.712	13647.49
629.906	13653.64
630.1	13244.04
630.294	13362.83
630.489	13246.09
630.683	13235.85
630.877	12904.08
631.071	13006.48
631.265	13233.8
631.459	13049.49
631.653	13153.93
631.848	12795.54
632.042	12742.29
632.236	12639.89
632.43	12527.25
632.624	12783.25
632.818	12676.76
633.012	12435.1
633.206	12207.77
633.4	12375.7
633.594	12338.84
633.788	12312.22
633.982	12308.12
634.176	12129.95
634.369	12062.37
634.563	11994.78
634.757	11820.7
634.951	11972.25
635.145	11894.43
635.339	11712.16
635.533	11826.85
635.726	11849.38
635.92	11456.17
636.114	11417.26
636.308	11474.6
636.501	11542.18
636.695	11273.9
636.889	11226.79
637.083	11249.32
637.276	11017.9
637.47	11108.01
637.664	11085.48
637.857	11249.32
638.051	10970.8
638.244	10999.47
638.438	10890.93
638.632	10749.62
638.825	10772.14
639.019	10421.94
639.212	10591.92
639.406	10561.2
639.599	10378.93
639.793	10495.67
639.986	10147.51
640.18	10442.42
640.373	10309.3
640.567	10024.64
640.76	10012.35
640.954	9926.33
641.147	9961.15
641.34	9875.13
641.534	9909.95
641.727	9817.79
641.92	9860.8
642.114	9676.48
642.307	9805.5
642.5	9612.99
642.694	9404.1
642.887	9688.77
643.08	9555.65
643.273	9436.87
643.467	9541.32
643.66	9260.74
643.853	9283.27
644.046	9166.54
644.239	9223.88
644.432	9047.76
644.626	9088.71
644.819	9144.01
645.012	8992.46
645.205	8867.53
645.398	8812.24
645.591	8851.15
645.784	8971.98
645.977	8707.79
646.17	8836.81
646.363	8599.25
646.556	8490.71
646.749	8701.65
646.942	8589.01
647.135	8531.67
647.328	8421.08
647.521	8566.48
647.714	8441.56
647.907	8195.8
648.099	8179.42
648.292	8310.49
648.485	8029.91
648.678	8079.07
648.871	8017.63
649.064	8029.91
649.256	8136.41
649.449	7939.8
649.642	7796.45
649.835	7800.54
650.027	8003.29
650.22	7864.03
650.413	7644.9
650.605	7845.6
650.798	7767.77
650.991	7761.63
651.183	7405.28
651.376	7413.48
651.568	7481.06
651.761	7681.76
651.954	7440.1
652.146	7530.21
652.339	7450.34
652.531	7341.8
652.724	7214.82
652.916	7016.17
653.109	7321.32
653.301	7214.82
653.494	7208.68
653.686	7134.95
653.879	7261.93
654.071	7120.62
654.263	6973.16
654.456	7143.14
654.648	7034.6
654.84	6878.96
655.033	6917.87
655.225	6858.48
655.417	6725.36
655.61	6702.83
655.802	6881
655.994	6702.83
656.186	6788.85
656.379	6774.51
656.571	6528.75
656.763	6479.6
656.955	6588.14
657.148	6538.99
657.34	6582
657.532	6348.53
657.724	6452.98
657.916	6352.63
658.108	6387.44
658.3	6256.37
658.492	6266.61
658.684	6260.47
658.876	6207.22
659.068	6055.67
659.26	6201.08
659.452	5951.23
659.644	6037.24
659.836	6084.34
660.028	6246.13
660.22	5961.47
660.412	6018.81
660.604	6031.1
660.796	5920.51
660.988	5924.6
661.18	5859.07
661.372	5668.61
661.563	5773.05
661.755	5693.18
661.947	5697.28
662.139	5795.58
662.331	5543.68
662.522	5596.93
662.714	5703.42
662.906	5607.17
663.097	5529.34
663.289	5345.03
663.481	5435.14
663.673	5578.5
663.864	5584.64
664.056	5474.05
664.247	5504.77
664.439	5299.97
664.631	5410.56
664.822	5230.34
665.014	5510.91
665.205	5209.86
665.397	5201.67
665.588	5310.21
665.78	5150.47
665.971	5103.37
666.163	5269.25
666.354	5256.97
666.546	5091.08
666.737	5070.6
666.929	5113.61
667.12	4943.63
667.311	5150.47
667.503	5052.17
667.694	5011.21
667.885	4982.54
668.077	4949.77
668.268	4988.68
668.459	4984.59
668.651	4765.45
668.842	4960.01
669.033	4886.28
669.224	4857.61
669.416	4722.45
669.607	4833.04
669.798	4675.34
669.989	4759.31
670.18	4712.21
670.371	4574.99
670.563	4701.97
670.754	4587.28
670.945	4632.33
671.136	4671.25
671.327	4591.38
671.518	4443.92
671.709	4542.22
671.9	4595.47
672.091	4517.65
672.282	4515.6
672.473	4521.74
672.664	4454.16
672.855	4472.59
673.046	4398.87
673.237	4450.07
673.428	4505.36
673.619	4474.64
673.809	4413.2
674	4466.45
674.191	4374.29
674.382	4284.18
674.573	4454.16
674.764	4480.78
674.954	4306.71
675.145	4206.36
675.336	4388.63
675.527	4214.55
675.717	4275.99
675.908	4063
676.099	4151.06
676.289	4173.59
676.48	4224.79
676.671	4149.01
676.861	4275.99
677.052	4093.72
677.243	4046.62
677.433	4198.17
677.624	4106.01
677.814	4079.38
678.005	4017.94
678.195	4024.09
678.386	4040.47
678.576	4017.94
678.767	4056.86
678.957	3981.08
679.148	4003.61
679.338	4032.28
679.529	4081.43
679.719	3893.02
679.909	4001.56
680.1	3966.74
680.29	4044.57
680.481	3997.46
680.671	3964.7
680.861	3839.77
681.052	4065.05
681.242	4009.75
681.432	4087.57
681.622	3940.12
681.813	3995.42
682.003	3911.45
682.193	3966.74
682.383	3929.88
682.573	3895.07
682.764	3925.79
682.954	3809.05
683.144	3925.79
683.334	3997.46
683.524	3739.42
683.714	3800.86
683.904	3874.59
684.094	3954.46
684.284	3831.58
684.474	3813.15
684.664	3868.44
684.854	3782.43
685.044	3749.66
685.234	3682.08
685.424	3716.89
685.614	3690.27
685.804	3673.89
685.994	3733.28
686.184	3573.53
686.374	3667.74
686.564	3667.74
686.753	3516.19
686.943	3594.01
687.133	3682.08
687.323	3612.45
687.513	3723.04
687.702	3548.96
687.892	3589.92
688.082	3401.51
688.272	3565.34
688.461	3415.84
688.651	3526.43
688.841	3520.29
689.03	3469.09
689.22	3411.75
689.41	3446.56
689.599	3503.9
689.789	3444.51
689.979	3411.75
690.168	3233.57
690.358	3297.06
690.547	3348.26
690.737	3352.35
690.926	3335.97
691.116	3235.62
691.305	3335.97
691.495	3161.89
691.684	3260.2
691.874	3249.96
692.063	3168.04
692.252	3237.67
692.442	3264.29
692.631	3213.09
692.82	3067.69
693.01	3186.47
693.199	3157.8
693.388	3141.41
693.578	3073.83
693.767	3159.85
693.956	3159.85
694.146	3137.32
694.335	3110.69
694.524	3043.11
694.713	3122.98
694.902	3125.03
695.092	3100.45
695.281	2987.82
695.47	3057.45
695.659	2975.53
695.848	2973.48
696.037	2912.04
696.226	3075.88
696.415	2942.76
696.604	2936.62
696.793	2840.36
696.982	2961.19
697.171	2871.08
697.36	2791.21
697.549	3000.1
697.738	2959.14
697.927	2940.71
698.116	2981.67
698.305	3039.01
698.494	2848.55
698.683	2942.76
698.872	2871.08
699.061	2946.86
699.25	2926.38
699.438	2948.9
699.627	2772.78
699.816	2877.23
700.005	2877.23
700.193	3034.92
700.382	2977.58
700.571	2873.13
700.76	2901.8
700.948	2899.75
701.137	2936.62
701.326	2848.55
701.514	2838.31
701.703	2828.07
701.892	2766.64
702.08	2852.65
702.269	2846.51
702.457	2717.48
702.646	2737.96
702.834	2746.16
703.023	2746.16
703.212	2834.22
703.4	2795.31
703.589	2897.71
703.777	2862.89
703.965	2840.36
704.154	2813.74
704.342	2817.83
704.531	2778.92
704.719	2682.67
704.907	2756.4
705.096	2772.78
705.284	2817.83
705.472	2766.64
705.661	2907.94
705.849	2830.12
706.037	2709.29
706.226	2801.45
706.414	2692.91
706.602	2785.07
706.79	2756.4
706.979	2731.82
707.167	2836.27
707.355	2694.96
707.543	2846.51
707.731	2801.45
707.919	2766.64
708.107	2688.81
708.296	2688.81
708.484	2740.01
708.672	2688.81
708.86	2709.29
709.048	2725.68
709.236	2735.92
709.424	2754.35
709.612	2604.85
709.8	2690.86
709.988	2697
710.176	2742.06
710.364	2819.88
710.551	2770.73
710.739	2846.51
710.927	2705.2
711.115	2762.54
711.303	2740.01
711.491	2692.91
711.679	2678.57
711.866	2701.1
712.054	2709.29
712.242	2686.76
712.43	2680.62
712.617	2717.48
712.805	2705.2
712.993	2811.69
713.181	2703.15
713.368	2744.11
713.556	2762.54
713.744	2727.72
713.931	2805.55
714.119	2871.08
714.306	2672.43
714.494	2791.21
714.682	2813.74
714.869	2666.28
715.057	2664.24
715.244	2731.82
715.432	2752.3
715.619	2817.83
715.807	2783.02
715.994	2713.39
716.182	2742.06
716.369	2721.58
716.556	2809.64
716.744	2742.06
716.931	2682.67
717.119	2862.89
717.306	2785.07
717.493	2731.82
717.681	2828.07
717.868	2772.78
718.055	2735.92
718.242	2774.83
718.43	2793.26
718.617	2697
718.804	2809.64
718.991	2676.52
719.179	2744.11
719.366	2725.68
719.553	2826.03
719.74	2727.72
719.927	2764.59
720.114	2723.63
720.301	2729.77
720.488	2713.39
720.676	2684.72
720.863	2793.26
721.05	2707.24
721.237	2817.83
721.424	2780.97
721.611	2744.11
721.798	2740.01
721.985	2801.45
722.172	2737.96
722.358	2764.59
722.545	2770.73
722.732	2774.83
722.919	2742.06
723.106	2723.63
723.293	2733.87
723.48	2737.96
723.667	2780.97
723.853	2666.28
724.04	2795.31
724.227	2731.82
724.414	2758.44
724.6	2815.79
724.787	2764.59
724.974	2748.2
725.161	2756.4
725.347	2697
725.534	2690.86
725.72	2750.25
725.907	2801.45
726.094	2711.34
726.28	2694.96
726.467	2764.59
726.653	2645.8
726.84	2621.23
727.027	2678.57
727.213	2631.47
727.4	2760.49
727.586	2713.39
727.773	2758.44
727.959	2692.91
728.145	2711.34
728.332	2682.67
728.518	2660.14
728.705	2680.62
728.891	2651.95
729.077	2744.11
729.264	2668.33
729.45	2719.53
729.636	2828.07
729.823	2717.48
730.009	2604.85
730.195	2746.16
730.382	2715.44
730.568	2692.91
730.754	2742.06
730.94	2713.39
731.126	2660.14
731.313	2649.9
731.499	2623.28
731.685	2645.8
731.871	2613.04
732.057	2735.92
732.243	2785.07
732.429	2682.67
732.615	2725.68
732.801	2688.81
732.987	2631.47
733.173	2658.09
733.359	2570.03
733.545	2504.5
733.731	2688.81
733.917	2627.37
734.103	2727.72
734.289	2668.33
734.475	2537.26
734.661	2811.69
734.847	2740.01
735.033	2645.8
735.219	2664.24
735.404	2627.37
735.59	2584.37
735.776	2592.56
735.962	2688.81
736.148	2641.71
736.333	2629.42
736.519	2615.09
736.705	2524.97
736.89	2504.5
737.076	2504.5
737.262	2641.71
737.447	2522.93
737.633	2711.34
737.819	2582.32
738.004	2576.17
738.19	2692.91
738.375	2608.94
738.561	2561.84
738.747	2598.7
738.932	2481.97
739.118	2637.61
739.303	2543.41
739.489	2541.36
739.674	2471.73
739.859	2582.32
740.045	2506.54
740.23	2506.54
740.416	2475.82
740.601	2463.54
740.786	2463.54
740.972	2436.91
741.157	2365.23
741.342	2434.86
741.528	2527.02
741.713	2402.1
741.898	2500.4
742.084	2496.3
742.269	2309.94
742.454	2320.18
742.639	2481.97
742.824	2441.01
743.01	2438.96
743.195	2285.36
743.38	2297.65
743.565	2379.57
743.75	2332.47
743.935	2262.83
744.12	2332.47
744.305	2393.9
744.49	2375.47
744.675	2322.23
744.86	2246.45
745.045	2375.47
745.23	2307.89
745.415	2258.74
745.6	2283.31
745.785	2148.15
745.97	2264.88
746.155	2193.2
746.34	2193.2
746.525	2223.92
746.71	2330.42
746.895	2185.01
747.079	2244.4
747.264	2113.33
747.449	2029.37
747.634	2066.23
747.819	2111.29
748.003	1922.87
748.188	2062.13
748.373	2076.47
748.557	2045.75
748.742	2037.56
748.927	1980.22
749.111	1990.45
749.296	1955.64
749.481	1949.5
749.665	1947.45
749.85	2049.85
750.034	1931.06
750.219	1967.93
750.404	1916.73
750.588	1910.58
750.773	1953.59
750.957	1855.29
751.141	1890.1
751.326	1961.78
751.51	1797.95
751.695	1781.56
751.879	1765.18
752.064	1812.28
752.248	1734.46
752.432	1843
752.617	1670.97
752.801	1754.94
752.985	1754.94
753.17	1701.69
753.354	1795.9
753.538	1775.42
753.722	1691.45
753.907	1683.26
754.091	1703.74
754.275	1650.49
754.459	1617.72
754.643	1662.78
754.828	1617.72
755.012	1621.82
755.196	1580.86
755.38	1562.43
755.564	1634.11
755.748	1587.01
755.932	1673.02
756.116	1597.24
756.3	1617.72
756.484	1537.85
756.668	1625.92
756.852	1498.94
757.036	1396.54
757.22	1599.29
757.404	1451.84
757.588	1351.49
757.772	1439.55
757.956	1482.56
758.14	1478.46
758.323	1331.01
758.507	1511.23
758.691	1304.39
758.875	1365.82
759.059	1363.78
759.242	1300.29
759.426	1296.19
759.61	1337.15
759.794	1328.96
759.977	1296.19
760.161	1244.99
760.345	1257.28
760.528	1302.34
760.712	1226.56
760.895	1304.39
761.079	1314.63
761.263	1195.84
761.446	1261.38
761.63	1302.34
761.813	1201.99
761.997	1310.53
762.18	1195.84
762.364	1130.31
762.547	1226.56
762.731	1249.09
762.914	1191.75
763.098	1208.13
763.281	1183.56
763.464	1152.84
763.648	1261.38
763.831	1189.7
764.015	1244.99
764.198	1165.12
764.381	1036.1
764.564	1154.88
764.748	1185.6
764.931	1199.94
765.114	1150.79
765.297	1124.16
765.481	1122.12
765.664	1152.84
765.847	1019.72
766.03	1099.59
766.213	1204.03
766.397	1021.77
766.58	1064.77
766.763	1091.4
766.946	1087.3
767.129	1105.73
767.312	1064.77
767.495	1091.4
767.678	1105.73
767.861	989
768.044	982.85
768.227	1068.87
768.41	1017.67
768.593	1103.68
768.776	933.7
768.959	1064.77
769.142	1093.44
769.324	1077.06
769.507	991.05
769.69	968.52
769.873	950.09
770.056	976.71
770.239	1023.81
770.421	943.94
770.604	915.27
770.787	989
770.97	989
771.152	986.95
771.335	941.89
771.518	878.41
771.7	964.42
771.883	968.52
772.066	999.24
772.248	954.18
772.431	933.7
772.613	960.33
772.796	925.51
772.978	835.4
773.161	884.55
773.343	845.64
773.526	898.89
773.708	888.65
773.891	843.59
774.073	857.93
774.256	862.02
774.438	868.17
774.621	905.03
774.803	913.22
774.985	888.65
775.168	876.36
775.35	780.11
775.532	814.92
775.715	882.5
775.897	890.7
776.079	806.73
776.261	845.64
776.444	821.06
776.626	718.67
776.808	733
776.99	757.58
777.173	733
777.355	741.19
777.537	782.15
777.719	778.06
777.901	788.3
778.083	747.34
778.265	726.86
778.447	730.95
778.629	659.28
778.811	710.47
778.993	724.81
779.175	696.14
779.357	663.37
779.539	687.95
779.721	694.09
779.903	659.28
780.085	702.28
780.267	583.5
780.449	620.36
780.631	763.72
780.812	730.95
780.994	550.73
781.176	638.8
781.358	595.79
781.54	630.6
781.721	552.78
781.903	741.19
782.085	579.4
782.267	505.68
782.448	589.64
782.63	634.7
782.812	612.17
782.993	638.8
783.175	569.16
783.357	677.71
783.538	532.3
783.72	542.54
783.901	585.55
784.083	503.63
784.264	595.79
784.446	532.3
784.627	499.53
784.809	528.21
784.99	495.44
785.172	517.97
785.353	515.92
785.535	513.87
785.716	491.34
785.897	546.64
786.079	540.49
786.26	444.24
786.441	485.2
786.623	501.58
786.804	501.58
786.985	458.57
787.167	446.29
787.348	481.1
787.529	552.78
787.71	522.06
787.891	489.29
788.073	405.33
788.254	505.68
788.435	421.71
788.616	442.19
788.797	427.85
788.978	477.01
789.159	386.9
789.34	415.57
789.522	370.51
789.703	395.09
789.884	472.91
790.065	423.76
790.246	456.53
790.427	429.9
790.607	401.23
790.788	542.54
790.969	434
791.15	384.85
791.331	446.29
791.512	368.46
791.693	333.65
791.874	407.38
792.054	360.27
792.235	370.51
792.416	366.42
792.597	364.37
792.778	397.14
792.958	376.66
793.139	368.46
793.32	362.32
793.5	390.99
793.681	401.23
793.862	362.32
794.042	472.91
794.223	319.31
794.404	376.66
794.584	307.02
794.765	323.41
794.945	360.27
795.126	386.9
795.306	401.23
795.487	292.69
795.667	327.5
795.848	376.66
796.028	343.89
796.209	327.5
796.389	405.33
796.57	282.45
796.75	354.13
796.93	366.42
797.111	311.12
797.291	372.56
797.471	307.02
797.652	302.93
797.832	364.37
798.012	290.64
798.192	270.16
798.373	302.93
798.553	266.07
798.733	272.21
798.913	257.87
799.093	323.41
799.274	210.77
799.454	333.65
799.634	298.83
799.814	325.46
799.994	347.98
800.174	323.41
800.354	266.07
800.534	180.05
800.714	325.46
800.894	268.11
801.074	249.68
801.254	319.31
801.434	253.78
801.614	278.35
801.794	294.74
801.974	733
802.154	261.97
802.334	304.98
802.514	253.78
802.693	192.34
802.873	300.88
803.053	208.72
803.233	229.2
803.413	274.26
803.592	251.73
803.772	298.83
803.952	290.64
804.131	225.11
804.311	221.01
804.491	268.11
804.67	261.97
804.85	313.17
805.03	274.26
805.209	216.91
805.389	229.2
805.568	280.4
805.748	249.68
805.928	198.48
806.107	239.44
806.287	253.78
806.466	249.68
806.646	221.01
806.825	229.2
807.004	229.2
807.184	159.57
807.363	221.01
807.543	264.02
807.722	218.96
807.901	233.3
808.081	304.98
808.26	141.14
808.439	231.25
808.619	261.97
808.798	192.34
808.977	180.05
809.156	225.11
809.336	214.87
809.515	270.16
809.694	210.77
809.873	206.67
810.052	212.82
810.231	159.57
810.411	272.21
810.59	225.11
810.769	159.57
810.948	212.82
811.127	194.39
811.306	208.72
811.485	169.81
811.664	257.87
811.843	202.58
812.022	147.28
812.201	208.72
812.38	130.9
812.559	173.91
812.737	182.1
812.916	153.43
813.095	118.61
813.274	190.29
813.453	167.76
813.632	161.62
813.811	139.09
813.989	122.71
814.168	151.38
814.347	139.09
814.526	200.53
814.704	198.48
814.883	225.11
815.062	184.15
815.24	175.95
815.419	147.28
815.598	149.33
815.776	200.53
815.955	151.38
816.133	141.14
816.312	114.52
816.49	169.81
816.669	237.39
816.847	161.62
817.026	184.15
817.204	124.76
817.383	147.28
817.561	206.67
817.74	266.07
817.918	178
818.097	175.95
818.275	139.09
818.453	194.39
818.632	202.58
818.81	96.08
818.988	200.53
819.167	73.56
819.345	89.94
819.523	141.14
819.701	167.76
819.879	128.85
820.058	118.61
820.236	65.36
820.414	169.81
820.592	118.61
820.77	171.86
820.948	180.05
821.127	128.85
821.305	184.15
821.483	147.28
821.661	169.81
821.839	94.04
822.017	100.18
822.195	190.29
822.373	227.15
822.551	100.18
822.729	147.28
822.907	159.57
823.085	114.52
823.262	135
823.44	137.04
823.618	120.66
823.796	128.85
823.974	40.79
824.152	128.85
824.329	40.79
824.507	165.71
824.685	149.33
824.863	143.19
825.04	81.75
825.218	122.71
825.396	130.9
825.574	118.61
825.751	77.65
825.929	175.95
826.107	120.66
826.284	145.24
826.462	137.04
826.639	114.52
826.817	53.08
826.994	130.9
827.172	75.6
827.349	141.14
827.527	122.71
827.704	163.67
827.882	128.85
828.059	83.8
828.237	149.33
828.414	163.67
828.591	108.37
828.769	167.76
828.946	77.65
829.124	130.9
829.301	94.04
829.478	96.08
829.655	143.19
829.833	94.04
830.01	120.66
830.187	143.19
830.364	-10.41
830.542	112.47
830.719	143.19
830.896	96.08
831.073	98.13
831.25	59.22
831.427	135
831.604	137.04
831.782	69.46
831.959	120.66
832.136	137.04
832.313	87.89
832.49	126.8
832.667	69.46
832.844	124.76
833.021	122.71
833.198	61.27
833.374	126.8
833.551	108.37
833.728	141.14
833.905	135
834.082	91.99
834.259	173.91
834.436	108.37
834.612	120.66
834.789	124.76
834.966	71.51
835.143	65.36
835.319	98.13
835.496	102.23
835.673	63.32
835.85	126.8
836.026	73.56
836.203	87.89
836.38	98.13
836.556	147.28
836.733	114.52
836.909	75.6
837.086	124.76
837.262	57.17
837.439	153.43
837.616	42.84
837.792	73.56
837.968	69.46
838.145	-10.41
838.321	141.14
838.498	55.12
838.674	135
838.851	36.69
839.027	98.13
839.203	141.14
839.38	85.84
839.556	94.04
839.732	104.28
839.909	53.08
840.085	75.6
840.261	108.37
840.437	40.79
840.614	57.17
840.79	104.28
840.966	85.84
841.142	96.08
841.318	30.55
841.494	24.4
841.671	85.84
841.847	-18.6
842.023	100.18
842.199	124.76
842.375	42.84
842.551	73.56
842.727	34.64
842.903	61.27
843.079	36.69
843.255	20.31
843.431	57.17
843.607	42.84
843.783	8.02
843.959	16.21
844.134	5.97
844.31	55.12
844.486	147.28
844.662	89.94
844.838	10.07
845.013	48.98
845.189	104.28
845.365	32.6
845.541	79.7
845.716	77.65
845.892	126.8
846.068	63.32
846.244	69.46
846.419	106.32
846.595	59.22
846.77	48.98
846.946	110.42
847.122	73.56
847.297	59.22
847.473	71.51
847.648	110.42
847.824	65.36
847.999	67.41
848.175	100.18
848.35	10.07
848.526	59.22
848.701	71.51
848.876	61.27
849.052	61.27
849.227	3.93
849.403	61.27
849.578	96.08
849.753	28.5
849.929	48.98
850.104	18.26
850.279	18.26
850.454	110.42
850.63	36.69
850.805	42.84
850.98	112.47
851.155	8.02
851.33	-20.65
851.505	18.26
851.681	96.08
851.856	30.55
852.031	18.26
852.206	44.88
852.381	30.55
852.556	67.41
852.731	100.18
852.906	122.71
853.081	44.88
853.256	75.6
853.431	75.6
853.606	10.07
853.781	16.21
853.956	-10.41
854.131	12.12
854.305	-8.36
854.48	-2.22
854.655	1.88
854.83	30.55
855.005	34.64
855.18	-0.17
855.354	118.61
855.529	44.88
855.704	-0.17
855.879	-12.46
856.053	-41.13
856.228	65.36
856.403	14.17
856.577	22.36
856.752	34.64
856.926	85.84
857.101	14.17
857.276	28.5
857.45	42.84
857.625	57.17
857.799	40.79
857.974	42.84
858.148	63.32
858.323	14.17
858.497	65.36
858.672	28.5
858.846	1.88
859.02	65.36
859.195	16.21
859.369	24.4
859.543	16.21
859.718	-26.79
859.892	34.64
860.066	32.6
860.241	40.79
860.415	102.23
860.589	73.56
860.763	12.12
860.938	28.5
861.112	112.47
861.286	26.45
861.46	32.6
861.634	12.12
861.808	59.22
861.982	-4.27
862.157	-37.03
862.331	18.26
862.505	89.94
862.679	-28.84
862.853	-24.75
863.027	46.93
863.201	55.12
863.375	3.93
863.549	8.02
863.722	44.88
863.896	77.65
864.07	28.5
864.244	110.42
864.418	79.7
864.592	8.02
864.766	67.41
864.939	38.74
865.113	-8.36
865.287	30.55
865.461	32.6
865.634	53.08
865.808	36.69
865.982	1.88
866.156	36.69
866.329	18.26
866.503	38.74
866.676	26.45
866.85	8.02
867.024	-12.46
867.197	87.89
867.371	34.64
867.544	69.46
867.718	48.98
867.891	89.94
868.065	8.02
868.238	-8.36
868.412	28.5
868.585	38.74
868.759	-12.46
868.932	-34.99
869.105	-16.55
869.279	36.69
869.452	46.93
869.625	24.4
869.799	44.88
869.972	-12.46
870.145	8.02
870.319	16.21
870.492	-34.99
870.665	-30.89
870.838	-28.84
871.011	38.74
871.185	46.93
871.358	20.31
871.531	44.88
871.704	85.84
871.877	96.08
872.05	-22.7
872.223	18.26
872.396	75.6
872.569	26.45
872.742	-6.31
872.915	-8.36
873.088	38.74
873.261	75.6
873.434	77.65
873.607	-18.6
873.78	-4.27
873.953	-4.27
874.126	-24.75
874.299	48.98
874.471	-4.27
874.644	55.12
874.817	118.61
874.99	79.7
875.163	57.17
875.335	8.02
875.508	8.02
875.681	55.12
875.853	61.27
876.026	8.02
876.199	38.74
876.371	75.6
876.544	16.21
876.717	16.21
876.889	18.26
877.062	55.12
877.234	40.79
877.407	-12.46
877.579	26.45
877.752	67.41
877.924	71.51
878.097	48.98
878.269	36.69
878.442	32.6
878.614	28.5
878.786	-26.79
878.959	-8.36
879.131	63.32
879.303	20.31
879.476	-20.65
879.648	36.69
879.82	3.93
879.993	22.36
880.165	118.61
880.337	-32.94
880.509	5.97
880.681	-0.17
880.854	36.69
881.026	87.89
881.198	83.8
881.37	85.84
881.542	1.88
881.714	20.31
881.886	-41.13
882.058	-26.79
882.23	26.45
882.402	-90.28
882.574	77.65
882.746	85.84
882.918	65.36
883.09	24.4
883.262	46.93
883.434	1.88
883.606	120.66
883.778	48.98
883.95	32.6
884.122	91.99
884.293	51.03
884.465	34.64
884.637	65.36
884.809	20.31
884.98	22.36
885.152	-10.41
885.324	14.17
885.496	53.08
885.667	38.74
885.839	-39.08
886.011	91.99
886.182	55.12
886.354	102.23
886.525	30.55
886.697	57.17
886.869	20.31
887.04	3.93
887.212	63.32
887.383	79.7
887.555	16.21
887.726	5.97
887.897	-12.46
888.069	36.69
888.24	106.32
888.412	75.6
888.583	-14.51
888.754	3.93
888.926	32.6
889.097	-24.75
889.268	-32.94
889.44	3.93
889.611	-49.32
889.782	-18.6
889.953	34.64
890.125	38.74
890.296	-84.14
890.467	71.51
890.638	-8.36
890.809	26.45
890.98	55.12
891.151	38.74
891.323	20.31
891.494	28.5
891.665	81.75
891.836	85.84
892.007	-30.89
892.178	73.56
892.349	38.74
892.52	8.02
892.691	-65.71
892.862	100.18
893.032	-30.89
893.203	61.27
893.374	51.03
893.545	112.47
893.716	-37.03
893.887	48.98
894.057	36.69
894.228	32.6
894.399	73.56
894.57	51.03
894.74	-26.79
894.911	38.74
895.082	73.56
895.253	-8.36
895.423	57.17
895.594	42.84
895.764	-12.46
895.935	28.5
896.106	-30.89
896.276	57.17
896.447	-20.65
896.617	83.8
896.788	-73.9
896.958	38.74
897.129	-37.03
897.299	59.22
897.47	14.17
897.64	22.36
897.81	-61.61
897.981	-14.51
898.151	32.6
898.322	34.64
898.492	108.37
898.662	67.41
898.832	85.84
899.003	26.45
899.173	3.93
899.343	-57.51
899.513	-4.27
