Data from USB4F104151__97__11-53-02-038.txt Node

Date: Fri Mar 14 11:53:02 EDT 2025
User: louis
Spectrometer: USB4F10415
Trigger mode: 4
Integration Time (sec): 2.000000E-2
Scans to average: 1
Electric dark correction enabled: true
Nonlinearity correction enabled: false
Boxcar width: 0
XAxis mode: Wavelengths
Number of Pixels in Spectrum: 3648
>>>>>Begin Spectral Data<<<<<
178.204	-38.4
178.424	-38.4
178.644	-38.4
178.864	-91.65
179.084	-120.32
179.304	-60.93
179.524	43.52
179.744	-22.02
179.964	20.99
180.184	-34.3
180.404	4.61
180.624	-71.17
180.844	18.94
181.064	6.66
181.283	43.52
181.503	31.23
181.723	18.94
181.943	-65.02
182.163	27.14
182.383	-65.02
182.602	16.9
182.822	72.19
183.042	-9.73
183.262	55.81
183.482	-28.16
183.701	23.04
183.921	53.76
184.141	-79.36
184.361	84.48
184.58	-30.21
184.8	86.53
185.02	-36.35
185.239	61.95
185.459	-79.36
185.679	10.75
185.898	-9.73
186.118	33.28
186.338	31.23
186.557	59.9
186.777	-28.16
186.997	70.14
187.216	-11.78
187.436	109.05
187.655	14.85
187.875	18.94
188.095	20.99
188.314	29.18
188.534	-7.68
188.753	-36.35
188.973	41.47
189.192	-9.73
189.412	12.8
189.631	-58.88
189.851	35.33
190.07	86.53
190.29	31.23
190.509	8.7
190.729	20.99
190.948	-26.11
191.168	74.24
191.387	61.95
191.607	57.86
191.826	84.48
192.045	72.19
192.265	-9.73
192.484	-3.58
192.704	-34.3
192.923	64
193.142	68.09
193.362	8.7
193.581	6.66
193.8	45.57
194.02	82.43
194.239	-42.5
194.458	0.51
194.678	-17.92
194.897	8.7
195.116	16.9
195.335	-32.26
195.555	6.66
195.774	12.8
195.993	33.28
196.212	-13.82
196.432	16.9
196.651	14.85
196.87	-42.5
197.089	29.18
197.308	-73.21
197.528	43.52
197.747	72.19
197.966	12.8
198.185	33.28
198.404	20.99
198.623	33.28
198.842	-7.68
199.062	-50.69
199.281	76.29
199.5	-38.4
199.719	53.76
199.938	-34.3
200.157	119.29
200.376	-32.26
200.595	2.56
200.814	20.99
201.033	55.81
201.252	68.09
201.471	-36.35
201.69	35.33
201.909	33.28
202.128	-75.26
202.347	27.14
202.566	49.66
202.785	4.61
203.004	-58.88
203.223	82.43
203.442	18.94
203.661	29.18
203.879	43.52
204.098	76.29
204.317	57.86
204.536	16.9
204.755	-5.63
204.974	53.76
205.193	-69.12
205.411	25.09
205.63	-73.21
205.849	14.85
206.068	-13.82
206.287	72.19
206.505	16.9
206.724	16.9
206.943	-34.3
207.162	-7.68
207.381	64
207.599	18.94
207.818	-5.63
208.037	23.04
208.255	-13.82
208.474	4.61
208.693	-15.87
208.911	53.76
209.13	47.62
209.349	-11.78
209.567	14.85
209.786	41.47
210.005	39.42
210.223	47.62
210.442	-22.02
210.661	31.23
210.879	74.24
211.098	33.28
211.316	4.61
211.535	10.75
211.753	-15.87
211.972	10.75
212.191	37.38
212.409	43.52
212.628	84.48
212.846	-19.97
213.065	29.18
213.283	8.7
213.502	33.28
213.72	39.42
213.938	-7.68
214.157	27.14
214.375	4.61
214.594	55.81
214.812	2.56
215.031	-34.3
215.249	49.66
215.467	14.85
215.686	35.33
215.904	-9.73
216.122	-44.54
216.341	86.53
216.559	-1.54
216.778	94.72
216.996	-15.87
217.214	64
217.432	-17.92
217.651	39.42
217.869	-32.26
218.087	92.67
218.306	64
218.524	76.29
218.742	55.81
218.96	25.09
219.179	2.56
219.397	-1.54
219.615	74.24
219.833	41.47
220.051	-1.54
220.27	12.8
220.488	23.04
220.706	-36.35
220.924	-71.17
221.142	92.67
221.36	4.61
221.578	-30.21
221.796	-17.92
222.015	94.72
222.233	37.38
222.451	92.67
222.669	-56.83
222.887	43.52
223.105	66.05
223.323	-1.54
223.541	31.23
223.759	102.91
223.977	35.33
224.195	61.95
224.413	68.09
224.631	-11.78
224.849	16.9
225.067	41.47
225.285	49.66
225.503	16.9
225.721	18.94
225.939	41.47
226.157	59.9
226.375	90.62
226.592	25.09
226.81	16.9
227.028	-15.87
227.246	12.8
227.464	-9.73
227.682	16.9
227.9	16.9
228.117	33.28
228.335	14.85
228.553	35.33
228.771	12.8
228.989	100.86
229.206	10.75
229.424	-15.87
229.642	25.09
229.86	29.18
230.077	35.33
230.295	8.7
230.513	14.85
230.731	23.04
230.948	-13.82
231.166	59.9
231.384	41.47
231.601	8.7
231.819	8.7
232.037	-3.58
232.254	41.47
232.472	16.9
232.689	-15.87
232.907	-1.54
233.125	-5.63
233.342	35.33
233.56	-48.64
233.777	78.33
233.995	51.71
234.213	53.76
234.43	2.56
234.648	29.18
234.865	4.61
235.083	-15.87
235.3	8.7
235.518	59.9
235.735	98.81
235.953	6.66
236.17	16.9
236.388	-34.3
236.605	68.09
236.822	8.7
237.04	31.23
237.257	66.05
237.475	16.9
237.692	76.29
237.909	51.71
238.127	8.7
238.344	43.52
238.562	90.62
238.779	-7.68
238.996	-15.87
239.214	25.09
239.431	43.52
239.648	88.57
239.865	20.99
240.083	96.77
240.3	-3.58
240.517	-19.97
240.735	0.51
240.952	31.23
241.169	-15.87
241.386	12.8
241.603	47.62
241.821	-22.02
242.038	74.24
242.255	68.09
242.472	51.71
242.689	61.95
242.907	102.91
243.124	31.23
243.341	20.99
243.558	88.57
243.775	61.95
243.992	-13.82
244.209	-1.54
244.426	92.67
244.643	-1.54
244.86	8.7
245.078	14.85
245.295	59.9
245.512	-15.87
245.729	18.94
245.946	59.9
246.163	-24.06
246.38	12.8
246.597	-7.68
246.814	74.24
247.031	-30.21
247.248	10.75
247.464	-36.35
247.681	61.95
247.898	31.23
248.115	57.86
248.332	2.56
248.549	35.33
248.766	115.2
248.983	0.51
249.2	-17.92
249.417	-1.54
249.633	6.66
249.85	37.38
250.067	10.75
250.284	35.33
250.501	41.47
250.717	-17.92
250.934	-9.73
251.151	-3.58
251.368	12.8
251.585	25.09
251.801	76.29
252.018	53.76
252.235	16.9
252.451	16.9
252.668	-7.68
252.885	10.75
253.102	43.52
253.318	29.18
253.535	-17.92
253.752	-67.07
253.968	-32.26
254.185	43.52
254.401	-42.5
254.618	35.33
254.835	2.56
255.051	33.28
255.268	55.81
255.484	-71.17
255.701	23.04
255.917	57.86
256.134	-11.78
256.351	-15.87
256.567	-60.93
256.784	-5.63
257	-40.45
257.217	80.38
257.433	0.51
257.65	35.33
257.866	64
258.082	47.62
258.299	16.9
258.515	78.33
258.732	-24.06
258.948	0.51
259.165	-30.21
259.381	41.47
259.597	35.33
259.814	61.95
260.03	55.81
260.246	12.8
260.463	10.75
260.679	49.66
260.895	27.14
261.112	-1.54
261.328	-89.6
261.544	14.85
261.761	121.34
261.977	-11.78
262.193	27.14
262.409	16.9
262.626	39.42
262.842	23.04
263.058	-32.26
263.274	41.47
263.49	-58.88
263.707	-17.92
263.923	-17.92
264.139	-56.83
264.355	-9.73
264.571	-62.98
264.787	57.86
265.004	27.14
265.22	78.33
265.436	-42.5
265.652	14.85
265.868	29.18
266.084	14.85
266.3	-3.58
266.516	4.61
266.732	80.38
266.948	18.94
267.164	10.75
267.38	98.81
267.596	86.53
267.812	53.76
268.028	-7.68
268.244	64
268.46	104.96
268.676	-5.63
268.892	41.47
269.108	41.47
269.324	6.66
269.54	2.56
269.756	70.14
269.972	-11.78
270.188	-54.78
270.403	27.14
270.619	45.57
270.835	43.52
271.051	-26.11
271.267	-46.59
271.483	-13.82
271.698	16.9
271.914	10.75
272.13	4.61
272.346	51.71
272.562	-30.21
272.777	20.99
272.993	25.09
273.209	-50.69
273.425	-1.54
273.64	39.42
273.856	6.66
274.072	-15.87
274.287	-7.68
274.503	16.9
274.719	29.18
274.934	18.94
275.15	-44.54
275.366	14.85
275.581	-7.68
275.797	66.05
276.012	59.9
276.228	92.67
276.444	10.75
276.659	16.9
276.875	16.9
277.09	53.76
277.306	45.57
277.521	-3.58
277.737	6.66
277.952	10.75
278.168	12.8
278.383	2.56
278.599	29.18
278.814	49.66
279.03	-22.02
279.245	39.42
279.461	-38.4
279.676	-3.58
279.892	35.33
280.107	-24.06
280.322	61.95
280.538	43.52
280.753	88.57
280.969	-79.36
281.184	-32.26
281.399	-34.3
281.615	45.57
281.83	27.14
282.045	-1.54
282.26	8.7
282.476	25.09
282.691	0.51
282.906	25.09
283.122	-24.06
283.337	33.28
283.552	29.18
283.767	-3.58
283.983	53.76
284.198	-52.74
284.413	18.94
284.628	2.56
284.843	41.47
285.058	16.9
285.274	-9.73
285.489	-50.69
285.704	53.76
285.919	31.23
286.134	51.71
286.349	57.86
286.564	16.9
286.779	45.57
286.995	18.94
287.21	59.9
287.425	43.52
287.64	33.28
287.855	-40.45
288.07	45.57
288.285	-38.4
288.5	64
288.715	6.66
288.93	-13.82
289.145	23.04
289.36	-9.73
289.575	-38.4
289.79	0.51
290.004	74.24
290.219	-5.63
290.434	47.62
290.649	-22.02
290.864	53.76
291.079	20.99
291.294	-3.58
291.509	43.52
291.724	57.86
291.938	-5.63
292.153	20.99
292.368	47.62
292.583	-11.78
292.798	72.19
293.012	12.8
293.227	12.8
293.442	66.05
293.657	53.76
293.871	41.47
294.086	35.33
294.301	88.57
294.516	117.25
294.73	47.62
294.945	27.14
295.16	39.42
295.374	-19.97
295.589	20.99
295.804	8.7
296.018	-26.11
296.233	33.28
296.447	39.42
296.662	39.42
296.877	14.85
297.091	8.7
297.306	20.99
297.52	-17.92
297.735	-7.68
297.949	2.56
298.164	-3.58
298.378	74.24
298.593	76.29
298.807	-13.82
299.022	-9.73
299.236	104.96
299.451	39.42
299.665	6.66
299.88	31.23
300.094	-26.11
300.309	18.94
300.523	-65.02
300.737	12.8
300.952	23.04
301.166	66.05
301.381	-3.58
301.595	31.23
301.809	14.85
302.024	45.57
302.238	-42.5
302.452	64
302.667	43.52
302.881	39.42
303.095	70.14
303.309	14.85
303.524	47.62
303.738	-5.63
303.952	-3.58
304.166	23.04
304.381	12.8
304.595	98.81
304.809	4.61
305.023	31.23
305.237	70.14
305.452	6.66
305.666	51.71
305.88	-24.06
306.094	72.19
306.308	74.24
306.522	68.09
306.736	41.47
306.95	0.51
307.164	74.24
307.379	23.04
307.593	35.33
307.807	72.19
308.021	-17.92
308.235	49.66
308.449	37.38
308.663	6.66
308.877	94.72
309.091	-17.92
309.305	43.52
309.519	-17.92
309.733	10.75
309.947	-69.12
310.161	70.14
310.374	10.75
310.588	31.23
310.802	-24.06
311.016	109.05
311.23	18.94
311.444	57.86
311.658	39.42
311.872	68.09
312.085	16.9
312.299	64
312.513	31.23
312.727	29.18
312.941	8.7
313.154	-15.87
313.368	-32.26
313.582	74.24
313.796	-36.35
314.009	-7.68
314.223	-13.82
314.437	-17.92
314.651	90.62
314.864	-11.78
315.078	2.56
315.292	-36.35
315.505	49.66
315.719	14.85
315.933	8.7
316.146	25.09
316.36	-32.26
316.573	16.9
316.787	88.57
317.001	-24.06
317.214	25.09
317.428	35.33
317.641	43.52
317.855	49.66
318.068	16.9
318.282	41.47
318.495	84.48
318.709	2.56
318.922	27.14
319.136	141.82
319.349	2.56
319.563	-1.54
319.776	16.9
319.99	-11.78
320.203	-24.06
320.417	12.8
320.63	25.09
320.843	43.52
321.057	37.38
321.27	78.33
321.483	66.05
321.697	104.96
321.91	35.33
322.124	76.29
322.337	76.29
322.55	-22.02
322.763	-13.82
322.977	61.95
323.19	-9.73
323.403	10.75
323.617	37.38
323.83	53.76
324.043	33.28
324.256	-62.98
324.469	-28.16
324.683	33.28
324.896	39.42
325.109	59.9
325.322	-48.64
325.535	39.42
325.748	23.04
325.962	0.51
326.175	-11.78
326.388	-9.73
326.601	-38.4
326.814	45.57
327.027	43.52
327.24	47.62
327.453	12.8
327.666	23.04
327.879	18.94
328.092	51.71
328.305	117.25
328.518	8.7
328.731	51.71
328.944	47.62
329.157	53.76
329.37	39.42
329.583	18.94
329.796	-5.63
330.009	37.38
330.222	68.09
330.435	14.85
330.648	35.33
330.861	39.42
331.073	8.7
331.286	61.95
331.499	-7.68
331.712	18.94
331.925	-5.63
332.138	-44.54
332.35	57.86
332.563	-60.93
332.776	76.29
332.989	-54.78
333.202	25.09
333.414	39.42
333.627	12.8
333.84	0.51
334.053	84.48
334.265	-19.97
334.478	-30.21
334.691	-44.54
334.903	59.9
335.116	-42.5
335.329	51.71
335.541	64
335.754	-11.78
335.966	8.7
336.179	72.19
336.392	20.99
336.604	12.8
336.817	-17.92
337.029	92.67
337.242	-5.63
337.454	41.47
337.667	47.62
337.88	53.76
338.092	88.57
338.305	-13.82
338.517	16.9
338.729	43.52
338.942	41.47
339.154	88.57
339.367	2.56
339.579	-5.63
339.792	8.7
340.004	12.8
340.217	-30.21
340.429	14.85
340.641	10.75
340.854	0.51
341.066	53.76
341.278	82.43
341.491	18.94
341.703	-17.92
341.915	8.7
342.128	27.14
342.34	14.85
342.552	37.38
342.764	68.09
342.977	49.66
343.189	80.38
343.401	-1.54
343.613	39.42
343.826	41.47
344.038	-32.26
344.25	10.75
344.462	-5.63
344.674	-22.02
344.886	39.42
345.099	59.9
345.311	-77.31
345.523	-17.92
345.735	0.51
345.947	31.23
346.159	-11.78
346.371	37.38
346.583	-17.92
346.795	84.48
347.007	35.33
347.219	-19.97
347.431	-7.68
347.643	61.95
347.855	16.9
348.067	18.94
348.279	47.62
348.491	55.81
348.703	64
348.915	14.85
349.127	66.05
349.339	-34.3
349.551	-36.35
349.763	-38.4
349.975	8.7
350.187	86.53
350.399	-3.58
350.61	-11.78
350.822	51.71
351.034	-28.16
351.246	18.94
351.458	-13.82
351.669	10.75
351.881	66.05
352.093	57.86
352.305	25.09
352.517	35.33
352.728	-28.16
352.94	51.71
353.152	31.23
353.363	20.99
353.575	12.8
353.787	25.09
353.999	72.19
354.21	154.11
354.422	-1.54
354.633	20.99
354.845	-3.58
355.057	2.56
355.268	6.66
355.48	59.9
355.692	-40.45
355.903	20.99
356.115	43.52
356.326	-26.11
356.538	-11.78
356.749	23.04
356.961	59.9
357.172	2.56
357.384	6.66
357.595	111.1
357.807	43.52
358.018	-17.92
358.23	37.38
358.441	57.86
358.653	61.95
358.864	53.76
359.075	86.53
359.287	74.24
359.498	74.24
359.709	125.44
359.921	74.24
360.132	-22.02
360.344	23.04
360.555	4.61
360.766	68.09
360.977	-22.02
361.189	66.05
361.4	29.18
361.611	66.05
361.823	18.94
362.034	23.04
362.245	23.04
362.456	43.52
362.667	68.09
362.879	41.47
363.09	53.76
363.301	4.61
363.512	29.18
363.723	-26.11
363.935	35.33
364.146	10.75
364.357	20.99
364.568	100.86
364.779	14.85
364.99	31.23
365.201	-15.87
365.412	72.19
365.623	47.62
365.834	-24.06
366.045	25.09
366.256	37.38
366.467	37.38
366.678	66.05
366.889	6.66
367.1	8.7
367.311	0.51
367.522	4.61
367.733	55.81
367.944	29.18
368.155	47.62
368.366	68.09
368.577	27.14
368.788	-5.63
368.999	-1.54
369.209	41.47
369.42	57.86
369.631	33.28
369.842	6.66
370.053	45.57
370.264	4.61
370.474	4.61
370.685	27.14
370.896	-17.92
371.107	6.66
371.317	57.86
371.528	12.8
371.739	55.81
371.95	-1.54
372.16	82.43
372.371	29.18
372.582	37.38
372.792	59.9
373.003	70.14
373.214	49.66
373.424	121.34
373.635	88.57
373.846	45.57
374.056	-17.92
374.267	-1.54
374.477	23.04
374.688	-7.68
374.898	31.23
375.109	74.24
375.319	25.09
375.53	86.53
375.74	-9.73
375.951	-24.06
376.161	64
376.372	10.75
376.582	-36.35
376.793	39.42
377.003	59.9
377.214	39.42
377.424	-22.02
377.635	-40.45
377.845	47.62
378.055	43.52
378.266	72.19
378.476	53.76
378.686	55.81
378.897	70.14
379.107	74.24
379.317	86.53
379.528	-30.21
379.738	76.29
379.948	47.62
380.158	-3.58
380.369	0.51
380.579	123.39
380.789	33.28
380.999	18.94
381.21	16.9
381.42	78.33
381.63	-24.06
381.84	68.09
382.05	119.29
382.261	104.96
382.471	16.9
382.681	123.39
382.891	59.9
383.101	68.09
383.311	16.9
383.521	115.2
383.731	-62.98
383.941	59.9
384.151	84.48
384.361	29.18
384.571	-5.63
384.781	61.95
384.991	78.33
385.201	74.24
385.411	68.09
385.621	-19.97
385.831	-30.21
386.041	-15.87
386.251	92.67
386.461	29.18
386.671	-26.11
386.881	51.71
387.091	55.81
387.301	80.38
387.511	45.57
387.72	35.33
387.93	57.86
388.14	6.66
388.35	10.75
388.56	37.38
388.769	-3.58
388.979	35.33
389.189	-3.58
389.399	47.62
389.609	-24.06
389.818	47.62
390.028	80.38
390.238	57.86
390.447	45.57
390.657	25.09
390.867	47.62
391.076	2.56
391.286	129.53
391.496	70.14
391.705	107.01
391.915	98.81
392.125	39.42
392.334	102.91
392.544	47.62
392.753	37.38
392.963	12.8
393.172	59.9
393.382	8.7
393.591	57.86
393.801	53.76
394.01	68.09
394.22	131.58
394.429	109.05
394.639	76.29
394.848	113.15
395.058	74.24
395.267	31.23
395.477	39.42
395.686	86.53
395.895	96.77
396.105	135.68
396.314	-9.73
396.524	41.47
396.733	27.14
396.942	143.87
397.152	6.66
397.361	76.29
397.57	72.19
397.78	27.14
397.989	49.66
398.198	111.1
398.407	27.14
398.617	55.81
398.826	16.9
399.035	74.24
399.244	76.29
399.453	82.43
399.663	68.09
399.872	139.77
400.081	84.48
400.29	135.68
400.499	88.57
400.708	133.63
400.917	68.09
401.127	25.09
401.336	59.9
401.545	104.96
401.754	74.24
401.963	98.81
402.172	76.29
402.381	33.28
402.59	135.68
402.799	12.8
403.008	145.92
403.217	141.82
403.426	45.57
403.635	104.96
403.844	82.43
404.053	100.86
404.262	68.09
404.471	92.67
404.68	53.76
404.888	139.77
405.097	98.81
405.306	102.91
405.515	45.57
405.724	131.58
405.933	111.1
406.142	104.96
406.35	170.49
406.559	162.3
406.768	143.87
406.977	113.15
407.185	104.96
407.394	94.72
407.603	119.29
407.812	254.46
408.02	104.96
408.229	188.93
408.438	137.73
408.646	184.83
408.855	203.26
409.064	145.92
409.272	209.4
409.481	205.31
409.69	221.69
409.898	168.45
410.107	217.6
410.315	217.6
410.524	252.41
410.733	221.69
410.941	199.16
411.15	285.18
411.358	293.37
411.567	293.37
411.775	246.27
411.984	195.07
412.192	276.99
412.401	242.17
412.609	266.75
412.818	348.67
413.026	332.28
413.234	303.61
413.443	285.18
413.651	410.11
413.86	399.87
414.068	434.68
414.276	436.73
414.485	416.25
414.693	434.68
414.901	424.44
415.11	420.35
415.318	559.61
415.526	489.98
415.734	518.65
415.943	530.94
416.151	555.51
416.359	569.85
416.567	602.61
416.776	625.14
416.984	582.14
417.192	641.53
417.4	664.05
417.608	635.38
417.817	672.25
418.025	797.17
418.233	760.31
418.441	748.02
418.649	807.41
418.857	807.41
419.065	956.91
419.273	860.66
419.481	840.18
419.689	1020.4
419.897	1034.74
420.105	993.78
420.313	999.92
420.521	1157.61
420.729	1085.94
420.937	1188.33
421.145	1274.35
421.353	1350.12
421.561	1325.55
421.769	1311.21
421.977	1438.19
422.185	1382.89
422.393	1530.34
422.601	1642.98
422.809	1567.21
423.017	1569.26
423.224	1702.37
423.432	1729
423.64	1753.57
423.848	1847.78
424.056	1765.86
424.263	2013.67
424.471	1919.46
424.679	2093.54
424.887	2021.86
425.094	2116.06
425.302	2200.03
425.51	2316.76
425.718	2300.38
425.925	2351.58
426.133	2544.09
426.341	2601.43
426.548	2716.12
426.756	2558.42
426.964	2750.93
427.171	2783.7
427.379	3035.6
427.586	2961.87
427.794	3109.33
428.001	3234.25
428.209	3416.52
428.417	3430.86
428.624	3588.55
428.832	3680.71
429.039	3553.74
429.247	3537.35
429.454	3865.03
429.662	4110.79
429.869	3908.04
430.076	4217.28
430.284	3916.23
430.491	4141.5
430.699	4448.7
430.906	4350.4
431.114	4594.11
431.321	4479.42
431.528	4741.56
431.736	4997.56
431.943	5337.52
432.15	5099.95
432.358	5206.45
432.565	5519.79
432.772	5511.6
432.979	5720.49
433.187	5974.44
433.394	5831.08
433.601	6427.04
433.808	6209.95
434.016	6166.95
434.223	6453.66
434.43	6613.4
434.637	6777.24
434.844	7188.88
435.052	7285.14
435.259	7256.47
435.466	7328.14
435.673	7156.11
435.88	7842.18
436.087	7967.11
436.294	8380.8
436.501	8012.17
436.708	8161.67
436.915	8462.72
437.122	8739.19
437.329	8810.87
437.537	8974.71
437.743	9271.67
437.95	9113.97
438.157	9642.35
438.364	9943.4
438.571	9894.25
438.778	10006.89
438.985	11039.06
439.192	10289.51
439.399	10877.27
439.606	10400.1
439.813	11116.89
440.02	11710.8
440.227	11725.13
440.433	11497.81
440.64	11884.87
440.847	11743.56
441.054	12058.95
441.261	12958.01
441.467	12765.5
441.674	12945.72
441.881	13670.7
442.088	13349.17
442.294	13261.11
442.501	13586.74
442.708	14182.7
442.914	14428.45
443.121	15362.33
443.328	14651.68
443.534	15683.86
443.741	15419.67
443.948	15120.67
444.154	16214.28
444.361	15976.72
444.568	16306.44
444.774	16265.48
444.981	16595.2
445.187	16853.25
445.394	17627.38
445.6	17273.08
445.807	19130.59
446.013	18338.02
446.22	18866.4
446.426	19290.33
446.633	19661.01
446.839	20234.44
447.046	19691.73
447.252	20383.94
447.459	20238.54
447.665	20412.62
447.871	21096.64
448.078	22137.01
448.284	20877.51
448.491	21571.77
448.697	22692.01
448.903	23015.58
449.11	23101.6
449.316	22544.55
449.522	23234.72
449.728	23730.33
449.935	24164.5
450.141	23845.01
450.347	24782.98
450.553	23642.26
450.76	23969.94
450.966	24998.02
451.172	24576.14
451.378	25211.01
451.584	24547.47
451.791	25667.7
451.997	25073.79
452.203	25761.91
452.409	25581.69
452.615	25329.79
452.821	24543.37
453.027	24303.76
453.233	25415.8
453.44	24432.78
453.646	24979.59
453.852	25122.94
454.058	25630.84
454.264	24680.58
454.47	25110.66
454.676	24924.29
454.882	25524.35
455.088	23201.95
455.294	23920.79
455.5	23824.53
455.705	24270.99
455.911	23324.83
456.117	22833.32
456.323	22745.25
456.529	21221.56
456.735	22241.45
456.941	21872.82
457.147	21395.64
457.352	20760.77
457.558	20490.44
457.764	20590.79
457.97	20007.12
458.176	19648.72
458.381	19704.02
458.587	18569.44
458.793	18749.67
458.999	17914.09
459.204	18917.6
459.41	18645.22
459.616	17273.08
459.821	17520.88
460.027	17056
460.233	16754.94
460.438	16142.6
460.644	16363.78
460.85	15706.38
461.055	15374.61
461.261	15378.71
461.466	13961.51
461.672	13756.72
461.878	14600.48
462.083	13556.02
462.289	13390.13
462.494	13373.75
462.7	12650.81
462.905	12261.7
463.111	12976.44
463.316	12968.25
463.522	12542.27
463.727	12677.44
463.932	12435.78
464.138	12233.03
464.343	12476.74
464.549	11981.13
464.754	12489.03
464.959	12505.41
465.165	12196.17
465.37	11815.24
465.575	11506
465.781	11944.27
465.986	12024.14
466.191	11436.37
466.397	11432.27
466.602	10936.67
466.807	11309.4
467.012	11211.09
467.218	10828.12
467.423	11026.78
467.628	11088.21
467.833	11483.47
468.038	11032.92
468.244	10731.87
468.449	11188.57
468.654	10639.71
468.859	10680.67
469.064	10682.72
469.269	10291.55
469.474	10391.91
469.679	10439.01
469.885	10293.6
470.09	10490.21
470.295	10516.83
470.5	9976.17
470.705	10086.76
470.91	9927.02
471.115	9857.39
471.32	10088.81
471.525	10168.68
471.73	9576.81
471.935	9550.19
472.139	9302.39
472.344	9527.66
472.549	9300.34
472.754	9251.19
472.959	9247.09
473.164	8982.9
473.369	8704.38
473.574	9161.08
473.778	8999.29
473.983	8839.55
474.188	8931.7
474.393	8458.62
474.598	8536.45
474.802	8395.14
475.007	8350.08
475.212	8384.9
475.417	8012.17
475.621	8319.36
475.826	8153.48
476.031	7799.18
476.235	7846.28
476.44	7881.1
476.645	7907.72
476.849	7780.75
477.054	7649.68
477.259	7629.2
477.463	7561.61
477.668	7342.48
477.872	7381.39
478.077	7383.44
478.282	7195.03
478.486	7166.35
478.691	6967.7
478.895	7074.2
479.1	6936.98
479.304	7072.15
479.509	6789.53
479.713	6916.5
479.918	6740.38
480.122	6627.74
480.326	6816.15
480.531	6668.7
480.735	6447.52
480.94	6592.92
481.144	6683.03
481.348	6396.32
481.553	6617.5
481.757	6381.98
481.961	6676.89
482.166	6687.13
482.37	6564.25
482.574	6392.22
482.778	6437.28
482.983	6398.37
483.187	6443.42
483.391	6455.71
483.595	6525.34
483.8	6377.89
484.004	6431.13
484.208	6640.03
484.412	6494.62
484.616	6375.84
484.821	6361.5
485.025	6381.98
485.229	6459.81
485.433	6578.59
485.637	6566.3
485.841	6326.69
486.045	6412.7
486.249	6484.38
486.453	6326.69
486.657	6445.47
486.861	6420.89
487.065	6326.69
487.269	6461.85
487.473	6392.22
487.677	6541.72
487.881	6541.72
488.085	6435.23
488.289	6496.67
488.493	6261.15
488.697	6291.87
488.901	6576.54
489.105	6443.42
489.309	6631.83
489.512	6527.39
489.716	6590.88
489.92	6496.67
490.124	6386.08
490.328	6732.19
490.531	6488.48
490.735	6447.52
490.939	6680.99
491.143	6513.05
491.346	6611.36
491.55	6756.76
491.754	6683.03
491.958	6834.58
492.161	6844.82
492.365	6912.41
492.569	6742.43
492.772	6810.01
492.976	6881.69
493.18	6816.15
493.383	6996.37
493.587	6863.26
493.79	6992.28
493.994	7039.38
494.197	6900.12
494.401	7076.24
494.605	7051.67
494.808	7248.27
495.012	7338.38
495.215	7227.79
495.419	7317.9
495.622	7313.81
495.825	7278.99
496.029	7401.87
496.232	7602.57
496.436	7598.48
496.639	7971.21
496.843	7731.59
497.046	7942.53
497.249	7979.4
497.453	7975.3
497.656	7987.59
497.859	8204.67
498.063	8280.45
498.266	8395.14
498.469	8255.87
498.673	8362.37
498.876	8536.45
499.079	8632.7
499.282	8554.88
499.485	8731
499.689	8825.21
499.892	8941.94
500.095	8888.7
500.298	9134.45
500.501	9132.4
500.705	9339.25
500.908	9437.55
501.111	9578.86
501.314	9507.18
501.517	9834.86
501.72	9828.71
501.923	9826.67
502.126	10266.98
502.329	10228.07
502.532	10396
502.735	10320.23
502.938	10387.81
503.141	10754.4
503.344	10778.97
503.547	10699.1
503.75	10762.59
503.953	11116.89
504.156	11057.5
504.359	11071.83
504.562	11305.3
504.765	11639.12
504.968	11665.74
505.17	11833.68
505.373	11841.87
505.576	11899.21
505.779	12216.65
505.982	12273.99
506.185	12532.03
506.387	12460.35
506.59	12575.04
506.793	12788.03
506.996	12822.84
507.198	13252.92
507.401	13140.28
507.604	13283.64
507.807	13396.28
508.009	13459.76
508.212	13572.4
508.415	13852.97
508.617	14084.39
508.82	14104.87
509.022	14025
509.225	14307.62
509.428	14496.03
509.63	14614.82
509.833	14803.23
510.035	15112.47
510.238	14883.1
510.44	15186.2
510.643	15554.83
510.845	15825.17
511.048	15423.76
511.25	15773.97
511.453	15849.74
511.655	16062.73
511.858	15853.84
512.06	16232.71
512.262	16795.9
512.465	16503.04
512.667	16994.56
512.87	16847.1
513.072	17051.9
513.274	17406.2
513.477	17449.21
513.679	17533.17
513.881	17678.58
514.084	17627.38
514.286	17846.51
514.488	17981.68
514.69	18530.53
514.893	18680.03
515.095	18811.1
515.297	18968.8
515.499	18790.63
515.701	19286.23
515.904	18999.52
516.106	19548.37
516.308	19601.62
516.51	19556.57
516.712	19976.4
516.914	20076.75
517.116	20295.88
517.318	20531.4
517.52	20639.94
517.722	20750.53
517.925	20988.1
518.127	21375.16
518.329	21493.94
518.531	21332.15
518.733	21866.67
518.935	21915.83
519.136	21678.26
519.338	22311.08
519.54	22198.45
519.742	22343.85
519.944	22866.08
520.146	23005.34
520.348	23249.05
520.55	23265.44
520.752	23488.67
520.954	23546.01
521.155	23595.16
521.357	23976.08
521.559	23851.16
521.761	24311.95
521.963	24445.07
522.164	24576.14
522.366	24578.18
522.568	24754.31
522.77	24656.01
522.971	25368.7
523.173	25182.34
523.375	25274.49
523.576	25624.7
523.778	25477.24
523.98	26396.78
524.181	25892.98
524.383	25987.19
524.584	26564.71
524.786	26507.37
524.988	26310.77
525.189	26476.65
525.391	26761.32
525.592	26740.84
525.794	27338.85
525.995	27297.89
526.197	27203.68
526.398	27232.35
526.6	27539.55
526.801	27584.6
527.003	27691.1
527.204	28117.07
527.406	27926.61
527.607	27873.37
527.808	28266.58
528.01	27926.61
528.211	28207.19
528.412	28643.4
528.614	28352.59
528.815	28858.44
529.016	28887.11
529.218	28610.64
529.419	28878.92
529.62	28866.63
529.822	28835.91
530.023	28760.14
530.224	28913.73
530.425	29053
530.626	28713.03
530.828	29116.48
531.029	29374.53
531.23	28743.75
531.431	29200.45
531.632	29618.24
531.833	29286.47
532.035	29388.86
532.236	29689.91
532.437	29675.58
532.638	29788.22
532.839	29651
533.04	29790.27
533.241	29419.58
533.442	29839.42
533.643	29765.69
533.844	29671.48
534.045	30113.84
534.246	29771.83
534.447	30136.37
534.648	29532.22
534.849	30232.63
535.05	29843.51
535.251	29884.47
535.451	29741.11
535.652	30189.62
535.853	29630.52
536.054	30066.74
536.255	30318.64
536.456	29534.27
536.657	30251.06
536.857	29841.46
537.058	29956.15
537.259	30220.34
537.46	30044.21
537.66	30214.19
537.861	30146.61
538.062	30003.25
538.263	30492.72
538.463	29687.87
538.664	29526.08
538.865	30044.21
539.065	30138.42
539.266	29788.22
539.466	30289.97
539.667	29939.77
539.868	30496.81
540.068	30072.89
540.269	30201.91
540.469	30119.99
540.67	30101.56
540.87	30097.46
541.071	29990.97
541.271	30261.3
541.472	29548.61
541.672	29931.58
541.873	29859.9
542.073	29837.37
542.274	30064.69
542.474	29886.52
542.675	29810.75
542.875	30046.26
543.075	30134.32
543.276	29564.99
543.476	30408.75
543.676	30109.75
543.877	30152.76
544.077	29603.9
544.277	29792.31
544.478	29870.14
544.678	29880.38
544.878	29870.14
545.078	29630.52
545.279	29505.6
545.479	30105.65
545.679	30206
545.879	29818.94
546.079	29902.9
546.28	29808.7
546.48	29554.75
546.68	29974.58
546.88	29835.32
547.08	29904.95
547.28	29759.55
547.48	29786.17
547.68	29749.31
547.88	29306.94
548.081	29907
548.281	29978.68
548.481	29591.61
548.681	30210.1
548.881	30097.46
549.081	29739.07
549.28	29802.55
549.48	29874.23
549.68	29861.94
549.88	30064.69
550.08	29689.91
550.28	29872.18
550.48	29542.46
550.68	29962.29
550.88	29630.52
551.08	29614.14
551.279	29575.23
551.479	29446.21
551.679	29724.73
551.879	29681.72
552.079	29786.17
552.278	29335.62
552.478	29728.83
552.678	29728.83
552.878	29644.86
553.077	29448.25
553.277	29225.03
553.477	30011.45
553.676	29165.63
553.876	29603.9
554.076	29063.24
554.275	29337.66
554.475	29003.85
554.674	29530.17
554.874	29458.49
555.074	29192.26
555.273	29274.18
555.473	29427.77
555.672	29075.52
555.872	29259.84
556.071	29192.26
556.271	29057.09
556.47	29126.72
556.67	29055.04
556.869	29169.73
557.068	28932.17
557.268	29085.76
557.467	29130.82
557.667	28835.91
557.866	29188.16
558.065	28923.97
558.265	28538.96
558.464	28541
558.663	29038.66
558.863	28895.3
559.062	29110.34
559.261	28784.71
559.461	28805.19
559.66	28184.66
559.859	28612.68
560.058	28530.76
560.258	28514.38
560.457	28508.24
560.656	28766.28
560.855	28387.41
561.054	28772.42
561.253	28430.41
561.453	28289.1
561.652	28127.31
561.851	28155.99
562.05	28196.95
562.249	27883.61
562.448	28057.68
562.647	28250.19
562.846	27947.09
563.045	27981.91
563.244	27547.74
563.443	28117.07
563.642	27394.14
563.841	27795.54
564.04	27842.65
564.239	27887.7
564.438	27422.81
564.637	27738.2
564.836	27760.73
565.035	27097.19
565.234	27613.27
565.432	27365.47
565.631	27002.98
565.83	27308.13
566.029	27424.86
566.228	27035.75
566.427	27168.87
566.625	26523.76
566.824	26388.59
567.023	26992.74
567.222	26677.35
567.42	26939.49
567.619	26665.07
567.818	26714.22
568.016	26568.81
568.215	26699.88
568.414	26218.61
568.612	26656.87
568.811	26593.39
569.01	26622.06
569.208	26308.72
569.407	26341.49
569.605	25723
569.804	26243.18
570.002	25946.23
570.201	26015.86
570.4	25710.71
570.598	25725.05
570.797	25641.08
570.995	25817.21
571.193	25417.85
571.392	25790.58
571.59	25475.2
571.789	25436.28
571.987	25624.7
572.186	25438.33
572.384	25235.58
572.582	25374.84
572.781	25419.9
572.979	25051.27
573.177	25127.04
573.376	25276.54
573.574	24926.34
573.772	24748.17
573.971	24793.22
574.169	24727.69
574.367	24526.99
574.565	24993.92
574.763	24408.2
574.962	24490.12
575.16	24332.43
575.358	24445.07
575.556	24137.87
575.754	24639.62
575.952	24162.45
576.151	24170.64
576.349	24205.45
576.547	24068.24
576.745	23986.32
576.943	23840.92
577.141	23613.59
577.339	23982.23
577.537	23709.85
577.735	23646.36
577.933	23527.58
578.131	23664.79
578.329	23580.82
578.527	23455.9
578.725	23500.95
578.923	23505.05
579.121	23335.07
579.319	23193.76
579.516	23238.81
579.714	23382.17
579.912	22759.59
580.11	23046.3
580.308	22816.93
580.506	22925.47
580.704	22247.6
580.901	22689.96
581.099	22634.66
581.297	22808.74
581.495	22362.28
581.692	22524.07
581.89	22376.62
582.088	22526.12
582.285	22223.02
582.483	22466.73
582.681	22526.12
582.878	22104.24
583.076	22192.3
583.274	22059.18
583.471	21579.96
583.669	22233.26
583.866	21858.48
584.064	21866.67
584.262	21692.6
584.459	21838
584.657	21602.49
584.854	22030.51
585.052	21176.51
585.249	21614.77
585.447	21539
585.644	21348.54
585.841	21217.47
586.039	21416.12
586.236	20979.9
586.434	21078.21
586.631	20771.01
586.828	20965.57
587.026	21031.1
587.223	20691.14
587.42	20844.74
587.618	20963.52
587.815	20832.45
588.012	20801.73
588.21	20445.38
588.407	20558.02
588.604	20474.06
588.801	20545.73
588.999	20490.44
589.196	20390.09
589.393	20617.41
589.59	20250.83
589.787	20140.24
589.984	20181.2
590.182	19910.86
590.379	19869.9
590.576	20093.13
590.773	19929.3
590.97	20027.6
591.167	20011.21
591.364	19804.37
591.561	19599.57
591.758	19669.2
591.955	19370.2
592.152	19304.67
592.349	19329.24
592.546	19329.24
592.743	19472.6
592.94	19155.16
593.137	18964.7
593.334	19341.53
593.531	18874.59
593.727	19114.2
593.924	19126.49
594.121	18925.79
594.318	19085.53
594.515	18770.15
594.712	18743.52
594.908	18696.42
595.105	18817.25
595.302	18413.8
595.499	18505.96
595.696	18626.79
595.892	18448.61
596.089	18469.09
596.286	18530.53
596.482	18278.63
596.679	18182.38
596.876	18446.57
597.072	18221.29
597.269	18178.28
597.466	17973.49
597.662	17899.76
597.859	18096.36
598.055	18086.12
598.252	17869.04
598.448	17817.84
598.645	17674.48
598.841	17434.87
599.038	17479.93
599.234	17699.06
599.431	17629.43
599.627	17567.99
599.824	17707.25
600.02	17318.14
600.217	17344.76
600.413	17473.78
600.609	17017.08
600.806	16986.36
601.002	17225.98
601.198	17103.1
601.395	16705.79
601.591	16992.51
601.787	16865.53
601.984	16634.11
602.18	16785.66
602.376	16759.04
602.572	16836.86
602.769	16779.52
602.965	16705.79
603.161	16537.86
603.357	16216.33
603.553	16617.73
603.75	16558.34
603.946	16388.36
604.142	16417.03
604.338	16122.12
604.534	16392.45
604.73	16122.12
604.926	15835.41
605.122	15962.38
605.318	16083.21
605.514	15720.72
605.71	15921.42
605.906	15894.8
606.102	15614.23
606.298	15841.55
606.494	15792.4
606.69	15755.54
606.886	15665.42
607.082	15671.57
607.278	15833.36
607.474	15460.63
607.67	15552.79
607.866	15264.02
608.062	15556.88
608.257	15278.36
608.453	15370.52
608.649	15450.39
608.845	15065.37
609.041	15245.59
609.236	15309.08
609.432	15178.01
609.628	15243.54
609.824	15073.56
610.019	15159.58
610.215	14846.24
610.411	15126.81
610.606	15044.89
610.802	14960.92
610.998	15034.65
611.193	15077.66
611.389	14813.47
611.584	14764.32
611.78	14727.46
611.976	14604.58
612.171	14493.99
612.367	14711.07
612.562	14696.74
612.758	14395.68
612.953	14420.26
613.149	14694.69
613.344	14467.36
613.539	14588.19
613.735	14502.18
613.93	14551.33
614.126	14508.32
614.321	14428.45
614.517	14670.11
614.712	14305.57
614.907	14233.89
615.103	14328.1
615.298	14061.87
615.493	14428.45
615.688	14063.91
615.884	14420.26
616.079	14084.39
616.274	14012.71
616.47	14242.09
616.665	14178.6
616.86	13920.56
617.055	14057.77
617.25	14143.78
617.445	14012.71
617.641	13791.53
617.836	13893.93
618.031	13709.61
618.226	13857.07
618.421	13582.64
618.616	13750.57
618.811	13332.79
619.006	13650.22
619.201	13574.45
619.396	13457.71
619.591	13322.55
619.786	13525.3
619.981	13062.46
620.176	13558.07
620.371	13091.13
620.566	13099.32
620.761	13050.17
620.956	13101.37
621.151	12659.01
621.346	12945.72
621.541	12687.68
621.735	13109.56
621.93	12618.05
622.125	12577.09
622.32	12527.94
622.515	12730.69
622.709	12425.54
622.904	12499.27
623.099	12421.44
623.294	12441.92
623.488	12319.04
623.683	12296.52
623.878	12005.7
624.072	12235.08
624.267	12132.68
624.462	12079.43
624.656	11893.07
624.851	12036.42
625.046	11878.73
625.24	11772.24
625.435	11737.42
625.629	11546.96
625.824	11655.5
626.018	11456.85
626.213	11141.46
626.407	11356.5
626.602	11211.09
626.796	11340.11
626.991	11286.87
627.185	11131.22
627.38	11149.65
627.574	10942.81
627.768	10967.38
627.963	10899.8
628.157	10785.12
628.352	10846.55
628.546	10596.7
628.74	10914.14
628.935	10668.38
629.129	10527.07
629.323	10482.02
629.517	10449.25
629.712	10326.37
629.906	10475.87
630.1	10301.79
630.294	10342.75
630.489	10082.66
630.683	10162.53
630.877	10047.85
631.071	9865.58
631.265	10117.48
631.459	10002.79
631.653	9978.22
631.848	9865.58
632.042	9771.37
632.236	9802.09
632.43	9748.84
632.624	9507.18
632.818	9711.98
633.012	9451.89
633.206	9464.18
633.4	9353.59
633.594	9468.27
633.788	9441.65
633.982	9496.94
634.176	9277.81
634.369	9222.52
634.563	9171.32
634.757	8987
634.951	9107.83
635.145	9093.49
635.339	8917.37
635.533	8880.5
635.726	8853.88
635.92	8872.31
636.114	8851.83
636.308	8710.52
636.501	8604.03
636.695	8581.5
636.889	8489.34
637.083	8608.12
637.276	8499.58
637.47	8495.49
637.664	8538.49
637.857	8337.79
638.051	8331.65
638.244	8317.31
638.438	8253.83
638.632	8061.32
638.825	8173.96
639.019	8194.43
639.212	8151.43
639.406	7887.24
639.599	8188.29
639.793	8032.65
639.986	7645.58
640.18	7944.58
640.373	7829.9
640.567	7735.69
640.76	7768.46
640.954	7647.63
641.147	7596.43
641.34	7510.41
641.534	7520.65
641.727	7459.21
641.92	7451.02
642.114	7633.29
642.307	7301.52
642.5	7375.25
642.694	7299.47
642.887	7242.13
643.08	7326.1
643.273	7293.33
643.467	7272.85
643.66	7055.76
643.853	7207.31
644.046	6941.08
644.239	7254.42
644.432	6988.18
644.626	6982.04
644.819	6912.41
645.012	6891.93
645.205	6834.58
645.398	6777.24
645.591	7027.09
645.784	6818.2
645.977	6592.92
646.17	6793.62
646.363	6633.88
646.556	6457.76
646.749	6513.05
646.942	6588.83
647.135	6465.95
647.328	6334.88
647.521	6545.82
647.714	6236.58
647.907	6396.32
648.099	6336.93
648.292	6465.95
648.485	6295.97
648.678	6224.29
648.871	6224.29
649.064	6212
649.256	6330.78
649.449	6191.52
649.642	5994.92
649.835	6046.12
650.027	6158.75
650.22	5931.43
650.413	5910.95
650.605	6035.88
650.798	5788.07
650.991	5775.78
651.183	5712.3
651.376	5708.2
651.568	5902.76
651.761	5829.03
651.954	5761.45
652.146	5636.52
652.339	5706.15
652.531	5702.06
652.724	5695.91
652.916	5712.3
653.109	5460.4
653.301	5521.84
653.494	5489.07
653.686	5392.81
653.879	5452.2
654.071	5444.01
654.263	5194.16
654.456	5226.93
654.648	5401.01
654.84	5185.97
655.033	5405.1
655.225	5382.57
655.417	5188.02
655.61	5294.51
655.802	4958.64
655.994	5112.24
656.186	5067.19
656.379	5167.54
656.571	4938.16
656.763	5052.85
656.955	5116.34
657.148	4962.74
657.34	4907.45
657.532	4895.16
657.724	4958.64
657.916	4934.07
658.108	4868.53
658.3	4772.28
658.492	4995.51
658.684	4770.23
658.876	4645.31
659.068	4698.55
659.26	4585.91
659.452	4637.11
659.644	4561.34
659.836	4649.4
660.028	4575.67
660.22	4581.82
660.412	4561.34
660.604	4454.84
660.796	4549.05
660.988	4551.1
661.18	4450.75
661.372	4401.6
661.563	4444.6
661.755	4315.58
661.947	4467.13
662.139	4379.07
662.331	4358.59
662.522	4280.77
662.714	4284.86
662.906	4297.15
663.097	4159.94
663.289	4243.9
663.481	4190.66
663.673	4282.81
663.864	4215.23
664.056	4153.79
664.247	4217.28
664.439	4071.87
664.631	3979.72
664.822	3979.72
665.014	4071.87
665.205	4102.59
665.397	3875.27
665.588	4176.32
665.78	4039.11
665.971	4114.88
666.163	3961.28
666.354	3938.76
666.546	4086.21
666.737	3846.6
666.929	3963.33
667.12	3961.28
667.311	3772.87
667.503	3799.49
667.694	3760.58
667.885	3817.93
668.077	3854.79
668.268	3916.23
668.459	3871.17
668.651	3738.05
668.842	3766.73
669.033	3711.43
669.224	3623.37
669.416	3721.67
669.607	3795.4
669.798	3541.45
669.989	3793.35
670.18	3598.79
670.371	3615.18
670.563	3592.65
670.754	3740.1
670.945	3533.26
671.136	3764.68
671.327	3463.63
671.518	3443.15
671.709	3533.26
671.9	3682.76
672.091	3541.45
672.282	3408.33
672.473	3510.73
672.664	3502.54
672.855	3344.84
673.046	3394
673.237	3359.18
673.428	3283.41
673.619	3398.09
673.809	3353.04
674	3437
674.191	3340.75
674.382	3326.41
674.573	3350.99
674.764	3271.12
674.954	3330.51
675.145	3258.83
675.336	3367.37
675.527	3264.97
675.717	3334.61
675.908	3232.21
676.099	3271.12
676.289	3172.82
676.48	3252.69
676.671	3254.73
676.861	3150.29
677.052	3283.41
677.243	3219.92
677.433	3248.59
677.624	3105.23
677.814	3086.8
678.005	3078.61
678.195	3264.97
678.386	3209.68
678.576	3146.19
678.767	3240.4
678.957	3181.01
679.148	3129.81
679.338	3195.34
679.529	3170.77
679.719	3111.38
679.909	3164.62
680.1	3054.03
680.29	3056.08
680.481	3092.94
680.671	3047.89
680.861	3015.12
681.052	3129.81
681.242	3049.94
681.432	3193.3
681.622	3084.75
681.813	2953.68
682.003	2951.63
682.193	3125.71
682.383	3013.07
682.573	3107.28
682.764	3070.42
682.954	3189.2
683.144	2972.11
683.334	3029.46
683.524	2920.92
683.714	2951.63
683.904	2933.2
684.094	3037.65
684.284	3025.36
684.474	3013.07
684.664	2953.68
684.854	2857.43
685.044	2929.11
685.234	2886.1
685.424	2927.06
685.614	3039.7
685.804	2914.77
685.994	2875.86
686.184	2918.87
686.374	2892.24
686.564	2822.61
686.753	2787.8
686.943	2894.29
687.133	2841.04
687.323	2890.2
687.513	2757.08
687.702	2800.09
687.892	2861.52
688.082	2783.7
688.272	2853.33
688.461	2662.87
688.651	2761.17
688.841	2734.55
689.03	2705.88
689.22	2707.93
689.41	2677.21
689.599	2669.02
689.789	2750.93
689.979	2615.77
690.168	2728.41
690.358	2669.02
690.547	2709.97
690.737	2638.3
690.926	2519.51
691.116	2636.25
691.305	2691.54
691.495	2527.71
691.684	2476.51
691.874	2583
692.063	2496.99
692.252	2490.84
692.442	2511.32
692.631	2458.07
692.82	2453.98
693.01	2380.25
693.199	2527.71
693.388	2421.21
693.578	2492.89
693.767	2443.74
693.956	2370.01
694.146	2335.2
694.335	2423.26
694.524	2404.83
694.713	2365.92
694.902	2458.07
695.092	2341.34
695.281	2396.64
695.47	2427.35
695.659	2329.05
695.848	2343.39
696.037	2388.44
696.226	2331.1
696.415	2267.61
696.604	2372.06
696.793	2271.71
696.982	2341.34
697.171	2443.74
697.36	2255.33
697.549	2265.57
697.738	2308.57
697.927	2255.33
698.116	2357.72
698.305	2374.11
698.494	2251.23
698.683	2179.55
698.872	2308.57
699.061	2243.04
699.25	2365.92
699.438	2345.44
699.627	2337.24
699.816	2337.24
700.005	2154.98
700.193	2193.89
700.382	2298.33
700.571	2255.33
700.76	2236.89
700.948	2281.95
701.137	2251.23
701.326	2316.76
701.514	2261.47
701.703	2249.18
701.892	2284
702.08	2257.37
702.269	2251.23
702.457	2120.16
702.646	2234.85
702.834	2118.11
703.023	2222.56
703.212	2286.05
703.4	2222.56
703.589	2214.37
703.777	2273.76
703.965	2193.89
704.154	2206.17
704.342	2140.64
704.531	2154.98
704.719	2154.98
704.907	2232.8
705.096	2167.26
705.284	2136.54
705.472	2195.93
705.661	2146.78
705.849	2202.08
706.037	2210.27
706.226	2286.05
706.414	2329.05
706.602	2126.3
706.79	2089.44
706.979	2105.82
707.167	2245.09
707.355	2222.56
707.543	2286.05
707.731	2267.61
707.919	2232.8
708.107	2167.26
708.296	2138.59
708.484	2255.33
708.672	2193.89
708.86	2136.54
709.048	2148.83
709.236	2195.93
709.424	2077.15
709.612	2159.07
709.8	2032.1
709.988	2193.89
710.176	2134.5
710.364	2191.84
710.551	2167.26
710.739	2179.55
710.927	2210.27
711.115	2273.76
711.303	2177.5
711.491	2265.57
711.679	2107.87
711.866	2157.02
712.054	2210.27
712.242	2109.92
712.43	2189.79
712.617	2226.65
712.805	2284
712.993	2212.32
713.181	2204.13
713.368	2238.94
713.556	2296.28
713.744	2032.1
713.931	2333.15
714.119	2202.08
714.306	2116.06
714.494	2216.41
714.682	2171.36
714.869	2226.65
715.057	2208.22
715.244	2214.37
715.432	2195.93
715.619	2228.7
715.807	2157.02
715.994	2175.45
716.182	2148.83
716.369	2193.89
716.556	2298.33
716.744	2111.97
716.931	2269.66
717.119	2259.42
717.306	2236.89
717.493	2163.17
717.681	2249.18
717.868	2269.66
718.055	2281.95
718.242	2249.18
718.43	2271.71
718.617	2245.09
718.804	2144.74
718.991	2292.19
719.179	2216.41
719.366	2226.65
719.553	2175.45
719.74	2175.45
719.927	2191.84
720.114	2208.22
720.301	2255.33
720.488	2245.09
720.676	2202.08
720.863	2177.5
721.05	2183.65
721.237	2218.46
721.424	2165.21
721.611	2275.81
721.798	2136.54
721.985	2189.79
722.172	2171.36
722.358	2132.45
722.545	2318.81
722.732	2159.07
722.919	2269.66
723.106	2251.23
723.293	2292.19
723.48	2159.07
723.667	2228.7
723.853	2265.57
724.04	2179.55
724.227	2200.03
724.414	2292.19
724.6	2193.89
724.787	2140.64
724.974	2144.74
725.161	2157.02
725.347	2132.45
725.534	2154.98
725.72	2140.64
725.907	2243.04
726.094	2322.91
726.28	2279.9
726.467	2132.45
726.653	2171.36
726.84	2359.77
727.027	2183.65
727.213	2138.59
727.4	2068.96
727.586	2173.41
727.773	2202.08
727.959	2234.85
728.145	2179.55
728.332	2269.66
728.518	2093.54
728.705	2179.55
728.891	2191.84
729.077	2263.52
729.264	2212.32
729.45	2150.88
729.636	2193.89
729.823	2277.85
730.009	2157.02
730.195	2216.41
730.382	2173.41
730.568	2030.05
730.754	2122.21
730.94	2284
731.126	2087.39
731.313	2130.4
731.499	2294.24
731.685	2281.95
731.871	2134.5
732.057	2179.55
732.243	2238.94
732.429	2202.08
732.615	2261.47
732.801	2154.98
732.987	2040.29
733.173	2251.23
733.359	2079.2
733.545	2169.31
733.731	2087.39
733.917	2085.34
734.103	2343.39
734.289	2273.76
734.475	2181.6
734.661	2222.56
734.847	2189.79
735.033	2142.69
735.219	2148.83
735.404	2300.38
735.59	2128.35
735.776	2071.01
735.962	2220.51
736.148	2120.16
736.333	2122.21
736.519	2222.56
736.705	2060.77
736.89	2204.13
737.076	2144.74
737.262	2161.12
737.447	2077.15
737.633	2128.35
737.819	2206.17
738.004	2116.06
738.19	2159.07
738.375	2126.3
738.561	2152.93
738.747	2077.15
738.932	2064.86
739.118	2146.78
739.303	2167.26
739.489	2030.05
739.674	2081.25
739.859	2126.3
740.045	2048.48
740.23	2154.98
740.416	2050.53
740.601	1974.75
740.786	2058.72
740.972	2066.91
741.157	2036.19
741.342	2028
741.528	2064.86
741.713	2042.34
741.898	1860.07
742.084	2048.48
742.269	1958.37
742.454	1989.09
742.639	2056.67
742.824	2013.67
743.01	1997.28
743.195	1987.04
743.38	2003.43
743.565	1962.47
743.75	1978.85
743.935	1937.89
744.12	1954.27
744.305	1825.25
744.49	1898.98
744.675	1999.33
744.86	1978.85
745.045	1880.55
745.23	1929.7
745.415	1827.3
745.6	1888.74
745.785	1747.43
745.97	1874.4
746.155	1802.72
746.34	1843.68
746.525	1700.33
746.71	1845.73
746.895	1794.53
747.079	1685.99
747.264	1729
747.449	1671.65
747.634	1710.57
747.819	1788.39
748.003	1673.7
748.188	1612.26
748.373	1688.04
748.557	1698.28
748.742	1677.8
748.927	1567.21
749.111	1675.75
749.296	1694.18
749.481	1589.74
749.665	1546.73
749.85	1593.83
750.034	1602.02
750.219	1622.5
750.404	1653.22
750.588	1571.3
750.773	1491.43
750.957	1489.39
751.141	1497.58
751.326	1546.73
751.51	1552.87
751.695	1446.38
751.879	1487.34
752.064	1597.93
752.248	1532.39
752.432	1470.95
752.617	1458.67
752.801	1440.23
752.985	1477.1
753.17	1360.36
753.354	1573.35
753.538	1319.4
753.722	1386.99
753.907	1497.58
754.091	1323.5
754.275	1464.81
754.459	1307.12
754.643	1368.56
754.828	1341.93
755.012	1290.73
755.196	1223.15
755.38	1307.12
755.564	1284.59
755.748	1339.88
755.932	1296.88
756.116	1202.67
756.3	1221.1
756.484	1217.01
756.668	1169.9
756.852	1233.39
757.036	1290.73
757.22	1214.96
757.404	1208.81
757.588	1161.71
757.772	1180.14
757.956	1190.38
758.14	1188.33
758.323	1190.38
758.507	1198.57
758.691	1237.49
758.875	1188.33
759.059	1106.42
759.242	1141.23
759.426	1165.81
759.61	1210.86
759.794	1059.31
759.977	1110.51
760.161	1079.79
760.345	1155.57
760.528	1104.37
760.712	1137.13
760.895	1147.37
761.079	1153.52
761.263	1028.59
761.446	1151.47
761.63	973.3
761.813	1012.21
761.997	1071.6
762.18	995.82
762.364	969.2
762.547	948.72
762.731	940.53
762.914	973.3
763.098	1032.69
763.281	993.78
763.464	1006.06
763.648	975.35
763.831	860.66
764.015	1008.11
764.198	958.96
764.381	995.82
764.564	1028.59
764.748	985.58
764.931	942.58
765.114	942.58
765.297	954.87
765.481	817.65
765.664	883.19
765.847	977.39
766.03	907.76
766.213	893.43
766.397	852.47
766.58	811.51
766.763	868.85
766.946	829.94
767.129	924.15
767.312	823.8
767.495	928.24
767.678	909.81
767.861	815.6
768.044	899.57
768.227	860.66
768.41	922.1
768.593	907.76
768.776	936.43
768.959	807.41
769.142	844.28
769.324	766.45
769.507	829.94
769.69	797.17
769.873	750.07
770.056	827.89
770.239	793.08
770.421	799.22
770.604	801.27
770.787	762.36
770.97	799.22
771.152	836.08
771.335	788.98
771.518	786.93
771.7	766.45
771.883	758.26
772.066	731.64
772.248	780.79
772.431	725.49
772.613	700.92
772.796	729.59
772.978	725.49
773.161	733.68
773.343	715.25
773.526	709.11
773.708	748.02
773.891	686.58
774.073	711.16
774.256	692.73
774.438	678.39
774.621	754.16
774.803	748.02
774.985	692.73
775.168	711.16
775.35	621.05
775.532	668.15
775.715	662.01
775.897	645.62
776.079	680.44
776.261	788.98
776.444	578.04
776.626	655.86
776.808	676.34
776.99	580.09
777.173	543.22
777.355	553.46
777.537	668.15
777.719	610.81
777.901	573.94
778.083	524.79
778.265	571.9
778.447	592.37
778.629	629.24
778.811	578.04
778.993	594.42
779.175	473.59
779.357	522.74
779.539	563.7
779.721	522.74
779.903	580.09
780.085	532.98
780.267	526.84
780.449	637.43
780.631	559.61
780.812	580.09
780.994	467.45
781.176	455.16
781.358	532.98
781.54	481.78
781.721	471.54
781.903	567.8
782.085	506.36
782.267	471.54
782.448	508.41
782.63	481.78
782.812	522.74
782.993	518.65
783.175	446.97
783.357	483.83
783.538	475.64
783.72	512.5
783.901	453.11
784.083	379.39
784.264	434.68
784.446	469.5
784.627	389.63
784.809	449.02
784.99	395.77
785.172	428.54
785.353	465.4
785.535	455.16
785.716	432.63
785.897	371.19
786.079	467.45
786.26	406.01
786.441	309.76
786.623	346.62
786.804	401.91
786.985	371.19
787.167	379.39
787.348	363
787.529	397.82
787.71	385.53
787.891	356.86
788.073	344.57
788.254	352.76
788.435	342.52
788.616	406.01
788.797	381.43
788.978	346.62
789.159	451.07
789.34	340.47
789.522	291.32
789.703	391.67
789.884	336.38
790.065	311.8
790.246	430.59
790.427	328.19
790.607	371.19
790.788	281.08
790.969	358.91
791.15	322.04
791.331	326.14
791.512	270.84
791.693	313.85
791.874	258.56
792.054	391.67
792.235	299.52
792.416	346.62
792.597	289.28
792.778	293.37
792.958	315.9
793.139	258.56
793.32	272.89
793.5	207.36
793.681	272.89
793.862	356.86
794.042	246.27
794.223	274.94
794.404	320
794.584	297.47
794.765	223.74
794.945	330.23
795.126	240.12
795.306	274.94
795.487	317.95
795.667	250.36
795.848	285.18
796.028	295.42
796.209	332.28
796.389	303.61
796.57	260.6
796.75	221.69
796.93	248.32
797.111	229.88
797.291	303.61
797.471	285.18
797.652	276.99
797.832	262.65
798.012	184.83
798.192	168.45
798.373	203.26
798.553	229.88
798.733	205.31
798.913	281.08
799.093	238.08
799.274	266.75
799.454	217.6
799.634	244.22
799.814	205.31
799.994	190.97
800.174	309.76
800.354	229.88
800.534	190.97
800.714	291.32
800.894	135.68
801.074	240.12
801.254	276.99
801.434	242.17
801.614	186.88
801.794	174.59
801.974	653.81
802.154	211.45
802.334	207.36
802.514	205.31
802.693	205.31
802.873	96.77
803.053	215.55
803.233	145.92
803.413	190.97
803.592	158.21
803.772	266.75
803.952	211.45
804.131	260.6
804.311	199.16
804.491	158.21
804.67	199.16
804.85	135.68
805.03	188.93
805.209	193.02
805.389	170.49
805.568	209.4
805.748	164.35
805.928	188.93
806.107	133.63
806.287	158.21
806.466	158.21
806.646	203.26
806.825	186.88
807.004	209.4
807.184	174.59
807.363	246.27
807.543	238.08
807.722	186.88
807.901	172.54
808.081	162.3
808.26	193.02
808.439	211.45
808.619	141.82
808.798	162.3
808.977	168.45
809.156	184.83
809.336	152.06
809.515	186.88
809.694	236.03
809.873	188.93
810.052	178.69
810.231	190.97
810.411	129.53
810.59	168.45
810.769	100.86
810.948	176.64
811.127	131.58
811.306	86.53
811.485	141.82
811.664	176.64
811.843	94.72
812.022	139.77
812.201	53.76
812.38	143.87
812.559	131.58
812.737	137.73
812.916	68.09
813.095	119.29
813.274	129.53
813.453	156.16
813.632	154.11
813.811	174.59
813.989	104.96
814.168	135.68
814.347	109.05
814.526	117.25
814.704	152.06
814.883	184.83
815.062	150.01
815.24	150.01
815.419	96.77
815.598	164.35
815.776	111.1
815.955	119.29
816.133	84.48
816.312	125.44
816.49	139.77
816.669	113.15
816.847	121.34
817.026	143.87
817.204	111.1
817.383	170.49
817.561	137.73
817.74	68.09
817.918	168.45
818.097	68.09
818.275	170.49
818.453	119.29
818.632	74.24
818.81	127.49
818.988	104.96
819.167	111.1
819.345	109.05
819.523	131.58
819.701	170.49
819.879	162.3
820.058	10.75
820.236	121.34
820.414	84.48
820.592	102.91
820.77	150.01
820.948	59.9
821.127	51.71
821.305	131.58
821.483	121.34
821.661	117.25
821.839	82.43
822.017	98.81
822.195	121.34
822.373	76.29
822.551	107.01
822.729	121.34
822.907	104.96
823.085	78.33
823.262	64
823.44	170.49
823.618	41.47
823.796	117.25
823.974	45.57
824.152	88.57
824.329	125.44
824.507	156.16
824.685	162.3
824.863	98.81
825.04	72.19
825.218	88.57
825.396	78.33
825.574	109.05
825.751	100.86
825.929	172.54
826.107	37.38
826.284	113.15
826.462	64
826.639	16.9
826.817	51.71
826.994	86.53
827.172	102.91
827.349	80.38
827.527	41.47
827.704	86.53
827.882	100.86
828.059	115.2
828.237	82.43
828.414	156.16
828.591	33.28
828.769	119.29
828.946	43.52
829.124	2.56
829.301	115.2
829.478	90.62
829.655	102.91
829.833	37.38
830.01	68.09
830.187	100.86
830.364	25.09
830.542	66.05
830.719	98.81
830.896	88.57
831.073	80.38
831.25	51.71
831.427	104.96
831.604	76.29
831.782	-11.78
831.959	184.83
832.136	4.61
832.313	123.39
832.49	82.43
832.667	59.9
832.844	45.57
833.021	49.66
833.198	68.09
833.374	119.29
833.551	111.1
833.728	64
833.905	96.77
834.082	68.09
834.259	84.48
834.436	113.15
834.612	68.09
834.789	154.11
834.966	72.19
835.143	66.05
835.319	68.09
835.496	25.09
835.673	35.33
835.85	113.15
836.026	90.62
836.203	113.15
836.38	-24.06
836.556	59.9
836.733	-3.58
836.909	111.1
837.086	-5.63
837.262	57.86
837.439	72.19
837.616	57.86
837.792	70.14
837.968	84.48
838.145	74.24
838.321	57.86
838.498	49.66
838.674	141.82
838.851	104.96
839.027	86.53
839.203	64
839.38	74.24
839.556	49.66
839.732	102.91
839.909	51.71
840.085	70.14
840.261	-30.21
840.437	6.66
840.614	29.18
840.79	96.77
840.966	49.66
841.142	82.43
841.318	16.9
841.494	127.49
841.671	29.18
841.847	6.66
842.023	18.94
842.199	2.56
842.375	102.91
842.551	45.57
842.727	41.47
842.903	70.14
843.079	-48.64
843.255	84.48
843.431	-3.58
843.607	100.86
843.783	-36.35
843.959	135.68
844.134	6.66
844.31	57.86
844.486	78.33
844.662	16.9
844.838	72.19
845.013	80.38
845.189	35.33
845.365	74.24
845.541	4.61
845.716	80.38
845.892	84.48
846.068	29.18
846.244	-15.87
846.419	12.8
846.595	66.05
846.77	-15.87
846.946	107.01
847.122	74.24
847.297	14.85
847.473	-34.3
847.648	14.85
847.824	0.51
847.999	-28.16
848.175	45.57
848.35	16.9
848.526	96.77
848.701	29.18
848.876	55.81
849.052	12.8
849.227	20.99
849.403	41.47
849.578	68.09
849.753	6.66
849.929	53.76
850.104	10.75
850.279	123.39
850.454	6.66
850.63	78.33
850.805	35.33
850.98	0.51
851.155	29.18
851.33	4.61
851.505	-79.36
851.681	-17.92
851.856	25.09
852.031	8.7
852.206	29.18
852.381	51.71
852.556	2.56
852.731	74.24
852.906	-24.06
853.081	82.43
853.256	23.04
853.431	37.38
853.606	51.71
853.781	-5.63
853.956	8.7
854.131	55.81
854.305	-5.63
854.48	27.14
854.655	55.81
854.83	35.33
855.005	37.38
855.18	18.94
855.354	68.09
855.529	12.8
855.704	59.9
855.879	-7.68
856.053	20.99
856.228	49.66
856.403	35.33
856.577	43.52
856.752	33.28
856.926	-15.87
857.101	111.1
857.276	-17.92
857.45	18.94
857.625	113.15
857.799	8.7
857.974	76.29
858.148	-17.92
858.323	39.42
858.497	31.23
858.672	43.52
858.846	2.56
859.02	-44.54
859.195	18.94
859.369	-19.97
859.543	0.51
859.718	78.33
859.892	51.71
860.066	53.76
860.241	4.61
860.415	-1.54
860.589	6.66
860.763	72.19
860.938	39.42
861.112	49.66
861.286	23.04
861.46	-46.59
861.634	20.99
861.808	0.51
861.982	47.62
862.157	2.56
862.331	51.71
862.505	-1.54
862.679	59.9
862.853	-5.63
863.027	-3.58
863.201	47.62
863.375	10.75
863.549	102.91
863.722	35.33
863.896	64
864.07	-1.54
864.244	4.61
864.418	23.04
864.592	31.23
864.766	16.9
864.939	27.14
865.113	14.85
865.287	18.94
865.461	41.47
865.634	78.33
865.808	-52.74
865.982	31.23
866.156	82.43
866.329	-50.69
866.503	37.38
866.676	27.14
866.85	-30.21
867.024	-58.88
867.197	8.7
867.371	70.14
867.544	-46.59
867.718	-15.87
867.891	31.23
868.065	-17.92
868.238	-9.73
868.412	49.66
868.585	-44.54
868.759	-24.06
868.932	-3.58
869.105	27.14
869.279	33.28
869.452	41.47
869.625	55.81
869.799	-1.54
869.972	35.33
870.145	-3.58
870.319	61.95
870.492	-38.4
870.665	31.23
870.838	-69.12
871.011	27.14
871.185	27.14
871.358	-15.87
871.531	41.47
871.704	20.99
871.877	43.52
872.05	-54.78
872.223	-24.06
872.396	64
872.569	-42.5
872.742	-42.5
872.915	16.9
873.088	-7.68
873.261	-7.68
873.434	74.24
873.607	0.51
873.78	43.52
873.953	-44.54
874.126	35.33
874.299	88.57
874.471	86.53
874.644	-42.5
874.817	4.61
874.99	51.71
875.163	74.24
875.335	53.76
875.508	-5.63
875.681	0.51
875.853	-3.58
876.026	57.86
876.199	68.09
876.371	-9.73
876.544	76.29
876.717	29.18
876.889	-9.73
877.062	18.94
877.234	12.8
877.407	18.94
877.579	0.51
877.752	29.18
877.924	64
878.097	-42.5
878.269	20.99
878.442	-1.54
878.614	78.33
878.786	90.62
878.959	35.33
879.131	27.14
879.303	-1.54
879.476	70.14
879.648	-60.93
879.82	-36.35
879.993	20.99
880.165	16.9
880.337	49.66
880.509	-34.3
880.681	-28.16
880.854	4.61
881.026	-7.68
881.198	8.7
881.37	-34.3
881.542	37.38
881.714	16.9
881.886	37.38
882.058	2.56
882.23	59.9
882.402	-40.45
882.574	-9.73
882.746	8.7
882.918	18.94
883.09	27.14
883.262	23.04
883.434	-1.54
883.606	-34.3
883.778	39.42
883.95	45.57
884.122	37.38
884.293	72.19
884.465	-50.69
884.637	-17.92
884.809	-22.02
884.98	27.14
885.152	12.8
885.324	23.04
885.496	-17.92
885.667	47.62
885.839	31.23
886.011	90.62
886.182	41.47
886.354	35.33
886.525	-42.5
886.697	86.53
886.869	-3.58
887.04	10.75
887.212	43.52
887.383	10.75
887.555	-40.45
887.726	47.62
887.897	49.66
888.069	104.96
888.24	-3.58
888.412	-13.82
888.583	10.75
888.754	0.51
888.926	-48.64
889.097	-5.63
889.268	66.05
889.44	27.14
889.611	-67.07
889.782	-1.54
889.953	-73.21
890.125	94.72
890.296	6.66
890.467	16.9
890.638	-42.5
890.809	-22.02
890.98	41.47
891.151	43.52
891.323	31.23
891.494	-19.97
891.665	-15.87
891.836	51.71
892.007	-13.82
892.178	98.81
892.349	18.94
892.52	-7.68
892.691	12.8
892.862	31.23
893.032	33.28
893.203	-5.63
893.374	-26.11
893.545	18.94
893.716	-19.97
893.887	25.09
894.057	72.19
894.228	-3.58
894.399	8.7
894.57	20.99
894.74	47.62
894.911	-3.58
895.082	-40.45
895.253	57.86
895.423	43.52
895.594	59.9
895.764	6.66
895.935	-11.78
896.106	61.95
896.276	6.66
896.447	-46.59
896.617	-3.58
896.788	-48.64
896.958	4.61
897.129	18.94
897.299	20.99
897.47	80.38
897.64	-24.06
897.81	-19.97
897.981	-19.97
898.151	0.51
898.322	10.75
898.492	31.23
898.662	-15.87
898.832	35.33
899.003	2.56
899.173	-44.54
899.343	-46.59
899.513	2.56
