Data from USB4F104151__2__11-51-01-832.txt Node

Date: Fri Mar 14 11:51:01 EDT 2025
User: louis
Spectrometer: USB4F10415
Trigger mode: 4
Integration Time (sec): 2.000000E-2
Scans to average: 1
Electric dark correction enabled: true
Nonlinearity correction enabled: false
Boxcar width: 0
XAxis mode: Wavelengths
Number of Pixels in Spectrum: 3648
>>>>>Begin Spectral Data<<<<<
178.204	-115.88
178.424	-115.88
178.644	-115.88
178.864	-97.45
179.084	-70.83
179.304	33.62
179.524	-70.83
179.744	35.67
179.964	101.2
180.184	37.72
180.404	-74.92
180.624	-36.01
180.844	33.62
181.064	-13.48
181.283	-15.53
181.503	-58.54
181.723	27.48
181.943	19.29
182.163	-7.34
182.383	-21.67
182.602	43.86
182.822	7
183.042	-15.53
183.262	9.05
183.482	-23.72
183.701	-27.82
183.921	-29.87
184.141	-7.34
184.361	-13.48
184.58	13.14
184.8	-1.19
185.02	107.35
185.239	60.24
185.459	-23.72
185.679	-13.48
185.898	-1.19
186.118	78.68
186.338	9.05
186.557	-38.06
186.777	-42.15
186.997	15.19
187.216	4.95
187.436	41.81
187.655	-1.19
187.875	39.76
188.095	88.92
188.314	90.96
188.534	95.06
188.753	7
188.973	-9.39
189.192	64.34
189.412	17.24
189.631	78.68
189.851	-42.15
190.07	11.09
190.29	35.67
190.509	62.29
190.729	23.38
190.948	41.81
191.168	52.05
191.387	45.91
191.607	-7.34
191.826	23.38
192.045	9.05
192.265	-17.58
192.484	-36.01
192.704	86.87
192.923	-15.53
193.142	31.57
193.362	13.14
193.581	66.39
193.8	50
194.02	90.96
194.239	37.72
194.458	64.34
194.678	84.82
194.897	45.91
195.116	93.01
195.335	50
195.555	19.29
195.774	19.29
195.993	64.34
196.212	-9.39
196.432	11.09
196.651	7
196.87	60.24
197.089	88.92
197.308	52.05
197.528	47.96
197.747	37.72
197.966	4.95
198.185	45.91
198.404	-9.39
198.623	7
198.842	-23.72
199.062	45.91
199.281	107.35
199.5	-25.77
199.719	25.43
199.938	47.96
200.157	111.44
200.376	45.91
200.595	-36.01
200.814	50
201.033	2.9
201.252	39.76
201.471	4.95
201.69	43.86
201.909	-15.53
202.128	-46.25
202.347	62.29
202.566	-9.39
202.785	-13.48
203.004	19.29
203.223	45.91
203.442	43.86
203.661	-3.24
203.879	-62.63
204.098	13.14
204.317	25.43
204.536	23.38
204.755	-3.24
204.974	-3.24
205.193	9.05
205.411	60.24
205.63	33.62
205.849	72.53
206.068	27.48
206.287	7
206.505	56.15
206.724	7
206.943	9.05
207.162	-70.83
207.381	54.1
207.599	72.53
207.818	99.16
208.037	-11.43
208.255	43.86
208.474	35.67
208.693	-40.11
208.911	-40.11
209.13	35.67
209.349	-9.39
209.567	54.1
209.786	93.01
210.005	115.54
210.223	35.67
210.442	-66.73
210.661	25.43
210.879	90.96
211.098	60.24
211.316	4.95
211.535	31.57
211.753	31.57
211.972	-44.2
212.191	35.67
212.409	7
212.628	125.78
212.846	-9.39
213.065	33.62
213.283	70.48
213.502	9.05
213.72	37.72
213.938	9.05
214.157	47.96
214.375	70.48
214.594	7
214.812	-5.29
215.031	-19.63
215.249	41.81
215.467	29.52
215.686	33.62
215.904	31.57
216.122	29.52
216.341	90.96
216.559	15.19
216.778	35.67
216.996	-11.43
217.214	58.2
217.432	35.67
217.651	43.86
217.869	-5.29
218.087	27.48
218.306	-3.24
218.524	41.81
218.742	4.95
218.96	23.38
219.179	-25.77
219.397	-42.15
219.615	86.87
219.833	-11.43
220.051	21.33
220.27	82.77
220.488	33.62
220.706	74.58
220.924	-11.43
221.142	-21.67
221.36	62.29
221.578	-11.43
221.796	64.34
222.015	70.48
222.233	60.24
222.451	13.14
222.669	39.76
222.887	64.34
223.105	29.52
223.323	33.62
223.541	-17.58
223.759	33.62
223.977	25.43
224.195	78.68
224.413	37.72
224.631	-36.01
224.849	15.19
225.067	86.87
225.285	54.1
225.503	7
225.721	27.48
225.939	45.91
226.157	23.38
226.375	58.2
226.592	-54.44
226.81	19.29
227.028	-1.19
227.246	78.68
227.464	25.43
227.682	0.85
227.9	54.1
228.117	64.34
228.335	50
228.553	15.19
228.771	0.85
228.989	37.72
229.206	0.85
229.424	-40.11
229.642	47.96
229.86	23.38
230.077	-11.43
230.295	-9.39
230.513	2.9
230.731	125.78
230.948	-13.48
231.166	31.57
231.384	-62.63
231.601	4.95
231.819	80.72
232.037	60.24
232.254	-7.34
232.472	39.76
232.689	13.14
232.907	66.39
233.125	31.57
233.342	47.96
233.56	43.86
233.777	50
233.995	78.68
234.213	-19.63
234.43	101.2
234.648	29.52
234.865	-23.72
235.083	37.72
235.3	-13.48
235.518	52.05
235.735	-13.48
235.953	31.57
236.17	9.05
236.388	72.53
236.605	25.43
236.822	39.76
237.04	103.25
237.257	68.44
237.475	-52.39
237.692	35.67
237.909	-29.87
238.127	64.34
238.344	68.44
238.562	136.02
238.779	56.15
238.996	21.33
239.214	21.33
239.431	33.62
239.648	70.48
239.865	43.86
240.083	7
240.3	31.57
240.517	4.95
240.735	15.19
240.952	21.33
241.169	33.62
241.386	-9.39
241.603	29.52
241.821	15.19
242.038	50
242.255	64.34
242.472	-9.39
242.689	86.87
242.907	-11.43
243.124	43.86
243.341	31.57
243.558	60.24
243.775	72.53
243.992	-1.19
244.209	-5.29
244.426	47.96
244.643	47.96
244.86	25.43
245.078	68.44
245.295	11.09
245.512	80.72
245.729	66.39
245.946	33.62
246.163	72.53
246.38	37.72
246.597	41.81
246.814	54.1
247.031	-52.39
247.248	35.67
247.464	-54.44
247.681	9.05
247.898	-9.39
248.115	80.72
248.332	13.14
248.549	52.05
248.766	76.63
248.983	66.39
249.2	-11.43
249.417	-11.43
249.633	-29.87
249.85	50
250.067	-33.96
250.284	-1.19
250.501	-5.29
250.717	56.15
250.934	-19.63
251.151	43.86
251.368	-31.91
251.585	56.15
251.801	4.95
252.018	7
252.235	29.52
252.451	29.52
252.668	-58.54
252.885	7
253.102	-1.19
253.318	-11.43
253.535	-64.68
253.752	31.57
253.968	56.15
254.185	97.11
254.401	27.48
254.618	17.24
254.835	-9.39
255.051	58.2
255.268	-1.19
255.484	27.48
255.701	9.05
255.917	35.67
256.134	29.52
256.351	88.92
256.567	-3.24
256.784	4.95
257	-19.63
257.217	58.2
257.433	-5.29
257.65	117.59
257.866	35.67
258.082	7
258.299	62.29
258.515	41.81
258.732	66.39
258.948	-3.24
259.165	50
259.381	82.77
259.597	45.91
259.814	-38.06
260.03	25.43
260.246	43.86
260.463	50
260.679	2.9
260.895	-15.53
261.112	52.05
261.328	4.95
261.544	52.05
261.761	33.62
261.977	-25.77
262.193	35.67
262.409	-60.59
262.626	50
262.842	152.4
263.058	50
263.274	-40.11
263.49	-9.39
263.707	80.72
263.923	-15.53
264.139	-9.39
264.355	7
264.571	58.2
264.787	21.33
265.004	88.92
265.22	7
265.436	43.86
265.652	39.76
265.868	17.24
266.084	-29.87
266.3	7
266.516	11.09
266.732	84.82
266.948	21.33
267.164	33.62
267.38	17.24
267.596	97.11
267.812	60.24
268.028	19.29
268.244	-52.39
268.46	11.09
268.676	54.1
268.892	62.29
269.108	17.24
269.324	7
269.54	27.48
269.756	127.83
269.972	17.24
270.188	45.91
270.403	-27.82
270.619	39.76
270.835	60.24
271.051	50
271.267	-19.63
271.483	78.68
271.698	43.86
271.914	0.85
272.13	11.09
272.346	19.29
272.562	-15.53
272.777	84.82
272.993	25.43
273.209	56.15
273.425	101.2
273.64	39.76
273.856	29.52
274.072	95.06
274.287	115.54
274.503	47.96
274.719	29.52
274.934	4.95
275.15	-21.67
275.366	-1.19
275.581	7
275.797	90.96
276.012	58.2
276.228	86.87
276.444	4.95
276.659	80.72
276.875	4.95
277.09	88.92
277.306	52.05
277.521	76.63
277.737	54.1
277.952	-38.06
278.168	29.52
278.383	35.67
278.599	39.76
278.814	-13.48
279.03	11.09
279.245	15.19
279.461	21.33
279.676	33.62
279.892	35.67
280.107	76.63
280.322	37.72
280.538	23.38
280.753	-29.87
280.969	113.49
281.184	-13.48
281.399	27.48
281.615	47.96
281.83	95.06
282.045	93.01
282.26	23.38
282.476	19.29
282.691	58.2
282.906	31.57
283.122	52.05
283.337	2.9
283.552	-17.58
283.767	23.38
283.983	47.96
284.198	78.68
284.413	2.9
284.628	72.53
284.843	27.48
285.058	23.38
285.274	-25.77
285.489	11.09
285.704	19.29
285.919	7
286.134	-33.96
286.349	66.39
286.564	74.58
286.779	52.05
286.995	31.57
287.21	27.48
287.425	107.35
287.64	-29.87
287.855	21.33
288.07	15.19
288.285	105.3
288.5	-33.96
288.715	11.09
288.93	-38.06
289.145	66.39
289.36	-3.24
289.575	7
289.79	31.57
290.004	62.29
290.219	148.31
290.434	25.43
290.649	17.24
290.864	-15.53
291.079	-9.39
291.294	-56.49
291.509	-46.25
291.724	54.1
291.938	19.29
292.153	74.58
292.368	-13.48
292.583	17.24
292.798	-3.24
293.012	80.72
293.227	45.91
293.442	27.48
293.657	27.48
293.871	23.38
294.086	11.09
294.301	101.2
294.516	25.43
294.73	13.14
294.945	-5.29
295.16	45.91
295.374	-56.49
295.589	56.15
295.804	27.48
296.018	27.48
296.233	15.19
296.447	23.38
296.662	-38.06
296.877	93.01
297.091	52.05
297.306	-25.77
297.52	52.05
297.735	56.15
297.949	4.95
298.164	-68.78
298.378	54.1
298.593	23.38
298.807	72.53
299.022	113.49
299.236	60.24
299.451	107.35
299.665	0.85
299.88	60.24
300.094	86.87
300.309	70.48
300.523	88.92
300.737	93.01
300.952	54.1
301.166	60.24
301.381	-1.19
301.595	25.43
301.809	-1.19
302.024	33.62
302.238	19.29
302.452	47.96
302.667	45.91
302.881	62.29
303.095	-38.06
303.309	23.38
303.524	66.39
303.738	-64.68
303.952	-25.77
304.166	19.29
304.381	0.85
304.595	-5.29
304.809	43.86
305.023	140.12
305.237	-7.34
305.452	25.43
305.666	7
305.88	97.11
306.094	37.72
306.308	39.76
306.522	35.67
306.736	56.15
306.95	33.62
307.164	82.77
307.379	4.95
307.593	84.82
307.807	97.11
308.021	-1.19
308.235	19.29
308.449	-27.82
308.663	7
308.877	90.96
309.091	-25.77
309.305	7
309.519	7
309.733	64.34
309.947	41.81
310.161	-27.82
310.374	-11.43
310.588	45.91
310.802	45.91
311.016	70.48
311.23	25.43
311.444	-58.54
311.658	27.48
311.872	68.44
312.085	-29.87
312.299	66.39
312.513	64.34
312.727	93.01
312.941	-17.58
313.154	29.52
313.368	19.29
313.582	31.57
313.796	50
314.009	52.05
314.223	50
314.437	9.05
314.651	19.29
314.864	64.34
315.078	52.05
315.292	-11.43
315.505	11.09
315.719	84.82
315.933	41.81
316.146	84.82
316.36	-21.67
316.573	99.16
316.787	39.76
317.001	47.96
317.214	23.38
317.428	-9.39
317.641	-17.58
317.855	7
318.068	15.19
318.282	56.15
318.495	25.43
318.709	41.81
318.922	-38.06
319.136	107.35
319.349	-7.34
319.563	19.29
319.776	7
319.99	23.38
320.203	50
320.417	45.91
320.63	68.44
320.843	35.67
321.057	37.72
321.27	93.01
321.483	43.86
321.697	50
321.91	27.48
322.124	4.95
322.337	54.1
322.55	35.67
322.763	-3.24
322.977	54.1
323.19	-1.19
323.403	80.72
323.617	13.14
323.83	50
324.043	-31.91
324.256	82.77
324.469	80.72
324.683	52.05
324.896	62.29
325.109	-13.48
325.322	-11.43
325.535	39.76
325.748	21.33
325.962	-13.48
326.175	25.43
326.388	68.44
326.601	-13.48
326.814	0.85
327.027	35.67
327.24	39.76
327.453	62.29
327.666	43.86
327.879	88.92
328.092	95.06
328.305	7
328.518	66.39
328.731	-17.58
328.944	2.9
329.157	47.96
329.37	72.53
329.583	45.91
329.796	11.09
330.009	-21.67
330.222	56.15
330.435	23.38
330.648	-13.48
330.861	50
331.073	37.72
331.286	101.2
331.499	-17.58
331.712	21.33
331.925	88.92
332.138	11.09
332.35	11.09
332.563	70.48
332.776	37.72
332.989	58.2
333.202	-13.48
333.414	19.29
333.627	60.24
333.84	45.91
334.053	25.43
334.265	23.38
334.478	13.14
334.691	13.14
334.903	86.87
335.116	45.91
335.329	7
335.541	117.59
335.754	82.77
335.966	17.24
336.179	-1.19
336.392	93.01
336.604	41.81
336.817	13.14
337.029	103.25
337.242	84.82
337.454	105.3
337.667	97.11
337.88	84.82
338.092	90.96
338.305	41.81
338.517	-25.77
338.729	37.72
338.942	70.48
339.154	9.05
339.367	-54.44
339.579	7
339.792	-66.73
340.004	103.25
340.217	90.96
340.429	27.48
340.641	60.24
340.854	93.01
341.066	50
341.278	27.48
341.491	56.15
341.703	31.57
341.915	23.38
342.128	88.92
342.34	11.09
342.552	21.33
342.764	11.09
342.977	60.24
343.189	7
343.401	37.72
343.613	31.57
343.826	15.19
344.038	2.9
344.25	-5.29
344.462	60.24
344.674	23.38
344.886	13.14
345.099	82.77
345.311	35.67
345.523	9.05
345.735	-3.24
345.947	2.9
346.159	4.95
346.371	-3.24
346.583	9.05
346.795	97.11
347.007	15.19
347.219	103.25
347.431	29.52
347.643	37.72
347.855	15.19
348.067	-15.53
348.279	0.85
348.491	27.48
348.703	-15.53
348.915	15.19
349.127	23.38
349.339	68.44
349.551	50
349.763	70.48
349.975	-25.77
350.187	74.58
350.399	78.68
350.61	74.58
350.822	-23.72
351.034	72.53
351.246	19.29
351.458	97.11
351.669	19.29
351.881	56.15
352.093	-36.01
352.305	78.68
352.517	19.29
352.728	17.24
352.94	21.33
353.152	-38.06
353.363	109.4
353.575	-1.19
353.787	64.34
353.999	11.09
354.21	80.72
354.422	-15.53
354.633	41.81
354.845	23.38
355.057	52.05
355.268	21.33
355.48	29.52
355.692	-25.77
355.903	50
356.115	-23.72
356.326	-44.2
356.538	90.96
356.749	103.25
356.961	62.29
357.172	84.82
357.384	13.14
357.595	84.82
357.807	66.39
358.018	62.29
358.23	-1.19
358.441	68.44
358.653	66.39
358.864	74.58
359.075	39.76
359.287	-19.63
359.498	37.72
359.709	64.34
359.921	41.81
360.132	13.14
360.344	66.39
360.555	43.86
360.766	95.06
360.977	-23.72
361.189	113.49
361.4	17.24
361.611	-13.48
361.823	27.48
362.034	2.9
362.245	-48.3
362.456	72.53
362.667	27.48
362.879	60.24
363.09	31.57
363.301	90.96
363.512	64.34
363.723	60.24
363.935	0.85
364.146	95.06
364.357	25.43
364.568	27.48
364.779	-21.67
364.99	15.19
365.201	23.38
365.412	9.05
365.623	0.85
365.834	107.35
366.045	-11.43
366.256	7
366.467	13.14
366.678	-33.96
366.889	66.39
367.1	31.57
367.311	-23.72
367.522	45.91
367.733	76.63
367.944	2.9
368.155	43.86
368.366	105.3
368.577	80.72
368.788	33.62
368.999	7
369.209	50
369.42	60.24
369.631	27.48
369.842	13.14
370.053	-1.19
370.264	68.44
370.474	-27.82
370.685	70.48
370.896	15.19
371.107	37.72
371.317	64.34
371.528	11.09
371.739	11.09
371.95	68.44
372.16	-3.24
372.371	-27.82
372.582	72.53
372.792	37.72
373.003	43.86
373.214	50
373.424	54.1
373.635	43.86
373.846	133.97
374.056	-5.29
374.267	142.16
374.477	82.77
374.688	39.76
374.898	41.81
375.109	58.2
375.319	33.62
375.53	56.15
375.74	45.91
375.951	58.2
376.161	25.43
376.372	109.4
376.582	50
376.793	103.25
377.003	-5.29
377.214	-19.63
377.424	4.95
377.635	0.85
377.845	52.05
378.055	90.96
378.266	47.96
378.476	50
378.686	113.49
378.897	105.3
379.107	52.05
379.317	-15.53
379.528	123.73
379.738	99.16
379.948	-29.87
380.158	50
380.369	39.76
380.579	56.15
380.789	43.86
380.999	21.33
381.21	101.2
381.42	133.97
381.63	76.63
381.84	97.11
382.05	64.34
382.261	31.57
382.471	93.01
382.681	17.24
382.891	154.45
383.101	93.01
383.311	45.91
383.521	2.9
383.731	11.09
383.941	121.68
384.151	72.53
384.361	43.86
384.571	-25.77
384.781	76.63
384.991	56.15
385.201	105.3
385.411	33.62
385.621	90.96
385.831	74.58
386.041	50
386.251	-3.24
386.461	101.2
386.671	11.09
386.881	39.76
387.091	54.1
387.301	95.06
387.511	50
387.72	45.91
387.93	90.96
388.14	88.92
388.35	-1.19
388.56	27.48
388.769	99.16
388.979	39.76
389.189	56.15
389.399	47.96
389.609	107.35
389.818	103.25
390.028	58.2
390.238	80.72
390.447	-21.67
390.657	127.83
390.867	27.48
391.076	50
391.286	93.01
391.496	7
391.705	82.77
391.915	41.81
392.125	54.1
392.334	74.58
392.544	107.35
392.753	31.57
392.963	-42.15
393.172	88.92
393.382	107.35
393.591	125.78
393.801	27.48
394.01	45.91
394.22	99.16
394.429	62.29
394.639	-5.29
394.848	101.2
395.058	103.25
395.267	56.15
395.477	90.96
395.686	150.36
395.895	117.59
396.105	68.44
396.314	68.44
396.524	99.16
396.733	70.48
396.942	60.24
397.152	164.69
397.361	133.97
397.57	72.53
397.78	107.35
397.989	117.59
398.198	119.64
398.407	70.48
398.617	68.44
398.826	43.86
399.035	93.01
399.244	64.34
399.453	56.15
399.663	76.63
399.872	101.2
400.081	68.44
400.29	117.59
400.499	93.01
400.708	60.24
400.917	150.36
401.127	107.35
401.336	121.68
401.545	181.07
401.754	99.16
401.963	88.92
402.172	105.3
402.381	101.2
402.59	78.68
402.799	115.54
403.008	140.12
403.217	166.74
403.426	82.77
403.635	109.4
403.844	123.73
404.053	179.03
404.262	105.3
404.471	121.68
404.68	58.2
404.888	60.24
405.097	111.44
405.306	138.07
405.515	150.36
405.724	119.64
405.933	176.98
406.142	197.46
406.35	183.12
406.559	152.4
406.768	217.94
406.977	226.13
407.185	90.96
407.394	179.03
407.603	133.97
407.812	142.16
408.02	324.43
408.229	275.28
408.438	156.5
408.646	148.31
408.855	185.17
409.064	172.88
409.272	166.74
409.481	295.76
409.69	170.83
409.898	256.85
410.107	295.76
410.315	234.32
410.524	252.75
410.733	260.95
410.941	219.99
411.15	377.68
411.358	228.18
411.567	394.06
411.775	351.06
411.984	389.97
412.192	373.58
412.401	377.68
412.609	404.3
412.818	475.98
413.026	453.45
413.234	500.56
413.443	412.5
413.651	492.37
413.86	510.8
414.068	541.52
414.276	555.85
414.485	482.13
414.693	543.57
414.901	596.81
415.11	613.2
415.318	650.06
415.526	660.3
415.734	695.11
415.943	627.53
416.151	719.69
416.359	666.44
416.567	658.25
416.776	756.55
416.984	740.17
417.192	848.71
417.4	832.33
417.608	881.48
417.817	871.24
418.025	869.19
418.233	1059.65
418.441	912.2
418.649	979.78
418.857	1094.47
419.065	1088.32
419.273	1020.74
419.481	1076.04
419.689	1180.48
419.897	1344.32
420.105	1301.31
420.313	1315.65
420.521	1289.03
420.729	1270.59
420.937	1407.81
421.145	1520.45
421.353	1528.64
421.561	1577.79
421.769	1786.68
421.977	1741.63
422.185	1651.52
422.393	1712.96
422.601	1981.24
422.809	1927.99
423.017	1848.12
423.224	1958.71
423.432	2190.13
423.64	2071.35
423.848	2239.28
424.056	2247.48
424.263	2376.5
424.471	2304.82
424.679	2372.4
424.887	2573.1
425.094	2726.7
425.302	2671.4
425.51	2820.91
425.718	2876.2
425.925	2911.02
426.133	2951.98
426.341	3044.13
426.548	3306.27
426.756	3246.88
426.964	3373.86
427.171	3408.67
427.379	3586.85
427.586	3545.89
427.794	3650.33
428.001	3894.04
428.209	4043.54
428.417	4088.6
428.624	4369.17
428.832	4426.51
429.039	4201.24
429.247	4315.92
429.454	4717.33
429.662	5131.02
429.869	4776.72
430.076	5016.33
430.284	4936.46
430.491	5151.49
430.699	5362.44
430.906	5436.16
431.114	5593.86
431.321	5825.28
431.528	5878.52
431.736	6271.73
431.943	6337.27
432.15	6402.8
432.358	6388.47
432.565	6558.45
432.772	6757.1
432.979	6916.84
433.187	7195.37
433.394	7176.94
433.601	7719.65
433.808	7576.29
434.016	7641.82
434.223	7801.57
434.43	8237.78
434.637	8370.9
434.844	8719.06
435.052	8989.39
435.259	8841.93
435.466	9030.35
435.673	9052.88
435.88	9562.82
436.087	10025.66
436.294	9837.25
436.501	9751.23
436.708	9982.65
436.915	10472.12
437.122	10767.03
437.329	10787.5
437.537	11147.95
437.743	11330.22
437.95	11295.4
438.157	11877.02
438.364	12053.15
438.571	12038.81
438.778	12266.14
438.985	13240.97
439.192	12802.71
439.399	13249.16
439.606	12814.99
439.813	13683.33
440.02	14477.94
440.227	14187.13
440.433	14035.58
440.64	14545.53
440.847	14426.75
441.054	14944.88
441.261	15782.5
441.467	15434.35
441.674	15888.99
441.881	16382.56
442.088	16708.18
442.294	16501.34
442.501	16935.51
442.708	17259.09
442.914	17707.59
443.121	18659.9
443.328	17947.2
443.534	19227.18
443.741	18833.97
443.948	18569.79
444.154	19716.65
444.361	19829.29
444.568	19634.73
444.774	19870.25
444.981	19980.84
445.187	20537.88
445.394	21781
445.6	21383.7
445.807	23208.44
446.013	22413.82
446.22	22798.84
446.426	23822.83
446.633	23527.92
446.839	24449.5
447.046	23611.89
447.252	25010.65
447.459	24975.83
447.665	24936.92
447.871	26390.98
448.078	27060.66
448.284	25840.08
448.491	26300.87
448.697	27339.19
448.903	27869.61
449.11	28127.66
449.316	27777.45
449.522	27877.8
449.728	28791.2
449.935	28975.52
450.141	29004.19
450.347	29680.02
450.553	28463.52
450.76	29274.52
450.966	30314.89
451.172	29628.82
451.378	30554.5
451.584	29882.77
451.791	30433.67
451.997	30405
452.203	31254.9
452.409	30986.62
452.615	31084.92
452.821	29768.08
453.027	29503.89
453.233	31179.13
453.44	29700.5
453.646	30359.94
453.852	30503.3
454.058	30773.63
454.264	29919.63
454.47	30595.46
454.676	29643.15
454.882	30585.22
455.088	28121.51
455.294	28172.71
455.5	28895.64
455.705	29182.36
455.911	27759.02
456.117	27492.79
456.323	27169.21
456.529	25842.12
456.735	27009.47
456.941	26204.61
457.147	25770.44
457.352	25016.79
457.558	24533.47
457.764	25082.33
457.97	24191.46
458.176	24068.58
458.381	23515.63
458.587	22686.2
458.793	22411.78
458.999	21359.12
459.204	22774.27
459.41	22286.85
459.616	20871.7
459.821	20797.98
460.027	20793.88
460.233	20148.77
460.438	19386.93
460.644	19339.82
460.85	18420.28
461.055	18295.36
461.261	18666.04
461.466	16984.66
461.672	16443.99
461.878	17295.95
462.083	16468.57
462.289	16124.51
462.494	16142.94
462.7	15290.99
462.905	15034.99
463.111	15495.78
463.316	15379.05
463.522	14627.45
463.727	15215.21
463.932	14981.74
464.138	14981.74
464.343	15233.64
464.549	14410.36
464.754	15061.62
464.959	15002.22
465.165	15110.77
465.37	13998.72
465.575	13664.9
465.781	14353.02
465.986	14457.46
466.191	14121.6
466.397	13709.96
466.602	12835.47
466.807	13441.67
467.012	13456.01
467.218	13396.62
467.423	13040.27
467.628	13118.09
467.833	13920.9
468.038	13314.7
468.244	12989.07
468.449	13531.78
468.654	12921.49
468.859	12999.31
469.064	12886.67
469.269	12389.02
469.474	12679.83
469.679	12595.86
469.885	12438.17
470.09	12538.52
470.295	12401.3
470.5	12206.75
470.705	12286.62
470.91	12018.33
471.115	11999.9
471.32	12092.06
471.525	11903.65
471.73	11719.33
471.935	11596.45
472.139	11207.34
472.344	11262.63
472.549	11283.11
472.754	11139.76
472.959	11031.21
473.164	10568.37
473.369	10511.03
473.574	11039.4
473.778	10867.38
473.983	10709.68
474.188	10705.59
474.393	10263.22
474.598	10173.11
474.802	10105.53
475.007	10097.34
475.212	10169.02
475.417	9882.3
475.621	9695.94
475.826	9910.97
476.031	9720.51
476.235	9388.74
476.44	9583.3
476.645	9247.43
476.849	9339.59
477.054	9255.62
477.259	8979.15
477.463	9120.46
477.668	8659.67
477.872	8983.24
478.077	8821.45
478.282	8553.17
478.486	8475.35
478.691	8405.72
478.895	8471.25
479.1	8444.63
479.304	8661.71
479.509	8104.67
479.713	8211.16
479.918	7975.64
480.122	7979.74
480.326	8133.34
480.531	8268.5
480.735	8075.99
480.94	7967.45
481.144	8354.52
481.348	7863.01
481.553	8000.22
481.757	7820
481.961	7906.01
482.166	7961.31
482.37	8030.94
482.574	7781.09
482.778	7830.24
482.983	8002.27
483.187	7723.74
483.391	7799.52
483.595	7742.18
483.8	7707.36
484.004	7781.09
484.208	7891.68
484.412	7797.47
484.616	7867.1
484.821	7797.47
485.025	7787.23
485.229	7893.72
485.433	7809.76
485.637	7758.56
485.841	7688.93
486.045	7707.36
486.249	7809.76
486.453	7559.91
486.657	7799.52
486.861	7758.56
487.065	7457.51
487.269	7965.4
487.473	7729.89
487.677	7678.69
487.881	7842.53
488.085	7625.44
488.289	7854.81
488.493	7717.6
488.697	7779.04
488.901	7707.36
489.105	7690.98
489.309	7871.2
489.512	7938.78
489.716	7953.12
489.92	7815.9
490.124	7957.21
490.328	7899.87
490.531	7865.05
490.735	8219.35
490.939	7981.79
491.143	7949.02
491.346	8080.09
491.55	8198.87
491.754	8006.36
491.958	8073.95
492.161	8100.57
492.365	8342.23
492.569	8016.6
492.772	8112.86
492.976	8329.94
493.18	8205.02
493.383	8438.48
493.587	8422.1
493.79	8348.37
493.994	8561.36
494.197	8491.73
494.401	8530.64
494.605	8559.31
494.808	8770.26
495.012	8633.04
495.215	8934.09
495.419	8985.29
495.622	8923.85
495.825	9099.98
496.029	8968.91
496.232	9083.59
496.436	8960.72
496.639	9448.13
496.843	9216.71
497.046	9452.23
497.249	9581.25
497.453	9636.55
497.656	9771.71
497.859	9845.44
498.063	10007.23
498.266	9964.22
498.469	10066.62
498.673	10238.65
498.876	10257.08
499.079	10425.01
499.282	10373.82
499.485	10676.91
499.689	10734.26
499.892	10791.6
500.095	10810.03
500.298	11139.76
500.501	11092.65
500.705	11438.76
500.908	11449
501.111	11623.08
501.314	11737.76
501.517	11657.89
501.72	12018.33
501.923	11715.23
502.126	12239.51
502.329	12513.94
502.532	12341.91
502.735	12587.67
502.938	12706.45
503.141	12905.1
503.344	12954.26
503.547	12929.68
503.75	13202.06
503.953	13273.74
504.156	13654.66
504.359	13691.52
504.562	13568.65
504.765	13924.99
504.968	14023.3
505.17	14297.72
505.373	14203.52
505.576	14504.57
505.779	14467.7
505.982	14649.97
506.185	15145.58
506.387	14987.89
506.59	15239.79
506.793	15317.61
506.996	15393.39
507.198	15848.04
507.401	15557.22
507.604	16147.04
507.807	16196.19
508.009	16239.2
508.212	16484.95
508.415	16749.14
508.617	16880.21
508.82	16972.37
509.022	17031.76
509.225	17097.3
509.428	17498.7
509.63	17494.6
509.833	17869.38
510.035	18063.94
510.238	17771.08
510.44	18162.24
510.643	18518.59
510.845	18780.73
511.048	18672.18
511.25	18924.08
511.453	19046.96
511.655	19747.37
511.858	19266.1
512.06	19798.57
512.262	19900.97
512.465	19769.9
512.667	20382.24
512.87	20433.44
513.072	20380.19
513.274	21023.25
513.477	20922.9
513.679	21400.08
513.881	21555.72
514.084	21891.59
514.286	21570.06
514.488	21934.6
514.69	22237.7
514.893	22682.11
515.095	22481.41
515.297	22680.06
515.499	22964.73
515.701	22925.82
515.904	23454.19
516.106	23587.31
516.308	23613.93
516.51	24160.74
516.712	24074.73
516.914	24410.59
517.116	24379.87
517.318	24822.23
517.52	24648.16
517.722	24953.3
517.925	25412.05
518.127	25715.15
518.329	25928.14
518.531	25891.27
518.733	26208.71
518.935	26051.02
519.136	26495.43
519.338	26675.65
519.54	26569.15
519.742	26874.3
519.944	27310.52
520.146	27791.79
520.348	27707.82
520.55	27740.59
520.752	28301.73
520.954	28658.08
521.155	28533.15
521.357	28783.01
521.559	28895.64
521.761	29364.63
521.963	29233.56
522.164	29376.92
522.366	29768.08
522.568	29700.5
522.77	29864.33
522.971	30415.24
523.173	30513.54
523.375	30728.58
523.576	30751.1
523.778	30843.26
523.98	31101.31
524.181	31248.76
524.383	31285.62
524.584	31963.5
524.786	31551.86
524.988	31773.04
525.189	32053.61
525.391	32346.47
525.592	32610.66
525.794	32450.92
525.995	32391.53
526.197	32823.65
526.398	32532.84
526.6	33007.97
526.801	33098.08
527.003	32993.63
527.204	33487.19
527.406	33741.14
527.607	33704.28
527.808	34025.81
528.01	33534.29
528.211	33548.63
528.412	34464.07
528.614	34451.78
528.815	34120.01
529.016	34494.79
529.218	34281.8
529.419	34638.15
529.62	34789.7
529.822	34810.18
530.023	34722.12
530.224	34804.03
530.425	34965.82
530.626	34777.41
530.828	35139.9
531.029	35445.05
531.23	35223.87
531.431	34996.54
531.632	35385.66
531.833	35483.96
532.035	35399.99
532.236	35567.93
532.437	35731.76
532.638	35250.49
532.839	35787.06
533.04	35770.68
533.241	35395.9
533.442	36120.88
533.643	35471.67
533.844	35500.34
534.045	35686.71
534.246	35748.15
534.447	36186.41
534.648	35727.67
534.849	36012.34
535.05	35588.41
535.251	35832.11
535.451	35754.29
535.652	35885.36
535.853	35885.36
536.054	36127.02
536.255	36096.3
536.456	35303.74
536.657	36419.88
536.857	35688.76
537.058	35707.19
537.259	36235.56
537.46	36061.49
537.66	36176.17
537.861	36104.49
538.062	36194.61
538.263	36340.01
538.463	36036.91
538.664	36280.62
538.865	35918.13
539.065	36315.44
539.266	35817.78
539.466	36485.42
539.667	35664.18
539.868	36618.53
540.068	35787.06
540.269	36016.43
540.469	36157.74
540.67	35524.92
540.87	35873.07
541.071	35674.42
541.271	36063.54
541.472	36026.67
541.672	35803.44
541.873	35770.68
542.073	35457.34
542.274	35930.42
542.474	35772.72
542.675	35666.23
542.875	36000.05
543.075	35756.34
543.276	35608.89
543.476	36077.87
543.676	35397.95
543.877	36147.5
544.077	35932.47
544.277	35803.44
544.478	35750.2
544.678	35868.98
544.878	35778.87
545.078	35463.48
545.279	35443
545.479	35836.21
545.679	35825.97
545.879	36032.82
546.079	35719.48
546.28	35776.82
546.48	35279.16
546.68	36016.43
546.88	35866.93
547.08	35737.91
547.28	35533.11
547.48	35160.38
547.68	35754.29
547.88	35199.29
548.081	35551.54
548.281	35488.06
548.481	35696.95
548.681	35729.72
548.881	35412.28
549.081	35569.97
549.28	35287.35
549.48	35707.19
549.68	35543.35
549.88	36141.36
550.08	35389.75
550.28	35395.9
550.48	35443
550.68	35565.88
550.88	35438.9
551.08	35602.74
551.279	35631.41
551.479	35623.22
551.679	35612.98
551.879	35479.86
552.079	35483.96
552.278	35240.25
552.478	35467.58
552.678	35268.92
552.878	35420.47
553.077	35238.2
553.277	35094.85
553.477	35498.3
553.676	35359.03
553.876	35019.07
554.076	35019.07
554.275	34908.48
554.475	35201.34
554.674	35111.23
554.874	35178.81
555.074	34957.63
555.273	35133.76
555.473	35125.57
555.672	35066.17
555.872	35008.83
556.071	35004.74
556.271	35033.41
556.47	34855.23
556.67	34492.74
556.869	34935.1
557.068	34820.42
557.268	34666.82
557.467	34662.72
557.667	34980.16
557.866	34525.51
558.065	34488.65
558.265	34283.85
558.464	34341.19
558.663	34644.29
558.863	34259.27
559.062	34480.46
559.261	34208.08
559.461	34384.2
559.66	34201.93
559.859	34206.03
560.058	34066.77
560.258	34398.54
560.457	34062.67
560.656	34251.08
560.855	33927.5
561.054	34111.82
561.253	33679.7
561.453	33640.79
561.652	33814.87
561.851	33886.54
562.05	33718.61
562.249	33468.76
562.448	33800.53
562.647	33460.57
562.846	33329.5
563.045	33608.02
563.244	33063.26
563.443	33814.87
563.642	33216.86
563.841	33509.72
564.04	32864.61
564.239	33399.13
564.438	32600.42
564.637	33050.97
564.836	33243.48
565.035	32575.84
565.234	32989.53
565.432	32375.14
565.631	32907.62
565.83	32870.75
566.029	32678.24
566.228	32452.97
566.427	32024.94
566.625	32010.6
566.824	31807.86
567.023	32215.4
567.222	31519.09
567.42	32377.19
567.619	31955.31
567.818	31943.02
568.016	31830.38
568.215	31828.34
568.414	31824.24
568.612	31805.81
568.811	31891.82
569.01	31623.54
569.208	31422.84
569.407	31261.05
569.605	30984.57
569.804	31261.05
570.002	31111.55
570.201	30990.72
570.4	30704
570.598	30865.79
570.797	30503.3
570.995	30577.03
571.193	30261.64
571.392	31000.96
571.59	30271.88
571.789	30235.02
571.987	30302.6
572.186	30531.97
572.384	30071.18
572.582	30202.25
572.781	30292.36
572.979	29725.07
573.177	29720.98
573.376	29976.97
573.574	29526.42
573.772	29993.36
573.971	29741.46
574.169	29587.86
574.367	29182.36
574.565	29587.86
574.763	29344.15
574.962	29096.35
575.16	29127.06
575.358	29288.85
575.556	28823.97
575.754	29288.85
575.952	28834.21
576.151	28936.6
576.349	28238.25
576.547	28459.43
576.745	28633.5
576.943	28817.82
577.141	28299.69
577.339	28246.44
577.537	28301.73
577.735	28373.41
577.933	28254.63
578.131	28230.05
578.329	27969.96
578.527	27830.7
578.725	27914.67
578.923	27992.49
579.121	27728.3
579.319	27931.05
579.516	27711.92
579.714	27929
579.912	27433.39
580.11	27374
580.308	27251.13
580.506	27611.57
580.704	26968.51
580.901	27382.2
581.099	27431.35
581.297	26847.68
581.495	26952.12
581.692	27142.58
581.89	26683.84
582.088	26888.64
582.285	26587.58
582.483	26800.57
582.681	26632.64
582.878	26571.2
583.076	26239.43
583.274	26368.45
583.471	26016.2
583.669	26276.29
583.866	26075.59
584.064	26005.96
584.262	25950.67
584.459	26096.07
584.657	25743.82
584.854	26227.14
585.052	25143.77
585.249	25840.08
585.447	25594.32
585.644	25348.56
585.841	25534.93
586.039	25459.15
586.236	25082.33
586.434	25219.54
586.631	24895.96
586.828	25215.44
587.026	25039.32
587.223	25031.13
587.42	24830.43
587.618	24979.93
587.815	24809.95
588.012	24453.6
588.21	24584.67
588.407	24527.33
588.604	24510.94
588.801	24492.51
588.999	24578.53
589.196	24236.52
589.393	24254.95
589.59	24287.71
589.787	24039.91
589.984	23984.62
590.182	23595.5
590.379	23955.94
590.576	23577.07
590.773	23728.62
590.97	23757.29
591.167	23648.75
591.364	23581.17
591.561	23845.35
591.758	23458.29
591.955	23448.05
592.152	23775.72
592.349	22856.18
592.546	23282.16
592.743	23163.38
592.94	23083.51
593.137	22911.48
593.334	22977.01
593.531	22747.64
593.727	22909.43
593.924	22596.09
594.121	22233.6
594.318	22854.14
594.515	22477.31
594.712	22686.2
594.908	22266.37
595.105	22583.8
595.302	22182.4
595.499	22383.1
595.696	22284.8
595.892	21703.18
596.089	22338.05
596.286	22032.9
596.482	21895.69
596.679	21606.92
596.876	21752.33
597.072	21619.21
597.269	21869.06
597.466	21250.58
597.662	21467.66
597.859	21428.75
598.055	21486.09
598.252	21334.54
598.448	21074.45
598.645	21195.28
598.841	21275.15
599.038	20865.56
599.234	21152.27
599.431	21070.36
599.627	20763.16
599.824	20929.05
600.02	20800.02
600.217	20797.98
600.413	20757.02
600.609	20568.6
600.806	20333.09
601.002	20548.12
601.198	20427.29
601.395	20339.23
601.591	20339.23
601.787	20120.1
601.984	20138.53
602.18	20384.29
602.376	20159.01
602.572	19917.35
602.769	20085.28
602.965	19966.5
603.161	19790.38
603.357	19812.9
603.553	19450.41
603.75	19687.98
603.946	19284.53
604.142	19360.3
604.338	19184.18
604.534	19589.67
604.73	19284.53
604.926	19057.2
605.122	19483.18
605.318	18963
605.514	18797.11
605.71	19030.58
605.906	18926.13
606.102	18924.08
606.298	18766.39
606.494	18905.65
606.69	18926.13
606.886	18915.89
607.082	18608.7
607.278	18571.83
607.474	18324.03
607.67	18694.71
607.866	18391.61
608.062	18764.34
608.257	18350.65
608.453	18381.37
608.649	18416.19
608.845	18154.05
609.041	18405.95
609.236	18203.2
609.432	18178.62
609.628	18262.59
609.824	18192.96
610.019	17992.26
610.215	17844.81
610.411	18106.95
610.606	17896
610.802	18084.42
610.998	18092.61
611.193	17844.81
611.389	17838.66
611.584	17609.29
611.78	17566.28
611.976	17971.78
612.171	17605.19
612.367	17435.21
612.562	17560.14
612.758	17322.57
612.953	17439.31
613.149	17656.39
613.344	17312.33
613.539	17480.27
613.735	17551.95
613.93	17369.68
614.126	17269.33
614.321	17472.07
614.517	17347.15
614.712	17424.97
614.907	17140.3
615.103	17168.98
615.298	17232.46
615.493	17191.5
615.688	16824.92
615.884	17252.94
616.079	16931.41
616.274	16951.89
616.47	16988.75
616.665	16822.87
616.86	16775.77
617.055	16872.02
617.25	16671.32
617.445	16652.89
617.641	16534.11
617.836	16480.86
618.031	16478.81
618.226	16595.54
618.421	16491.1
618.616	16425.56
618.811	16181.85
619.006	16314.97
619.201	16071.26
619.396	16280.16
619.591	16048.74
619.786	15856.23
619.981	16015.97
620.176	16040.54
620.371	15610.47
620.566	15880.8
620.761	15878.76
620.956	15911.52
621.151	15716.97
621.346	15700.58
621.541	15411.82
621.735	15444.59
621.93	15039.09
622.125	15092.34
622.32	14938.74
622.515	15178.35
622.709	15037.04
622.904	14934.64
623.099	15178.35
623.294	15082.1
623.488	14535.29
623.683	14709.36
623.878	14473.85
624.072	14568.06
624.267	14563.96
624.462	14338.68
624.656	14279.29
624.851	14297.72
625.046	14183.04
625.24	13830.79
625.435	13798.02
625.629	13851.27
625.824	13724.29
626.018	13808.26
626.213	13380.23
626.407	13795.97
626.602	13433.48
626.796	13546.12
626.991	13523.59
627.185	13296.27
627.38	13144.72
627.574	13326.99
627.768	13124.24
627.963	13132.43
628.157	12982.93
628.352	13015.69
628.546	12667.54
628.74	12886.67
628.935	12835.47
629.129	12722.84
629.323	12321.43
629.517	12577.43
629.712	12589.72
629.906	12305.05
630.1	12212.89
630.294	12399.26
630.489	12018.33
630.683	12346.01
630.877	11909.79
631.071	12030.62
631.265	12063.39
631.459	11846.3
631.653	11612.84
631.848	11897.5
632.042	11541.16
632.236	11768.48
632.43	11479.72
632.624	11807.39
632.818	11401.9
633.012	11225.77
633.206	11403.94
633.4	11205.29
633.594	11152.04
633.788	11186.86
633.982	11135.66
634.176	11106.99
634.369	10875.57
634.563	10963.63
634.757	10986.16
634.951	10820.27
635.145	10939.05
635.339	10769.07
635.533	10588.85
635.726	10623.67
635.92	10478.26
636.114	10359.48
636.308	10420.92
636.501	10439.35
636.695	10252.98
636.889	10234.55
637.083	10062.52
637.276	10402.49
637.47	10148.54
637.664	9929.41
637.857	10117.82
638.051	10031.8
638.244	9802.43
638.438	9917.12
638.632	9851.58
638.825	9730.75
639.019	9720.51
639.212	9683.65
639.406	9585.35
639.599	9513.67
639.793	9538.24
639.986	9485
640.18	9550.53
640.373	9284.3
640.567	9196.23
640.76	9140.94
640.954	8995.53
641.147	9040.59
641.34	9181.9
641.534	9132.75
641.727	9067.21
641.92	9155.27
642.114	8776.4
642.307	8897.23
642.5	8843.98
642.694	8618.71
642.887	8788.69
643.08	8786.64
643.273	8706.77
643.467	8680.14
643.66	8694.48
643.853	8418
644.046	8243.93
644.239	8329.94
644.432	8391.38
644.626	8393.43
644.819	8383.19
645.012	8241.88
645.205	8145.63
645.398	8139.48
645.591	8186.58
645.784	8030.94
645.977	7961.31
646.17	8055.51
646.363	8016.6
646.556	7785.18
646.749	7848.67
646.942	8020.7
647.135	7738.08
647.328	7760.61
647.521	7781.09
647.714	7658.21
647.907	7578.34
648.099	7654.11
648.292	7637.73
648.485	7555.81
648.678	7582.43
648.871	7498.47
649.064	7506.66
649.256	7404.26
649.449	7408.36
649.642	7224.04
649.835	7101.16
650.027	7174.89
650.22	7066.35
650.413	7242.47
650.605	7088.87
650.798	7152.36
650.991	6839.02
651.183	7140.07
651.376	6920.94
651.568	6972.14
651.761	6927.08
651.954	6986.47
652.146	6824.69
652.339	6902.51
652.531	6724.33
652.724	6742.77
652.916	6550.26
653.109	6699.76
653.301	6576.88
653.494	6439.67
653.686	6585.07
653.879	6511.35
654.071	6394.61
654.263	6351.6
654.456	6451.95
654.648	6445.81
654.84	6247.16
655.033	6310.65
655.225	6226.68
655.417	6206.2
655.61	6148.86
655.802	6128.38
655.994	5935.87
656.186	6212.34
656.379	5929.72
656.571	5980.92
656.763	6034.17
656.955	5960.44
657.148	5907.2
657.34	5933.82
657.532	5890.81
657.724	5763.84
657.916	5761.79
658.108	5915.39
658.3	5810.94
658.492	5815.04
658.684	5739.26
658.876	5683.97
659.068	5595.9
659.26	5724.93
659.452	5569.28
659.644	5464.83
659.836	5536.51
660.028	5602.05
660.22	5376.77
660.412	5446.4
660.604	5397.25
660.796	5462.79
660.988	5483.27
661.18	5325.57
661.372	5270.28
661.563	5270.28
661.755	5311.24
661.947	5245.7
662.139	5286.66
662.331	5350.15
662.522	5165.83
662.714	5104.39
662.906	5092.1
663.097	4963.08
663.289	5001.99
663.481	5022.47
663.673	5065.48
663.864	4938.51
664.056	4930.31
664.247	5094.15
664.439	4875.02
664.631	4958.99
664.822	4961.03
665.014	4862.73
665.205	4805.39
665.397	4893.45
665.588	4862.73
665.78	4791.05
665.971	4709.13
666.163	4594.45
666.354	4664.08
666.546	4678.41
666.737	4584.21
666.929	4600.59
667.12	4680.46
667.311	4578.06
667.503	4561.68
667.694	4492.05
667.885	4563.73
668.077	4621.07
668.268	4467.47
668.459	4481.81
668.651	4408.08
668.842	4426.51
669.033	4518.67
669.224	4350.74
669.416	4453.14
669.607	4365.07
669.798	4432.66
669.989	4446.99
670.18	4338.45
670.371	4311.83
670.563	4332.31
670.754	4268.82
670.945	4203.29
671.136	4391.7
671.327	4201.24
671.518	4117.27
671.709	4135.7
671.9	4240.15
672.091	4191
672.282	4080.41
672.473	4025.11
672.664	4129.56
672.855	4045.59
673.046	4141.85
673.237	4031.26
673.428	4018.97
673.619	4164.37
673.809	4066.07
674	3965.72
674.191	3971.86
674.382	4027.16
674.573	4021.02
674.764	3865.37
674.954	3922.71
675.145	4059.93
675.336	3887.9
675.527	3988.25
675.717	4061.98
675.908	3732.25
676.099	3873.56
676.289	3820.32
676.48	3820.32
676.671	3863.32
676.861	3840.79
677.052	3803.93
677.243	3865.37
677.433	3758.88
677.624	3767.07
677.814	3801.88
678.005	3752.73
678.195	3889.95
678.386	3918.62
678.576	3656.48
678.767	3822.36
678.957	3756.83
679.148	3834.65
679.338	3625.76
679.529	3689.25
679.719	3595.04
679.909	3748.64
680.1	3769.12
680.29	3658.53
680.481	3619.61
680.671	3707.68
680.861	3681.05
681.052	3732.25
681.242	3699.48
681.432	3631.9
681.622	3597.09
681.813	3568.41
682.003	3640.09
682.193	3556.13
682.383	3648.29
682.573	3586.85
682.764	3638.05
682.954	3691.29
683.144	3592.99
683.334	3480.35
683.524	3418.91
683.714	3681.05
683.904	3429.15
684.094	3490.59
684.284	3535.65
684.474	3509.02
684.664	3605.28
684.854	3537.7
685.044	3386.15
685.234	3586.85
685.424	3545.89
685.614	3511.07
685.804	3488.54
685.994	3406.63
686.184	3504.93
686.374	3443.49
686.564	3298.08
686.753	3320.61
686.943	3341.09
687.133	3386.15
687.323	3339.04
687.513	3402.53
687.702	3316.51
687.892	3330.85
688.082	3367.71
688.272	3259.17
688.461	3146.53
688.651	3382.05
688.841	3193.64
689.03	3199.78
689.22	3140.39
689.41	3136.29
689.599	3081
689.789	3128.1
689.979	3037.99
690.168	3087.14
690.358	3195.68
690.547	3025.7
690.737	3107.62
690.926	3101.48
691.116	2951.98
691.305	3074.85
691.495	3091.24
691.684	2978.6
691.874	3064.61
692.063	3040.04
692.252	2878.25
692.442	2956.07
692.631	2913.06
692.82	2833.19
693.01	2859.82
693.199	3001.13
693.388	2822.95
693.578	2841.39
693.767	2925.35
693.956	2822.95
694.146	2947.88
694.335	2888.49
694.524	2837.29
694.713	2853.67
694.902	2857.77
695.092	2730.8
695.281	2800.43
695.47	2683.69
695.659	2941.74
695.848	2698.03
696.037	2800.43
696.226	2804.52
696.415	2743.08
696.604	2747.18
696.793	2726.7
696.982	2788.14
697.171	2669.36
697.36	2689.84
697.549	2695.98
697.738	2583.34
697.927	2704.17
698.116	2730.8
698.305	2788.14
698.494	2714.41
698.683	2569.01
698.872	2751.28
699.061	2616.11
699.25	2505.52
699.438	2663.21
699.627	2628.4
699.816	2691.88
700.005	2636.59
700.193	2689.84
700.382	2728.75
700.571	2655.02
700.76	2605.87
700.948	2663.21
701.137	2618.16
701.326	2734.89
701.514	2526
701.703	2747.18
701.892	2673.45
702.08	2706.22
702.269	2714.41
702.457	2607.92
702.646	2618.16
702.834	2642.73
703.023	2609.97
703.212	2661.16
703.4	2712.36
703.589	2595.63
703.777	2581.29
703.965	2505.52
704.154	2575.15
704.342	2644.78
704.531	2513.71
704.719	2644.78
704.907	2601.77
705.096	2581.29
705.284	2546.48
705.472	2591.53
705.661	2605.87
705.849	2491.18
706.037	2536.24
706.226	2605.87
706.414	2612.01
706.602	2538.29
706.79	2652.97
706.979	2472.75
707.167	2581.29
707.355	2712.36
707.543	2538.29
707.731	2523.95
707.919	2591.53
708.107	2671.4
708.296	2517.81
708.484	2675.5
708.672	2542.38
708.86	2638.64
709.048	2536.24
709.236	2571.05
709.424	2546.48
709.612	2620.21
709.8	2620.21
709.988	2573.1
710.176	2640.69
710.364	2540.33
710.551	2706.22
710.739	2603.82
710.927	2558.77
711.115	2640.69
711.303	2675.5
711.491	2554.67
711.679	2673.45
711.866	2712.36
712.054	2702.12
712.242	2634.54
712.43	2663.21
712.617	2616.11
712.805	2548.53
712.993	2552.62
713.181	2540.33
713.368	2564.91
713.556	2583.34
713.744	2665.26
713.931	2603.82
714.119	2716.46
714.306	2661.16
714.494	2566.96
714.682	2616.11
714.869	2665.26
715.057	2689.84
715.244	2573.1
715.432	2732.84
715.619	2634.54
715.807	2642.73
715.994	2693.93
716.182	2507.57
716.369	2646.83
716.556	2605.87
716.744	2589.49
716.931	2683.69
717.119	2704.17
717.306	2622.25
717.493	2622.25
717.681	2648.88
717.868	2673.45
718.055	2665.26
718.242	2622.25
718.43	2693.93
718.617	2612.01
718.804	2560.81
718.991	2685.74
719.179	2712.36
719.366	2614.06
719.553	2677.55
719.74	2626.35
719.927	2710.32
720.114	2628.4
720.301	2673.45
720.488	2710.32
720.676	2745.13
720.863	2609.97
721.05	2628.4
721.237	2677.55
721.424	2683.69
721.611	2646.83
721.798	2706.22
721.985	2745.13
722.172	2673.45
722.358	2732.84
722.545	2612.01
722.732	2730.8
722.919	2685.74
723.106	2712.36
723.293	2652.97
723.48	2728.75
723.667	2677.55
723.853	2644.78
724.04	2777.9
724.227	2648.88
724.414	2704.17
724.6	2644.78
724.787	2755.37
724.974	2685.74
725.161	2849.58
725.347	2710.32
725.534	2685.74
725.72	2732.84
725.907	2738.99
726.094	2700.08
726.28	2781.99
726.467	2677.55
726.653	2749.23
726.84	2728.75
727.027	2781.99
727.213	2695.98
727.4	2681.64
727.586	2708.27
727.773	2724.65
727.959	2671.4
728.145	2548.53
728.332	2781.99
728.518	2683.69
728.705	2769.71
728.891	2675.5
729.077	2755.37
729.264	2749.23
729.45	2671.4
729.636	2708.27
729.823	2792.23
730.009	2714.41
730.195	2781.99
730.382	2743.08
730.568	2833.19
730.754	2792.23
730.94	2720.56
731.126	2755.37
731.313	2798.38
731.499	2718.51
731.685	2753.32
731.871	2657.07
732.057	2790.19
732.243	2825
732.429	2745.13
732.615	2773.8
732.801	2704.17
732.987	2763.56
733.173	2702.12
733.359	2679.6
733.545	2738.99
733.731	2655.02
733.917	2851.63
734.103	2718.51
734.289	2685.74
734.475	2743.08
734.661	2777.9
734.847	2738.99
735.033	2589.49
735.219	2792.23
735.404	2718.51
735.59	2630.45
735.776	2757.42
735.962	2771.76
736.148	2702.12
736.333	2589.49
736.519	2571.05
736.705	2753.32
736.89	2671.4
737.076	2751.28
737.262	2681.64
737.447	2620.21
737.633	2650.92
737.819	2607.92
738.004	2638.64
738.19	2636.59
738.375	2726.7
738.561	2517.81
738.747	2648.88
738.932	2644.78
739.118	2530.09
739.303	2732.84
739.489	2530.09
739.674	2638.64
739.859	2620.21
740.045	2579.25
740.23	2597.68
740.416	2538.29
740.601	2554.67
740.786	2534.19
740.972	2517.81
741.157	2493.23
741.342	2609.97
741.528	2437.94
741.713	2530.09
741.898	2460.46
742.084	2458.42
742.269	2546.48
742.454	2439.98
742.639	2552.62
742.824	2454.32
743.01	2480.94
743.195	2530.09
743.38	2413.36
743.565	2431.79
743.75	2392.88
743.935	2407.22
744.12	2485.04
744.305	2425.65
744.49	2405.17
744.675	2419.5
744.86	2507.57
745.045	2368.31
745.23	2298.67
745.415	2313.01
745.6	2325.3
745.785	2304.82
745.97	2360.11
746.155	2358.07
746.34	2220.85
746.525	2216.76
746.71	2200.37
746.895	2241.33
747.079	2206.52
747.264	2298.67
747.449	2245.43
747.634	2237.24
747.819	2089.78
748.003	2208.56
748.188	2202.42
748.373	2073.4
748.557	2220.85
748.742	2071.35
748.927	2022.2
749.111	2054.97
749.296	2052.92
749.481	2036.53
749.665	1983.29
749.85	2054.97
750.034	2091.83
750.219	1985.34
750.404	2128.69
750.588	2030.39
750.773	1956.66
750.957	2003.77
751.141	1927.99
751.326	2016.05
751.51	1829.69
751.695	1997.62
751.879	1884.98
752.064	1936.18
752.248	1878.84
752.432	1880.89
752.617	1813.31
752.801	1846.07
752.985	1712.96
753.17	1768.25
753.354	1778.49
753.538	1821.5
753.722	1620.8
753.907	1729.34
754.091	1694.52
754.275	1846.07
754.459	1805.11
754.643	1721.15
754.828	1749.82
755.012	1698.62
755.196	1667.9
755.38	1575.74
755.564	1655.61
755.748	1647.42
755.932	1737.53
756.116	1606.46
756.3	1545.02
756.484	1547.07
756.668	1610.56
756.852	1530.69
757.036	1563.45
757.22	1502.01
757.404	1450.82
757.588	1563.45
757.772	1483.58
757.956	1573.69
758.14	1510.21
758.323	1545.02
758.507	1471.29
758.691	1481.53
758.875	1502.01
759.059	1454.91
759.242	1452.86
759.426	1420.1
759.61	1440.58
759.794	1411.9
759.977	1551.17
760.161	1428.29
760.345	1379.14
760.528	1362.75
760.712	1303.36
760.895	1420.1
761.079	1348.42
761.263	1317.7
761.446	1372.99
761.63	1317.7
761.813	1272.64
761.997	1291.07
762.18	1332.03
762.364	1209.15
762.547	1270.59
762.731	1295.17
762.914	1282.88
763.098	1289.03
763.281	1203.01
763.464	1239.87
763.648	1205.06
763.831	1217.35
764.015	1176.39
764.198	1217.35
764.381	1155.91
764.564	1231.68
764.748	1229.63
764.931	1219.39
765.114	1094.47
765.297	1192.77
765.481	1131.33
765.664	1096.52
765.847	1127.24
766.03	1190.72
766.213	1090.37
766.397	1164.1
766.58	1184.58
766.763	1121.09
766.946	1174.34
767.129	1094.47
767.312	1139.52
767.495	1049.41
767.678	1135.43
767.861	1121.09
768.044	1039.17
768.227	1114.95
768.41	1114.95
768.593	1151.81
768.776	1055.56
768.959	1045.32
769.142	1063.75
769.324	1106.76
769.507	1033.03
769.69	1008.45
769.873	1069.89
770.056	1057.61
770.239	1125.19
770.421	1080.13
770.604	975.69
770.787	965.45
770.97	994.12
771.152	994.12
771.335	977.73
771.518	957.25
771.7	990.02
771.883	1035.08
772.066	910.15
772.248	987.97
772.431	934.73
772.613	877.38
772.796	906.06
772.978	955.21
773.161	963.4
773.343	955.21
773.526	906.06
773.708	836.42
773.891	944.97
774.073	899.91
774.256	920.39
774.438	910.15
774.621	869.19
774.803	846.66
774.985	947.01
775.168	844.62
775.35	861
775.532	807.75
775.715	856.9
775.897	871.24
776.079	887.62
776.261	891.72
776.444	828.23
776.626	830.28
776.808	840.52
776.99	676.68
777.173	846.66
777.355	756.55
777.537	742.22
777.719	779.08
777.901	725.83
778.083	740.17
778.265	684.87
778.447	836.42
778.629	738.12
778.811	713.55
778.993	723.79
779.175	742.22
779.357	725.83
779.539	709.45
779.721	846.66
779.903	723.79
780.085	760.65
780.267	707.4
780.449	699.21
780.631	729.93
780.812	605
780.994	656.2
781.176	697.16
781.358	691.02
781.54	723.79
781.721	672.59
781.903	633.68
782.085	662.35
782.267	617.29
782.448	641.87
782.63	629.58
782.812	600.91
782.993	645.96
783.175	537.42
783.357	625.48
783.538	605
783.72	617.29
783.901	562
784.083	547.66
784.264	580.43
784.446	578.38
784.627	455.5
784.809	629.58
784.99	518.99
785.172	518.99
785.353	535.37
785.535	566.09
785.716	492.37
785.897	482.13
786.079	459.6
786.26	533.33
786.441	463.69
786.623	572.24
786.804	441.17
786.985	484.17
787.167	549.71
787.348	457.55
787.529	432.97
787.71	531.28
787.891	498.51
788.073	435.02
788.254	420.69
788.435	508.75
788.616	502.61
788.797	463.69
788.978	484.17
789.159	451.41
789.34	361.3
789.522	473.93
789.703	451.41
789.884	418.64
790.065	439.12
790.246	455.5
790.427	426.83
790.607	432.97
790.788	478.03
790.969	320.34
791.15	400.21
791.331	385.87
791.512	422.73
791.693	402.26
791.874	381.78
792.054	394.06
792.235	396.11
792.416	383.82
792.597	371.54
792.778	267.09
792.958	400.21
793.139	373.58
793.32	365.39
793.5	406.35
793.681	392.02
793.862	326.48
794.042	383.82
794.223	340.82
794.404	373.58
794.584	357.2
794.765	418.64
794.945	340.82
795.126	326.48
795.306	346.96
795.487	285.52
795.667	359.25
795.848	361.3
796.028	441.17
796.209	363.34
796.389	308.05
796.57	342.86
796.75	279.38
796.93	353.1
797.111	318.29
797.291	260.95
797.471	320.34
797.652	299.86
797.832	312.14
798.012	355.15
798.192	328.53
798.373	316.24
798.553	361.3
798.733	351.06
798.913	342.86
799.093	334.67
799.274	234.32
799.454	236.37
799.634	260.95
799.814	314.19
799.994	324.43
800.174	267.09
800.354	283.47
800.534	211.79
800.714	312.14
800.894	242.51
801.074	252.75
801.254	254.8
801.434	359.25
801.614	320.34
801.794	236.37
801.974	715.59
802.154	265.04
802.334	295.76
802.514	187.22
802.693	267.09
802.873	222.03
803.053	308.05
803.233	314.19
803.413	250.71
803.592	236.37
803.772	260.95
803.952	324.43
804.131	217.94
804.311	269.14
804.491	299.86
804.67	238.42
804.85	260.95
805.03	222.03
805.209	349.01
805.389	133.97
805.568	209.75
805.748	195.41
805.928	281.43
806.107	277.33
806.287	217.94
806.466	242.51
806.646	217.94
806.825	260.95
807.004	230.23
807.184	193.36
807.363	240.47
807.543	224.08
807.722	121.68
807.901	168.79
808.081	281.43
808.26	203.6
808.439	187.22
808.619	201.55
808.798	222.03
808.977	256.85
809.156	226.13
809.336	183.12
809.515	183.12
809.694	185.17
809.873	226.13
810.052	234.32
810.231	174.93
810.411	246.61
810.59	230.23
810.769	152.4
810.948	254.8
811.127	101.2
811.306	160.59
811.485	211.79
811.664	207.7
811.843	213.84
812.022	185.17
812.201	248.66
812.38	215.89
812.559	166.74
812.737	215.89
812.916	148.31
813.095	197.46
813.274	170.83
813.453	158.55
813.632	205.65
813.811	176.98
813.989	170.83
814.168	201.55
814.347	238.42
814.526	205.65
814.704	193.36
814.883	156.5
815.062	119.64
815.24	217.94
815.419	168.79
815.598	146.26
815.776	131.92
815.955	183.12
816.133	107.35
816.312	193.36
816.49	129.88
816.669	199.51
816.847	99.16
817.026	215.89
817.204	133.97
817.383	176.98
817.561	193.36
817.74	146.26
817.918	148.31
818.097	140.12
818.275	154.45
818.453	191.31
818.632	127.83
818.81	205.65
818.988	160.59
819.167	117.59
819.345	142.16
819.523	154.45
819.701	17.24
819.879	146.26
820.058	52.05
820.236	133.97
820.414	193.36
820.592	74.58
820.77	86.87
820.948	97.11
821.127	58.2
821.305	140.12
821.483	162.64
821.661	185.17
821.839	47.96
822.017	109.4
822.195	117.59
822.373	185.17
822.551	125.78
822.729	105.3
822.907	80.72
823.085	119.64
823.262	97.11
823.44	123.73
823.618	105.3
823.796	136.02
823.974	117.59
824.152	107.35
824.329	156.5
824.507	84.82
824.685	127.83
824.863	113.49
825.04	56.15
825.218	82.77
825.396	47.96
825.574	170.83
825.751	99.16
825.929	99.16
826.107	101.2
826.284	109.4
826.462	121.68
826.639	115.54
826.817	146.26
826.994	119.64
827.172	142.16
827.349	99.16
827.527	123.73
827.704	146.26
827.882	150.36
828.059	60.24
828.237	95.06
828.414	193.36
828.591	25.43
828.769	160.59
828.946	80.72
829.124	136.02
829.301	109.4
829.478	119.64
829.655	54.1
829.833	74.58
830.01	62.29
830.187	82.77
830.364	62.29
830.542	138.07
830.719	219.99
830.896	50
831.073	86.87
831.25	56.15
831.427	76.63
831.604	127.83
831.782	31.57
831.959	168.79
832.136	84.82
832.313	74.58
832.49	62.29
832.667	-11.43
832.844	113.49
833.021	119.64
833.198	33.62
833.374	95.06
833.551	74.58
833.728	43.86
833.905	131.92
834.082	56.15
834.259	41.81
834.436	144.21
834.612	123.73
834.789	82.77
834.966	60.24
835.143	80.72
835.319	93.01
835.496	76.63
835.673	95.06
835.85	95.06
836.026	119.64
836.203	17.24
836.38	76.63
836.556	144.21
836.733	99.16
836.909	84.82
837.086	56.15
837.262	74.58
837.439	125.78
837.616	117.59
837.792	86.87
837.968	148.31
838.145	93.01
838.321	93.01
838.498	93.01
838.674	111.44
838.851	74.58
839.027	70.48
839.203	95.06
839.38	56.15
839.556	33.62
839.732	33.62
839.909	84.82
840.085	95.06
840.261	33.62
840.437	-5.29
840.614	64.34
840.79	52.05
840.966	11.09
841.142	66.39
841.318	70.48
841.494	136.02
841.671	97.11
841.847	82.77
842.023	21.33
842.199	146.26
842.375	78.68
842.551	47.96
842.727	86.87
842.903	97.11
843.079	29.52
843.255	29.52
843.431	72.53
843.607	121.68
843.783	-15.53
843.959	21.33
844.134	64.34
844.31	-27.82
844.486	27.48
844.662	66.39
844.838	27.48
845.013	72.53
845.189	-5.29
845.365	50
845.541	70.48
845.716	113.49
845.892	62.29
846.068	-46.25
846.244	13.14
846.419	39.76
846.595	50
846.77	72.53
846.946	41.81
847.122	50
847.297	66.39
847.473	90.96
847.648	60.24
847.824	-9.39
847.999	29.52
848.175	-21.67
848.35	31.57
848.526	142.16
848.701	58.2
848.876	50
849.052	50
849.227	84.82
849.403	27.48
849.578	68.44
849.753	50
849.929	119.64
850.104	50
850.279	62.29
850.454	74.58
850.63	45.91
850.805	29.52
850.98	43.86
851.155	68.44
851.33	80.72
851.505	99.16
851.681	45.91
851.856	37.72
852.031	68.44
852.206	-3.24
852.381	43.86
852.556	78.68
852.731	17.24
852.906	19.29
853.081	62.29
853.256	82.77
853.431	21.33
853.606	-11.43
853.781	47.96
853.956	-11.43
854.131	101.2
854.305	4.95
854.48	35.67
854.655	29.52
854.83	97.11
855.005	101.2
855.18	27.48
855.354	2.9
855.529	78.68
855.704	-17.58
855.879	17.24
856.053	-79.02
856.228	97.11
856.403	-13.48
856.577	41.81
856.752	33.62
856.926	56.15
857.101	37.72
857.276	-19.63
857.45	19.29
857.625	66.39
857.799	68.44
857.974	43.86
858.148	52.05
858.323	9.05
858.497	29.52
858.672	60.24
858.846	62.29
859.02	9.05
859.195	86.87
859.369	-15.53
859.543	39.76
859.718	9.05
859.892	15.19
860.066	13.14
860.241	7
860.415	25.43
860.589	80.72
860.763	25.43
860.938	41.81
861.112	-25.77
861.286	31.57
861.46	72.53
861.634	11.09
861.808	47.96
861.982	15.19
862.157	15.19
862.331	74.58
862.505	7
862.679	-36.01
862.853	39.76
863.027	13.14
863.201	-21.67
863.375	29.52
863.549	35.67
863.722	-1.19
863.896	-5.29
864.07	-13.48
864.244	58.2
864.418	25.43
864.592	17.24
864.766	45.91
864.939	41.81
865.113	-7.34
865.287	99.16
865.461	-56.49
865.634	19.29
865.808	-19.63
865.982	68.44
866.156	-25.77
866.329	101.2
866.503	35.67
866.676	21.33
866.85	15.19
867.024	0.85
867.197	-17.58
867.371	37.72
867.544	35.67
867.718	43.86
867.891	35.67
868.065	21.33
868.238	-64.68
868.412	-1.19
868.585	103.25
868.759	-40.11
868.932	23.38
869.105	-64.68
869.279	21.33
869.452	0.85
869.625	-13.48
869.799	-31.91
869.972	-9.39
870.145	64.34
870.319	13.14
870.492	37.72
870.665	23.38
870.838	84.82
871.011	-23.72
871.185	62.29
871.358	54.1
871.531	-3.24
871.704	0.85
871.877	33.62
872.05	70.48
872.223	-1.19
872.396	45.91
872.569	19.29
872.742	-11.43
872.915	93.01
873.088	-13.48
873.261	-33.96
873.434	4.95
873.607	21.33
873.78	74.58
873.953	-5.29
874.126	2.9
874.299	2.9
874.471	-60.59
874.644	2.9
874.817	25.43
874.99	9.05
875.163	70.48
875.335	47.96
875.508	23.38
875.681	39.76
875.853	-27.82
876.026	17.24
876.199	39.76
876.371	13.14
876.544	52.05
876.717	52.05
876.889	-3.24
877.062	35.67
877.234	54.1
877.407	25.43
877.579	41.81
877.752	37.72
877.924	23.38
878.097	-11.43
878.269	33.62
878.442	47.96
878.614	33.62
878.786	-11.43
878.959	101.2
879.131	29.52
879.303	-27.82
879.476	47.96
879.648	21.33
879.82	154.45
879.993	39.76
880.165	52.05
880.337	-9.39
880.509	-1.19
880.681	33.62
880.854	47.96
881.026	7
881.198	47.96
881.37	9.05
881.542	-33.96
881.714	2.9
881.886	2.9
882.058	99.16
882.23	-44.2
882.402	11.09
882.574	4.95
882.746	11.09
882.918	105.3
883.09	43.86
883.262	-13.48
883.434	45.91
883.606	58.2
883.778	9.05
883.95	27.48
884.122	-13.48
884.293	-21.67
884.465	101.2
884.637	-3.24
884.809	-25.77
884.98	50
885.152	19.29
885.324	23.38
885.496	27.48
885.667	29.52
885.839	47.96
886.011	80.72
886.182	-50.35
886.354	-9.39
886.525	9.05
886.697	0.85
886.869	39.76
887.04	43.86
887.212	39.76
887.383	70.48
887.555	31.57
887.726	17.24
887.897	-46.25
888.069	17.24
888.24	-27.82
888.412	31.57
888.583	-5.29
888.754	70.48
888.926	29.52
889.097	-64.68
889.268	33.62
889.44	64.34
889.611	-33.96
889.782	39.76
889.953	-11.43
890.125	64.34
890.296	-7.34
890.467	-15.53
890.638	4.95
890.809	15.19
890.98	35.67
891.151	15.19
891.323	9.05
891.494	15.19
891.665	2.9
891.836	-15.53
892.007	19.29
892.178	27.48
892.349	-38.06
892.52	-33.96
892.691	-9.39
892.862	-17.58
893.032	29.52
893.203	-25.77
893.374	-5.29
893.545	4.95
893.716	25.43
893.887	33.62
894.057	15.19
894.228	23.38
894.399	-5.29
894.57	33.62
894.74	43.86
894.911	-38.06
895.082	-5.29
895.253	0.85
895.423	-50.35
895.594	60.24
895.764	11.09
895.935	-1.19
896.106	39.76
896.276	-27.82
896.447	-44.2
896.617	7
896.788	-81.07
896.958	-1.19
897.129	33.62
897.299	13.14
897.47	25.43
897.64	52.05
897.81	27.48
897.981	35.67
898.151	-27.82
898.322	13.14
898.492	15.19
898.662	41.81
898.832	7
899.003	-42.15
899.173	-1.19
899.343	9.05
899.513	-42.15
