Data from USB4F104151__21__11-51-27-175.txt Node

Date: Fri Mar 14 11:51:27 EDT 2025
User: louis
Spectrometer: USB4F10415
Trigger mode: 4
Integration Time (sec): 2.000000E-2
Scans to average: 1
Electric dark correction enabled: true
Nonlinearity correction enabled: false
Boxcar width: 0
XAxis mode: Wavelengths
Number of Pixels in Spectrum: 3648
>>>>>Begin Spectral Data<<<<<
178.204	-75.77
178.424	-75.77
178.644	-75.77
178.864	-131.07
179.084	-65.54
179.304	8.19
179.524	4.1
179.744	18.43
179.964	43.01
180.184	24.58
180.404	-16.38
180.624	-57.34
180.844	-8.19
181.064	-32.77
181.283	-63.49
181.503	22.53
181.723	57.34
181.943	8.19
182.163	14.34
182.383	-26.62
182.602	16.38
182.822	6.14
183.042	-16.38
183.262	-6.14
183.482	-49.15
183.701	-8.19
183.921	22.53
184.141	-38.91
184.361	-2.05
184.58	2.05
184.8	-24.58
185.02	-30.72
185.239	8.19
185.459	-53.25
185.679	18.43
185.898	-30.72
186.118	-75.77
186.338	14.34
186.557	-32.77
186.777	-71.68
186.997	-47.1
187.216	-36.86
187.436	-28.67
187.655	-38.91
187.875	135.17
188.095	-8.19
188.314	-47.1
188.534	10.24
188.753	45.06
188.973	-43.01
189.192	61.44
189.412	57.34
189.631	30.72
189.851	-36.86
190.07	28.67
190.29	-45.06
190.509	-8.19
190.729	-12.29
190.948	4.1
191.168	30.72
191.387	14.34
191.607	14.34
191.826	-30.72
192.045	53.25
192.265	55.3
192.484	92.16
192.704	-55.3
192.923	-12.29
193.142	65.53
193.362	-14.34
193.581	77.82
193.8	-0
194.02	10.24
194.239	86.01
194.458	32.77
194.678	-0
194.897	45.06
195.116	-43.01
195.335	-10.24
195.555	-20.48
195.774	28.67
195.993	-45.06
196.212	40.96
196.432	-61.44
196.651	-10.24
196.87	4.1
197.089	-26.62
197.308	-22.53
197.528	77.82
197.747	-55.3
197.966	18.43
198.185	8.19
198.404	-20.48
198.623	4.1
198.842	30.72
199.062	40.96
199.281	-28.67
199.5	-38.91
199.719	28.67
199.938	-43.01
200.157	16.38
200.376	2.05
200.595	-30.72
200.814	-75.77
201.033	-32.77
201.252	53.25
201.471	12.29
201.69	-4.1
201.909	-36.86
202.128	-30.72
202.347	18.43
202.566	12.29
202.785	26.62
203.004	79.87
203.223	61.44
203.442	-34.82
203.661	22.53
203.879	57.34
204.098	22.53
204.317	-51.2
204.536	-24.58
204.755	16.38
204.974	30.72
205.193	-43.01
205.411	-14.34
205.63	-20.48
205.849	10.24
206.068	-53.25
206.287	92.16
206.505	-61.44
206.724	-14.34
206.943	22.53
207.162	6.14
207.381	-16.38
207.599	-14.34
207.818	16.38
208.037	-18.43
208.255	-71.68
208.474	12.29
208.693	57.34
208.911	-32.77
209.13	-47.1
209.349	18.43
209.567	96.25
209.786	-12.29
210.005	106.49
210.223	-43.01
210.442	-51.2
210.661	30.72
210.879	24.58
211.098	38.91
211.316	34.82
211.535	-12.29
211.753	10.24
211.972	2.05
212.191	14.34
212.409	16.38
212.628	26.62
212.846	-67.58
213.065	-8.19
213.283	24.58
213.502	106.49
213.72	6.14
213.938	2.05
214.157	34.82
214.375	-100.35
214.594	-45.06
214.812	36.86
215.031	2.05
215.249	14.34
215.467	4.1
215.686	47.1
215.904	4.1
216.122	47.1
216.341	-32.77
216.559	26.62
216.778	14.34
216.996	-6.14
217.214	-40.96
217.432	-34.82
217.651	-22.53
217.869	10.24
218.087	-8.19
218.306	16.38
218.524	32.77
218.742	-8.19
218.96	18.43
219.179	-6.14
219.397	-28.67
219.615	-30.72
219.833	47.1
220.051	-98.3
220.27	24.58
220.488	30.72
220.706	36.86
220.924	-2.05
221.142	79.87
221.36	12.29
221.578	-2.05
221.796	-45.06
222.015	26.62
222.233	-18.43
222.451	63.49
222.669	-26.62
222.887	12.29
223.105	-38.91
223.323	-36.86
223.541	20.48
223.759	-22.53
223.977	-30.72
224.195	28.67
224.413	-14.34
224.631	30.72
224.849	61.44
225.067	-38.91
225.285	2.05
225.503	-8.19
225.721	-77.82
225.939	-57.34
226.157	30.72
226.375	-14.34
226.592	55.3
226.81	-43.01
227.028	-4.1
227.246	-14.34
227.464	-4.1
227.682	55.3
227.9	22.53
228.117	24.58
228.335	6.14
228.553	-10.24
228.771	16.38
228.989	-4.1
229.206	10.24
229.424	-49.15
229.642	-20.48
229.86	-34.82
230.077	-16.38
230.295	22.53
230.513	-79.87
230.731	14.34
230.948	16.38
231.166	-20.48
231.384	-0
231.601	-51.2
231.819	-65.54
232.037	-26.62
232.254	-45.06
232.472	10.24
232.689	-36.86
232.907	34.82
233.125	-36.86
233.342	-16.38
233.56	-16.38
233.777	86.01
233.995	36.86
234.213	-0
234.43	8.19
234.648	40.96
234.865	20.48
235.083	-43.01
235.3	-16.38
235.518	4.1
235.735	24.58
235.953	18.43
236.17	22.53
236.388	16.38
236.605	30.72
236.822	4.1
237.04	-2.05
237.257	-71.68
237.475	-43.01
237.692	-10.24
237.909	53.25
238.127	-8.19
238.344	2.05
238.562	-51.2
238.779	-79.87
238.996	77.82
239.214	-32.77
239.431	-18.43
239.648	-38.91
239.865	4.1
240.083	-49.15
240.3	30.72
240.517	16.38
240.735	2.05
240.952	40.96
241.169	63.49
241.386	61.44
241.603	83.97
241.821	-96.25
242.038	22.53
242.255	-20.48
242.472	61.44
242.689	71.68
242.907	45.06
243.124	28.67
243.341	-4.1
243.558	-24.58
243.775	-67.58
243.992	-0
244.209	114.69
244.426	14.34
244.643	-8.19
244.86	-69.63
245.078	26.62
245.295	10.24
245.512	30.72
245.729	-14.34
245.946	-67.58
246.163	43.01
246.38	24.58
246.597	-14.34
246.814	-40.96
247.031	26.62
247.248	69.63
247.464	47.1
247.681	45.06
247.898	20.48
248.115	-8.19
248.332	14.34
248.549	14.34
248.766	24.58
248.983	16.38
249.2	45.06
249.417	6.14
249.633	-18.43
249.85	96.25
250.067	-2.05
250.284	-6.14
250.501	12.29
250.717	-26.62
250.934	-34.82
251.151	-34.82
251.368	-34.82
251.585	77.82
251.801	-8.19
252.018	28.67
252.235	92.16
252.451	4.1
252.668	4.1
252.885	26.62
253.102	-14.34
253.318	-18.43
253.535	-22.53
253.752	-77.82
253.968	-34.82
254.185	14.34
254.401	38.91
254.618	-18.43
254.835	-8.19
255.051	49.15
255.268	26.62
255.484	-6.14
255.701	2.05
255.917	79.87
256.134	-26.62
256.351	-6.14
256.567	10.24
256.784	43.01
257	-2.05
257.217	69.63
257.433	-20.48
257.65	57.34
257.866	26.62
258.082	-22.53
258.299	-34.82
258.515	-18.43
258.732	67.58
258.948	-26.62
259.165	92.16
259.381	-59.39
259.597	16.38
259.814	63.49
260.03	38.91
260.246	43.01
260.463	-53.25
260.679	8.19
260.895	30.72
261.112	40.96
261.328	-4.1
261.544	-65.54
261.761	53.25
261.977	92.16
262.193	-36.86
262.409	-18.43
262.626	65.53
262.842	2.05
263.058	-22.53
263.274	-10.24
263.49	-12.29
263.707	34.82
263.923	-28.67
264.139	-67.58
264.355	40.96
264.571	63.49
264.787	59.39
265.004	40.96
265.22	-30.72
265.436	-10.24
265.652	16.38
265.868	4.1
266.084	-18.43
266.3	16.38
266.516	-55.3
266.732	-10.24
266.948	-16.38
267.164	55.3
267.38	14.34
267.596	4.1
267.812	6.14
268.028	40.96
268.244	-34.82
268.46	-12.29
268.676	-14.34
268.892	18.43
269.108	-12.29
269.324	2.05
269.54	-65.54
269.756	28.67
269.972	-16.38
270.188	24.58
270.403	-2.05
270.619	-24.58
270.835	53.25
271.051	49.15
271.267	43.01
271.483	38.91
271.698	14.34
271.914	-45.06
272.13	2.05
272.346	-67.58
272.562	10.24
272.777	20.48
272.993	-90.11
273.209	18.43
273.425	-4.1
273.64	34.82
273.856	14.34
274.072	-75.77
274.287	-30.72
274.503	20.48
274.719	10.24
274.934	32.77
275.15	-79.87
275.366	-32.77
275.581	4.1
275.797	-45.06
276.012	-8.19
276.228	-61.44
276.444	14.34
276.659	26.62
276.875	38.91
277.09	-55.3
277.306	51.2
277.521	6.14
277.737	22.53
277.952	28.67
278.168	-49.15
278.383	6.14
278.599	59.39
278.814	4.1
279.03	-30.72
279.245	45.06
279.461	67.58
279.676	24.58
279.892	12.29
280.107	-45.06
280.322	-12.29
280.538	-4.1
280.753	2.05
280.969	32.77
281.184	6.14
281.399	55.3
281.615	32.77
281.83	36.86
282.045	-26.62
282.26	69.63
282.476	-26.62
282.691	92.16
282.906	38.91
283.122	18.43
283.337	-14.34
283.552	24.58
283.767	-24.58
283.983	-2.05
284.198	47.1
284.413	-51.2
284.628	-57.34
284.843	2.05
285.058	8.19
285.274	-73.73
285.489	-8.19
285.704	-47.1
285.919	38.91
286.134	-32.77
286.349	88.06
286.564	40.96
286.779	20.48
286.995	-18.43
287.21	-51.2
287.425	2.05
287.64	-71.68
287.855	-40.96
288.07	-38.91
288.285	-12.29
288.5	22.53
288.715	40.96
288.93	26.62
289.145	61.44
289.36	12.29
289.575	-20.48
289.79	-26.62
290.004	-30.72
290.219	30.72
290.434	30.72
290.649	16.38
290.864	-10.24
291.079	-36.86
291.294	2.05
291.509	-2.05
291.724	26.62
291.938	-20.48
292.153	-18.43
292.368	90.11
292.583	34.82
292.798	-47.1
293.012	63.49
293.227	49.15
293.442	53.25
293.657	40.96
293.871	-0
294.086	16.38
294.301	2.05
294.516	67.58
294.73	55.3
294.945	-71.68
295.16	-20.48
295.374	20.48
295.589	18.43
295.804	16.38
296.018	40.96
296.233	-18.43
296.447	-4.1
296.662	-18.43
296.877	32.77
297.091	51.2
297.306	-16.38
297.52	-18.43
297.735	16.38
297.949	2.05
298.164	38.91
298.378	2.05
298.593	-16.38
298.807	-38.91
299.022	-6.14
299.236	30.72
299.451	-12.29
299.665	10.24
299.88	129.02
300.094	-0
300.309	-28.67
300.523	22.53
300.737	22.53
300.952	73.73
301.166	8.19
301.381	14.34
301.595	8.19
301.809	-83.97
302.024	8.19
302.238	-12.29
302.452	22.53
302.667	-22.53
302.881	6.14
303.095	43.01
303.309	32.77
303.524	53.25
303.738	8.19
303.952	-49.15
304.166	14.34
304.381	-30.72
304.595	79.87
304.809	-18.43
305.023	10.24
305.237	30.72
305.452	-45.06
305.666	49.15
305.88	43.01
306.094	49.15
306.308	-16.38
306.522	26.62
306.736	26.62
306.95	-26.62
307.164	28.67
307.379	75.77
307.593	57.34
307.807	53.25
308.021	73.73
308.235	18.43
308.449	-104.45
308.663	22.53
308.877	-8.19
309.091	-14.34
309.305	-22.53
309.519	-8.19
309.733	-24.58
309.947	-24.58
310.161	8.19
310.374	51.2
310.588	65.53
310.802	-6.14
311.016	-10.24
311.23	-59.39
311.444	-40.96
311.658	-53.25
311.872	34.82
312.085	63.49
312.299	22.53
312.513	16.38
312.727	-2.05
312.941	4.1
313.154	12.29
313.368	16.38
313.582	-26.62
313.796	-14.34
314.009	12.29
314.223	-14.34
314.437	-20.48
314.651	63.49
314.864	8.19
315.078	34.82
315.292	-45.06
315.505	43.01
315.719	-12.29
315.933	14.34
316.146	30.72
316.36	20.48
316.573	6.14
316.787	24.58
317.001	-10.24
317.214	-18.43
317.428	-53.25
317.641	20.48
317.855	-40.96
318.068	24.58
318.282	-34.82
318.495	53.25
318.709	65.53
318.922	-43.01
319.136	-0
319.349	16.38
319.563	4.1
319.776	-26.62
319.99	22.53
320.203	-16.38
320.417	14.34
320.63	2.05
320.843	77.82
321.057	-30.72
321.27	22.53
321.483	24.58
321.697	6.14
321.91	67.58
322.124	10.24
322.337	8.19
322.55	-38.91
322.763	20.48
322.977	-30.72
323.19	83.97
323.403	-4.1
323.617	-18.43
323.83	34.82
324.043	-6.14
324.256	18.43
324.469	-69.63
324.683	116.73
324.896	-2.05
325.109	40.96
325.322	-57.34
325.535	-8.19
325.748	-10.24
325.962	-2.05
326.175	-18.43
326.388	47.1
326.601	-18.43
326.814	-24.58
327.027	24.58
327.24	57.34
327.453	57.34
327.666	-18.43
327.879	-12.29
328.092	77.82
328.305	-10.24
328.518	24.58
328.731	2.05
328.944	-4.1
329.157	-45.06
329.37	30.72
329.583	47.1
329.796	18.43
330.009	-6.14
330.222	-63.49
330.435	12.29
330.648	28.67
330.861	30.72
331.073	71.68
331.286	-4.1
331.499	8.19
331.712	-8.19
331.925	77.82
332.138	-75.77
332.35	30.72
332.563	40.96
332.776	-8.19
332.989	16.38
333.202	14.34
333.414	26.62
333.627	51.2
333.84	-22.53
334.053	-2.05
334.265	20.48
334.478	55.3
334.691	-12.29
334.903	92.16
335.116	-0
335.329	30.72
335.541	-45.06
335.754	26.62
335.966	24.58
336.179	30.72
336.392	73.73
336.604	24.58
336.817	63.49
337.029	22.53
337.242	-20.48
337.454	96.25
337.667	-8.19
337.88	43.01
338.092	69.63
338.305	28.67
338.517	55.3
338.729	-4.1
338.942	-2.05
339.154	10.24
339.367	-0
339.579	38.91
339.792	24.58
340.004	43.01
340.217	-18.43
340.429	38.91
340.641	55.3
340.854	-12.29
341.066	6.14
341.278	61.44
341.491	75.77
341.703	-8.19
341.915	12.29
342.128	14.34
342.34	47.1
342.552	-49.15
342.764	-30.72
342.977	40.96
343.189	77.82
343.401	-32.77
343.613	-18.43
343.826	55.3
344.038	-20.48
344.25	43.01
344.462	-6.14
344.674	-12.29
344.886	12.29
345.099	12.29
345.311	67.58
345.523	-16.38
345.735	-57.34
345.947	69.63
346.159	16.38
346.371	65.53
346.583	49.15
346.795	38.91
347.007	4.1
347.219	51.2
347.431	51.2
347.643	51.2
347.855	4.1
348.067	14.34
348.279	-38.91
348.491	-16.38
348.703	-51.2
348.915	-0
349.127	-32.77
349.339	-53.25
349.551	-14.34
349.763	28.67
349.975	18.43
350.187	38.91
350.399	-6.14
350.61	-6.14
350.822	-22.53
351.034	61.44
351.246	-18.43
351.458	-10.24
351.669	36.86
351.881	-16.38
352.093	75.77
352.305	67.58
352.517	16.38
352.728	36.86
352.94	8.19
353.152	-16.38
353.363	-47.1
353.575	73.73
353.787	71.68
353.999	79.87
354.21	77.82
354.422	-6.14
354.633	12.29
354.845	14.34
355.057	24.58
355.268	59.39
355.48	57.34
355.692	-20.48
355.903	43.01
356.115	28.67
356.326	55.3
356.538	73.73
356.749	16.38
356.961	8.19
357.172	-36.86
357.384	22.53
357.595	22.53
357.807	-0
358.018	8.19
358.23	75.77
358.441	73.73
358.653	24.58
358.864	-18.43
359.075	14.34
359.287	28.67
359.498	34.82
359.709	8.19
359.921	10.24
360.132	-43.01
360.344	65.53
360.555	26.62
360.766	-36.86
360.977	71.68
361.189	28.67
361.4	-36.86
361.611	26.62
361.823	71.68
362.034	16.38
362.245	24.58
362.456	6.14
362.667	4.1
362.879	-51.2
363.09	24.58
363.301	18.43
363.512	-6.14
363.723	22.53
363.935	32.77
364.146	-0
364.357	34.82
364.568	45.06
364.779	-34.82
364.99	65.53
365.201	75.77
365.412	16.38
365.623	6.14
365.834	14.34
366.045	-45.06
366.256	14.34
366.467	20.48
366.678	30.72
366.889	65.53
367.1	4.1
367.311	2.05
367.522	34.82
367.733	-18.43
367.944	12.29
368.155	38.91
368.366	126.97
368.577	26.62
368.788	6.14
368.999	6.14
369.209	-28.67
369.42	129.02
369.631	28.67
369.842	75.77
370.053	55.3
370.264	18.43
370.474	6.14
370.685	34.82
370.896	4.1
371.107	28.67
371.317	-0
371.528	-110.59
371.739	24.58
371.95	86.01
372.16	47.1
372.371	26.62
372.582	59.39
372.792	2.05
373.003	26.62
373.214	30.72
373.424	30.72
373.635	-8.19
373.846	4.1
374.056	-4.1
374.267	16.38
374.477	59.39
374.688	-30.72
374.898	38.91
375.109	26.62
375.319	38.91
375.53	36.86
375.74	30.72
375.951	94.21
376.161	100.35
376.372	51.2
376.582	83.97
376.793	10.24
377.003	-38.91
377.214	22.53
377.424	-6.14
377.635	-0
377.845	-14.34
378.055	-4.1
378.266	4.1
378.476	32.77
378.686	2.05
378.897	-2.05
379.107	34.82
379.317	24.58
379.528	24.58
379.738	73.73
379.948	-20.48
380.158	110.59
380.369	-22.53
380.579	-57.34
380.789	14.34
380.999	-0
381.21	34.82
381.42	81.92
381.63	-28.67
381.84	124.93
382.05	-4.1
382.261	38.91
382.471	2.05
382.681	-12.29
382.891	22.53
383.101	26.62
383.311	20.48
383.521	-18.43
383.731	90.11
383.941	2.05
384.151	10.24
384.361	-2.05
384.571	22.53
384.781	36.86
384.991	32.77
385.201	-32.77
385.411	6.14
385.621	10.24
385.831	51.2
386.041	16.38
386.251	30.72
386.461	22.53
386.671	36.86
386.881	-34.82
387.091	18.43
387.301	65.53
387.511	45.06
387.72	88.06
387.93	32.77
388.14	108.54
388.35	-26.62
388.56	51.2
388.769	40.96
388.979	59.39
389.189	26.62
389.399	51.2
389.609	-26.62
389.818	57.34
390.028	-0
390.238	63.49
390.447	-20.48
390.657	45.06
390.867	55.3
391.076	6.14
391.286	43.01
391.496	83.97
391.705	-26.62
391.915	4.1
392.125	45.06
392.334	-4.1
392.544	124.93
392.753	43.01
392.963	22.53
393.172	-38.91
393.382	12.29
393.591	-47.1
393.801	51.2
394.01	55.3
394.22	-10.24
394.429	63.49
394.639	43.01
394.848	22.53
395.058	77.82
395.267	61.44
395.477	57.34
395.686	40.96
395.895	59.39
396.105	59.39
396.314	124.93
396.524	28.67
396.733	43.01
396.942	135.17
397.152	4.1
397.361	53.25
397.57	51.2
397.78	55.3
397.989	38.91
398.198	114.69
398.407	92.16
398.617	10.24
398.826	77.82
399.035	51.2
399.244	92.16
399.453	59.39
399.663	18.43
399.872	43.01
400.081	63.49
400.29	83.97
400.499	26.62
400.708	30.72
400.917	63.49
401.127	110.59
401.336	-43.01
401.545	116.73
401.754	65.53
401.963	65.53
402.172	71.68
402.381	57.34
402.59	67.58
402.799	110.59
403.008	118.78
403.217	106.49
403.426	59.39
403.635	118.78
403.844	81.92
404.053	92.16
404.262	81.92
404.471	135.17
404.68	133.12
404.888	83.97
405.097	143.36
405.306	100.35
405.515	165.89
405.724	73.73
405.933	145.41
406.142	178.17
406.35	139.26
406.559	174.08
406.768	141.31
406.977	174.08
407.185	114.69
407.394	208.89
407.603	77.82
407.812	247.8
408.02	196.6
408.229	159.74
408.438	206.84
408.646	192.51
408.855	253.95
409.064	202.75
409.272	186.37
409.481	251.9
409.69	190.46
409.898	178.17
410.107	215.04
410.315	237.56
410.524	274.43
410.733	268.28
410.941	210.94
411.15	241.66
411.358	348.15
411.567	344.06
411.775	342.01
411.984	323.58
412.192	342.01
412.401	335.87
412.609	399.35
412.818	399.35
413.026	413.69
413.234	411.64
413.443	430.07
413.651	368.63
413.86	462.84
414.068	565.24
414.276	495.61
414.485	501.75
414.693	528.38
414.901	536.57
415.11	491.51
415.318	511.99
415.526	610.29
415.734	602.1
415.943	555
416.151	602.1
416.359	657.4
416.567	612.34
416.776	731.12
416.984	770.04
417.192	778.23
417.4	835.57
417.608	806.9
417.817	860.15
418.025	800.76
418.233	970.74
418.441	931.83
418.649	944.11
418.857	1011.7
419.065	1003.5
419.273	972.79
419.481	1159.15
419.689	1148.91
419.897	1234.93
420.105	1239.02
420.313	1277.93
420.521	1273.84
420.729	1447.91
420.937	1292.27
421.145	1431.53
421.353	1488.87
421.561	1581.03
421.769	1560.55
421.977	1699.81
422.185	1654.76
422.393	1730.53
422.601	1851.36
422.809	1867.75
423.017	1877.99
423.224	1937.38
423.432	1994.72
423.64	2060.26
423.848	2246.62
424.056	2230.24
424.263	2355.16
424.471	2283.49
424.679	2303.96
424.887	2590.68
425.094	2629.59
425.302	2641.88
425.51	2672.6
425.718	2797.53
425.925	2766.81
426.133	2811.86
426.341	3067.86
426.548	3174.35
426.756	3274.7
426.964	3284.94
427.171	3459.02
427.379	3405.77
427.586	3655.62
427.794	3567.56
428.001	3944.39
428.209	4014.02
428.417	3954.63
428.624	4224.96
428.832	4229.06
429.039	4278.21
429.247	4181.95
429.454	4636.6
429.662	5068.72
429.869	4607.93
430.076	5029.81
430.284	4902.84
430.491	5060.53
430.699	5318.57
430.906	5244.85
431.114	5363.63
431.321	5531.56
431.528	5623.72
431.736	5969.83
431.943	6242.21
432.15	6164.39
432.358	6250.4
432.565	6553.5
432.772	6490.01
432.979	6924.18
433.187	7036.82
433.394	6981.53
433.601	7532.43
433.808	7350.16
434.016	7622.54
434.223	7655.31
434.43	8167.3
434.637	8271.75
434.844	8628.09
435.052	8892.28
435.259	8726.39
435.466	8869.75
435.673	8832.89
435.88	9514.86
436.087	9758.57
436.294	9664.36
436.501	9748.33
436.708	9627.5
436.915	10102.63
437.122	10473.31
437.329	10309.47
437.537	11040.6
437.743	11052.89
437.95	11104.09
438.157	11614.03
438.364	12003.14
438.571	11953.99
438.778	12042.06
438.985	12869.44
439.192	12453.7
439.399	12963.64
439.606	12629.82
439.813	13465.39
440.02	14266.15
440.227	14190.38
440.433	13829.93
440.64	14376.74
440.847	14397.22
441.054	14694.18
441.261	15474.45
441.467	15298.33
441.674	15529.75
441.881	16211.72
442.088	16283.4
442.294	15822.61
442.501	16611.07
442.708	16692.99
442.914	17252.09
443.121	18249.45
443.328	17862.38
443.534	18929.38
443.741	18269.93
443.948	18073.32
444.154	19394.26
444.361	19406.55
444.568	19433.18
444.774	19777.23
444.981	19869.39
445.187	20326.09
445.394	20938.43
445.6	20842.18
445.807	22998.69
446.013	22169.26
446.22	22359.72
446.426	23287.45
446.633	23492.25
446.839	24352.4
447.046	22884
447.252	24616.58
447.459	24405.64
447.665	24217.23
447.871	25654.9
448.078	26482.28
448.284	25067.14
448.491	26132.08
448.697	26865.25
448.903	27592.28
449.11	27905.62
449.316	27127.39
449.522	27803.22
449.728	28085.84
449.935	28425.81
450.141	28544.59
450.347	29204.03
450.553	28188.24
450.76	28438.09
450.966	29761.08
451.172	29118.02
451.378	30238.26
451.584	29173.31
451.791	30330.42
451.997	29865.53
452.203	30541.36
452.409	30590.51
452.615	30225.97
452.821	29374.02
453.027	28927.56
453.233	30977.58
453.44	29222.47
453.646	29478.46
453.852	29689.4
454.058	30289.46
454.264	29310.53
454.47	29922.87
454.676	29222.47
454.882	29926.97
455.088	27551.32
455.294	27872.85
455.5	28235.35
455.705	28829.26
455.911	27434.59
456.117	26912.36
456.323	26576.49
456.529	25185.92
456.735	26300.01
456.941	26025.59
457.147	25169.54
457.352	24524.43
457.558	24229.52
457.764	24178.32
457.97	23789.2
458.176	23174.81
458.381	23256.73
458.587	22140.59
458.793	22212.27
458.999	21337.79
459.204	22531.75
459.41	21806.77
459.616	20846.27
459.821	20516.55
460.027	20442.82
460.233	20022.99
460.438	18831.07
460.644	18974.43
460.85	18329.32
461.055	17944.3
461.261	17936.11
461.466	16647.94
461.672	16117.51
461.878	17364.73
462.083	16277.26
462.289	15705.87
462.494	15728.4
462.7	15011.61
462.905	14421.8
463.111	15107.87
463.316	15197.98
463.522	14950.17
463.727	14735.14
463.932	14982.94
464.138	14589.73
464.343	14614.31
464.549	14421.8
464.754	14839.58
464.959	14708.51
465.165	14575.39
465.37	13952.81
465.575	13401.91
465.781	14022.44
465.986	14341.93
466.191	13756.21
466.397	13416.24
466.602	12658.49
466.807	13152.06
467.012	13414.2
467.218	13326.13
467.423	12818.24
467.628	13014.84
467.833	13659.95
468.038	13068.09
468.244	12752.7
468.449	13295.41
468.654	12791.61
468.859	12861.24
469.064	12730.17
469.269	12181.32
469.474	12480.32
469.679	12457.79
469.885	12193.61
470.09	12339.01
470.295	12326.72
470.5	11960.14
470.705	12130.12
470.91	11738.96
471.115	11937.61
471.32	11943.75
471.525	11790.16
471.73	11530.06
471.935	11437.91
472.139	10911.58
472.344	11327.32
472.549	11151.19
472.754	11097.94
472.959	10800.99
473.164	10497.89
473.369	10614.62
473.574	10864.47
473.778	10588
473.983	10600.29
474.188	10659.68
474.393	10086.25
474.598	10202.98
474.802	10033
475.007	9897.83
475.212	9777
475.417	9496.43
475.621	9496.43
475.826	9676.65
476.031	9465.71
476.235	9039.73
476.44	9602.93
476.645	9119.6
476.849	9213.81
477.054	9074.55
477.259	8894.33
477.463	8908.66
477.668	8550.27
477.872	8683.39
478.077	8621.95
478.282	8435.58
478.486	8460.16
478.691	8425.34
478.895	8521.6
479.1	8374.14
479.304	8232.83
479.509	7985.03
479.713	8234.88
479.918	8066.95
480.122	7847.82
480.326	7987.08
480.531	7954.31
480.735	7788.43
480.94	7901.06
481.144	7948.17
481.348	7636.88
481.553	7739.27
481.757	7544.72
481.961	7894.92
482.166	7894.92
482.37	7798.66
482.574	7491.47
482.778	7778.19
482.983	7921.54
483.187	7729.03
483.391	7866.25
483.595	7677.83
483.8	7348.11
484.004	7706.51
484.208	7712.65
484.412	7706.51
484.616	7757.71
484.821	7739.27
485.025	7499.66
485.229	7761.8
485.433	7514
485.637	7571.34
485.841	7436.17
486.045	7815.05
486.249	7655.31
486.453	7597.96
486.657	7608.2
486.861	7774.09
487.065	7468.94
487.269	7655.31
487.473	7493.52
487.677	7665.55
487.881	7909.26
488.085	7569.29
488.289	7757.71
488.493	7552.91
488.697	7665.55
488.901	7714.7
489.105	7722.89
489.309	7628.68
489.512	7847.82
489.716	7626.64
489.92	7729.03
490.124	7657.36
490.328	7985.03
490.531	7716.75
490.735	7690.12
490.939	7907.21
491.143	7837.58
491.346	7794.57
491.55	7991.17
491.754	7870.34
491.958	7917.45
492.161	7993.22
492.365	8112
492.569	8095.62
492.772	8021.89
492.976	8216.45
493.18	8195.97
493.383	8308.61
493.587	8146.82
493.79	8286.08
493.994	8273.79
494.197	8349.57
494.401	8363.9
494.605	8333.18
494.808	8646.52
495.012	8488.83
495.215	8712.06
495.419	8796.03
495.622	8810.36
495.825	8808.31
496.029	8990.58
496.232	8984.44
496.436	8912.76
496.639	9289.59
496.843	8992.63
497.046	9246.58
497.249	9613.17
497.453	9731.95
497.656	9420.66
497.859	9631.6
498.063	9635.69
498.266	9891.69
498.469	9793.39
498.673	9813.87
498.876	10211.17
499.079	10022.76
499.282	10080.1
499.485	10344.29
499.689	10544.99
499.892	10600.29
500.095	10622.81
500.298	10989.4
500.501	10893.15
500.705	11327.32
500.908	11143
501.111	11263.83
501.314	11413.33
501.517	11605.84
501.72	11511.63
501.923	11677.52
502.126	11894.6
502.329	11966.28
502.532	12093.26
502.735	12334.92
502.938	12474.18
503.141	12435.27
503.344	12764.99
503.547	12728.13
503.75	12957.5
503.953	13063.99
504.156	13123.38
504.359	13328.18
504.562	13434.67
504.765	13684.53
504.968	13827.89
505.17	13844.27
505.373	13952.81
505.576	14040.87
505.779	14423.84
505.982	14511.91
506.185	14868.25
506.387	14708.51
506.59	14851.87
506.793	15269.65
506.996	15152.92
507.198	15582.99
507.401	15587.09
507.604	15750.93
507.807	15888.14
508.009	15892.24
508.212	16416.52
508.415	16432.9
508.617	16606.98
508.82	16598.79
509.022	16625.41
509.225	16889.6
509.428	17188.6
509.63	17456.89
509.833	17241.85
510.035	17884.91
510.238	17704.69
510.44	18054.89
510.643	18282.22
510.845	18263.79
511.048	18161.39
511.25	18503.4
511.453	18603.75
511.655	19359.45
511.858	18953.95
512.06	19607.25
512.262	19623.64
512.465	19652.31
512.667	19842.77
512.87	20027.09
513.072	20125.39
513.274	20508.36
513.477	20557.51
513.679	20635.33
513.881	21012.16
514.084	21040.83
514.286	21192.38
514.488	21438.14
514.69	21769.91
514.893	22142.64
515.095	22124.21
515.297	22312.62
515.499	22392.49
515.701	22693.54
515.904	22906.53
516.106	23211.68
516.308	23176.86
516.51	23461.53
516.712	23576.22
516.914	24112.78
517.116	24282.77
517.318	24211.09
517.52	24626.82
517.722	24766.09
517.925	24921.73
518.127	25366.14
518.329	25349.76
518.531	25144.96
518.733	26001.01
518.935	25644.66
519.136	26039.92
519.338	26123.89
519.54	26527.34
519.742	27045.48
519.944	26932.84
520.146	27477.6
520.348	27342.43
520.55	27469.4
520.752	27860.57
520.954	27960.92
521.155	28010.07
521.357	28640.84
521.559	28513.87
521.761	28763.72
521.963	28751.43
522.164	28991.05
522.366	29142.6
522.568	29396.54
522.77	29744.7
522.971	30240.31
523.173	29326.91
523.375	30244.4
523.576	30123.57
523.778	30369.33
523.98	30572.08
524.181	31084.07
524.383	31008.29
524.584	31170.08
524.786	31553.05
524.988	31278.63
525.189	31329.83
525.391	31778.33
525.592	32280.08
525.794	32247.32
525.995	32202.26
526.197	32409.11
526.398	32456.21
526.6	32818.7
526.801	32849.42
527.003	32849.42
527.204	32861.71
527.406	33525.25
527.607	33414.66
527.808	33560.06
528.01	33107.46
528.211	33541.63
528.412	33689.09
528.614	33850.88
528.815	33832.44
529.016	34059.77
529.218	33891.83
529.419	33857.02
529.62	34217.46
529.822	34256.37
530.023	34205.17
530.224	34530.8
530.425	34745.84
530.626	34172.41
530.828	34242.04
531.029	34960.87
531.23	34485.75
531.431	34237.94
531.632	34856.43
531.833	34801.13
532.035	34805.23
532.236	34631.15
532.437	35112.42
532.638	34954.73
532.839	35296.74
533.04	34952.68
533.241	34893.29
533.442	35532.26
533.643	35247.59
533.844	35212.77
534.045	35288.55
534.246	34663.92
534.447	35796.45
534.648	35464.67
534.849	35175.91
535.05	35329.51
535.251	35241.45
535.451	35018.22
535.652	35180.01
535.853	35352.04
536.054	35448.29
536.255	35122.66
536.456	35542.5
536.657	35253.73
536.857	35263.97
537.058	35259.88
537.259	35556.83
537.46	35331.56
537.66	35130.86
537.861	35114.47
538.062	35196.39
538.263	35706.34
538.463	35403.24
538.664	35464.67
538.865	35780.06
539.065	35896.8
539.266	35300.84
539.466	35794.4
539.667	34723.31
539.868	35708.38
540.068	35470.82
540.269	35194.34
540.469	34932.2
540.67	35304.93
540.87	35550.69
541.071	35153.38
541.271	35446.24
541.472	35474.91
541.672	34868.72
541.873	35159.53
542.073	34536.94
542.274	35481.06
542.474	35284.45
542.675	35065.32
542.875	35671.52
543.075	35233.25
543.276	34731.5
543.476	35182.06
543.676	35110.38
543.877	35290.6
544.077	35384.8
544.277	35364.32
544.478	35139.05
544.678	35626.46
544.878	34971.11
545.078	35192.29
545.279	34983.4
545.479	35190.25
545.679	34889.2
545.879	34952.68
546.079	35149.29
546.28	35139.05
546.48	35059.18
546.68	35583.46
546.88	35306.98
547.08	35065.32
547.28	34921.96
547.48	34502.13
547.68	35401.19
547.88	34899.44
548.081	35229.16
548.281	35053.03
548.481	34895.34
548.681	35161.58
548.881	35106.28
549.081	34975.21
549.28	35063.27
549.48	34944.49
549.68	35071.46
549.88	35292.65
550.08	34651.63
550.28	35286.5
550.48	34563.57
550.68	34975.21
550.88	34549.23
551.08	34774.51
551.279	34926.06
551.479	35085.8
551.679	34823.66
551.879	34911.72
552.079	34803.18
552.278	34821.61
552.478	34921.96
552.678	34549.23
552.878	34942.44
553.077	34657.78
553.277	34579.95
553.477	35057.13
553.676	34665.97
553.876	34582
554.076	34436.59
554.275	34708.97
554.475	34254.33
554.674	34688.49
554.874	34649.58
555.074	34684.4
555.273	34985.45
555.473	34774.51
555.672	34209.27
555.872	34211.32
556.071	34266.61
556.271	34459.12
556.47	34299.38
556.67	34176.5
556.869	34037.24
557.068	34266.61
557.268	34280.95
557.467	34067.96
557.667	34385.4
557.866	33938.94
558.065	34039.29
558.265	33820.16
558.464	33527.3
558.663	34180.6
558.863	33584.64
559.062	34121.21
559.261	33078.79
559.461	34211.32
559.66	33893.88
559.859	33631.74
560.058	33039.88
560.258	33510.91
560.457	33117.7
560.656	33570.3
560.855	33261.06
561.054	33537.54
561.253	33105.41
561.453	32923.15
561.652	33052.17
561.851	33068.55
562.05	33285.64
562.249	32779.79
562.448	33611.26
562.647	32818.7
562.846	32820.75
563.045	32898.57
563.244	32357.91
563.443	33201.67
563.642	32593.42
563.841	32845.32
564.04	32249.36
564.239	32667.15
564.438	32384.53
564.637	32529.94
564.836	32531.98
565.035	32241.17
565.234	32318.99
565.432	32003.61
565.631	32124.44
565.83	31958.55
566.029	31761.95
566.228	32153.11
566.427	31528.48
566.625	31669.79
566.824	31514.14
567.023	31755.8
567.222	30699.05
567.42	31770.14
567.619	31387.17
567.818	31151.65
568.016	31561.25
568.215	31305.25
568.414	31200.8
568.612	31165.99
568.811	30826.03
569.01	31303.2
569.208	30582.32
569.407	30828.07
569.605	30627.37
569.804	30862.89
570.002	30338.61
570.201	30522.93
570.4	30135.86
570.598	30260.79
570.797	30123.57
570.995	30357.04
571.193	29644.35
571.392	30164.53
571.59	29654.59
571.789	29718.07
571.987	29613.63
572.186	29503.04
572.384	29644.35
572.582	29791.8
572.781	29896.25
572.979	29238.85
573.177	29478.46
573.376	29546.05
573.574	29367.87
573.772	29386.3
573.971	28763.72
574.169	28919.37
574.367	28870.22
574.565	29128.26
574.763	28847.69
574.962	28784.2
575.16	28612.17
575.358	28771.91
575.556	28198.48
575.754	28790.34
575.952	28427.85
576.151	28620.36
576.349	28018.26
576.547	28370.51
576.745	28227.15
576.943	28323.41
577.141	28124.75
577.339	28280.4
577.537	27936.34
577.735	27999.83
577.933	27573.85
578.131	27844.18
578.329	27446.88
578.527	27244.13
578.725	27573.85
578.923	27360.86
579.121	27176.55
579.319	27162.21
579.516	27395.68
579.714	27201.12
579.912	26777.19
580.11	27063.91
580.308	26758.76
580.506	27092.58
580.704	26392.17
580.901	26805.86
581.099	27135.59
581.297	26773.1
581.495	26732.14
581.692	26629.74
581.89	26240.62
582.088	26416.75
582.285	26144.37
582.483	26441.32
582.681	26087.03
582.878	26078.83
583.076	25980.53
583.274	26029.68
583.471	25568.89
583.669	26152.56
583.866	25454.2
584.064	25656.95
584.262	25308.8
584.459	25726.58
584.657	25341.57
584.854	25499.26
585.052	25226.88
585.249	25099.9
585.447	25079.43
585.644	25106.05
585.841	25005.7
586.039	25136.77
586.236	24737.41
586.434	24997.51
586.631	24864.39
586.828	24712.84
587.026	24594.06
587.223	24542.86
587.42	24532.62
587.618	24325.77
587.815	24073.87
588.012	24446.6
588.21	24190.61
588.407	24096.4
588.604	24147.6
588.801	23971.47
588.999	23803.54
589.196	23873.17
589.393	23924.37
589.59	23643.8
589.787	23541.4
589.984	23402.14
590.182	23320.22
590.379	23363.23
590.576	23455.39
590.773	23359.13
590.97	22998.69
591.167	23514.78
591.364	22648.49
591.561	23387.8
591.758	22937.25
591.955	22902.43
592.152	23043.74
592.349	22879.91
592.546	22955.68
592.743	22740.65
592.94	22619.81
593.137	22312.62
593.334	22789.8
593.531	22425.26
593.727	22570.66
593.924	22240.94
594.121	22349.48
594.318	22273.71
594.515	21927.6
594.712	22320.81
594.908	21776.05
595.105	22281.9
595.302	21841.59
595.499	21941.94
595.696	21714.61
595.892	21731
596.089	21794.48
596.286	21528.25
596.482	21438.14
596.679	21667.51
596.876	21479.1
597.072	21124.8
597.269	21012.16
597.466	21110.46
597.662	20893.38
597.859	21079.74
598.055	21008.06
598.252	20917.95
598.448	20897.47
598.645	20846.27
598.841	20577.99
599.038	20698.82
599.234	20721.35
599.431	20594.37
599.627	20154.06
599.824	20661.96
600.02	20549.32
600.217	20139.72
600.413	20254.41
600.609	20201.16
600.806	20100.81
601.002	20209.36
601.198	20139.72
601.395	19799.76
601.591	20004.56
601.787	19957.46
601.984	19893.97
602.18	20117.2
602.376	19758.8
602.572	19363.54
602.769	19631.83
602.965	19359.45
603.161	19562.2
603.357	19289.82
603.553	19281.63
603.75	19394.26
603.946	19375.83
604.142	18829.02
604.338	19056.35
604.534	19052.25
604.73	19058.4
604.926	19109.6
605.122	18972.38
605.318	18831.07
605.514	18831.07
605.71	18527.97
605.906	18597.6
606.102	18632.42
606.298	18767.59
606.494	18554.6
606.69	18425.57
606.886	18163.43
607.082	18206.44
607.278	18566.88
607.474	18138.86
607.67	18317.03
607.866	18151.15
608.062	18499.3
608.257	17856.24
608.453	17913.58
608.649	18009.84
608.845	17704.69
609.041	17880.82
609.236	17895.15
609.432	17854.19
609.628	17751.79
609.824	17698.55
610.019	17563.38
610.215	17614.58
610.411	17731.31
610.606	17585.91
610.802	17520.37
610.998	17430.26
611.193	17700.59
611.389	17184.51
611.584	17495.8
611.78	17323.77
611.976	17467.13
612.171	17534.71
612.367	17293.05
612.562	17368.82
612.758	17090.3
612.953	17061.63
613.149	17336.06
613.344	17200.89
613.539	17305.34
613.735	17235.7
613.93	17051.39
614.126	17084.16
614.321	17247.99
614.517	17149.69
614.712	16719.62
614.907	16895.74
615.103	17241.85
615.298	16731.9
615.493	17096.44
615.688	16740.1
615.884	17178.36
616.079	16711.42
616.274	16928.51
616.47	16514.82
616.665	16592.64
616.86	16512.77
617.055	16629.51
617.25	16611.07
617.445	16547.59
617.641	16209.67
617.836	16359.17
618.031	16076.55
618.226	16406.28
618.421	16084.75
618.616	16303.88
618.811	15812.37
619.006	16164.62
619.201	15863.57
619.396	16185.1
619.591	15927.05
619.786	16115.47
619.981	15687.44
620.176	15879.95
620.371	15601.43
620.566	15492.88
620.761	15468.31
620.956	15593.23
621.151	15109.91
621.346	15415.06
621.541	15261.46
621.735	15394.58
621.93	15011.61
622.125	14966.56
622.32	14925.6
622.515	14817.05
622.709	14616.35
622.904	14862.11
623.099	14550.82
623.294	14616.35
623.488	14374.69
623.683	14495.52
623.878	14282.53
624.072	14497.57
624.267	14141.22
624.462	14126.89
624.656	14090.02
624.851	14008.11
625.046	14126.89
625.24	13956.91
625.435	13750.06
625.629	13715.25
625.824	13524.79
626.018	13666.1
626.213	13526.83
626.407	13154.1
626.602	13262.65
626.796	13262.65
626.991	13266.74
627.185	13209.4
627.38	13100.86
627.574	12922.68
627.768	13063.99
627.963	12873.53
628.157	12562.24
628.352	12676.93
628.546	12496.71
628.74	12568.38
628.935	12572.48
629.129	12506.95
629.323	12486.47
629.517	12158.79
629.712	12465.99
629.906	12207.94
630.1	11974.47
630.294	12023.62
630.489	12035.91
630.683	11919.18
630.877	11747.15
631.071	11867.98
631.265	11747.15
631.459	11591.5
631.653	11458.39
631.848	11571.02
632.042	11429.71
632.236	11360.08
632.43	11341.65
632.624	11503.44
632.818	11222.87
633.012	11190.1
633.206	11284.31
633.4	10921.82
633.594	10895.19
633.788	10968.92
633.982	10981.21
634.176	10887
634.369	10596.19
634.563	10776.41
634.757	10710.88
634.951	10760.03
635.145	10647.39
635.339	10702.68
635.533	10387.3
635.726	10501.98
635.92	10325.86
636.114	10274.66
636.308	10272.61
636.501	10170.21
636.695	10293.09
636.889	10121.06
637.083	10008.42
637.276	10033
637.47	10094.44
637.664	9766.76
637.857	9637.74
638.051	9944.94
638.244	9656.17
638.438	9772.91
638.632	9713.52
638.825	9340.79
639.019	9467.76
639.212	9441.14
639.406	9576.3
639.599	9340.79
639.793	9424.75
639.986	9250.67
640.18	9156.47
640.373	9142.13
640.567	9193.33
640.76	9205.62
640.954	9033.59
641.147	9078.65
641.34	8871.8
641.534	8865.66
641.727	8834.94
641.92	8984.44
642.114	8818.55
642.307	8634.24
642.5	8626.04
642.694	8540.03
642.887	8497.02
643.08	8667
643.273	8423.3
643.467	8576.89
643.66	8284.03
643.853	8390.53
644.046	8331.14
644.239	8355.71
644.432	8238.98
644.626	8220.55
644.819	8134.53
645.012	8071.04
645.205	8048.52
645.398	8081.28
645.591	8005.51
645.784	7880.58
645.977	7774.09
646.17	8009.61
646.363	7950.21
646.556	7653.26
646.749	7473.04
646.942	7669.64
647.135	7563.15
647.328	7360.4
647.521	7645.07
647.714	7491.47
647.907	7567.24
648.099	7514
648.292	7511.95
648.485	7403.41
648.678	7282.58
648.871	7139.22
649.064	7382.93
649.256	7274.38
649.449	7311.25
649.642	6954.9
649.835	6883.22
650.027	6967.19
650.22	7071.64
650.413	6959
650.605	7040.92
650.798	7004.05
650.991	6696.86
651.183	6838.17
651.376	6719.39
651.568	6870.94
651.761	6625.18
651.954	6670.23
652.146	6705.05
652.339	6774.68
652.531	6688.67
652.724	6739.87
652.916	6496.16
653.109	6516.64
653.301	6383.52
653.494	6637.47
653.686	6391.71
653.879	6385.57
654.071	6369.18
654.263	6387.61
654.456	6354.85
654.648	6037.41
654.84	6121.38
655.033	6094.75
655.225	5920.68
655.417	6076.32
655.61	6145.95
655.802	5961.64
655.994	6059.94
656.186	6043.56
656.379	5693.35
656.571	5910.44
656.763	5885.86
656.955	5810.09
657.148	5928.87
657.34	5857.19
657.532	5826.47
657.724	5742.5
657.916	5715.88
658.108	5660.59
658.3	5650.35
658.492	5588.91
658.684	5719.98
658.876	5578.67
659.068	5556.14
659.26	5490.6
659.452	5541.8
659.644	5412.78
659.836	5531.56
660.028	5339.05
660.22	5228.46
660.412	5472.17
660.604	5277.62
660.796	5146.55
660.988	5261.23
661.18	5326.77
661.372	5167.03
661.563	5154.74
661.755	5142.45
661.947	5218.22
662.139	5009.33
662.331	5083.06
662.522	5007.28
662.714	4997.04
662.906	4995
663.097	5107.63
663.289	4933.56
663.481	4947.89
663.673	4841.4
663.864	4812.73
664.056	4822.97
664.247	4802.49
664.439	4779.96
664.631	4825.01
664.822	4802.49
665.014	4865.97
665.205	4773.82
665.397	4630.46
665.588	4786.1
665.78	4687.8
665.971	4702.14
666.163	4718.52
666.354	4679.61
666.546	4624.31
666.737	4542.39
666.929	4468.67
667.12	4542.39
667.311	4442.04
667.503	4554.68
667.694	4347.84
667.885	4405.18
668.077	4540.35
668.268	4487.1
668.459	4421.56
668.651	4298.69
668.842	4380.61
669.033	4282.3
669.224	4313.02
669.416	4364.22
669.607	4333.5
669.798	4147.14
669.989	4233.15
670.18	4388.8
670.371	4120.51
670.563	4161.47
670.754	4104.13
670.945	4042.69
671.136	4216.77
671.327	4110.27
671.518	4224.96
671.709	4071.36
671.9	4102.08
672.091	3997.63
672.282	3973.06
672.473	3889.09
672.664	3995.59
672.855	3874.76
673.046	4075.46
673.237	4030.4
673.428	3891.14
673.619	4024.26
673.809	3872.71
674	3833.8
674.191	3903.43
674.382	3841.99
674.573	3878.85
674.764	3848.13
674.954	3915.72
675.145	3811.27
675.336	3801.03
675.527	3889.09
675.717	3987.4
675.908	3803.08
676.099	3958.72
676.289	3930.05
676.48	3717.06
676.671	3807.17
676.861	3719.11
677.052	3743.69
677.243	3745.73
677.433	3686.34
677.624	3790.79
677.814	3721.16
678.005	3694.54
678.195	3729.35
678.386	3776.45
678.576	3729.35
678.767	3692.49
678.957	3596.23
679.148	3653.58
679.338	3692.49
679.529	3669.96
679.719	3678.15
679.909	3686.34
680.1	3663.82
680.29	3790.79
680.481	3448.78
680.671	3745.73
680.861	3741.64
681.052	3598.28
681.242	3559.37
681.432	3592.14
681.622	3536.84
681.813	3512.27
682.003	3565.51
682.193	3583.95
682.383	3659.72
682.573	3573.71
682.764	3442.64
682.954	3416.01
683.144	3475.4
683.334	3416.01
683.524	3395.53
683.714	3428.3
683.904	3522.51
684.094	3420.11
684.284	3352.52
684.474	3534.79
684.664	3461.07
684.854	3418.06
685.044	3497.93
685.234	3327.95
685.424	3483.59
685.614	3344.33
685.804	3385.29
685.994	3315.66
686.184	3301.33
686.374	3354.57
686.564	3336.14
686.753	3309.52
686.943	3246.03
687.133	3174.35
687.323	3334.09
687.513	3137.49
687.702	3291.09
687.892	3256.27
688.082	3192.78
688.272	3262.41
688.461	3254.22
688.651	3227.6
688.841	3114.96
689.03	3086.29
689.22	3164.11
689.41	3045.33
689.599	2996.18
689.789	2996.18
689.979	3141.58
690.168	3088.34
690.358	2965.46
690.547	2967.51
690.737	3082.19
690.926	3092.43
691.116	2873.3
691.305	3061.71
691.495	2908.12
691.684	2985.94
691.874	2885.59
692.063	2858.96
692.252	2824.15
692.442	2949.07
692.631	2744.28
692.82	2947.03
693.01	2770.9
693.199	2865.11
693.388	2793.43
693.578	2846.68
693.767	2789.33
693.956	2856.92
694.146	2836.44
694.335	2783.19
694.524	2740.18
694.713	2889.68
694.902	2805.72
695.092	2799.57
695.281	2701.27
695.47	2789.33
695.659	2652.12
695.848	2785.24
696.037	2750.42
696.226	2617.3
696.415	2715.61
696.604	2637.78
696.793	2654.17
696.982	2744.28
697.171	2693.08
697.36	2803.67
697.549	2684.89
697.738	2670.55
697.927	2594.78
698.116	2645.98
698.305	2662.36
698.494	2660.31
698.683	2586.58
698.872	2584.54
699.061	2701.27
699.25	2613.21
699.438	2594.78
699.627	2623.45
699.816	2617.3
700.005	2678.74
700.193	2617.3
700.382	2631.64
700.571	2697.17
700.76	2564.06
700.948	2660.31
701.137	2623.45
701.326	2588.63
701.514	2502.62
701.703	2555.86
701.892	2541.53
702.08	2635.74
702.269	2625.5
702.457	2672.6
702.646	2654.17
702.834	2478.04
703.023	2504.67
703.212	2512.86
703.4	2457.56
703.589	2641.88
703.777	2551.77
703.965	2545.63
704.154	2514.91
704.342	2539.48
704.531	2521.05
704.719	2486.23
704.907	2572.25
705.096	2500.57
705.284	2424.8
705.472	2519
705.661	2592.73
705.849	2504.67
706.037	2570.2
706.226	2521.05
706.414	2564.06
706.602	2516.95
706.79	2574.3
706.979	2504.67
707.167	2445.27
707.355	2527.19
707.543	2602.97
707.731	2465.75
707.919	2553.82
708.107	2566.1
708.296	2551.77
708.484	2494.43
708.672	2594.78
708.86	2498.52
709.048	2527.19
709.236	2539.48
709.424	2643.93
709.612	2480.09
709.8	2660.31
709.988	2629.59
710.176	2490.33
710.364	2533.34
710.551	2545.63
710.739	2641.88
710.927	2570.2
711.115	2566.1
711.303	2490.33
711.491	2506.71
711.679	2643.93
711.866	2568.15
712.054	2627.54
712.242	2557.91
712.43	2543.58
712.617	2500.57
712.805	2605.02
712.993	2605.02
713.181	2648.02
713.368	2519
713.556	2654.17
713.744	2582.49
713.931	2674.65
714.119	2547.67
714.306	2588.63
714.494	2643.93
714.682	2418.65
714.869	2461.66
715.057	2484.19
715.244	2562.01
715.432	2506.71
715.619	2574.3
715.807	2435.03
715.994	2590.68
716.182	2598.87
716.369	2543.58
716.556	2564.06
716.744	2717.65
716.931	2609.11
717.119	2652.12
717.306	2598.87
717.493	2576.34
717.681	2559.96
717.868	2607.06
718.055	2691.03
718.242	2680.79
718.43	2656.22
718.617	2715.61
718.804	2480.09
718.991	2543.58
719.179	2570.2
719.366	2660.31
719.553	2768.85
719.74	2609.11
719.927	2656.22
720.114	2654.17
720.301	2680.79
720.488	2682.84
720.676	2648.02
720.863	2596.82
721.05	2709.46
721.237	2645.98
721.424	2576.34
721.611	2619.35
721.798	2580.44
721.985	2590.68
722.172	2619.35
722.358	2547.67
722.545	2535.39
722.732	2707.41
722.919	2668.5
723.106	2588.63
723.293	2662.36
723.48	2566.1
723.667	2545.63
723.853	2680.79
724.04	2754.52
724.227	2613.21
724.414	2619.35
724.6	2648.02
724.787	2652.12
724.974	2695.13
725.161	2729.94
725.347	2609.11
725.534	2676.7
725.72	2680.79
725.907	2676.7
726.094	2650.07
726.28	2672.6
726.467	2650.07
726.653	2650.07
726.84	2709.46
727.027	2666.46
727.213	2623.45
727.4	2697.17
727.586	2627.54
727.773	2662.36
727.959	2668.5
728.145	2678.74
728.332	2637.78
728.518	2494.43
728.705	2684.89
728.891	2615.26
729.077	2713.56
729.264	2695.13
729.45	2678.74
729.636	2629.59
729.823	2711.51
730.009	2688.98
730.195	2531.29
730.382	2615.26
730.568	2582.49
730.754	2641.88
730.94	2678.74
731.126	2623.45
731.313	2775
731.499	2631.64
731.685	2686.93
731.871	2619.35
732.057	2547.67
732.243	2512.86
732.429	2711.51
732.615	2813.91
732.801	2717.65
732.987	2748.37
733.173	2633.69
733.359	2570.2
733.545	2691.03
733.731	2666.46
733.917	2736.09
734.103	2566.1
734.289	2682.84
734.475	2686.93
734.661	2525.15
734.847	2639.83
735.033	2605.02
735.219	2678.74
735.404	2576.34
735.59	2686.93
735.776	2535.39
735.962	2678.74
736.148	2697.17
736.333	2613.21
736.519	2650.07
736.705	2676.7
736.89	2549.72
737.076	2648.02
737.262	2521.05
737.447	2478.04
737.633	2463.71
737.819	2537.43
738.004	2562.01
738.19	2654.17
738.375	2611.16
738.561	2566.1
738.747	2582.49
738.932	2469.85
739.118	2508.76
739.303	2650.07
739.489	2553.82
739.674	2484.19
739.859	2490.33
740.045	2383.84
740.23	2557.91
740.416	2471.9
740.601	2596.82
740.786	2369.5
740.972	2478.04
741.157	2439.13
741.342	2394.08
741.528	2400.22
741.713	2408.41
741.898	2385.88
742.084	2308.06
742.269	2387.93
742.454	2408.41
742.639	2426.84
742.824	2455.51
743.01	2465.75
743.195	2471.9
743.38	2355.16
743.565	2359.26
743.75	2488.28
743.935	2324.44
744.12	2381.79
744.305	2160.61
744.49	2144.22
744.675	2242.53
744.86	2252.77
745.045	2201.57
745.23	2170.85
745.415	2275.29
745.6	2172.89
745.785	2240.48
745.97	2312.16
746.155	2281.44
746.34	2283.49
746.525	2256.86
746.71	2250.72
746.895	2129.89
747.079	2142.18
747.264	2142.18
747.449	2127.84
747.634	2144.22
747.819	2183.13
748.003	2131.94
748.188	2041.82
748.373	2066.4
748.557	2004.96
748.742	2052.06
748.927	2011.11
749.111	2068.45
749.296	2029.54
749.481	1972.19
749.665	2013.15
749.85	1900.51
750.034	1896.42
750.219	1892.32
750.404	1894.37
750.588	2027.49
750.773	1843.17
750.957	2050.02
751.141	1890.28
751.326	1966.05
751.51	1849.32
751.695	1800.16
751.879	1824.74
752.064	1886.18
752.248	1771.49
752.432	1849.32
752.617	1751.01
752.801	1773.54
752.985	1740.77
753.17	1771.49
753.354	1652.71
753.538	1742.82
753.722	1675.24
753.907	1681.38
754.091	1693.67
754.275	1650.66
754.459	1679.33
754.643	1611.75
754.828	1540.07
755.012	1718.25
755.196	1597.42
755.38	1548.26
755.564	1513.45
755.748	1445.87
755.932	1535.98
756.116	1603.56
756.3	1486.83
756.484	1562.6
756.668	1538.02
756.852	1437.67
757.036	1613.8
757.22	1388.52
757.404	1515.5
757.588	1427.43
757.772	1452.01
757.956	1480.68
758.14	1486.83
758.323	1433.58
758.507	1454.06
758.691	1380.33
758.875	1419.24
759.059	1374.19
759.242	1388.52
759.426	1400.81
759.61	1351.66
759.794	1222.64
759.977	1255.4
760.161	1322.99
760.345	1302.51
760.528	1335.28
760.712	1314.8
760.895	1290.22
761.079	1429.48
761.263	1259.5
761.446	1255.4
761.63	1257.45
761.813	1300.46
761.997	1208.3
762.18	1245.16
762.364	1316.84
762.547	1132.53
762.731	1245.16
762.914	1204.21
763.098	1124.33
763.281	1226.73
763.464	1140.72
763.648	1325.04
763.831	1232.88
764.015	1220.59
764.198	1177.58
764.381	1179.63
764.564	1093.62
764.748	1181.68
764.931	1146.86
765.114	1101.81
765.297	1153.01
765.481	1122.29
765.664	1091.57
765.847	1134.57
766.03	1118.19
766.213	1048.56
766.397	1216.49
766.58	1132.53
766.763	1079.28
766.946	1075.18
767.129	1081.33
767.312	950.26
767.495	1144.81
767.678	1103.86
767.861	1017.84
768.044	1026.03
768.227	1064.94
768.41	972.79
768.593	1009.65
768.776	980.98
768.959	964.59
769.142	1017.84
769.324	1032.18
769.507	1071.09
769.69	1026.03
769.873	1026.03
770.056	1023.98
770.239	913.39
770.421	958.45
770.604	903.15
770.787	942.07
770.97	987.12
771.152	876.53
771.335	935.92
771.518	897.01
771.7	952.31
771.883	980.98
772.066	952.31
772.248	884.72
772.431	970.74
772.613	950.26
772.796	860.15
772.978	894.96
773.161	976.88
773.343	878.58
773.526	899.06
773.708	862.19
773.891	948.21
774.073	843.76
774.256	874.48
774.438	901.11
774.621	841.72
774.803	847.86
774.985	772.08
775.168	788.47
775.35	835.57
775.532	745.46
775.715	858.1
775.897	806.9
776.079	770.04
776.261	804.85
776.444	753.65
776.626	714.74
776.808	770.04
776.99	829.43
777.173	765.94
777.355	776.18
777.537	767.99
777.719	782.32
777.901	659.45
778.083	724.98
778.265	761.84
778.447	743.41
778.629	704.5
778.811	704.5
778.993	626.68
779.175	729.08
779.357	626.68
779.539	708.6
779.721	735.22
779.903	651.25
780.085	708.6
780.267	647.16
780.449	567.29
780.631	638.97
780.812	634.87
780.994	669.69
781.176	569.34
781.358	673.78
781.54	610.29
781.721	636.92
781.903	591.86
782.085	661.49
782.267	657.4
782.448	610.29
782.63	636.92
782.812	577.53
782.993	579.58
783.175	600.05
783.357	538.62
783.538	581.62
783.72	438.27
783.901	585.72
784.083	598.01
784.264	620.53
784.446	540.66
784.627	544.76
784.809	481.27
784.99	501.75
785.172	511.99
785.353	454.65
785.535	520.18
785.716	505.85
785.897	491.51
786.079	518.14
786.26	464.89
786.441	417.79
786.623	479.22
786.804	532.47
786.985	532.47
787.167	454.65
787.348	485.37
787.529	522.23
787.71	477.18
787.891	415.74
788.073	518.14
788.254	387.07
788.435	501.75
788.616	489.46
788.797	423.93
788.978	387.07
789.159	378.87
789.34	505.85
789.522	342.01
789.703	391.16
789.884	432.12
790.065	413.69
790.246	481.27
790.427	348.15
790.607	399.35
790.788	432.12
790.969	401.4
791.15	405.5
791.331	407.55
791.512	430.07
791.693	374.78
791.874	391.16
792.054	419.83
792.235	454.65
792.416	468.98
792.597	301.05
792.778	270.33
792.958	327.67
793.139	342.01
793.32	378.87
793.5	387.07
793.681	385.02
793.862	303.1
794.042	378.87
794.223	372.73
794.404	272.38
794.584	262.14
794.765	344.06
794.945	331.77
795.126	315.39
795.306	366.59
795.487	321.53
795.667	321.53
795.848	315.39
796.028	303.1
796.209	325.63
796.389	362.49
796.57	284.67
796.75	286.72
796.93	268.28
797.111	274.43
797.291	284.67
797.471	264.19
797.652	256
797.832	223.23
798.012	321.53
798.192	262.14
798.373	235.52
798.553	270.33
798.733	256
798.913	284.67
799.093	274.43
799.274	239.61
799.454	323.58
799.634	344.06
799.814	303.1
799.994	335.87
800.174	292.86
800.354	200.7
800.534	206.84
800.714	219.13
800.894	212.99
801.074	305.15
801.254	272.38
801.434	313.34
801.614	290.81
801.794	217.08
801.974	690.17
802.154	294.91
802.334	247.8
802.514	198.65
802.693	227.32
802.873	212.99
803.053	292.86
803.233	202.75
803.413	276.48
803.592	194.56
803.772	172.03
803.952	227.32
804.131	126.97
804.311	280.57
804.491	264.19
804.67	227.32
804.85	204.8
805.03	200.7
805.209	235.52
805.389	180.22
805.568	204.8
805.748	116.73
805.928	247.8
806.107	180.22
806.287	176.13
806.466	266.24
806.646	227.32
806.825	176.13
807.004	225.28
807.184	249.85
807.363	159.74
807.543	208.89
807.722	206.84
807.901	118.78
808.081	169.98
808.26	133.12
808.439	163.84
808.619	137.21
808.798	188.41
808.977	245.76
809.156	206.84
809.336	178.17
809.515	153.6
809.694	233.47
809.873	202.75
810.052	165.89
810.231	221.18
810.411	223.23
810.59	186.37
810.769	194.56
810.948	182.27
811.127	43.01
811.306	143.36
811.485	165.89
811.664	274.43
811.843	122.88
812.022	200.7
812.201	122.88
812.38	112.64
812.559	102.4
812.737	161.79
812.916	135.17
813.095	167.93
813.274	145.41
813.453	186.37
813.632	206.84
813.811	223.23
813.989	141.31
814.168	129.02
814.347	155.65
814.526	129.02
814.704	167.93
814.883	157.69
815.062	94.21
815.24	94.21
815.419	157.69
815.598	137.21
815.776	159.74
815.955	172.03
816.133	141.31
816.312	131.07
816.49	106.49
816.669	200.7
816.847	186.37
817.026	151.55
817.204	137.21
817.383	157.69
817.561	-14.34
817.74	106.49
817.918	110.59
818.097	106.49
818.275	65.53
818.453	120.83
818.632	90.11
818.81	90.11
818.988	83.97
819.167	53.25
819.345	34.82
819.523	86.01
819.701	151.55
819.879	135.17
820.058	104.45
820.236	88.06
820.414	131.07
820.592	163.84
820.77	59.39
820.948	143.36
821.127	153.6
821.305	151.55
821.483	133.12
821.661	122.88
821.839	10.24
822.017	118.78
822.195	165.89
822.373	155.65
822.551	161.79
822.729	102.4
822.907	112.64
823.085	122.88
823.262	102.4
823.44	153.6
823.618	83.97
823.796	110.59
823.974	71.68
824.152	143.36
824.329	67.58
824.507	112.64
824.685	30.72
824.863	149.5
825.04	59.39
825.218	124.93
825.396	75.77
825.574	83.97
825.751	135.17
825.929	102.4
826.107	145.41
826.284	71.68
826.462	40.96
826.639	73.73
826.817	90.11
826.994	81.92
827.172	10.24
827.349	108.54
827.527	135.17
827.704	114.69
827.882	77.82
828.059	118.78
828.237	43.01
828.414	143.36
828.591	106.49
828.769	116.73
828.946	63.49
829.124	65.53
829.301	53.25
829.478	30.72
829.655	96.25
829.833	131.07
830.01	47.1
830.187	88.06
830.364	65.53
830.542	106.49
830.719	143.36
830.896	124.93
831.073	86.01
831.25	16.38
831.427	69.63
831.604	79.87
831.782	45.06
831.959	65.53
832.136	67.58
832.313	96.25
832.49	36.86
832.667	43.01
832.844	88.06
833.021	65.53
833.198	40.96
833.374	-14.34
833.551	65.53
833.728	83.97
833.905	-36.86
834.082	10.24
834.259	36.86
834.436	47.1
834.612	-79.87
834.789	88.06
834.966	98.3
835.143	112.64
835.319	43.01
835.496	108.54
835.673	57.34
835.85	63.49
836.026	10.24
836.203	45.06
836.38	2.05
836.556	71.68
836.733	96.25
836.909	90.11
837.086	34.82
837.262	77.82
837.439	100.35
837.616	67.58
837.792	102.4
837.968	75.77
838.145	40.96
838.321	131.07
838.498	126.97
838.674	6.14
838.851	28.67
839.027	-12.29
839.203	51.2
839.38	14.34
839.556	20.48
839.732	-40.96
839.909	40.96
840.085	-51.2
840.261	22.53
840.437	104.45
840.614	-8.19
840.79	38.91
840.966	12.29
841.142	43.01
841.318	36.86
841.494	28.67
841.671	-6.14
841.847	-32.77
842.023	51.2
842.199	86.01
842.375	-8.19
842.551	43.01
842.727	18.43
842.903	67.58
843.079	-43.01
843.255	-8.19
843.431	-38.91
843.607	51.2
843.783	12.29
843.959	36.86
844.134	67.58
844.31	20.48
844.486	77.82
844.662	-6.14
844.838	86.01
845.013	-26.62
845.189	51.2
845.365	30.72
845.541	55.3
845.716	65.53
845.892	40.96
846.068	86.01
846.244	73.73
846.419	30.72
846.595	-43.01
846.77	92.16
846.946	16.38
847.122	49.15
847.297	53.25
847.473	59.39
847.648	-4.1
847.824	-32.77
847.999	-6.14
848.175	-14.34
848.35	-0
848.526	55.3
848.701	22.53
848.876	2.05
849.052	43.01
849.227	59.39
849.403	16.38
849.578	-4.1
849.753	26.62
849.929	59.39
850.104	-2.05
850.279	43.01
850.454	-14.34
850.63	104.45
850.805	53.25
850.98	22.53
851.155	-26.62
851.33	6.14
851.505	-51.2
851.681	36.86
851.856	-77.82
852.031	40.96
852.206	-57.34
852.381	4.1
852.556	30.72
852.731	16.38
852.906	36.86
853.081	-0
853.256	4.1
853.431	2.05
853.606	-49.15
853.781	53.25
853.956	-26.62
854.131	34.82
854.305	20.48
854.48	47.1
854.655	12.29
854.83	34.82
855.005	-10.24
855.18	106.49
855.354	34.82
855.529	30.72
855.704	8.19
855.879	-20.48
856.053	-30.72
856.228	40.96
856.403	28.67
856.577	32.77
856.752	18.43
856.926	10.24
857.101	24.58
857.276	2.05
857.45	-43.01
857.625	49.15
857.799	-6.14
857.974	4.1
858.148	-32.77
858.323	47.1
858.497	-22.53
858.672	22.53
858.846	-4.1
859.02	40.96
859.195	-16.38
859.369	18.43
859.543	-53.25
859.718	-30.72
859.892	-22.53
860.066	-73.73
860.241	-2.05
860.415	-4.1
860.589	24.58
860.763	-32.77
860.938	57.34
861.112	-20.48
861.286	75.77
861.46	-28.67
861.634	26.62
861.808	-14.34
861.982	69.63
862.157	47.1
862.331	-34.82
862.505	-28.67
862.679	-38.91
862.853	-53.25
863.027	51.2
863.201	61.44
863.375	94.21
863.549	24.58
863.722	4.1
863.896	45.06
864.07	55.3
864.244	61.44
864.418	83.97
864.592	-20.48
864.766	-36.86
864.939	-32.77
865.113	49.15
865.287	45.06
865.461	-53.25
865.634	-6.14
865.808	-0
865.982	-14.34
866.156	32.77
866.329	-12.29
866.503	6.14
866.676	-18.43
866.85	22.53
867.024	-8.19
867.197	20.48
867.371	-24.58
867.544	-12.29
867.718	57.34
867.891	-47.1
868.065	38.91
868.238	-38.91
868.412	38.91
868.585	-36.86
868.759	-71.68
868.932	-38.91
869.105	53.25
869.279	-24.58
869.452	-16.38
869.625	2.05
869.799	-59.39
869.972	-22.53
870.145	-67.58
870.319	22.53
870.492	12.29
870.665	-24.58
870.838	2.05
871.011	-90.11
871.185	-53.25
871.358	47.1
871.531	51.2
871.704	-32.77
871.877	4.1
872.05	98.3
872.223	10.24
872.396	16.38
872.569	-59.39
872.742	-38.91
872.915	57.34
873.088	-83.97
873.261	4.1
873.434	-26.62
873.607	10.24
873.78	51.2
873.953	-24.58
874.126	-6.14
874.299	-63.49
874.471	-26.62
874.644	-45.06
874.817	-67.58
874.99	26.62
875.163	4.1
875.335	-4.1
875.508	-79.87
875.681	10.24
875.853	-47.1
876.026	-8.19
876.199	-47.1
876.371	38.91
876.544	16.38
876.717	79.87
876.889	-0
877.062	-61.44
877.234	-26.62
877.407	-98.3
877.579	30.72
877.752	-26.62
877.924	20.48
878.097	18.43
878.269	-40.96
878.442	-2.05
878.614	30.72
878.786	28.67
878.959	6.14
879.131	-28.67
879.303	4.1
879.476	43.01
879.648	-61.44
879.82	2.05
879.993	55.3
880.165	10.24
880.337	-81.92
880.509	40.96
880.681	-26.62
880.854	-36.86
881.026	8.19
881.198	47.1
881.37	-61.44
881.542	43.01
881.714	-45.06
881.886	12.29
882.058	-47.1
882.23	43.01
882.402	8.19
882.574	-16.38
882.746	-34.82
882.918	22.53
883.09	34.82
883.262	-20.48
883.434	-34.82
883.606	-24.58
883.778	-57.34
883.95	-14.34
884.122	-51.2
884.293	18.43
884.465	-6.14
884.637	-49.15
884.809	-47.1
884.98	-57.34
885.152	-6.14
885.324	63.49
885.496	-16.38
885.667	-18.43
885.839	-38.91
886.011	-24.58
886.182	-51.2
886.354	49.15
886.525	-40.96
886.697	-12.29
886.869	12.29
887.04	10.24
887.212	32.77
887.383	59.39
887.555	-61.44
887.726	-24.58
887.897	-8.19
888.069	2.05
888.24	-69.63
888.412	38.91
888.583	18.43
888.754	-18.43
888.926	2.05
889.097	-36.86
889.268	-45.06
889.44	-2.05
889.611	-73.73
889.782	-38.91
889.953	-4.1
890.125	36.86
890.296	-2.05
890.467	-4.1
890.638	-38.91
890.809	-12.29
890.98	-86.01
891.151	20.48
891.323	6.14
891.494	-69.63
891.665	-12.29
891.836	-43.01
892.007	-67.58
892.178	-8.19
892.349	20.48
892.52	-14.34
892.691	-16.38
892.862	2.05
893.032	-55.3
893.203	-12.29
893.374	22.53
893.545	43.01
893.716	-16.38
893.887	77.82
894.057	-0
894.228	-20.48
894.399	-57.34
894.57	-6.14
894.74	-30.72
894.911	-57.34
895.082	-40.96
895.253	-38.91
895.423	2.05
895.594	-51.2
895.764	18.43
895.935	-8.19
896.106	2.05
896.276	-8.19
896.447	-61.44
896.617	-94.21
896.788	-57.34
896.958	-24.58
897.129	-22.53
897.299	-12.29
897.47	-43.01
897.64	-4.1
897.81	-0
897.981	-73.73
898.151	-124.93
898.322	-118.78
898.492	43.01
898.662	-24.58
898.832	-63.49
899.003	-59.39
899.173	-38.91
899.343	-2.05
899.513	-28.67
