Data from USB4F104151__76__11-52-43-920.txt Node

Date: Fri Mar 14 11:52:43 EDT 2025
User: louis
Spectrometer: USB4F10415
Trigger mode: 4
Integration Time (sec): 2.000000E-2
Scans to average: 1
Electric dark correction enabled: true
Nonlinearity correction enabled: false
Boxcar width: 0
XAxis mode: Wavelengths
Number of Pixels in Spectrum: 3648
>>>>>Begin Spectral Data<<<<<
178.204	-109.74
178.424	-109.74
178.644	-109.74
178.864	-81.07
179.084	-87.21
179.304	-7.34
179.524	41.81
179.744	7
179.964	-23.72
180.184	-68.78
180.404	-9.39
180.624	64.34
180.844	15.19
181.064	33.62
181.283	-15.53
181.503	-33.96
181.723	-3.24
181.943	-31.91
182.163	37.72
182.383	17.24
182.602	-46.25
182.822	64.34
183.042	-11.43
183.262	-17.58
183.482	-31.91
183.701	39.76
183.921	31.57
184.141	43.86
184.361	-1.19
184.58	9.05
184.8	-13.48
185.02	62.29
185.239	31.57
185.459	-21.67
185.679	9.05
185.898	-56.49
186.118	29.52
186.338	31.57
186.557	17.24
186.777	25.43
186.997	-17.58
187.216	-11.43
187.436	21.33
187.655	-44.2
187.875	23.38
188.095	37.72
188.314	-46.25
188.534	80.72
188.753	-3.24
188.973	13.14
189.192	39.76
189.412	-7.34
189.631	-27.82
189.851	35.67
190.07	-29.87
190.29	25.43
190.509	58.2
190.729	-25.77
190.948	-17.58
191.168	142.16
191.387	-1.19
191.607	-60.59
191.826	31.57
192.045	74.58
192.265	-21.67
192.484	29.52
192.704	21.33
192.923	39.76
193.142	25.43
193.362	-29.87
193.581	29.52
193.8	43.86
194.02	19.29
194.239	9.05
194.458	-1.19
194.678	9.05
194.897	-60.59
195.116	-9.39
195.335	-76.97
195.555	72.53
195.774	33.62
195.993	21.33
196.212	-50.35
196.432	-50.35
196.651	13.14
196.87	37.72
197.089	13.14
197.308	33.62
197.528	-15.53
197.747	17.24
197.966	54.1
198.185	64.34
198.404	37.72
198.623	2.9
198.842	-5.29
199.062	-31.91
199.281	21.33
199.5	-48.3
199.719	-1.19
199.938	62.29
200.157	-13.48
200.376	-23.72
200.595	-23.72
200.814	4.95
201.033	68.44
201.252	64.34
201.471	-31.91
201.69	-29.87
201.909	82.77
202.128	64.34
202.347	4.95
202.566	-68.78
202.785	2.9
203.004	-17.58
203.223	97.11
203.442	13.14
203.661	31.57
203.879	-33.96
204.098	82.77
204.317	-40.11
204.536	37.72
204.755	-1.19
204.974	21.33
205.193	7
205.411	15.19
205.63	17.24
205.849	-5.29
206.068	23.38
206.287	2.9
206.505	-13.48
206.724	-3.24
206.943	-1.19
207.162	33.62
207.381	35.67
207.599	-48.3
207.818	64.34
208.037	4.95
208.255	-31.91
208.474	-36.01
208.693	-33.96
208.911	7
209.13	31.57
209.349	31.57
209.567	-48.3
209.786	35.67
210.005	31.57
210.223	11.09
210.442	15.19
210.661	62.29
210.879	-48.3
211.098	43.86
211.316	-7.34
211.535	39.76
211.753	9.05
211.972	64.34
212.191	-17.58
212.409	27.48
212.628	17.24
212.846	0.85
213.065	35.67
213.283	64.34
213.502	23.38
213.72	-40.11
213.938	41.81
214.157	45.91
214.375	13.14
214.594	11.09
214.812	11.09
215.031	-31.91
215.249	0.85
215.467	-5.29
215.686	-9.39
215.904	11.09
216.122	-46.25
216.341	-25.77
216.559	-27.82
216.778	88.92
216.996	29.52
217.214	43.86
217.432	23.38
217.651	-40.11
217.869	13.14
218.087	4.95
218.306	52.05
218.524	-3.24
218.742	9.05
218.96	13.14
219.179	-31.91
219.397	35.67
219.615	43.86
219.833	0.85
220.051	-85.16
220.27	4.95
220.488	25.43
220.706	84.82
220.924	-9.39
221.142	31.57
221.36	45.91
221.578	62.29
221.796	-5.29
222.015	-29.87
222.233	-27.82
222.451	103.25
222.669	-27.82
222.887	-58.54
223.105	-25.77
223.323	68.44
223.541	4.95
223.759	41.81
223.977	62.29
224.195	29.52
224.413	-23.72
224.631	-5.29
224.849	19.29
225.067	29.52
225.285	4.95
225.503	52.05
225.721	-48.3
225.939	45.91
226.157	-17.58
226.375	-21.67
226.592	25.43
226.81	-23.72
227.028	2.9
227.246	47.96
227.464	50
227.682	15.19
227.9	45.91
228.117	7
228.335	-1.19
228.553	11.09
228.771	-23.72
228.989	29.52
229.206	-50.35
229.424	-60.59
229.642	2.9
229.86	41.81
230.077	13.14
230.295	2.9
230.513	4.95
230.731	66.39
230.948	-13.48
231.166	-17.58
231.384	-11.43
231.601	4.95
231.819	47.96
232.037	-9.39
232.254	-11.43
232.472	-7.34
232.689	-1.19
232.907	76.63
233.125	-54.44
233.342	-27.82
233.56	-68.78
233.777	-9.39
233.995	35.67
234.213	9.05
234.43	-23.72
234.648	-115.88
234.865	0.85
235.083	-9.39
235.3	-36.01
235.518	-68.78
235.735	47.96
235.953	54.1
236.17	54.1
236.388	29.52
236.605	0.85
236.822	23.38
237.04	31.57
237.257	50
237.475	13.14
237.692	37.72
237.909	31.57
238.127	15.19
238.344	-5.29
238.562	39.76
238.779	-11.43
238.996	-29.87
239.214	-15.53
239.431	56.15
239.648	-38.06
239.865	23.38
240.083	27.48
240.3	50
240.517	27.48
240.735	17.24
240.952	64.34
241.169	93.01
241.386	82.77
241.603	35.67
241.821	-13.48
242.038	27.48
242.255	19.29
242.472	-13.48
242.689	0.85
242.907	-15.53
243.124	-17.58
243.341	-7.34
243.558	-38.06
243.775	-52.39
243.992	-5.29
244.209	7
244.426	78.68
244.643	27.48
244.86	39.76
245.078	50
245.295	-21.67
245.512	60.24
245.729	9.05
245.946	0.85
246.163	54.1
246.38	56.15
246.597	52.05
246.814	0.85
247.031	47.96
247.248	2.9
247.464	0.85
247.681	-1.19
247.898	15.19
248.115	9.05
248.332	-5.29
248.549	84.82
248.766	33.62
248.983	13.14
249.2	-19.63
249.417	-44.2
249.633	-15.53
249.85	50
250.067	-13.48
250.284	27.48
250.501	-54.44
250.717	68.44
250.934	31.57
251.151	70.48
251.368	17.24
251.585	39.76
251.801	15.19
252.018	21.33
252.235	-33.96
252.451	-21.67
252.668	-5.29
252.885	76.63
253.102	-19.63
253.318	-17.58
253.535	-27.82
253.752	31.57
253.968	27.48
254.185	-27.82
254.401	39.76
254.618	17.24
254.835	31.57
255.051	13.14
255.268	39.76
255.484	31.57
255.701	37.72
255.917	7
256.134	33.62
256.351	33.62
256.567	17.24
256.784	19.29
257	-40.11
257.217	62.29
257.433	37.72
257.65	56.15
257.866	78.68
258.082	29.52
258.299	-48.3
258.515	52.05
258.732	-13.48
258.948	-5.29
259.165	39.76
259.381	9.05
259.597	-1.19
259.814	45.91
260.03	-27.82
260.246	19.29
260.463	4.95
260.679	41.81
260.895	29.52
261.112	4.95
261.328	70.48
261.544	-1.19
261.761	43.86
261.977	-70.83
262.193	52.05
262.409	-64.68
262.626	-36.01
262.842	-5.29
263.058	-40.11
263.274	119.64
263.49	23.38
263.707	45.91
263.923	2.9
264.139	62.29
264.355	31.57
264.571	21.33
264.787	37.72
265.004	41.81
265.22	54.1
265.436	68.44
265.652	-36.01
265.868	66.39
266.084	17.24
266.3	9.05
266.516	41.81
266.732	45.91
266.948	4.95
267.164	56.15
267.38	-56.49
267.596	-17.58
267.812	80.72
268.028	31.57
268.244	9.05
268.46	-7.34
268.676	11.09
268.892	4.95
269.108	47.96
269.324	-48.3
269.54	-31.91
269.756	99.16
269.972	-40.11
270.188	62.29
270.403	21.33
270.619	64.34
270.835	2.9
271.051	-17.58
271.267	-3.24
271.483	56.15
271.698	45.91
271.914	-29.87
272.13	-3.24
272.346	76.63
272.562	4.95
272.777	19.29
272.993	17.24
273.209	52.05
273.425	80.72
273.64	54.1
273.856	23.38
274.072	99.16
274.287	11.09
274.503	74.58
274.719	80.72
274.934	66.39
275.15	-27.82
275.366	66.39
275.581	-23.72
275.797	-17.58
276.012	7
276.228	21.33
276.444	-21.67
276.659	-40.11
276.875	-40.11
277.09	41.81
277.306	70.48
277.521	-1.19
277.737	52.05
277.952	9.05
278.168	27.48
278.383	15.19
278.599	15.19
278.814	58.2
279.03	56.15
279.245	50
279.461	9.05
279.676	68.44
279.892	-3.24
280.107	-13.48
280.322	15.19
280.538	68.44
280.753	-1.19
280.969	23.38
281.184	-1.19
281.399	86.87
281.615	2.9
281.83	15.19
282.045	-54.44
282.26	29.52
282.476	41.81
282.691	35.67
282.906	37.72
283.122	13.14
283.337	-9.39
283.552	123.73
283.767	25.43
283.983	27.48
284.198	64.34
284.413	-19.63
284.628	47.96
284.843	45.91
285.058	76.63
285.274	-7.34
285.489	0.85
285.704	35.67
285.919	-13.48
286.134	72.53
286.349	-9.39
286.564	74.58
286.779	-3.24
286.995	31.57
287.21	33.62
287.425	43.86
287.64	-19.63
287.855	33.62
288.07	15.19
288.285	17.24
288.5	39.76
288.715	23.38
288.93	45.91
289.145	27.48
289.36	13.14
289.575	84.82
289.79	19.29
290.004	-13.48
290.219	15.19
290.434	66.39
290.649	4.95
290.864	88.92
291.079	-1.19
291.294	-1.19
291.509	15.19
291.724	25.43
291.938	-5.29
292.153	0.85
292.368	-9.39
292.583	39.76
292.798	-9.39
293.012	9.05
293.227	-48.3
293.442	21.33
293.657	35.67
293.871	0.85
294.086	21.33
294.301	39.76
294.516	-15.53
294.73	56.15
294.945	4.95
295.16	0.85
295.374	-36.01
295.589	23.38
295.804	45.91
296.018	29.52
296.233	13.14
296.447	25.43
296.662	-36.01
296.877	50
297.091	-1.19
297.306	21.33
297.52	17.24
297.735	13.14
297.949	0.85
298.164	21.33
298.378	13.14
298.593	-13.48
298.807	39.76
299.022	25.43
299.236	11.09
299.451	-54.44
299.665	7
299.88	-5.29
300.094	-19.63
300.309	41.81
300.523	31.57
300.737	9.05
300.952	11.09
301.166	11.09
301.381	19.29
301.595	31.57
301.809	-7.34
302.024	11.09
302.238	31.57
302.452	37.72
302.667	76.63
302.881	-5.29
303.095	-19.63
303.309	23.38
303.524	0.85
303.738	90.96
303.952	-19.63
304.166	29.52
304.381	21.33
304.595	43.86
304.809	64.34
305.023	17.24
305.237	29.52
305.452	-46.25
305.666	-5.29
305.88	27.48
306.094	43.86
306.308	9.05
306.522	43.86
306.736	54.1
306.95	103.25
307.164	62.29
307.379	11.09
307.593	82.77
307.807	21.33
308.021	41.81
308.235	-29.87
308.449	-23.72
308.663	50
308.877	29.52
309.091	50
309.305	15.19
309.519	2.9
309.733	-19.63
309.947	-17.58
310.161	-19.63
310.374	62.29
310.588	111.44
310.802	-33.96
311.016	21.33
311.23	23.38
311.444	-5.29
311.658	13.14
311.872	2.9
312.085	43.86
312.299	29.52
312.513	15.19
312.727	41.81
312.941	72.53
313.154	39.76
313.368	23.38
313.582	-3.24
313.796	-3.24
314.009	119.64
314.223	56.15
314.437	23.38
314.651	21.33
314.864	-11.43
315.078	4.95
315.292	70.48
315.505	2.9
315.719	-19.63
315.933	39.76
316.146	29.52
316.36	-1.19
316.573	121.68
316.787	25.43
317.001	54.1
317.214	-33.96
317.428	2.9
317.641	78.68
317.855	-44.2
318.068	68.44
318.282	-36.01
318.495	90.96
318.709	29.52
318.922	37.72
319.136	58.2
319.349	43.86
319.563	-23.72
319.776	-23.72
319.99	-7.34
320.203	47.96
320.417	31.57
320.63	-15.53
320.843	50
321.057	-3.24
321.27	19.29
321.483	19.29
321.697	45.91
321.91	-21.67
322.124	37.72
322.337	86.87
322.55	84.82
322.763	11.09
322.977	-19.63
323.19	-5.29
323.403	-19.63
323.617	31.57
323.83	21.33
324.043	-13.48
324.256	-31.91
324.469	7
324.683	29.52
324.896	58.2
325.109	-27.82
325.322	41.81
325.535	35.67
325.748	99.16
325.962	-1.19
326.175	58.2
326.388	88.92
326.601	60.24
326.814	25.43
327.027	52.05
327.24	76.63
327.453	-52.39
327.666	4.95
327.879	19.29
328.092	58.2
328.305	37.72
328.518	27.48
328.731	-46.25
328.944	50
329.157	17.24
329.37	54.1
329.583	15.19
329.796	45.91
330.009	21.33
330.222	7
330.435	13.14
330.648	45.91
330.861	9.05
331.073	68.44
331.286	25.43
331.499	19.29
331.712	23.38
331.925	-19.63
332.138	-11.43
332.35	4.95
332.563	0.85
332.776	23.38
332.989	-21.67
333.202	15.19
333.414	-48.3
333.627	17.24
333.84	-38.06
334.053	74.58
334.265	-31.91
334.478	-9.39
334.691	-33.96
334.903	60.24
335.116	-3.24
335.329	68.44
335.541	11.09
335.754	-27.82
335.966	9.05
336.179	52.05
336.392	-83.11
336.604	-21.67
336.817	101.2
337.029	23.38
337.242	-113.83
337.454	93.01
337.667	35.67
337.88	23.38
338.092	33.62
338.305	-58.54
338.517	-1.19
338.729	56.15
338.942	7
339.154	31.57
339.367	41.81
339.579	19.29
339.792	-17.58
340.004	21.33
340.217	-46.25
340.429	60.24
340.641	-27.82
340.854	47.96
341.066	0.85
341.278	146.26
341.491	78.68
341.703	-1.19
341.915	45.91
342.128	78.68
342.34	52.05
342.552	23.38
342.764	43.86
342.977	35.67
343.189	23.38
343.401	74.58
343.613	-46.25
343.826	9.05
344.038	9.05
344.25	76.63
344.462	37.72
344.674	-25.77
344.886	35.67
345.099	39.76
345.311	33.62
345.523	39.76
345.735	64.34
345.947	-3.24
346.159	19.29
346.371	43.86
346.583	41.81
346.795	133.97
347.007	76.63
347.219	11.09
347.431	35.67
347.643	43.86
347.855	-15.53
348.067	17.24
348.279	0.85
348.491	21.33
348.703	54.1
348.915	76.63
349.127	-23.72
349.339	58.2
349.551	13.14
349.763	-23.72
349.975	-1.19
350.187	-9.39
350.399	60.24
350.61	54.1
350.822	31.57
351.034	4.95
351.246	41.81
351.458	-19.63
351.669	-3.24
351.881	-7.34
352.093	-48.3
352.305	84.82
352.517	43.86
352.728	127.83
352.94	64.34
353.152	39.76
353.363	45.91
353.575	9.05
353.787	60.24
353.999	33.62
354.21	43.86
354.422	62.29
354.633	-11.43
354.845	47.96
355.057	105.3
355.268	15.19
355.48	66.39
355.692	-23.72
355.903	2.9
356.115	0.85
356.326	43.86
356.538	62.29
356.749	50
356.961	27.48
357.172	-11.43
357.384	-50.35
357.595	47.96
357.807	-1.19
358.018	50
358.23	43.86
358.441	45.91
358.653	-11.43
358.864	64.34
359.075	-58.54
359.287	-3.24
359.498	25.43
359.709	43.86
359.921	21.33
360.132	50
360.344	-21.67
360.555	-11.43
360.766	-27.82
360.977	27.48
361.189	4.95
361.4	19.29
361.611	21.33
361.823	37.72
362.034	84.82
362.245	-36.01
362.456	50
362.667	37.72
362.879	15.19
363.09	84.82
363.301	39.76
363.512	43.86
363.723	9.05
363.935	-27.82
364.146	33.62
364.357	31.57
364.568	37.72
364.779	21.33
364.99	125.78
365.201	33.62
365.412	62.29
365.623	21.33
365.834	105.3
366.045	-5.29
366.256	17.24
366.467	-19.63
366.678	33.62
366.889	-11.43
367.1	-31.91
367.311	-3.24
367.522	7
367.733	95.06
367.944	29.52
368.155	-27.82
368.366	27.48
368.577	58.2
368.788	52.05
368.999	82.77
369.209	21.33
369.42	111.44
369.631	74.58
369.842	11.09
370.053	117.59
370.264	37.72
370.474	17.24
370.685	-17.58
370.896	105.3
371.107	21.33
371.317	74.58
371.528	33.62
371.739	74.58
371.95	76.63
372.16	43.86
372.371	7
372.582	97.11
372.792	2.9
373.003	27.48
373.214	-70.83
373.424	21.33
373.635	27.48
373.846	82.77
374.056	58.2
374.267	9.05
374.477	58.2
374.688	62.29
374.898	9.05
375.109	33.62
375.319	37.72
375.53	52.05
375.74	62.29
375.951	-17.58
376.161	43.86
376.372	45.91
376.582	39.76
376.793	99.16
377.003	64.34
377.214	31.57
377.424	-17.58
377.635	47.96
377.845	-33.96
378.055	25.43
378.266	17.24
378.476	-40.11
378.686	41.81
378.897	29.52
379.107	50
379.317	21.33
379.528	-11.43
379.738	33.62
379.948	62.29
380.158	66.39
380.369	72.53
380.579	27.48
380.789	52.05
380.999	109.4
381.21	37.72
381.42	78.68
381.63	13.14
381.84	45.91
382.05	47.96
382.261	50
382.471	15.19
382.681	60.24
382.891	7
383.101	0.85
383.311	21.33
383.521	17.24
383.731	78.68
383.941	4.95
384.151	37.72
384.361	54.1
384.571	33.62
384.781	-17.58
384.991	47.96
385.201	-3.24
385.411	62.29
385.621	86.87
385.831	41.81
386.041	45.91
386.251	23.38
386.461	17.24
386.671	78.68
386.881	60.24
387.091	-23.72
387.301	9.05
387.511	29.52
387.72	15.19
387.93	23.38
388.14	62.29
388.35	23.38
388.56	41.81
388.769	50
388.979	39.76
389.189	-56.49
389.399	0.85
389.609	82.77
389.818	64.34
390.028	21.33
390.238	-17.58
390.447	-11.43
390.657	15.19
390.867	68.44
391.076	4.95
391.286	72.53
391.496	-13.48
391.705	45.91
391.915	74.58
392.125	25.43
392.334	50
392.544	90.96
392.753	45.91
392.963	37.72
393.172	15.19
393.382	74.58
393.591	60.24
393.801	17.24
394.01	95.06
394.22	-13.48
394.429	99.16
394.639	37.72
394.848	62.29
395.058	33.62
395.267	39.76
395.477	37.72
395.686	41.81
395.895	90.96
396.105	97.11
396.314	58.2
396.524	101.2
396.733	4.95
396.942	72.53
397.152	68.44
397.361	76.63
397.57	127.83
397.78	78.68
397.989	66.39
398.198	86.87
398.407	58.2
398.617	60.24
398.826	86.87
399.035	176.98
399.244	11.09
399.453	80.72
399.663	84.82
399.872	4.95
400.081	68.44
400.29	154.45
400.499	74.58
400.708	119.64
400.917	90.96
401.127	109.4
401.336	74.58
401.545	84.82
401.754	31.57
401.963	140.12
402.172	86.87
402.381	131.92
402.59	37.72
402.799	119.64
403.008	60.24
403.217	111.44
403.426	101.2
403.635	84.82
403.844	27.48
404.053	93.01
404.262	152.4
404.471	158.55
404.68	62.29
404.888	162.64
405.097	140.12
405.306	93.01
405.515	95.06
405.724	129.88
405.933	115.54
406.142	117.59
406.35	95.06
406.559	121.68
406.768	152.4
406.977	205.65
407.185	150.36
407.394	246.61
407.603	170.83
407.812	125.78
408.02	148.31
408.229	191.31
408.438	191.31
408.646	166.74
408.855	219.99
409.064	267.09
409.272	187.22
409.481	222.03
409.69	242.51
409.898	312.14
410.107	226.13
410.315	273.23
410.524	197.46
410.733	267.09
410.941	281.43
411.15	295.76
411.358	242.51
411.567	363.34
411.775	320.34
411.984	344.91
412.192	306
412.401	349.01
412.609	402.26
412.818	381.78
413.026	342.86
413.234	357.2
413.443	441.17
413.651	455.5
413.86	512.85
414.068	557.9
414.276	488.27
414.485	402.26
414.693	572.24
414.901	598.86
415.11	566.09
415.318	541.52
415.526	621.39
415.734	574.28
415.943	600.91
416.151	668.49
416.359	592.72
416.567	652.11
416.776	787.27
416.984	746.31
417.192	785.23
417.4	736.07
417.608	848.71
417.817	883.53
418.025	785.23
418.233	1022.79
418.441	871.24
418.649	969.54
418.857	1088.32
419.065	1037.13
419.273	1094.47
419.481	1207.11
419.689	1127.24
419.897	1125.19
420.105	1215.3
420.313	1248.07
420.521	1370.94
420.729	1321.79
420.937	1350.46
421.145	1473.34
421.353	1487.68
421.561	1690.43
421.769	1594.17
421.977	1721.15
422.185	1669.95
422.393	1819.45
422.601	1866.55
422.809	1739.58
423.017	1925.94
423.224	2046.77
423.432	2044.73
423.64	1952.57
423.848	2214.71
424.056	2063.16
424.263	2304.82
424.471	2368.31
424.679	2233.14
424.887	2501.42
425.094	2560.81
425.302	2556.72
425.51	2671.4
425.718	2943.78
425.925	2800.43
426.133	2870.06
426.341	3121.96
426.548	3240.74
426.756	3156.77
426.964	3238.69
427.171	3509.02
427.379	3519.26
427.586	3695.39
427.794	3713.82
428.001	3859.23
428.209	3935
428.417	3947.29
428.624	4285.2
428.832	4399.89
429.039	4307.73
429.247	4315.92
429.454	4700.94
429.662	5042.95
429.869	4705.04
430.076	4983.56
430.284	4920.07
430.491	4961.03
430.699	5305.09
430.906	5243.65
431.114	5509.89
431.321	5565.18
431.528	5698.3
431.736	6230.77
431.943	6462.19
432.15	6161.14
432.358	6265.59
432.565	6742.77
432.772	6525.68
432.979	6959.85
433.187	7203.56
433.394	7045.87
433.601	7701.22
433.808	7693.02
434.016	7594.72
434.223	7973.6
434.43	8245.98
434.637	8434.39
434.844	8843.98
435.052	9071.31
435.259	8823.5
435.466	8954.57
435.673	8989.39
435.88	9634.5
436.087	10023.61
436.294	9970.37
436.501	9790.14
436.708	9902.78
436.915	10269.37
437.122	10803.89
437.329	10709.68
437.537	10992.3
437.743	11176.62
437.95	11213.48
438.157	11827.87
438.364	12317.34
438.571	12169.88
438.778	12270.23
438.985	13220.49
439.192	12878.48
439.399	13240.97
439.606	13027.98
439.813	13779.59
440.02	14422.65
440.227	14279.29
440.433	14080.64
440.64	14584.44
440.847	14727.8
441.054	14705.27
441.261	15999.59
441.467	15913.57
441.674	15893.09
441.881	16749.14
442.088	16693.85
442.294	16394.84
442.501	16972.37
442.708	17128.02
442.914	17844.81
443.121	18498.11
443.328	18117.18
443.534	19360.3
443.741	18860.6
443.948	18547.26
444.154	20077.09
444.361	19561
444.568	20042.28
444.774	19923.49
444.981	20159.01
445.187	20984.34
445.394	21692.94
445.6	21387.79
445.807	23591.41
446.013	22323.71
446.22	22868.47
446.426	23929.32
446.633	24017.38
446.839	24668.64
447.046	23884.26
447.252	25176.53
447.459	25414.1
447.665	25356.75
447.871	26433.99
448.078	27382.2
448.284	25887.18
448.491	26874.3
448.697	27767.21
448.903	28823.97
449.11	28774.81
449.316	28135.85
449.522	28688.8
449.728	29485.46
449.935	29712.78
450.141	29335.96
450.347	30452.1
450.553	29049.24
450.76	29772.18
450.966	30867.84
451.172	30216.58
451.378	30937.47
451.584	30798.21
451.791	31506.8
451.997	31144.31
452.203	31680.88
452.409	32029.04
452.615	31543.67
452.821	30228.87
453.027	30269.83
453.233	31730.03
453.44	30790.02
453.646	30972.28
453.852	30861.69
454.058	31531.38
454.264	30671.23
454.47	31418.74
454.676	30693.76
454.882	31412.6
455.088	28686.75
455.294	29192.6
455.5	29776.27
455.705	30155.15
455.911	28787.1
456.117	28418.47
456.323	28285.35
456.529	26493.38
456.735	27734.45
456.941	27261.37
457.147	26390.98
457.352	25741.77
457.558	25309.65
457.764	25354.71
457.97	25027.03
458.176	24541.66
458.381	24412.64
458.587	23265.78
458.793	23226.87
458.999	22057.48
459.204	23763.43
459.41	23081.46
459.616	21539.34
459.821	21465.61
460.027	21645.84
460.233	20853.27
460.438	19958.31
460.644	20462.11
460.85	19352.11
461.055	19028.53
461.261	18840.12
461.466	17709.64
461.672	17214.03
461.878	18287.17
462.083	17136.21
462.289	16933.46
462.494	16554.58
462.7	15997.54
462.905	15458.92
463.111	15868.52
463.316	16085.6
463.522	15628.9
463.727	15739.49
463.932	15471.21
464.138	15501.93
464.343	15710.82
464.549	15129.2
464.754	15526.5
464.959	15491.69
465.165	15579.75
465.37	14580.34
465.575	14402.17
465.781	14940.79
465.986	14985.84
466.191	14502.52
466.397	14301.82
466.602	13486.73
466.807	13814.4
467.012	13806.21
467.218	14015.1
467.423	13742.72
467.628	13623.94
467.833	14643.83
468.038	13847.17
468.244	13367.95
468.449	13924.99
468.654	13525.64
468.859	13372.04
469.064	13318.79
469.269	12798.61
469.474	12941.97
469.679	13101.71
469.885	12917.39
470.09	13093.52
470.295	12939.92
470.5	12587.67
470.705	12581.53
470.91	12339.87
471.115	12110.49
471.32	12622.48
471.525	12374.68
471.73	12190.36
471.935	12067.49
472.139	11752.1
472.344	11805.35
472.549	11647.65
472.754	11698.85
472.959	11203.24
473.164	11143.85
473.369	10961.58
473.574	11315.88
473.778	11182.76
473.983	11145.9
474.188	11074.22
474.393	10439.35
474.598	10699.44
474.802	10523.32
475.007	10586.8
475.212	10592.95
475.417	10070.72
475.621	10214.07
475.826	10162.87
476.031	10234.55
476.235	9958.08
476.44	9966.27
476.645	9753.28
476.849	9671.36
477.054	9517.76
477.259	9376.45
477.463	9392.84
477.668	9050.83
477.872	9335.49
478.077	9165.51
478.282	9056.97
478.486	8870.61
478.691	8921.81
478.895	8839.89
479.1	8800.98
479.304	8749.78
479.509	8473.3
479.713	8786.64
479.918	8528.6
480.122	8352.47
480.326	8602.32
480.531	8473.3
480.735	8323.8
480.94	8297.17
481.144	8458.96
481.348	8215.26
481.553	8311.51
481.757	7910.11
481.961	8110.81
482.166	8301.27
482.37	8223.45
482.574	8131.29
482.778	7959.26
482.983	8243.93
483.187	8266.46
483.391	8278.74
483.595	8178.39
483.8	8106.71
484.004	8186.58
484.208	8250.07
484.412	8250.07
484.616	8059.61
484.821	8415.96
485.025	8155.86
485.229	8133.34
485.433	8125.15
485.637	8067.8
485.841	7922.4
486.045	8141.53
486.249	8239.83
486.453	8022.75
486.657	8211.16
486.861	8014.56
487.065	8127.19
487.269	8243.93
487.473	8178.39
487.677	8145.63
487.881	8407.77
488.085	8004.32
488.289	8143.58
488.493	8028.89
488.697	8135.39
488.901	8200.92
489.105	8223.45
489.309	8260.31
489.512	8235.74
489.716	8233.69
489.92	8211.16
490.124	8104.67
490.328	8463.06
490.531	8276.7
490.735	8428.24
490.939	8454.87
491.143	8303.32
491.346	8334.04
491.55	8641.23
491.754	8495.83
491.958	8536.79
492.161	8504.02
492.365	8618.71
492.569	8719.06
492.772	8569.55
492.976	8821.45
493.18	8753.87
493.383	8927.95
493.587	8876.75
493.79	9046.73
493.994	8825.55
494.197	8938.19
494.401	9083.59
494.605	9046.73
494.808	9151.18
495.012	9239.24
495.215	9269.96
495.419	9534.15
495.622	9282.25
495.825	9485
496.029	9384.65
496.232	9599.68
496.436	9722.56
496.639	9800.38
496.843	9892.54
497.046	10056.38
497.249	10015.42
497.453	10244.79
497.656	10220.22
497.859	10195.64
498.063	10404.53
498.266	10566.32
498.469	10695.35
498.673	10652.34
498.876	10930.86
499.079	11039.4
499.282	11305.64
499.485	11369.13
499.689	11297.45
499.892	11313.83
500.095	11397.8
500.298	11901.6
500.501	11770.53
500.705	12077.73
500.908	12245.66
501.111	12255.9
501.314	12604.05
501.517	12495.51
501.72	12696.21
501.923	12532.37
502.126	13036.17
502.329	13101.71
502.532	13191.82
502.735	13408.9
502.938	13677.19
503.141	13636.23
503.344	13847.17
503.547	13968
503.75	14226.04
503.953	14203.52
504.156	14441.08
504.359	14365.31
504.562	14625.4
504.765	15172.21
504.968	15116.91
505.17	15501.93
505.373	15270.51
505.576	15659.62
505.779	15663.72
505.982	15800.93
506.185	16226.91
506.387	16132.7
506.59	16304.73
506.793	16820.82
506.996	16683.61
507.198	17259.09
507.401	16978.51
507.604	17164.88
507.807	17398.35
508.009	17531.47
508.212	17934.92
508.415	18180.67
508.617	18197.06
508.82	18483.77
509.022	18328.13
509.225	18829.88
509.428	19040.82
509.63	19100.21
509.833	19032.63
510.035	19771.94
510.238	19862.05
510.44	20085.28
510.643	20122.15
510.845	20341.28
511.048	20253.22
511.25	20765.21
511.453	20767.26
511.655	21547.53
511.858	21174.8
512.06	21367.31
512.262	21682.7
512.465	21907.98
512.667	22288.9
512.87	22159.88
513.072	22651.39
513.274	22823.42
513.477	23161.33
513.679	22905.34
513.881	23239.15
514.084	23812.59
514.286	23912.94
514.488	24115.69
514.69	24693.21
514.893	24859.1
515.095	24680.92
515.297	25039.32
515.499	25260.5
515.701	25438.67
515.904	25831.88
516.106	25903.56
516.308	26563.01
516.51	26331.59
516.712	26476.99
516.914	27042.23
517.116	27406.77
517.318	26927.55
517.52	27716.01
517.722	27578.8
517.925	28109.22
518.127	28471.71
518.329	28836.25
518.531	28412.32
518.733	29049.24
518.935	29366.68
519.136	29249.94
519.338	29614.48
519.54	29809.04
519.742	30054.79
519.944	30452.1
520.146	30722.43
520.348	30847.36
520.55	31332.73
520.752	31375.73
520.954	31992.17
521.155	31496.56
521.357	32348.52
521.559	32328.04
521.761	32993.63
521.963	32979.29
522.164	32905.57
522.366	33001.82
522.568	33171.8
522.77	33773.91
522.971	34304.33
523.173	33870.16
523.375	34376.01
523.576	34140.49
523.778	34373.96
523.98	35006.78
524.181	35035.45
524.383	34953.54
524.584	35664.18
524.786	35641.65
524.988	35658.04
525.189	36245.8
525.391	36141.36
525.592	36311.34
525.794	36747.56
525.995	36290.86
526.197	36702.5
526.398	36878.63
526.6	37067.04
526.801	37032.22
527.003	37609.75
527.204	37730.58
527.406	37660.95
527.607	37390.62
527.808	38048.02
528.01	37587.22
528.211	37976.34
528.412	38768.9
528.614	38410.51
528.815	38451.47
529.016	38918.4
529.218	38486.28
529.419	39201.02
529.62	38732.04
529.822	39014.66
530.023	39069.95
530.224	39426.3
530.425	39534.84
530.626	39028.99
530.828	38787.33
531.029	39590.14
531.23	39274.75
531.431	39573.75
531.632	39659.77
531.833	39796.98
532.035	39497.98
532.236	39569.66
532.437	40132.85
532.638	39352.57
532.839	40276.21
533.04	39952.63
533.241	39907.57
533.442	40425.71
533.643	40028.4
533.844	40235.25
534.045	40114.42
534.246	39905.52
534.447	40704.23
534.648	40358.13
534.849	40487.15
535.05	39807.22
535.251	40155.38
535.451	40374.51
535.652	40564.97
535.853	40249.58
536.054	40626.41
536.255	40534.25
536.456	40122.61
536.657	40874.21
536.857	40249.58
537.058	40571.11
537.259	40902.89
537.46	40683.75
537.66	40292.59
537.861	40501.48
538.062	40157.42
538.263	40704.23
538.463	40202.48
538.664	40743.14
538.865	40536.3
539.065	41044.2
539.266	40220.91
539.466	40755.43
539.667	40351.98
539.868	41048.29
540.068	40648.94
540.269	40708.33
540.469	40902.89
540.67	40628.46
540.87	40995.04
541.071	40632.55
541.271	40890.6
541.472	40706.28
541.672	40470.76
541.873	40569.07
542.073	40392.94
542.274	40861.93
542.474	40794.34
542.675	40722.66
542.875	41273.57
543.075	40435.95
543.276	40210.67
543.476	41144.55
543.676	40538.35
543.877	40849.64
544.077	40579.31
544.277	40261.87
544.478	40687.85
544.678	40835.3
544.878	40188.14
545.078	40667.37
545.279	40622.31
545.479	40308.97
545.679	40843.49
545.879	40360.17
546.079	40786.15
546.28	40311.02
546.48	40114.42
546.68	40700.14
546.88	40517.87
547.08	40700.14
547.28	40292.59
547.48	39993.59
547.68	40390.89
547.88	40761.58
548.081	40716.52
548.281	40360.17
548.481	40567.02
548.681	40679.66
548.881	40757.48
549.081	40796.39
549.28	40196.34
549.48	41097.44
549.68	40138.99
549.88	41136.35
550.08	40427.76
550.28	40462.57
550.48	40575.21
550.68	40624.36
550.88	40499.44
551.08	40872.17
551.279	40847.59
551.479	40272.11
551.679	40227.06
551.879	40265.97
552.079	41162.98
552.278	40349.93
552.478	39977.2
552.678	40304.88
552.878	40454.38
553.077	40306.93
553.277	40081.65
553.477	40665.32
553.676	40263.92
553.876	40257.78
554.076	40098.03
554.275	40020.21
554.475	40204.53
554.674	40630.51
554.874	40624.36
555.074	39950.58
555.273	40607.98
555.473	40339.69
555.672	40104.18
555.872	40151.28
556.071	40374.51
556.271	40177.9
556.47	39786.74
556.67	39463.16
556.869	39938.29
557.068	40392.94
557.268	40110.32
557.467	39991.54
557.667	39682.3
557.866	39852.28
558.065	39971.06
558.265	39586.04
558.464	39569.66
558.663	39735.54
558.863	39571.71
559.062	40231.15
559.261	39422.2
559.461	39805.17
559.66	38947.08
559.859	39756.02
560.058	39330.05
560.258	39049.47
560.457	39194.88
560.656	39299.33
560.855	39024.9
561.054	39391.48
561.253	39131.39
561.453	39272.7
561.652	39536.89
561.851	39172.35
562.05	38791.43
562.249	38922.5
562.448	39313.66
562.647	39164.16
562.846	38813.96
563.045	38607.11
563.244	38781.19
563.443	38902.02
563.642	38291.73
563.841	38433.03
564.04	38363.4
564.239	38957.31
564.438	38136.08
564.637	38304.01
564.836	38332.68
565.035	37632.28
565.234	38127.89
565.432	37900.56
565.631	37810.45
565.83	38148.37
566.029	37939.47
566.228	37622.04
566.427	37384.47
566.625	37617.94
566.824	37073.18
567.023	37908.75
567.222	36643.11
567.42	37439.77
567.619	37273.88
567.818	37486.87
568.016	37114.14
568.215	37228.83
568.414	36970.79
568.612	37427.48
568.811	37003.55
569.01	36868.39
569.208	36417.83
569.407	36778.28
569.605	36276.52
569.804	36839.72
570.002	36303.15
570.201	36593.96
570.4	36163.89
570.598	35813.68
570.797	36104.49
570.995	35848.5
571.193	35707.19
571.392	36045.1
571.59	35887.41
571.789	35471.67
571.987	35486.01
572.186	35483.96
572.384	35338.55
572.582	35336.51
572.781	35344.7
572.979	34711.88
573.177	34998.59
573.376	35062.08
573.574	34838.85
573.772	34908.48
573.971	34609.48
574.169	34476.36
574.367	34289.99
574.565	34449.74
574.763	34568.52
574.962	34373.96
575.16	34009.42
575.358	34285.9
575.556	33837.39
575.754	34412.87
575.952	33769.81
576.151	34208.08
576.349	33734.99
576.547	33595.73
576.745	33804.63
576.943	33556.82
577.141	33704.28
577.339	33333.59
577.537	32784.74
577.735	33302.87
577.933	32815.46
578.131	33345.88
578.329	33126.75
578.527	32860.51
578.725	32817.5
578.923	32991.58
579.121	32737.63
579.319	32520.55
579.516	32764.26
579.714	32557.41
579.912	32076.14
580.11	32158.06
580.308	32209.26
580.506	31910.25
580.704	31709.55
580.901	31682.93
581.099	32078.19
581.297	31637.87
581.495	31570.29
581.692	31768.94
581.89	31226.23
582.088	31713.65
582.285	31240.57
582.483	31512.95
582.681	31064.44
582.878	30767.49
583.076	30804.35
583.274	31232.38
583.471	30599.55
583.669	30513.54
583.866	30364.04
584.064	30882.17
584.262	30263.69
584.459	30415.24
584.657	30445.96
584.854	30501.25
585.052	30011.79
585.249	30017.93
585.447	30310.79
585.644	29669.78
585.841	29815.18
586.039	30292.36
586.236	29645.2
586.434	29499.8
586.631	29460.88
586.828	29321.62
587.026	29460.88
587.223	29039
587.42	29163.93
587.618	29270.42
587.815	28881.31
588.012	29082.01
588.21	28490.15
588.407	28828.06
588.604	28969.37
588.801	28512.67
588.999	28410.28
589.196	28717.47
589.393	28428.71
589.59	28531.11
589.787	28141.99
589.984	27982.25
590.182	28051.88
590.379	28334.5
590.576	27865.52
590.773	28266.92
590.97	27738.54
591.167	27697.58
591.364	27601.33
591.561	27517.36
591.758	27314.61
591.955	27345.33
592.152	27347.38
592.349	27287.99
592.546	27312.56
592.743	26900.92
592.94	26757.57
593.137	26931.64
593.334	27044.28
593.531	26819
593.727	26939.83
593.924	26536.38
594.121	26358.21
594.318	26436.03
594.515	26036.68
594.712	26399.17
594.908	26153.41
595.105	26479.04
595.302	25924.04
595.499	26057.16
595.696	25807.31
595.892	25678.29
596.089	25774.54
596.286	25799.12
596.482	25737.68
596.679	25874.89
596.876	25700.81
597.072	25496.02
597.269	25383.38
597.466	25104.85
597.662	25010.65
597.859	25078.23
598.055	24971.74
598.252	25059.8
598.448	24932.82
598.645	24617.44
598.841	24517.09
599.038	24777.18
599.234	24941.02
599.431	24601.05
599.627	24703.45
599.824	24732.12
600.02	24089.06
600.217	24185.32
600.413	24132.07
600.609	23871.98
600.806	24107.49
601.002	24003.05
601.198	23644.65
601.395	23458.29
601.591	23804.39
601.787	23745
601.984	23286.26
602.18	23620.08
602.376	23421.42
602.572	23544.3
602.769	23333.36
602.965	23366.13
603.161	23022.07
603.357	23103.99
603.553	22948.34
603.75	22706.68
603.946	22821.37
604.142	23011.83
604.338	22508.03
604.534	22618.62
604.73	22491.65
604.926	22471.17
605.122	22399.49
605.318	22309.38
605.514	22546.94
605.71	22282.75
605.906	22231.55
606.102	21877.26
606.298	22249.99
606.494	21795.34
606.69	21869.06
606.886	21871.11
607.082	21475.85
607.278	22149.64
607.474	21557.77
607.67	21643.79
607.866	21596.68
608.062	21719.56
608.257	21600.78
608.453	21584.4
608.649	21416.46
608.845	20988.44
609.041	21586.44
609.236	21144.08
609.432	21135.89
609.628	21105.17
609.824	20988.44
610.019	21021.2
610.215	21053.97
610.411	21174.8
610.606	20748.82
610.802	21033.49
610.998	20703.77
611.193	20808.22
611.389	20679.19
611.584	20437.53
611.78	20417.05
611.976	20406.81
612.171	20537.88
612.367	20640.28
612.562	20587.04
612.758	20290.08
612.953	20247.07
613.149	20535.84
613.344	19837.48
613.539	20689.43
613.735	20001.32
613.93	20197.92
614.126	20199.97
614.321	20415.01
614.517	20120.1
614.712	19966.5
614.907	19534.38
615.103	19659.31
615.298	19675.69
615.493	19966.5
615.688	19423.79
615.884	19976.74
616.079	19438.12
616.274	19788.33
616.47	19730.98
616.665	19573.29
616.86	19493.42
617.055	19466.8
617.25	19655.21
617.445	19417.65
617.641	19100.21
617.836	19075.63
618.031	18842.17
618.226	19159.6
618.421	18954.8
618.616	19085.87
618.811	18864.69
619.006	18928.18
619.201	18369.09
619.396	18989.62
619.591	18442.81
619.786	18526.78
619.981	18180.67
620.176	18518.59
620.371	18217.54
620.566	18348.61
620.761	18098.75
620.956	18379.32
621.151	17865.28
621.346	17959.49
621.541	17742.41
621.735	18022.98
621.93	17414.73
622.125	17562.19
622.32	17306.19
622.515	17220.17
622.709	17277.52
622.904	17357.39
623.099	17080.91
623.294	17152.59
623.488	16689.75
623.683	16939.6
623.878	16716.37
624.072	16802.39
624.267	16886.36
624.462	16419.42
624.656	16396.89
624.851	16255.58
625.046	16335.45
625.24	16362.08
625.435	16050.78
625.629	16028.26
625.824	16009.83
626.018	15868.52
626.213	15411.82
626.407	15510.12
626.602	15551.08
626.796	15491.69
626.991	15528.55
627.185	15532.65
627.38	15389.29
627.574	15032.94
627.768	15086.19
627.963	14858.87
628.157	14891.63
628.352	14903.92
628.546	14568.06
628.74	14852.72
628.935	14506.62
629.129	14641.78
629.323	14570.1
629.517	14697.08
629.712	14318.2
629.906	14262.91
630.1	14197.37
630.294	14156.41
630.489	14099.07
630.683	13908.61
630.877	13834.88
631.071	13746.82
631.265	13937.28
631.459	13666.95
631.653	13615.75
631.848	13484.68
632.042	13580.93
632.236	13585.03
632.43	13296.27
632.624	13265.55
632.818	13142.67
633.012	13075.09
633.206	13136.52
633.4	13318.79
633.594	12745.36
633.788	12960.4
633.982	12929.68
634.176	12782.23
634.369	12665.49
634.563	12569.24
634.757	12522.13
634.951	12520.09
635.145	12262.04
635.339	12427.93
635.533	12214.94
635.726	12151.45
635.92	12098.2
636.114	12128.92
636.308	12026.53
636.501	11860.64
636.695	11782.82
636.889	11836.06
637.083	11657.89
637.276	11645.6
637.47	11678.37
637.664	11702.95
637.857	11467.43
638.051	11545.25
638.244	11399.85
638.438	11111.08
638.632	11172.52
638.825	11061.93
639.019	11117.23
639.212	11139.76
639.406	10977.97
639.599	11088.56
639.793	10850.99
639.986	10715.83
640.18	10793.65
640.373	10830.51
640.567	10654.39
640.76	10519.22
640.954	10554.04
641.147	10302.14
641.34	10433.21
641.534	10244.79
641.727	10396.34
641.92	10220.22
642.114	10068.67
642.307	10031.8
642.5	9931.45
642.694	9734.85
642.887	9824.96
643.08	9677.51
643.273	9726.66
643.467	9839.3
643.66	9591.49
643.853	9511.62
644.046	9263.82
644.239	9587.4
644.432	9384.65
644.626	9202.38
644.819	9419.46
645.012	9259.72
645.205	9231.05
645.398	9241.29
645.591	9138.89
645.784	9112.27
645.977	9042.64
646.17	8997.58
646.363	8946.38
646.556	8788.69
646.749	8747.73
646.942	8870.61
647.135	8786.64
647.328	8651.47
647.521	8567.51
647.714	8549.07
647.907	8639.19
648.099	8612.56
648.292	8454.87
648.485	8196.82
648.678	8143.58
648.871	8309.46
649.064	8295.13
649.256	8119
649.449	8223.45
649.642	8078.04
649.835	7994.08
650.027	7946.97
650.22	8110.81
650.413	7971.55
650.605	8010.46
650.798	7781.09
650.991	7801.57
651.183	7813.85
651.376	7744.22
651.568	7647.97
651.761	7641.82
651.954	7447.27
652.146	7598.82
652.339	7564
652.531	7424.74
652.724	7281.38
652.916	7336.68
653.109	7434.98
653.301	7305.96
653.494	7377.64
653.686	7146.22
653.879	7443.17
654.071	7295.72
654.263	7224.04
654.456	7125.74
654.648	6966
654.84	6834.93
655.033	7023.34
655.225	6982.38
655.417	6783.73
655.61	6816.49
655.802	6922.99
655.994	6652.66
656.186	6877.93
656.379	6650.61
656.571	6593.26
656.763	6638.32
656.955	6558.45
657.148	6456.05
657.34	6552.31
657.532	6398.71
657.724	6380.28
657.916	6372.08
658.108	6322.93
658.3	6394.61
658.492	6521.59
658.684	6290.17
658.876	6261.49
659.068	6300.41
659.26	6177.53
659.452	6157.05
659.644	6132.47
659.836	6107.9
660.028	6177.53
660.22	5870.33
660.412	5919.48
660.604	5950.2
660.796	5942.01
660.988	5866.24
661.18	5802.75
661.372	5933.82
661.563	5741.31
661.755	5841.66
661.947	5589.76
662.139	5743.36
662.331	5737.21
662.522	5563.14
662.714	5729.02
662.906	5559.04
663.097	5597.95
663.289	5358.34
663.481	5415.68
663.673	5509.89
663.864	5468.93
664.056	5362.44
664.247	5202.69
664.439	5376.77
664.631	5335.81
664.822	5311.24
665.014	5272.32
665.205	5200.65
665.397	5239.56
665.588	5120.78
665.78	5290.76
665.971	5139.21
666.163	5141.25
666.354	5094.15
666.546	5045
666.737	5008.14
666.929	5028.62
667.12	5061.38
667.311	4971.27
667.503	4946.7
667.694	4805.39
667.885	4832.01
668.077	4965.13
668.268	4922.12
668.459	4838.16
668.651	4805.39
668.842	4702.99
669.033	4799.24
669.224	4823.82
669.416	4799.24
669.607	4760.33
669.798	4604.69
669.989	4573.97
670.18	4614.93
670.371	4707.09
670.563	4490
670.754	4582.16
670.945	4588.3
671.136	4586.26
671.327	4510.48
671.518	4442.9
671.709	4530.96
671.9	4471.57
672.091	4344.6
672.282	4477.71
672.473	4399.89
672.664	4420.37
672.855	4455.19
673.046	4453.14
673.237	4291.35
673.428	4342.55
673.619	4270.87
673.809	4373.27
674	4381.46
674.191	4342.55
674.382	4199.19
674.573	4358.93
674.764	4379.41
674.954	4277.01
675.145	4150.04
675.336	4215.57
675.527	4066.07
675.717	4229.91
675.908	4227.86
676.099	4178.71
676.289	4076.31
676.48	4123.41
676.671	4092.69
676.861	4041.5
677.052	4109.08
677.243	4076.31
677.433	4094.74
677.624	4150.04
677.814	4152.09
678.005	4064.02
678.195	4004.63
678.386	4025.11
678.576	3887.9
678.767	3871.51
678.957	4074.26
679.148	3969.82
679.338	4072.22
679.529	3945.24
679.719	4027.16
679.909	3896.09
680.1	3912.47
680.29	3920.67
680.481	4039.45
680.671	3982.1
680.861	3998.49
681.052	4051.74
681.242	3810.08
681.432	3889.95
681.622	3857.18
681.813	3932.95
682.003	3902.23
682.193	3879.71
682.383	3834.65
682.573	4008.73
682.764	3861.27
682.954	3808.03
683.144	3883.8
683.334	3871.51
683.524	3822.36
683.714	3949.34
683.904	3885.85
684.094	3810.08
684.284	3910.43
684.474	3920.67
684.664	3840.79
684.854	3711.77
685.044	3937.05
685.234	3709.72
685.424	3795.74
685.614	3775.26
685.804	3785.5
685.994	3679.01
686.184	3785.5
686.374	3844.89
686.564	3654.43
686.753	3715.87
686.943	3539.74
687.133	3646.24
687.323	3519.26
687.513	3724.06
687.702	3801.88
687.892	3564.32
688.082	3599.13
688.272	3654.43
688.461	3654.43
688.651	3601.18
688.841	3576.61
689.03	3623.71
689.22	3582.75
689.41	3580.7
689.599	3441.44
689.789	3482.4
689.979	3552.03
690.168	3451.68
690.358	3554.08
690.547	3500.83
690.737	3392.29
690.926	3504.93
691.116	3435.3
691.305	3472.16
691.495	3437.34
691.684	3412.77
691.874	3326.75
692.063	3437.34
692.252	3316.51
692.442	3236.64
692.631	3336.99
692.82	3408.67
693.01	3412.77
693.199	3394.34
693.388	3228.45
693.578	3375.91
693.767	3265.32
693.956	3263.27
694.146	3314.47
694.335	3195.68
694.524	3271.46
694.713	3226.4
694.902	3222.31
695.092	3103.53
695.281	3220.26
695.47	3195.68
695.659	3121.96
695.848	3275.56
696.037	3257.12
696.226	3207.97
696.415	3148.58
696.604	3281.7
696.793	3238.69
696.982	3185.44
697.171	3263.27
697.36	3283.75
697.549	3201.83
697.738	3277.6
697.927	3029.8
698.116	3212.07
698.305	3183.4
698.494	3126.05
698.683	3257.12
698.872	3173.16
699.061	3068.71
699.25	3179.3
699.438	3175.2
699.627	3099.43
699.816	3076.9
700.005	3234.6
700.193	3175.2
700.382	3279.65
700.571	3158.82
700.76	3257.12
700.948	3175.2
701.137	3164.97
701.326	3203.88
701.514	2972.46
701.703	3056.42
701.892	3011.37
702.08	3064.61
702.269	2994.98
702.457	3226.4
702.646	3121.96
702.834	2933.54
703.023	3017.51
703.212	3099.43
703.4	3003.18
703.589	3025.7
703.777	3185.44
703.965	2904.87
704.154	3095.33
704.342	3085.09
704.531	3040.04
704.719	3087.14
704.907	3095.33
705.096	2919.21
705.284	3095.33
705.472	3126.05
705.661	3062.57
705.849	3105.57
706.037	3005.22
706.226	3023.66
706.414	2980.65
706.602	3109.67
706.79	3015.46
706.979	2999.08
707.167	3081
707.355	2984.74
707.543	2974.5
707.731	2970.41
707.919	3138.34
708.107	2898.73
708.296	2980.65
708.484	2919.21
708.672	3085.09
708.86	2925.35
709.048	2882.35
709.236	2994.98
709.424	3060.52
709.612	3027.75
709.8	2919.21
709.988	2904.87
710.176	2915.11
710.364	3035.94
710.551	3019.56
710.739	3001.13
710.927	2829.1
711.115	2968.36
711.303	2911.02
711.491	2915.11
711.679	2966.31
711.866	2886.44
712.054	2880.3
712.242	2925.35
712.43	2925.35
712.617	2814.76
712.805	2847.53
712.993	2876.2
713.181	2851.63
713.368	2945.83
713.556	2925.35
713.744	2757.42
713.931	2964.26
714.119	2982.7
714.306	2911.02
714.494	2882.35
714.682	2816.81
714.869	2769.71
715.057	2857.77
715.244	2865.96
715.432	2874.15
715.619	2898.73
715.807	2931.5
715.994	2865.96
716.182	2784.04
716.369	2925.35
716.556	2818.86
716.744	2986.79
716.931	2712.36
717.119	2835.24
717.306	2833.19
717.493	2863.91
717.681	2798.38
717.868	2851.63
718.055	2870.06
718.242	2751.28
718.43	2788.14
718.617	2800.43
718.804	2784.04
718.991	2913.06
719.179	2802.47
719.366	2722.6
719.553	2855.72
719.74	2681.64
719.927	2822.95
720.114	2845.48
720.301	2835.24
720.488	2808.62
720.676	2698.03
720.863	2835.24
721.05	2751.28
721.237	2730.8
721.424	2827.05
721.611	2751.28
721.798	2630.45
721.985	2628.4
722.172	2695.98
722.358	2786.09
722.545	2704.17
722.732	2724.65
722.919	2747.18
723.106	2745.13
723.293	2728.75
723.48	2810.67
723.667	2712.36
723.853	2751.28
724.04	2689.84
724.227	2693.93
724.414	2806.57
724.6	2638.64
724.787	2595.63
724.974	2562.86
725.161	2599.73
725.347	2636.59
725.534	2698.03
725.72	2702.12
725.907	2673.45
726.094	2648.88
726.28	2636.59
726.467	2652.97
726.653	2607.92
726.84	2659.12
727.027	2593.58
727.213	2536.24
727.4	2667.31
727.586	2638.64
727.773	2530.09
727.959	2601.77
728.145	2622.25
728.332	2497.33
728.518	2693.93
728.705	2603.82
728.891	2583.34
729.077	2544.43
729.264	2597.68
729.45	2585.39
729.636	2583.34
729.823	2595.63
730.009	2601.77
730.195	2546.48
730.382	2489.14
730.568	2622.25
730.754	2681.64
730.94	2417.46
731.126	2548.53
731.313	2564.91
731.499	2521.9
731.685	2472.75
731.871	2577.2
732.057	2554.67
732.243	2607.92
732.429	2544.43
732.615	2472.75
732.801	2589.49
732.987	2464.56
733.173	2513.71
733.359	2519.85
733.545	2507.57
733.731	2474.8
733.917	2417.46
734.103	2423.6
734.289	2501.42
734.475	2489.14
734.661	2511.66
734.847	2442.03
735.033	2456.37
735.219	2536.24
735.404	2423.6
735.59	2460.46
735.776	2462.51
735.962	2493.23
736.148	2485.04
736.333	2431.79
736.519	2454.32
736.705	2474.8
736.89	2482.99
737.076	2253.62
737.262	2417.46
737.447	2304.82
737.633	2407.22
737.819	2325.3
738.004	2349.87
738.19	2341.68
738.375	2388.78
738.561	2304.82
738.747	2333.49
738.932	2429.74
739.118	2388.78
739.303	2313.01
739.489	2200.37
739.674	2229.04
739.859	2306.87
740.045	2263.86
740.23	2263.86
740.416	2257.71
740.601	2300.72
740.786	2304.82
740.972	2194.23
741.157	2270
741.342	2167.6
741.528	2208.56
741.713	2278.19
741.898	2315.06
742.084	2177.84
742.269	2167.6
742.454	2112.31
742.639	2128.69
742.824	2177.84
743.01	2093.88
743.195	2163.51
743.38	2085.69
743.565	2235.19
743.75	2208.56
743.935	2085.69
744.12	2210.61
744.305	2073.4
744.49	2124.6
744.675	2050.87
744.86	2073.4
745.045	2108.21
745.23	2065.21
745.415	2032.44
745.6	1979.19
745.785	2071.35
745.97	1966.9
746.155	1882.94
746.34	2046.77
746.525	2014.01
746.71	1921.85
746.895	1854.27
747.079	2007.86
747.264	1893.18
747.449	1973.05
747.634	1876.79
747.819	1940.28
748.003	1872.7
748.188	1872.7
748.373	1809.21
748.557	1751.87
748.742	1923.9
748.927	1839.93
749.111	1745.72
749.296	1682.24
749.481	1717.05
749.665	1692.48
749.85	1809.21
750.034	1751.87
750.219	1708.86
750.404	1688.38
750.588	1655.61
750.773	1618.75
750.957	1643.32
751.141	1579.84
751.326	1682.24
751.51	1610.56
751.695	1645.37
751.879	1594.17
752.064	1592.13
752.248	1653.56
752.432	1653.56
752.617	1618.75
752.801	1643.32
752.985	1538.88
753.17	1542.97
753.354	1463.1
753.538	1473.34
753.722	1356.61
753.907	1379.14
754.091	1450.82
754.275	1465.15
754.459	1510.21
754.643	1475.39
754.828	1372.99
755.012	1487.68
755.196	1438.53
755.38	1485.63
755.564	1434.43
755.748	1319.75
755.932	1485.63
756.116	1364.8
756.3	1270.59
756.484	1309.51
756.668	1364.8
756.852	1348.42
757.036	1262.4
757.22	1282.88
757.404	1338.18
757.588	1227.59
757.772	1286.98
757.956	1293.12
758.14	1401.66
758.323	1305.41
758.507	1276.74
758.691	1243.97
758.875	1338.18
759.059	1266.5
759.242	1215.3
759.426	1221.44
759.61	1170.24
759.794	1186.63
759.977	1192.77
760.161	1299.27
760.345	1166.15
760.528	1178.44
760.712	1192.77
760.895	1112.9
761.079	1096.52
761.263	1143.62
761.446	1135.43
761.63	1080.13
761.813	1121.09
761.997	990.02
762.18	1129.28
762.364	1065.8
762.547	1098.56
762.731	1151.81
762.914	1045.32
763.098	1166.15
763.281	1114.95
763.464	1073.99
763.648	1047.37
763.831	1178.44
764.015	1043.27
764.198	1090.37
764.381	1041.22
764.564	1030.98
764.748	1059.65
764.931	1033.03
765.114	947.01
765.297	998.21
765.481	1086.28
765.664	1014.6
765.847	1020.74
766.03	1069.89
766.213	1030.98
766.397	969.54
766.58	967.49
766.763	985.93
766.946	987.97
767.129	981.83
767.312	934.73
767.495	977.73
767.678	1002.31
767.861	985.93
768.044	977.73
768.227	987.97
768.41	971.59
768.593	987.97
768.776	973.64
768.959	990.02
769.142	1035.08
769.324	824.14
769.507	934.73
769.69	852.81
769.873	914.25
770.056	1030.98
770.239	914.25
770.421	944.97
770.604	846.66
770.787	846.66
770.97	918.34
771.152	889.67
771.335	992.07
771.518	924.49
771.7	858.95
771.883	930.63
772.066	836.42
772.248	875.34
772.431	799.56
772.613	836.42
772.796	820.04
772.978	785.23
773.161	789.32
773.343	758.6
773.526	789.32
773.708	729.93
773.891	764.75
774.073	801.61
774.256	817.99
774.438	746.31
774.621	668.49
774.803	748.36
774.985	734.03
775.168	744.27
775.35	639.82
775.532	774.99
775.715	746.31
775.897	723.79
776.079	760.65
776.261	709.45
776.444	783.18
776.626	686.92
776.808	680.78
776.99	686.92
777.173	725.83
777.355	688.97
777.537	547.66
777.719	658.25
777.901	695.11
778.083	650.06
778.265	650.06
778.447	633.68
778.629	559.95
778.811	693.07
778.993	699.21
779.175	643.92
779.357	691.02
779.539	586.57
779.721	602.96
779.903	643.92
780.085	656.2
780.267	672.59
780.449	645.96
780.631	639.82
780.812	678.73
780.994	576.33
781.176	588.62
781.358	598.86
781.54	576.33
781.721	576.33
781.903	566.09
782.085	471.89
782.267	635.72
782.448	553.8
782.63	523.09
782.812	504.65
782.993	537.42
783.175	482.13
783.357	611.15
783.538	500.56
783.72	533.33
783.901	498.51
784.083	562
784.264	498.51
784.446	525.13
784.627	447.31
784.809	516.94
784.99	404.3
785.172	478.03
785.353	416.59
785.535	463.69
785.716	426.83
785.897	471.89
786.079	389.97
786.26	527.18
786.441	453.45
786.623	447.31
786.804	394.06
786.985	490.32
787.167	426.83
787.348	461.65
787.529	416.59
787.71	447.31
787.891	416.59
788.073	318.29
788.254	394.06
788.435	428.88
788.616	447.31
788.797	367.44
788.978	344.91
789.159	351.06
789.34	340.82
789.522	402.26
789.703	410.45
789.884	449.36
790.065	355.15
790.246	398.16
790.427	402.26
790.607	367.44
790.788	344.91
790.969	310.1
791.15	418.64
791.331	365.39
791.512	299.86
791.693	357.2
791.874	349.01
792.054	389.97
792.235	369.49
792.416	279.38
792.597	355.15
792.778	322.38
792.958	344.91
793.139	359.25
793.32	326.48
793.5	265.04
793.681	340.82
793.862	285.52
794.042	338.77
794.223	176.98
794.404	273.23
794.584	324.43
794.765	330.58
794.945	291.66
795.126	320.34
795.306	381.78
795.487	293.71
795.667	267.09
795.848	283.47
796.028	381.78
796.209	285.52
796.389	301.9
796.57	285.52
796.75	297.81
796.93	262.99
797.111	303.95
797.291	303.95
797.471	279.38
797.652	283.47
797.832	201.55
798.012	279.38
798.192	252.75
798.373	217.94
798.553	242.51
798.733	275.28
798.913	240.47
799.093	291.66
799.274	191.31
799.454	287.57
799.634	299.86
799.814	250.71
799.994	314.19
800.174	195.41
800.354	213.84
800.534	250.71
800.714	242.51
800.894	236.37
801.074	224.08
801.254	289.62
801.434	224.08
801.614	238.42
801.794	201.55
801.974	611.15
802.154	176.98
802.334	213.84
802.514	267.09
802.693	170.83
802.873	265.04
803.053	219.99
803.233	240.47
803.413	293.71
803.592	121.68
803.772	258.9
803.952	254.8
804.131	174.93
804.311	258.9
804.491	285.52
804.67	205.65
804.85	219.99
805.03	248.66
805.209	281.43
805.389	242.51
805.568	189.27
805.748	234.32
805.928	224.08
806.107	174.93
806.287	219.99
806.466	267.09
806.646	211.79
806.825	168.79
807.004	199.51
807.184	179.03
807.363	201.55
807.543	209.75
807.722	197.46
807.901	168.79
808.081	148.31
808.26	95.06
808.439	152.4
808.619	213.84
808.798	183.12
808.977	125.78
809.156	254.8
809.336	140.12
809.515	197.46
809.694	133.97
809.873	267.09
810.052	185.17
810.231	199.51
810.411	140.12
810.59	162.64
810.769	176.98
810.948	172.88
811.127	115.54
811.306	170.83
811.485	129.88
811.664	123.73
811.843	103.25
812.022	111.44
812.201	170.83
812.38	181.07
812.559	150.36
812.737	136.02
812.916	197.46
813.095	113.49
813.274	105.3
813.453	158.55
813.632	111.44
813.811	179.03
813.989	197.46
814.168	191.31
814.347	93.01
814.526	123.73
814.704	217.94
814.883	176.98
815.062	127.83
815.24	234.32
815.419	117.59
815.598	152.4
815.776	133.97
815.955	86.87
816.133	146.26
816.312	66.39
816.49	176.98
816.669	133.97
816.847	166.74
817.026	181.07
817.204	121.68
817.383	168.79
817.561	68.44
817.74	113.49
817.918	166.74
818.097	97.11
818.275	127.83
818.453	138.07
818.632	183.12
818.81	166.74
818.988	148.31
819.167	76.63
819.345	144.21
819.523	125.78
819.701	148.31
819.879	103.25
820.058	76.63
820.236	158.55
820.414	146.26
820.592	148.31
820.77	156.5
820.948	-5.29
821.127	70.48
821.305	127.83
821.483	152.4
821.661	76.63
821.839	80.72
822.017	97.11
822.195	80.72
822.373	176.98
822.551	181.07
822.729	80.72
822.907	119.64
823.085	105.3
823.262	66.39
823.44	115.54
823.618	90.96
823.796	121.68
823.974	54.1
824.152	80.72
824.329	19.29
824.507	105.3
824.685	123.73
824.863	119.64
825.04	95.06
825.218	156.5
825.396	82.77
825.574	140.12
825.751	84.82
825.929	60.24
826.107	58.2
826.284	103.25
826.462	121.68
826.639	58.2
826.817	29.52
826.994	31.57
827.172	64.34
827.349	129.88
827.527	13.14
827.704	54.1
827.882	168.79
828.059	140.12
828.237	74.58
828.414	93.01
828.591	74.58
828.769	105.3
828.946	101.2
829.124	62.29
829.301	78.68
829.478	125.78
829.655	125.78
829.833	107.35
830.01	68.44
830.187	62.29
830.364	80.72
830.542	78.68
830.719	60.24
830.896	105.3
831.073	68.44
831.25	103.25
831.427	133.97
831.604	80.72
831.782	152.4
831.959	21.33
832.136	-31.91
832.313	156.5
832.49	103.25
832.667	64.34
832.844	39.76
833.021	121.68
833.198	58.2
833.374	39.76
833.551	97.11
833.728	109.4
833.905	70.48
834.082	66.39
834.259	74.58
834.436	70.48
834.612	0.85
834.789	146.26
834.966	107.35
835.143	25.43
835.319	-7.34
835.496	58.2
835.673	66.39
835.85	129.88
836.026	7
836.203	90.96
836.38	56.15
836.556	64.34
836.733	25.43
836.909	-9.39
837.086	88.92
837.262	80.72
837.439	27.48
837.616	56.15
837.792	4.95
837.968	31.57
838.145	35.67
838.321	27.48
838.498	88.92
838.674	99.16
838.851	76.63
839.027	90.96
839.203	-5.29
839.38	115.54
839.556	50
839.732	27.48
839.909	107.35
840.085	19.29
840.261	11.09
840.437	138.07
840.614	129.88
840.79	9.05
840.966	23.38
841.142	115.54
841.318	-7.34
841.494	37.72
841.671	50
841.847	37.72
842.023	45.91
842.199	107.35
842.375	84.82
842.551	56.15
842.727	23.38
842.903	103.25
843.079	-25.77
843.255	58.2
843.431	37.72
843.607	64.34
843.783	47.96
843.959	60.24
844.134	86.87
844.31	2.9
844.486	29.52
844.662	-29.87
844.838	78.68
845.013	54.1
845.189	86.87
845.365	41.81
845.541	-3.24
845.716	43.86
845.892	50
846.068	41.81
846.244	31.57
846.419	-17.58
846.595	35.67
846.77	35.67
846.946	62.29
847.122	66.39
847.297	39.76
847.473	25.43
847.648	-19.63
847.824	58.2
847.999	31.57
848.175	23.38
848.35	-17.58
848.526	111.44
848.701	52.05
848.876	27.48
849.052	50
849.227	-40.11
849.403	-17.58
849.578	76.63
849.753	39.76
849.929	-21.67
850.104	39.76
850.279	99.16
850.454	62.29
850.63	78.68
850.805	4.95
850.98	50
851.155	127.83
851.33	43.86
851.505	-23.72
851.681	88.92
851.856	-23.72
852.031	84.82
852.206	33.62
852.381	-1.19
852.556	43.86
852.731	35.67
852.906	15.19
853.081	58.2
853.256	25.43
853.431	43.86
853.606	-5.29
853.781	-31.91
853.956	-17.58
854.131	15.19
854.305	25.43
854.48	-5.29
854.655	47.96
854.83	-19.63
855.005	23.38
855.18	64.34
855.354	93.01
855.529	156.5
855.704	82.77
855.879	33.62
856.053	41.81
856.228	25.43
856.403	-27.82
856.577	39.76
856.752	17.24
856.926	31.57
857.101	-85.16
857.276	-11.43
857.45	45.91
857.625	62.29
857.799	-1.19
857.974	86.87
858.148	4.95
858.323	52.05
858.497	50
858.672	0.85
858.846	27.48
859.02	0.85
859.195	37.72
859.369	66.39
859.543	56.15
859.718	15.19
859.892	72.53
860.066	25.43
860.241	52.05
860.415	4.95
860.589	17.24
860.763	23.38
860.938	-5.29
861.112	2.9
861.286	-68.78
861.46	31.57
861.634	-36.01
861.808	19.29
861.982	-29.87
862.157	-1.19
862.331	-9.39
862.505	66.39
862.679	-72.87
862.853	2.9
863.027	-36.01
863.201	19.29
863.375	95.06
863.549	-17.58
863.722	54.1
863.896	86.87
864.07	-9.39
864.244	-11.43
864.418	13.14
864.592	50
864.766	50
864.939	-23.72
865.113	56.15
865.287	72.53
865.461	13.14
865.634	-42.15
865.808	-79.02
865.982	45.91
866.156	-19.63
866.329	-5.29
866.503	109.4
866.676	66.39
866.85	0.85
867.024	25.43
867.197	41.81
867.371	47.96
867.544	-46.25
867.718	-36.01
867.891	60.24
868.065	25.43
868.238	41.81
868.412	88.92
868.585	-1.19
868.759	64.34
868.932	21.33
869.105	-58.54
869.279	-52.39
869.452	-19.63
869.625	-15.53
869.799	-23.72
869.972	56.15
870.145	-91.31
870.319	25.43
870.492	19.29
870.665	29.52
870.838	-19.63
871.011	41.81
871.185	13.14
871.358	7
871.531	35.67
871.704	-1.19
871.877	-36.01
872.05	29.52
872.223	52.05
872.396	11.09
872.569	54.1
872.742	13.14
872.915	64.34
873.088	7
873.261	-29.87
873.434	-3.24
873.607	-7.34
873.78	9.05
873.953	0.85
874.126	-62.63
874.299	-52.39
874.471	-31.91
874.644	-21.67
874.817	-9.39
874.99	60.24
875.163	35.67
875.335	43.86
875.508	-33.96
875.681	23.38
875.853	7
876.026	-27.82
876.199	-7.34
876.371	0.85
876.544	-31.91
876.717	7
876.889	9.05
877.062	25.43
877.234	-36.01
877.407	-19.63
877.579	-31.91
877.752	54.1
877.924	17.24
878.097	23.38
878.269	-13.48
878.442	4.95
878.614	23.38
878.786	-52.39
878.959	4.95
879.131	-13.48
879.303	-21.67
879.476	0.85
879.648	-38.06
879.82	-38.06
879.993	-21.67
880.165	-64.68
880.337	-38.06
880.509	27.48
880.681	9.05
880.854	-1.19
881.026	74.58
881.198	60.24
881.37	-13.48
881.542	-5.29
881.714	84.82
881.886	-68.78
882.058	-87.21
882.23	60.24
882.402	-81.07
882.574	78.68
882.746	19.29
882.918	80.72
883.09	62.29
883.262	23.38
883.434	2.9
883.606	-21.67
883.778	-23.72
883.95	111.44
884.122	-66.73
884.293	-70.83
884.465	-15.53
884.637	58.2
884.809	-27.82
884.98	-9.39
885.152	60.24
885.324	29.52
885.496	50
885.667	-117.93
885.839	17.24
886.011	37.72
886.182	-74.92
886.354	-15.53
886.525	-11.43
886.697	-1.19
886.869	-1.19
887.04	-21.67
887.212	54.1
887.383	41.81
887.555	-36.01
887.726	-15.53
887.897	-48.3
888.069	-1.19
888.24	-7.34
888.412	-44.2
888.583	-109.74
888.754	-56.49
888.926	-44.2
889.097	58.2
889.268	-79.02
889.44	15.19
889.611	35.67
889.782	43.86
889.953	-25.77
890.125	52.05
890.296	-5.29
890.467	-3.24
890.638	-27.82
890.809	29.52
890.98	0.85
891.151	-44.2
891.323	64.34
891.494	-7.34
891.665	68.44
891.836	2.9
892.007	-15.53
892.178	-7.34
892.349	50
892.52	2.9
892.691	64.34
892.862	47.96
893.032	-40.11
893.203	-36.01
893.374	-7.34
893.545	56.15
893.716	39.76
893.887	15.19
894.057	43.86
894.228	-27.82
894.399	-13.48
894.57	50
894.74	-42.15
894.911	31.57
895.082	-48.3
895.253	-23.72
895.423	50
895.594	-5.29
895.764	-9.39
895.935	-3.24
896.106	-25.77
896.276	-1.19
896.447	13.14
896.617	68.44
896.788	19.29
896.958	60.24
897.129	-60.59
897.299	-31.91
897.47	-7.34
897.64	41.81
897.81	-5.29
897.981	-9.39
898.151	-83.11
898.322	-58.54
898.492	33.62
898.662	-72.87
898.832	4.95
899.003	11.09
899.173	-56.49
899.343	17.24
899.513	-79.02
