Data from USB4F104151__61__11-52-31-482.txt Node

Date: Fri Mar 14 11:52:31 EDT 2025
User: louis
Spectrometer: USB4F10415
Trigger mode: 4
Integration Time (sec): 2.000000E-2
Scans to average: 1
Electric dark correction enabled: true
Nonlinearity correction enabled: false
Boxcar width: 0
XAxis mode: Wavelengths
Number of Pixels in Spectrum: 3648
>>>>>Begin Spectral Data<<<<<
178.204	-51.88
178.424	-51.88
178.644	-51.88
178.864	-86.7
179.084	-86.7
179.304	44.37
179.524	7.51
179.744	-27.31
179.964	-19.11
180.184	-29.35
180.404	-15.02
180.624	-10.92
180.844	1.37
181.064	62.8
181.283	-58.03
181.503	15.7
181.723	27.99
181.943	56.66
182.163	58.71
182.383	-21.16
182.602	7.51
182.822	89.43
183.042	46.42
183.262	30.04
183.482	95.57
183.701	9.56
183.921	23.89
184.141	-8.87
184.361	-23.21
184.58	44.37
184.8	15.7
185.02	-4.78
185.239	118.1
185.459	42.32
185.679	97.62
185.898	-12.97
186.118	23.89
186.338	50.52
186.557	7.51
186.777	-23.21
186.997	95.57
187.216	9.56
187.436	64.85
187.655	95.57
187.875	66.9
188.095	42.32
188.314	87.38
188.534	68.95
188.753	19.8
188.973	75.09
189.192	-15.02
189.412	50.52
189.631	21.85
189.851	30.04
190.07	21.85
190.29	-105.13
190.509	32.08
190.729	-10.92
190.948	68.95
191.168	77.14
191.387	73.04
191.607	126.29
191.826	34.13
192.045	23.89
192.265	17.75
192.484	40.28
192.704	17.75
192.923	32.08
193.142	128.34
193.362	44.37
193.581	60.76
193.8	50.52
194.02	-25.26
194.239	-2.73
194.458	56.66
194.678	-17.07
194.897	-62.12
195.116	46.42
195.335	25.94
195.555	66.9
195.774	7.51
195.993	44.37
196.212	1.37
196.432	36.18
196.651	54.61
196.87	48.47
197.089	58.71
197.308	60.76
197.528	11.61
197.747	68.95
197.966	54.61
198.185	23.89
198.404	81.24
198.623	79.19
198.842	54.61
199.062	62.8
199.281	103.76
199.5	17.75
199.719	5.46
199.938	93.52
200.157	-12.97
200.376	-6.83
200.595	54.61
200.814	-19.11
201.033	7.51
201.252	17.75
201.471	15.7
201.69	23.89
201.909	15.7
202.128	-4.78
202.347	44.37
202.566	25.94
202.785	1.37
203.004	95.57
203.223	60.76
203.442	99.67
203.661	-29.35
203.879	42.32
204.098	99.67
204.317	-19.11
204.536	83.28
204.755	-0.68
204.974	27.99
205.193	66.9
205.411	71
205.63	87.38
205.849	101.72
206.068	-0.68
206.287	-66.22
206.505	5.46
206.724	1.37
206.943	17.75
207.162	15.7
207.381	58.71
207.599	-19.11
207.818	-23.21
208.037	23.89
208.255	-35.5
208.474	38.23
208.693	56.66
208.911	15.7
209.13	130.39
209.349	32.08
209.567	11.61
209.786	144.72
210.005	5.46
210.223	68.95
210.442	-15.02
210.661	-10.92
210.879	-10.92
211.098	60.76
211.316	73.04
211.535	7.51
211.753	-15.02
211.972	64.85
212.191	-2.73
212.409	32.08
212.628	36.18
212.846	-4.78
213.065	97.62
213.283	13.65
213.502	-15.02
213.72	9.56
213.938	54.61
214.157	48.47
214.375	19.8
214.594	1.37
214.812	103.76
215.031	-4.78
215.249	3.41
215.467	-25.26
215.686	38.23
215.904	107.86
216.122	5.46
216.341	-4.78
216.559	27.99
216.778	9.56
216.996	50.52
217.214	32.08
217.432	124.24
217.651	87.38
217.869	-60.07
218.087	27.99
218.306	75.09
218.524	83.28
218.742	17.75
218.96	54.61
219.179	79.19
219.397	19.8
219.615	48.47
219.833	54.61
220.051	36.18
220.27	42.32
220.488	40.28
220.706	68.95
220.924	34.13
221.142	54.61
221.36	19.8
221.578	64.85
221.796	-33.45
222.015	64.85
222.233	27.99
222.451	9.56
222.669	-66.22
222.887	19.8
223.105	50.52
223.323	40.28
223.541	44.37
223.759	91.48
223.977	-17.07
224.195	38.23
224.413	44.37
224.631	32.08
224.849	-0.68
225.067	54.61
225.285	87.38
225.503	23.89
225.721	17.75
225.939	34.13
226.157	13.65
226.375	36.18
226.592	7.51
226.81	15.7
227.028	50.52
227.246	79.19
227.464	21.85
227.682	46.42
227.9	38.23
228.117	60.76
228.335	13.65
228.553	62.8
228.771	-19.11
228.989	48.47
229.206	-0.68
229.424	25.94
229.642	36.18
229.86	21.85
230.077	134.48
230.295	36.18
230.513	56.66
230.731	15.7
230.948	27.99
231.166	64.85
231.384	-29.35
231.601	56.66
231.819	95.57
232.037	1.37
232.254	-0.68
232.472	40.28
232.689	-2.73
232.907	75.09
233.125	21.85
233.342	36.18
233.56	77.14
233.777	71
233.995	27.99
234.213	40.28
234.43	62.8
234.648	83.28
234.865	71
235.083	17.75
235.3	34.13
235.518	60.76
235.735	40.28
235.953	77.14
236.17	66.9
236.388	60.76
236.605	-27.31
236.822	81.24
237.04	56.66
237.257	34.13
237.475	-19.11
237.692	56.66
237.909	15.7
238.127	-29.35
238.344	23.89
238.562	85.33
238.779	5.46
238.996	-19.11
239.214	-12.97
239.431	66.9
239.648	-33.45
239.865	83.28
240.083	30.04
240.3	44.37
240.517	73.04
240.735	19.8
240.952	138.58
241.169	54.61
241.386	-12.97
241.603	-19.11
241.821	89.43
242.038	11.61
242.255	87.38
242.472	15.7
242.689	-4.78
242.907	81.24
243.124	83.28
243.341	54.61
243.558	36.18
243.775	40.28
243.992	52.56
244.209	-2.73
244.426	85.33
244.643	23.89
244.86	-6.83
245.078	15.7
245.295	42.32
245.512	68.95
245.729	13.65
245.946	52.56
246.163	23.89
246.38	68.95
246.597	-15.02
246.814	99.67
247.031	81.24
247.248	81.24
247.464	79.19
247.681	-12.97
247.898	30.04
248.115	-19.11
248.332	-6.83
248.549	5.46
248.766	25.94
248.983	1.37
249.2	17.75
249.417	87.38
249.633	48.47
249.85	-8.87
250.067	7.51
250.284	54.61
250.501	25.94
250.717	64.85
250.934	77.14
251.151	-12.97
251.368	44.37
251.585	89.43
251.801	54.61
252.018	13.65
252.235	32.08
252.451	-2.73
252.668	-23.21
252.885	9.56
253.102	15.7
253.318	-10.92
253.535	85.33
253.752	132.44
253.968	-53.93
254.185	50.52
254.401	73.04
254.618	30.04
254.835	7.51
255.051	46.42
255.268	83.28
255.484	-41.64
255.701	87.38
255.917	71
256.134	79.19
256.351	13.65
256.567	-12.97
256.784	120.15
257	7.51
257.217	13.65
257.433	97.62
257.65	42.32
257.866	-19.11
258.082	71
258.299	52.56
258.515	77.14
258.732	11.61
258.948	-25.26
259.165	68.95
259.381	77.14
259.597	42.32
259.814	87.38
260.03	21.85
260.246	48.47
260.463	46.42
260.679	48.47
260.895	15.7
261.112	36.18
261.328	-4.78
261.544	-55.98
261.761	107.86
261.977	15.7
262.193	40.28
262.409	34.13
262.626	-29.35
262.842	109.91
263.058	32.08
263.274	48.47
263.49	30.04
263.707	15.7
263.923	99.67
264.139	32.08
264.355	56.66
264.571	-21.16
264.787	-6.83
265.004	25.94
265.22	-2.73
265.436	62.8
265.652	7.51
265.868	46.42
266.084	-21.16
266.3	17.75
266.516	56.66
266.732	40.28
266.948	27.99
267.164	36.18
267.38	73.04
267.596	-25.26
267.812	54.61
268.028	75.09
268.244	-27.31
268.46	38.23
268.676	36.18
268.892	40.28
269.108	75.09
269.324	62.8
269.54	-19.11
269.756	126.29
269.972	93.52
270.188	-8.87
270.403	19.8
270.619	40.28
270.835	58.71
271.051	-2.73
271.267	13.65
271.483	7.51
271.698	91.48
271.914	44.37
272.13	-12.97
272.346	30.04
272.562	34.13
272.777	7.51
272.993	-0.68
273.209	9.56
273.425	64.85
273.64	1.37
273.856	81.24
274.072	-27.31
274.287	23.89
274.503	-51.88
274.719	52.56
274.934	36.18
275.15	34.13
275.366	23.89
275.581	13.65
275.797	52.56
276.012	71
276.228	17.75
276.444	11.61
276.659	68.95
276.875	13.65
277.09	27.99
277.306	81.24
277.521	91.48
277.737	83.28
277.952	73.04
278.168	-23.21
278.383	15.7
278.599	-15.02
278.814	42.32
279.03	-31.4
279.245	91.48
279.461	68.95
279.676	81.24
279.892	-15.02
280.107	25.94
280.322	50.52
280.538	30.04
280.753	48.47
280.969	7.51
281.184	36.18
281.399	48.47
281.615	85.33
281.83	36.18
282.045	60.76
282.26	-29.35
282.476	48.47
282.691	120.15
282.906	62.8
283.122	38.23
283.337	23.89
283.552	44.37
283.767	13.65
283.983	73.04
284.198	1.37
284.413	7.51
284.628	-15.02
284.843	68.95
285.058	-19.11
285.274	46.42
285.489	21.85
285.704	87.38
285.919	36.18
286.134	60.76
286.349	36.18
286.564	77.14
286.779	54.61
286.995	5.46
287.21	-17.07
287.425	107.86
287.64	38.23
287.855	56.66
288.07	23.89
288.285	44.37
288.5	134.48
288.715	40.28
288.93	52.56
289.145	144.72
289.36	87.38
289.575	36.18
289.79	13.65
290.004	81.24
290.219	42.32
290.434	54.61
290.649	32.08
290.864	13.65
291.079	42.32
291.294	40.28
291.509	89.43
291.724	9.56
291.938	-33.45
292.153	34.13
292.368	73.04
292.583	27.99
292.798	36.18
293.012	25.94
293.227	-78.51
293.442	60.76
293.657	13.65
293.871	85.33
294.086	83.28
294.301	-4.78
294.516	103.76
294.73	40.28
294.945	15.7
295.16	46.42
295.374	32.08
295.589	111.96
295.804	-15.02
296.018	83.28
296.233	73.04
296.447	44.37
296.662	11.61
296.877	25.94
297.091	116.05
297.306	30.04
297.52	42.32
297.735	85.33
297.949	-23.21
298.164	71
298.378	25.94
298.593	25.94
298.807	-12.97
299.022	32.08
299.236	19.8
299.451	71
299.665	3.41
299.88	19.8
300.094	71
300.309	46.42
300.523	-27.31
300.737	32.08
300.952	17.75
301.166	21.85
301.381	71
301.595	17.75
301.809	30.04
302.024	40.28
302.238	27.99
302.452	17.75
302.667	44.37
302.881	81.24
303.095	52.56
303.309	17.75
303.524	40.28
303.738	77.14
303.952	11.61
304.166	-4.78
304.381	30.04
304.595	138.58
304.809	118.1
305.023	52.56
305.237	99.67
305.452	36.18
305.666	-21.16
305.88	7.51
306.094	52.56
306.308	44.37
306.522	68.95
306.736	122.2
306.95	81.24
307.164	56.66
307.379	-12.97
307.593	161.11
307.807	56.66
308.021	23.89
308.235	40.28
308.449	25.94
308.663	73.04
308.877	23.89
309.091	42.32
309.305	91.48
309.519	-4.78
309.733	107.86
309.947	15.7
310.161	-10.92
310.374	79.19
310.588	-2.73
310.802	68.95
311.016	44.37
311.23	-35.5
311.444	25.94
311.658	19.8
311.872	116.05
312.085	107.86
312.299	13.65
312.513	54.61
312.727	9.56
312.941	-19.11
313.154	91.48
313.368	-4.78
313.582	68.95
313.796	30.04
314.009	50.52
314.223	32.08
314.437	-12.97
314.651	11.61
314.864	42.32
315.078	68.95
315.292	68.95
315.505	-4.78
315.719	56.66
315.933	58.71
316.146	50.52
316.36	34.13
316.573	17.75
316.787	81.24
317.001	58.71
317.214	36.18
317.428	-25.26
317.641	9.56
317.855	15.7
318.068	93.52
318.282	91.48
318.495	17.75
318.709	30.04
318.922	21.85
319.136	95.57
319.349	56.66
319.563	-29.35
319.776	93.52
319.99	13.65
320.203	-6.83
320.417	58.71
320.63	103.76
320.843	101.72
321.057	68.95
321.27	62.8
321.483	77.14
321.697	25.94
321.91	109.91
322.124	19.8
322.337	101.72
322.55	17.75
322.763	17.75
322.977	23.89
323.19	48.47
323.403	77.14
323.617	40.28
323.83	109.91
324.043	54.61
324.256	40.28
324.469	77.14
324.683	-19.11
324.896	68.95
325.109	66.9
325.322	73.04
325.535	89.43
325.748	75.09
325.962	81.24
326.175	73.04
326.388	89.43
326.601	15.7
326.814	13.65
327.027	42.32
327.24	48.47
327.453	-10.92
327.666	52.56
327.879	25.94
328.092	77.14
328.305	83.28
328.518	21.85
328.731	5.46
328.944	54.61
329.157	68.95
329.37	103.76
329.583	48.47
329.796	103.76
330.009	-8.87
330.222	56.66
330.435	7.51
330.648	15.7
330.861	19.8
331.073	-21.16
331.286	93.52
331.499	-10.92
331.712	97.62
331.925	85.33
332.138	1.37
332.35	50.52
332.563	93.52
332.776	73.04
332.989	-15.02
333.202	-12.97
333.414	50.52
333.627	19.8
333.84	21.85
334.053	52.56
334.265	46.42
334.478	25.94
334.691	46.42
334.903	15.7
335.116	42.32
335.329	44.37
335.541	77.14
335.754	79.19
335.966	-0.68
336.179	85.33
336.392	83.28
336.604	34.13
336.817	46.42
337.029	32.08
337.242	7.51
337.454	42.32
337.667	52.56
337.88	62.8
338.092	19.8
338.305	105.81
338.517	62.8
338.729	93.52
338.942	73.04
339.154	15.7
339.367	32.08
339.579	120.15
339.792	15.7
340.004	-17.07
340.217	81.24
340.429	56.66
340.641	23.89
340.854	-33.45
341.066	-17.07
341.278	27.99
341.491	83.28
341.703	25.94
341.915	36.18
342.128	73.04
342.34	-19.11
342.552	60.76
342.764	87.38
342.977	62.8
343.189	7.51
343.401	114
343.613	17.75
343.826	93.52
344.038	13.65
344.25	5.46
344.462	27.99
344.674	30.04
344.886	40.28
345.099	62.8
345.311	50.52
345.523	34.13
345.735	1.37
345.947	122.2
346.159	-15.02
346.371	58.71
346.583	-31.4
346.795	38.23
347.007	62.8
347.219	62.8
347.431	-12.97
347.643	114
347.855	38.23
348.067	-8.87
348.279	77.14
348.491	46.42
348.703	7.51
348.915	79.19
349.127	62.8
349.339	-25.26
349.551	79.19
349.763	44.37
349.975	3.41
350.187	83.28
350.399	23.89
350.61	32.08
350.822	77.14
351.034	19.8
351.246	32.08
351.458	32.08
351.669	83.28
351.881	66.9
352.093	44.37
352.305	109.91
352.517	46.42
352.728	62.8
352.94	30.04
353.152	32.08
353.363	21.85
353.575	32.08
353.787	40.28
353.999	56.66
354.21	118.1
354.422	27.99
354.633	27.99
354.845	60.76
355.057	107.86
355.268	13.65
355.48	71
355.692	66.9
355.903	17.75
356.115	60.76
356.326	1.37
356.538	64.85
356.749	77.14
356.961	128.34
357.172	-4.78
357.384	50.52
357.595	77.14
357.807	40.28
358.018	36.18
358.23	52.56
358.441	89.43
358.653	13.65
358.864	52.56
359.075	38.23
359.287	34.13
359.498	97.62
359.709	32.08
359.921	13.65
360.132	9.56
360.344	114
360.555	48.47
360.766	38.23
360.977	32.08
361.189	85.33
361.4	42.32
361.611	7.51
361.823	34.13
362.034	105.81
362.245	52.56
362.456	62.8
362.667	48.47
362.879	130.39
363.09	85.33
363.301	27.99
363.512	54.61
363.723	101.72
363.935	-25.26
364.146	71
364.357	42.32
364.568	66.9
364.779	21.85
364.99	75.09
365.201	124.24
365.412	118.1
365.623	19.8
365.834	79.19
366.045	52.56
366.256	-0.68
366.467	77.14
366.678	66.9
366.889	25.94
367.1	48.47
367.311	32.08
367.522	66.9
367.733	58.71
367.944	68.95
368.155	75.09
368.366	154.96
368.577	66.9
368.788	99.67
368.999	87.38
369.209	85.33
369.42	93.52
369.631	126.29
369.842	44.37
370.053	56.66
370.264	42.32
370.474	21.85
370.685	99.67
370.896	27.99
371.107	109.91
371.317	36.18
371.528	21.85
371.739	87.38
371.95	52.56
372.16	122.2
372.371	77.14
372.582	58.71
372.792	1.37
373.003	122.2
373.214	5.46
373.424	54.61
373.635	71
373.846	144.72
374.056	97.62
374.267	64.85
374.477	54.61
374.688	46.42
374.898	25.94
375.109	118.1
375.319	62.8
375.53	46.42
375.74	17.75
375.951	99.67
376.161	44.37
376.372	40.28
376.582	25.94
376.793	21.85
377.003	15.7
377.214	44.37
377.424	21.85
377.635	71
377.845	40.28
378.055	85.33
378.266	77.14
378.476	116.05
378.686	58.71
378.897	-15.02
379.107	60.76
379.317	-2.73
379.528	71
379.738	71
379.948	19.8
380.158	83.28
380.369	60.76
380.579	15.7
380.789	71
380.999	75.09
381.21	34.13
381.42	85.33
381.63	56.66
381.84	144.72
382.05	122.2
382.261	44.37
382.471	58.71
382.681	77.14
382.891	64.85
383.101	42.32
383.311	36.18
383.521	93.52
383.731	73.04
383.941	48.47
384.151	32.08
384.361	54.61
384.571	15.7
384.781	97.62
384.991	132.44
385.201	27.99
385.411	44.37
385.621	48.47
385.831	124.24
386.041	68.95
386.251	-2.73
386.461	95.57
386.671	101.72
386.881	122.2
387.091	85.33
387.301	126.29
387.511	17.75
387.72	56.66
387.93	38.23
388.14	32.08
388.35	103.76
388.56	68.95
388.769	91.48
388.979	38.23
389.189	101.72
389.399	38.23
389.609	99.67
389.818	154.96
390.028	99.67
390.238	99.67
390.447	42.32
390.657	3.41
390.867	50.52
391.076	81.24
391.286	66.9
391.496	64.85
391.705	66.9
391.915	146.77
392.125	60.76
392.334	120.15
392.544	42.32
392.753	62.8
392.963	89.43
393.172	93.52
393.382	52.56
393.591	52.56
393.801	120.15
394.01	64.85
394.22	77.14
394.429	50.52
394.639	73.04
394.848	109.91
395.058	87.38
395.267	32.08
395.477	99.67
395.686	73.04
395.895	68.95
396.105	144.72
396.314	64.85
396.524	165.2
396.733	58.71
396.942	109.91
397.152	167.25
397.361	91.48
397.57	114
397.78	87.38
397.989	44.37
398.198	140.63
398.407	38.23
398.617	99.67
398.826	109.91
399.035	75.09
399.244	83.28
399.453	64.85
399.663	77.14
399.872	107.86
400.081	89.43
400.29	85.33
400.499	191.83
400.708	144.72
400.917	64.85
401.127	161.11
401.336	93.52
401.545	208.21
401.754	210.26
401.963	154.96
402.172	64.85
402.381	144.72
402.59	111.96
402.799	175.44
403.008	128.34
403.217	48.47
403.426	146.77
403.635	42.32
403.844	171.35
404.053	197.97
404.262	36.18
404.471	154.96
404.68	148.82
404.888	208.21
405.097	148.82
405.306	161.11
405.515	189.78
405.724	226.64
405.933	193.87
406.142	226.64
406.35	187.73
406.559	202.07
406.768	269.65
406.977	286.03
407.185	173.39
407.394	208.21
407.603	154.96
407.812	253.27
408.02	240.98
408.229	281.94
408.438	195.92
408.646	296.27
408.855	337.23
409.064	197.97
409.272	329.04
409.481	269.65
409.69	277.84
409.898	361.81
410.107	306.51
410.315	353.62
410.524	363.86
410.733	316.75
410.941	388.43
411.15	453.97
411.358	380.24
411.567	503.12
411.775	365.9
411.984	406.86
412.192	472.4
412.401	525.65
412.609	519.5
412.818	531.79
413.026	468.3
413.234	570.7
413.443	578.89
413.651	587.08
413.86	605.52
414.068	628.04
414.276	693.58
414.485	650.57
414.693	644.43
414.901	752.97
415.11	695.63
415.318	744.78
415.526	867.66
415.734	804.17
415.943	861.51
416.151	871.75
416.359	804.17
416.567	925
416.776	994.63
416.984	1017.16
417.192	1023.3
417.4	1082.69
417.608	1056.07
417.817	1213.76
418.025	1156.42
418.233	1264.96
418.441	1181
418.649	1275.2
418.857	1396.03
419.065	1383.74
419.273	1332.55
419.481	1518.91
419.689	1533.25
419.897	1617.21
420.105	1598.78
420.313	1633.6
420.521	1631.55
420.729	1779
420.937	1883.45
421.145	1873.21
421.353	1901.88
421.561	2053.43
421.769	2106.68
421.977	2155.83
422.185	2084.15
422.393	2297.14
422.601	2426.16
422.809	2434.35
423.017	2489.65
423.224	2567.47
423.432	2614.57
423.64	2639.15
423.848	2905.39
424.056	2813.23
424.263	2995.5
424.471	2848.04
424.679	3134.76
424.887	3202.34
425.094	3310.88
425.302	3444
425.51	3495.2
425.718	3636.51
425.925	3673.37
426.133	3912.99
426.341	4019.48
426.548	4199.7
426.756	4142.36
426.964	4267.28
427.171	4629.77
427.379	4470.03
427.586	4697.36
427.794	4873.48
428.001	5022.98
428.209	5328.13
428.417	5035.27
428.624	5555.46
428.832	5498.11
429.039	5563.65
429.247	5625.09
429.454	6012.15
429.662	6460.66
429.869	6006.01
430.076	6446.32
430.284	6251.77
430.491	6515.95
430.699	6976.75
430.906	6860.01
431.114	7091.43
431.321	7329
431.528	7439.59
431.736	7851.23
431.943	8219.86
432.15	7963.87
432.358	8121.56
432.565	8684.75
432.772	8592.59
432.979	8907.98
433.187	8991.95
433.394	9252.04
433.601	9770.18
433.808	10020.03
434.016	9718.98
434.223	10128.57
434.43	10820.78
434.637	10423.48
434.844	11115.69
435.052	11439.27
435.259	11322.54
435.466	11654.31
435.673	11400.36
435.88	12205.21
436.087	12446.87
436.294	12682.39
436.501	12547.22
436.708	12717.2
436.915	13010.06
437.122	13603.97
437.329	13716.61
437.537	14122.11
437.743	14568.57
437.95	14306.43
438.157	15113.33
438.364	15574.12
438.571	15250.54
438.778	15756.39
438.985	17251.41
439.192	16329.82
439.399	17036.37
439.606	16528.47
439.813	17652.81
440.02	18422.84
440.227	18138.18
440.433	17863.75
440.64	18609.21
440.847	18269.25
441.054	19047.47
441.261	19924.01
441.467	19921.96
441.674	20550.68
441.881	21115.92
442.088	21048.34
442.294	20892.69
442.501	21640.2
442.708	21888.01
442.914	22668.28
443.121	23972.84
443.328	23092.21
443.534	24722.4
443.741	24038.37
443.948	23790.57
444.154	25277.4
444.361	25164.76
444.568	25461.71
444.774	25291.73
444.981	25637.84
445.187	26317.76
445.394	27775.92
445.6	27222.97
445.807	29713.3
446.013	28355.49
446.22	29080.47
446.426	30331.78
446.633	30231.43
446.839	31441.78
447.046	30376.84
447.252	31830.9
447.459	32297.83
447.665	31619.95
447.871	33424.22
448.078	34763.59
448.284	32818.02
448.491	33788.75
448.697	34956.1
448.903	35674.93
449.11	36270.89
449.316	35304.25
449.522	36098.86
449.728	36805.41
449.935	37061.41
450.141	37202.72
450.347	37909.27
450.553	36942.63
450.76	37071.65
450.966	38865.67
451.172	38425.35
451.378	38945.54
451.584	38157.07
451.791	39006.98
451.997	38886.15
452.203	39705.34
452.409	39686.9
452.615	39392
452.821	38003.47
453.027	37958.42
453.233	39478.01
453.44	38255.37
453.646	38734.6
453.852	38888.2
454.058	39545.59
454.264	38171.41
454.47	39058.18
454.676	37993.23
454.882	39760.63
455.088	36150.06
455.294	36414.25
455.5	37071.65
455.705	37524.25
455.911	35799.86
456.117	35683.12
456.323	34954.05
456.529	33346.39
456.735	34216.78
456.941	33674.07
457.147	32889.7
457.352	31925.1
457.558	31499.12
457.764	31708.02
457.97	30919.55
458.176	30497.67
458.381	30428.04
458.587	28820.38
458.793	28877.72
458.999	27474.87
459.204	29408.15
459.41	28631.97
459.616	26602.43
459.821	26282.95
460.027	26633.15
460.233	26106.82
460.438	24828.89
460.644	25228.24
460.85	24058.85
461.055	23366.64
461.261	23647.21
461.466	21791.75
461.672	21187.6
461.878	22584.32
462.083	20974.61
462.289	20792.34
462.494	20513.82
462.7	19266.61
462.905	19145.78
463.111	19571.75
463.316	20075.56
463.522	19526.7
463.727	19184.69
463.932	19190.83
464.138	19166.26
464.343	19246.13
464.549	18517.05
464.754	19418.16
464.959	19033.14
465.165	18932.79
465.37	18023.49
465.575	17720.39
465.781	18662.46
465.986	18621.5
466.191	17740.87
466.397	17790.02
466.602	16933.97
466.807	17298.51
467.012	17235.02
467.218	17022.03
467.423	16958.55
467.628	16878.68
467.833	17804.36
468.038	16979.03
468.244	16634.97
468.449	17435.72
468.654	16854.1
468.859	16557.14
469.064	16317.53
469.269	15819.88
469.474	15967.33
469.679	16196.7
469.885	15928.42
470.09	15871.08
470.295	15879.27
470.5	15604.84
470.705	15656.04
470.91	15449.19
471.115	15187.05
471.32	15330.41
471.525	15438.95
471.73	15230.06
471.935	14861.43
472.139	14337.15
472.344	14525.56
472.549	14279.8
472.754	14351.48
472.959	14052.48
473.164	13501.58
473.369	13673.6
473.574	14085.25
473.778	13761.67
473.983	13927.55
474.188	13507.72
474.393	12960.91
474.598	13319.31
474.802	12850.32
475.007	12878.99
475.212	12756.11
475.417	12477.59
475.621	12612.76
475.826	12549.27
476.031	12383.38
476.235	11928.74
476.44	12162.2
476.645	11838.62
476.849	12147.87
477.054	11898.02
477.259	11752.61
477.463	11680.93
477.668	11463.85
477.872	11453.61
478.077	11252.91
478.282	10910.89
478.486	10886.32
478.691	10691.76
478.895	10706.1
479.1	10734.77
479.304	10931.37
479.509	10468.53
479.713	10646.71
479.918	10403
480.122	10210.49
480.326	10177.72
480.531	10452.15
480.735	10257.59
480.94	10407.09
481.144	10366.14
481.348	10104
481.553	10294.46
481.757	9950.4
481.961	10263.74
482.166	10128.57
482.37	10155.19
482.574	9665.73
482.778	10011.84
482.983	10034.36
483.187	9999.55
483.391	10173.63
483.595	9833.66
483.8	10007.74
484.004	9960.64
484.208	10185.91
484.412	10020.03
484.616	9983.16
484.821	9927.87
485.025	9731.26
485.229	10151.1
485.433	9833.66
485.637	9929.92
485.841	9907.39
486.045	9809.09
486.249	9985.21
486.453	9940.16
486.657	9891.01
486.861	9946.3
487.065	9737.41
487.269	9825.47
487.473	9854.14
487.677	10024.12
487.881	10054.84
488.085	10044.6
488.289	10075.32
488.493	10040.51
488.697	9952.45
488.901	9952.45
489.105	9739.46
489.309	10083.52
489.512	10075.32
489.716	10095.8
489.92	10093.76
490.124	10204.35
490.328	10319.03
490.531	10046.65
490.735	10081.47
490.939	10243.26
491.143	10124.47
491.346	10056.89
491.55	10249.4
491.754	10466.49
491.958	10302.65
492.161	10431.67
492.365	10489.01
492.569	10482.87
492.772	10511.54
492.976	10636.47
493.18	10609.84
493.383	10921.13
493.587	10650.8
493.79	10855.6
493.994	10818.74
494.197	10970.29
494.401	10865.84
494.605	11134.12
494.808	11287.72
495.012	11248.81
495.215	11257
495.419	11517.09
495.622	11220.14
495.825	11218.09
496.029	11601.06
496.232	11855.01
496.436	11803.81
496.639	12035.23
496.843	12053.66
497.046	12119.2
497.249	12172.44
497.453	12328.09
497.656	12426.39
497.859	12436.63
498.063	12717.2
498.266	12954.77
498.469	12881.04
498.673	12977.3
498.876	13274.25
499.079	13462.66
499.282	13380.75
499.485	13544.58
499.689	13661.32
499.892	13767.81
500.095	13995.14
500.298	14609.53
500.501	14103.68
500.705	14867.57
500.908	14748.79
501.111	15010.93
501.314	14963.83
501.517	14980.21
501.72	15479.91
501.923	15266.92
502.126	15381.61
502.329	15907.94
502.532	15975.52
502.735	16028.77
502.938	16141.41
503.141	16542.81
503.344	16481.37
503.547	16653.4
503.75	16854.1
503.953	17116.24
504.156	17208.4
504.359	17607.75
504.562	17425.48
504.765	17898.56
504.968	18177.09
505.17	18189.38
505.373	18113.6
505.576	18543.67
505.779	18756.66
505.982	18787.38
506.185	19444.78
506.387	19248.18
506.59	19506.22
506.793	19625
506.996	19471.4
507.198	20349.98
507.401	20225.06
507.604	20511.77
507.807	20870.17
508.009	21017.62
508.212	21156.88
508.415	21738.51
508.617	21601.29
508.82	21990.41
509.022	21771.27
509.225	22178.82
509.428	22432.77
509.63	22522.88
509.833	22602.75
510.035	23122.93
510.238	23100.4
510.44	23311.35
510.643	24159.2
510.845	23938.02
511.048	23983.08
511.25	24415.2
511.453	24421.34
511.655	25336.79
511.858	25097.17
512.06	25148.37
512.262	25650.13
512.465	25250.77
512.667	25867.21
512.87	26248.13
513.072	25918.41
513.274	26690.49
513.477	27087.8
513.679	27528.11
513.881	27366.32
514.084	27909.04
514.286	27937.71
514.488	28001.19
514.69	28777.37
514.893	28523.43
515.095	28738.46
515.297	29447.06
515.499	29111.19
515.701	29692.82
515.904	29832.08
516.106	30069.64
516.308	30219.14
516.51	30849.92
516.712	30595.97
516.914	31241.08
517.116	31951.73
517.318	32142.19
517.52	31990.64
517.722	32121.71
517.925	32408.42
518.127	32641.89
518.329	33117.02
518.531	32895.84
518.733	33678.16
518.935	33993.55
519.136	34038.61
519.338	34370.38
519.54	34605.89
519.742	34757.44
519.944	35107.65
520.146	35564.34
520.348	35631.93
520.55	35828.53
520.752	35656.5
520.954	36530.98
521.155	36127.53
521.357	36868.9
521.559	37223.2
521.761	37833.49
521.963	37886.74
522.164	38224.65
522.366	37954.32
522.568	38486.79
522.77	38431.5
522.971	39142.14
523.173	38705.93
523.375	39404.28
523.576	39070.47
523.778	39416.57
523.98	39918.32
524.181	40145.65
524.383	40073.97
524.584	40737.51
524.786	40854.25
524.988	40835.81
525.189	41028.32
525.391	41564.89
525.592	41814.74
525.794	41456.35
525.995	41669.34
526.197	41738.97
526.398	41939.67
526.6	42111.7
526.801	42197.71
527.003	42586.83
527.204	42390.22
527.406	43260.61
527.607	42808.01
527.808	43283.14
528.01	43086.53
528.211	43061.96
528.412	44335.79
528.614	43995.83
528.815	43743.93
529.016	44192.43
529.218	44180.15
529.419	44036.79
529.62	44548.78
529.822	44151.48
530.023	44333.74
530.224	44415.66
530.425	44288.69
530.626	44206.77
530.828	43778.75
531.029	45290.15
531.23	44683.95
531.431	44946.09
531.632	44972.71
531.833	45279.91
532.035	44722.86
532.236	45224.61
532.437	45005.48
532.638	44982.95
532.839	45257.38
533.04	45531.81
533.241	45087.4
533.442	45626.01
533.643	45650.59
533.844	45212.32
534.045	45597.34
534.246	45136.55
534.447	45701.79
534.648	45687.45
534.849	45791.9
535.05	45542.05
535.251	45517.47
535.451	45423.26
535.652	46135.96
535.853	45583.01
536.054	45638.3
536.255	45830.81
536.456	45374.11
536.657	46312.08
536.857	45595.29
537.058	45728.41
537.259	45912.73
537.46	45490.85
537.66	45818.52
537.861	45916.82
538.062	46008.98
538.263	45535.9
538.463	45324.96
538.664	45343.39
538.865	45695.64
539.065	45800.09
539.266	45298.34
539.466	46217.88
539.667	45458.08
539.868	46004.89
540.068	45476.51
540.269	45556.38
540.469	45707.93
540.67	45572.77
540.87	45441.7
541.071	45916.82
541.271	45949.59
541.472	45658.78
541.672	45421.22
541.873	45101.73
542.073	44960.42
542.274	45892.25
542.474	45322.91
542.675	45290.15
542.875	45795.99
543.075	45683.36
543.276	45085.35
543.476	45810.33
543.676	45144.74
543.877	45626.01
544.077	45249.19
544.277	45195.94
544.478	45435.55
544.678	45546.14
544.878	45273.76
545.078	45503.13
545.279	45281.95
545.479	45136.55
545.679	45310.63
545.879	45318.82
546.079	45451.94
546.28	45296.29
546.48	45136.55
546.68	45660.83
546.88	45308.58
547.08	45636.25
547.28	45367.97
547.48	44774.06
547.68	45593.25
547.88	44898.98
548.081	45621.92
548.281	45423.26
548.481	45165.22
548.681	45075.11
548.881	45240.99
549.081	45013.67
549.28	44937.9
549.48	45392.54
549.68	45003.43
549.88	45724.32
550.08	44655.28
550.28	45357.73
550.48	45107.88
550.68	45214.37
550.88	44796.59
551.08	45093.54
551.279	44876.46
551.479	44847.79
551.679	44905.13
551.879	44872.36
552.079	45095.59
552.278	44608.17
552.478	44970.66
552.678	44886.7
552.878	45257.38
553.077	44806.83
553.277	44589.74
553.477	45232.8
553.676	44784.3
553.876	44815.02
554.076	44589.74
554.275	44847.79
554.475	44163.76
554.674	45056.68
554.874	44653.23
555.074	44102.32
555.273	44810.92
555.473	45007.53
555.672	44219.06
555.872	44348.08
556.071	44446.38
556.271	44636.84
556.47	44444.34
556.67	44188.34
556.869	44126.9
557.068	44116.66
557.268	43948.73
557.467	44368.56
557.667	44124.85
557.866	43752.12
558.065	43487.93
558.265	43770.55
558.464	43502.27
558.663	44233.39
558.863	43338.43
559.062	44067.51
559.261	43219.65
559.461	43954.87
559.66	43274.94
559.859	43496.13
560.058	43137.73
560.258	43363.01
560.457	42836.68
560.656	43543.23
560.855	43285.18
561.054	43373.25
561.253	42922.69
561.453	43070.15
561.652	43061.96
561.851	43127.49
562.05	42881.74
562.249	42476.24
562.448	42916.55
562.647	42867.4
562.846	42576.59
563.045	42496.72
563.244	41978.58
563.443	42818.25
563.642	41636.57
563.841	42435.28
564.04	41788.12
564.239	42117.84
564.438	41681.63
564.637	42144.47
564.836	42160.85
565.035	41525.98
565.234	41904.85
565.432	41597.66
565.631	41544.41
565.83	41714.39
566.029	41083.62
566.228	41360.09
566.427	41339.61
566.625	41237.22
566.824	40602.35
567.023	41532.12
567.222	40399.6
567.42	41208.54
567.619	40598.25
567.818	40751.85
568.016	40456.94
568.215	41005.8
568.414	40801
568.612	40717.03
568.811	40276.72
569.01	40076.02
569.208	39901.94
569.407	40260.33
569.605	39875.32
569.804	40202.99
570.002	39287.55
570.201	39774.97
570.4	39791.35
570.598	39404.28
570.797	39285.5
570.995	39930.61
571.193	38966.02
571.392	39328.51
571.59	38796.04
571.789	38970.11
571.987	39056.13
572.186	38615.82
572.384	38583.05
572.582	38765.32
572.781	38308.62
572.979	38185.74
573.177	38742.79
573.376	38437.64
573.574	38267.66
573.772	38294.29
573.971	38130.45
574.169	37665.56
574.367	37956.37
574.565	37800.72
574.763	37227.29
574.962	37354.27
575.16	37155.61
575.358	37200.67
575.556	37012.26
575.754	37313.31
575.952	36809.51
576.151	37085.98
576.349	36369.19
576.547	36870.95
576.745	36750.12
576.943	36746.02
577.141	36494.12
577.339	36639.53
577.537	36363.05
577.735	36131.63
577.933	35572.53
578.131	36057.9
578.329	36045.62
578.527	35765.04
578.725	35900.21
578.923	35914.55
579.121	35361.59
579.319	35791.67
579.516	35808.05
579.714	35214.14
579.912	35308.35
580.11	35230.52
580.308	35103.55
580.506	34956.1
580.704	34714.44
580.901	35035.97
581.099	34882.37
581.297	34257.74
581.495	34505.54
581.692	34511.69
581.89	34184.01
582.088	34372.42
582.285	34120.52
582.483	34126.67
582.681	33903.44
582.878	33964.88
583.076	33663.83
583.274	34087.76
583.471	33299.29
583.669	33407.83
583.866	33215.32
584.064	33807.19
584.262	33446.74
584.459	33397.59
584.657	33223.51
584.854	33028.96
585.052	32820.06
585.249	33266.52
585.447	32969.57
585.644	32605.03
585.841	32514.92
586.039	32709.47
586.236	32748.39
586.434	32224.11
586.631	32052.08
586.828	32322.41
587.026	32033.64
587.223	32088.94
587.42	31818.61
587.618	31961.97
587.815	31462.26
588.012	31609.72
588.21	31417.21
588.407	32013.16
588.604	31288.18
588.801	31138.68
588.999	31122.3
589.196	31261.56
589.393	31015.8
589.59	31048.57
589.787	30591.87
589.984	30780.29
590.182	30645.12
590.379	30663.55
590.576	30540.68
590.773	30319.49
590.97	30026.64
591.167	30399.37
591.364	29930.38
591.561	30221.19
591.758	29918.09
591.955	29752.21
592.152	29836.17
592.349	29528.98
592.546	29946.76
592.743	29758.35
592.94	29072.28
593.137	29629.33
593.334	29729.68
593.531	29340.57
593.727	29148.06
593.924	29123.48
594.121	28844.96
594.318	28867.48
594.515	28890.01
594.712	29070.23
594.908	28984.22
595.105	28832.67
595.302	28554.15
595.499	28672.93
595.696	28171.18
595.892	28179.37
596.089	28162.98
596.286	28218.28
596.482	28226.47
596.679	27759.53
596.876	28144.55
597.072	27849.64
597.269	27960.23
597.466	27505.59
597.662	27704.24
597.859	27341.75
598.055	27397.04
598.252	27296.69
598.448	27296.69
598.645	27059.13
598.841	27100.09
599.038	26942.39
599.234	26985.4
599.431	26780.6
599.627	26538.94
599.824	26616.77
600.02	26612.67
600.217	26502.08
600.413	26196.93
600.609	26328
600.806	26346.44
601.002	26325.96
601.198	25854.92
601.395	26086.34
601.591	26045.38
601.787	25861.07
601.984	25582.54
602.18	26069.96
602.376	25490.38
602.572	25543.63
602.769	25805.77
602.965	25080.79
603.161	25609.17
603.357	25545.68
603.553	25230.29
603.75	25258.96
603.946	25326.55
604.142	25062.36
604.338	25052.12
604.534	24935.38
604.73	24810.46
604.926	24407.01
605.122	24513.5
605.318	24435.68
605.514	24237.03
605.71	23905.26
605.906	24417.25
606.102	24097.77
606.298	24273.89
606.494	24249.32
606.69	24089.57
606.886	24280.03
607.082	23690.22
607.278	24163.3
607.474	23671.79
607.67	23671.79
607.866	23526.38
608.062	23632.88
608.257	23561.2
608.453	23774.19
608.649	23376.88
608.845	23397.36
609.041	23491.57
609.236	23223.28
609.432	23442.42
609.628	23256.05
609.824	23403.5
610.019	23208.95
610.215	22934.52
610.411	23385.07
610.606	22660.09
610.802	22846.46
610.998	23124.98
611.193	22735.87
611.389	22895.61
611.584	22592.51
611.78	22135.81
611.976	22637.56
612.171	22664.19
612.367	22336.51
612.562	22506.49
612.758	22203.39
612.953	22092.8
613.149	22285.31
613.344	22049.8
613.539	22600.7
613.735	21838.86
613.93	22322.18
614.126	21912.58
614.321	22320.13
614.517	22287.36
614.712	22070.28
614.907	21869.58
615.103	22205.44
615.298	21935.11
615.493	22037.51
615.688	21435.41
615.884	22041.6
616.079	21486.61
616.274	21361.68
616.47	21554.19
616.665	21531.66
616.86	21371.92
617.055	21679.11
617.25	21376.02
617.445	21416.97
617.641	20941.85
617.836	21392.4
618.031	20931.61
618.226	21373.97
618.421	20913.17
618.616	21124.11
618.811	20665.37
619.006	20884.5
619.201	20489.24
619.396	20792.34
619.591	20382.75
619.786	20761.62
619.981	20114.47
620.176	20298.78
620.371	19940.39
620.566	20175.91
620.761	20093.99
620.956	20136.99
621.151	19665.96
621.346	19977.25
621.541	19797.03
621.735	19907.62
621.93	19192.88
622.125	19549.23
622.32	19168.3
622.515	19389.49
622.709	19282.99
622.904	19059.76
623.099	19209.26
623.294	18852.92
623.488	18625.59
623.683	18721.85
623.878	18424.89
624.072	18408.51
624.267	18836.53
624.462	18379.84
624.656	18080.83
624.851	17988.67
625.046	18103.36
625.24	18107.46
625.435	17978.43
625.629	17681.48
625.824	17474.63
626.018	17435.72
626.213	17124.43
626.407	17552.46
626.602	17101.9
626.796	17579.08
626.991	17146.96
627.185	16956.5
627.38	16786.52
627.574	16782.42
627.768	16712.79
627.963	16833.62
628.157	16305.24
628.352	16665.69
628.546	16303.2
628.74	16325.72
628.935	16340.06
629.129	16297.05
629.323	15944.8
629.517	16215.13
629.712	16073.82
629.906	15936.61
630.1	15717.48
630.294	15787.11
630.489	15397.99
630.683	15697
630.877	15424.62
631.071	15328.36
631.265	15461.48
631.459	15309.93
631.653	15287.4
631.848	15256.68
632.042	14687.35
632.236	14687.35
632.43	14703.73
632.624	14873.71
632.818	14765.17
633.012	14627.96
633.206	14365.82
633.4	14404.73
633.594	14128.25
633.788	14152.83
633.982	14271.61
634.176	14347.39
634.369	14275.71
634.563	13960.32
634.757	13720.71
634.951	13810.82
635.145	13776
635.339	13741.19
635.533	13661.32
635.726	13612.17
635.92	13501.58
636.114	13331.59
636.308	13272.2
636.501	13315.21
636.695	13225.1
636.889	12893.33
637.083	12876.94
637.276	12840.08
637.47	12983.44
637.664	12948.62
637.857	12729.49
638.051	12782.74
638.244	12582.04
638.438	12571.8
638.632	12455.06
638.825	12534.93
639.019	12424.34
639.212	12147.87
639.406	12258.46
639.599	12149.92
639.793	12166.3
639.986	11934.88
640.18	12033.18
640.373	12027.04
640.567	11660.45
640.76	11900.06
640.954	11691.17
641.147	11623.59
641.34	11469.99
641.534	11422.89
641.727	11408.55
641.92	11725.99
642.114	11283.63
642.307	11279.53
642.5	11300.01
642.694	11025.58
642.887	10990.77
643.08	11183.27
643.273	10896.56
643.467	10923.18
643.66	10759.35
643.853	10745.01
644.046	10689.71
644.239	10814.64
644.432	10546.36
644.626	10558.64
644.819	10716.34
645.012	10675.38
645.205	10472.63
645.398	10433.72
645.591	10298.55
645.784	10181.82
645.977	10132.67
646.17	10093.76
646.363	10038.46
646.556	9985.21
646.749	10124.47
646.942	10124.47
647.135	9837.76
647.328	9821.38
647.521	9800.9
647.714	9608.39
647.907	9741.5
648.099	9729.22
648.292	9649.35
648.485	9632.96
648.678	9499.84
648.871	9585.86
649.064	9280.71
649.256	9602.24
649.449	9297.1
649.642	9172.17
649.835	9016.52
650.027	9063.63
650.22	9108.68
650.413	9176.27
650.605	9086.15
650.798	9061.58
650.991	8848.59
651.183	9016.52
651.376	8744.14
651.568	8758.48
651.761	8805.58
651.954	8549.59
652.146	8783.06
652.339	8574.16
652.531	8533.2
652.724	8406.23
652.916	8361.17
653.109	8307.93
653.301	8496.34
653.494	8371.41
653.686	8217.82
653.879	8432.85
654.071	8228.06
654.263	8117.47
654.456	8053.98
654.648	8131.8
654.84	8080.6
655.033	7881.95
655.225	7970.01
655.417	7810.27
655.61	7793.89
655.802	7746.78
655.994	7646.43
656.186	7746.78
656.379	7519.46
656.571	7521.51
656.763	7636.19
656.955	7556.32
657.148	7736.54
657.34	7812.32
657.532	7443.68
657.724	7410.92
657.916	7470.31
658.108	7498.98
658.3	7410.92
658.492	7333.09
658.684	7144.68
658.876	7095.53
659.068	7185.64
659.26	6986.99
659.452	7156.97
659.644	7070.95
659.836	6948.08
660.028	7046.38
660.22	6812.91
660.412	6857.96
660.604	6786.29
660.796	6780.14
660.988	6948.08
661.18	6726.89
661.372	6802.67
661.563	6702.32
661.755	6644.98
661.947	6763.76
662.139	6669.55
662.331	6532.34
662.522	6368.5
662.714	6413.56
662.906	6503.67
663.097	6423.8
663.289	6262.01
663.481	6270.2
663.673	6335.73
663.864	6282.49
664.056	6149.37
664.247	6255.86
664.439	6036.73
664.631	6182.13
664.822	6161.66
665.014	6046.97
665.205	6053.11
665.397	6194.42
665.588	6112.5
665.78	5922.04
665.971	5977.34
666.163	6169.85
666.354	5823.74
666.546	5846.27
666.737	5758.21
666.929	5762.3
667.12	5905.66
667.311	5543.17
667.503	5750.01
667.694	5692.67
667.885	5704.96
668.077	5528.83
668.268	5580.03
668.459	5545.22
668.651	5684.48
668.842	5512.45
669.033	5616.9
669.224	5442.82
669.416	5534.98
669.607	5510.4
669.798	5498.11
669.989	5547.26
670.18	5448.96
670.371	5369.09
670.563	5369.09
670.754	5295.36
670.945	5227.78
671.136	5307.65
671.327	5215.49
671.518	5242.12
671.709	5127.43
671.9	5174.53
672.091	5256.45
672.282	5352.71
672.473	5043.46
672.664	5123.34
672.855	5211.4
673.046	5133.57
673.237	5393.67
673.428	5104.9
673.619	4959.5
673.809	4984.07
674	5106.95
674.191	4898.06
674.382	5039.37
674.573	5072.14
674.764	4984.07
674.954	5018.89
675.145	4838.67
675.336	4918.54
675.527	4846.86
675.717	4959.5
675.908	4887.82
676.099	4879.63
676.289	4777.23
676.48	4627.73
676.671	4762.89
676.861	4672.78
677.052	4672.78
677.243	4646.16
677.433	4869.39
677.624	4699.41
677.814	4687.12
678.005	4697.36
678.195	4676.88
678.386	4566.29
678.576	4627.73
678.767	4701.45
678.957	4576.53
679.148	4695.31
679.338	4621.58
679.529	4592.91
679.719	4580.62
679.909	4621.58
680.1	4576.53
680.29	4611.34
680.481	4457.75
680.671	4562.19
680.861	4523.28
681.052	4543.76
681.242	4578.58
681.432	4535.57
681.622	4392.21
681.813	4500.75
682.003	4398.35
682.193	4486.42
682.383	4439.31
682.573	4398.35
682.764	4459.79
682.954	4402.45
683.144	4381.97
683.334	4244.76
683.524	4384.02
683.714	4343.06
683.904	4398.35
684.094	4478.22
684.284	4293.91
684.474	4349.2
684.664	4306.2
684.854	4330.77
685.044	4324.63
685.234	4269.33
685.424	4298
685.614	4134.17
685.804	4236.56
685.994	4255
686.184	4181.27
686.374	4211.99
686.564	4142.36
686.753	4269.33
686.943	4068.63
687.133	4093.21
687.323	3955.99
687.513	4138.26
687.702	4082.97
687.892	3935.51
688.082	4078.87
688.272	4013.34
688.461	4082.97
688.651	4033.82
688.841	3968.28
689.03	3822.88
689.22	4017.43
689.41	3884.31
689.599	3818.78
689.789	3937.56
689.979	3820.83
690.168	3867.93
690.358	3722.52
690.547	3779.87
690.737	3802.4
690.926	3788.06
691.116	3689.76
691.305	3824.92
691.495	3642.65
691.684	3716.38
691.874	3656.99
692.063	3687.71
692.252	3751.2
692.442	3581.21
692.631	3708.19
692.82	3640.61
693.01	3562.78
693.199	3482.91
693.388	3552.54
693.578	3632.41
693.767	3583.26
693.956	3525.92
694.146	3487.01
694.335	3573.02
694.524	3509.54
694.713	3548.45
694.902	3548.45
695.092	3425.57
695.281	3480.86
695.47	3476.77
695.659	3431.71
695.848	3396.9
696.037	3527.97
696.226	3333.41
696.415	3405.09
696.604	3448.1
696.793	3280.16
696.982	3425.57
697.171	3403.04
697.36	3544.35
697.549	3364.13
697.738	3398.95
697.927	3323.17
698.116	3411.23
698.305	3392.8
698.494	3325.22
698.683	3337.51
698.872	3304.74
699.061	3245.35
699.25	3183.91
699.438	3327.27
699.627	3222.82
699.816	3243.3
700.005	3306.79
700.193	3265.83
700.382	3290.4
700.571	3382.56
700.76	3241.25
700.948	3314.98
701.137	3173.67
701.326	3296.55
701.514	3161.38
701.703	3292.45
701.892	3163.43
702.08	3286.31
702.269	3233.06
702.457	3149.09
702.646	3321.12
702.834	3314.98
703.023	3226.92
703.212	3312.93
703.4	3231.01
703.589	3157.29
703.777	3198.24
703.965	3149.09
704.154	3220.77
704.342	3181.86
704.531	3118.37
704.719	3177.76
704.907	3198.24
705.096	3069.22
705.284	3198.24
705.472	3163.43
705.661	3097.89
705.849	3099.94
706.037	3159.33
706.226	3030.31
706.414	3198.24
706.602	2989.35
706.79	3218.72
706.979	2989.35
707.167	3147.05
707.355	3030.31
707.543	3196.2
707.731	3218.72
707.919	3134.76
708.107	3163.43
708.296	3099.94
708.484	3106.09
708.672	3075.37
708.86	3145
709.048	3130.66
709.236	3140.9
709.424	3136.81
709.612	3163.43
709.8	3130.66
709.988	3024.17
710.176	3136.81
710.364	3093.8
710.551	3153.19
710.739	3036.45
710.927	2993.45
711.115	2952.49
711.303	3200.29
711.491	3183.91
711.679	3132.71
711.866	3046.69
712.054	3110.18
712.242	3050.79
712.43	2958.63
712.617	3093.8
712.805	3052.84
712.993	3134.76
713.181	3151.14
713.368	3116.33
713.556	3151.14
713.744	2995.5
713.931	3007.78
714.119	3079.46
714.306	3097.89
714.494	3085.61
714.682	3124.52
714.869	2929.96
715.057	3145
715.244	3126.57
715.432	3165.48
715.619	3145
715.807	3065.13
715.994	3069.22
716.182	3011.88
716.369	3073.32
716.556	3110.18
716.744	3001.64
716.931	3085.61
717.119	3155.24
717.306	3075.37
717.493	2968.87
717.681	3124.52
717.868	3130.66
718.055	3067.17
718.242	2987.3
718.43	3101.99
718.617	3052.84
718.804	3083.56
718.991	3214.63
719.179	3149.09
719.366	3124.52
719.553	3145
719.74	3231.01
719.927	3112.23
720.114	3161.38
720.301	2991.4
720.488	2870.57
720.676	2987.3
720.863	3091.75
721.05	3128.61
721.237	3118.37
721.424	3067.17
721.611	3128.61
721.798	3015.98
721.985	3093.8
722.172	3001.64
722.358	3030.31
722.545	3097.89
722.732	3048.74
722.919	3106.09
723.106	3048.74
723.293	2987.3
723.48	3104.04
723.667	2905.39
723.853	2983.21
724.04	2981.16
724.227	3007.78
724.414	3005.74
724.6	2981.16
724.787	3018.02
724.974	3018.02
725.161	2979.11
725.347	2948.39
725.534	3032.36
725.72	2995.5
725.907	3038.5
726.094	2932.01
726.28	2954.54
726.467	3005.74
726.653	2911.53
726.84	3128.61
727.027	3054.89
727.213	3067.17
727.4	2899.24
727.586	3112.23
727.773	2929.96
727.959	3011.88
728.145	3038.5
728.332	3034.41
728.518	2960.68
728.705	3020.07
728.891	2948.39
729.077	2954.54
729.264	2901.29
729.45	2997.54
729.636	3036.45
729.823	3018.02
730.009	2991.4
730.195	3063.08
730.382	2923.82
730.568	3009.83
730.754	3073.32
730.94	2995.5
731.126	2899.24
731.313	2989.35
731.499	2868.52
731.685	2962.73
731.871	2901.29
732.057	2932.01
732.243	2893.1
732.429	2938.15
732.615	2848.04
732.801	3013.93
732.987	2870.57
733.173	2899.24
733.359	2893.1
733.545	2909.48
733.731	2944.3
733.917	2934.06
734.103	2884.91
734.289	2966.82
734.475	2919.72
734.661	2884.91
734.847	2944.3
735.033	2911.53
735.219	2835.75
735.404	2884.91
735.59	2964.78
735.776	2852.14
735.962	2964.78
736.148	2891.05
736.333	2841.9
736.519	2907.43
736.705	2882.86
736.89	2831.66
737.076	2893.1
737.262	2923.82
737.447	2897.19
737.633	2778.41
737.819	2884.91
738.004	2772.27
738.19	2714.92
738.375	2805.03
738.561	2893.1
738.747	2759.98
738.932	2669.87
739.118	2790.7
739.303	2800.94
739.489	2725.16
739.674	2694.44
739.859	2682.16
740.045	2813.23
740.23	2817.32
740.416	2702.64
740.601	2610.48
740.786	2678.06
740.972	2762.03
741.157	2823.47
741.342	2719.02
741.528	2663.72
741.713	2659.63
741.898	2594.09
742.084	2655.53
742.269	2604.33
742.454	2690.35
742.639	2630.96
742.824	2620.72
743.01	2557.23
743.195	2553.13
743.38	2432.3
743.565	2585.9
743.75	2483.5
743.935	2563.37
744.12	2604.33
744.305	2665.77
744.49	2532.65
744.675	2538.8
744.86	2489.65
745.045	2479.41
745.23	2454.83
745.415	2485.55
745.6	2424.11
745.785	2493.74
745.97	2565.42
746.155	2346.29
746.34	2387.25
746.525	2395.44
746.71	2413.87
746.895	2235.7
747.079	2329.91
747.264	2368.82
747.449	2264.37
747.634	2225.46
747.819	2311.47
748.003	2366.77
748.188	2256.18
748.373	2182.45
748.557	2254.13
748.742	2268.47
748.927	2235.7
749.111	2194.74
749.296	2301.23
749.481	2065.72
749.665	2129.2
749.85	2073.91
750.034	2161.97
750.219	2088.25
750.404	2030.9
750.588	2069.81
750.773	2057.53
750.957	2028.85
751.141	2065.72
751.326	1867.06
751.51	2049.33
751.695	1920.31
751.879	2022.71
752.064	2024.76
752.248	1987.89
752.432	2096.44
752.617	2030.9
752.801	1948.98
752.985	1922.36
753.17	1963.32
753.354	1858.87
753.538	1893.69
753.722	1914.17
753.907	1838.39
754.091	1828.15
754.275	1719.61
754.459	1838.39
754.643	1817.91
754.828	1791.29
755.012	1805.63
755.196	1709.37
755.38	1699.13
755.564	1625.4
755.748	1641.79
755.932	1781.05
756.116	1629.5
756.3	1621.31
756.484	1697.08
756.668	1635.64
756.852	1563.97
757.036	1709.37
757.22	1606.97
757.404	1500.48
757.588	1582.4
757.772	1545.53
757.956	1525.05
758.14	1500.48
758.323	1563.97
758.507	1578.3
758.691	1520.96
758.875	1566.01
759.059	1527.1
759.242	1475.9
759.426	1492.29
759.61	1465.66
759.794	1467.71
759.977	1520.96
760.161	1574.21
760.345	1518.91
760.528	1471.81
760.712	1363.26
760.895	1434.94
761.079	1371.46
761.263	1467.71
761.446	1303.87
761.63	1336.64
761.813	1379.65
761.997	1332.55
762.18	1328.45
762.364	1353.02
762.547	1361.22
762.731	1334.59
762.914	1336.64
763.098	1307.97
763.281	1367.36
763.464	1398.08
763.648	1297.73
763.831	1224
764.015	1322.31
764.198	1252.67
764.381	1307.97
764.564	1338.69
764.748	1291.59
764.931	1269.06
765.114	1228.1
765.297	1277.25
765.481	1301.83
765.664	1209.67
765.847	1156.42
766.03	1234.24
766.213	1240.39
766.397	1111.36
766.58	1133.89
766.763	1269.06
766.946	1219.91
767.129	1187.14
767.312	1172.8
767.495	1183.04
767.678	1068.36
767.861	1215.81
768.044	1215.81
768.227	1109.32
768.41	1099.08
768.593	1187.14
768.776	1058.12
768.959	1105.22
769.142	1170.76
769.324	1178.95
769.507	1086.79
769.69	1088.84
769.873	1117.51
770.056	1230.15
770.239	1099.08
770.421	1156.42
770.604	1013.06
770.787	1103.17
770.97	1062.21
771.152	1076.55
771.335	1105.22
771.518	1082.69
771.7	1129.8
771.883	1035.59
772.066	1076.55
772.248	986.44
772.431	1031.49
772.613	1129.8
772.796	1011.01
772.978	959.81
773.161	1006.92
773.343	955.72
773.526	929.1
773.708	980.29
773.891	890.18
774.073	957.77
774.256	1008.97
774.438	992.58
774.621	1039.69
774.803	990.53
774.985	972.1
775.168	1037.64
775.35	982.34
775.532	900.42
775.715	939.34
775.897	974.15
776.079	875.85
776.261	922.95
776.444	873.8
776.626	791.88
776.808	863.56
776.99	906.57
777.173	875.85
777.355	724.3
777.537	812.36
777.719	816.46
777.901	709.96
778.083	781.64
778.265	769.35
778.447	716.11
778.629	722.25
778.811	828.74
778.993	705.87
779.175	771.4
779.357	714.06
779.539	761.16
779.721	822.6
779.903	791.88
780.085	830.79
780.267	726.35
780.449	728.39
780.631	718.15
780.812	740.68
780.994	687.43
781.176	726.35
781.358	664.91
781.54	773.45
781.721	689.48
781.903	714.06
782.085	677.2
782.267	695.63
782.448	730.44
782.63	664.91
782.812	574.8
782.993	546.12
783.175	640.33
783.357	673.1
783.538	654.67
783.72	585.04
783.901	578.89
784.083	550.22
784.264	632.14
784.446	634.19
784.627	566.6
784.809	552.27
784.99	564.56
785.172	574.8
785.353	539.98
785.535	576.84
785.716	628.04
785.897	494.93
786.079	496.97
786.26	531.79
786.441	537.93
786.623	560.46
786.804	531.79
786.985	537.93
787.167	560.46
787.348	490.83
787.529	539.98
787.71	517.45
787.891	562.51
788.073	533.84
788.254	554.32
788.435	527.69
788.616	458.06
788.797	482.64
788.978	533.84
789.159	591.18
789.34	466.25
789.522	509.26
789.703	501.07
789.884	400.72
790.065	499.02
790.246	496.97
790.427	439.63
790.607	515.41
790.788	509.26
790.969	447.82
791.15	431.44
791.331	472.4
791.512	431.44
791.693	423.25
791.874	427.34
792.054	480.59
792.235	472.4
792.416	408.91
792.597	351.57
792.778	384.34
792.958	419.15
793.139	382.29
793.32	464.21
793.5	392.53
793.681	441.68
793.862	400.72
794.042	445.77
794.223	456.01
794.404	345.42
794.584	339.28
794.765	347.47
794.945	361.81
795.126	384.34
795.306	370
795.487	322.9
795.667	376.14
795.848	435.53
796.028	382.29
796.209	370
796.389	382.29
796.57	361.81
796.75	378.19
796.93	353.62
797.111	310.61
797.291	324.94
797.471	337.23
797.652	314.7
797.832	326.99
798.012	341.33
798.192	290.13
798.373	275.79
798.553	220.5
798.733	281.94
798.913	341.33
799.093	361.81
799.274	349.52
799.454	357.71
799.634	349.52
799.814	298.32
799.994	310.61
800.174	316.75
800.354	331.09
800.534	294.22
800.714	306.51
800.894	290.13
801.074	296.27
801.254	275.79
801.434	388.43
801.614	347.47
801.794	269.65
801.974	621.9
802.154	337.23
802.334	308.56
802.514	302.42
802.693	271.7
802.873	318.8
803.053	263.51
803.233	300.37
803.413	263.51
803.592	236.88
803.772	236.88
803.952	322.9
804.131	265.55
804.311	245.07
804.491	236.88
804.67	230.74
804.85	124.24
805.03	298.32
805.209	298.32
805.389	240.98
805.568	251.22
805.748	306.51
805.928	247.12
806.107	204.11
806.287	216.4
806.466	335.18
806.646	245.07
806.825	187.73
807.004	232.79
807.184	267.6
807.363	290.13
807.543	259.41
807.722	202.07
807.901	238.93
808.081	210.26
808.26	275.79
808.439	210.26
808.619	140.63
808.798	240.98
808.977	230.74
809.156	224.59
809.336	157.01
809.515	286.03
809.694	263.51
809.873	249.17
810.052	251.22
810.231	306.51
810.411	222.55
810.59	226.64
810.769	197.97
810.948	214.35
811.127	195.92
811.306	206.16
811.485	200.02
811.664	208.21
811.843	161.11
812.022	185.68
812.201	185.68
812.38	150.87
812.559	167.25
812.737	185.68
812.916	159.06
813.095	189.78
813.274	224.59
813.453	269.65
813.632	191.83
813.811	189.78
813.989	206.16
814.168	216.4
814.347	124.24
814.526	126.29
814.704	116.05
814.883	218.45
815.062	232.79
815.24	220.5
815.419	230.74
815.598	236.88
815.776	128.34
815.955	191.83
816.133	179.54
816.312	179.54
816.49	214.35
816.669	148.82
816.847	173.39
817.026	146.77
817.204	157.01
817.383	81.24
817.561	154.96
817.74	240.98
817.918	214.35
818.097	193.87
818.275	197.97
818.453	216.4
818.632	195.92
818.81	169.3
818.988	128.34
819.167	163.15
819.345	150.87
819.523	189.78
819.701	220.5
819.879	144.72
820.058	238.93
820.236	152.91
820.414	187.73
820.592	173.39
820.77	128.34
820.948	154.96
821.127	177.49
821.305	126.29
821.483	159.06
821.661	179.54
821.839	130.39
822.017	146.77
822.195	195.92
822.373	177.49
822.551	105.81
822.729	163.15
822.907	109.91
823.085	159.06
823.262	179.54
823.44	87.38
823.618	56.66
823.796	107.86
823.974	128.34
824.152	136.53
824.329	154.96
824.507	161.11
824.685	197.97
824.863	134.48
825.04	177.49
825.218	85.33
825.396	107.86
825.574	144.72
825.751	187.73
825.929	101.72
826.107	193.87
826.284	124.24
826.462	77.14
826.639	89.43
826.817	66.9
826.994	122.2
827.172	159.06
827.349	152.91
827.527	142.68
827.704	128.34
827.882	105.81
828.059	159.06
828.237	99.67
828.414	195.92
828.591	30.04
828.769	126.29
828.946	109.91
829.124	159.06
829.301	177.49
829.478	75.09
829.655	140.63
829.833	105.81
830.01	91.48
830.187	77.14
830.364	103.76
830.542	165.2
830.719	187.73
830.896	56.66
831.073	167.25
831.25	152.91
831.427	62.8
831.604	132.44
831.782	73.04
831.959	107.86
832.136	126.29
832.313	107.86
832.49	44.37
832.667	126.29
832.844	134.48
833.021	159.06
833.198	126.29
833.374	114
833.551	93.52
833.728	62.8
833.905	71
834.082	64.85
834.259	99.67
834.436	91.48
834.612	97.62
834.789	120.15
834.966	66.9
835.143	99.67
835.319	210.26
835.496	105.81
835.673	66.9
835.85	95.57
836.026	56.66
836.203	154.96
836.38	56.66
836.556	101.72
836.733	60.76
836.909	130.39
837.086	114
837.262	21.85
837.439	175.44
837.616	136.53
837.792	93.52
837.968	64.85
838.145	71
838.321	54.61
838.498	109.91
838.674	107.86
838.851	107.86
839.027	-23.21
839.203	85.33
839.38	46.42
839.556	50.52
839.732	122.2
839.909	109.91
840.085	64.85
840.261	50.52
840.437	66.9
840.614	85.33
840.79	107.86
840.966	185.68
841.142	73.04
841.318	87.38
841.494	101.72
841.671	111.96
841.847	50.52
842.023	85.33
842.199	93.52
842.375	97.62
842.551	44.37
842.727	66.9
842.903	101.72
843.079	40.28
843.255	101.72
843.431	93.52
843.607	154.96
843.783	99.67
843.959	66.9
844.134	42.32
844.31	32.08
844.486	58.71
844.662	97.62
844.838	42.32
845.013	30.04
845.189	87.38
845.365	60.76
845.541	36.18
845.716	32.08
845.892	142.68
846.068	17.75
846.244	25.94
846.419	97.62
846.595	27.99
846.77	7.51
846.946	95.57
847.122	124.24
847.297	62.8
847.473	30.04
847.648	148.82
847.824	30.04
847.999	25.94
848.175	73.04
848.35	48.47
848.526	73.04
848.701	126.29
848.876	17.75
849.052	111.96
849.227	60.76
849.403	-41.64
849.578	81.24
849.753	52.56
849.929	62.8
850.104	-0.68
850.279	40.28
850.454	56.66
850.63	79.19
850.805	-4.78
850.98	66.9
851.155	103.76
851.33	107.86
851.505	-37.55
851.681	19.8
851.856	71
852.031	73.04
852.206	68.95
852.381	-6.83
852.556	85.33
852.731	109.91
852.906	134.48
853.081	19.8
853.256	58.71
853.431	66.9
853.606	44.37
853.781	54.61
853.956	68.95
854.131	64.85
854.305	-6.83
854.48	64.85
854.655	23.89
854.83	60.76
855.005	17.75
855.18	-23.21
855.354	83.28
855.529	17.75
855.704	91.48
855.879	42.32
856.053	23.89
856.228	27.99
856.403	58.71
856.577	23.89
856.752	-45.74
856.926	13.65
857.101	77.14
857.276	114
857.45	60.76
857.625	85.33
857.799	68.95
857.974	54.61
858.148	3.41
858.323	1.37
858.497	15.7
858.672	15.7
858.846	64.85
859.02	93.52
859.195	101.72
859.369	21.85
859.543	46.42
859.718	-0.68
859.892	9.56
860.066	68.95
860.241	-8.87
860.415	60.76
860.589	21.85
860.763	5.46
860.938	1.37
861.112	97.62
861.286	54.61
861.46	56.66
861.634	46.42
861.808	87.38
861.982	60.76
862.157	21.85
862.331	52.56
862.505	64.85
862.679	101.72
862.853	21.85
863.027	73.04
863.201	83.28
863.375	21.85
863.549	101.72
863.722	23.89
863.896	66.9
864.07	42.32
864.244	-29.35
864.418	54.61
864.592	87.38
864.766	42.32
864.939	81.24
865.113	-0.68
865.287	79.19
865.461	34.13
865.634	71
865.808	-29.35
865.982	-0.68
866.156	-45.74
866.329	50.52
866.503	-17.07
866.676	68.95
866.85	75.09
867.024	40.28
867.197	52.56
867.371	-25.26
867.544	38.23
867.718	1.37
867.891	3.41
868.065	-12.97
868.238	-0.68
868.412	21.85
868.585	3.41
868.759	3.41
868.932	68.95
869.105	-10.92
869.279	46.42
869.452	44.37
869.625	83.28
869.799	-10.92
869.972	1.37
870.145	93.52
870.319	44.37
870.492	71
870.665	-45.74
870.838	30.04
871.011	-84.65
871.185	-2.73
871.358	-12.97
871.531	99.67
871.704	-0.68
871.877	-0.68
872.05	-37.55
872.223	-49.83
872.396	52.56
872.569	73.04
872.742	-25.26
872.915	120.15
873.088	-21.16
873.261	34.13
873.434	68.95
873.607	120.15
873.78	52.56
873.953	68.95
874.126	42.32
874.299	83.28
874.471	36.18
874.644	23.89
874.817	-6.83
874.99	79.19
875.163	54.61
875.335	17.75
875.508	11.61
875.681	21.85
875.853	36.18
876.026	36.18
876.199	30.04
876.371	64.85
876.544	-0.68
876.717	56.66
876.889	-64.17
877.062	1.37
877.234	62.8
877.407	-17.07
877.579	13.65
877.752	34.13
877.924	75.09
878.097	23.89
878.269	23.89
878.442	50.52
878.614	21.85
878.786	27.99
878.959	-2.73
879.131	62.8
879.303	-51.88
879.476	5.46
879.648	79.19
879.82	44.37
879.993	32.08
880.165	3.41
880.337	36.18
880.509	71
880.681	30.04
880.854	30.04
881.026	25.94
881.198	150.87
881.37	-39.59
881.542	7.51
881.714	19.8
881.886	30.04
882.058	-8.87
882.23	-53.93
882.402	-12.97
882.574	40.28
882.746	64.85
882.918	27.99
883.09	48.47
883.262	40.28
883.434	11.61
883.606	-21.16
883.778	-12.97
883.95	-0.68
884.122	3.41
884.293	62.8
884.465	25.94
884.637	54.61
884.809	11.61
884.98	-17.07
885.152	21.85
885.324	56.66
885.496	23.89
885.667	3.41
885.839	25.94
886.011	48.47
886.182	23.89
886.354	60.76
886.525	-6.83
886.697	-68.27
886.869	-0.68
887.04	-6.83
887.212	30.04
887.383	40.28
887.555	5.46
887.726	97.62
887.897	85.33
888.069	-19.11
888.24	17.75
888.412	66.9
888.583	-6.83
888.754	-17.07
888.926	50.52
889.097	3.41
889.268	25.94
889.44	-8.87
889.611	11.61
889.782	21.85
889.953	-23.21
890.125	30.04
890.296	-15.02
890.467	50.52
890.638	-4.78
890.809	97.62
890.98	-39.59
891.151	38.23
891.323	-23.21
891.494	58.71
891.665	-47.79
891.836	36.18
892.007	68.95
892.178	58.71
892.349	-31.4
892.52	-17.07
892.691	13.65
892.862	-39.59
893.032	-6.83
893.203	13.65
893.374	-2.73
893.545	19.8
893.716	-10.92
893.887	34.13
894.057	-35.5
894.228	-43.69
894.399	-15.02
894.57	89.43
894.74	27.99
894.911	-47.79
895.082	44.37
895.253	-6.83
895.423	-37.55
895.594	62.8
895.764	23.89
895.935	-17.07
896.106	15.7
896.276	17.75
896.447	-66.22
896.617	-4.78
896.788	25.94
896.958	-23.21
897.129	-0.68
897.299	34.13
897.47	30.04
897.64	11.61
897.81	-55.98
897.981	-8.87
898.151	-25.26
898.322	89.43
898.492	15.7
898.662	27.99
898.832	23.89
899.003	62.8
899.173	32.08
899.343	-8.87
899.513	-84.65
