Data from USB4F104151__64__11-52-32-722.txt Node

Date: Fri Mar 14 11:52:32 EDT 2025
User: louis
Spectrometer: USB4F10415
Trigger mode: 4
Integration Time (sec): 2.000000E-2
Scans to average: 1
Electric dark correction enabled: true
Nonlinearity correction enabled: false
Boxcar width: 0
XAxis mode: Wavelengths
Number of Pixels in Spectrum: 3648
>>>>>Begin Spectral Data<<<<<
178.204	-80.38
178.424	-80.38
178.644	-80.38
178.864	-39.42
179.084	-100.86
179.304	52.74
179.524	-20.99
179.744	19.97
179.964	71.17
180.184	-59.9
180.404	-14.85
180.624	-2.56
180.844	-45.57
181.064	-88.57
181.283	42.5
181.503	28.16
181.723	17.92
181.943	9.73
182.163	-8.7
182.383	1.54
182.602	83.45
182.822	28.16
183.042	-6.66
183.262	-35.33
183.482	-35.33
183.701	-12.8
183.921	40.45
184.141	-18.94
184.361	60.93
184.58	17.92
184.8	105.98
185.02	-57.86
185.239	103.93
185.459	32.26
185.679	38.4
185.898	-20.99
186.118	1.54
186.338	50.69
186.557	5.63
186.777	-0.51
186.997	75.26
187.216	73.21
187.436	26.11
187.655	30.21
187.875	-0.51
188.095	50.69
188.314	15.87
188.534	44.54
188.753	-20.99
188.973	38.4
189.192	34.3
189.412	-6.66
189.631	11.78
189.851	36.35
190.07	105.98
190.29	-33.28
190.509	7.68
190.729	40.45
190.948	17.92
191.168	65.02
191.387	97.79
191.607	9.73
191.826	17.92
192.045	-4.61
192.265	73.21
192.484	-12.8
192.704	15.87
192.923	34.3
193.142	52.74
193.362	-25.09
193.581	-0.51
193.8	110.08
194.02	-16.9
194.239	52.74
194.458	19.97
194.678	26.11
194.897	97.79
195.116	24.06
195.335	93.69
195.555	36.35
195.774	83.45
195.993	50.69
196.212	65.02
196.432	44.54
196.651	-20.99
196.87	3.58
197.089	89.6
197.308	58.88
197.528	46.59
197.747	22.02
197.966	-45.57
198.185	26.11
198.404	15.87
198.623	46.59
198.842	56.83
199.062	54.78
199.281	83.45
199.5	-6.66
199.719	15.87
199.938	-20.99
200.157	24.06
200.376	15.87
200.595	69.12
200.814	7.68
201.033	34.3
201.252	24.06
201.471	-25.09
201.69	157.18
201.909	73.21
202.128	17.92
202.347	-51.71
202.566	36.35
202.785	9.73
203.004	58.88
203.223	56.83
203.442	26.11
203.661	56.83
203.879	-6.66
204.098	44.54
204.317	3.58
204.536	75.26
204.755	46.59
204.974	91.65
205.193	48.64
205.411	120.32
205.63	-0.51
205.849	54.78
206.068	-45.57
206.287	79.36
206.505	97.79
206.724	62.98
206.943	-41.47
207.162	15.87
207.381	-2.56
207.599	-10.75
207.818	5.63
208.037	36.35
208.255	128.51
208.474	85.5
208.693	73.21
208.911	40.45
209.13	46.59
209.349	24.06
209.567	60.93
209.786	38.4
210.005	97.79
210.223	-25.09
210.442	30.21
210.661	50.69
210.879	58.88
211.098	5.63
211.316	-23.04
211.535	122.37
211.753	9.73
211.972	91.65
212.191	73.21
212.409	-8.7
212.628	44.54
212.846	22.02
213.065	42.5
213.283	-0.51
213.502	28.16
213.72	87.55
213.938	69.12
214.157	95.74
214.375	15.87
214.594	56.83
214.812	24.06
215.031	22.02
215.249	-53.76
215.467	110.08
215.686	93.69
215.904	60.93
216.122	26.11
216.341	-20.99
216.559	44.54
216.778	-6.66
216.996	46.59
217.214	93.69
217.432	24.06
217.651	17.92
217.869	7.68
218.087	-64
218.306	-37.38
218.524	56.83
218.742	24.06
218.96	19.97
219.179	11.78
219.397	30.21
219.615	15.87
219.833	89.6
220.051	17.92
220.27	-20.99
220.488	19.97
220.706	75.26
220.924	7.68
221.142	36.35
221.36	-4.61
221.578	34.3
221.796	105.98
222.015	-4.61
222.233	62.98
222.451	58.88
222.669	60.93
222.887	-14.85
223.105	-25.09
223.323	3.58
223.541	60.93
223.759	54.78
223.977	38.4
224.195	-2.56
224.413	85.5
224.631	60.93
224.849	15.87
225.067	36.35
225.285	56.83
225.503	54.78
225.721	-33.28
225.939	93.69
226.157	34.3
226.375	112.13
226.592	34.3
226.81	62.98
227.028	87.55
227.246	81.41
227.464	46.59
227.682	73.21
227.9	13.82
228.117	-0.51
228.335	24.06
228.553	34.3
228.771	56.83
228.989	7.68
229.206	-29.18
229.424	9.73
229.642	54.78
229.86	71.17
230.077	-41.47
230.295	-47.62
230.513	1.54
230.731	-10.75
230.948	85.5
231.166	130.56
231.384	87.55
231.601	-14.85
231.819	26.11
232.037	46.59
232.254	30.21
232.472	-6.66
232.689	15.87
232.907	71.17
233.125	60.93
233.342	48.64
233.56	36.35
233.777	44.54
233.995	77.31
234.213	126.46
234.43	101.89
234.648	17.92
234.865	19.97
235.083	105.98
235.3	-25.09
235.518	34.3
235.735	58.88
235.953	-16.9
236.17	-2.56
236.388	-53.76
236.605	50.69
236.822	85.5
237.04	42.5
237.257	9.73
237.475	3.58
237.692	26.11
237.909	28.16
238.127	38.4
238.344	28.16
238.562	62.98
238.779	52.74
238.996	-4.61
239.214	54.78
239.431	1.54
239.648	-10.75
239.865	30.21
240.083	3.58
240.3	73.21
240.517	36.35
240.735	58.88
240.952	34.3
241.169	-6.66
241.386	30.21
241.603	67.07
241.821	-35.33
242.038	46.59
242.255	15.87
242.472	13.82
242.689	77.31
242.907	114.17
243.124	17.92
243.341	-8.7
243.558	42.5
243.775	-16.9
243.992	17.92
244.209	-29.18
244.426	97.79
244.643	71.17
244.86	36.35
245.078	50.69
245.295	58.88
245.512	52.74
245.729	-39.42
245.946	5.63
246.163	22.02
246.38	46.59
246.597	40.45
246.814	93.69
247.031	9.73
247.248	22.02
247.464	13.82
247.681	44.54
247.898	22.02
248.115	124.41
248.332	-8.7
248.549	71.17
248.766	26.11
248.983	58.88
249.2	17.92
249.417	65.02
249.633	42.5
249.85	93.69
250.067	17.92
250.284	71.17
250.501	30.21
250.717	65.02
250.934	19.97
251.151	13.82
251.368	13.82
251.585	67.07
251.801	-72.19
252.018	52.74
252.235	11.78
252.451	28.16
252.668	67.07
252.885	-39.42
253.102	19.97
253.318	69.12
253.535	50.69
253.752	-12.8
253.968	42.5
254.185	-49.66
254.401	44.54
254.618	-14.85
254.835	44.54
255.051	1.54
255.268	36.35
255.484	19.97
255.701	-0.51
255.917	97.79
256.134	105.98
256.351	42.5
256.567	15.87
256.784	60.93
257	15.87
257.217	56.83
257.433	38.4
257.65	42.5
257.866	32.26
258.082	5.63
258.299	15.87
258.515	13.82
258.732	13.82
258.948	-20.99
259.165	28.16
259.381	26.11
259.597	62.98
259.814	54.78
260.03	-23.04
260.246	22.02
260.463	-14.85
260.679	13.82
260.895	32.26
261.112	36.35
261.328	42.5
261.544	-27.14
261.761	44.54
261.977	67.07
262.193	-25.09
262.409	17.92
262.626	67.07
262.842	-14.85
263.058	58.88
263.274	-12.8
263.49	11.78
263.707	58.88
263.923	60.93
264.139	-8.7
264.355	46.59
264.571	65.02
264.787	46.59
265.004	7.68
265.22	15.87
265.436	75.26
265.652	26.11
265.868	22.02
266.084	77.31
266.3	52.74
266.516	32.26
266.732	56.83
266.948	50.69
267.164	7.68
267.38	15.87
267.596	89.6
267.812	22.02
268.028	54.78
268.244	65.02
268.46	5.63
268.676	15.87
268.892	54.78
269.108	73.21
269.324	-23.04
269.54	13.82
269.756	71.17
269.972	-8.7
270.188	79.36
270.403	38.4
270.619	36.35
270.835	77.31
271.051	36.35
271.267	7.68
271.483	97.79
271.698	42.5
271.914	50.69
272.13	93.69
272.346	11.78
272.562	89.6
272.777	56.83
272.993	42.5
273.209	-12.8
273.425	62.98
273.64	89.6
273.856	50.69
274.072	34.3
274.287	26.11
274.503	56.83
274.719	26.11
274.934	48.64
275.15	-2.56
275.366	67.07
275.581	22.02
275.797	34.3
276.012	65.02
276.228	79.36
276.444	24.06
276.659	85.5
276.875	-14.85
277.09	46.59
277.306	3.58
277.521	46.59
277.737	-23.04
277.952	42.5
278.168	73.21
278.383	81.41
278.599	-14.85
278.814	3.58
279.03	52.74
279.245	122.37
279.461	48.64
279.676	-16.9
279.892	44.54
280.107	67.07
280.322	62.98
280.538	-33.28
280.753	-10.75
280.969	-2.56
281.184	-23.04
281.399	97.79
281.615	9.73
281.83	60.93
282.045	58.88
282.26	89.6
282.476	75.26
282.691	85.5
282.906	40.45
283.122	58.88
283.337	-35.33
283.552	95.74
283.767	-51.71
283.983	136.7
284.198	-41.47
284.413	60.93
284.628	19.97
284.843	17.92
285.058	112.13
285.274	36.35
285.489	30.21
285.704	58.88
285.919	36.35
286.134	24.06
286.349	62.98
286.564	91.65
286.779	3.58
286.995	83.45
287.21	48.64
287.425	3.58
287.64	24.06
287.855	44.54
288.07	-2.56
288.285	62.98
288.5	50.69
288.715	26.11
288.93	50.69
289.145	28.16
289.36	62.98
289.575	50.69
289.79	7.68
290.004	-8.7
290.219	22.02
290.434	36.35
290.649	-76.29
290.864	62.98
291.079	58.88
291.294	-2.56
291.509	48.64
291.724	34.3
291.938	-29.18
292.153	83.45
292.368	3.58
292.583	85.5
292.798	-2.56
293.012	15.87
293.227	-10.75
293.442	60.93
293.657	77.31
293.871	144.89
294.086	48.64
294.301	65.02
294.516	103.93
294.73	-27.14
294.945	24.06
295.16	34.3
295.374	56.83
295.589	52.74
295.804	24.06
296.018	-6.66
296.233	34.3
296.447	91.65
296.662	-35.33
296.877	99.84
297.091	93.69
297.306	67.07
297.52	11.78
297.735	44.54
297.949	128.51
298.164	38.4
298.378	-10.75
298.593	9.73
298.807	34.3
299.022	1.54
299.236	52.74
299.451	-35.33
299.665	-2.56
299.88	-12.8
300.094	13.82
300.309	5.63
300.523	7.68
300.737	48.64
300.952	-6.66
301.166	89.6
301.381	-12.8
301.595	71.17
301.809	-6.66
302.024	22.02
302.238	19.97
302.452	67.07
302.667	34.3
302.881	99.84
303.095	3.58
303.309	89.6
303.524	67.07
303.738	32.26
303.952	-31.23
304.166	79.36
304.381	-0.51
304.595	56.83
304.809	62.98
305.023	15.87
305.237	7.68
305.452	112.13
305.666	17.92
305.88	85.5
306.094	7.68
306.308	95.74
306.522	-16.9
306.736	50.69
306.95	85.5
307.164	30.21
307.379	34.3
307.593	3.58
307.807	132.61
308.021	142.85
308.235	48.64
308.449	-4.61
308.663	-4.61
308.877	79.36
309.091	32.26
309.305	42.5
309.519	-20.99
309.733	95.74
309.947	7.68
310.161	50.69
310.374	65.02
310.588	124.41
310.802	58.88
311.016	1.54
311.23	7.68
311.444	34.3
311.658	40.45
311.872	114.17
312.085	32.26
312.299	54.78
312.513	77.31
312.727	60.93
312.941	28.16
313.154	42.5
313.368	95.74
313.582	105.98
313.796	5.63
314.009	17.92
314.223	-20.99
314.437	7.68
314.651	-8.7
314.864	-20.99
315.078	22.02
315.292	73.21
315.505	40.45
315.719	-57.86
315.933	40.45
316.146	58.88
316.36	26.11
316.573	46.59
316.787	13.82
317.001	89.6
317.214	60.93
317.428	26.11
317.641	34.3
317.855	7.68
318.068	44.54
318.282	40.45
318.495	-16.9
318.709	77.31
318.922	79.36
319.136	17.92
319.349	110.08
319.563	13.82
319.776	-14.85
319.99	-10.75
320.203	-29.18
320.417	24.06
320.63	142.85
320.843	87.55
321.057	-2.56
321.27	81.41
321.483	75.26
321.697	58.88
321.91	103.93
322.124	73.21
322.337	77.31
322.55	24.06
322.763	3.58
322.977	58.88
323.19	22.02
323.403	42.5
323.617	48.64
323.83	42.5
324.043	-31.23
324.256	42.5
324.469	34.3
324.683	52.74
324.896	67.07
325.109	58.88
325.322	24.06
325.535	52.74
325.748	50.69
325.962	85.5
326.175	3.58
326.388	71.17
326.601	65.02
326.814	28.16
327.027	40.45
327.24	114.17
327.453	24.06
327.666	40.45
327.879	83.45
328.092	19.97
328.305	50.69
328.518	26.11
328.731	71.17
328.944	130.56
329.157	87.55
329.37	9.73
329.583	87.55
329.796	28.16
330.009	54.78
330.222	65.02
330.435	58.88
330.648	26.11
330.861	36.35
331.073	44.54
331.286	101.89
331.499	91.65
331.712	32.26
331.925	83.45
332.138	69.12
332.35	85.5
332.563	26.11
332.776	69.12
332.989	-20.99
333.202	-12.8
333.414	28.16
333.627	91.65
333.84	112.13
334.053	17.92
334.265	30.21
334.478	-2.56
334.691	34.3
334.903	13.82
335.116	17.92
335.329	56.83
335.541	28.16
335.754	77.31
335.966	58.88
336.179	52.74
336.392	-2.56
336.604	46.59
336.817	91.65
337.029	15.87
337.242	124.41
337.454	-23.04
337.667	-29.18
337.88	69.12
338.092	54.78
338.305	22.02
338.517	46.59
338.729	124.41
338.942	36.35
339.154	-20.99
339.367	24.06
339.579	124.41
339.792	71.17
340.004	97.79
340.217	91.65
340.429	99.84
340.641	22.02
340.854	19.97
341.066	60.93
341.278	79.36
341.491	28.16
341.703	-33.28
341.915	24.06
342.128	1.54
342.34	5.63
342.552	38.4
342.764	75.26
342.977	-27.14
343.189	97.79
343.401	19.97
343.613	26.11
343.826	22.02
344.038	65.02
344.25	42.5
344.462	42.5
344.674	44.54
344.886	89.6
345.099	36.35
345.311	40.45
345.523	54.78
345.735	34.3
345.947	28.16
346.159	3.58
346.371	19.97
346.583	24.06
346.795	101.89
347.007	54.78
347.219	54.78
347.431	-0.51
347.643	77.31
347.855	-27.14
348.067	11.78
348.279	-18.94
348.491	54.78
348.703	77.31
348.915	67.07
349.127	15.87
349.339	114.17
349.551	93.69
349.763	36.35
349.975	67.07
350.187	50.69
350.399	93.69
350.61	1.54
350.822	71.17
351.034	52.74
351.246	87.55
351.458	56.83
351.669	38.4
351.881	77.31
352.093	38.4
352.305	122.37
352.517	-31.23
352.728	77.31
352.94	110.08
353.152	40.45
353.363	15.87
353.575	50.69
353.787	44.54
353.999	11.78
354.21	126.46
354.422	-4.61
354.633	69.12
354.845	5.63
355.057	79.36
355.268	24.06
355.48	-0.51
355.692	7.68
355.903	85.5
356.115	28.16
356.326	-23.04
356.538	114.17
356.749	56.83
356.961	56.83
357.172	34.3
357.384	85.5
357.595	161.28
357.807	48.64
358.018	15.87
358.23	42.5
358.441	136.7
358.653	81.41
358.864	-12.8
359.075	24.06
359.287	69.12
359.498	60.93
359.709	110.08
359.921	34.3
360.132	-14.85
360.344	95.74
360.555	52.74
360.766	101.89
360.977	97.79
361.189	130.56
361.4	36.35
361.611	38.4
361.823	69.12
362.034	134.65
362.245	-33.28
362.456	38.4
362.667	75.26
362.879	112.13
363.09	46.59
363.301	60.93
363.512	157.18
363.723	65.02
363.935	34.3
364.146	101.89
364.357	73.21
364.568	97.79
364.779	-45.57
364.99	89.6
365.201	48.64
365.412	89.6
365.623	19.97
365.834	30.21
366.045	19.97
366.256	48.64
366.467	42.5
366.678	44.54
366.889	-12.8
367.1	77.31
367.311	105.98
367.522	44.54
367.733	26.11
367.944	42.5
368.155	54.78
368.366	81.41
368.577	146.94
368.788	42.5
368.999	24.06
369.209	83.45
369.42	69.12
369.631	73.21
369.842	11.78
370.053	77.31
370.264	-8.7
370.474	13.82
370.685	105.98
370.896	9.73
371.107	54.78
371.317	83.45
371.528	95.74
371.739	87.55
371.95	81.41
372.16	87.55
372.371	19.97
372.582	5.63
372.792	46.59
373.003	77.31
373.214	42.5
373.424	99.84
373.635	34.3
373.846	157.18
374.056	9.73
374.267	69.12
374.477	60.93
374.688	-8.7
374.898	85.5
375.109	54.78
375.319	112.13
375.53	103.93
375.74	87.55
375.951	3.58
376.161	65.02
376.372	75.26
376.582	93.69
376.793	44.54
377.003	58.88
377.214	93.69
377.424	56.83
377.635	108.03
377.845	42.5
378.055	58.88
378.266	13.82
378.476	73.21
378.686	71.17
378.897	42.5
379.107	99.84
379.317	48.64
379.528	48.64
379.738	38.4
379.948	-37.38
380.158	69.12
380.369	46.59
380.579	99.84
380.789	7.68
380.999	7.68
381.21	81.41
381.42	1.54
381.63	52.74
381.84	71.17
382.05	42.5
382.261	89.6
382.471	81.41
382.681	44.54
382.891	79.36
383.101	50.69
383.311	69.12
383.521	77.31
383.731	19.97
383.941	58.88
384.151	7.68
384.361	26.11
384.571	105.98
384.781	116.22
384.991	93.69
385.201	108.03
385.411	48.64
385.621	77.31
385.831	77.31
386.041	-25.09
386.251	65.02
386.461	50.69
386.671	65.02
386.881	108.03
387.091	42.5
387.301	126.46
387.511	101.89
387.72	36.35
387.93	73.21
388.14	69.12
388.35	-25.09
388.56	132.61
388.769	89.6
388.979	91.65
389.189	67.07
389.399	69.12
389.609	9.73
389.818	67.07
390.028	65.02
390.238	101.89
390.447	95.74
390.657	99.84
390.867	65.02
391.076	19.97
391.286	-2.56
391.496	-10.75
391.705	97.79
391.915	91.65
392.125	161.28
392.334	89.6
392.544	122.37
392.753	151.04
392.963	69.12
393.172	110.08
393.382	17.92
393.591	138.75
393.801	130.56
394.01	103.93
394.22	122.37
394.429	97.79
394.639	124.41
394.848	181.76
395.058	50.69
395.267	65.02
395.477	71.17
395.686	75.26
395.895	142.85
396.105	48.64
396.314	130.56
396.524	148.99
396.733	26.11
396.942	105.98
397.152	73.21
397.361	114.17
397.57	65.02
397.78	173.57
397.989	146.94
398.198	165.37
398.407	48.64
398.617	120.32
398.826	-2.56
399.035	83.45
399.244	69.12
399.453	99.84
399.663	91.65
399.872	189.95
400.081	99.84
400.29	204.28
400.499	95.74
400.708	122.37
400.917	114.17
401.127	136.7
401.336	87.55
401.545	130.56
401.754	126.46
401.963	179.71
402.172	161.28
402.381	148.99
402.59	32.26
402.799	146.94
403.008	130.56
403.217	95.74
403.426	142.85
403.635	151.04
403.844	198.14
404.053	196.09
404.262	148.99
404.471	142.85
404.68	99.84
404.888	187.9
405.097	185.85
405.306	165.37
405.515	210.43
405.724	196.09
405.933	189.95
406.142	206.33
406.35	140.8
406.559	220.67
406.768	208.38
406.977	200.19
407.185	226.81
407.394	282.11
407.603	290.3
407.812	216.57
408.02	257.53
408.229	257.53
408.438	230.91
408.646	212.48
408.855	243.2
409.064	265.72
409.272	214.52
409.481	278.01
409.69	243.2
409.898	331.26
410.107	263.68
410.315	327.16
410.524	378.36
410.733	392.7
410.941	357.88
411.15	343.55
411.358	318.97
411.567	388.6
411.775	374.27
411.984	407.03
412.192	450.04
412.401	368.12
412.609	523.77
412.818	515.58
413.026	527.86
413.234	542.2
413.443	523.77
413.651	527.86
413.86	609.78
414.068	652.79
414.276	675.32
414.485	581.11
414.693	716.28
414.901	755.19
415.11	759.28
415.318	613.88
415.526	802.29
415.734	751.09
415.943	792.05
416.151	865.78
416.359	810.48
416.567	949.75
416.776	957.94
416.984	908.79
417.192	1099.25
417.4	1021.42
417.608	1037.81
417.817	1062.38
418.025	1195.5
418.233	1224.17
418.441	1138.16
418.649	1390.06
418.857	1252.84
419.065	1383.91
419.273	1349.1
419.481	1351.15
419.689	1545.7
419.897	1594.86
420.105	1545.7
420.313	1648.1
420.521	1678.82
420.729	1723.88
420.937	1883.62
421.145	1775.08
421.353	2004.45
421.561	2002.4
421.769	2006.5
421.977	2096.61
422.185	2215.39
422.393	2217.44
422.601	2381.28
422.809	2330.08
423.017	2354.65
423.224	2557.4
423.432	2596.31
423.64	2541.02
423.848	2850.26
424.056	2782.68
424.263	2948.56
424.471	2987.47
424.679	2915.8
424.887	3132.88
425.094	3345.87
425.302	3315.15
425.51	3411.4
425.718	3485.13
425.925	3575.24
426.133	3667.4
426.341	3935.68
426.548	4136.38
426.756	4097.47
426.964	4181.44
427.171	4275.65
427.379	4439.48
427.586	4664.76
427.794	4713.91
428.001	4722.1
428.209	5088.69
428.417	5107.12
428.624	5332.4
428.832	5275.06
429.039	5508.52
429.247	5426.61
429.454	5877.16
429.662	6219.17
429.869	5901.73
430.076	6348.19
430.284	6118.82
430.491	6385.05
430.699	6708.63
430.906	6847.9
431.114	6757.78
431.321	7120.28
431.528	7290.26
431.736	7832.97
431.943	8045.96
432.15	7826.82
432.358	7955.85
432.565	8392.06
432.772	8369.54
432.979	8750.46
433.187	8803.71
433.394	8891.77
433.601	9563.5
433.808	9680.24
434.016	9565.55
434.223	10059.11
434.43	10556.77
434.637	10351.97
434.844	10874.2
435.052	11148.63
435.259	11013.46
435.466	11105.62
435.673	11222.36
435.88	11836.75
436.087	12447.04
436.294	12533.06
436.501	12158.28
436.708	12731.71
436.915	12711.23
437.122	13491.51
437.329	13206.84
437.537	13749.55
437.743	14007.59
437.95	13817.13
438.157	14449.96
438.364	15375.64
438.571	15166.74
438.778	15158.55
438.985	16446.73
439.192	15922.45
439.399	16395.53
439.606	16114.95
439.813	16893.18
440.02	18203.88
440.227	17812.72
440.433	17474.81
440.64	18193.64
440.847	18105.58
441.054	18441.45
441.261	19735.76
441.467	19383.51
441.674	19645.65
441.881	20649.16
442.088	20577.48
442.294	20587.72
442.501	20833.47
442.708	21292.22
442.914	22340.78
443.121	23202.97
443.328	22414.51
443.534	24128.66
443.741	23340.19
443.948	23092.38
444.154	24851.59
444.361	24642.7
444.568	24827.01
444.774	24890.5
444.981	25050.24
445.187	25578.62
445.394	26965.09
445.6	26424.43
445.807	29013.06
446.013	27860.05
446.22	28394.57
446.426	29264.96
446.633	29543.49
446.839	30743.59
447.046	29484.09
447.252	31050.79
447.459	30993.45
447.665	30727.21
447.871	32592.91
448.078	33930.23
448.284	32277.52
448.491	32855.05
448.697	34493.43
448.903	35128.3
449.11	35068.9
449.316	34788.33
449.522	35333.09
449.728	36099.03
449.935	36232.15
450.141	36469.72
450.347	37473.22
450.553	35986.39
450.76	36418.52
450.966	37856.19
451.172	37299.14
451.378	38130.62
451.584	37475.27
451.791	38888.37
451.997	38132.67
452.203	39095.21
452.409	38652.85
452.615	38378.42
452.821	37002.19
453.027	36649.94
453.233	38851.5
453.44	37379.01
453.646	37757.89
453.852	37624.77
454.058	38372.28
454.264	37426.12
454.47	37995.45
454.676	37082.06
454.882	38529.97
455.088	35175.4
455.294	35699.68
455.5	36258.77
455.705	36764.62
455.911	35361.76
456.117	34292.72
456.323	34077.69
456.529	32255
456.735	33768.44
456.941	32996.36
457.147	31980.57
457.352	31206.44
457.558	30776.36
457.764	31110.18
457.97	30387.25
458.176	29561.92
458.381	29668.41
458.587	28300.37
458.793	28322.9
458.999	26668.14
459.204	28691.53
459.41	27733.08
459.616	26236.02
459.821	26264.69
460.027	26176.62
460.233	25633.91
460.438	24169.62
460.644	24355.98
460.85	23581.85
461.055	23112.86
461.261	23026.85
461.466	21415.1
461.672	20524.23
461.878	22135.98
462.083	20516.04
462.289	20143.31
462.494	19958.99
462.7	18863.33
462.905	18650.34
463.111	19344.6
463.316	19672.28
463.522	18758.88
463.727	18736.35
463.932	18924.77
464.138	18758.88
464.343	18570.47
464.549	18246.89
464.754	19074.27
464.959	18629.86
465.165	18593
465.37	17741.04
465.575	17231.1
465.781	18117.87
465.986	17994.99
466.191	17485.05
466.397	17151.23
466.602	16303.37
466.807	16831.74
467.012	16954.62
467.218	16950.53
467.423	16721.15
467.628	16602.37
467.833	17317.11
468.038	16459.01
468.244	16258.31
468.449	16979.2
468.654	16506.12
468.859	16389.38
469.064	15973.64
469.269	15754.51
469.474	15818
469.679	16080.14
469.885	15369.49
470.09	15734.03
470.295	15652.11
470.5	15174.94
470.705	15351.06
470.91	14732.58
471.115	14886.17
471.32	15213.85
471.525	14847.26
471.73	14626.08
471.935	14460.2
472.139	14077.23
472.344	14337.32
472.549	14128.42
472.754	13960.49
472.959	13638.96
473.164	13432.12
473.369	13233.46
473.574	13581.62
473.778	13647.15
473.983	13331.76
474.188	13362.48
474.393	12881.21
474.598	12862.78
474.802	12649.79
475.007	12784.96
475.212	12555.58
475.417	12221.77
475.621	12180.81
475.826	12272.96
476.031	11951.43
476.235	12002.63
476.44	11902.28
476.645	11619.66
476.849	11748.68
477.054	11617.61
477.259	11384.15
477.463	11539.79
477.668	11113.81
477.872	10997.08
478.077	11060.57
478.282	10773.85
478.486	10851.67
478.691	10577.25
478.895	10749.28
479.1	10544.48
479.304	10552.67
479.509	10247.52
479.713	10501.47
479.918	10317.15
480.122	10034.53
480.326	10345.83
480.531	10190.18
480.735	9962.86
480.94	9934.18
481.144	10421.6
481.348	9903.46
481.553	9936.23
481.757	9581.93
481.961	9956.71
482.166	9997.67
482.37	9948.52
482.574	9626.99
482.778	9805.16
482.983	9925.99
483.187	9821.55
483.391	9852.27
483.595	9805.16
483.8	9790.83
484.004	9626.99
484.208	10001.77
484.412	9880.94
484.616	9700.72
484.821	9772.39
485.025	9614.7
485.229	9903.46
485.433	9690.48
485.637	9825.64
485.841	9770.35
486.045	9731.44
486.249	9768.3
486.453	9721.2
486.657	9659.76
486.861	9733.48
487.065	9708.91
487.269	9713
487.473	9555.31
487.677	9731.44
487.881	9766.25
488.085	9545.07
488.289	9815.4
488.493	9925.99
488.697	9973.1
488.901	9823.59
489.105	9670
489.309	9741.68
489.512	9733.48
489.716	9987.43
489.92	9680.24
490.124	9817.45
490.328	9983.34
490.531	9819.5
490.735	9936.23
490.939	10306.91
491.143	9983.34
491.346	10169.7
491.55	10087.78
491.754	10282.34
491.958	10044.77
492.161	10294.63
492.365	10376.55
492.569	10194.28
492.772	10157.41
492.976	10372.45
493.18	10239.33
493.383	10653.02
493.587	10571.1
493.79	10587.49
493.994	10538.34
494.197	10677.6
494.401	10558.81
494.605	10669.41
494.808	10958.17
495.012	10866.01
495.215	10874.2
495.419	10980.7
495.622	11042.14
495.825	11459.92
496.029	11285.84
496.232	11588.94
496.436	11517.26
496.639	11699.53
496.843	11609.42
497.046	11947.34
497.249	12170.57
497.453	12180.81
497.656	12307.78
497.859	12240.2
498.063	12363.08
498.266	12629.31
498.469	12758.33
498.673	12823.87
498.876	13045.05
499.079	13151.54
499.282	12848.44
499.485	13399.35
499.689	13309.24
499.892	13884.72
500.095	13716.78
500.298	13980.97
500.501	13798.7
500.705	14226.73
500.908	14550.31
501.111	14572.83
501.314	14685.47
501.517	14636.32
501.72	15033.63
501.923	14712.1
502.126	15441.17
502.329	15512.85
502.532	15349.01
502.735	15652.11
502.938	15936.78
503.141	15969.55
503.344	16495.88
503.547	16098.57
503.75	16526.6
503.953	16692.48
504.156	17128.7
504.359	16977.15
504.562	17177.85
504.765	17507.57
504.968	17673.46
505.17	18087.15
505.373	17779.95
505.576	18203.88
505.779	18416.87
505.982	18572.52
506.185	18805.99
506.387	18990.3
506.59	19320.03
506.793	19387.61
506.996	19584.21
507.198	19991.76
507.401	19836.11
507.604	20053.2
507.807	20362.44
508.009	20802.75
508.212	20860.1
508.415	21034.18
508.617	21056.7
508.82	21490.87
509.022	21351.61
509.225	21974.19
509.428	21908.66
509.63	22242.48
509.833	22377.64
510.035	22932.64
510.238	22779.04
510.44	22932.64
510.643	23223.45
510.845	23559.32
511.048	23471.26
511.25	23764.12
511.453	24136.85
511.655	24806.53
511.858	24661.13
512.06	24614.02
512.262	25234.56
512.465	25033.86
512.667	25468.03
512.87	25668.73
513.072	25990.26
513.274	26440.81
513.477	26739.82
513.679	26444.91
513.881	26995.81
514.084	27337.82
514.286	27139.17
514.488	27692.12
514.69	28249.17
514.893	28185.68
515.095	28539.98
515.297	28712.01
515.499	28931.14
515.701	29172.8
515.904	29357.12
516.106	29662.27
516.308	29869.11
516.51	30368.82
516.712	30489.65
516.914	30630.96
517.116	31233.06
517.318	31183.91
517.52	31589.41
517.722	31448.1
517.925	31861.79
518.127	32373.78
518.329	32912.39
518.531	32500.75
518.733	32887.82
518.935	33332.23
519.136	33143.81
519.338	33854.46
519.54	34114.55
519.742	34618.35
519.944	34567.15
520.146	34833.39
520.348	35220.45
520.55	35668.96
520.752	35339.24
520.954	36096.99
521.155	35742.69
521.357	36262.87
521.559	36574.16
521.761	36721.62
521.963	37178.31
522.164	37286.86
522.366	37372.87
522.568	37594.05
522.77	37997.5
522.971	38863.79
523.173	38525.88
523.375	38437.81
523.576	38718.39
523.778	38853.55
523.98	39386.02
524.181	39293.86
524.383	39574.44
524.584	40285.08
524.786	39801.76
524.988	40121.24
525.189	40700.82
525.391	40868.75
525.592	40760.21
525.794	40801.17
525.995	41470.86
526.197	41345.93
526.398	41114.51
526.6	41993.09
526.801	41995.14
527.003	42156.92
527.204	41982.85
527.406	42568.57
527.607	42384.25
527.808	42906.48
528.01	41974.66
528.211	42226.56
528.412	43373.42
528.614	43447.15
528.815	43125.61
529.016	43703.14
529.218	43146.09
529.419	43205.48
529.62	43744.1
529.822	43457.38
530.023	43623.27
530.224	43826.02
530.425	43682.66
530.626	43864.93
530.828	44016.48
531.029	44690.26
531.23	43955.04
531.431	43766.63
531.632	44204.89
531.833	44657.49
532.035	44608.34
532.236	44475.23
532.437	44534.62
532.638	44303.2
532.839	44667.73
533.04	44821.33
533.241	44258.14
533.442	45390.67
533.643	44997.46
533.844	44874.58
534.045	44798.8
534.246	44555.1
534.447	45243.21
534.648	44800.85
534.849	45269.84
535.05	44692.31
535.251	44735.32
535.451	45202.25
535.652	45208.4
535.853	44981.07
536.054	45345.61
536.255	45019.99
536.456	44768.08
536.657	45257.55
536.857	45220.69
537.058	45060.94
537.259	45474.63
537.46	45093.71
537.66	45179.73
537.861	45275.98
538.062	44811.09
538.263	45073.23
538.463	45095.76
538.664	44817.24
538.865	45427.53
539.065	45378.38
539.266	44618.58
539.466	45636.42
539.667	44815.19
539.868	45620.04
540.068	44938.07
540.269	44643.16
540.469	45640.52
540.67	44596.06
540.87	45007.7
541.071	45290.32
541.271	45077.33
541.472	45417.29
541.672	44714.84
541.873	44788.56
542.073	44645.21
542.274	44895.06
542.474	44872.53
542.675	44405.59
542.875	45230.93
543.075	45022.03
543.276	44168.03
543.476	44933.97
543.676	44917.59
543.877	44938.07
544.077	44671.83
544.277	44837.72
544.478	44899.15
544.678	44608.34
544.878	44778.32
545.078	44858.2
545.279	44327.77
545.479	45040.46
545.679	45161.29
545.879	44675.93
546.079	44602.2
546.28	44700.5
546.48	44335.96
546.68	44761.94
546.88	44532.57
547.08	44520.28
547.28	44895.06
547.48	44483.42
547.68	44690.26
547.88	44280.67
548.081	44393.31
548.281	44739.41
548.481	44424.03
548.681	45093.71
548.881	44647.25
549.081	44450.65
549.28	44321.63
549.48	45173.58
549.68	44561.24
549.88	45081.42
550.08	44546.9
550.28	44573.53
550.48	44417.88
550.68	45036.37
550.88	44430.17
551.08	44604.25
551.279	44178.27
551.479	44147.55
551.679	44352.35
551.879	44436.31
552.079	44661.59
552.278	44458.84
552.478	44606.3
552.678	44389.21
552.878	44622.68
553.077	44145.5
553.277	44270.43
553.477	44589.91
553.676	44258.14
553.876	44329.82
554.076	43977.57
554.275	44172.13
554.475	43840.36
554.674	44237.66
554.874	44137.31
555.074	43799.4
555.273	44270.43
555.473	44188.51
555.672	43363.18
555.872	43742.05
556.071	43574.12
556.271	43983.71
556.47	43676.52
556.67	43266.92
556.869	43592.55
557.068	44067.68
557.268	43279.21
557.467	43713.38
557.667	43752.29
557.866	43283.31
558.065	43469.67
558.265	43094.89
558.464	43162.48
558.663	43238.25
558.863	42638.2
559.062	43801.44
559.261	42453.88
559.461	43340.65
559.66	42791.8
559.859	43320.17
560.058	42742.64
560.258	42879.86
560.457	42517.37
560.656	42972.02
560.855	42791.8
561.054	42967.92
561.253	42161.02
561.453	42345.34
561.652	42582.9
561.851	42967.92
562.05	42398.59
562.249	41814.91
562.448	42611.57
562.647	42249.08
562.846	41726.85
563.045	42365.82
563.244	41603.97
563.443	42120.06
563.642	41747.33
563.841	41800.58
564.04	41806.72
564.239	41800.58
564.438	41005.97
564.637	41636.74
564.836	41323.4
565.035	40780.69
565.234	41307.02
565.432	41399.18
565.631	41141.13
565.83	40958.86
566.029	40788.88
566.228	40883.09
566.427	40428.44
566.625	40434.58
566.824	40016.8
567.023	40973.2
567.222	39642.02
567.42	40778.64
567.619	40514.45
567.818	40184.73
568.016	39992.22
568.215	40295.32
568.414	39637.92
568.612	40346.52
568.811	39644.07
569.01	39457.7
569.208	39300.01
569.407	39805.86
569.605	39703.46
569.804	39678.88
570.002	39013.29
570.201	39185.32
570.4	39021.48
570.598	38976.43
570.797	38624.18
570.995	38996.91
571.193	38017.98
571.392	39039.92
571.59	38230.97
571.789	38515.64
571.987	38665.14
572.186	38380.47
572.384	38351.8
572.582	38355.89
572.781	38220.73
572.979	37508.04
573.177	37735.36
573.376	37462.98
573.574	37553.09
573.772	37549
573.971	37567.43
574.169	37409.73
574.367	37340.1
574.565	37495.75
574.763	36750.29
574.962	37247.94
575.16	36715.47
575.358	36832.21
575.556	36561.87
575.754	37153.74
575.952	36303.83
576.151	36991.95
576.349	36416.47
576.547	36125.66
576.745	36101.08
576.943	36537.3
577.141	36309.97
577.339	36049.88
577.537	35402.72
577.735	35972.06
577.933	35628
578.131	35816.41
578.329	35365.86
578.527	35279.85
578.725	35101.67
578.923	35552.23
579.121	35265.51
579.319	35132.39
579.516	35011.56
579.714	34862.06
579.912	34884.59
580.11	34638.83
580.308	34911.21
580.506	34587.63
580.704	34198.52
580.901	34423.79
581.099	34675.69
581.297	34100.22
581.495	34104.31
581.692	34190.33
581.89	33373.19
582.088	33997.82
582.285	33891.32
582.483	33903.61
582.681	33723.39
582.878	33741.82
583.076	33141.77
583.274	33760.25
583.471	33127.43
583.669	33334.28
583.866	33375.23
584.064	32969.74
584.262	32584.72
584.459	33086.47
584.657	32650.25
584.854	32953.35
585.052	32390.16
585.249	32707.6
585.447	32326.67
585.644	32255
585.841	32152.6
586.039	32271.38
586.236	31728.67
586.434	31765.53
586.631	31802.39
586.828	31994.9
587.026	32144.41
587.223	31853.59
587.42	31458.34
587.618	31599.65
587.815	31099.94
588.012	30815.27
588.21	31093.8
588.407	31751.2
588.604	30852.14
588.801	30899.24
588.999	30790.7
589.196	30833.71
589.393	30944.3
589.59	30553.13
589.787	30389.3
589.984	30278.71
590.182	30184.5
590.379	30475.31
590.576	30186.55
590.773	30086.2
590.97	29881.4
591.167	29908.02
591.364	29797.43
591.561	30039.09
591.758	29449.28
591.955	29439.04
592.152	29512.77
592.349	29539.39
592.546	29021.25
592.743	29342.78
592.94	28724.3
593.137	29504.57
593.334	29152.32
593.531	28767.31
593.727	28869.7
593.924	29019.21
594.121	28413.01
594.318	28611.66
594.515	28157.01
594.712	28566.6
594.908	28195.92
595.105	28283.98
595.302	28075.09
595.499	28066.9
595.696	28001.36
595.892	28122.19
596.089	28005.46
596.286	27724.89
596.482	27753.56
596.679	27649.11
596.876	27751.51
597.072	27382.88
597.269	27309.15
597.466	27090.02
597.662	27202.66
597.859	27540.57
598.055	27599.96
598.252	26543.21
598.448	26942.56
598.645	26907.75
598.841	26367.09
599.038	26727.53
599.234	26479.72
599.431	26578.03
599.627	26285.17
599.824	26457.2
600.02	26137.71
600.217	26485.87
600.413	25947.25
600.609	25977.97
600.806	25728.12
601.002	25996.4
601.198	25619.58
601.395	25545.85
601.591	25431.16
601.787	25664.63
601.984	25574.52
602.18	25588.86
602.376	25062.53
602.572	25259.13
602.769	25410.68
602.965	24861.83
603.161	24972.42
603.357	25068.67
603.553	25015.43
603.75	24958.08
603.946	24368.27
604.142	24663.18
604.338	24499.34
604.534	24609.93
604.73	24073.36
604.926	24224.91
605.122	24155.28
605.318	24157.33
605.514	23843.99
605.71	24138.9
605.906	23954.58
606.102	24099.98
606.298	23807.12
606.494	23872.66
606.69	23790.74
606.886	23649.43
607.082	23041.18
607.278	23788.69
607.474	23577.75
607.67	23501.98
607.866	22967.46
608.062	23471.26
608.257	23231.65
608.453	23438.49
608.649	23182.49
608.845	22887.59
609.041	22840.48
609.236	23149.73
609.432	22834.34
609.628	23317.66
609.824	23010.46
610.019	22523.05
610.215	22609.06
610.411	22727.85
610.606	22531.24
610.802	22453.42
610.998	22527.14
611.193	22701.22
611.389	22607.02
611.584	22326.44
611.78	22168.75
611.976	22103.21
612.171	22451.37
612.367	22103.21
612.562	21945.52
612.758	21984.43
612.953	21961.9
613.149	22115.5
613.344	22158.51
613.539	22029.49
613.735	21523.64
613.93	21695.67
614.126	21845.17
614.321	22111.41
614.517	21777.59
614.712	21765.3
614.907	21509.3
615.103	21740.72
615.298	21429.43
615.493	21705.91
615.688	21195.96
615.884	21634.23
616.079	21351.61
616.274	21501.11
616.47	21413.05
616.665	21302.46
616.86	21339.32
617.055	21132.48
617.25	20821.19
617.445	21052.61
617.641	20534.47
617.836	20989.12
618.031	20757.7
618.226	21019.84
618.421	20544.71
618.616	20671.68
618.811	20280.52
619.006	20528.33
619.201	20415.69
619.396	20419.78
619.591	19924.18
619.786	20278.47
619.981	19807.44
620.176	19842.26
620.371	19797.2
620.566	20022.48
620.761	19696.85
620.956	19821.78
621.151	19655.89
621.346	19819.73
621.541	19352.79
621.735	19467.48
621.93	19225.82
622.125	19264.73
622.32	18869.47
622.515	19006.69
622.709	19029.21
622.904	18633.96
623.099	18787.55
623.294	18701.54
623.488	18482.41
623.683	18687.2
623.878	18380.01
624.072	18189.55
624.267	18132.2
624.462	18068.72
624.656	18044.14
624.851	18052.33
625.046	17784.05
625.24	17626.36
625.435	17691.89
625.629	17542.39
625.824	17419.51
626.018	17433.85
626.213	17065.21
626.407	17255.67
626.602	16874.75
626.796	17128.7
626.991	17093.88
627.185	16760.06
627.38	16614.66
627.574	16514.31
627.768	16448.77
627.963	16491.78
628.157	16106.76
628.352	16430.34
628.546	16129.29
628.74	16280.84
628.935	16026.89
629.129	15944.97
629.323	15525.14
629.517	15709.46
629.712	15756.56
629.906	15490.32
630.1	15174.94
630.294	15533.33
630.489	15312.15
630.683	15271.19
630.877	15142.17
631.071	14916.89
631.265	15353.11
631.459	15115.55
631.653	15002.91
631.848	14716.19
632.042	14830.88
632.236	14841.12
632.43	14578.98
632.624	14406.95
632.818	14335.27
633.012	14341.41
633.206	14173.48
633.4	14169.38
633.594	14071.08
633.788	14200.1
633.982	14155.05
634.176	14124.33
634.369	13929.77
634.563	13884.72
634.757	13665.58
634.951	13815.09
635.145	13655.34
635.339	13765.93
635.533	13348.15
635.726	13430.07
635.92	13077.82
636.114	13219.13
636.308	13196.6
636.501	13053.24
636.695	13124.92
636.889	12690.75
637.083	12905.79
637.276	12889.4
637.47	12631.36
637.664	12647.74
637.857	12895.55
638.051	12440.9
638.244	12545.34
638.438	12256.58
638.632	12354.88
638.825	12139.85
639.019	12166.47
639.212	12039.5
639.406	12064.07
639.599	11984.2
639.793	12090.7
639.986	11871.56
640.18	11855.18
640.373	11869.51
640.567	11730.25
640.76	11730.25
640.954	11459.92
641.147	11160.92
641.34	11396.43
641.534	11332.95
641.727	11316.56
641.92	11328.85
642.114	11132.25
642.307	11150.68
642.5	11203.93
642.694	10935.64
642.887	10638.69
643.08	10812.76
643.273	10919.26
643.467	10876.25
643.66	10642.78
643.853	10483.04
644.046	10548.58
644.239	10501.47
644.432	10583.39
644.626	10401.12
644.819	10524
645.012	10304.87
645.205	10376.55
645.398	10347.87
645.591	10188.13
645.784	10138.98
645.977	10184.04
646.17	9969
646.363	9856.36
646.556	9952.62
646.749	9876.84
646.942	9661.8
647.135	9801.07
647.328	9854.31
647.521	9657.71
647.714	9405.81
647.907	9438.58
648.099	9555.31
648.292	9698.67
648.485	9545.07
648.678	9379.18
648.871	9295.22
649.064	9244.02
649.256	9409.9
649.449	9227.64
649.642	8924.54
649.835	9004.41
650.027	9004.41
650.22	9076.09
650.413	8963.45
650.605	9047.41
650.798	8881.53
650.991	8856.95
651.183	8621.44
651.376	8762.75
651.568	8758.65
651.761	8654.2
651.954	8596.86
652.146	8439.17
652.339	8418.69
652.531	8291.71
652.724	8494.46
652.916	8244.61
653.109	8437.12
653.301	8273.28
653.494	8256.9
653.686	8136.07
653.879	7955.85
654.071	8105.35
654.263	8045.96
654.456	8273.28
654.648	8027.53
654.84	7744.91
655.033	7755.15
655.225	7798.15
655.417	7812.49
655.61	7617.93
655.802	7703.95
655.994	7662.99
656.186	7691.66
656.379	7650.7
656.571	7650.7
656.763	7558.54
656.955	7505.29
657.148	7363.98
657.34	7562.64
657.532	7308.69
657.724	7312.78
657.916	7435.66
658.108	7402.9
658.3	7159.19
658.492	7030.16
658.684	6960.53
658.876	7034.26
659.068	7173.52
659.26	7069.08
659.452	7099.8
659.644	6864.28
659.836	6843.8
660.028	6804.89
660.22	6913.43
660.412	6778.26
660.604	6843.8
660.796	6669.72
660.988	6622.62
661.18	6720.92
661.372	6331.81
661.563	6536.6
661.755	6462.88
661.947	6677.91
662.139	6491.55
662.331	6421.92
662.522	6546.84
662.714	6436.25
662.906	6307.23
663.097	6284.7
663.289	6225.31
663.481	6245.79
663.673	6311.33
663.864	6139.3
664.056	5924.26
664.247	6120.87
664.439	6022.56
664.631	6084
664.822	6133.15
665.014	5938.6
665.205	6120.87
665.397	5916.07
665.588	5877.16
665.78	5776.81
665.971	6028.71
666.163	5930.41
666.354	5768.62
666.546	5883.3
666.737	5690.79
666.929	5854.63
667.12	5901.73
667.311	5688.75
667.503	5666.22
667.694	5612.97
667.885	5508.52
668.077	5539.24
668.268	5596.59
668.459	5473.71
668.651	5451.18
668.842	5559.72
669.033	5442.99
669.224	5418.41
669.416	5481.9
669.607	5356.97
669.798	5377.45
669.989	5246.38
670.18	5369.26
670.371	5203.38
670.563	5303.73
670.754	5313.97
670.945	5301.68
671.136	5393.84
671.327	5195.18
671.518	5219.76
671.709	5406.13
671.9	5242.29
672.091	5141.94
672.282	5043.64
672.473	4865.46
672.664	5041.59
672.855	4986.29
673.046	4976.05
673.237	5176.75
673.428	5090.74
673.619	4855.22
673.809	4947.38
674	4918.71
674.191	4949.43
674.382	4736.44
674.573	4953.52
674.764	4867.51
674.954	4853.17
675.145	4797.88
675.336	4840.89
675.527	4791.73
675.717	4826.55
675.908	4713.91
676.099	4801.97
676.289	4629.95
676.48	4652.47
676.671	4924.85
676.861	4709.82
677.052	4611.51
677.243	4535.74
677.433	4713.91
677.624	4750.78
677.814	4638.14
678.005	4656.57
678.195	4623.8
678.386	4552.12
678.576	4550.07
678.767	4629.95
678.957	4566.46
679.148	4634.04
679.338	4517.31
679.529	4593.08
679.719	4449.72
679.909	4595.13
680.1	4466.11
680.29	4586.94
680.481	4486.59
680.671	4453.82
680.861	4427.2
681.052	4371.9
681.242	4437.44
681.432	4476.35
681.622	4249.02
681.813	4359.61
682.003	4416.96
682.193	4314.56
682.383	4517.31
682.573	4402.62
682.764	4478.4
682.954	4220.35
683.144	4216.26
683.334	4435.39
683.524	4371.9
683.714	4199.87
683.904	4312.51
684.094	4224.45
684.284	4234.69
684.474	4306.37
684.664	4363.71
684.854	4210.11
685.044	4208.06
685.234	4236.74
685.424	4279.74
685.614	4169.15
685.804	4048.32
685.994	4259.26
686.184	4177.34
686.374	4173.25
686.564	4206.02
686.753	4066.75
686.943	4111.81
687.133	4044.23
687.323	3980.74
687.513	4132.29
687.702	4126.15
687.892	3974.6
688.082	3917.25
688.272	3999.17
688.461	3968.45
688.651	3847.62
688.841	3861.96
689.03	3962.31
689.22	4013.51
689.41	3925.44
689.599	3872.2
689.789	3915.2
689.979	3798.47
690.168	3888.58
690.358	3782.09
690.547	3907.01
690.737	3784.13
690.926	3802.57
691.116	3759.56
691.305	3802.57
691.495	3599.82
691.684	3786.18
691.874	3755.46
692.063	3718.6
692.252	3655.11
692.442	3530.19
692.631	3495.37
692.82	3597.77
693.01	3511.75
693.199	3595.72
693.388	3343.82
693.578	3648.97
693.767	3511.75
693.956	3466.7
694.146	3415.5
694.335	3542.47
694.524	3417.55
694.713	3589.58
694.902	3470.8
695.092	3397.07
695.281	3456.46
695.47	3380.68
695.659	3378.64
695.848	3331.53
696.037	3593.67
696.226	3356.11
696.415	3356.11
696.604	3421.64
696.793	3476.94
696.982	3343.82
697.171	3575.24
697.36	3380.68
697.549	3241.42
697.738	3372.49
697.927	3448.27
698.116	3286.48
698.305	3337.68
698.494	3370.44
698.683	3167.7
698.872	3442.12
699.061	3409.36
699.25	3266
699.438	3171.79
699.627	3352.01
699.816	3274.19
700.005	3198.42
700.193	3288.53
700.382	3204.56
700.571	3321.29
700.76	3216.85
700.948	3274.19
701.137	3349.96
701.326	3165.65
701.514	3304.91
701.703	3198.42
701.892	3192.27
702.08	3427.79
702.269	3153.36
702.457	3200.46
702.646	3159.5
702.834	3249.61
703.023	3122.64
703.212	3266
703.4	3309.01
703.589	3302.86
703.777	3239.37
703.965	3141.07
704.154	3263.95
704.342	3114.45
704.531	3182.03
704.719	3139.02
704.907	3116.5
705.096	3261.9
705.284	3104.21
705.472	3208.66
705.661	3157.46
705.849	3243.47
706.037	3118.54
706.226	3149.26
706.414	3050.96
706.602	3161.55
706.79	3247.57
706.979	2983.38
707.167	3294.67
707.355	3141.07
707.543	3153.36
707.731	3079.63
707.919	3016.15
708.107	3143.12
708.296	3028.43
708.484	3034.58
708.672	3214.8
708.86	3106.26
709.048	3093.97
709.236	3147.22
709.424	3042.77
709.612	3141.07
709.8	2969.04
709.988	3010
710.176	3149.26
710.364	3118.54
710.551	3159.5
710.739	3007.95
710.927	3053.01
711.115	3020.24
711.303	3018.19
711.491	3061.2
711.679	3079.63
711.866	3075.54
712.054	3239.37
712.242	3091.92
712.43	3190.22
712.617	3102.16
712.805	2936.28
712.993	3038.67
713.181	3102.16
713.368	3161.55
713.556	2983.38
713.744	2987.47
713.931	3079.63
714.119	3063.25
714.306	3044.82
714.494	3016.15
714.682	3079.63
714.869	2973.14
715.057	3132.88
715.244	3134.93
715.432	3050.96
715.619	3110.35
715.807	3136.98
715.994	3079.63
716.182	3050.96
716.369	3034.58
716.556	3093.97
716.744	2926.04
716.931	3046.87
717.119	3112.4
717.306	3091.92
717.493	3018.19
717.681	3022.29
717.868	3003.86
718.055	3163.6
718.242	3012.05
718.43	3069.39
718.617	3139.02
718.804	3085.78
718.991	3120.59
719.179	3087.82
719.366	2944.47
719.553	3098.06
719.74	3157.46
719.927	3046.87
720.114	2991.57
720.301	3034.58
720.488	3032.53
720.676	2928.08
720.863	3091.92
721.05	3067.35
721.237	2950.61
721.424	2977.23
721.611	3063.25
721.798	3026.39
721.985	3044.82
722.172	3046.87
722.358	3061.2
722.545	3134.93
722.732	3059.15
722.919	3102.16
723.106	3118.54
723.293	3087.82
723.48	3001.81
723.667	3003.86
723.853	3075.54
724.04	3073.49
724.227	3044.82
724.414	3030.48
724.6	3024.34
724.787	3071.44
724.974	3069.39
725.161	2915.8
725.347	2883.03
725.534	3063.25
725.72	3083.73
725.907	3026.39
726.094	2862.55
726.28	2975.19
726.467	3067.35
726.653	3012.05
726.84	3108.3
727.027	3124.69
727.213	2969.04
727.4	3024.34
727.586	2905.56
727.773	3098.06
727.959	3034.58
728.145	2954.71
728.332	2913.75
728.518	3091.92
728.705	2909.65
728.891	2985.43
729.077	2907.6
729.264	2805.21
729.45	2973.14
729.636	3081.68
729.823	2938.32
730.009	2825.68
730.195	3151.31
730.382	2950.61
730.568	2868.69
730.754	2977.23
730.94	2977.23
731.126	3055.06
731.313	2921.94
731.499	3071.44
731.685	3026.39
731.871	2987.47
732.057	2942.42
732.243	3050.96
732.429	2887.12
732.615	2999.76
732.801	2983.38
732.987	2782.68
733.173	2971.09
733.359	2864.6
733.545	2889.17
733.731	2819.54
733.917	2960.85
734.103	2880.98
734.289	2977.23
734.475	2876.88
734.661	2889.17
734.847	2903.51
735.033	2856.4
735.219	2844.12
735.404	2960.85
735.59	2866.64
735.776	2819.54
735.962	2973.14
736.148	2835.92
736.333	2923.99
736.519	2807.25
736.705	2915.8
736.89	2866.64
737.076	2926.04
737.262	2921.94
737.447	2731.48
737.633	2854.36
737.819	2792.92
738.004	2790.87
738.19	2778.58
738.375	2698.71
738.561	2858.45
738.747	2725.33
738.932	2792.92
739.118	2921.94
739.303	2784.73
739.489	2776.53
739.674	2801.11
739.859	2764.25
740.045	2727.38
740.23	2674.14
740.416	2653.66
740.601	2661.85
740.786	2663.9
740.972	2661.85
741.157	2682.33
741.342	2622.94
741.528	2788.82
741.713	2620.89
741.898	2663.9
742.084	2579.93
742.269	2670.04
742.454	2678.23
742.639	2700.76
742.824	2518.49
743.01	2547.16
743.195	2588.12
743.38	2670.04
743.565	2547.16
743.75	2596.31
743.935	2455
744.12	2588.12
744.305	2420.19
744.49	2440.67
744.675	2536.92
744.86	2559.45
745.045	2381.28
745.23	2430.43
745.415	2426.33
745.6	2500.06
745.785	2489.82
745.97	2545.11
746.155	2252.25
746.34	2393.56
746.525	2364.89
746.71	2428.38
746.895	2368.99
747.079	2409.95
747.264	2285.02
747.449	2334.17
747.634	2285.02
747.819	2293.21
748.003	2313.69
748.188	2266.59
748.373	2246.11
748.557	2264.54
748.742	2141.66
748.927	2174.43
749.111	2080.22
749.296	2174.43
749.481	2192.86
749.665	2242.01
749.85	2121.18
750.034	2149.86
750.219	2125.28
750.404	2102.75
750.588	2088.42
750.773	2035.17
750.957	2049.5
751.141	2016.74
751.326	2096.61
751.51	1981.92
751.695	1998.31
751.879	1957.35
752.064	2053.6
752.248	2063.84
752.432	1967.59
752.617	1852.9
752.801	2037.22
752.985	1887.72
753.17	1871.33
753.354	1859.04
753.538	1973.73
753.722	1816.04
753.907	1799.65
754.091	1770.98
754.275	1914.34
754.459	1711.59
754.643	1797.6
754.828	1768.93
755.012	1854.95
755.196	1668.58
755.38	1713.64
755.564	1697.25
755.748	1689.06
755.932	1803.75
756.116	1627.62
756.3	1611.24
756.484	1621.48
756.668	1670.63
756.852	1576.42
757.036	1664.49
757.22	1521.13
757.404	1625.58
757.588	1682.92
757.772	1582.57
757.956	1609.19
758.14	1621.48
758.323	1494.51
758.507	1474.03
758.691	1566.18
758.875	1418.73
759.059	1601
759.242	1560.04
759.426	1357.29
759.61	1447.4
759.794	1435.11
759.977	1486.31
760.161	1451.5
760.345	1490.41
760.528	1416.68
760.712	1455.59
760.895	1400.3
761.079	1349.1
761.263	1404.39
761.446	1416.68
761.63	1267.18
761.813	1457.64
761.997	1367.53
762.18	1263.08
762.364	1426.92
762.547	1347.05
762.731	1355.24
762.914	1265.13
763.098	1447.4
763.281	1277.42
763.464	1267.18
763.648	1195.5
763.831	1334.76
764.015	1236.46
764.198	1281.52
764.381	1291.76
764.564	1273.32
764.748	1191.41
764.931	1279.47
765.114	1211.89
765.297	1228.27
765.481	1195.5
765.664	1203.69
765.847	1285.61
766.03	1138.16
766.213	1220.08
766.397	1181.17
766.58	1191.41
766.763	1246.7
766.946	1150.45
767.129	1095.15
767.312	1199.6
767.495	1154.54
767.678	1183.21
767.861	1093.1
768.044	1146.35
768.227	1302
768.41	1078.77
768.593	1148.4
768.776	1099.25
768.959	1089.01
769.142	1218.03
769.324	1111.54
769.507	1058.29
769.69	1123.82
769.873	1076.72
770.056	1193.45
770.239	1142.25
770.421	1086.96
770.604	1062.38
770.787	1023.47
770.97	1033.71
771.152	1138.16
771.335	1058.29
771.518	1000.94
771.7	972.27
771.883	1078.77
772.066	1097.2
772.248	1023.47
772.431	1027.57
772.613	1056.24
772.796	1064.43
772.978	1050.1
773.161	896.5
773.343	955.89
773.526	1027.57
773.708	943.6
773.891	974.32
774.073	939.51
774.256	951.79
774.438	1002.99
774.621	945.65
774.803	904.69
774.985	935.41
775.168	966.13
775.35	806.39
775.532	900.59
775.715	988.66
775.897	908.79
776.079	871.92
776.261	900.59
776.444	761.33
776.626	835.06
776.808	794.1
776.99	835.06
777.173	876.02
777.355	888.31
777.537	878.07
777.719	740.85
777.901	857.59
778.083	800.24
778.265	757.24
778.447	777.72
778.629	828.92
778.811	753.14
778.993	740.85
779.175	826.87
779.357	826.87
779.539	697.85
779.721	699.89
779.903	845.3
780.085	787.96
780.267	681.46
780.449	708.09
780.631	722.42
780.812	744.95
780.994	742.9
781.176	677.37
781.358	681.46
781.54	681.46
781.721	763.38
781.903	728.56
782.085	673.27
782.267	615.93
782.448	622.07
782.63	714.23
782.812	630.26
782.993	595.45
783.175	642.55
783.357	617.97
783.538	622.07
783.72	597.49
783.901	609.78
784.083	640.5
784.264	642.55
784.446	605.69
784.627	570.87
784.809	558.58
784.99	617.97
785.172	650.74
785.353	583.16
785.535	648.69
785.716	491
785.897	548.34
786.079	579.06
786.26	599.54
786.441	552.44
786.623	552.44
786.804	546.3
786.985	609.78
787.167	529.91
787.348	536.06
787.529	529.91
787.71	607.73
787.891	605.69
788.073	402.94
788.254	527.86
788.435	585.21
788.616	495.1
788.797	517.62
788.978	482.81
789.159	450.04
789.34	476.66
789.522	452.09
789.703	495.1
789.884	554.49
790.065	515.58
790.246	579.06
790.427	456.19
790.607	529.91
790.788	480.76
790.969	361.98
791.15	491
791.331	462.33
791.512	409.08
791.693	441.85
791.874	445.95
792.054	464.38
792.235	429.56
792.416	413.18
792.597	435.71
792.778	447.99
792.958	384.51
793.139	386.55
793.32	484.86
793.5	407.03
793.681	476.66
793.862	357.88
794.042	398.84
794.223	364.03
794.404	450.04
794.584	310.78
794.765	351.74
794.945	388.6
795.126	400.89
795.306	396.79
795.487	415.23
795.667	351.74
795.848	355.83
796.028	308.73
796.209	306.68
796.389	269.82
796.57	339.45
796.75	388.6
796.93	343.55
797.111	284.16
797.291	423.42
797.471	271.87
797.652	335.35
797.832	286.2
798.012	325.12
798.192	329.21
798.373	384.51
798.553	300.54
798.733	251.39
798.913	382.46
799.093	296.44
799.274	404.99
799.454	390.65
799.634	392.7
799.814	306.68
799.994	351.74
800.174	343.55
800.354	407.03
800.534	361.98
800.714	343.55
800.894	298.49
801.074	249.34
801.254	355.83
801.434	269.82
801.614	294.4
801.794	267.77
801.974	742.9
802.154	220.67
802.334	247.29
802.514	282.11
802.693	329.21
802.873	251.39
803.053	245.24
803.233	202.24
803.413	275.96
803.592	265.72
803.772	259.58
803.952	218.62
804.131	296.44
804.311	339.45
804.491	253.44
804.67	280.06
804.85	220.67
805.03	239.1
805.209	308.73
805.389	251.39
805.568	214.52
805.748	214.52
805.928	343.55
806.107	216.57
806.287	275.96
806.466	273.92
806.646	251.39
806.825	257.53
807.004	206.33
807.184	218.62
807.363	216.57
807.543	275.96
807.722	235
807.901	251.39
808.081	249.34
808.26	212.48
808.439	249.34
808.619	222.72
808.798	235
808.977	192
809.156	253.44
809.336	218.62
809.515	218.62
809.694	144.89
809.873	259.58
810.052	171.52
810.231	237.05
810.411	134.65
810.59	284.16
810.769	241.15
810.948	292.35
811.127	224.76
811.306	169.47
811.485	192
811.664	192
811.843	278.01
812.022	91.65
812.201	241.15
812.38	220.67
812.559	153.09
812.737	237.05
812.916	175.61
813.095	169.47
813.274	286.2
813.453	220.67
813.632	167.42
813.811	218.62
813.989	189.95
814.168	194.05
814.347	198.14
814.526	210.43
814.704	220.67
814.883	235
815.062	202.24
815.24	206.33
815.419	181.76
815.598	159.23
815.776	196.09
815.955	200.19
816.133	148.99
816.312	148.99
816.49	177.66
816.669	163.33
816.847	175.61
817.026	200.19
817.204	216.57
817.383	216.57
817.561	173.57
817.74	157.18
817.918	148.99
818.097	210.43
818.275	62.98
818.453	175.61
818.632	161.28
818.81	159.23
818.988	189.95
819.167	110.08
819.345	71.17
819.523	116.22
819.701	116.22
819.879	77.31
820.058	192
820.236	169.47
820.414	210.43
820.592	181.76
820.77	222.72
820.948	114.17
821.127	83.45
821.305	194.05
821.483	110.08
821.661	110.08
821.839	148.99
822.017	151.04
822.195	181.76
822.373	200.19
822.551	189.95
822.729	114.17
822.907	91.65
823.085	151.04
823.262	179.71
823.44	130.56
823.618	138.75
823.796	103.93
823.974	171.52
824.152	220.67
824.329	151.04
824.507	153.09
824.685	138.75
824.863	220.67
825.04	126.46
825.218	194.05
825.396	91.65
825.574	161.28
825.751	175.61
825.929	148.99
826.107	52.74
826.284	148.99
826.462	97.79
826.639	140.8
826.817	130.56
826.994	62.98
827.172	99.84
827.349	138.75
827.527	124.41
827.704	108.03
827.882	89.6
828.059	132.61
828.237	71.17
828.414	134.65
828.591	157.18
828.769	91.65
828.946	52.74
829.124	65.02
829.301	79.36
829.478	122.37
829.655	144.89
829.833	97.79
830.01	19.97
830.187	99.84
830.364	19.97
830.542	112.13
830.719	192
830.896	185.85
831.073	85.5
831.25	128.51
831.427	140.8
831.604	175.61
831.782	24.06
831.959	46.59
832.136	95.74
832.313	138.75
832.49	173.57
832.667	185.85
832.844	22.02
833.021	83.45
833.198	91.65
833.374	83.45
833.551	110.08
833.728	83.45
833.905	144.89
834.082	118.27
834.259	132.61
834.436	126.46
834.612	60.93
834.789	114.17
834.966	101.89
835.143	89.6
835.319	69.12
835.496	103.93
835.673	79.36
835.85	108.03
836.026	202.24
836.203	62.98
836.38	85.5
836.556	99.84
836.733	79.36
836.909	153.09
837.086	83.45
837.262	62.98
837.439	77.31
837.616	77.31
837.792	103.93
837.968	112.13
838.145	81.41
838.321	85.5
838.498	144.89
838.674	60.93
838.851	85.5
839.027	69.12
839.203	97.79
839.38	46.59
839.556	99.84
839.732	99.84
839.909	110.08
840.085	122.37
840.261	42.5
840.437	62.98
840.614	50.69
840.79	62.98
840.966	81.41
841.142	151.04
841.318	103.93
841.494	138.75
841.671	62.98
841.847	38.4
842.023	-6.66
842.199	58.88
842.375	97.79
842.551	81.41
842.727	30.21
842.903	146.94
843.079	54.78
843.255	161.28
843.431	56.83
843.607	54.78
843.783	44.54
843.959	93.69
844.134	9.73
844.31	144.89
844.486	32.26
844.662	40.45
844.838	69.12
845.013	9.73
845.189	91.65
845.365	40.45
845.541	130.56
845.716	77.31
845.892	93.69
846.068	15.87
846.244	13.82
846.419	83.45
846.595	5.63
846.77	28.16
846.946	81.41
847.122	58.88
847.297	52.74
847.473	91.65
847.648	77.31
847.824	44.54
847.999	130.56
848.175	26.11
848.35	65.02
848.526	124.41
848.701	73.21
848.876	62.98
849.052	42.5
849.227	36.35
849.403	-20.99
849.578	26.11
849.753	67.07
849.929	97.79
850.104	67.07
850.279	83.45
850.454	89.6
850.63	65.02
850.805	77.31
850.98	32.26
851.155	28.16
851.33	15.87
851.505	75.26
851.681	101.89
851.856	85.5
852.031	120.32
852.206	26.11
852.381	13.82
852.556	52.74
852.731	126.46
852.906	50.69
853.081	118.27
853.256	165.37
853.431	32.26
853.606	-8.7
853.781	48.64
853.956	-0.51
854.131	60.93
854.305	24.06
854.48	85.5
854.655	32.26
854.83	52.74
855.005	73.21
855.18	40.45
855.354	38.4
855.529	30.21
855.704	54.78
855.879	26.11
856.053	5.63
856.228	40.45
856.403	56.83
856.577	28.16
856.752	42.5
856.926	60.93
857.101	22.02
857.276	95.74
857.45	-8.7
857.625	65.02
857.799	11.78
857.974	38.4
858.148	65.02
858.323	22.02
858.497	77.31
858.672	40.45
858.846	48.64
859.02	42.5
859.195	15.87
859.369	-20.99
859.543	34.3
859.718	83.45
859.892	48.64
860.066	1.54
860.241	36.35
860.415	58.88
860.589	87.55
860.763	77.31
860.938	58.88
861.112	54.78
861.286	40.45
861.46	69.12
861.634	-14.85
861.808	99.84
861.982	7.68
862.157	58.88
862.331	69.12
862.505	44.54
862.679	-31.23
862.853	50.69
863.027	26.11
863.201	11.78
863.375	44.54
863.549	108.03
863.722	105.98
863.896	101.89
864.07	-49.66
864.244	110.08
864.418	15.87
864.592	54.78
864.766	17.92
864.939	67.07
865.113	48.64
865.287	-0.51
865.461	15.87
865.634	79.36
865.808	-14.85
865.982	34.3
866.156	-12.8
866.329	36.35
866.503	91.65
866.676	58.88
866.85	-68.09
867.024	81.41
867.197	19.97
867.371	22.02
867.544	89.6
867.718	-16.9
867.891	9.73
868.065	-10.75
868.238	28.16
868.412	44.54
868.585	3.58
868.759	46.59
868.932	101.89
869.105	-33.28
869.279	-51.71
869.452	19.97
869.625	69.12
869.799	-12.8
869.972	11.78
870.145	77.31
870.319	-6.66
870.492	5.63
870.665	44.54
870.838	-0.51
871.011	-39.42
871.185	50.69
871.358	46.59
871.531	81.41
871.704	34.3
871.877	50.69
872.05	77.31
872.223	-2.56
872.396	52.74
872.569	30.21
872.742	-6.66
872.915	73.21
873.088	65.02
873.261	60.93
873.434	69.12
873.607	-4.61
873.78	-2.56
873.953	52.74
874.126	32.26
874.299	81.41
874.471	-20.99
874.644	7.68
874.817	-55.81
874.99	95.74
875.163	9.73
875.335	9.73
875.508	-25.09
875.681	69.12
875.853	-25.09
876.026	62.98
876.199	3.58
876.371	36.35
876.544	28.16
876.717	26.11
876.889	1.54
877.062	79.36
877.234	-8.7
877.407	7.68
877.579	56.83
877.752	7.68
877.924	-25.09
878.097	60.93
878.269	-20.99
878.442	40.45
878.614	112.13
878.786	15.87
878.959	54.78
879.131	24.06
879.303	-27.14
879.476	17.92
879.648	105.98
879.82	-41.47
879.993	-20.99
880.165	-20.99
880.337	-18.94
880.509	46.59
880.681	-4.61
880.854	28.16
881.026	34.3
881.198	32.26
881.37	28.16
881.542	-14.85
881.714	28.16
881.886	22.02
882.058	38.4
882.23	-0.51
882.402	-33.28
882.574	38.4
882.746	22.02
882.918	83.45
883.09	19.97
883.262	5.63
883.434	-29.18
883.606	-6.66
883.778	26.11
883.95	32.26
884.122	67.07
884.293	108.03
884.465	56.83
884.637	15.87
884.809	-6.66
884.98	26.11
885.152	17.92
885.324	69.12
885.496	13.82
885.667	-12.8
885.839	-2.56
886.011	-2.56
886.182	-12.8
886.354	54.78
886.525	13.82
886.697	50.69
886.869	19.97
887.04	-47.62
887.212	32.26
887.383	52.74
887.555	-12.8
887.726	46.59
887.897	5.63
888.069	62.98
888.24	-18.94
888.412	15.87
888.583	9.73
888.754	77.31
888.926	32.26
889.097	34.3
889.268	-12.8
889.44	52.74
889.611	-25.09
889.782	3.58
889.953	19.97
890.125	40.45
890.296	-8.7
890.467	65.02
890.638	15.87
890.809	-14.85
890.98	-2.56
891.151	-18.94
891.323	87.55
891.494	-47.62
891.665	54.78
891.836	-41.47
892.007	50.69
892.178	58.88
892.349	-4.61
892.52	-8.7
892.691	-8.7
892.862	-39.42
893.032	34.3
893.203	38.4
893.374	81.41
893.545	38.4
893.716	19.97
893.887	-18.94
894.057	36.35
894.228	-37.38
894.399	1.54
894.57	52.74
894.74	44.54
894.911	3.58
895.082	7.68
895.253	22.02
895.423	19.97
895.594	56.83
895.764	17.92
895.935	5.63
896.106	73.21
896.276	71.17
896.447	7.68
896.617	50.69
896.788	36.35
896.958	114.17
897.129	17.92
897.299	52.74
897.47	-29.18
897.64	56.83
897.81	13.82
897.981	-41.47
898.151	-35.33
898.322	79.36
898.492	34.3
898.662	-43.52
898.832	75.26
899.003	-12.8
899.173	-31.23
899.343	32.26
899.513	75.26
