Data from USB4F104151__27__11-51-33-314.txt Node

Date: Fri Mar 14 11:51:33 EDT 2025
User: louis
Spectrometer: USB4F10415
Trigger mode: 4
Integration Time (sec): 2.000000E-2
Scans to average: 1
Electric dark correction enabled: true
Nonlinearity correction enabled: false
Boxcar width: 0
XAxis mode: Wavelengths
Number of Pixels in Spectrum: 3648
>>>>>Begin Spectral Data<<<<<
178.204	-50.52
178.424	-50.52
178.644	-50.52
178.864	-107.86
179.084	-97.62
179.304	-9.56
179.524	-66.9
179.744	-7.51
179.964	25.26
180.184	23.21
180.404	45.74
180.624	-19.8
180.844	66.22
181.064	-11.61
181.283	-64.85
181.503	-30.04
181.723	49.83
181.943	-75.09
182.163	15.02
182.383	-3.41
182.602	17.07
182.822	19.11
183.042	53.93
183.262	35.5
183.482	55.98
183.701	-1.37
183.921	27.31
184.141	43.69
184.361	49.83
184.58	21.16
184.8	80.55
185.02	12.97
185.239	4.78
185.459	-27.99
185.679	53.93
185.898	-5.46
186.118	31.4
186.338	-23.89
186.557	39.59
186.777	45.74
186.997	35.5
187.216	-40.28
187.436	62.12
187.655	-7.51
187.875	31.4
188.095	-62.8
188.314	43.69
188.534	84.65
188.753	-19.8
188.973	47.79
189.192	37.55
189.412	0.68
189.631	131.75
189.851	80.55
190.07	25.26
190.29	4.78
190.509	58.03
190.729	-25.94
190.948	70.31
191.168	113.32
191.387	76.46
191.607	31.4
191.826	-5.46
192.045	64.17
192.265	137.9
192.484	68.27
192.704	-1.37
192.923	25.26
193.142	6.83
193.362	12.97
193.581	62.12
193.8	41.64
194.02	-15.7
194.239	-13.65
194.458	49.83
194.678	27.31
194.897	78.51
195.116	60.07
195.335	80.55
195.555	12.97
195.774	23.21
195.993	-1.37
196.212	8.87
196.432	47.79
196.651	41.64
196.87	-13.65
197.089	8.87
197.308	47.79
197.528	51.88
197.747	43.69
197.966	45.74
198.185	31.4
198.404	27.31
198.623	82.6
198.842	33.45
199.062	10.92
199.281	66.22
199.5	49.83
199.719	0.68
199.938	37.55
200.157	88.75
200.376	53.93
200.595	51.88
200.814	25.26
201.033	64.17
201.252	25.26
201.471	-62.8
201.69	92.84
201.909	29.35
202.128	80.55
202.347	35.5
202.566	45.74
202.785	2.73
203.004	49.83
203.223	64.17
203.442	86.7
203.661	-1.37
203.879	-9.56
204.098	55.98
204.317	2.73
204.536	35.5
204.755	64.17
204.974	43.69
205.193	10.92
205.411	72.36
205.63	25.26
205.849	31.4
206.068	0.68
206.287	86.7
206.505	92.84
206.724	66.22
206.943	39.59
207.162	49.83
207.381	-17.75
207.599	84.65
207.818	21.16
208.037	-17.75
208.255	27.31
208.474	31.4
208.693	51.88
208.911	135.85
209.13	-60.76
209.349	12.97
209.567	94.89
209.786	4.78
210.005	129.7
210.223	25.26
210.442	-9.56
210.661	80.55
210.879	-40.28
211.098	-5.46
211.316	72.36
211.535	53.93
211.753	2.73
211.972	-15.7
212.191	-11.61
212.409	-25.94
212.628	-23.89
212.846	25.26
213.065	74.41
213.283	98.99
213.502	-5.46
213.72	33.45
213.938	74.41
214.157	29.35
214.375	78.51
214.594	29.35
214.812	25.26
215.031	23.21
215.249	-32.08
215.467	-68.95
215.686	-27.99
215.904	-46.42
216.122	53.93
216.341	-15.7
216.559	-1.37
216.778	21.16
216.996	62.12
217.214	-27.99
217.432	49.83
217.651	-3.41
217.869	31.4
218.087	-23.89
218.306	-46.42
218.524	53.93
218.742	-21.84
218.96	4.78
219.179	47.79
219.397	21.16
219.615	64.17
219.833	53.93
220.051	27.31
220.27	49.83
220.488	-13.65
220.706	-40.28
220.924	-15.7
221.142	-21.84
221.36	21.16
221.578	8.87
221.796	-34.13
222.015	47.79
222.233	-5.46
222.451	17.07
222.669	-15.7
222.887	49.83
223.105	-3.41
223.323	-27.99
223.541	39.59
223.759	53.93
223.977	31.4
224.195	23.21
224.413	62.12
224.631	-32.08
224.849	64.17
225.067	35.5
225.285	72.36
225.503	0.68
225.721	-44.37
225.939	-21.84
226.157	33.45
226.375	78.51
226.592	0.68
226.81	29.35
227.028	25.26
227.246	25.26
227.464	-58.71
227.682	62.12
227.9	35.5
228.117	0.68
228.335	78.51
228.553	-19.8
228.771	21.16
228.989	8.87
229.206	62.12
229.424	43.69
229.642	-15.7
229.86	-7.51
230.077	27.31
230.295	17.07
230.513	47.79
230.731	21.16
230.948	90.79
231.166	-13.65
231.384	-5.46
231.601	37.55
231.819	-1.37
232.037	53.93
232.254	35.5
232.472	29.35
232.689	-9.56
232.907	86.7
233.125	4.78
233.342	-5.46
233.56	33.45
233.777	21.16
233.995	33.45
234.213	86.7
234.43	64.17
234.648	47.79
234.865	76.46
235.083	72.36
235.3	86.7
235.518	-9.56
235.735	62.12
235.953	60.07
236.17	19.11
236.388	33.45
236.605	74.41
236.822	45.74
237.04	25.26
237.257	-5.46
237.475	12.97
237.692	49.83
237.909	66.22
238.127	25.26
238.344	55.98
238.562	-21.84
238.779	27.31
238.996	-13.65
239.214	0.68
239.431	39.59
239.648	53.93
239.865	78.51
240.083	-23.89
240.3	-11.61
240.517	-15.7
240.735	-27.99
240.952	123.56
241.169	47.79
241.386	31.4
241.603	55.98
241.821	45.74
242.038	90.79
242.255	-15.7
242.472	39.59
242.689	76.46
242.907	66.22
243.124	-30.04
243.341	2.73
243.558	19.11
243.775	53.93
243.992	53.93
244.209	15.02
244.426	-17.75
244.643	41.64
244.86	23.21
245.078	8.87
245.295	47.79
245.512	29.35
245.729	29.35
245.946	-54.61
246.163	2.73
246.38	49.83
246.597	-34.13
246.814	80.55
247.031	101.03
247.248	-7.51
247.464	33.45
247.681	53.93
247.898	-46.42
248.115	47.79
248.332	17.07
248.549	70.31
248.766	68.27
248.983	45.74
249.2	23.21
249.417	64.17
249.633	53.93
249.85	82.6
250.067	-19.8
250.284	72.36
250.501	60.07
250.717	-11.61
250.934	-15.7
251.151	68.27
251.368	25.26
251.585	45.74
251.801	15.02
252.018	-13.65
252.235	66.22
252.451	-32.08
252.668	68.27
252.885	45.74
253.102	53.93
253.318	45.74
253.535	-38.23
253.752	-27.99
253.968	2.73
254.185	45.74
254.401	19.11
254.618	88.75
254.835	-7.51
255.051	45.74
255.268	39.59
255.484	70.31
255.701	37.55
255.917	-11.61
256.134	35.5
256.351	53.93
256.567	-40.28
256.784	-1.37
257	10.92
257.217	-7.51
257.433	70.31
257.65	43.69
257.866	-1.37
258.082	-7.51
258.299	21.16
258.515	64.17
258.732	0.68
258.948	66.22
259.165	0.68
259.381	25.26
259.597	8.87
259.814	47.79
260.03	-50.52
260.246	2.73
260.463	49.83
260.679	86.7
260.895	64.17
261.112	66.22
261.328	39.59
261.544	25.26
261.761	25.26
261.977	33.45
262.193	35.5
262.409	8.87
262.626	31.4
262.842	29.35
263.058	33.45
263.274	84.65
263.49	17.07
263.707	33.45
263.923	19.11
264.139	27.31
264.355	62.12
264.571	88.75
264.787	41.64
265.004	8.87
265.22	29.35
265.436	62.12
265.652	62.12
265.868	72.36
266.084	-23.89
266.3	-1.37
266.516	-9.56
266.732	43.69
266.948	-25.94
267.164	-15.7
267.38	78.51
267.596	27.31
267.812	78.51
268.028	31.4
268.244	4.78
268.46	4.78
268.676	31.4
268.892	-27.99
269.108	39.59
269.324	-7.51
269.54	17.07
269.756	47.79
269.972	-23.89
270.188	2.73
270.403	-11.61
270.619	-21.84
270.835	-11.61
271.051	86.7
271.267	-23.89
271.483	21.16
271.698	90.79
271.914	70.31
272.13	-9.56
272.346	-17.75
272.562	-9.56
272.777	76.46
272.993	53.93
273.209	2.73
273.425	41.64
273.64	29.35
273.856	39.59
274.072	49.83
274.287	19.11
274.503	29.35
274.719	23.21
274.934	76.46
275.15	-9.56
275.366	72.36
275.581	49.83
275.797	33.45
276.012	53.93
276.228	29.35
276.444	4.78
276.659	60.07
276.875	-17.75
277.09	10.92
277.306	25.26
277.521	21.16
277.737	51.88
277.952	27.31
278.168	-38.23
278.383	78.51
278.599	35.5
278.814	10.92
279.03	51.88
279.245	41.64
279.461	53.93
279.676	21.16
279.892	-9.56
280.107	76.46
280.322	-19.8
280.538	39.59
280.753	33.45
280.969	37.55
281.184	31.4
281.399	68.27
281.615	41.64
281.83	105.13
282.045	17.07
282.26	33.45
282.476	-9.56
282.691	29.35
282.906	-15.7
283.122	4.78
283.337	41.64
283.552	60.07
283.767	2.73
283.983	-42.32
284.198	37.55
284.413	0.68
284.628	4.78
284.843	82.6
285.058	0.68
285.274	-1.37
285.489	88.75
285.704	21.16
285.919	-13.65
286.134	-15.7
286.349	21.16
286.564	94.89
286.779	31.4
286.995	39.59
287.21	8.87
287.425	80.55
287.64	4.78
287.855	33.45
288.07	51.88
288.285	-46.42
288.5	94.89
288.715	33.45
288.93	21.16
289.145	-23.89
289.36	115.37
289.575	29.35
289.79	66.22
290.004	-25.94
290.219	-15.7
290.434	-25.94
290.649	23.21
290.864	10.92
291.079	-3.41
291.294	12.97
291.509	80.55
291.724	115.37
291.938	-3.41
292.153	29.35
292.368	25.26
292.583	43.69
292.798	62.12
293.012	45.74
293.227	-1.37
293.442	55.98
293.657	37.55
293.871	129.7
294.086	64.17
294.301	62.12
294.516	94.89
294.73	27.31
294.945	58.03
295.16	80.55
295.374	76.46
295.589	-27.99
295.804	78.51
296.018	92.84
296.233	62.12
296.447	33.45
296.662	-25.94
296.877	-5.46
297.091	70.31
297.306	25.26
297.52	43.69
297.735	117.42
297.949	15.02
298.164	-44.37
298.378	-1.37
298.593	80.55
298.807	8.87
299.022	60.07
299.236	66.22
299.451	25.26
299.665	43.69
299.88	19.11
300.094	-25.94
300.309	105.13
300.523	17.07
300.737	-21.84
300.952	66.22
301.166	90.79
301.381	25.26
301.595	4.78
301.809	29.35
302.024	68.27
302.238	-1.37
302.452	62.12
302.667	4.78
302.881	78.51
303.095	109.23
303.309	39.59
303.524	58.03
303.738	-93.52
303.952	6.83
304.166	64.17
304.381	12.97
304.595	49.83
304.809	15.02
305.023	21.16
305.237	2.73
305.452	27.31
305.666	160.42
305.88	21.16
306.094	41.64
306.308	41.64
306.522	45.74
306.736	6.83
306.95	39.59
307.164	31.4
307.379	-9.56
307.593	45.74
307.807	74.41
308.021	115.37
308.235	4.78
308.449	25.26
308.663	23.21
308.877	113.32
309.091	58.03
309.305	49.83
309.519	-38.23
309.733	62.12
309.947	58.03
310.161	84.65
310.374	41.64
310.588	53.93
310.802	-38.23
311.016	-38.23
311.23	23.21
311.444	0.68
311.658	58.03
311.872	45.74
312.085	39.59
312.299	68.27
312.513	68.27
312.727	21.16
312.941	2.73
313.154	82.6
313.368	70.31
313.582	17.07
313.796	53.93
314.009	35.5
314.223	12.97
314.437	76.46
314.651	129.7
314.864	82.6
315.078	17.07
315.292	8.87
315.505	23.21
315.719	109.23
315.933	23.21
316.146	-15.7
316.36	-30.04
316.573	129.7
316.787	-3.41
317.001	10.92
317.214	-38.23
317.428	92.84
317.641	41.64
317.855	-1.37
318.068	58.03
318.282	72.36
318.495	64.17
318.709	101.03
318.922	72.36
319.136	101.03
319.349	64.17
319.563	37.55
319.776	29.35
319.99	31.4
320.203	119.46
320.417	45.74
320.63	10.92
320.843	80.55
321.057	33.45
321.27	0.68
321.483	60.07
321.697	45.74
321.91	64.17
322.124	45.74
322.337	25.26
322.55	82.6
322.763	19.11
322.977	2.73
323.19	-1.37
323.403	68.27
323.617	27.31
323.83	80.55
324.043	37.55
324.256	98.99
324.469	62.12
324.683	55.98
324.896	19.11
325.109	-7.51
325.322	-19.8
325.535	105.13
325.748	119.46
325.962	62.12
326.175	37.55
326.388	-21.84
326.601	76.46
326.814	-19.8
327.027	-23.89
327.24	12.97
327.453	-13.65
327.666	33.45
327.879	10.92
328.092	74.41
328.305	119.46
328.518	-34.13
328.731	62.12
328.944	82.6
329.157	90.79
329.37	49.83
329.583	27.31
329.796	88.75
330.009	37.55
330.222	68.27
330.435	17.07
330.648	64.17
330.861	72.36
331.073	0.68
331.286	82.6
331.499	17.07
331.712	-5.46
331.925	45.74
332.138	33.45
332.35	19.11
332.563	-52.56
332.776	86.7
332.989	25.26
333.202	27.31
333.414	33.45
333.627	96.94
333.84	8.87
334.053	47.79
334.265	90.79
334.478	-13.65
334.691	58.03
334.903	-38.23
335.116	10.92
335.329	0.68
335.541	49.83
335.754	51.88
335.966	15.02
336.179	129.7
336.392	-5.46
336.604	58.03
336.817	90.79
337.029	27.31
337.242	2.73
337.454	74.41
337.667	-5.46
337.88	88.75
338.092	58.03
338.305	-11.61
338.517	-15.7
338.729	45.74
338.942	58.03
339.154	43.69
339.367	-27.99
339.579	117.42
339.792	4.78
340.004	41.64
340.217	23.21
340.429	78.51
340.641	68.27
340.854	10.92
341.066	127.66
341.278	78.51
341.491	-27.99
341.703	74.41
341.915	86.7
342.128	78.51
342.34	45.74
342.552	41.64
342.764	58.03
342.977	76.46
343.189	51.88
343.401	105.13
343.613	49.83
343.826	43.69
344.038	49.83
344.25	12.97
344.462	-54.61
344.674	43.69
344.886	47.79
345.099	45.74
345.311	12.97
345.523	84.65
345.735	33.45
345.947	58.03
346.159	119.46
346.371	115.37
346.583	17.07
346.795	74.41
347.007	64.17
347.219	66.22
347.431	-44.37
347.643	98.99
347.855	55.98
348.067	35.5
348.279	33.45
348.491	-62.8
348.703	29.35
348.915	64.17
349.127	39.59
349.339	123.56
349.551	78.51
349.763	94.89
349.975	8.87
350.187	72.36
350.399	115.37
350.61	68.27
350.822	64.17
351.034	76.46
351.246	33.45
351.458	76.46
351.669	80.55
351.881	31.4
352.093	72.36
352.305	55.98
352.517	105.13
352.728	101.03
352.94	21.16
353.152	45.74
353.363	55.98
353.575	-19.8
353.787	121.51
353.999	-5.46
354.21	66.22
354.422	41.64
354.633	47.79
354.845	80.55
355.057	-25.94
355.268	4.78
355.48	41.64
355.692	62.12
355.903	10.92
356.115	15.02
356.326	43.69
356.538	62.12
356.749	17.07
356.961	64.17
357.172	23.21
357.384	-13.65
357.595	29.35
357.807	45.74
358.018	49.83
358.23	86.7
358.441	55.98
358.653	86.7
358.864	70.31
359.075	2.73
359.287	64.17
359.498	92.84
359.709	35.5
359.921	21.16
360.132	45.74
360.344	-36.18
360.555	39.59
360.766	58.03
360.977	86.7
361.189	53.93
361.4	76.46
361.611	45.74
361.823	66.22
362.034	64.17
362.245	10.92
362.456	82.6
362.667	19.11
362.879	10.92
363.09	23.21
363.301	-54.61
363.512	35.5
363.723	31.4
363.935	88.75
364.146	115.37
364.357	17.07
364.568	27.31
364.779	66.22
364.99	78.51
365.201	45.74
365.412	72.36
365.623	43.69
365.834	55.98
366.045	37.55
366.256	84.65
366.467	25.26
366.678	96.94
366.889	47.79
367.1	12.97
367.311	62.12
367.522	8.87
367.733	55.98
367.944	82.6
368.155	33.45
368.366	58.03
368.577	37.55
368.788	49.83
368.999	8.87
369.209	68.27
369.42	115.37
369.631	137.9
369.842	98.99
370.053	-7.51
370.264	47.79
370.474	27.31
370.685	51.88
370.896	37.55
371.107	10.92
371.317	-5.46
371.528	49.83
371.739	125.61
371.95	12.97
372.16	47.79
372.371	53.93
372.582	-19.8
372.792	27.31
373.003	60.07
373.214	45.74
373.424	111.27
373.635	-19.8
373.846	78.51
374.056	82.6
374.267	82.6
374.477	29.35
374.688	115.37
374.898	86.7
375.109	86.7
375.319	64.17
375.53	129.7
375.74	76.46
375.951	49.83
376.161	51.88
376.372	45.74
376.582	39.59
376.793	129.7
377.003	-5.46
377.214	15.02
377.424	55.98
377.635	27.31
377.845	80.55
378.055	84.65
378.266	70.31
378.476	131.75
378.686	43.69
378.897	37.55
379.107	41.64
379.317	113.32
379.528	33.45
379.738	-23.89
379.948	39.59
380.158	78.51
380.369	33.45
380.579	115.37
380.789	47.79
380.999	37.55
381.21	74.41
381.42	55.98
381.63	88.75
381.84	58.03
382.05	78.51
382.261	68.27
382.471	76.46
382.681	10.92
382.891	78.51
383.101	129.7
383.311	-9.56
383.521	55.98
383.731	43.69
383.941	8.87
384.151	105.13
384.361	60.07
384.571	10.92
384.781	82.6
384.991	60.07
385.201	111.27
385.411	-38.23
385.621	121.51
385.831	41.64
386.041	111.27
386.251	41.64
386.461	0.68
386.671	47.79
386.881	70.31
387.091	0.68
387.301	92.84
387.511	10.92
387.72	47.79
387.93	43.69
388.14	29.35
388.35	27.31
388.56	25.26
388.769	53.93
388.979	98.99
389.189	80.55
389.399	92.84
389.609	17.07
389.818	111.27
390.028	2.73
390.238	127.66
390.447	70.31
390.657	144.04
390.867	39.59
391.076	62.12
391.286	94.89
391.496	53.93
391.705	47.79
391.915	58.03
392.125	82.6
392.334	62.12
392.544	64.17
392.753	168.62
392.963	53.93
393.172	119.46
393.382	94.89
393.591	101.03
393.801	123.56
394.01	129.7
394.22	103.08
394.429	101.03
394.639	113.32
394.848	105.13
395.058	68.27
395.267	27.31
395.477	94.89
395.686	115.37
395.895	82.6
396.105	107.18
396.314	135.85
396.524	109.23
396.733	58.03
396.942	96.94
397.152	98.99
397.361	146.09
397.57	60.07
397.78	94.89
397.989	51.88
398.198	166.57
398.407	156.33
398.617	156.33
398.826	76.46
399.035	141.99
399.244	121.51
399.453	74.41
399.663	101.03
399.872	74.41
400.081	64.17
400.29	80.55
400.499	103.08
400.708	162.47
400.917	62.12
401.127	88.75
401.336	107.18
401.545	131.75
401.754	141.99
401.963	166.57
402.172	64.17
402.381	125.61
402.59	109.23
402.799	92.84
403.008	115.37
403.217	148.14
403.426	109.23
403.635	41.64
403.844	115.37
404.053	178.86
404.262	111.27
404.471	193.19
404.68	146.09
404.888	144.04
405.097	129.7
405.306	215.72
405.515	213.67
405.724	148.14
405.933	94.89
406.142	172.71
406.35	197.29
406.559	150.18
406.768	125.61
406.977	168.62
407.185	207.53
407.394	297.64
407.603	133.8
407.812	84.65
408.02	160.42
408.229	250.53
408.438	281.25
408.646	242.34
408.855	287.4
409.064	252.58
409.272	252.58
409.481	262.82
409.69	283.3
409.898	361.13
410.107	289.45
410.315	387.75
410.524	375.46
410.733	297.64
410.941	352.93
411.15	307.88
411.358	428.71
411.567	412.32
411.775	459.43
411.984	434.85
412.192	383.65
412.401	365.22
412.609	455.33
412.818	377.51
413.026	531.11
413.234	578.21
413.443	506.53
413.651	488.1
413.86	473.76
414.068	512.67
414.276	578.21
414.485	592.55
414.693	625.31
414.901	735.9
415.11	672.42
415.318	748.19
415.526	668.32
415.734	838.3
415.943	780.96
416.151	774.81
416.359	797.34
416.567	846.49
416.776	938.65
416.984	930.46
417.192	981.66
417.4	1028.76
417.608	1045.15
417.817	1110.68
418.025	1125.02
418.233	1192.6
418.441	1147.55
418.649	1178.26
418.857	1215.13
419.065	1315.48
419.273	1307.29
419.481	1258.14
419.689	1378.97
419.897	1415.83
420.105	1524.37
420.313	1520.28
420.521	1600.15
420.729	1626.77
420.937	1655.44
421.145	1733.26
421.353	1825.42
421.561	1899.15
421.769	1890.96
421.977	1995.4
422.185	2019.98
422.393	2251.4
422.601	2339.46
422.809	2210.44
423.017	2345.61
423.224	2437.77
423.432	2488.96
423.64	2493.06
423.848	2630.27
424.056	2574.98
424.263	2740.86
424.471	2794.11
424.679	2931.33
424.887	3052.16
425.094	3160.7
425.302	3123.84
425.51	3357.3
425.718	3385.97
425.925	3398.26
426.133	3603.06
426.341	3740.27
426.548	3861.1
426.756	3908.21
426.964	3861.1
427.171	4227.69
427.379	4293.23
427.586	4342.38
427.794	4561.51
428.001	4665.96
428.209	4883.04
428.417	4817.51
428.624	5055.07
428.832	5204.57
429.039	5208.67
429.247	5032.54
429.454	5585.49
429.662	6036.05
429.869	5614.16
430.076	6097.49
430.284	5700.18
430.491	6056.53
430.699	6359.63
430.906	6349.39
431.114	6437.45
431.321	6773.32
431.528	6949.44
431.736	7324.22
431.943	7705.14
432.15	7445.05
432.358	7807.54
432.565	7850.55
432.772	7879.22
432.979	8372.78
433.187	8473.13
433.394	8546.86
433.601	9177.63
433.808	9173.53
434.016	9171.49
434.223	9368.09
434.43	9843.22
434.637	9751.06
434.844	10424.84
435.052	10686.98
435.259	10807.81
435.466	10498.57
435.673	10723.85
435.88	11217.41
436.087	11821.56
436.294	11817.46
436.501	11643.39
436.708	11825.65
436.915	12356.08
437.122	12782.06
437.329	12816.87
437.537	13240.8
437.743	13431.26
437.95	13199.84
438.157	13957.59
438.364	14500.3
438.571	14303.7
438.778	14381.52
438.985	15868.34
439.192	15262.15
439.399	15815.1
439.606	15178.18
439.813	16126.39
440.02	17066.41
440.227	17047.97
440.433	16834.99
440.64	17168.8
440.847	17047.97
441.054	17611.17
441.261	18651.53
441.467	18526.61
441.674	18837.9
441.881	19978.62
442.088	19442.05
442.294	19528.06
442.501	19917.18
442.708	20314.48
442.914	21256.55
443.121	22104.41
443.328	21580.13
443.534	23032.14
443.741	22227.29
443.948	22049.11
444.154	23374.15
444.361	23349.57
444.568	23828.8
444.774	23542.08
444.981	23834.94
445.187	24262.97
445.394	25563.43
445.6	25538.85
445.807	27793.67
446.013	26648.85
446.22	27220.24
446.426	28528.89
446.633	28367.1
446.839	29788.39
447.046	28051.71
447.252	29800.68
447.459	29843.68
447.665	29475.05
447.871	30906.58
448.078	32282.81
448.284	30613.72
448.491	31785.16
448.697	33181.87
448.903	33325.23
449.11	33618.09
449.316	32987.32
449.522	33929.38
449.728	34322.59
449.935	34758.81
450.141	34771.1
450.347	35715.21
450.553	34545.82
450.76	34941.08
450.966	36104.32
451.172	35688.59
451.378	36561.02
451.584	35952.77
451.791	36731
451.997	36421.76
452.203	37288.05
452.409	37656.68
452.615	37345.39
452.821	35698.83
453.027	35610.76
453.233	37015.67
453.44	35801.22
453.646	36178.05
453.852	36186.24
454.058	37038.2
454.264	35885.19
454.47	36548.73
454.676	35934.34
454.882	36956.28
455.088	33654.95
455.294	34422.94
455.5	35174.55
455.705	35195.03
455.911	33450.16
456.117	32692.41
456.323	32600.25
456.529	31215.82
456.735	32463.04
456.941	31510.73
457.147	31131.86
457.352	30083.3
457.558	30132.45
457.764	29620.45
457.97	29143.28
458.176	28526.84
458.381	28602.61
458.587	26960.14
458.793	27629.83
458.999	25700.64
459.204	27570.44
459.41	26886.42
459.616	25096.49
459.821	25094.44
460.027	25129.26
460.233	24506.68
460.438	23210.31
460.644	23630.15
460.85	22464.85
461.055	21924.19
461.261	22159.7
461.466	20597.1
461.672	20040.06
461.878	21188.97
462.083	20095.35
462.289	19302.79
462.494	19153.29
462.7	18407.83
462.905	18106.77
463.111	18573.71
463.316	18428.31
463.522	17955.22
463.727	18000.28
463.932	18006.42
464.138	17990.04
464.343	18188.69
464.549	17648.03
464.754	18082.2
464.959	17842.59
465.165	18008.47
465.37	17097.13
465.575	16765.35
465.781	17420.7
465.986	17506.72
466.191	16636.33
466.397	16632.24
466.602	15731.13
466.807	16409.01
467.012	16359.86
467.218	16191.92
467.423	15966.65
467.628	16138.68
467.833	16785.83
468.038	16191.92
468.244	15856.06
468.449	16343.47
468.654	15722.94
468.859	15722.94
469.064	15661.5
469.269	15018.44
469.474	15139.27
469.679	15276.48
469.885	14891.46
470.09	15106.5
470.295	15194.56
470.5	14633.42
470.705	14784.97
470.91	14600.65
471.115	14240.21
471.32	14518.73
471.525	14471.63
471.73	14090.71
471.935	14000.6
472.139	13439.45
472.344	13691.35
472.549	13609.43
472.754	13634.01
472.959	13328.86
473.164	12906.98
473.369	12773.86
473.574	13046.24
473.778	13101.54
473.983	13056.48
474.188	12995.04
474.393	12325.36
474.598	12407.28
474.802	12222.96
475.007	12257.78
475.212	12265.97
475.417	11698.68
475.621	11686.39
475.826	11829.75
476.031	11600.38
476.235	11500.03
476.44	11420.16
476.645	11217.41
476.849	11567.61
477.054	11182.59
477.259	10983.94
477.463	10932.74
477.668	10883.59
477.872	10805.77
478.077	10621.45
478.282	10385.93
478.486	10381.84
478.691	10330.64
478.895	10328.59
479.1	10177.04
479.304	10267.15
479.509	9929.24
479.713	10238.48
479.918	9923.09
480.122	9900.56
480.326	9906.71
480.531	9804.31
480.735	9769.49
480.94	9589.27
481.144	9878.04
481.348	9564.7
481.553	9533.98
481.757	9226.78
481.961	9564.7
482.166	9574.94
482.37	9554.46
482.574	9390.62
482.778	9474.59
482.983	9493.02
483.187	9464.35
483.391	9701.91
483.595	9503.26
483.8	9294.36
484.004	9355.8
484.208	9312.8
484.412	9327.13
484.616	9564.7
484.821	9581.08
485.025	9198.11
485.229	9427.48
485.433	9325.08
485.637	9341.47
485.841	9226.78
486.045	9380.38
486.249	9318.94
486.453	9359.9
486.657	9482.78
486.861	9384.48
487.065	9286.17
487.269	9202.21
487.473	9228.83
487.677	9755.16
487.881	9466.39
488.085	9314.84
488.289	9376.28
488.493	9482.78
488.697	9636.38
488.901	9603.61
489.105	9495.07
489.309	9638.42
489.512	9447.96
489.716	9638.42
489.92	9587.22
490.124	9564.7
490.328	9763.35
490.531	9538.07
490.735	9624.09
490.939	9767.45
491.143	9818.64
491.346	9699.86
491.55	9894.42
491.754	9755.16
491.958	9900.56
492.161	9744.92
492.365	9808.4
492.569	10015.25
492.772	9888.28
492.976	10037.78
493.18	10183.18
493.383	10263.05
493.587	10289.68
493.79	10588.68
493.994	10275.34
494.197	10189.33
494.401	10338.83
494.605	10424.84
494.808	10758.66
495.012	10689.03
495.215	10594.82
495.419	10947.08
495.622	10707.46
495.825	11059.71
496.029	11334.14
496.232	11217.41
496.436	11123.2
496.639	11469.31
496.843	11373.05
497.046	11461.12
497.249	11774.45
497.453	11717.11
497.656	11796.98
497.859	12016.12
498.063	12077.55
498.266	12306.93
498.469	12204.53
498.673	12458.48
498.876	12548.59
499.079	12786.15
499.282	12751.34
499.485	12988.9
499.689	13085.15
499.892	13220.32
500.095	13117.92
500.298	13580.76
500.501	13478.36
500.705	13771.22
500.908	14070.23
501.111	14268.88
501.314	14137.81
501.517	14379.47
501.72	14719.43
501.923	14477.77
502.126	15083.97
502.329	15063.49
502.532	15153.6
502.735	15327.68
502.938	15653.31
503.141	15712.7
503.344	16034.23
503.547	16023.99
503.75	16157.11
503.953	16218.55
504.156	16558.51
504.359	16847.27
504.562	16646.57
504.765	17133.99
504.968	17459.62
505.17	17551.77
505.373	17508.77
505.576	17875.35
505.779	18067.86
505.982	18121.11
506.185	18522.51
506.387	18530.7
506.59	18913.67
506.793	19134.85
506.996	18946.44
507.198	19353.99
507.401	19667.33
507.604	19876.22
507.807	20267.38
508.009	20281.72
508.212	20365.68
508.415	20787.57
508.617	20656.5
508.82	21100.9
509.022	20943.21
509.225	21664.1
509.428	21631.33
509.63	21895.52
509.833	22133.08
510.035	22534.48
510.238	22292.82
510.44	22591.83
510.643	22982.99
510.845	23494.98
511.048	22939.98
511.25	23732.54
511.453	23732.54
511.655	24641.84
511.858	24459.57
512.06	24299.83
512.262	24748.34
512.465	24914.22
512.667	25272.62
512.87	25710.88
513.072	25096.49
513.274	25917.73
513.477	26222.87
513.679	26489.11
513.881	26741.01
514.084	26962.19
514.286	26958.1
514.488	27281.67
514.69	27904.26
514.893	27875.59
515.095	27934.98
515.297	28696.82
515.499	28186.88
515.701	28961.01
515.904	29331.69
516.106	29464.81
516.308	29921.51
516.51	29984.99
516.712	29933.79
516.914	30179.55
517.116	30877.91
517.318	30705.88
517.52	31297.74
517.722	31066.32
517.925	31465.67
518.127	32020.67
518.329	32383.16
518.531	32319.68
518.733	32862.39
518.935	33118.39
519.136	32817.33
519.338	33372.33
519.54	33757.35
519.742	33898.66
519.944	34097.31
520.146	34678.94
520.348	35004.56
520.55	35338.38
520.752	35115.15
520.954	36233.35
521.155	35614.86
521.357	36147.33
521.559	36472.96
521.761	36665.47
521.963	36612.22
522.164	36745.34
522.366	36974.71
522.568	37331.06
522.77	37851.24
522.971	38406.24
523.173	37793.9
523.375	38336.61
523.576	38883.42
523.778	38740.06
523.98	39487.57
524.181	39393.36
524.383	39645.26
524.584	39870.54
524.786	39956.55
524.988	39733.32
525.189	40020.04
525.391	40470.59
525.592	40867.9
525.794	40953.91
525.995	40912.95
526.197	41164.85
526.398	41275.44
526.6	41420.85
526.801	41570.35
527.003	41394.23
527.204	41670.7
527.406	42221.61
527.607	42182.69
527.808	42432.55
528.01	41869.36
528.211	42416.16
528.412	43112.47
528.614	43044.89
528.815	43124.76
529.016	43364.37
529.218	42858.52
529.419	43311.13
529.62	42991.64
529.822	43337.75
530.023	43370.52
530.224	43720.72
530.425	43575.31
530.626	43610.13
530.828	43458.58
531.029	44627.97
531.23	43589.65
531.431	43825.17
531.632	44263.43
531.833	44388.36
532.035	44218.38
532.236	43849.74
532.437	44654.59
532.638	43892.75
532.839	44322.82
533.04	44621.83
533.241	44408.84
533.442	44791.81
533.643	44763.14
533.844	44189.7
534.045	44781.57
534.246	44490.76
534.447	45010.94
534.648	44607.49
534.849	44746.75
535.05	44326.92
535.251	44920.83
535.451	44431.36
535.652	44957.69
535.853	44593.15
536.054	45111.29
536.255	45168.63
536.456	44277.77
536.657	45490.16
536.857	44949.5
537.058	44619.78
537.259	45221.88
537.46	45092.86
537.66	44929.02
537.861	45144.06
538.062	44871.68
538.263	45322.23
538.463	44769.28
538.664	44748.8
538.865	44933.12
539.065	45361.14
539.266	44740.61
539.466	45223.93
539.667	44263.43
539.868	45287.42
540.068	44957.69
540.269	44642.31
540.469	44890.11
540.67	44765.18
540.87	44963.84
541.071	44507.14
541.271	44756.99
541.472	44742.66
541.672	44615.68
541.873	44435.46
542.073	44578.82
542.274	45193.21
542.474	44625.92
542.675	44371.97
542.875	45461.49
543.075	44670.98
543.276	44386.31
543.476	44765.18
543.676	44632.07
543.877	44877.82
544.077	44591.11
544.277	44433.41
544.478	44355.59
544.678	44617.73
544.878	44433.41
545.078	44767.23
545.279	44591.11
545.479	44668.93
545.679	44316.68
545.879	44464.13
546.079	44898.3
546.28	44558.34
546.48	44214.28
546.68	44294.15
546.88	45027.32
547.08	44505.09
547.28	44693.5
547.48	44193.8
547.68	44527.62
547.88	44357.64
548.081	44605.44
548.281	44503.04
548.481	44361.73
548.681	44693.5
548.881	44705.79
549.081	44189.7
549.28	44435.46
549.48	44910.59
549.68	44277.77
549.88	44845.05
550.08	44056.59
550.28	44761.09
550.48	44455.94
550.68	44795.9
550.88	44314.63
551.08	44331.01
551.279	44345.35
551.479	44009.48
551.679	44115.98
551.879	44261.38
552.079	44156.94
552.278	44042.25
552.478	44134.41
552.678	44199.94
552.878	44034.06
553.077	44369.93
553.277	43888.65
553.477	44625.92
553.676	44503.04
553.876	43964.43
554.076	44021.77
554.275	43993.1
554.475	43804.69
554.674	44197.9
554.874	44072.97
555.074	43558.93
555.273	43911.18
555.473	44156.94
555.672	43886.6
555.872	43579.41
556.071	43763.73
556.271	44113.93
556.47	43501.59
556.67	43468.82
556.869	43786.25
557.068	43399.19
557.268	43272.21
557.467	43468.82
557.667	43583.51
557.866	43436.05
558.065	43028.51
558.265	43108.38
558.464	43022.36
558.663	43673.62
558.863	42567.71
559.062	43712.53
559.261	42909.72
559.461	43526.16
559.66	42438.69
559.859	42879
560.058	42618.91
560.258	42977.31
560.457	42385.44
560.656	42737.69
560.855	42084.39
561.054	42526.75
561.253	42342.44
561.453	42270.76
561.652	42584.1
561.851	42489.89
562.05	42340.39
562.249	41769.01
562.448	42119.21
562.647	42168.36
562.846	42127.4
563.045	42072.1
563.244	41646.13
563.443	41957.42
563.642	41371.7
563.841	41273.4
564.04	41689.13
564.239	41871.4
564.438	41314.36
564.637	41586.74
564.836	41596.98
565.035	40908.86
565.234	41234.49
565.432	41115.7
565.631	40802.36
565.83	41254.97
566.029	40548.42
566.228	40753.21
566.427	40517.7
566.625	40423.49
566.824	40378.43
567.023	40302.66
567.222	39721.04
567.42	40384.58
567.619	40101.96
567.818	39915.59
568.016	40065.1
568.215	40298.56
568.414	40247.36
568.612	40179.78
568.811	39866.44
569.01	39968.84
569.208	39632.97
569.407	39833.67
569.605	39176.28
569.804	39745.61
570.002	39194.71
570.201	39145.56
570.4	38850.65
570.598	38781.02
570.797	38725.72
570.995	39039.06
571.193	38424.67
571.392	38774.88
571.59	38414.43
571.789	38774.88
571.987	38314.08
572.186	37980.26
572.384	37720.17
572.582	38414.43
572.781	38328.42
572.979	37525.61
573.177	37746.79
573.376	37892.2
573.574	37693.55
573.772	37714.03
573.971	37486.7
574.169	37507.18
574.367	37156.98
574.565	37234.8
574.763	37298.29
574.962	37331.06
575.16	36561.02
575.358	36853.88
575.556	36300.93
575.754	37247.09
575.952	36384.9
576.151	36741.24
576.349	36448.38
576.547	36165.76
576.745	36442.24
576.943	36802.68
577.141	36153.47
577.339	35989.64
577.537	36014.21
577.735	35735.69
577.933	35647.63
578.131	35790.98
578.329	35348.62
578.527	35371.15
578.725	35035.28
578.923	35549.32
579.121	35571.85
579.319	35324.05
579.516	35225.75
579.714	34994.32
579.912	34740.38
580.11	34769.05
580.308	34812.06
580.506	34670.75
580.704	34154.66
580.901	34474.14
581.099	34603.16
581.297	34236.58
581.495	34175.14
581.692	34232.48
581.89	33906.85
582.088	34121.89
582.285	34156.71
582.483	33853.61
582.681	34187.42
582.878	33714.34
583.076	33167.54
583.274	33872.04
583.471	32954.55
583.669	33556.65
583.866	33339.57
584.064	33415.34
584.262	32882.87
584.459	33085.62
584.657	32813.24
584.854	33163.44
585.052	32415.93
585.249	32649.4
585.447	32829.62
585.644	32149.7
585.841	32372.92
586.039	32704.7
586.236	32059.59
586.434	32116.93
586.631	31963.33
586.828	32260.29
587.026	32233.66
587.223	31592.65
587.42	31617.22
587.618	31541.45
587.815	31217.87
588.012	31555.79
588.21	31271.12
588.407	31582.41
588.604	30974.16
588.801	30834.9
588.999	30875.86
589.196	31152.34
589.393	31144.14
589.59	30630.1
589.787	30443.74
589.984	30423.26
590.182	29962.47
590.379	30378.2
590.576	30152.93
590.773	30046.43
590.97	29747.43
591.167	29980.9
591.364	29704.42
591.561	29815.01
591.758	29470.95
591.955	29731.04
592.152	29815.01
592.349	29372.65
592.546	29595.88
592.743	29520.1
592.94	29143.28
593.137	29067.5
593.334	29243.63
593.531	28768.5
593.727	29036.78
593.924	29206.76
594.121	28805.36
594.318	28883.19
594.515	28537.08
594.712	28815.6
594.908	28356.86
595.105	28872.95
595.302	28317.95
595.499	27994.37
595.696	28053.76
595.892	28016.9
596.089	28143.87
596.286	27957.5
596.482	28072.19
596.679	27980.03
596.876	27742.47
597.072	27322.63
597.269	27281.67
597.466	27228.43
597.662	27390.22
597.859	27451.66
598.055	27187.47
598.252	26966.29
598.448	26859.79
598.645	26913.04
598.841	26800.4
599.038	26700.05
599.234	26949.9
599.431	26534.17
599.627	26775.83
599.824	26882.32
600.02	26167.58
600.217	26368.28
600.413	26005.79
600.609	26290.46
600.806	26112.28
601.002	26198.3
601.198	25858.34
601.395	25798.94
601.591	25555.24
601.787	25487.65
601.984	25291.05
602.18	25800.99
602.376	25538.85
602.572	25239.85
602.769	25268.52
602.965	25260.33
603.161	25215.27
603.357	25069.87
603.553	24934.7
603.75	25225.51
603.946	24734
604.142	24932.65
604.338	24607.03
604.534	25198.89
604.73	24391.99
604.926	24590.64
605.122	24586.55
605.318	24613.17
605.514	24092.99
605.71	24176.95
605.906	24222.01
606.102	24080.7
606.298	24248.63
606.494	24029.5
606.69	24127.8
606.886	24166.71
607.082	23626.05
607.278	23796.03
607.474	23337.29
607.67	23705.92
607.866	23320.9
608.062	23769.41
608.257	23187.78
608.453	23386.44
608.649	23284.04
608.845	22901.07
609.041	23277.9
609.236	23308.61
609.432	22976.84
609.628	23218.5
609.824	23159.11
610.019	23064.91
610.215	23034.19
610.411	23116.11
610.606	22970.7
610.802	22589.78
610.998	22495.57
611.193	22714.7
611.389	22552.91
611.584	22589.78
611.78	22344.02
611.976	22380.89
612.171	22356.31
612.367	22364.5
612.562	21987.68
612.758	22192.47
612.953	21793.12
613.149	22344.02
613.344	22182.23
613.539	22182.23
613.735	22319.45
613.93	21973.34
614.126	22108.51
614.321	22296.92
614.517	22026.59
614.712	21913.95
614.907	21872.99
615.103	21872.99
615.298	21836.13
615.493	21889.37
615.688	21457.25
615.884	21909.85
616.079	21604.7
616.274	21485.92
616.47	21524.83
616.665	21471.59
616.86	21246.31
617.055	21557.6
617.25	21246.31
617.445	21522.79
617.641	20787.57
617.836	21305.7
618.031	21264.74
618.226	21201.26
618.421	20781.42
618.616	21313.89
618.811	20760.94
619.006	20965.74
619.201	20566.38
619.396	20791.66
619.591	20294
619.786	20459.89
619.981	20093.3
620.176	20351.35
620.371	20119.93
620.566	20337.01
620.761	20117.88
620.956	20142.46
621.151	19960.19
621.346	20021.63
621.541	19599.74
621.735	20078.97
621.93	19538.3
622.125	19564.93
622.32	19169.67
622.515	19227.01
622.709	19210.63
622.904	19153.29
623.099	18925.96
623.294	18801.04
623.488	18475.41
623.683	18768.27
623.878	18565.52
624.072	18469.26
624.267	18594.19
624.462	18434.45
624.656	18018.71
624.851	17928.6
625.046	18147.73
625.24	17971.61
625.435	17738.14
625.629	17887.64
625.824	17351.07
626.018	17656.22
626.213	17023.4
626.407	17465.76
626.602	16900.52
626.796	17078.69
626.991	17201.57
627.185	16652.72
627.38	17039.78
627.574	16744.88
627.768	16636.33
627.963	16550.32
628.157	16474.54
628.352	16503.21
628.546	16316.85
628.74	16521.65
628.935	16273.84
629.129	16007.61
629.323	15804.86
629.517	15854.01
629.712	15569.34
629.906	15966.65
630.1	15450.56
630.294	15772.09
630.489	15624.64
630.683	15335.87
630.877	15362.5
631.071	15227.33
631.265	15411.65
631.459	15169.99
631.653	14868.94
631.848	14881.22
632.042	15124.93
632.236	14877.13
632.43	14553.55
632.624	14823.88
632.818	14653.9
633.012	14438.86
633.206	14520.78
633.4	14299.6
633.594	14029.27
633.788	14156.24
633.982	14045.65
634.176	13820.38
634.369	13939.16
634.563	14027.22
634.757	14047.7
634.951	13881.81
635.145	13851.1
635.339	13752.79
635.533	13437.41
635.726	13580.76
635.92	13140.45
636.114	13150.69
636.308	13060.58
636.501	13050.34
636.695	13093.35
636.889	13007.33
637.083	12853.73
637.276	12722.66
637.47	12644.84
637.664	13005.28
637.857	12847.59
638.051	12640.75
638.244	12440.04
638.438	12538.35
638.632	12319.21
638.825	12438
639.019	12302.83
639.212	12401.13
639.406	12050.93
639.599	12095.99
639.793	12106.23
639.986	11997.68
640.18	11952.63
640.373	11930.1
640.567	11772.41
640.76	11749.88
640.954	11375.1
641.147	11209.22
641.34	11434.49
641.534	11487.74
641.727	11495.93
641.92	11397.63
642.114	11133.44
642.307	11293.18
642.5	11112.96
642.694	10951.17
642.887	10996.23
643.08	10981.89
643.273	10893.83
643.467	10914.31
643.66	10676.74
643.853	10738.18
644.046	10611.21
644.239	10820.1
644.432	10801.67
644.626	10560.01
644.819	10467.85
645.012	10484.23
645.205	10357.26
645.398	10297.87
645.591	10201.61
645.784	10177.04
645.977	9957.91
646.17	9863.7
646.363	9853.46
646.556	9896.47
646.749	10002.96
646.942	9951.76
647.135	9699.86
647.328	9650.71
647.521	9703.96
647.714	9613.85
647.907	9509.4
648.099	9433.63
648.292	9411.1
648.485	9286.17
648.678	9191.97
648.871	9136.67
649.064	9159.2
649.256	9200.16
649.449	9288.22
649.642	9079.33
649.835	9011.75
650.027	9091.62
650.22	8948.26
650.413	8833.57
650.605	8884.77
650.798	8657.45
650.991	8620.58
651.183	8671.78
651.376	8471.08
651.568	8612.39
651.761	8419.88
651.954	8559.14
652.146	8598.06
652.339	8329.77
652.531	8481.32
652.724	8389.16
652.916	8084.02
653.109	8346.16
653.301	8307.24
653.494	8452.65
653.686	8084.02
653.879	8245.8
654.071	7991.86
654.263	7762.48
654.456	7832.12
654.648	7709.24
654.84	7891.51
655.033	7961.14
655.225	7688.76
655.417	7799.35
655.61	7965.23
655.802	7846.45
655.994	7625.27
656.186	7569.98
656.379	7381.56
656.571	7467.58
656.763	7496.25
656.955	7397.95
657.148	7447.1
657.34	7399.99
657.532	7307.84
657.724	7256.64
657.916	7223.87
658.108	7211.58
658.3	7232.06
658.492	7211.58
658.684	7103.04
658.876	6926.91
659.068	6992.45
659.26	6838.85
659.452	6996.54
659.644	6939.2
659.836	6765.12
660.028	6937.15
660.22	6748.74
660.412	6904.39
660.604	6615.62
660.796	6744.64
660.988	6648.39
661.18	6685.25
661.372	6519.37
661.563	6490.7
661.755	6527.56
661.947	6517.32
662.139	6283.85
662.331	6507.08
662.522	6308.43
662.714	6292.04
662.906	6253.13
663.097	6212.17
663.289	6222.41
663.481	6167.12
663.673	6130.25
663.864	6111.82
664.056	6148.68
664.247	5925.46
664.439	6021.71
664.631	5997.14
664.822	5974.61
665.014	5960.27
665.205	5904.98
665.397	6042.19
665.588	5872.21
665.78	5896.78
665.971	5782.1
666.163	5812.82
666.354	5847.63
666.546	5788.24
666.737	5706.32
666.929	5806.67
667.12	5546.58
667.311	5603.93
667.503	5601.88
667.694	5614.16
667.885	5589.59
668.077	5616.21
668.268	5472.86
668.459	5452.38
668.651	5421.66
668.842	5577.3
669.033	5407.32
669.224	5374.55
669.416	5388.89
669.607	5237.34
669.798	5370.46
669.989	5419.61
670.18	5333.59
670.371	5284.44
670.563	5157.47
670.754	5122.65
670.945	4981.34
671.136	5061.21
671.327	5206.62
671.518	4985.44
671.709	5034.59
671.9	5122.65
672.091	5050.97
672.282	5028.45
672.473	4921.95
672.664	4983.39
672.855	4924
673.046	4926.05
673.237	4936.29
673.428	5091.93
673.619	4856.42
673.809	4973.15
674	4844.13
674.191	4880.99
674.382	4883.04
674.573	4807.27
674.764	4629.09
674.954	4807.27
675.145	4649.57
675.336	4784.74
675.527	4760.16
675.717	4743.78
675.908	4641.38
676.099	4610.66
676.289	4690.53
676.48	4629.09
676.671	4844.13
676.861	4794.98
677.052	4622.95
677.243	4430.44
677.433	4385.38
677.624	4581.99
677.814	4645.48
678.005	4625
678.195	4446.82
678.386	4549.22
678.576	4598.37
678.767	4366.95
678.957	4629.09
679.148	4397.67
679.338	4534.89
679.529	4510.31
679.719	4444.77
679.909	4485.73
680.1	4397.67
680.29	4530.79
680.481	4422.25
680.671	4432.49
680.861	4348.52
681.052	4491.88
681.242	4325.99
681.432	4502.12
681.622	4401.77
681.813	4305.51
682.003	4321.9
682.193	4346.47
682.383	4352.62
682.573	4319.85
682.764	4444.77
682.954	4428.39
683.144	4323.94
683.334	4227.69
683.524	4287.08
683.714	4242.03
683.904	4184.68
684.094	4305.51
684.284	4315.75
684.474	4254.31
684.664	4117.1
684.854	4211.31
685.044	4113
685.234	4215.4
685.424	4239.98
685.614	4156.01
685.804	4311.66
685.994	4244.07
686.184	4225.64
686.374	4196.97
686.564	4133.48
686.753	4125.29
686.943	4123.24
687.133	4008.56
687.323	4051.56
687.513	3936.88
687.702	4125.29
687.892	3914.35
688.082	4041.32
688.272	3908.21
688.461	4090.48
688.651	4008.56
688.841	3885.68
689.03	3848.82
689.22	3783.28
689.41	3951.21
689.599	3805.81
689.789	3830.38
689.979	3738.23
690.168	3822.19
690.358	3744.37
690.547	3754.61
690.737	3844.72
690.926	3736.18
691.116	3682.93
691.305	3783.28
691.495	3779.18
691.684	3633.78
691.874	3766.9
692.063	3748.47
692.252	3545.72
692.442	3648.11
692.631	3574.39
692.82	3588.72
693.01	3717.75
693.199	3558
693.388	3480.18
693.578	3590.77
693.767	3469.94
693.956	3523.19
694.146	3478.13
694.335	3605.11
694.524	3433.08
694.713	3367.54
694.902	3474.04
695.092	3388.02
695.281	3330.68
695.47	3529.33
695.659	3469.94
695.848	3437.17
696.037	3347.06
696.226	3353.21
696.415	3515
696.604	3398.26
696.793	3506.81
696.982	3396.21
697.171	3390.07
697.36	3443.32
697.549	3367.54
697.738	3340.92
697.927	3385.97
698.116	3420.79
698.305	3369.59
698.494	3269.24
698.683	3347.06
698.872	3492.47
699.061	3234.43
699.25	3332.73
699.438	3390.07
699.627	3207.8
699.816	3326.58
700.005	3275.38
700.193	3236.47
700.382	3293.82
700.571	3236.47
700.76	3181.18
700.948	3236.47
701.137	3267.19
701.326	3336.82
701.514	3166.84
701.703	3199.61
701.892	3158.65
702.08	3297.91
702.269	3240.57
702.457	3193.47
702.646	3195.51
702.834	3242.62
703.023	3203.71
703.212	3123.84
703.4	3177.08
703.589	3365.5
703.777	3271.29
703.965	3109.5
704.154	3211.9
704.342	3265.14
704.531	3185.27
704.719	3168.89
704.907	3265.14
705.096	3177.08
705.284	3240.57
705.472	3207.8
705.661	3236.47
705.849	3218.04
706.037	3119.74
706.226	3150.46
706.414	3117.69
706.602	3072.64
706.79	3086.97
706.979	3095.16
707.167	3195.51
707.355	3150.46
707.543	3250.81
707.731	3089.02
707.919	3127.93
708.107	2968.19
708.296	3156.6
708.484	3146.36
708.672	3287.67
708.86	3215.99
709.048	3033.72
709.236	3213.95
709.424	3076.73
709.612	3136.12
709.8	3101.31
709.988	3062.4
710.176	3074.68
710.364	3027.58
710.551	3093.12
710.739	3060.35
710.927	3048.06
711.115	3078.78
711.303	3074.68
711.491	3119.74
711.679	3089.02
711.866	3070.59
712.054	2964.09
712.242	3132.03
712.43	3158.65
712.617	3201.66
712.805	3072.64
712.993	3150.46
713.181	3048.06
713.368	3093.12
713.556	3152.51
713.744	2974.33
713.931	3027.58
714.119	2896.51
714.306	3136.12
714.494	3144.31
714.682	3166.84
714.869	3074.68
715.057	3213.95
715.244	3029.63
715.432	3058.3
715.619	3043.96
715.807	3035.77
715.994	3037.82
716.182	2980.48
716.369	3035.77
716.556	3029.63
716.744	3064.44
716.931	3048.06
717.119	3138.17
717.306	3086.97
717.493	3105.4
717.681	3048.06
717.868	2898.56
718.055	3197.56
718.242	3119.74
718.43	3080.83
718.617	3134.07
718.804	3097.21
718.991	3142.27
719.179	3121.79
719.366	2935.42
719.553	2976.38
719.74	3082.88
719.927	3132.03
720.114	2955.9
720.301	2951.81
720.488	3035.77
720.676	2984.57
720.863	3025.53
721.05	3201.66
721.237	2935.42
721.424	2984.57
721.611	3072.64
721.798	3093.12
721.985	3078.78
722.172	3046.01
722.358	3050.11
722.545	3037.82
722.732	2941.57
722.919	3082.88
723.106	2992.76
723.293	3068.54
723.48	3031.68
723.667	3093.12
723.853	3005.05
724.04	3011.2
724.227	3007.1
724.414	2992.76
724.6	3035.77
724.787	3066.49
724.974	3046.01
725.161	2978.43
725.347	3058.3
725.534	2960
725.72	3138.17
725.907	2996.86
726.094	2994.81
726.28	3123.84
726.467	3099.26
726.653	3076.73
726.84	2865.79
727.027	2992.76
727.213	2919.04
727.4	3113.6
727.586	2994.81
727.773	3070.59
727.959	2916.99
728.145	2984.57
728.332	2984.57
728.518	3011.2
728.705	3003
728.891	3007.1
729.077	2957.95
729.264	3033.72
729.45	2945.66
729.636	3039.87
729.823	2908.8
730.009	3093.12
730.195	2882.17
730.382	2902.65
730.568	2949.76
730.754	2953.85
730.94	3076.73
731.126	2947.71
731.313	2974.33
731.499	2939.52
731.685	3013.24
731.871	3013.24
732.057	2902.65
732.243	2939.52
732.429	2951.81
732.615	2957.95
732.801	2945.66
732.987	2898.56
733.173	2937.47
733.359	2914.94
733.545	3043.96
733.731	2927.23
733.917	3033.72
734.103	2980.48
734.289	2908.8
734.475	2783.87
734.661	2964.09
734.847	2947.71
735.033	2851.46
735.219	2996.86
735.404	2806.4
735.59	2947.71
735.776	2828.93
735.962	2994.81
736.148	2820.74
736.333	2880.13
736.519	2921.09
736.705	2992.76
736.89	2830.98
737.076	2794.11
737.262	2843.26
737.447	2771.58
737.633	2835.07
737.819	2953.85
738.004	2828.93
738.19	2902.65
738.375	2732.67
738.561	2790.02
738.747	2769.54
738.932	2837.12
739.118	2849.41
739.303	2804.35
739.489	2704
739.674	2728.58
739.859	2792.06
740.045	2747.01
740.23	2626.18
740.416	2751.1
740.601	2671.23
740.786	2718.34
740.972	2744.96
741.157	2699.91
741.342	2597.51
741.528	2589.32
741.713	2761.34
741.898	2730.62
742.084	2620.03
742.269	2636.42
742.454	2558.6
742.639	2617.99
742.824	2611.84
743.01	2681.47
743.195	2570.88
743.38	2660.99
743.565	2605.7
743.75	2607.75
743.935	2583.17
744.12	2540.16
744.305	2589.32
744.49	2634.37
744.675	2480.77
744.86	2417.29
745.045	2556.55
745.23	2484.87
745.415	2398.85
745.6	2361.99
745.785	2370.18
745.97	2468.48
746.155	2376.33
746.34	2439.81
746.525	2466.44
746.71	2353.8
746.895	2411.14
747.079	2382.47
747.264	2341.51
747.449	2257.54
747.634	2204.3
747.819	2163.34
748.003	2321.03
748.188	2288.26
748.373	2259.59
748.557	2210.44
748.742	2101.9
748.927	2181.77
749.111	2071.18
749.296	2259.59
749.481	2142.86
749.665	2169.48
749.85	2118.28
750.034	2175.63
750.219	2085.51
750.404	2157.19
750.588	2044.56
750.773	2034.32
750.957	2163.34
751.141	1968.78
751.326	1950.35
751.51	2003.6
751.695	1893.01
751.879	2011.79
752.064	2038.41
752.248	1917.58
752.432	2024.08
752.617	1919.63
752.801	1911.44
752.985	1782.42
753.17	1862.29
753.354	1839.76
753.538	1827.47
753.722	1823.37
753.907	1761.94
754.091	1747.6
754.275	1800.85
754.459	1757.84
754.643	1731.22
754.828	1743.5
755.012	1727.12
755.196	1786.51
755.38	1720.98
755.564	1792.66
755.748	1761.94
755.932	1706.64
756.116	1669.78
756.3	1610.39
756.484	1716.88
756.668	1645.2
756.852	1596.05
757.036	1581.71
757.22	1637.01
757.404	1520.28
757.588	1587.86
757.772	1585.81
757.956	1594
758.14	1581.71
758.323	1495.7
758.507	1587.86
758.691	1532.56
758.875	1589.91
759.059	1454.74
759.242	1563.28
759.426	1561.23
759.61	1571.47
759.794	1426.07
759.977	1538.71
760.161	1546.9
760.345	1464.98
760.528	1407.64
760.712	1409.69
760.895	1247.9
761.079	1438.36
761.263	1317.53
761.446	1346.2
761.63	1450.64
761.813	1235.61
761.997	1342.1
762.18	1342.1
762.364	1309.33
762.547	1391.25
762.731	1368.73
762.914	1278.62
763.098	1282.71
763.281	1260.18
763.464	1305.24
763.648	1305.24
763.831	1239.7
764.015	1268.38
764.198	1264.28
764.381	1340.05
764.564	1356.44
764.748	1223.32
764.931	1241.75
765.114	1247.9
765.297	1342.1
765.481	1208.98
765.664	1288.86
765.847	1221.27
766.03	1237.66
766.213	1229.46
766.397	1208.98
766.58	1278.62
766.763	1204.89
766.946	1208.98
767.129	1170.07
767.312	1122.97
767.495	1163.93
767.678	1163.93
767.861	1229.46
768.044	1196.7
768.227	1168.02
768.41	1102.49
768.593	1151.64
768.776	1096.35
768.959	1110.68
769.142	1100.44
769.324	1055.39
769.507	1092.25
769.69	1014.43
769.873	1071.77
770.056	1180.31
770.239	1067.67
770.421	1112.73
770.604	1065.63
770.787	1057.43
770.97	1006.24
771.152	1135.26
771.335	1036.95
771.518	1036.95
771.7	1096.35
771.883	1157.79
772.066	901.79
772.248	993.95
772.431	1018.52
772.613	1051.29
772.796	985.76
772.978	998.04
773.161	942.75
773.343	963.23
773.526	952.99
773.708	965.28
773.891	928.41
774.073	909.98
774.256	1004.19
774.438	907.93
774.621	957.08
774.803	1000.09
774.985	780.96
775.168	869.02
775.35	887.45
775.532	930.46
775.715	920.22
775.897	862.88
776.079	856.73
776.261	893.6
776.444	854.69
776.626	785.05
776.808	791.2
776.99	764.58
777.173	883.36
777.355	813.73
777.537	914.08
777.719	862.88
777.901	848.54
778.083	803.49
778.265	893.6
778.447	807.58
778.629	846.49
778.811	783.01
778.993	830.11
779.175	789.15
779.357	696.99
779.539	768.67
779.721	660.13
779.903	780.96
780.085	758.43
780.267	701.09
780.449	735.9
780.631	680.61
780.812	817.82
780.994	807.58
781.176	694.94
781.358	709.28
781.54	625.31
781.721	637.6
781.903	678.56
782.085	680.61
782.267	699.04
782.448	627.36
782.63	676.51
782.812	555.68
782.993	746.14
783.175	737.95
783.357	692.9
783.538	576.16
783.72	570.02
783.901	586.4
784.083	637.6
784.264	551.59
784.446	535.2
784.627	596.64
784.809	594.59
784.99	651.94
785.172	615.07
785.353	541.35
785.535	570.02
785.716	580.26
785.897	516.77
786.079	473.76
786.26	551.59
786.441	586.4
786.623	477.86
786.804	574.11
786.985	551.59
787.167	539.3
787.348	555.68
787.529	529.06
787.71	615.07
787.891	537.25
788.073	484
788.254	565.92
788.435	498.34
788.616	473.76
788.797	449.19
788.978	426.66
789.159	436.9
789.34	455.33
789.522	531.11
789.703	537.25
789.884	465.57
790.065	481.96
790.246	494.24
790.427	508.58
790.607	465.57
790.788	459.43
790.969	414.37
791.15	475.81
791.331	459.43
791.512	389.8
791.693	469.67
791.874	410.28
792.054	375.46
792.235	463.52
792.416	436.9
792.597	406.18
792.778	408.23
792.958	397.99
793.139	426.66
793.32	438.95
793.5	385.7
793.681	457.38
793.862	359.08
794.042	307.88
794.223	408.23
794.404	377.51
794.584	338.6
794.765	412.32
794.945	375.46
795.126	381.6
795.306	395.94
795.487	375.46
795.667	375.46
795.848	338.6
796.028	342.69
796.209	375.46
796.389	320.17
796.57	281.25
796.75	414.37
796.93	334.5
797.111	316.07
797.291	336.55
797.471	332.45
797.652	404.13
797.832	330.41
798.012	348.84
798.192	346.79
798.373	359.08
798.553	287.4
798.733	328.36
798.913	258.73
799.093	330.41
799.274	340.65
799.454	268.97
799.634	311.97
799.814	285.35
799.994	295.59
800.174	340.65
800.354	375.46
800.534	201.38
800.714	307.88
800.894	289.45
801.074	295.59
801.254	283.3
801.434	381.6
801.614	328.36
801.794	260.77
801.974	731.81
802.154	246.44
802.334	238.25
802.514	311.97
802.693	262.82
802.873	309.93
803.053	228.01
803.233	295.59
803.413	309.93
803.592	264.87
803.772	271.01
803.952	293.54
804.131	279.21
804.311	266.92
804.491	307.88
804.67	314.02
804.85	240.3
805.03	303.78
805.209	320.17
805.389	185
805.568	299.69
805.748	250.53
805.928	332.45
806.107	162.47
806.287	207.53
806.466	195.24
806.646	264.87
806.825	291.49
807.004	275.11
807.184	189.1
807.363	232.1
807.543	195.24
807.722	285.35
807.901	301.73
808.081	264.87
808.26	221.86
808.439	248.49
808.619	246.44
808.798	256.68
808.977	246.44
809.156	176.81
809.336	172.71
809.515	252.58
809.694	242.34
809.873	180.9
810.052	228.01
810.231	230.06
810.411	268.97
810.59	180.9
810.769	236.2
810.948	166.57
811.127	158.38
811.306	146.09
811.485	242.34
811.664	236.2
811.843	242.34
812.022	162.47
812.201	215.72
812.38	223.91
812.559	252.58
812.737	215.72
812.916	182.95
813.095	158.38
813.274	201.38
813.453	178.86
813.632	187.05
813.811	176.81
813.989	191.14
814.168	193.19
814.347	115.37
814.526	148.14
814.704	199.34
814.883	207.53
815.062	141.99
815.24	260.77
815.419	178.86
815.598	127.66
815.776	148.14
815.955	170.66
816.133	154.28
816.312	162.47
816.49	139.94
816.669	160.42
816.847	152.23
817.026	240.3
817.204	240.3
817.383	182.95
817.561	148.14
817.74	203.43
817.918	256.68
818.097	205.48
818.275	160.42
818.453	246.44
818.632	189.1
818.81	166.57
818.988	205.48
819.167	170.66
819.345	180.9
819.523	191.14
819.701	228.01
819.879	168.62
820.058	178.86
820.236	189.1
820.414	103.08
820.592	131.75
820.77	158.38
820.948	166.57
821.127	135.85
821.305	172.71
821.483	119.46
821.661	117.42
821.839	127.66
822.017	150.18
822.195	64.17
822.373	160.42
822.551	127.66
822.729	191.14
822.907	174.76
823.085	156.33
823.262	129.7
823.44	72.36
823.618	125.61
823.796	135.85
823.974	176.81
824.152	168.62
824.329	123.56
824.507	199.34
824.685	68.27
824.863	119.46
825.04	170.66
825.218	170.66
825.396	103.08
825.574	137.9
825.751	107.18
825.929	158.38
826.107	115.37
826.284	185
826.462	62.12
826.639	60.07
826.817	144.04
826.994	168.62
827.172	123.56
827.349	141.99
827.527	109.23
827.704	141.99
827.882	117.42
828.059	125.61
828.237	131.75
828.414	47.79
828.591	88.75
828.769	193.19
828.946	123.56
829.124	133.8
829.301	152.23
829.478	90.79
829.655	117.42
829.833	160.42
830.01	70.31
830.187	152.23
830.364	82.6
830.542	131.75
830.719	58.03
830.896	150.18
831.073	45.74
831.25	115.37
831.427	111.27
831.604	119.46
831.782	101.03
831.959	113.32
832.136	135.85
832.313	6.83
832.49	109.23
832.667	88.75
832.844	117.42
833.021	283.3
833.198	53.93
833.374	74.41
833.551	86.7
833.728	64.17
833.905	178.86
834.082	189.1
834.259	33.45
834.436	62.12
834.612	27.31
834.789	98.99
834.966	121.51
835.143	78.51
835.319	103.08
835.496	223.91
835.673	94.89
835.85	64.17
836.026	92.84
836.203	172.71
836.38	37.55
836.556	64.17
836.733	98.99
836.909	129.7
837.086	121.51
837.262	21.16
837.439	53.93
837.616	70.31
837.792	58.03
837.968	53.93
838.145	76.46
838.321	49.83
838.498	121.51
838.674	125.61
838.851	72.36
839.027	127.66
839.203	66.22
839.38	27.31
839.556	39.59
839.732	86.7
839.909	107.18
840.085	47.79
840.261	-23.89
840.437	80.55
840.614	111.27
840.79	111.27
840.966	123.56
841.142	66.22
841.318	17.07
841.494	80.55
841.671	131.75
841.847	64.17
842.023	37.55
842.199	51.88
842.375	47.79
842.551	78.51
842.727	86.7
842.903	70.31
843.079	53.93
843.255	58.03
843.431	68.27
843.607	189.1
843.783	55.98
843.959	80.55
844.134	80.55
844.31	113.32
844.486	72.36
844.662	21.16
844.838	80.55
845.013	115.37
845.189	103.08
845.365	60.07
845.541	-44.37
845.716	-19.8
845.892	58.03
846.068	-13.65
846.244	23.21
846.419	103.08
846.595	105.13
846.77	88.75
846.946	92.84
847.122	117.42
847.297	35.5
847.473	86.7
847.648	51.88
847.824	109.23
847.999	45.74
848.175	39.59
848.35	51.88
848.526	-7.51
848.701	19.11
848.876	68.27
849.052	92.84
849.227	35.5
849.403	80.55
849.578	66.22
849.753	68.27
849.929	82.6
850.104	49.83
850.279	41.64
850.454	-15.7
850.63	4.78
850.805	64.17
850.98	82.6
851.155	-1.37
851.33	39.59
851.505	47.79
851.681	96.94
851.856	29.35
852.031	-21.84
852.206	6.83
852.381	4.78
852.556	6.83
852.731	53.93
852.906	51.88
853.081	82.6
853.256	82.6
853.431	107.18
853.606	25.26
853.781	98.99
853.956	37.55
854.131	41.64
854.305	64.17
854.48	29.35
854.655	0.68
854.83	23.21
855.005	80.55
855.18	45.74
855.354	62.12
855.529	47.79
855.704	45.74
855.879	96.94
856.053	41.64
856.228	58.03
856.403	33.45
856.577	62.12
856.752	60.07
856.926	27.31
857.101	41.64
857.276	70.31
857.45	60.07
857.625	98.99
857.799	12.97
857.974	-7.51
858.148	64.17
858.323	43.69
858.497	29.35
858.672	111.27
858.846	23.21
859.02	105.13
859.195	33.45
859.369	31.4
859.543	6.83
859.718	0.68
859.892	41.64
860.066	35.5
860.241	-9.56
860.415	35.5
860.589	53.93
860.763	55.98
860.938	-5.46
861.112	55.98
861.286	23.21
861.46	41.64
861.634	15.02
861.808	105.13
861.982	72.36
862.157	-17.75
862.331	74.41
862.505	17.07
862.679	4.78
862.853	127.66
863.027	37.55
863.201	64.17
863.375	25.26
863.549	8.87
863.722	74.41
863.896	47.79
864.07	12.97
864.244	31.4
864.418	49.83
864.592	80.55
864.766	84.65
864.939	45.74
865.113	6.83
865.287	10.92
865.461	4.78
865.634	117.42
865.808	0.68
865.982	12.97
866.156	66.22
866.329	53.93
866.503	27.31
866.676	21.16
866.85	21.16
867.024	21.16
867.197	6.83
867.371	80.55
867.544	10.92
867.718	45.74
867.891	21.16
868.065	53.93
868.238	8.87
868.412	74.41
868.585	4.78
868.759	35.5
868.932	17.07
869.105	19.11
869.279	-36.18
869.452	-56.66
869.625	45.74
869.799	-11.61
869.972	17.07
870.145	55.98
870.319	-19.8
870.492	90.79
870.665	70.31
870.838	35.5
871.011	4.78
871.185	68.27
871.358	31.4
871.531	4.78
871.704	72.36
871.877	51.88
872.05	17.07
872.223	35.5
872.396	70.31
872.569	23.21
872.742	-15.7
872.915	39.59
873.088	-42.32
873.261	-56.66
873.434	39.59
873.607	53.93
873.78	78.51
873.953	-68.95
874.126	33.45
874.299	23.21
874.471	-23.89
874.644	23.21
874.817	4.78
874.99	37.55
875.163	-7.51
875.335	-15.7
875.508	23.21
875.681	43.69
875.853	-21.84
876.026	29.35
876.199	98.99
876.371	-11.61
876.544	-81.24
876.717	45.74
876.889	-3.41
877.062	41.64
877.234	2.73
877.407	55.98
877.579	-1.37
877.752	2.73
877.924	27.31
878.097	-34.13
878.269	-1.37
878.442	76.46
878.614	-9.56
878.786	90.79
878.959	49.83
879.131	53.93
879.303	-15.7
879.476	43.69
879.648	60.07
879.82	96.94
879.993	-32.08
880.165	-58.71
880.337	68.27
880.509	17.07
880.681	-1.37
880.854	47.79
881.026	47.79
881.198	64.17
881.37	8.87
881.542	82.6
881.714	25.26
881.886	43.69
882.058	43.69
882.23	25.26
882.402	66.22
882.574	-13.65
882.746	12.97
882.918	51.88
883.09	-7.51
883.262	12.97
883.434	0.68
883.606	-3.41
883.778	-42.32
883.95	78.51
884.122	74.41
884.293	37.55
884.465	27.31
884.637	-27.99
884.809	8.87
884.98	27.31
885.152	43.69
885.324	43.69
885.496	-73.04
885.667	8.87
885.839	-50.52
886.011	6.83
886.182	17.07
886.354	21.16
886.525	64.17
886.697	10.92
886.869	-25.94
887.04	70.31
887.212	60.07
887.383	17.07
887.555	45.74
887.726	41.64
887.897	10.92
888.069	25.26
888.24	-54.61
888.412	-9.56
888.583	-13.65
888.754	49.83
888.926	-7.51
889.097	4.78
889.268	-38.23
889.44	10.92
889.611	21.16
889.782	41.64
889.953	49.83
890.125	-27.99
890.296	-60.76
890.467	-27.99
890.638	-21.84
890.809	25.26
890.98	-64.85
891.151	49.83
891.323	-11.61
891.494	29.35
891.665	-40.28
891.836	62.12
892.007	0.68
892.178	49.83
892.349	-42.32
892.52	-15.7
892.691	58.03
892.862	2.73
893.032	-3.41
893.203	21.16
893.374	17.07
893.545	53.93
893.716	6.83
893.887	2.73
894.057	8.87
894.228	76.46
894.399	25.26
894.57	23.21
894.74	45.74
894.911	51.88
895.082	-60.76
895.253	-48.47
895.423	43.69
895.594	41.64
895.764	49.83
895.935	-13.65
896.106	98.99
896.276	17.07
896.447	-34.13
896.617	21.16
896.788	31.4
896.958	45.74
897.129	-56.66
897.299	0.68
897.47	37.55
897.64	88.75
897.81	-66.9
897.981	8.87
898.151	-13.65
898.322	-34.13
898.492	35.5
898.662	-46.42
898.832	4.78
899.003	-60.76
899.173	-46.42
899.343	-1.37
899.513	-46.42
