Data from USB4F104151__29__11-51-34-429.txt Node

Date: Fri Mar 14 11:51:34 EDT 2025
User: louis
Spectrometer: USB4F10415
Trigger mode: 4
Integration Time (sec): 2.000000E-2
Scans to average: 1
Electric dark correction enabled: true
Nonlinearity correction enabled: false
Boxcar width: 0
XAxis mode: Wavelengths
Number of Pixels in Spectrum: 3648
>>>>>Begin Spectral Data<<<<<
178.204	-73.21
178.424	-73.21
178.644	-73.21
178.864	-36.35
179.084	-46.59
179.304	-30.21
179.524	57.86
179.744	-7.68
179.964	-30.21
180.184	-11.78
180.404	12.8
180.624	-50.69
180.844	-17.92
181.064	-3.58
181.283	14.85
181.503	10.75
181.723	55.81
181.943	-19.97
182.163	49.66
182.383	23.04
182.602	-13.82
182.822	47.62
183.042	31.23
183.262	25.09
183.482	43.52
183.701	35.33
183.921	66.05
184.141	-30.21
184.361	18.94
184.58	31.23
184.8	64
185.02	23.04
185.239	119.29
185.459	12.8
185.679	-89.6
185.898	-22.02
186.118	76.29
186.338	16.9
186.557	51.71
186.777	16.9
186.997	45.57
187.216	84.48
187.436	137.73
187.655	41.47
187.875	37.38
188.095	-46.59
188.314	55.81
188.534	66.05
188.753	10.75
188.973	57.86
189.192	16.9
189.412	86.53
189.631	68.09
189.851	20.99
190.07	57.86
190.29	-30.21
190.509	35.33
190.729	70.14
190.948	68.09
191.168	88.57
191.387	78.33
191.607	96.77
191.826	72.19
192.045	57.86
192.265	25.09
192.484	33.28
192.704	27.14
192.923	33.28
193.142	49.66
193.362	64
193.581	10.75
193.8	51.71
194.02	57.86
194.239	-5.63
194.458	74.24
194.678	20.99
194.897	45.57
195.116	-48.64
195.335	0.51
195.555	0.51
195.774	2.56
195.993	82.43
196.212	23.04
196.432	-34.3
196.651	25.09
196.87	-24.06
197.089	45.57
197.308	31.23
197.528	70.14
197.747	37.38
197.966	94.72
198.185	74.24
198.404	47.62
198.623	8.7
198.842	4.61
199.062	10.75
199.281	78.33
199.5	74.24
199.719	25.09
199.938	98.81
200.157	39.42
200.376	100.86
200.595	109.05
200.814	4.61
201.033	20.99
201.252	70.14
201.471	10.75
201.69	86.53
201.909	104.96
202.128	35.33
202.347	96.77
202.566	131.58
202.785	61.95
203.004	23.04
203.223	68.09
203.442	10.75
203.661	-22.02
203.879	39.42
204.098	16.9
204.317	35.33
204.536	123.39
204.755	8.7
204.974	41.47
205.193	25.09
205.411	47.62
205.63	47.62
205.849	14.85
206.068	125.44
206.287	66.05
206.505	-5.63
206.724	4.61
206.943	35.33
207.162	-28.16
207.381	47.62
207.599	-3.58
207.818	64
208.037	47.62
208.255	64
208.474	51.71
208.693	0.51
208.911	2.56
209.13	-9.73
209.349	41.47
209.567	76.29
209.786	27.14
210.005	-9.73
210.223	6.66
210.442	59.9
210.661	61.95
210.879	-19.97
211.098	129.53
211.316	123.39
211.535	66.05
211.753	6.66
211.972	129.53
212.191	35.33
212.409	8.7
212.628	94.72
212.846	37.38
213.065	20.99
213.283	43.52
213.502	55.81
213.72	78.33
213.938	25.09
214.157	-40.45
214.375	53.76
214.594	23.04
214.812	29.18
215.031	10.75
215.249	68.09
215.467	121.34
215.686	4.61
215.904	-22.02
216.122	111.1
216.341	66.05
216.559	6.66
216.778	51.71
216.996	61.95
217.214	59.9
217.432	31.23
217.651	-17.92
217.869	14.85
218.087	31.23
218.306	-52.74
218.524	-19.97
218.742	37.38
218.96	-34.3
219.179	-26.11
219.397	-15.87
219.615	8.7
219.833	66.05
220.051	-13.82
220.27	90.62
220.488	109.05
220.706	43.52
220.924	-1.54
221.142	47.62
221.36	66.05
221.578	12.8
221.796	76.29
222.015	49.66
222.233	20.99
222.451	92.67
222.669	-9.73
222.887	125.44
223.105	-50.69
223.323	94.72
223.541	33.28
223.759	82.43
223.977	-36.35
224.195	31.23
224.413	39.42
224.631	-9.73
224.849	55.81
225.067	39.42
225.285	29.18
225.503	68.09
225.721	29.18
225.939	68.09
226.157	20.99
226.375	82.43
226.592	-17.92
226.81	47.62
227.028	61.95
227.246	14.85
227.464	49.66
227.682	0.51
227.9	-17.92
228.117	90.62
228.335	90.62
228.553	-17.92
228.771	-24.06
228.989	86.53
229.206	129.53
229.424	98.81
229.642	-75.26
229.86	88.57
230.077	-3.58
230.295	35.33
230.513	8.7
230.731	55.81
230.948	119.29
231.166	117.25
231.384	49.66
231.601	6.66
231.819	31.23
232.037	37.38
232.254	-11.78
232.472	10.75
232.689	80.38
232.907	68.09
233.125	57.86
233.342	-50.69
233.56	80.38
233.777	115.2
233.995	39.42
234.213	-7.68
234.43	57.86
234.648	-15.87
234.865	16.9
235.083	31.23
235.3	-13.82
235.518	61.95
235.735	64
235.953	2.56
236.17	76.29
236.388	-9.73
236.605	68.09
236.822	41.47
237.04	-22.02
237.257	33.28
237.475	-9.73
237.692	-3.58
237.909	68.09
238.127	25.09
238.344	33.28
238.562	25.09
238.779	59.9
238.996	76.29
239.214	-1.54
239.431	80.38
239.648	43.52
239.865	-1.54
240.083	70.14
240.3	61.95
240.517	86.53
240.735	-5.63
240.952	49.66
241.169	84.48
241.386	55.81
241.603	109.05
241.821	6.66
242.038	90.62
242.255	39.42
242.472	57.86
242.689	33.28
242.907	131.58
243.124	55.81
243.341	-42.5
243.558	31.23
243.775	18.94
243.992	-15.87
244.209	20.99
244.426	94.72
244.643	35.33
244.86	53.76
245.078	70.14
245.295	12.8
245.512	18.94
245.729	47.62
245.946	70.14
246.163	57.86
246.38	61.95
246.597	0.51
246.814	33.28
247.031	-36.35
247.248	100.86
247.464	16.9
247.681	29.18
247.898	115.2
248.115	53.76
248.332	10.75
248.549	80.38
248.766	10.75
248.983	53.76
249.2	10.75
249.417	41.47
249.633	16.9
249.85	4.61
250.067	59.9
250.284	78.33
250.501	41.47
250.717	68.09
250.934	35.33
251.151	31.23
251.368	51.71
251.585	84.48
251.801	20.99
252.018	-5.63
252.235	68.09
252.451	23.04
252.668	96.77
252.885	33.28
253.102	18.94
253.318	55.81
253.535	10.75
253.752	80.38
253.968	90.62
254.185	25.09
254.401	53.76
254.618	14.85
254.835	53.76
255.051	61.95
255.268	49.66
255.484	31.23
255.701	66.05
255.917	47.62
256.134	53.76
256.351	8.7
256.567	2.56
256.784	84.48
257	31.23
257.217	45.57
257.433	-3.58
257.65	-24.06
257.866	76.29
258.082	2.56
258.299	-1.54
258.515	72.19
258.732	45.57
258.948	18.94
259.165	2.56
259.381	2.56
259.597	-38.4
259.814	-17.92
260.03	35.33
260.246	49.66
260.463	16.9
260.679	0.51
260.895	29.18
261.112	8.7
261.328	10.75
261.544	39.42
261.761	84.48
261.977	70.14
262.193	-38.4
262.409	-13.82
262.626	51.71
262.842	64
263.058	-15.87
263.274	64
263.49	57.86
263.707	31.23
263.923	39.42
264.139	43.52
264.355	66.05
264.571	23.04
264.787	0.51
265.004	80.38
265.22	0.51
265.436	39.42
265.652	27.14
265.868	96.77
266.084	27.14
266.3	23.04
266.516	-48.64
266.732	57.86
266.948	39.42
267.164	49.66
267.38	-9.73
267.596	-34.3
267.812	49.66
268.028	-24.06
268.244	-11.78
268.46	51.71
268.676	25.09
268.892	80.38
269.108	-3.58
269.324	33.28
269.54	29.18
269.756	33.28
269.972	45.57
270.188	12.8
270.403	14.85
270.619	109.05
270.835	96.77
271.051	25.09
271.267	86.53
271.483	20.99
271.698	-36.35
271.914	59.9
272.13	49.66
272.346	-42.5
272.562	27.14
272.777	102.91
272.993	43.52
273.209	78.33
273.425	20.99
273.64	41.47
273.856	90.62
274.072	45.57
274.287	14.85
274.503	70.14
274.719	53.76
274.934	45.57
275.15	29.18
275.366	53.76
275.581	39.42
275.797	127.49
276.012	29.18
276.228	59.9
276.444	90.62
276.659	59.9
276.875	104.96
277.09	-60.93
277.306	4.61
277.521	84.48
277.737	49.66
277.952	61.95
278.168	43.52
278.383	86.53
278.599	47.62
278.814	-5.63
279.03	102.91
279.245	102.91
279.461	-36.35
279.676	10.75
279.892	10.75
280.107	33.28
280.322	27.14
280.538	6.66
280.753	35.33
280.969	-13.82
281.184	61.95
281.399	-56.83
281.615	25.09
281.83	68.09
282.045	25.09
282.26	-1.54
282.476	-44.54
282.691	107.01
282.906	70.14
283.122	51.71
283.337	88.57
283.552	59.9
283.767	47.62
283.983	31.23
284.198	23.04
284.413	47.62
284.628	-17.92
284.843	96.77
285.058	43.52
285.274	-26.11
285.489	-34.3
285.704	92.67
285.919	-17.92
286.134	29.18
286.349	-1.54
286.564	43.52
286.779	72.19
286.995	57.86
287.21	16.9
287.425	80.38
287.64	8.7
287.855	76.29
288.07	10.75
288.285	76.29
288.5	49.66
288.715	104.96
288.93	143.87
289.145	37.38
289.36	16.9
289.575	-24.06
289.79	49.66
290.004	45.57
290.219	35.33
290.434	39.42
290.649	90.62
290.864	111.1
291.079	18.94
291.294	72.19
291.509	107.01
291.724	35.33
291.938	90.62
292.153	-22.02
292.368	4.61
292.583	-13.82
292.798	109.05
293.012	90.62
293.227	72.19
293.442	-11.78
293.657	35.33
293.871	61.95
294.086	96.77
294.301	72.19
294.516	119.29
294.73	88.57
294.945	-11.78
295.16	49.66
295.374	45.57
295.589	29.18
295.804	12.8
296.018	66.05
296.233	45.57
296.447	72.19
296.662	64
296.877	82.43
297.091	-15.87
297.306	45.57
297.52	16.9
297.735	61.95
297.949	94.72
298.164	64
298.378	90.62
298.593	43.52
298.807	109.05
299.022	39.42
299.236	64
299.451	76.29
299.665	27.14
299.88	59.9
300.094	129.53
300.309	18.94
300.523	94.72
300.737	18.94
300.952	14.85
301.166	-5.63
301.381	104.96
301.595	39.42
301.809	68.09
302.024	70.14
302.238	0.51
302.452	96.77
302.667	66.05
302.881	68.09
303.095	129.53
303.309	100.86
303.524	10.75
303.738	98.81
303.952	25.09
304.166	80.38
304.381	-15.87
304.595	100.86
304.809	64
305.023	41.47
305.237	-46.59
305.452	31.23
305.666	102.91
305.88	33.28
306.094	78.33
306.308	111.1
306.522	84.48
306.736	84.48
306.95	53.76
307.164	64
307.379	-24.06
307.593	96.77
307.807	29.18
308.021	70.14
308.235	61.95
308.449	96.77
308.663	2.56
308.877	80.38
309.091	43.52
309.305	20.99
309.519	-28.16
309.733	72.19
309.947	18.94
310.161	64
310.374	74.24
310.588	2.56
310.802	37.38
311.016	70.14
311.23	14.85
311.444	-5.63
311.658	84.48
311.872	78.33
312.085	35.33
312.299	82.43
312.513	86.53
312.727	92.67
312.941	-38.4
313.154	115.2
313.368	51.71
313.582	57.86
313.796	78.33
314.009	121.34
314.223	55.81
314.437	53.76
314.651	57.86
314.864	80.38
315.078	14.85
315.292	57.86
315.505	55.81
315.719	10.75
315.933	49.66
316.146	-34.3
316.36	14.85
316.573	64
316.787	113.15
317.001	78.33
317.214	16.9
317.428	-46.59
317.641	66.05
317.855	98.81
318.068	4.61
318.282	51.71
318.495	80.38
318.709	27.14
318.922	33.28
319.136	14.85
319.349	82.43
319.563	18.94
319.776	-50.69
319.99	20.99
320.203	90.62
320.417	74.24
320.63	8.7
320.843	72.19
321.057	35.33
321.27	31.23
321.483	33.28
321.697	113.15
321.91	23.04
322.124	80.38
322.337	88.57
322.55	35.33
322.763	-38.4
322.977	55.81
323.19	123.39
323.403	47.62
323.617	-36.35
323.83	129.53
324.043	66.05
324.256	27.14
324.469	31.23
324.683	43.52
324.896	123.39
325.109	43.52
325.322	109.05
325.535	74.24
325.748	78.33
325.962	88.57
326.175	20.99
326.388	133.63
326.601	68.09
326.814	27.14
327.027	23.04
327.24	55.81
327.453	-30.21
327.666	4.61
327.879	57.86
328.092	31.23
328.305	41.47
328.518	31.23
328.731	41.47
328.944	33.28
329.157	16.9
329.37	35.33
329.583	57.86
329.796	147.97
330.009	47.62
330.222	12.8
330.435	64
330.648	94.72
330.861	6.66
331.073	18.94
331.286	49.66
331.499	47.62
331.712	55.81
331.925	-95.74
332.138	82.43
332.35	61.95
332.563	53.76
332.776	127.49
332.989	-46.59
333.202	70.14
333.414	35.33
333.627	-15.87
333.84	14.85
334.053	117.25
334.265	57.86
334.478	47.62
334.691	135.68
334.903	43.52
335.116	0.51
335.329	23.04
335.541	49.66
335.754	61.95
335.966	6.66
336.179	88.57
336.392	98.81
336.604	76.29
336.817	49.66
337.029	35.33
337.242	80.38
337.454	55.81
337.667	57.86
337.88	88.57
338.092	-11.78
338.305	59.9
338.517	82.43
338.729	80.38
338.942	64
339.154	66.05
339.367	27.14
339.579	41.47
339.792	-7.68
340.004	129.53
340.217	47.62
340.429	70.14
340.641	-30.21
340.854	68.09
341.066	61.95
341.278	6.66
341.491	127.49
341.703	96.77
341.915	27.14
342.128	41.47
342.34	18.94
342.552	66.05
342.764	64
342.977	49.66
343.189	86.53
343.401	100.86
343.613	-7.68
343.826	49.66
344.038	78.33
344.25	45.57
344.462	-26.11
344.674	57.86
344.886	8.7
345.099	47.62
345.311	72.19
345.523	41.47
345.735	33.28
345.947	70.14
346.159	68.09
346.371	25.09
346.583	64
346.795	135.68
347.007	10.75
347.219	152.06
347.431	61.95
347.643	61.95
347.855	41.47
348.067	158.21
348.279	100.86
348.491	96.77
348.703	61.95
348.915	37.38
349.127	74.24
349.339	29.18
349.551	82.43
349.763	10.75
349.975	70.14
350.187	72.19
350.399	16.9
350.61	76.29
350.822	68.09
351.034	102.91
351.246	-3.58
351.458	104.96
351.669	72.19
351.881	45.57
352.093	76.29
352.305	72.19
352.517	41.47
352.728	74.24
352.94	72.19
353.152	96.77
353.363	25.09
353.575	125.44
353.787	53.76
353.999	64
354.21	66.05
354.422	-13.82
354.633	66.05
354.845	18.94
355.057	123.39
355.268	100.86
355.48	49.66
355.692	98.81
355.903	18.94
356.115	41.47
356.326	43.52
356.538	174.59
356.749	53.76
356.961	57.86
357.172	51.71
357.384	2.56
357.595	156.16
357.807	20.99
358.018	-9.73
358.23	35.33
358.441	74.24
358.653	98.81
358.864	64
359.075	129.53
359.287	25.09
359.498	68.09
359.709	-34.3
359.921	98.81
360.132	35.33
360.344	59.9
360.555	68.09
360.766	141.82
360.977	76.29
361.189	45.57
361.4	59.9
361.611	121.34
361.823	66.05
362.034	-1.54
362.245	-77.31
362.456	39.42
362.667	37.38
362.879	39.42
363.09	8.7
363.301	92.67
363.512	41.47
363.723	57.86
363.935	29.18
364.146	-17.92
364.357	25.09
364.568	61.95
364.779	94.72
364.99	41.47
365.201	43.52
365.412	123.39
365.623	41.47
365.834	147.97
366.045	47.62
366.256	162.3
366.467	51.71
366.678	94.72
366.889	72.19
367.1	25.09
367.311	27.14
367.522	51.71
367.733	29.18
367.944	49.66
368.155	27.14
368.366	72.19
368.577	96.77
368.788	72.19
368.999	45.57
369.209	66.05
369.42	20.99
369.631	78.33
369.842	104.96
370.053	53.76
370.264	82.43
370.474	20.99
370.685	55.81
370.896	84.48
371.107	55.81
371.317	88.57
371.528	20.99
371.739	47.62
371.95	109.05
372.16	64
372.371	-19.97
372.582	12.8
372.792	156.16
373.003	53.76
373.214	10.75
373.424	8.7
373.635	10.75
373.846	129.53
374.056	76.29
374.267	31.23
374.477	43.52
374.688	64
374.898	143.87
375.109	33.28
375.319	74.24
375.53	59.9
375.74	66.05
375.951	55.81
376.161	94.72
376.372	61.95
376.582	33.28
376.793	47.62
377.003	31.23
377.214	59.9
377.424	98.81
377.635	96.77
377.845	53.76
378.055	152.06
378.266	68.09
378.476	135.68
378.686	47.62
378.897	51.71
379.107	68.09
379.317	139.77
379.528	39.42
379.738	8.7
379.948	68.09
380.158	104.96
380.369	6.66
380.579	84.48
380.789	47.62
380.999	92.67
381.21	70.14
381.42	59.9
381.63	39.42
381.84	100.86
382.05	139.77
382.261	94.72
382.471	121.34
382.681	84.48
382.891	121.34
383.101	78.33
383.311	82.43
383.521	133.63
383.731	31.23
383.941	70.14
384.151	78.33
384.361	-1.54
384.571	6.66
384.781	76.29
384.991	119.29
385.201	8.7
385.411	131.58
385.621	64
385.831	59.9
386.041	29.18
386.251	47.62
386.461	119.29
386.671	70.14
386.881	84.48
387.091	74.24
387.301	53.76
387.511	117.25
387.72	102.91
387.93	61.95
388.14	90.62
388.35	104.96
388.56	125.44
388.769	92.67
388.979	113.15
389.189	104.96
389.399	98.81
389.609	10.75
389.818	145.92
390.028	39.42
390.238	109.05
390.447	129.53
390.657	35.33
390.867	70.14
391.076	53.76
391.286	76.29
391.496	47.62
391.705	98.81
391.915	119.29
392.125	109.05
392.334	139.77
392.544	127.49
392.753	68.09
392.963	49.66
393.172	10.75
393.382	39.42
393.591	111.1
393.801	-22.02
394.01	88.57
394.22	90.62
394.429	139.77
394.639	64
394.848	135.68
395.058	137.73
395.267	43.52
395.477	156.16
395.686	96.77
395.895	150.01
396.105	84.48
396.314	123.39
396.524	154.11
396.733	33.28
396.942	150.01
397.152	55.81
397.361	145.92
397.57	55.81
397.78	84.48
397.989	111.1
398.198	184.83
398.407	109.05
398.617	64
398.826	12.8
399.035	94.72
399.244	117.25
399.453	96.77
399.663	70.14
399.872	166.4
400.081	125.44
400.29	121.34
400.499	102.91
400.708	35.33
400.917	123.39
401.127	109.05
401.336	115.2
401.545	109.05
401.754	178.69
401.963	111.1
402.172	55.81
402.381	82.43
402.59	90.62
402.799	88.57
403.008	143.87
403.217	107.01
403.426	180.73
403.635	164.35
403.844	111.1
404.053	96.77
404.262	172.54
404.471	147.97
404.68	45.57
404.888	172.54
405.097	178.69
405.306	197.12
405.515	129.53
405.724	147.97
405.933	242.17
406.142	141.82
406.35	221.69
406.559	139.77
406.768	229.88
406.977	231.93
407.185	268.8
407.394	244.22
407.603	207.36
407.812	281.08
408.02	287.23
408.229	270.84
408.438	246.27
408.646	281.08
408.855	252.41
409.064	238.08
409.272	242.17
409.481	313.85
409.69	260.6
409.898	285.18
410.107	315.9
410.315	330.23
410.524	295.42
410.733	354.81
410.941	305.66
411.15	348.67
411.358	477.69
411.567	492.02
411.775	391.67
411.984	422.39
412.192	457.21
412.401	463.35
412.609	469.5
412.818	500.22
413.026	494.07
413.234	492.02
413.443	578.04
413.651	561.66
413.86	545.27
414.068	530.94
414.276	641.53
414.485	561.66
414.693	743.92
414.901	733.68
415.11	776.69
415.318	700.92
415.526	797.17
415.734	809.46
415.943	801.27
416.151	860.66
416.359	809.46
416.567	907.76
416.776	967.15
416.984	1020.4
417.192	948.72
417.4	1057.26
417.608	993.78
417.817	1083.89
418.025	1018.35
418.233	1239.53
418.441	1194.48
418.649	1149.42
418.857	1264.11
419.065	1313.26
419.273	1194.48
419.481	1350.12
419.689	1454.57
419.897	1481.19
420.105	1487.34
420.313	1520.1
420.521	1556.97
420.729	1677.8
420.937	1720.81
421.145	1755.62
421.353	1819.11
421.561	1948.13
421.769	1937.89
421.977	2050.53
422.185	2105.82
422.393	2073.06
422.601	2161.12
422.809	2275.81
423.017	2267.61
423.224	2372.06
423.432	2511.32
423.64	2527.71
423.848	2795.99
424.056	2550.23
424.263	2916.82
424.471	2712.02
424.679	2869.72
424.887	3150.29
425.094	3154.38
425.302	3082.7
425.51	3398.09
425.718	3406.28
425.925	3453.39
426.133	3643.85
426.341	3686.86
426.548	4016.58
426.756	3926.47
426.964	3920.32
427.171	4252.1
427.379	4297.15
427.586	4454.84
427.794	4387.26
428.001	4891.06
428.209	4989.36
428.417	4798.9
428.624	4901.3
428.832	5194.16
429.039	5140.91
429.247	5058.99
429.454	5689.77
429.662	5841.32
429.869	5562.8
430.076	5921.19
430.284	5884.33
430.491	6044.07
430.699	6410.65
430.906	6367.65
431.114	6486.43
431.321	6807.96
431.528	6969.75
431.736	7301.52
431.943	7709.07
432.15	7471.5
432.358	7571.85
432.565	8003.97
432.772	7917.96
432.979	8640.89
433.187	8515.97
433.394	8636.8
433.601	9064.82
433.808	9304.43
434.016	8909.18
434.223	9429.36
434.43	9953.64
434.637	9820.52
434.844	10539.36
435.052	10574.17
435.259	10488.16
435.466	10594.65
435.673	10664.29
435.88	11266.39
436.087	11796.81
436.294	11805
436.501	11563.34
436.708	11911.5
436.915	12265.8
437.122	13091.13
437.329	12663.1
437.537	13320.5
437.743	13543.73
437.95	13173.05
438.157	14100.78
438.364	14586.15
438.571	14561.57
438.778	14369.06
438.985	15845.65
439.192	15124.76
439.399	15708.43
439.606	15358.23
439.813	16457.99
440.02	17099
440.227	16904.45
440.433	16849.15
440.64	17445.11
440.847	17408.25
441.054	18020.59
441.261	18677.99
441.467	18850.02
441.674	18989.28
441.881	19546.33
442.088	19626.2
442.294	19468.5
442.501	19980.5
442.708	20746.44
442.914	21143.74
443.121	22374.57
443.328	21283
443.534	22974.63
443.741	22542.5
443.948	22331.56
444.154	23722.13
444.361	23492.76
444.568	23656.6
444.774	23691.41
444.981	23953.55
445.187	24729.73
445.394	25749.62
445.6	25710.71
445.807	28115.03
446.013	26769.51
446.22	26974.31
446.426	28262.48
446.633	28528.72
446.839	29448.25
447.046	28141.65
447.252	30099.51
447.459	29939.77
447.665	29775.93
447.871	31367.2
448.078	32577.55
448.284	31060.01
448.491	31780.89
448.697	32923.66
448.903	33718.27
449.11	33619.97
449.316	33292.29
449.522	33757.18
449.728	34785.26
449.935	34940.91
450.141	35006.44
450.347	35598.3
450.553	34734.06
450.76	35004.39
450.966	36286.42
451.172	35669.98
451.378	36798.41
451.584	36038.62
451.791	36773.84
451.997	36501.46
452.203	37437.38
452.409	37543.88
452.615	37156.81
452.821	35588.06
453.027	35729.37
453.233	37558.21
453.44	36057.05
453.646	36523.99
453.852	36403.16
454.058	37224.39
454.264	35596.26
454.47	36767.69
454.676	35971.04
454.882	37169.1
455.088	33638.4
455.294	34201.59
455.5	34953.19
455.705	35229.67
455.911	33976.31
456.117	32884.75
456.323	32806.92
456.529	31021.09
456.735	32200.72
456.941	31330.34
457.147	31043.62
457.352	30464.05
457.558	30165.04
457.764	29941.82
457.97	29247.55
458.176	28784.71
458.381	28602.44
458.587	27095.14
458.793	27357.28
458.999	26439.79
459.204	27725.91
459.41	27021.41
459.616	25168
459.821	24957.06
460.027	25135.23
460.233	24656.01
460.438	23345.31
460.644	24062.1
460.85	22741.16
461.055	22268.08
461.261	22200.49
461.466	20660.42
461.672	20277.45
461.878	21326.01
462.083	20246.73
462.289	19564.76
462.494	19366.1
462.7	18696.42
462.905	18221.29
463.111	18645.22
463.316	18819.3
463.522	18442.47
463.727	18409.7
463.932	17987.82
464.138	18264.3
464.343	18368.74
464.549	17606.9
464.754	18125.04
464.959	18118.89
465.165	17785.07
465.37	17232.12
465.575	16597.25
465.781	17398.01
465.986	17434.87
466.191	17027.32
466.397	16570.63
466.602	15847.69
466.807	16376.07
467.012	16142.6
467.218	16316.68
467.423	16017.68
467.628	16326.92
467.833	16834.82
468.038	16169.23
468.244	15673.62
468.449	16541.96
468.654	16027.92
468.859	15706.38
469.064	15628.56
469.269	14997.79
469.474	15409.43
469.679	15513.88
469.885	14981.4
470.09	15294.74
470.295	14930.2
470.5	14631.2
470.705	14973.21
470.91	14692.64
471.115	14455.08
471.32	14655.78
471.525	14625.06
471.73	13975.85
471.935	13936.94
472.139	13605.17
472.344	13707.57
472.549	13889.84
472.754	13427
472.959	13431.09
473.164	13021.5
473.369	12847.42
473.574	13351.22
473.778	13259.06
473.983	13017.4
474.188	13117.75
474.393	12478.79
474.598	12474.69
474.802	12382.53
475.007	12280.13
475.212	12382.53
475.417	11866.44
475.621	11979.08
475.826	11938.12
476.031	11725.13
476.235	11309.4
476.44	11610.45
476.645	11094.36
476.849	11225.43
477.054	11290.96
477.259	11055.45
477.463	10991.96
477.668	10768.73
477.872	10697.05
478.077	10684.76
478.282	10379.62
478.486	10293.6
478.691	10533.22
478.895	10207.59
479.1	10213.73
479.304	10223.97
479.509	9943.4
479.713	9998.7
479.918	9957.74
480.122	9920.87
480.326	9986.41
480.531	10008.94
480.735	9761.13
480.94	9742.7
481.144	10097
481.348	9697.64
481.553	9812.33
481.757	9429.36
481.961	9589.1
482.166	9742.7
482.37	9593.2
482.574	9468.27
482.778	9554.29
482.983	9736.56
483.187	9550.19
483.391	9603.44
483.595	9451.89
483.8	9394.54
484.004	9511.28
484.208	9748.84
484.412	9640.3
484.616	9421.17
484.821	9517.42
485.025	9398.64
485.229	9230.71
485.433	9484.66
485.637	9484.66
485.841	9531.76
486.045	9378.16
486.249	9523.57
486.453	9550.19
486.657	9474.42
486.861	9679.21
487.065	9345.39
487.269	9437.55
487.473	9458.03
487.677	9455.98
487.881	9408.88
488.085	9349.49
488.289	9531.76
488.493	9460.08
488.697	9720.17
488.901	9453.94
489.105	9734.51
489.309	9415.02
489.512	9587.05
489.716	9619.82
489.92	9662.83
490.124	9617.77
490.328	9734.51
490.531	9693.55
490.735	9695.6
490.939	9806.19
491.143	9761.13
491.346	9716.08
491.55	9744.75
491.754	9998.7
491.958	10039.65
492.161	10025.32
492.365	9947.5
492.569	10113.38
492.772	10031.46
492.976	10197.35
493.18	9996.65
493.383	10373.47
493.587	10262.88
493.79	10516.83
493.994	10330.47
494.197	10420.58
494.401	10641.76
494.605	10283.36
494.808	10670.43
495.012	10789.21
495.215	10821.98
495.419	10729.82
495.622	10735.96
495.825	10901.85
496.029	10895.71
496.232	11356.5
496.436	11245.91
496.639	11356.5
496.843	11440.47
497.046	11657.55
497.249	11753.8
497.453	11839.82
497.656	11938.12
497.859	11977.03
498.063	12097.86
498.266	12450.11
498.469	12511.55
498.673	12374.34
498.876	12781.88
499.079	12855.61
499.282	12767.55
499.485	13082.94
499.689	13080.89
499.892	13349.17
500.095	13326.64
500.298	13676.85
500.501	13416.76
500.705	13900.08
500.908	14205.22
501.111	13981.99
501.314	14096.68
501.517	14627.1
501.72	14831.9
501.923	14475.56
502.126	15264.02
502.329	15096.09
502.532	15137.05
502.735	15264.02
502.938	15380.76
503.141	15646.99
503.344	15866.13
503.547	15872.27
503.75	16210.18
503.953	16550.15
504.156	16580.87
504.359	16566.53
504.562	16855.29
504.765	17340.66
504.968	17260.79
505.17	17514.74
505.373	17615.09
505.576	17795.31
505.779	17959.15
505.982	18325.74
506.185	18624.74
506.387	18469.09
506.59	18864.35
506.793	19257.56
506.996	19200.22
507.198	19595.48
507.401	19722.45
507.604	19861.71
507.807	20007.12
508.009	20084.94
508.212	20527.3
508.415	20674.76
508.617	20961.47
508.82	21139.65
509.022	20979.9
509.225	21645.49
509.428	21821.62
509.63	22053.04
509.833	21907.63
510.035	22737.06
510.238	22280.36
510.44	22831.27
510.643	23085.22
510.845	23279.77
511.048	23247.01
511.25	23527.58
511.453	23638.17
511.655	24604.81
511.858	24428.68
512.06	24596.62
512.262	24574.09
512.465	24633.48
512.667	25489.53
512.87	25673.85
513.072	25561.21
513.274	26007.67
513.477	26445.93
513.679	26372.21
513.881	26814.57
514.084	27177.06
514.286	27138.15
514.488	27469.92
514.69	28217.43
514.893	28166.23
515.095	27994.2
515.297	28432.46
515.499	28622.92
515.701	28987.46
515.904	29405.25
516.106	29188.16
516.308	29737.02
516.51	30093.36
516.712	30025.78
516.914	30529.58
517.116	31109.16
517.318	30982.18
517.52	31492.13
517.722	31576.09
517.925	31914.01
518.127	32198.68
518.329	32133.14
518.531	32421.91
518.733	32821.26
518.935	33206.28
519.136	33382.4
519.338	33765.37
519.54	33632.25
519.742	34492.4
519.944	34213.88
520.146	34777.07
520.348	34858.99
520.55	35086.31
520.752	35188.71
520.954	35813.34
521.155	35770.33
521.357	36046.81
521.559	36222.94
521.761	36921.29
521.963	36788.17
522.164	37308.36
522.366	37347.27
522.568	37939.13
522.77	38039.48
522.971	38399.93
523.173	38012.86
523.375	38623.15
523.576	38612.91
523.778	38776.75
523.98	39243.69
524.181	39276.46
524.383	39329.7
524.584	40325.02
524.786	39890.85
524.988	40146.84
525.189	40419.22
525.391	40466.33
525.592	41058.19
525.794	40804.24
525.995	40769.43
526.197	40949.65
526.398	41133.96
526.6	41779.07
526.801	41529.22
527.003	41969.54
527.204	41817.99
527.406	42502.01
527.607	42481.53
527.808	42545.01
528.01	42145.66
528.211	42258.3
528.412	43585.38
528.614	42977.14
528.815	43343.72
529.016	43655.01
529.218	42878.83
529.419	43102.06
529.62	43337.58
529.822	43605.86
530.023	43829.09
530.224	43818.85
530.425	43728.74
530.626	43624.29
530.828	43542.38
531.029	44545.88
531.23	44257.12
531.431	44066.66
531.632	44318.56
531.833	44627.8
532.035	44267.36
532.236	44107.61
532.437	44760.92
532.638	44418.91
532.839	44611.42
533.04	44740.44
533.241	44255.07
533.442	44928.85
533.643	44875.6
533.844	44511.06
534.045	44644.18
534.246	44771.16
534.447	45041.49
534.648	44523.35
534.849	44810.07
535.05	44449.63
535.251	44891.99
535.451	44738.39
535.652	45291.34
535.853	44943.19
536.054	44732.25
536.255	45215.57
536.456	44445.53
536.657	45713.22
536.857	44965.71
537.058	44785.49
537.259	45207.37
537.46	45436.75
537.66	45100.88
537.861	45152.08
538.062	45021.01
538.263	45080.4
538.463	44455.77
538.664	45068.11
538.865	45176.65
539.065	45231.95
539.266	45047.63
539.466	45383.5
539.667	44390.23
539.868	45068.11
540.068	45547.34
540.269	45172.56
540.469	45305.68
540.67	44855.12
540.87	44838.74
541.071	44691.29
541.271	45231.95
541.472	45412.17
541.672	44810.07
541.873	45080.4
542.073	44351.32
542.274	44953.43
542.474	44920.66
542.675	44443.48
542.875	45221.71
543.075	44941.14
543.276	44842.84
543.476	45178.7
543.676	44461.91
543.877	44887.89
544.077	44910.42
544.277	44660.57
544.478	44253.02
544.678	45059.92
544.878	44754.77
545.078	45166.41
545.279	44695.38
545.479	44439.39
545.679	44945.23
545.879	44724.05
546.079	44281.69
546.28	44953.43
546.48	44248.92
546.68	44910.42
546.88	44961.62
547.08	44492.63
547.28	44447.58
547.48	44210.01
547.68	44605.27
547.88	44146.53
548.081	45027.15
548.281	44826.45
548.481	44355.42
548.681	44853.08
548.881	44885.84
549.081	44494.68
549.28	44320.6
549.48	44552.02
549.68	44656.47
549.88	44996.43
550.08	44578.65
550.28	44664.66
550.48	44545.88
550.68	44975.95
550.88	44257.12
551.08	44179.29
551.279	44441.43
551.479	44193.63
551.679	44281.69
551.879	44113.76
552.079	44586.84
552.278	44238.68
552.478	44373.85
552.678	44330.84
552.878	44369.75
553.077	44216.16
553.277	44078.94
553.477	44691.29
553.676	44289.88
553.876	44248.92
554.076	43741.03
554.275	44150.62
554.475	43835.24
554.674	44105.57
554.874	44302.17
555.074	43859.81
555.273	44062.56
555.473	44269.4
555.672	43552.62
555.872	43943.78
556.071	44124
556.271	44130.14
556.47	43749.22
556.67	42952.56
556.869	43812.71
557.068	43708.26
557.268	43183.98
557.467	43196.27
557.667	43192.17
557.866	43341.67
558.065	43319.15
558.265	42911.6
558.464	42758
558.663	43396.97
558.863	42979.18
559.062	43714.4
559.261	42512.25
559.461	43679.59
559.66	42690.42
559.859	43018.1
560.058	42792.82
560.258	43255.66
560.457	42459
560.656	42970.99
560.855	42553.21
561.054	42409.85
561.253	42334.07
561.453	42866.55
561.652	42536.82
561.851	42495.86
562.05	42520.44
562.249	41803.65
562.448	42542.97
562.647	42217.34
562.846	42151.8
563.045	41934.72
563.244	41658.24
563.443	42299.26
563.642	41557.89
563.841	41879.42
564.04	41435.02
564.239	42145.66
564.438	41172.88
564.637	41561.99
564.836	41574.28
565.035	40939.41
565.234	41742.21
565.432	41404.3
565.631	41189.26
565.83	41688.96
566.029	40808.34
566.228	40603.54
566.427	41111.44
566.625	40533.91
566.824	40222.62
567.023	41017.23
567.222	40206.23
567.42	40689.56
567.619	40400.79
567.818	40112.03
568.016	40388.5
568.215	40495
568.414	40036.25
568.612	40427.42
568.811	39669.67
569.01	39964.57
569.208	39489.45
569.407	39933.85
569.605	39274.41
569.804	40005.53
570.002	39276.46
570.201	39913.37
570.4	38965.17
570.598	38672.31
570.797	38809.52
570.995	38918.06
571.193	38563.76
571.392	38862.77
571.59	38580.15
571.789	38645.68
571.987	38367.16
572.186	38264.76
572.384	38229.94
572.582	38172.6
572.781	38152.12
572.979	37961.66
573.177	38199.23
573.376	38025.15
573.574	37959.61
573.772	38174.65
573.971	37642.18
574.169	37504.96
574.367	36876.24
574.565	37834.69
574.763	37310.41
574.962	37216.2
575.16	36902.86
575.358	37271.5
575.556	36847.57
575.754	37482.44
575.952	36403.16
576.151	37074.89
576.349	36186.07
576.547	36163.54
576.745	36839.37
576.943	36259.8
577.141	35880.92
577.339	36282.33
577.537	35958.75
577.735	36093.91
577.933	35667.94
578.131	36057.05
578.329	35493.86
578.527	35338.21
578.725	35569.63
578.923	35813.34
579.121	35430.37
579.319	35479.52
579.516	35366.88
579.714	35088.36
579.912	35219.43
580.11	35008.49
580.308	34512.88
580.506	34992.11
580.704	34414.58
580.901	34742.25
581.099	34324.47
581.297	34619.38
581.495	34095.1
581.692	34418.67
581.89	33976.31
582.088	33906.68
582.285	34353.14
582.483	34031.61
582.681	33921.02
582.878	33830.91
583.076	33439.75
583.274	33789.95
583.471	33101.83
583.669	33822.72
583.866	33314.82
584.064	33378.31
584.262	32505.87
584.459	33165.32
584.657	32841.74
584.854	33308.68
585.052	32653.33
585.249	32440.34
585.447	33005.58
585.644	32495.63
585.841	32501.78
586.039	32999.43
586.236	32077.85
586.434	32108.57
586.631	31868.95
586.828	32077.85
587.026	32210.96
587.223	31907.87
587.42	31623.2
587.618	31932.44
587.815	31528.99
588.012	31387.68
588.21	31381.54
588.407	31522.85
588.604	31139.88
588.801	31010.85
588.999	31453.22
589.196	30670.89
589.393	30982.18
589.59	30988.33
589.787	30574.64
589.984	30756.91
590.182	30502.96
590.379	30656.56
590.576	30498.86
590.773	30711.85
590.97	29950.01
591.167	30021.69
591.364	29853.75
591.561	29857.85
591.758	29898.81
591.955	29921.34
592.152	29835.32
592.349	29610.04
592.546	29651
592.743	29630.52
592.94	28862.54
593.137	29413.44
593.334	29380.67
593.531	29077.57
593.727	29241.41
593.924	29360.19
594.121	28741.71
594.318	29036.61
594.515	28788.81
594.712	29032.52
594.908	28268.62
595.105	28495.95
595.302	28694.6
595.499	28500.05
595.696	28313.68
595.892	28178.51
596.089	28209.23
596.286	28049.49
596.482	27895.89
596.679	27906.13
596.876	27768.92
597.072	27557.98
597.269	27801.69
597.466	27482.2
597.662	27580.51
597.859	27271.26
598.055	27469.92
598.252	27035.75
598.448	27015.27
598.645	27394.14
598.841	27109.47
599.038	26818.66
599.234	26898.53
599.431	26601.58
599.627	26501.23
599.824	26769.51
600.02	26644.59
600.217	26261.62
600.413	26364.01
600.609	26155.12
600.806	26148.98
601.002	26026.1
601.198	25907.32
601.395	25694.33
601.591	25768.05
601.787	25899.12
601.984	25622.65
602.18	25948.28
602.376	25352.32
602.572	25266.3
602.769	25477.24
602.965	25301.12
603.161	25335.93
603.357	24946.82
603.553	24916.1
603.75	24944.77
603.946	24914.05
604.142	24856.71
604.338	24922.24
604.534	24711.3
604.73	24354.96
604.926	24295.57
605.122	24508.55
605.318	24297.61
605.514	24127.63
605.71	24436.88
605.906	24471.69
606.102	24436.88
606.298	24107.15
606.494	24033.43
606.69	24187.02
606.886	23769.24
607.082	23896.21
607.278	23576.73
607.474	23662.74
607.67	23761.05
607.866	23228.57
608.062	23691.41
608.257	23482.52
608.453	23521.43
608.649	23744.66
608.845	23310.49
609.041	23238.81
609.236	23337.12
609.432	23079.07
609.628	23048.35
609.824	23050.4
610.019	22730.92
610.215	22722.73
610.411	23044.26
610.606	23138.46
610.802	22812.84
610.998	22970.53
611.193	22792.36
611.389	22550.7
611.584	22436.01
611.78	22384.81
611.976	22530.22
612.171	22739.11
612.367	22354.09
612.562	22415.53
612.758	22286.51
612.953	21887.15
613.149	22507.69
613.344	22362.28
613.539	22405.29
613.735	22155.44
613.93	22089.9
614.126	22038.7
614.321	21950.64
614.517	21876.91
614.712	22196.4
614.907	21567.67
615.103	22057.14
615.298	21868.72
615.493	22329.52
615.688	21674.17
615.884	21780.66
616.079	21743.8
616.274	21483.7
616.47	21475.51
616.665	21608.63
616.86	21301.43
617.055	21477.56
617.25	21465.27
617.445	21360.83
617.641	21342.39
617.836	21283
618.031	20965.57
618.226	21539
618.421	21248.19
618.616	21000.38
618.811	20711.62
619.006	21088.45
619.201	20447.43
619.396	20779.2
619.591	20463.82
619.786	20431.05
619.981	20166.86
620.176	20353.23
620.371	19933.39
620.566	19984.59
620.761	20304.07
620.956	20234.44
621.151	19822.8
621.346	19953.87
621.541	19761.36
621.735	19898.58
621.93	19437.78
622.125	19624.15
622.32	19208.41
622.515	19204.31
622.709	19128.54
622.904	18987.23
623.099	18948.32
623.294	18575.59
623.488	18643.17
623.683	18696.42
623.878	18305.26
624.072	18661.6
624.267	18739.43
624.462	18610.4
624.656	18157.8
624.851	18311.4
625.046	17950.96
625.24	18077.93
625.435	17809.65
625.629	17889.52
625.824	17754.35
626.018	17617.14
626.213	17131.77
626.407	17502.45
626.602	17260.79
626.796	17281.27
626.991	17205.5
627.185	16982.27
627.38	16943.36
627.574	16836.86
627.768	16847.1
627.963	16513.28
628.157	16605.44
628.352	16343.3
628.546	16296.2
628.74	16304.39
628.935	16021.77
629.129	16390.41
629.323	16220.42
629.517	16085.26
629.712	15900.94
629.906	15640.85
630.1	15573.27
630.294	15810.83
630.489	15550.74
630.683	15442.2
630.877	15331.61
631.071	15178.01
631.265	15210.78
631.459	15182.1
631.653	14924.06
631.848	15012.12
632.042	14866.72
632.236	14922.01
632.43	14663.97
632.624	14643.49
632.818	14577.95
633.012	14188.84
633.206	14586.15
633.4	14463.27
633.594	14240.04
633.788	14362.92
633.982	14262.57
634.176	14305.57
634.369	14063.91
634.563	13900.08
634.757	14086.44
634.951	13977.9
635.145	13963.56
635.339	13642.03
635.533	13556.02
635.726	13773.1
635.92	13498.67
636.114	13394.23
636.308	13224.25
636.501	13224.25
636.695	13297.97
636.889	13078.84
637.083	13070.65
637.276	12843.32
637.47	12790.08
637.664	12712.25
637.857	12728.64
638.051	12556.61
638.244	12681.53
638.438	12474.69
638.632	12501.31
638.825	12390.72
639.019	12474.69
639.212	12097.86
639.406	12425.54
639.599	12181.83
639.793	12239.17
639.986	11848.01
640.18	11727.18
640.373	11989.32
640.567	11671.89
640.76	11788.62
640.954	11620.69
641.147	11663.69
641.34	11499.86
641.534	11499.86
641.727	11542.86
641.92	11422.03
642.114	11297.11
642.307	11374.93
642.5	11168.09
642.694	11084.12
642.887	11022.68
643.08	11188.57
643.273	10973.53
643.467	10789.21
643.66	10778.97
643.853	10815.83
644.046	10678.62
644.239	10660.19
644.432	10426.72
644.626	10604.89
644.819	10420.58
645.012	10273.12
645.205	10258.79
645.398	10260.84
645.591	10135.91
645.784	10072.42
645.977	10074.47
646.17	9955.69
646.363	9916.78
646.556	9867.63
646.749	9824.62
646.942	9769.32
647.135	9797.99
647.328	9632.11
647.521	9681.26
647.714	9623.92
647.907	9828.71
648.099	9492.85
648.292	9554.29
648.485	9474.42
648.678	9359.73
648.871	9279.86
649.064	9312.63
649.256	9378.16
649.449	9134.45
649.642	9292.15
649.835	9128.31
650.027	9081.21
650.22	8872.31
650.413	9023.86
650.605	9068.92
650.798	8806.78
650.991	8782.2
651.183	8665.47
651.376	8573.31
651.568	8728.95
651.761	8669.56
651.954	8489.34
652.146	8468.86
652.339	8491.39
652.531	8567.17
652.724	8432
652.916	8399.23
653.109	8345.98
653.301	8159.62
653.494	8350.08
653.686	7891.34
653.879	8157.57
654.071	8118.66
654.263	7971.21
654.456	7954.82
654.648	7934.34
654.84	7813.51
655.033	7934.34
655.225	7893.38
655.417	7786.89
655.61	7829.9
655.802	7764.36
655.994	7426.45
656.186	7653.77
656.379	7616.91
656.571	7498.13
656.763	7440.78
656.955	7649.68
657.148	7408.01
657.34	7512.46
657.532	7254.42
657.724	7354.77
657.916	7469.45
658.108	7432.59
658.3	7393.68
658.492	7186.83
658.684	7049.62
658.876	7182.74
659.068	7227.79
659.26	7037.33
659.452	6994.33
659.644	7047.57
659.836	6832.54
660.028	6769.05
660.22	6693.27
660.412	6830.49
660.604	6621.59
660.796	6652.31
660.988	6648.22
661.18	6637.98
661.372	6578.59
661.563	6642.07
661.755	6338.98
661.947	6564.25
662.139	6508.96
662.331	6431.13
662.522	6345.12
662.714	6566.3
662.906	6291.87
663.097	6355.36
663.289	6252.96
663.481	6226.34
663.673	6191.52
663.864	6107.55
664.056	6160.8
664.247	6250.91
664.439	5999.01
664.631	5984.68
664.822	6019.49
665.014	6082.98
665.205	5974.44
665.397	6009.25
665.588	5867.94
665.78	5822.89
665.971	5763.5
666.163	5761.45
666.354	5923.24
666.546	5829.03
666.737	5712.3
666.929	5853.61
667.12	5599.66
667.311	5775.78
667.503	5501.36
667.694	5562.8
667.885	5527.98
668.077	5536.17
668.268	5454.25
668.459	5474.73
668.651	5390.77
668.842	5396.91
669.033	5507.5
669.224	5366.19
669.416	5462.44
669.607	5327.28
669.798	5392.81
669.989	5280.18
670.18	5380.53
670.371	5335.47
670.563	5134.77
670.754	5204.4
670.945	5149.11
671.136	5009.84
671.327	5185.97
671.518	5249.46
671.709	4977.08
671.9	5124.53
672.091	4999.6
672.282	4997.56
672.473	4917.68
672.664	4895.16
672.855	4975.03
673.046	4868.53
673.237	4956.6
673.428	4999.6
673.619	5048.75
673.809	4891.06
674	4901.3
674.191	4874.68
674.382	4796.85
674.573	4829.62
674.764	4880.82
674.954	4929.97
675.145	4692.41
675.336	4878.77
675.527	4753.85
675.717	4868.53
675.908	4590.01
676.099	4712.89
676.289	4762.04
676.48	4628.92
676.671	4592.06
676.861	4759.99
677.052	4581.82
677.243	4731.32
677.433	4530.62
677.624	4749.75
677.814	4639.16
678.005	4704.7
678.195	4553.15
678.386	4645.31
678.576	4551.1
678.767	4481.47
678.957	4585.91
679.148	4626.87
679.338	4454.84
679.529	4579.77
679.719	4452.8
679.909	4563.39
680.1	4454.84
680.29	4377.02
680.481	4436.41
680.671	4415.93
680.861	4342.21
681.052	4444.6
681.242	4430.27
681.432	4354.49
681.622	4272.57
681.813	4278.72
682.003	4491.71
682.193	4245.95
682.383	4436.41
682.573	4325.82
682.764	4243.9
682.954	4383.17
683.144	4325.82
683.334	4325.82
683.524	4381.12
683.714	4395.45
683.904	4377.02
684.094	4286.91
684.284	4385.21
684.474	4248
684.664	4258.24
684.854	4348.35
685.044	4235.71
685.234	4194.75
685.424	4213.18
685.614	4233.66
685.804	4037.06
685.994	4172.22
686.184	4170.18
686.374	4184.51
686.564	4239.81
686.753	4145.6
686.943	4051.39
687.133	4157.89
687.323	4006.34
687.513	4098.5
687.702	4006.34
687.892	3959.24
688.082	3871.17
688.272	4032.96
688.461	3817.93
688.651	3897.8
688.841	3989.96
689.03	3887.56
689.22	3838.41
689.41	4078.02
689.599	3940.8
689.789	3957.19
689.979	3910.08
690.168	3885.51
690.358	3930.56
690.547	3897.8
690.737	3766.73
690.926	3848.65
691.116	3738.05
691.305	3776.97
691.495	3572.17
691.684	3801.54
691.874	3740.1
692.063	3584.46
692.252	3604.94
692.442	3557.83
692.631	3729.86
692.82	3680.71
693.01	3621.32
693.199	3649.99
693.388	3672.52
693.578	3514.83
693.767	3617.22
693.956	3647.94
694.146	3590.6
694.335	3510.73
694.524	3412.43
694.713	3506.63
694.902	3488.2
695.092	3529.16
695.281	3551.69
695.47	3498.44
695.659	3463.63
695.848	3537.35
696.037	3475.91
696.226	3305.93
696.415	3418.57
696.604	3416.52
696.793	3441.1
696.982	3387.85
697.171	3475.91
697.36	3361.23
697.549	3277.26
697.738	3301.84
697.927	3385.8
698.116	3246.54
698.305	3457.48
698.494	3414.48
698.683	3389.9
698.872	3416.52
699.061	3246.54
699.25	3344.84
699.438	3529.16
699.627	3361.23
699.816	3305.93
700.005	3322.32
700.193	3279.31
700.382	3371.47
700.571	3361.23
700.76	3269.07
700.948	3336.65
701.137	3283.41
701.326	3275.21
701.514	3301.84
701.703	3269.07
701.892	3140.05
702.08	3291.6
702.269	3328.46
702.457	3185.1
702.646	3248.59
702.834	3314.13
703.023	3230.16
703.212	3146.19
703.4	3207.63
703.589	3226.06
703.777	3232.21
703.965	3219.92
704.154	3209.68
704.342	3082.7
704.531	3291.6
704.719	3170.77
704.907	3215.82
705.096	3150.29
705.284	3156.43
705.472	3101.14
705.661	3199.44
705.849	3328.46
706.037	3228.11
706.226	3160.53
706.414	3205.58
706.602	3099.09
706.79	3135.95
706.979	3183.06
707.167	3199.44
707.355	3142.1
707.543	3168.72
707.731	3008.98
707.919	2998.74
708.107	3166.67
708.296	3273.17
708.484	3154.38
708.672	3152.34
708.86	3176.91
709.048	3138
709.236	3121.62
709.424	3119.57
709.612	3111.38
709.8	3267.02
709.988	2976.21
710.176	3154.38
710.364	3178.96
710.551	3070.42
710.739	3160.53
710.927	3283.41
711.115	3226.06
711.303	3131.86
711.491	3133.9
711.679	3183.06
711.866	3142.1
712.054	3154.38
712.242	3127.76
712.43	3164.62
712.617	3191.25
712.805	3117.52
712.993	3140.05
713.181	3035.6
713.368	3111.38
713.556	3160.53
713.744	3129.81
713.931	3236.3
714.119	3088.85
714.306	3291.6
714.494	3168.72
714.682	3129.81
714.869	3051.99
715.057	3176.91
715.244	2978.26
715.432	3252.69
715.619	3125.71
715.807	3029.46
715.994	3068.37
716.182	3107.28
716.369	3138
716.556	3027.41
716.744	2980.31
716.931	3140.05
717.119	3090.9
717.306	3135.95
717.493	3115.47
717.681	3094.99
717.868	3133.9
718.055	3244.49
718.242	3090.9
718.43	3113.42
718.617	3205.58
718.804	3080.66
718.991	3094.99
719.179	3002.83
719.366	3094.99
719.553	3117.52
719.74	3178.96
719.927	3082.7
720.114	3152.34
720.301	3000.79
720.488	2871.76
720.676	3086.8
720.863	3070.42
721.05	3109.33
721.237	3033.55
721.424	3140.05
721.611	3086.8
721.798	3111.38
721.985	3076.56
722.172	3070.42
722.358	2990.55
722.545	3041.75
722.732	3121.62
722.919	3113.42
723.106	2986.45
723.293	3101.14
723.48	3119.57
723.667	3123.66
723.853	3090.9
724.04	3023.31
724.227	3039.7
724.414	3226.06
724.6	3117.52
724.787	3017.17
724.974	3062.23
725.161	2961.87
725.347	2947.54
725.534	2959.83
725.72	3092.94
725.907	3058.13
726.094	2986.45
726.28	3039.7
726.467	2839
726.653	2896.34
726.84	3193.3
727.027	2992.59
727.213	2867.67
727.4	3133.9
727.586	3109.33
727.773	3076.56
727.959	3092.94
728.145	2984.4
728.332	3015.12
728.518	3123.66
728.705	3041.75
728.891	3045.84
729.077	3103.18
729.264	3004.88
729.45	2945.49
729.636	3099.09
729.823	2890.2
730.009	3049.94
730.195	2929.11
730.382	3076.56
730.568	2906.58
730.754	3000.79
730.94	2974.16
731.126	3082.7
731.313	2961.87
731.499	3013.07
731.685	2929.11
731.871	2867.67
732.057	2976.21
732.243	3099.09
732.429	2927.06
732.615	2943.44
732.801	3080.66
732.987	2943.44
733.173	2986.45
733.359	3037.65
733.545	2828.76
733.731	2892.24
733.917	2859.48
734.103	2859.48
734.289	2939.35
734.475	2980.31
734.661	3097.04
734.847	2877.91
735.033	2941.4
735.219	2867.67
735.404	2980.31
735.59	2902.48
735.776	3002.83
735.962	2882
736.148	3045.84
736.333	3013.07
736.519	2849.24
736.705	2943.44
736.89	2949.59
737.076	2875.86
737.262	2834.9
737.447	2804.18
737.633	2910.68
737.819	2927.06
738.004	2877.91
738.19	2800.09
738.375	2828.76
738.561	2904.53
738.747	2839
738.932	2806.23
739.118	2845.14
739.303	2851.28
739.489	2904.53
739.674	2800.09
739.859	2845.14
740.045	2804.18
740.23	2863.57
740.416	2791.89
740.601	2845.14
740.786	2791.89
740.972	2726.36
741.157	2752.98
741.342	2783.7
741.528	2693.59
741.713	2599.38
741.898	2728.41
742.084	2564.57
742.269	2720.21
742.454	2658.78
742.639	2578.9
742.824	2761.17
743.01	2617.82
743.195	2652.63
743.38	2546.14
743.565	2722.26
743.75	2640.34
743.935	2496.99
744.12	2589.14
744.305	2603.48
744.49	2572.76
744.675	2505.18
744.86	2484.7
745.045	2505.18
745.23	2451.93
745.415	2558.42
745.6	2570.71
745.785	2439.64
745.97	2398.68
746.155	2515.42
746.34	2408.92
746.525	2331.1
746.71	2464.22
746.895	2376.16
747.079	2382.3
747.264	2314.72
747.449	2370.01
747.634	2339.29
747.819	2343.39
748.003	2296.28
748.188	2273.76
748.373	2304.48
748.557	2243.04
748.742	2347.48
748.927	2189.79
749.111	2240.99
749.296	2157.02
749.481	2128.35
749.665	2230.75
749.85	2083.3
750.034	2191.84
750.219	2087.39
750.404	2183.65
750.588	2007.52
750.773	2107.87
750.957	2118.11
751.141	2075.1
751.326	2079.2
751.51	2064.86
751.695	1927.65
751.879	1999.33
752.064	2028
752.248	1962.47
752.432	1944.03
752.617	2044.38
752.801	1896.93
752.985	1931.75
753.17	1946.08
753.354	1923.55
753.538	1944.03
753.722	1849.83
753.907	1915.36
754.091	1833.44
754.275	1839.59
754.459	1872.36
754.643	1786.34
754.828	1769.96
755.012	1751.53
755.196	1718.76
755.38	1817.06
755.564	1757.67
755.748	1751.53
755.932	1722.85
756.116	1700.33
756.3	1661.41
756.484	1679.85
756.668	1657.32
756.852	1634.79
757.036	1589.74
757.22	1614.31
757.404	1632.74
757.588	1698.28
757.772	1632.74
757.956	1593.83
758.14	1571.3
758.323	1556.97
758.507	1532.39
758.691	1636.84
758.875	1593.83
759.059	1554.92
759.242	1530.34
759.426	1423.85
759.61	1483.24
759.794	1473
759.977	1538.54
760.161	1440.23
760.345	1511.91
760.528	1460.71
760.712	1415.66
760.895	1372.65
761.079	1473
761.263	1391.08
761.446	1382.89
761.63	1386.99
761.813	1354.22
761.997	1348.08
762.18	1399.27
762.364	1419.75
762.547	1438.19
762.731	1427.95
762.914	1360.36
763.098	1298.92
763.281	1348.08
763.464	1384.94
763.648	1249.77
763.831	1407.47
764.015	1370.6
764.198	1235.44
764.381	1317.36
764.564	1280.49
764.748	1321.45
764.931	1290.73
765.114	1253.87
765.297	1352.17
765.481	1231.34
765.664	1337.84
765.847	1188.33
766.03	1337.84
766.213	1188.33
766.397	1157.61
766.58	1143.28
766.763	1253.87
766.946	1171.95
767.129	1223.15
767.312	1192.43
767.495	1241.58
767.678	1212.91
767.861	1188.33
768.044	1243.63
768.227	1145.33
768.41	1110.51
768.593	1141.23
768.776	1151.47
768.959	1114.61
769.142	1165.81
769.324	1149.42
769.507	1120.75
769.69	1118.7
769.873	1155.57
770.056	1100.27
770.239	1067.5
770.421	1120.75
770.604	1167.85
770.787	1044.98
770.97	1126.89
771.152	1145.33
771.335	1020.4
771.518	1161.71
771.7	1092.08
771.883	1108.46
772.066	1022.45
772.248	1090.03
772.431	1034.74
772.613	1083.89
772.796	1073.65
772.978	1171.95
773.161	1008.11
773.343	1038.83
773.526	981.49
773.708	1004.02
773.891	1079.79
774.073	893.43
774.256	1090.03
774.438	995.82
774.621	989.68
774.803	1016.3
774.985	1014.26
775.168	954.87
775.35	938.48
775.532	975.35
775.715	877.04
775.897	907.76
776.079	887.28
776.261	926.19
776.444	926.19
776.626	848.37
776.808	920.05
776.99	868.85
777.173	879.09
777.355	848.37
777.537	842.23
777.719	872.95
777.901	772.6
778.083	840.18
778.265	764.4
778.447	795.12
778.629	754.16
778.811	793.08
778.993	778.74
779.175	860.66
779.357	819.7
779.539	817.65
779.721	821.75
779.903	819.7
780.085	727.54
780.267	711.16
780.449	684.53
780.631	825.84
780.812	760.31
780.994	770.55
781.176	760.31
781.358	694.77
781.54	692.73
781.721	682.49
781.903	653.81
782.085	659.96
782.267	756.21
782.448	717.3
782.63	727.54
782.812	637.43
782.993	608.76
783.175	657.91
783.357	616.95
783.538	672.25
783.72	666.1
783.901	696.82
784.083	631.29
784.264	619
784.446	541.18
784.627	655.86
784.809	594.42
784.99	655.86
785.172	647.67
785.353	596.47
785.535	561.66
785.716	573.94
785.897	516.6
786.079	584.18
786.26	606.71
786.441	481.78
786.623	508.41
786.804	485.88
786.985	582.14
787.167	412.15
787.348	524.79
787.529	500.22
787.71	535.03
787.891	528.89
788.073	494.07
788.254	514.55
788.435	465.4
788.616	459.26
788.797	469.5
788.978	492.02
789.159	420.35
789.34	549.37
789.522	424.44
789.703	477.69
789.884	385.53
790.065	444.92
790.246	524.79
790.427	543.22
790.607	469.5
790.788	424.44
790.969	442.87
791.15	467.45
791.331	451.07
791.512	442.87
791.693	449.02
791.874	412.15
792.054	434.68
792.235	424.44
792.416	336.38
792.597	397.82
792.778	408.06
792.958	500.22
793.139	453.11
793.32	410.11
793.5	465.4
793.681	457.21
793.862	408.06
794.042	430.59
794.223	330.23
794.404	324.09
794.584	338.43
794.765	317.95
794.945	424.44
795.126	303.61
795.306	397.82
795.487	383.48
795.667	377.34
795.848	350.71
796.028	363
796.209	354.81
796.389	379.39
796.57	352.76
796.75	322.04
796.93	406.01
797.111	369.15
797.291	389.63
797.471	369.15
797.652	272.89
797.832	444.92
798.012	428.54
798.192	293.37
798.373	266.75
798.553	352.76
798.733	313.85
798.913	324.09
799.093	360.95
799.274	309.76
799.454	317.95
799.634	348.67
799.814	338.43
799.994	338.43
800.174	365.05
800.354	322.04
800.534	299.52
800.714	305.66
800.894	287.23
801.074	293.37
801.254	270.84
801.434	264.7
801.614	342.52
801.794	279.04
801.974	657.91
802.154	315.9
802.334	324.09
802.514	274.94
802.693	266.75
802.873	291.32
803.053	338.43
803.233	373.24
803.413	274.94
803.592	276.99
803.772	281.08
803.952	211.45
804.131	328.19
804.311	348.67
804.491	291.32
804.67	330.23
804.85	203.26
805.03	262.65
805.209	264.7
805.389	242.17
805.568	229.88
805.748	244.22
805.928	324.09
806.107	262.65
806.287	244.22
806.466	250.36
806.646	291.32
806.825	330.23
807.004	252.41
807.184	199.16
807.363	274.94
807.543	254.46
807.722	274.94
807.901	203.26
808.081	231.93
808.26	225.79
808.439	272.89
808.619	258.56
808.798	246.27
808.977	195.07
809.156	274.94
809.336	199.16
809.515	270.84
809.694	199.16
809.873	211.45
810.052	201.21
810.231	221.69
810.411	244.22
810.59	238.08
810.769	195.07
810.948	248.32
811.127	227.84
811.306	190.97
811.485	184.83
811.664	233.98
811.843	207.36
812.022	211.45
812.201	168.45
812.38	168.45
812.559	211.45
812.737	219.64
812.916	254.46
813.095	190.97
813.274	217.6
813.453	172.54
813.632	123.39
813.811	199.16
813.989	143.87
814.168	203.26
814.347	217.6
814.526	231.93
814.704	182.78
814.883	279.04
815.062	195.07
815.24	201.21
815.419	219.64
815.598	195.07
815.776	186.88
815.955	219.64
816.133	180.73
816.312	184.83
816.49	180.73
816.669	244.22
816.847	227.84
817.026	174.59
817.204	236.03
817.383	133.63
817.561	123.39
817.74	252.41
817.918	197.12
818.097	160.25
818.275	133.63
818.453	158.21
818.632	113.15
818.81	135.68
818.988	176.64
819.167	150.01
819.345	178.69
819.523	129.53
819.701	162.3
819.879	211.45
820.058	166.4
820.236	174.59
820.414	250.36
820.592	178.69
820.77	172.54
820.948	129.53
821.127	57.86
821.305	131.58
821.483	225.79
821.661	244.22
821.839	170.49
822.017	201.21
822.195	166.4
822.373	188.93
822.551	174.59
822.729	229.88
822.907	197.12
823.085	143.87
823.262	168.45
823.44	205.31
823.618	168.45
823.796	127.49
823.974	145.92
824.152	133.63
824.329	135.68
824.507	113.15
824.685	156.16
824.863	107.01
825.04	178.69
825.218	25.09
825.396	107.01
825.574	143.87
825.751	193.02
825.929	170.49
826.107	57.86
826.284	231.93
826.462	121.34
826.639	197.12
826.817	164.35
826.994	129.53
827.172	57.86
827.349	197.12
827.527	57.86
827.704	160.25
827.882	188.93
828.059	195.07
828.237	131.58
828.414	160.25
828.591	158.21
828.769	111.1
828.946	41.47
829.124	201.21
829.301	121.34
829.478	80.38
829.655	150.01
829.833	176.64
830.01	139.77
830.187	100.86
830.364	117.25
830.542	137.73
830.719	88.57
830.896	152.06
831.073	133.63
831.25	131.58
831.427	107.01
831.604	117.25
831.782	84.48
831.959	160.25
832.136	127.49
832.313	201.21
832.49	125.44
832.667	78.33
832.844	102.91
833.021	90.62
833.198	156.16
833.374	109.05
833.551	68.09
833.728	55.81
833.905	121.34
834.082	100.86
834.259	113.15
834.436	119.29
834.612	123.39
834.789	80.38
834.966	104.96
835.143	96.77
835.319	107.01
835.496	135.68
835.673	107.01
835.85	86.53
836.026	88.57
836.203	168.45
836.38	143.87
836.556	115.2
836.733	80.38
836.909	53.76
837.086	127.49
837.262	72.19
837.439	119.29
837.616	-1.54
837.792	129.53
837.968	137.73
838.145	113.15
838.321	96.77
838.498	104.96
838.674	104.96
838.851	92.67
839.027	35.33
839.203	45.57
839.38	209.4
839.556	152.06
839.732	66.05
839.909	98.81
840.085	70.14
840.261	92.67
840.437	70.14
840.614	64
840.79	127.49
840.966	49.66
841.142	141.82
841.318	78.33
841.494	127.49
841.671	90.62
841.847	66.05
842.023	115.2
842.199	74.24
842.375	49.66
842.551	45.57
842.727	55.81
842.903	82.43
843.079	84.48
843.255	145.92
843.431	80.38
843.607	98.81
843.783	49.66
843.959	76.29
844.134	45.57
844.31	88.57
844.486	47.62
844.662	78.33
844.838	90.62
845.013	6.66
845.189	53.76
845.365	107.01
845.541	16.9
845.716	154.11
845.892	74.24
846.068	61.95
846.244	12.8
846.419	92.67
846.595	88.57
846.77	45.57
846.946	47.62
847.122	92.67
847.297	109.05
847.473	109.05
847.648	-3.58
847.824	59.9
847.999	8.7
848.175	33.28
848.35	10.75
848.526	147.97
848.701	23.04
848.876	39.42
849.052	80.38
849.227	31.23
849.403	66.05
849.578	45.57
849.753	68.09
849.929	86.53
850.104	102.91
850.279	127.49
850.454	100.86
850.63	86.53
850.805	39.42
850.98	72.19
851.155	78.33
851.33	39.42
851.505	35.33
851.681	88.57
851.856	-15.87
852.031	82.43
852.206	43.52
852.381	78.33
852.556	12.8
852.731	86.53
852.906	-30.21
853.081	-19.97
853.256	70.14
853.431	107.01
853.606	-1.54
853.781	47.62
853.956	-9.73
854.131	96.77
854.305	20.99
854.48	66.05
854.655	90.62
854.83	12.8
855.005	51.71
855.18	35.33
855.354	80.38
855.529	10.75
855.704	-5.63
855.879	35.33
856.053	74.24
856.228	125.44
856.403	43.52
856.577	123.39
856.752	39.42
856.926	107.01
857.101	10.75
857.276	61.95
857.45	20.99
857.625	53.76
857.799	59.9
857.974	96.77
858.148	18.94
858.323	23.04
858.497	45.57
858.672	80.38
858.846	20.99
859.02	12.8
859.195	51.71
859.369	74.24
859.543	51.71
859.718	59.9
859.892	37.38
860.066	90.62
860.241	111.1
860.415	78.33
860.589	-17.92
860.763	68.09
860.938	31.23
861.112	33.28
861.286	86.53
861.46	47.62
861.634	12.8
861.808	68.09
861.982	37.38
862.157	-77.31
862.331	23.04
862.505	64
862.679	74.24
862.853	84.48
863.027	-30.21
863.201	139.77
863.375	14.85
863.549	47.62
863.722	-7.68
863.896	107.01
864.07	-3.58
864.244	41.47
864.418	78.33
864.592	49.66
864.766	27.14
864.939	119.29
865.113	31.23
865.287	2.56
865.461	94.72
865.634	53.76
865.808	39.42
865.982	80.38
866.156	72.19
866.329	41.47
866.503	90.62
866.676	27.14
866.85	55.81
867.024	39.42
867.197	-5.63
867.371	18.94
867.544	6.66
867.718	41.47
867.891	31.23
868.065	82.43
868.238	55.81
868.412	35.33
868.585	55.81
868.759	27.14
868.932	27.14
869.105	86.53
869.279	47.62
869.452	82.43
869.625	57.86
869.799	31.23
869.972	-56.83
870.145	12.8
870.319	68.09
870.492	-36.35
870.665	45.57
870.838	23.04
871.011	-79.36
871.185	23.04
871.358	113.15
871.531	96.77
871.704	51.71
871.877	119.29
872.05	2.56
872.223	25.09
872.396	51.71
872.569	78.33
872.742	23.04
872.915	66.05
873.088	10.75
873.261	84.48
873.434	41.47
873.607	10.75
873.78	100.86
873.953	12.8
874.126	59.9
874.299	41.47
874.471	43.52
874.644	0.51
874.817	80.38
874.99	14.85
875.163	6.66
875.335	72.19
875.508	47.62
875.681	84.48
875.853	43.52
876.026	25.09
876.199	-11.78
876.371	-1.54
876.544	-42.5
876.717	14.85
876.889	4.61
877.062	74.24
877.234	0.51
877.407	59.9
877.579	25.09
877.752	-5.63
877.924	76.29
878.097	41.47
878.269	-13.82
878.442	41.47
878.614	55.81
878.786	-9.73
878.959	82.43
879.131	104.96
879.303	39.42
879.476	64
879.648	76.29
879.82	2.56
879.993	-1.54
880.165	29.18
880.337	41.47
880.509	20.99
880.681	37.38
880.854	-67.07
881.026	35.33
881.198	29.18
881.37	47.62
881.542	27.14
881.714	39.42
881.886	64
882.058	0.51
882.23	18.94
882.402	8.7
882.574	4.61
882.746	66.05
882.918	6.66
883.09	18.94
883.262	-1.54
883.434	14.85
883.606	53.76
883.778	12.8
883.95	47.62
884.122	23.04
884.293	12.8
884.465	-11.78
884.637	55.81
884.809	59.9
884.98	0.51
885.152	-30.21
885.324	96.77
885.496	-13.82
885.667	72.19
885.839	14.85
886.011	31.23
886.182	127.49
886.354	20.99
886.525	72.19
886.697	59.9
886.869	-58.88
887.04	-3.58
887.212	68.09
887.383	127.49
887.555	61.95
887.726	68.09
887.897	4.61
888.069	-9.73
888.24	107.01
888.412	-24.06
888.583	0.51
888.754	-9.73
888.926	59.9
889.097	-5.63
889.268	-7.68
889.44	29.18
889.611	-36.35
889.782	-19.97
889.953	14.85
890.125	33.28
890.296	6.66
890.467	-7.68
890.638	2.56
890.809	-38.4
890.98	-38.4
891.151	64
891.323	-1.54
891.494	8.7
891.665	18.94
891.836	45.57
892.007	-5.63
892.178	16.9
892.349	33.28
892.52	-62.98
892.691	-24.06
892.862	27.14
893.032	-17.92
893.203	59.9
893.374	41.47
893.545	82.43
893.716	-9.73
893.887	10.75
894.057	-11.78
894.228	20.99
894.399	37.38
894.57	104.96
894.74	68.09
894.911	113.15
895.082	-5.63
895.253	127.49
895.423	33.28
895.594	51.71
895.764	72.19
895.935	6.66
896.106	66.05
896.276	12.8
896.447	61.95
896.617	-46.59
896.788	-5.63
896.958	80.38
897.129	-24.06
897.299	20.99
897.47	78.33
897.64	80.38
897.81	49.66
897.981	6.66
898.151	2.56
898.322	51.71
898.492	41.47
898.662	57.86
898.832	29.18
899.003	-5.63
899.173	55.81
899.343	-7.68
899.513	-46.59
