Data from USB4F104151__22__11-51-27-709.txt Node

Date: Fri Mar 14 11:51:27 EDT 2025
User: louis
Spectrometer: USB4F10415
Trigger mode: 4
Integration Time (sec): 2.000000E-2
Scans to average: 1
Electric dark correction enabled: true
Nonlinearity correction enabled: false
Boxcar width: 0
XAxis mode: Wavelengths
Number of Pixels in Spectrum: 3648
>>>>>Begin Spectral Data<<<<<
178.204	-89.43
178.424	-89.43
178.644	-89.43
178.864	-89.43
179.084	-48.47
179.304	29.35
179.524	53.93
179.744	-3.41
179.964	-30.04
180.184	25.26
180.404	33.45
180.624	-9.56
180.844	33.45
181.064	-85.33
181.283	-19.8
181.503	-23.89
181.723	-3.41
181.943	-40.28
182.163	17.07
182.383	0.68
182.602	78.51
182.822	37.55
183.042	-7.51
183.262	41.64
183.482	4.78
183.701	6.83
183.921	27.31
184.141	-79.19
184.361	103.08
184.58	131.75
184.8	43.69
185.02	-40.28
185.239	12.97
185.459	-44.37
185.679	43.69
185.898	-13.65
186.118	15.02
186.338	6.83
186.557	-17.75
186.777	31.4
186.997	70.31
187.216	-5.46
187.436	12.97
187.655	12.97
187.875	-17.75
188.095	25.26
188.314	-58.71
188.534	62.12
188.753	53.93
188.973	58.03
189.192	35.5
189.412	31.4
189.631	15.02
189.851	-5.46
190.07	45.74
190.29	6.83
190.509	84.65
190.729	41.64
190.948	-23.89
191.168	119.46
191.387	76.46
191.607	86.7
191.826	-9.56
192.045	-42.32
192.265	17.07
192.484	10.92
192.704	6.83
192.923	2.73
193.142	117.42
193.362	29.35
193.581	51.88
193.8	82.6
194.02	47.79
194.239	60.07
194.458	29.35
194.678	39.59
194.897	10.92
195.116	8.87
195.335	47.79
195.555	49.83
195.774	-7.51
195.993	8.87
196.212	49.83
196.432	47.79
196.651	-36.18
196.87	94.89
197.089	96.94
197.308	68.27
197.528	8.87
197.747	55.98
197.966	53.93
198.185	-15.7
198.404	-17.75
198.623	-44.37
198.842	94.89
199.062	72.36
199.281	101.03
199.5	55.98
199.719	70.31
199.938	25.26
200.157	47.79
200.376	41.64
200.595	45.74
200.814	43.69
201.033	-9.56
201.252	84.65
201.471	2.73
201.69	92.84
201.909	6.83
202.128	-7.51
202.347	27.31
202.566	45.74
202.785	-13.65
203.004	25.26
203.223	31.4
203.442	15.02
203.661	-34.13
203.879	-30.04
204.098	19.11
204.317	41.64
204.536	72.36
204.755	0.68
204.974	72.36
205.193	-15.7
205.411	43.69
205.63	47.79
205.849	-23.89
206.068	37.55
206.287	19.11
206.505	-25.94
206.724	-11.61
206.943	92.84
207.162	12.97
207.381	41.64
207.599	6.83
207.818	68.27
208.037	127.66
208.255	25.26
208.474	29.35
208.693	80.55
208.911	49.83
209.13	35.5
209.349	88.75
209.567	27.31
209.786	92.84
210.005	35.5
210.223	12.97
210.442	27.31
210.661	68.27
210.879	-32.08
211.098	0.68
211.316	-56.66
211.535	43.69
211.753	74.41
211.972	0.68
212.191	-25.94
212.409	68.27
212.628	-40.28
212.846	-1.37
213.065	-3.41
213.283	43.69
213.502	-9.56
213.72	92.84
213.938	-25.94
214.157	-17.75
214.375	33.45
214.594	37.55
214.812	64.17
215.031	53.93
215.249	53.93
215.467	45.74
215.686	15.02
215.904	92.84
216.122	27.31
216.341	92.84
216.559	31.4
216.778	25.26
216.996	21.16
217.214	43.69
217.432	2.73
217.651	-5.46
217.869	60.07
218.087	29.35
218.306	53.93
218.524	76.46
218.742	55.98
218.96	80.55
219.179	21.16
219.397	-58.71
219.615	49.83
219.833	43.69
220.051	8.87
220.27	101.03
220.488	49.83
220.706	25.26
220.924	-19.8
221.142	19.11
221.36	98.99
221.578	41.64
221.796	31.4
222.015	62.12
222.233	82.6
222.451	-19.8
222.669	15.02
222.887	66.22
223.105	0.68
223.323	64.17
223.541	-9.56
223.759	-52.56
223.977	21.16
224.195	66.22
224.413	37.55
224.631	-15.7
224.849	68.27
225.067	139.94
225.285	4.78
225.503	141.99
225.721	-48.47
225.939	10.92
226.157	10.92
226.375	150.18
226.592	31.4
226.81	53.93
227.028	66.22
227.246	53.93
227.464	64.17
227.682	37.55
227.9	2.73
228.117	113.32
228.335	47.79
228.553	74.41
228.771	35.5
228.989	12.97
229.206	94.89
229.424	31.4
229.642	37.55
229.86	4.78
230.077	98.99
230.295	2.73
230.513	88.75
230.731	47.79
230.948	19.11
231.166	8.87
231.384	10.92
231.601	8.87
231.819	-17.75
232.037	43.69
232.254	4.78
232.472	21.16
232.689	12.97
232.907	58.03
233.125	0.68
233.342	-7.51
233.56	-58.71
233.777	41.64
233.995	-27.99
234.213	101.03
234.43	49.83
234.648	43.69
234.865	39.59
235.083	4.78
235.3	-11.61
235.518	29.35
235.735	-38.23
235.953	125.61
236.17	-42.32
236.388	12.97
236.605	10.92
236.822	121.51
237.04	17.07
237.257	-3.41
237.475	-40.28
237.692	105.13
237.909	10.92
238.127	12.97
238.344	-1.37
238.562	27.31
238.779	-19.8
238.996	-3.41
239.214	23.21
239.431	-17.75
239.648	33.45
239.865	58.03
240.083	62.12
240.3	113.32
240.517	-11.61
240.735	60.07
240.952	55.98
241.169	98.99
241.386	60.07
241.603	82.6
241.821	-52.56
242.038	29.35
242.255	31.4
242.472	-3.41
242.689	21.16
242.907	8.87
243.124	-3.41
243.341	-73.04
243.558	47.79
243.775	-42.32
243.992	0.68
244.209	-3.41
244.426	53.93
244.643	119.46
244.86	53.93
245.078	-11.61
245.295	29.35
245.512	53.93
245.729	74.41
245.946	84.65
246.163	58.03
246.38	8.87
246.597	35.5
246.814	45.74
247.031	41.64
247.248	-3.41
247.464	25.26
247.681	-1.37
247.898	70.31
248.115	66.22
248.332	-11.61
248.549	92.84
248.766	62.12
248.983	-66.9
249.2	45.74
249.417	109.23
249.633	-3.41
249.85	92.84
250.067	35.5
250.284	23.21
250.501	49.83
250.717	62.12
250.934	-23.89
251.151	-23.89
251.368	96.94
251.585	41.64
251.801	6.83
252.018	-21.84
252.235	94.89
252.451	53.93
252.668	39.59
252.885	66.22
253.102	15.02
253.318	33.45
253.535	45.74
253.752	47.79
253.968	8.87
254.185	-21.84
254.401	23.21
254.618	33.45
254.835	45.74
255.051	39.59
255.268	10.92
255.484	6.83
255.701	109.23
255.917	10.92
256.134	-83.28
256.351	39.59
256.567	70.31
256.784	29.35
257	39.59
257.217	51.88
257.433	33.45
257.65	25.26
257.866	29.35
258.082	74.41
258.299	17.07
258.515	12.97
258.732	76.46
258.948	-58.71
259.165	-17.75
259.381	86.7
259.597	0.68
259.814	23.21
260.03	-46.42
260.246	-42.32
260.463	-27.99
260.679	76.46
260.895	4.78
261.112	19.11
261.328	-13.65
261.544	2.73
261.761	10.92
261.977	60.07
262.193	10.92
262.409	-7.51
262.626	88.75
262.842	43.69
263.058	64.17
263.274	64.17
263.49	21.16
263.707	146.09
263.923	19.11
264.139	-23.89
264.355	33.45
264.571	94.89
264.787	41.64
265.004	-15.7
265.22	29.35
265.436	19.11
265.652	49.83
265.868	96.94
266.084	-23.89
266.3	-5.46
266.516	21.16
266.732	53.93
266.948	-7.51
267.164	17.07
267.38	-3.41
267.596	0.68
267.812	68.27
268.028	66.22
268.244	-40.28
268.46	123.56
268.676	-1.37
268.892	82.6
269.108	-36.18
269.324	55.98
269.54	37.55
269.756	29.35
269.972	-58.71
270.188	45.74
270.403	25.26
270.619	-13.65
270.835	6.83
271.051	68.27
271.267	49.83
271.483	4.78
271.698	-23.89
271.914	41.64
272.13	41.64
272.346	19.11
272.562	15.02
272.777	-54.61
272.993	-27.99
273.209	19.11
273.425	19.11
273.64	10.92
273.856	-3.41
274.072	62.12
274.287	15.02
274.503	55.98
274.719	105.13
274.934	74.41
275.15	-5.46
275.366	58.03
275.581	8.87
275.797	53.93
276.012	-25.94
276.228	2.73
276.444	-9.56
276.659	43.69
276.875	47.79
277.09	123.56
277.306	51.88
277.521	45.74
277.737	-58.71
277.952	37.55
278.168	37.55
278.383	55.98
278.599	-21.84
278.814	12.97
279.03	-25.94
279.245	78.51
279.461	43.69
279.676	8.87
279.892	-13.65
280.107	25.26
280.322	17.07
280.538	-27.99
280.753	162.47
280.969	39.59
281.184	10.92
281.399	17.07
281.615	15.02
281.83	43.69
282.045	-5.46
282.26	55.98
282.476	-34.13
282.691	62.12
282.906	41.64
283.122	35.5
283.337	43.69
283.552	92.84
283.767	72.36
283.983	43.69
284.198	-17.75
284.413	70.31
284.628	-21.84
284.843	15.02
285.058	33.45
285.274	-3.41
285.489	74.41
285.704	17.07
285.919	64.17
286.134	53.93
286.349	15.02
286.564	19.11
286.779	8.87
286.995	-3.41
287.21	55.98
287.425	-11.61
287.64	25.26
287.855	35.5
288.07	41.64
288.285	-7.51
288.5	82.6
288.715	-34.13
288.93	66.22
289.145	35.5
289.36	31.4
289.575	53.93
289.79	53.93
290.004	-38.23
290.219	-7.51
290.434	15.02
290.649	-66.9
290.864	29.35
291.079	45.74
291.294	70.31
291.509	-44.37
291.724	74.41
291.938	37.55
292.153	4.78
292.368	-48.47
292.583	33.45
292.798	92.84
293.012	98.99
293.227	23.21
293.442	43.69
293.657	92.84
293.871	23.21
294.086	66.22
294.301	96.94
294.516	53.93
294.73	21.16
294.945	-40.28
295.16	31.4
295.374	64.17
295.589	-30.04
295.804	6.83
296.018	10.92
296.233	39.59
296.447	43.69
296.662	4.78
296.877	-50.52
297.091	15.02
297.306	58.03
297.52	-5.46
297.735	51.88
297.949	66.22
298.164	4.78
298.378	68.27
298.593	41.64
298.807	27.31
299.022	115.37
299.236	49.83
299.451	39.59
299.665	41.64
299.88	43.69
300.094	137.9
300.309	-32.08
300.523	-25.94
300.737	35.5
300.952	76.46
301.166	21.16
301.381	21.16
301.595	33.45
301.809	68.27
302.024	49.83
302.238	-11.61
302.452	55.98
302.667	58.03
302.881	25.26
303.095	29.35
303.309	25.26
303.524	19.11
303.738	-15.7
303.952	19.11
304.166	92.84
304.381	4.78
304.595	78.51
304.809	29.35
305.023	35.5
305.237	2.73
305.452	49.83
305.666	-9.56
305.88	25.26
306.094	27.31
306.308	27.31
306.522	74.41
306.736	8.87
306.95	2.73
307.164	-32.08
307.379	-11.61
307.593	68.27
307.807	60.07
308.021	21.16
308.235	15.02
308.449	8.87
308.663	-62.8
308.877	43.69
309.091	15.02
309.305	80.55
309.519	-40.28
309.733	62.12
309.947	-30.04
310.161	23.21
310.374	25.26
310.588	82.6
310.802	35.5
311.016	17.07
311.23	43.69
311.444	21.16
311.658	43.69
311.872	12.97
312.085	41.64
312.299	4.78
312.513	103.08
312.727	98.99
312.941	-25.94
313.154	117.42
313.368	-52.56
313.582	12.97
313.796	-27.99
314.009	25.26
314.223	37.55
314.437	43.69
314.651	68.27
314.864	-5.46
315.078	62.12
315.292	15.02
315.505	29.35
315.719	17.07
315.933	8.87
316.146	-23.89
316.36	27.31
316.573	80.55
316.787	-1.37
317.001	62.12
317.214	21.16
317.428	68.27
317.641	62.12
317.855	33.45
318.068	0.68
318.282	-38.23
318.495	121.51
318.709	66.22
318.922	-3.41
319.136	68.27
319.349	70.31
319.563	62.12
319.776	62.12
319.99	17.07
320.203	123.56
320.417	62.12
320.63	-21.84
320.843	98.99
321.057	19.11
321.27	74.41
321.483	0.68
321.697	23.21
321.91	68.27
322.124	96.94
322.337	80.55
322.55	60.07
322.763	19.11
322.977	15.02
323.19	47.79
323.403	6.83
323.617	80.55
323.83	135.85
324.043	105.13
324.256	60.07
324.469	15.02
324.683	78.51
324.896	-46.42
325.109	23.21
325.322	-30.04
325.535	139.94
325.748	12.97
325.962	10.92
326.175	-13.65
326.388	96.94
326.601	31.4
326.814	49.83
327.027	31.4
327.24	113.32
327.453	0.68
327.666	-40.28
327.879	92.84
328.092	12.97
328.305	43.69
328.518	12.97
328.731	47.79
328.944	94.89
329.157	72.36
329.37	74.41
329.583	8.87
329.796	55.98
330.009	-23.89
330.222	86.7
330.435	92.84
330.648	-9.56
330.861	111.27
331.073	88.75
331.286	51.88
331.499	17.07
331.712	6.83
331.925	0.68
332.138	-3.41
332.35	76.46
332.563	4.78
332.776	66.22
332.989	-27.99
333.202	-23.89
333.414	-13.65
333.627	49.83
333.84	49.83
334.053	45.74
334.265	37.55
334.478	33.45
334.691	39.59
334.903	51.88
335.116	-21.84
335.329	62.12
335.541	33.45
335.754	98.99
335.966	39.59
336.179	31.4
336.392	-40.28
336.604	19.11
336.817	47.79
337.029	-21.84
337.242	25.26
337.454	94.89
337.667	-1.37
337.88	19.11
338.092	70.31
338.305	45.74
338.517	-19.8
338.729	29.35
338.942	37.55
339.154	-3.41
339.367	47.79
339.579	6.83
339.792	4.78
340.004	27.31
340.217	-68.95
340.429	92.84
340.641	45.74
340.854	29.35
341.066	35.5
341.278	86.7
341.491	37.55
341.703	64.17
341.915	-34.13
342.128	17.07
342.34	31.4
342.552	-34.13
342.764	21.16
342.977	78.51
343.189	78.51
343.401	35.5
343.613	55.98
343.826	25.26
344.038	17.07
344.25	74.41
344.462	17.07
344.674	41.64
344.886	45.74
345.099	58.03
345.311	-7.51
345.523	15.02
345.735	0.68
345.947	27.31
346.159	15.02
346.371	58.03
346.583	10.92
346.795	123.56
347.007	55.98
347.219	0.68
347.431	8.87
347.643	4.78
347.855	39.59
348.067	66.22
348.279	-17.75
348.491	92.84
348.703	84.65
348.915	25.26
349.127	15.02
349.339	17.07
349.551	58.03
349.763	41.64
349.975	47.79
350.187	-23.89
350.399	58.03
350.61	39.59
350.822	78.51
351.034	86.7
351.246	49.83
351.458	62.12
351.669	8.87
351.881	23.21
352.093	37.55
352.305	96.94
352.517	10.92
352.728	37.55
352.94	19.11
353.152	-17.75
353.363	51.88
353.575	70.31
353.787	17.07
353.999	12.97
354.21	29.35
354.422	84.65
354.633	101.03
354.845	17.07
355.057	15.02
355.268	39.59
355.48	-50.52
355.692	60.07
355.903	39.59
356.115	90.79
356.326	2.73
356.538	33.45
356.749	58.03
356.961	51.88
357.172	12.97
357.384	-34.13
357.595	113.32
357.807	60.07
358.018	23.21
358.23	84.65
358.441	-13.65
358.653	66.22
358.864	29.35
359.075	8.87
359.287	12.97
359.498	90.79
359.709	47.79
359.921	33.45
360.132	-42.32
360.344	76.46
360.555	12.97
360.766	66.22
360.977	64.17
361.189	98.99
361.4	25.26
361.611	21.16
361.823	39.59
362.034	15.02
362.245	23.21
362.456	41.64
362.667	39.59
362.879	37.55
363.09	51.88
363.301	49.83
363.512	-32.08
363.723	12.97
363.935	-19.8
364.146	72.36
364.357	58.03
364.568	51.88
364.779	-66.9
364.99	103.08
365.201	33.45
365.412	6.83
365.623	-11.61
365.834	60.07
366.045	37.55
366.256	27.31
366.467	47.79
366.678	47.79
366.889	8.87
367.1	47.79
367.311	49.83
367.522	60.07
367.733	-27.99
367.944	62.12
368.155	72.36
368.366	82.6
368.577	-81.24
368.788	92.84
368.999	62.12
369.209	51.88
369.42	15.02
369.631	39.59
369.842	90.79
370.053	72.36
370.264	60.07
370.474	51.88
370.685	33.45
370.896	72.36
371.107	84.65
371.317	19.11
371.528	29.35
371.739	62.12
371.95	62.12
372.16	164.52
372.371	4.78
372.582	-1.37
372.792	-9.56
373.003	35.5
373.214	41.64
373.424	92.84
373.635	-7.51
373.846	51.88
374.056	25.26
374.267	68.27
374.477	43.69
374.688	68.27
374.898	23.21
375.109	60.07
375.319	35.5
375.53	121.51
375.74	49.83
375.951	74.41
376.161	0.68
376.372	39.59
376.582	84.65
376.793	101.03
377.003	27.31
377.214	84.65
377.424	15.02
377.635	78.51
377.845	101.03
378.055	74.41
378.266	82.6
378.476	58.03
378.686	-13.65
378.897	47.79
379.107	62.12
379.317	113.32
379.528	-17.75
379.738	62.12
379.948	68.27
380.158	74.41
380.369	76.46
380.579	10.92
380.789	41.64
380.999	74.41
381.21	45.74
381.42	98.99
381.63	47.79
381.84	127.66
382.05	0.68
382.261	-19.8
382.471	10.92
382.681	45.74
382.891	-17.75
383.101	47.79
383.311	35.5
383.521	-38.23
383.731	72.36
383.941	76.46
384.151	88.75
384.361	49.83
384.571	84.65
384.781	119.46
384.991	98.99
385.201	101.03
385.411	64.17
385.621	37.55
385.831	58.03
386.041	2.73
386.251	15.02
386.461	53.93
386.671	135.85
386.881	33.45
387.091	55.98
387.301	107.18
387.511	49.83
387.72	109.23
387.93	21.16
388.14	27.31
388.35	10.92
388.56	25.26
388.769	2.73
388.979	19.11
389.189	-3.41
389.399	-5.46
389.609	64.17
389.818	33.45
390.028	109.23
390.238	0.68
390.447	60.07
390.657	107.18
390.867	35.5
391.076	-1.37
391.286	47.79
391.496	82.6
391.705	6.83
391.915	84.65
392.125	49.83
392.334	62.12
392.544	70.31
392.753	55.98
392.963	53.93
393.172	68.27
393.382	133.8
393.591	70.31
393.801	47.79
394.01	58.03
394.22	17.07
394.429	117.42
394.639	55.98
394.848	55.98
395.058	107.18
395.267	39.59
395.477	2.73
395.686	29.35
395.895	107.18
396.105	98.99
396.314	90.79
396.524	80.55
396.733	70.31
396.942	58.03
397.152	82.6
397.361	41.64
397.57	86.7
397.78	66.22
397.989	86.7
398.198	139.94
398.407	35.5
398.617	58.03
398.826	60.07
399.035	109.23
399.244	133.8
399.453	109.23
399.663	86.7
399.872	64.17
400.081	82.6
400.29	78.51
400.499	84.65
400.708	119.46
400.917	96.94
401.127	78.51
401.336	76.46
401.545	115.37
401.754	80.55
401.963	121.51
402.172	123.56
402.381	35.5
402.59	35.5
402.799	162.47
403.008	156.33
403.217	76.46
403.426	31.4
403.635	164.52
403.844	90.79
404.053	94.89
404.262	90.79
404.471	105.13
404.68	182.95
404.888	113.32
405.097	96.94
405.306	141.99
405.515	88.75
405.724	154.28
405.933	180.9
406.142	201.38
406.35	256.68
406.559	213.67
406.768	125.61
406.977	182.95
407.185	180.9
407.394	228.01
407.603	144.04
407.812	197.29
408.02	137.9
408.229	154.28
408.438	195.24
408.646	174.76
408.855	205.48
409.064	242.34
409.272	273.06
409.481	209.58
409.69	244.39
409.898	234.15
410.107	271.01
410.315	271.01
410.524	283.3
410.733	303.78
410.941	307.88
411.15	309.93
411.358	361.13
411.567	340.65
411.775	254.63
411.984	375.46
412.192	412.32
412.401	338.6
412.609	381.6
412.818	434.85
413.026	455.33
413.234	395.94
413.443	475.81
413.651	406.18
413.86	465.57
414.068	578.21
414.276	418.47
414.485	510.63
414.693	580.26
414.901	580.26
415.11	543.39
415.318	510.63
415.526	549.54
415.734	647.84
415.943	682.66
416.151	701.09
416.359	645.79
416.567	653.98
416.776	694.94
416.984	727.71
417.192	772.77
417.4	795.29
417.608	832.16
417.817	862.88
418.025	848.54
418.233	920.22
418.441	973.47
418.649	1036.95
418.857	989.85
419.065	1092.25
419.273	1018.52
419.481	1075.87
419.689	1102.49
419.897	1311.38
420.105	1172.12
420.313	1307.29
420.521	1342.1
420.729	1372.82
420.937	1450.64
421.145	1442.45
421.353	1462.93
421.561	1516.18
421.769	1544.85
421.977	1706.64
422.185	1682.07
422.393	1755.79
422.601	1876.62
422.809	1827.47
423.017	1868.43
423.224	1858.19
423.432	2097.8
423.64	2122.38
423.848	2226.82
424.056	2189.96
424.263	2359.94
424.471	2368.13
424.679	2474.63
424.887	2615.94
425.094	2558.6
425.302	2562.69
425.51	2710.15
425.718	2804.35
425.925	2876.03
426.133	2935.42
426.341	3046.01
426.548	3261.05
426.756	3328.63
426.964	3263.1
427.171	3439.22
427.379	3629.68
427.586	3463.8
427.794	3668.59
428.001	3977.84
428.209	4018.8
428.417	3983.98
428.624	4194.92
428.832	4262.51
429.039	4182.63
429.247	4156.01
429.454	4649.57
429.662	5022.3
429.869	4678.24
430.076	4991.58
430.284	4815.46
430.491	5122.65
430.699	5435.99
430.906	5450.33
431.114	5331.55
431.321	5616.21
431.528	5663.32
431.736	6167.12
431.943	6345.29
432.15	6163.02
432.358	6216.27
432.565	6642.25
432.772	6488.65
432.979	6943.3
433.187	7070.27
433.394	7123.52
433.601	7696.95
433.808	7498.3
434.016	7674.42
434.223	7789.11
434.43	8397.35
434.637	8202.8
434.844	8464.94
435.052	8884.77
435.259	8804.9
435.466	8933.92
435.673	8837.67
435.88	9298.46
436.087	9783.83
436.294	9845.27
436.501	9548.31
436.708	9726.49
436.915	10017.3
437.122	10543.63
437.329	10504.71
437.537	11041.28
437.743	11201.02
437.95	11026.95
438.157	11547.13
438.364	11895.29
438.571	12091.89
438.778	11747.83
438.985	13201.89
439.192	12571.11
439.399	12915.17
439.606	12757.48
439.813	13498.84
440.02	14123.48
440.227	13877.72
440.433	14070.23
440.64	14340.56
440.847	14154.19
441.054	14567.88
441.261	15458.75
441.467	15522.24
441.674	15585.72
441.881	16398.77
442.088	16181.68
442.294	16062.9
442.501	16544.17
442.708	16918.95
442.914	17289.63
443.121	18078.1
443.328	17746.33
443.534	18909.58
443.741	18461.07
443.948	18381.2
444.154	19712.38
444.361	19321.22
444.568	19376.51
444.774	19466.63
444.981	20019.58
445.187	20486.51
445.394	21088.62
445.6	20689.26
445.807	23279.94
446.013	22151.51
446.22	22290.77
446.426	23144.78
446.633	23439.68
446.839	24443.19
447.046	23413.06
447.252	24695.09
447.459	24516.92
447.665	24588.6
447.871	25588
448.078	26896.66
448.284	25291.05
448.491	26005.79
448.697	27095.31
448.903	27613.45
449.11	27822.34
449.316	27146.51
449.522	27595.01
449.728	28676.34
449.935	28369.15
450.141	28485.88
450.347	29223.15
450.553	28426.49
450.76	28750.07
450.966	29669.61
451.172	29346.03
451.378	30163.17
451.584	29298.92
451.791	30226.65
451.997	30077.15
452.203	30406.87
452.409	30550.23
452.615	30087.39
452.821	29014.26
453.027	29067.5
453.233	30666.97
453.44	29466.86
453.646	29638.89
453.852	29941.99
454.058	30853.33
454.264	29253.87
454.47	29968.61
454.676	29192.43
454.882	30292.19
455.088	27582.73
455.294	28117.25
455.5	28530.94
455.705	28700.92
455.911	27582.73
456.117	27044.11
456.323	26386.71
456.529	25043.24
456.735	26521.88
456.941	26003.74
457.147	25145.64
457.352	24437.05
457.558	24252.73
457.764	24363.32
457.97	24107.32
458.176	23447.88
458.381	23216.46
458.587	22313.3
458.793	22018.39
458.999	21346.66
459.204	22548.82
459.41	21875.04
459.616	20466.03
459.821	20320.63
460.027	20283.77
460.233	20181.37
460.438	18997.64
460.644	19208.58
460.85	18155.93
461.055	18196.88
461.261	18094.49
461.466	16708.01
461.672	16060.85
461.878	17598.88
462.083	16318.9
462.289	16075.19
462.494	15808.95
462.7	15233.47
462.905	14459.34
463.111	15159.75
463.316	15190.47
463.522	14961.09
463.727	15045.06
463.932	14903.75
464.138	14567.88
464.343	14666.19
464.549	14406.09
464.754	14811.59
464.959	14504.4
465.165	14469.58
465.37	13933.01
465.575	13689.31
465.781	14125.52
465.986	14287.31
466.191	13816.28
466.397	13531.61
466.602	12796.39
466.807	13224.42
467.012	13482.46
467.218	13179.36
467.423	13044.2
467.628	13007.33
467.833	13648.35
468.038	13181.41
468.244	12915.17
468.449	13296.1
468.654	12970.47
468.859	12886.5
469.064	12839.4
469.269	12132.85
469.474	12399.09
469.679	12526.06
469.885	12141.04
470.09	12462.57
470.295	12130.8
470.5	11985.4
470.705	11878.9
470.91	11856.37
471.115	11739.64
471.32	11975.16
471.525	11710.97
471.73	11375.1
471.935	11506.17
472.139	11321.85
472.344	11188.74
472.549	10828.29
472.754	10918.4
472.959	10689.03
473.164	10525.19
473.369	10336.78
473.574	10777.09
473.778	10656.26
473.983	10596.87
474.188	10672.65
474.393	9970.19
474.598	10252.81
474.802	9888.28
475.007	10023.44
475.212	9949.71
475.417	9560.6
475.621	9613.85
475.826	9673.24
476.031	9415.19
476.235	9200.16
476.44	9325.08
476.645	9353.76
476.849	9036.32
477.054	9134.62
477.259	9011.75
477.463	8981.03
477.668	8626.73
477.872	8747.56
478.077	8794.66
478.282	8397.35
478.486	8446.51
478.691	8489.51
478.895	8430.12
479.1	8397.35
479.304	8241.71
479.509	7975.47
479.713	8317.48
479.918	7916.08
480.122	7973.42
480.326	7950.9
480.531	8020.53
480.735	7682.61
480.94	7756.34
481.144	7983.66
481.348	7719.48
481.553	8096.3
481.757	7705.14
481.961	7606.84
482.166	7881.27
482.37	7789.11
482.574	7680.57
482.778	7676.47
482.983	7776.82
483.187	7582.26
483.391	7598.65
483.595	7664.18
483.8	7653.94
484.004	7762.48
484.208	7924.27
484.412	7842.35
484.616	7606.84
484.821	7735.86
485.025	7782.96
485.229	7774.77
485.433	7621.17
485.637	7885.36
485.841	7494.2
486.045	7516.73
486.249	7643.7
486.453	7602.74
486.657	7686.71
486.861	7782.96
487.065	7557.69
487.269	7752.24
487.473	7580.22
487.677	7522.87
487.881	7602.74
488.085	7696.95
488.289	7672.37
488.493	7334.46
488.697	7868.98
488.901	7731.76
489.105	7617.08
489.309	7832.12
489.512	7617.08
489.716	7733.81
489.92	7752.24
490.124	7828.02
490.328	7924.27
490.531	7717.43
490.735	7846.45
490.939	7830.07
491.143	8010.29
491.346	7963.19
491.55	7952.95
491.754	8145.45
491.958	7934.51
492.161	8075.82
492.365	8016.43
492.569	8137.26
492.772	8235.56
492.976	8112.69
493.18	8286.76
493.383	8217.13
493.587	8342.06
493.79	8383.02
493.994	8208.94
494.197	8270.38
494.401	8514.09
494.605	8358.44
494.808	8669.73
495.012	8679.97
495.215	8661.54
495.419	8684.07
495.622	8800.8
495.825	8925.73
496.029	8940.07
496.232	8995.36
496.436	8960.55
496.639	9269.79
496.843	9099.81
497.046	9409.05
497.249	9482.78
497.453	9695.77
497.656	9607.7
497.859	9663
498.063	9734.68
498.266	9919
498.469	9888.28
498.673	9966.1
498.876	10097.17
499.079	10430.99
499.282	10299.92
499.485	10428.94
499.689	10570.25
499.892	10801.67
500.095	10801.67
500.298	11069.95
500.501	10770.95
500.705	11127.3
500.908	11328
501.111	11381.24
501.314	11416.06
501.517	11590.14
501.72	11514.36
501.923	11715.06
502.126	11952.63
502.329	12345.84
502.532	12225.01
502.735	12306.93
502.938	12411.37
503.141	12431.85
503.344	12761.58
503.547	12970.47
503.75	12847.59
503.953	13107.68
504.156	12900.84
504.359	13464.03
504.562	13554.14
504.765	13818.33
504.968	13828.57
505.17	13910.49
505.373	13898.2
505.576	14330.32
505.779	14502.35
505.982	14524.88
506.185	14942.66
506.387	14703.05
506.59	14836.17
506.793	15425.98
506.996	15135.17
507.198	15653.31
507.401	15442.37
507.604	15704.51
507.807	16075.19
508.009	16193.97
508.212	16202.16
508.415	16402.86
508.617	16634.28
508.82	16849.32
509.022	16439.73
509.225	17115.56
509.428	17172.9
509.63	17437.09
509.833	17451.42
510.035	17688.99
510.238	17744.28
510.44	17912.22
510.643	18289.04
510.845	18489.74
511.048	18362.77
511.25	18758.03
511.453	18755.98
511.655	19388.8
511.858	19239.3
512.06	19179.91
512.262	19618.18
512.465	19493.25
512.667	19986.81
512.87	20126.07
513.072	20242.81
513.274	20515.19
513.477	20636.02
513.679	20955.5
513.881	21098.86
514.084	21227.88
514.286	21420.39
514.488	21309.8
514.69	22284.63
514.893	22106.46
515.095	22184.28
515.297	22552.91
515.499	22661.46
515.701	23050.57
515.904	23026
516.106	23365.96
516.308	23413.06
516.51	23630.15
516.712	23691.59
516.914	23996.73
517.116	24453.43
517.318	24443.19
517.52	24553.78
517.722	24707.38
517.925	25076.01
518.127	25407.78
518.329	25286.95
518.531	25260.33
518.733	25714.98
518.935	26056.99
519.136	25997.6
519.338	26437.91
519.54	26554.65
519.742	26675.48
519.944	26949.9
520.146	27859.2
520.348	27377.93
520.55	27447.56
520.752	27775.23
520.954	28049.66
521.155	28258.56
521.357	28434.68
521.559	28727.54
521.761	29053.17
521.963	28920.05
522.164	29130.99
522.366	29522.15
522.568	29366.51
522.77	29704.42
522.971	30007.52
523.173	29837.54
523.375	30169.31
523.576	30306.52
523.778	30316.76
523.98	31125.71
524.181	30818.52
524.383	31162.58
524.584	31394
524.786	31451.34
524.988	31463.63
525.189	31787.21
525.391	31795.4
525.592	32469.18
525.794	32082.11
525.995	32243.9
526.197	32039.11
526.398	32538.81
526.6	32499.9
526.801	33120.43
527.003	32833.72
527.204	32870.58
527.406	33405.1
527.607	33552.55
527.808	33771.69
528.01	33159.34
528.211	33577.13
528.412	34013.35
528.614	33994.92
528.815	33990.82
529.016	34384.03
529.218	33972.39
529.419	34281.63
529.62	34158.75
529.822	34171.04
530.023	34437.28
530.224	34476.19
530.425	34531.48
530.626	34429.09
530.828	34349.21
531.029	35225.75
531.23	34785.43
531.431	34640.03
531.632	34760.86
531.833	34883.73
532.035	34381.98
532.236	35096.72
532.437	34939.03
532.638	34762.9
532.839	35184.79
533.04	35262.61
533.241	34910.36
533.442	35637.39
533.643	35319.95
533.844	35311.76
534.045	35946.63
534.246	35043.48
534.447	35500.17
534.648	35076.24
534.849	35625.1
535.05	34984.08
535.251	35266.7
535.451	35258.51
535.652	35651.72
535.853	35291.28
536.054	35637.39
536.255	35434.64
536.456	35266.7
536.657	35692.68
536.857	35369.1
537.058	35199.12
537.259	35555.47
537.46	35588.24
537.66	35164.31
537.861	35594.38
538.062	35317.9
538.263	35600.52
538.463	35336.34
538.664	35430.54
538.865	35739.79
539.065	35612.81
539.266	35047.57
539.466	35862.66
539.667	35135.63
539.868	35991.69
540.068	35514.51
540.269	35188.88
540.469	35635.34
540.67	35362.96
540.87	35573.9
541.071	35174.55
541.271	35563.66
541.472	35096.72
541.672	35578
541.873	35276.94
542.073	35088.53
542.274	35483.79
542.474	35322
542.675	35098.77
542.875	35864.71
543.075	35190.93
543.276	34889.88
543.476	35678.35
543.676	34951.32
543.877	35358.86
544.077	35473.55
544.277	35416.21
544.478	34990.23
544.678	35600.52
544.878	35336.34
545.078	34914.45
545.279	35178.64
545.479	35356.82
545.679	35190.93
545.879	35147.92
546.079	35313.81
546.28	35149.97
546.48	34719.9
546.68	35393.68
546.88	35418.25
547.08	35262.61
547.28	35272.85
547.48	35033.24
547.68	34754.71
547.88	34656.41
548.081	35207.31
548.281	35055.76
548.481	35352.72
548.681	35199.12
548.881	35100.82
549.081	35131.54
549.28	34844.82
549.48	35442.83
549.68	34744.47
549.88	35354.77
550.08	34730.14
550.28	34967.7
550.48	35031.19
550.68	35172.5
550.88	34810.01
551.08	34713.75
551.279	35014.8
551.479	34451.61
551.679	35203.22
551.879	34814.1
552.079	34883.73
552.278	34689.18
552.478	34992.28
552.678	34691.23
552.878	34918.55
553.077	34967.7
553.277	34838.68
553.477	35207.31
553.676	34457.76
553.876	34449.56
554.076	34742.42
554.275	34932.89
554.475	34242.72
554.674	34238.62
554.874	34336.93
555.074	34080.93
555.273	34418.85
555.473	34480.28
555.672	34347.17
555.872	34738.33
556.071	34461.85
556.271	34543.77
556.47	34498.72
556.67	33978.53
556.869	34420.89
557.068	34531.48
557.268	33910.95
557.467	34033.83
557.667	34078.88
557.866	34134.18
558.065	34042.02
558.265	33892.52
558.464	33999.01
558.663	34322.59
558.863	33706.15
559.062	34144.42
559.261	34027.68
559.461	33646.76
559.66	33786.02
559.859	33765.54
560.058	33370.29
560.258	33661.1
560.457	33167.54
560.656	33548.46
560.855	33226.93
561.054	33294.51
561.253	33521.84
561.453	33058.99
561.652	33575.08
561.851	33460.4
562.05	32899.25
562.249	32938.16
562.448	33024.18
562.647	33257.65
562.846	33071.28
563.045	32948.4
563.244	32671.93
563.443	33020.08
563.642	32344.25
563.841	32641.21
564.04	32413.88
564.239	32516.28
564.438	32481.47
564.637	32579.77
564.836	32616.63
565.035	31916.23
565.234	32366.78
565.432	32131.26
565.631	31813.83
565.83	32014.53
566.029	32387.26
566.228	32211.14
566.427	31770.82
566.625	31645.9
566.824	31396.04
567.023	31865.03
567.222	31312.08
567.42	31715.53
567.619	31494.35
567.818	31693
568.016	31437
568.215	31312.08
568.414	31514.83
568.612	31547.59
568.811	31013.07
569.01	30869.72
569.208	30419.16
569.407	30873.81
569.605	30531.8
569.804	31008.98
570.002	30367.96
570.201	30656.73
570.4	30445.79
570.598	30208.22
570.797	30001.38
570.995	30462.17
571.193	29962.47
571.392	30437.59
571.59	29882.59
571.789	30157.02
571.987	29921.51
572.186	29694.18
572.384	29786.34
572.582	29896.93
572.781	29962.47
572.979	29479.14
573.177	29739.24
573.376	29567.21
573.574	29593.83
573.772	29468.9
573.971	28922.1
574.169	28965.1
574.367	28784.88
574.565	29006.06
574.763	28881.14
574.962	29036.78
575.16	28391.67
575.358	28842.23
575.556	28258.56
575.754	29120.75
575.952	27986.18
576.151	28686.58
576.349	28051.71
576.547	27934.98
576.745	28354.81
576.943	28145.92
577.141	27851.01
577.339	28211.45
577.537	27824.39
577.735	27717.89
577.933	27840.77
578.131	27523.33
578.329	27760.9
578.527	27519.24
578.725	27865.35
578.923	27730.18
579.121	27449.61
579.319	27136.27
579.516	27558.15
579.714	27257.1
579.912	27212.04
580.11	27113.74
580.308	26865.94
580.506	26925.33
580.704	26605.84
580.901	26927.38
581.099	27052.3
581.297	26759.44
581.495	26540.31
581.692	26507.54
581.89	26061.08
582.088	26421.53
582.285	26255.64
582.483	26409.24
582.681	26237.21
582.878	26108.19
583.076	26106.14
583.274	26108.19
583.471	25798.94
583.669	25909.54
583.866	25618.72
584.064	26018.08
584.262	25569.57
584.459	25674.02
584.657	25686.31
584.854	25911.58
585.052	25291.05
585.249	25559.33
585.447	25078.06
585.644	24908.08
585.841	24979.76
586.039	25172.27
586.236	24777.01
586.434	24705.33
586.631	24699.19
586.828	24828.21
587.026	24883.5
587.223	24467.77
587.42	24467.77
587.618	24744.24
587.815	24015.16
588.012	24459.57
588.21	24291.64
588.407	24351.03
588.604	23896.38
588.801	24090.94
588.999	24131.9
589.196	23945.53
589.393	24135.99
589.59	23880
589.787	23660.87
589.984	23753.02
590.182	23529.8
590.379	23597.38
590.576	23523.65
590.773	23152.97
590.97	23517.51
591.167	23744.83
591.364	23155.02
591.561	23368.01
591.758	23021.9
591.955	23241.03
592.152	23165.26
592.349	23017.8
592.546	22860.11
592.743	22870.35
592.94	22577.49
593.137	22331.73
593.334	22770
593.531	21997.91
593.727	22452.56
593.924	22475.09
594.121	22231.38
594.318	22294.87
594.515	21801.31
594.712	22167.9
594.908	21731.68
595.105	22196.57
595.302	21811.55
595.499	21999.96
595.696	21698.91
595.892	21567.84
596.089	21881.18
596.286	21657.95
596.482	21649.76
596.679	21361
596.876	21522.79
597.072	21430.63
597.269	21305.7
597.466	21084.52
597.662	21066.09
597.859	21170.54
598.055	21170.54
598.252	21033.32
598.448	20906.35
598.645	20783.47
598.841	20486.51
599.038	20697.45
599.234	20674.93
599.431	20486.51
599.627	20472.18
599.824	20689.26
600.02	20425.07
600.217	20218.23
600.413	20318.58
600.609	20318.58
600.806	19929.47
601.002	20285.81
601.198	20093.3
601.395	19949.95
601.591	19661.18
601.787	19892.6
601.984	19728.77
602.18	19573.12
602.376	19685.76
602.572	19472.77
602.769	19636.61
602.965	19296.64
603.161	19386.75
603.357	19134.85
603.553	19272.07
603.75	19300.74
603.946	19349.89
604.142	19202.44
604.338	19069.32
604.534	19032.46
604.73	19063.18
604.926	19132.81
605.122	18729.36
605.318	18833.8
605.514	18768.27
605.71	18557.33
605.906	18657.68
606.102	18622.86
606.298	18268.56
606.494	18586
606.69	18547.09
606.886	18555.28
607.082	18370.96
607.278	18430.35
607.474	18170.26
607.67	18315.67
607.866	18184.6
608.062	18463.12
608.257	18282.9
608.453	18127.25
608.649	18403.73
608.845	17869.21
609.041	18004.38
609.236	18217.36
609.432	18061.72
609.628	17875.35
609.824	17875.35
610.019	17717.66
610.215	17775
610.411	17580.45
610.606	17617.31
610.802	18043.29
610.998	17703.32
611.193	17607.07
611.389	17742.24
611.584	17578.4
611.78	17256.87
611.976	17226.15
612.171	17289.63
612.367	17586.59
612.562	17168.8
612.758	17320.35
612.953	17267.11
613.149	17258.92
613.344	16972.2
613.539	17222.05
613.735	17090.98
613.93	17127.85
614.126	16982.44
614.321	17039.78
614.517	16830.89
614.712	17162.66
614.907	16783.79
615.103	17035.69
615.298	16777.64
615.493	16937.38
615.688	16726.44
615.884	17172.9
616.079	16660.91
616.274	16880.04
616.47	16720.3
616.665	16540.08
616.86	16718.25
617.055	16683.44
617.25	16445.87
617.445	16656.81
617.641	16353.71
617.836	16417.2
618.031	16257.46
618.226	16349.62
618.421	16044.47
618.616	16456.11
618.811	15913.4
619.006	16259.51
619.201	15946.17
619.396	16122.29
619.591	15923.64
619.786	15884.73
619.981	15518.14
620.176	15864.25
620.371	15688.12
620.566	15870.39
620.761	15626.68
620.956	15681.98
621.151	15423.94
621.346	15477.18
621.541	15036.87
621.735	15301.06
621.93	15106.5
622.125	15036.87
622.32	15088.07
622.515	14854.6
622.709	14815.69
622.904	14807.5
623.099	14780.87
623.294	14553.55
623.488	14639.56
623.683	14580.17
623.878	14137.81
624.072	14377.42
624.267	14414.29
624.462	14117.33
624.656	13998.55
624.851	13881.81
625.046	13967.83
625.24	13828.57
625.435	13773.27
625.629	13824.47
625.824	13564.38
626.018	13507.04
626.213	13339.1
626.407	13435.36
626.602	13310.43
626.796	13427.17
626.991	13496.8
627.185	13511.13
627.38	13275.62
627.574	13181.41
627.768	12810.73
627.963	12943.85
628.157	12814.82
628.352	12728.81
628.546	12794.34
628.74	12747.24
628.935	12423.66
629.129	12665.32
629.323	12323.31
629.517	12349.93
629.712	12216.82
629.906	12208.62
630.1	11907.57
630.294	12134.9
630.489	12216.82
630.683	12220.91
630.877	11688.44
631.071	11594.23
631.265	12059.12
631.459	11766.26
631.653	11665.91
631.848	11663.86
632.042	11438.59
632.236	11381.24
632.43	11170.3
632.624	11205.12
632.818	11276.8
633.012	11162.11
633.206	11323.9
633.4	11172.35
633.594	11127.3
633.788	11143.68
633.982	10983.94
634.176	11084.29
634.369	10936.84
634.563	10605.06
634.757	10654.22
634.951	10785.29
635.145	10623.5
635.339	10676.74
635.533	10469.9
635.726	10545.67
635.92	10351.12
636.114	10201.61
636.308	10398.22
636.501	10035.73
636.695	10297.87
636.889	10183.18
637.083	10041.87
637.276	9933.33
637.47	10064.4
637.664	9806.36
637.857	9910.8
638.051	9794.07
638.244	9808.4
638.438	9726.49
638.632	9683.48
638.825	9654.81
639.019	9626.14
639.212	9310.75
639.406	9478.68
639.599	9298.46
639.793	9364
639.986	9128.48
640.18	9161.25
640.373	9267.74
640.567	9210.4
640.76	9036.32
640.954	8997.41
641.147	8944.16
641.34	8966.69
641.534	8819.24
641.727	8899.11
641.92	8847.91
642.114	8784.42
642.307	8518.18
642.5	8651.3
642.694	8563.24
642.887	8501.8
643.08	8622.63
643.273	8725.03
643.467	8557.1
643.66	8292.91
643.853	8583.72
644.046	8356.4
644.239	8243.76
644.432	8210.99
644.626	8198.7
644.819	8090.16
645.012	8135.21
645.205	8280.62
645.398	8149.55
645.591	8061.49
645.784	7881.27
645.977	7942.71
646.17	7975.47
646.363	7809.59
646.556	7635.51
646.749	7641.65
646.942	7709.24
647.135	7539.26
647.328	7647.8
647.521	7621.17
647.714	7471.67
647.907	7486.01
648.099	7361.08
648.292	7512.63
648.485	7465.53
648.678	7438.91
648.871	7252.54
649.064	7174.72
649.256	7344.7
649.449	7260.73
649.642	7211.58
649.835	7068.22
650.027	7139.9
650.22	6781.51
650.413	7135.81
650.605	6957.63
650.798	6888
650.991	6953.54
651.183	7045.7
651.376	6763.08
651.568	6672.96
651.761	6613.57
651.954	6619.72
652.146	6783.56
652.339	6601.29
652.531	6646.34
652.724	6572.61
652.916	6455.88
653.109	6609.48
653.301	6502.98
653.494	6558.28
653.686	6425.16
653.879	6396.49
654.071	6257.23
654.263	6253.13
654.456	6343.24
654.648	6486.6
654.84	6169.16
655.033	6124.11
655.225	6140.49
655.417	6120.01
655.61	6142.54
655.802	6132.3
655.994	6038.09
656.186	5974.61
656.379	6128.21
656.571	6025.81
656.763	5931.6
656.955	5921.36
657.148	5917.26
657.34	5767.76
657.532	5735
657.724	5691.99
657.916	5612.12
658.108	5659.22
658.3	5597.78
658.492	5663.32
658.684	5620.31
658.876	5542.49
659.068	5522.01
659.26	5542.49
659.452	5530.2
659.644	5657.17
659.836	5517.91
660.028	5460.57
660.22	5333.59
660.412	5290.59
660.604	5458.52
660.796	5210.72
660.988	5241.43
661.18	5206.62
661.372	5323.35
661.563	5284.44
661.755	5278.3
661.947	5169.76
662.139	5081.69
662.331	5124.7
662.522	5073.5
662.714	4860.51
662.906	5089.88
663.097	5065.31
663.289	5130.84
663.481	4817.51
663.673	4930.14
663.864	4864.61
664.056	4956.77
664.247	4950.62
664.439	4760.16
664.631	4856.42
664.822	4844.13
665.014	4946.53
665.205	4762.21
665.397	4670.05
665.588	4799.07
665.78	4672.1
665.971	4643.43
666.163	4717.15
666.354	4678.24
666.546	4561.51
666.737	4438.63
666.929	4581.99
667.12	4520.55
667.311	4457.06
667.503	4493.93
667.694	4448.87
667.885	4473.45
668.077	4514.41
668.268	4334.18
668.459	4328.04
668.651	4371.05
668.842	4473.45
669.033	4303.47
669.224	4399.72
669.416	4360.81
669.607	4264.55
669.798	4407.91
669.989	4403.82
670.18	4307.56
670.371	4371.05
670.563	4219.5
670.754	4192.87
670.945	4160.11
671.136	4180.59
671.327	4346.47
671.518	4178.54
671.709	4108.91
671.9	4047.47
672.091	4147.82
672.282	4086.38
672.473	4074.09
672.664	4024.94
672.855	4072.04
673.046	4043.37
673.237	3910.26
673.428	4053.61
673.619	4043.37
673.809	4029.04
674	3961.45
674.191	3854.96
674.382	4039.28
674.573	3957.36
674.764	3844.72
674.954	3977.84
675.145	3979.89
675.336	4012.65
675.527	3848.82
675.717	4000.37
675.908	3914.35
676.099	3801.71
676.289	3807.86
676.48	3826.29
676.671	3877.49
676.861	3811.95
677.052	3797.62
677.243	3738.23
677.433	3584.63
677.624	3732.08
677.814	3760.75
678.005	3680.88
678.195	3824.24
678.386	3764.85
678.576	3506.81
678.767	3738.23
678.957	3754.61
679.148	3682.93
679.338	3674.74
679.529	3832.43
679.719	3689.07
679.909	3785.33
680.1	3674.74
680.29	3582.58
680.481	3658.35
680.671	3834.48
680.861	3551.86
681.052	3539.57
681.242	3658.35
681.432	3586.68
681.622	3576.44
681.813	3545.72
682.003	3558
682.193	3641.97
682.383	3519.09
682.573	3697.27
682.764	3359.35
682.954	3416.69
683.144	3502.71
683.334	3504.76
683.524	3461.75
683.714	3572.34
683.904	3519.09
684.094	3428.98
684.284	3486.33
684.474	3445.37
684.664	3394.17
684.854	3553.91
685.044	3435.13
685.234	3416.69
685.424	3394.17
685.614	3488.37
685.804	3418.74
685.994	3379.83
686.184	3400.31
686.374	3273.34
686.564	3359.35
686.753	3283.58
686.943	3310.2
687.133	3359.35
687.323	3285.62
687.513	3226.23
687.702	3228.28
687.892	3349.11
688.082	3093.12
688.272	3117.69
688.461	3091.07
688.651	3259
688.841	3117.69
689.03	3218.04
689.22	3136.12
689.41	3193.47
689.599	3215.99
689.789	3236.47
689.979	3029.63
690.168	3146.36
690.358	3035.77
690.547	3093.12
690.737	3068.54
690.926	3009.15
691.116	2937.47
691.305	2943.61
691.495	3062.4
691.684	2937.47
691.874	2972.29
692.063	2982.53
692.252	2927.23
692.442	3074.68
692.631	2931.33
692.82	2884.22
693.01	2970.24
693.199	2939.52
693.388	2925.18
693.578	2865.79
693.767	2744.96
693.956	2878.08
694.146	2798.21
694.335	2689.67
694.524	2908.8
694.713	2824.83
694.902	2726.53
695.092	2568.84
695.281	2873.98
695.47	2714.24
695.659	2656.9
695.848	2687.62
696.037	2755.2
696.226	2847.36
696.415	2632.32
696.604	2757.25
696.793	2663.04
696.982	2775.68
697.171	2663.04
697.36	2734.72
697.549	2579.08
697.738	2726.53
697.927	2708.1
698.116	2704
698.305	2691.71
698.494	2658.95
698.683	2681.47
698.872	2654.85
699.061	2579.08
699.25	2687.62
699.438	2601.6
699.627	2609.79
699.816	2650.75
700.005	2712.19
700.193	2587.27
700.382	2613.89
700.571	2802.3
700.76	2548.36
700.948	2648.71
701.137	2603.65
701.326	2574.98
701.514	2593.41
701.703	2589.32
701.892	2521.73
702.08	2611.84
702.269	2728.58
702.457	2601.6
702.646	2603.65
702.834	2474.63
703.023	2613.89
703.212	2503.3
703.4	2644.61
703.589	2597.51
703.777	2525.83
703.965	2605.7
704.154	2572.93
704.342	2701.95
704.531	2620.03
704.719	2513.54
704.907	2609.79
705.096	2644.61
705.284	2542.21
705.472	2546.31
705.661	2542.21
705.849	2464.39
706.037	2491.01
706.226	2542.21
706.414	2505.35
706.602	2556.55
706.79	2597.51
706.979	2611.84
707.167	2648.71
707.355	2554.5
707.543	2628.23
707.731	2642.56
707.919	2609.79
708.107	2540.16
708.296	2505.35
708.484	2554.5
708.672	2722.43
708.86	2577.03
709.048	2611.84
709.236	2620.03
709.424	2529.92
709.612	2491.01
709.8	2626.18
709.988	2585.22
710.176	2495.11
710.364	2531.97
710.551	2568.84
710.739	2589.32
710.927	2667.14
711.115	2562.69
711.303	2624.13
711.491	2632.32
711.679	2773.63
711.866	2660.99
712.054	2534.02
712.242	2628.23
712.43	2579.08
712.617	2617.99
712.805	2577.03
712.993	2572.93
713.181	2525.83
713.368	2681.47
713.556	2611.84
713.744	2529.92
713.931	2693.76
714.119	2527.88
714.306	2691.71
714.494	2636.42
714.682	2636.42
714.869	2634.37
715.057	2458.25
715.244	2595.46
715.432	2552.45
715.619	2626.18
715.807	2663.04
715.994	2646.66
716.182	2552.45
716.369	2751.1
716.556	2747.01
716.744	2609.79
716.931	2634.37
717.119	2626.18
717.306	2667.14
717.493	2708.1
717.681	2663.04
717.868	2673.28
718.055	2546.31
718.242	2677.38
718.43	2620.03
718.617	2706.05
718.804	2624.13
718.991	2697.86
719.179	2609.79
719.366	2534.02
719.553	2603.65
719.74	2720.39
719.927	2704
720.114	2579.08
720.301	2620.03
720.488	2671.23
720.676	2581.12
720.863	2640.51
721.05	2617.99
721.237	2742.91
721.424	2628.23
721.611	2706.05
721.798	2734.72
721.985	2579.08
722.172	2579.08
722.358	2699.91
722.545	2613.89
722.732	2626.18
722.919	2677.38
723.106	2693.76
723.293	2677.38
723.48	2730.62
723.667	2581.12
723.853	2638.47
724.04	2626.18
724.227	2486.92
724.414	2603.65
724.6	2642.56
724.787	2687.62
724.974	2747.01
725.161	2656.9
725.347	2732.67
725.534	2648.71
725.72	2704
725.907	2718.34
726.094	2704
726.28	2773.63
726.467	2642.56
726.653	2617.99
726.84	2783.87
727.027	2671.23
727.213	2609.79
727.4	2656.9
727.586	2710.15
727.773	2677.38
727.959	2697.86
728.145	2646.66
728.332	2603.65
728.518	2642.56
728.705	2581.12
728.891	2622.08
729.077	2572.93
729.264	2493.06
729.45	2718.34
729.636	2663.04
729.823	2646.66
730.009	2708.1
730.195	2785.92
730.382	2699.91
730.568	2667.14
730.754	2691.71
730.94	2673.28
731.126	2714.24
731.313	2648.71
731.499	2652.8
731.685	2699.91
731.871	2689.67
732.057	2687.62
732.243	2611.84
732.429	2642.56
732.615	2519.68
732.801	2738.82
732.987	2646.66
733.173	2560.64
733.359	2736.77
733.545	2609.79
733.731	2593.41
733.917	2695.81
734.103	2681.47
734.289	2771.58
734.475	2724.48
734.661	2613.89
734.847	2638.47
735.033	2656.9
735.219	2546.31
735.404	2570.88
735.59	2642.56
735.776	2620.03
735.962	2628.23
736.148	2628.23
736.333	2632.32
736.519	2581.12
736.705	2699.91
736.89	2607.75
737.076	2583.17
737.262	2597.51
737.447	2542.21
737.633	2658.95
737.819	2493.06
738.004	2542.21
738.19	2529.92
738.375	2462.34
738.561	2513.54
738.747	2589.32
738.932	2597.51
739.118	2556.55
739.303	2507.4
739.489	2562.69
739.674	2544.26
739.859	2486.92
740.045	2628.23
740.23	2605.7
740.416	2458.25
740.601	2593.41
740.786	2525.83
740.972	2595.46
741.157	2536.07
741.342	2419.33
741.528	2333.32
741.713	2380.42
741.898	2468.48
742.084	2519.68
742.269	2405
742.454	2382.47
742.639	2427.53
742.824	2439.81
743.01	2501.25
743.195	2521.73
743.38	2374.28
743.565	2425.48
743.75	2427.53
743.935	2314.89
744.12	2368.13
744.305	2384.52
744.49	2306.7
744.675	2325.13
744.86	2247.3
745.045	2237.06
745.23	2349.7
745.415	2288.26
745.6	2169.48
745.785	2335.37
745.97	2259.59
746.155	2316.94
746.34	2310.79
746.525	2259.59
746.71	2298.5
746.895	2151.05
747.079	2192.01
747.264	2253.45
747.449	2247.3
747.634	2112.14
747.819	2185.87
748.003	2155.15
748.188	2091.66
748.373	2073.23
748.557	2116.23
748.742	2077.32
748.927	2052.75
749.111	1983.12
749.296	2024.08
749.481	1897.1
749.665	2003.6
749.85	2009.74
750.034	1942.16
750.219	1899.15
750.404	1923.73
750.588	1911.44
750.773	1790.61
750.957	1993.36
751.141	1909.39
751.326	1927.82
751.51	1770.13
751.695	1882.77
751.879	1856.14
752.064	1825.42
752.248	1919.63
752.432	1800.85
752.617	1680.02
752.801	1798.8
752.985	1745.55
753.17	1804.94
753.354	1741.46
753.538	1751.7
753.722	1735.31
753.907	1774.22
754.091	1643.15
754.275	1735.31
754.459	1616.53
754.643	1770.13
754.828	1585.81
755.012	1723.02
755.196	1561.23
755.38	1641.11
755.564	1536.66
755.748	1608.34
755.932	1589.91
756.116	1628.82
756.3	1561.23
756.484	1567.38
756.668	1551
756.852	1505.94
757.036	1462.93
757.22	1475.22
757.404	1467.03
757.588	1409.69
757.772	1444.5
757.956	1452.69
758.14	1352.34
758.323	1440.4
758.507	1479.32
758.691	1360.53
758.875	1426.07
759.059	1426.07
759.242	1450.64
759.426	1413.78
759.61	1352.34
759.794	1346.2
759.977	1395.35
760.161	1305.24
760.345	1413.78
760.528	1401.49
760.712	1368.73
760.895	1356.44
761.079	1280.66
761.263	1299.09
761.446	1276.57
761.63	1295
761.813	1182.36
761.997	1280.66
762.18	1223.32
762.364	1219.22
762.547	1264.28
762.731	1235.61
762.914	1204.89
763.098	1231.51
763.281	1196.7
763.464	1245.85
763.648	1147.55
763.831	1184.41
764.015	1161.88
764.198	1262.23
764.381	1172.12
764.564	1163.93
764.748	1159.83
764.931	1172.12
765.114	1163.93
765.297	1096.35
765.481	1159.83
765.664	1131.16
765.847	1057.43
766.03	1094.3
766.213	1069.72
766.397	1118.87
766.58	1141.4
766.763	1122.97
766.946	1079.96
767.129	1198.74
767.312	1092.25
767.495	1143.45
767.678	1073.82
767.861	1114.78
768.044	1114.78
768.227	1036.95
768.41	1016.48
768.593	1018.52
768.776	1039
768.959	1102.49
769.142	1000.09
769.324	1110.68
769.507	942.75
769.69	1043.1
769.873	1141.4
770.056	1028.76
770.239	1079.96
770.421	1039
770.604	979.61
770.787	961.18
770.97	955.04
771.152	963.23
771.335	1032.86
771.518	1032.86
771.7	1088.15
771.883	920.22
772.066	1024.67
772.248	912.03
772.431	912.03
772.613	959.13
772.796	1000.09
772.978	973.47
773.161	1022.62
773.343	932.51
773.526	858.78
773.708	871.07
773.891	852.64
774.073	897.69
774.256	821.92
774.438	885.41
774.621	901.79
774.803	752.29
774.985	869.02
775.168	869.02
775.35	877.21
775.532	914.08
775.715	813.73
775.897	768.67
776.079	807.58
776.261	811.68
776.444	838.3
776.626	735.9
776.808	811.68
776.99	776.86
777.173	750.24
777.355	815.77
777.537	846.49
777.719	740
777.901	811.68
778.083	735.9
778.265	744.1
778.447	742.05
778.629	678.56
778.811	776.86
778.993	807.58
779.175	733.86
779.357	703.14
779.539	633.51
779.721	692.9
779.903	705.18
780.085	694.94
780.267	713.38
780.449	664.22
780.631	733.86
780.812	664.22
780.994	674.46
781.176	643.74
781.358	610.98
781.54	590.5
781.721	604.83
781.903	574.11
782.085	635.55
782.267	586.4
782.448	547.49
782.63	701.09
782.812	653.98
782.993	617.12
783.175	574.11
783.357	541.35
783.538	613.03
783.72	553.63
783.901	465.57
784.083	551.59
784.264	527.01
784.446	547.49
784.627	594.59
784.809	512.67
784.99	531.11
785.172	533.15
785.353	531.11
785.535	537.25
785.716	518.82
785.897	463.52
786.079	545.44
786.26	522.91
786.441	430.76
786.623	404.13
786.804	522.91
786.985	432.8
787.167	545.44
787.348	443.04
787.529	498.34
787.71	504.48
787.891	527.01
788.073	412.32
788.254	508.58
788.435	545.44
788.616	453.28
788.797	436.9
788.978	416.42
789.159	461.48
789.34	426.66
789.522	402.08
789.703	397.99
789.884	441
790.065	408.23
790.246	373.41
790.427	406.18
790.607	504.48
790.788	359.08
790.969	471.72
791.15	445.09
791.331	402.08
791.512	441
791.693	369.32
791.874	436.9
792.054	350.89
792.235	397.99
792.416	297.64
792.597	326.31
792.778	350.89
792.958	371.37
793.139	395.94
793.32	410.28
793.5	316.07
793.681	408.23
793.862	291.49
794.042	350.89
794.223	383.65
794.404	393.89
794.584	385.7
794.765	344.74
794.945	373.41
795.126	354.98
795.306	385.7
795.487	316.07
795.667	271.01
795.848	379.56
796.028	277.16
796.209	395.94
796.389	365.22
796.57	338.6
796.75	307.88
796.93	344.74
797.111	324.26
797.291	352.93
797.471	320.17
797.652	277.16
797.832	307.88
798.012	334.5
798.192	258.73
798.373	244.39
798.553	328.36
798.733	305.83
798.913	289.45
799.093	285.35
799.274	314.02
799.454	283.3
799.634	305.83
799.814	324.26
799.994	295.59
800.174	354.98
800.354	258.73
800.534	295.59
800.714	291.49
800.894	279.21
801.074	271.01
801.254	311.97
801.434	295.59
801.614	193.19
801.794	252.58
801.974	711.33
802.154	307.88
802.334	228.01
802.514	266.92
802.693	248.49
802.873	277.16
803.053	252.58
803.233	311.97
803.413	277.16
803.592	295.59
803.772	248.49
803.952	262.82
804.131	244.39
804.311	238.25
804.491	228.01
804.67	240.3
804.85	195.24
805.03	295.59
805.209	295.59
805.389	201.38
805.568	283.3
805.748	230.06
805.928	205.48
806.107	221.86
806.287	160.42
806.466	281.25
806.646	316.07
806.825	232.1
807.004	205.48
807.184	221.86
807.363	205.48
807.543	205.48
807.722	189.1
807.901	197.29
808.081	305.83
808.26	125.61
808.439	152.23
808.619	205.48
808.798	166.57
808.977	117.42
809.156	189.1
809.336	203.43
809.515	176.81
809.694	217.77
809.873	207.53
810.052	225.96
810.231	209.58
810.411	193.19
810.59	170.66
810.769	174.76
810.948	205.48
811.127	137.9
811.306	189.1
811.485	174.76
811.664	178.86
811.843	146.09
812.022	164.52
812.201	193.19
812.38	191.14
812.559	193.19
812.737	193.19
812.916	166.57
813.095	215.72
813.274	185
813.453	201.38
813.632	217.77
813.811	207.53
813.989	68.27
814.168	211.62
814.347	160.42
814.526	170.66
814.704	185
814.883	287.4
815.062	215.72
815.24	178.86
815.419	92.84
815.598	162.47
815.776	60.07
815.955	162.47
816.133	129.7
816.312	191.14
816.49	109.23
816.669	209.58
816.847	172.71
817.026	180.9
817.204	189.1
817.383	150.18
817.561	148.14
817.74	170.66
817.918	211.62
818.097	191.14
818.275	49.83
818.453	137.9
818.632	113.32
818.81	76.46
818.988	197.29
819.167	150.18
819.345	193.19
819.523	115.37
819.701	170.66
819.879	150.18
820.058	121.51
820.236	86.7
820.414	80.55
820.592	133.8
820.77	180.9
820.948	103.08
821.127	119.46
821.305	201.38
821.483	51.88
821.661	111.27
821.839	127.66
822.017	152.23
822.195	178.86
822.373	96.94
822.551	148.14
822.729	141.99
822.907	74.41
823.085	141.99
823.262	49.83
823.44	123.56
823.618	166.57
823.796	105.13
823.974	170.66
824.152	53.93
824.329	127.66
824.507	191.14
824.685	31.4
824.863	150.18
825.04	92.84
825.218	125.61
825.396	72.36
825.574	160.42
825.751	98.99
825.929	51.88
826.107	68.27
826.284	178.86
826.462	115.37
826.639	74.41
826.817	51.88
826.994	88.75
827.172	125.61
827.349	139.94
827.527	129.7
827.704	111.27
827.882	88.75
828.059	119.46
828.237	72.36
828.414	133.8
828.591	84.65
828.769	47.79
828.946	45.74
829.124	144.04
829.301	144.04
829.478	35.5
829.655	82.6
829.833	88.75
830.01	78.51
830.187	178.86
830.364	88.75
830.542	80.55
830.719	211.62
830.896	84.65
831.073	96.94
831.25	96.94
831.427	62.12
831.604	133.8
831.782	64.17
831.959	29.35
832.136	164.52
832.313	125.61
832.49	131.75
832.667	103.08
832.844	27.31
833.021	113.32
833.198	68.27
833.374	80.55
833.551	148.14
833.728	98.99
833.905	139.94
834.082	115.37
834.259	90.79
834.436	60.07
834.612	64.17
834.789	86.7
834.966	27.31
835.143	33.45
835.319	60.07
835.496	53.93
835.673	-30.04
835.85	172.71
836.026	160.42
836.203	17.07
836.38	127.66
836.556	35.5
836.733	98.99
836.909	74.41
837.086	107.18
837.262	64.17
837.439	37.55
837.616	53.93
837.792	-1.37
837.968	29.35
838.145	121.51
838.321	64.17
838.498	90.79
838.674	31.4
838.851	80.55
839.027	68.27
839.203	27.31
839.38	58.03
839.556	60.07
839.732	105.13
839.909	82.6
840.085	90.79
840.261	119.46
840.437	12.97
840.614	43.69
840.79	78.51
840.966	35.5
841.142	103.08
841.318	45.74
841.494	74.41
841.671	113.32
841.847	33.45
842.023	105.13
842.199	88.75
842.375	29.35
842.551	53.93
842.727	19.11
842.903	92.84
843.079	4.78
843.255	119.46
843.431	53.93
843.607	37.55
843.783	70.31
843.959	84.65
844.134	4.78
844.31	107.18
844.486	64.17
844.662	21.16
844.838	33.45
845.013	96.94
845.189	23.21
845.365	92.84
845.541	84.65
845.716	39.59
845.892	92.84
846.068	70.31
846.244	62.12
846.419	10.92
846.595	49.83
846.77	64.17
846.946	82.6
847.122	60.07
847.297	4.78
847.473	66.22
847.648	6.83
847.824	62.12
847.999	25.26
848.175	74.41
848.35	17.07
848.526	78.51
848.701	17.07
848.876	115.37
849.052	68.27
849.227	62.12
849.403	62.12
849.578	82.6
849.753	49.83
849.929	37.55
850.104	-36.18
850.279	51.88
850.454	66.22
850.63	53.93
850.805	45.74
850.98	19.11
851.155	17.07
851.33	72.36
851.505	4.78
851.681	0.68
851.856	15.02
852.031	33.45
852.206	64.17
852.381	60.07
852.556	103.08
852.731	101.03
852.906	45.74
853.081	-11.61
853.256	10.92
853.431	17.07
853.606	-27.99
853.781	31.4
853.956	-3.41
854.131	41.64
854.305	37.55
854.48	33.45
854.655	29.35
854.83	64.17
855.005	33.45
855.18	23.21
855.354	41.64
855.529	62.12
855.704	-11.61
855.879	129.7
856.053	51.88
856.228	113.32
856.403	15.02
856.577	58.03
856.752	62.12
856.926	45.74
857.101	35.5
857.276	68.27
857.45	-17.75
857.625	39.59
857.799	60.07
857.974	41.64
858.148	4.78
858.323	12.97
858.497	-13.65
858.672	72.36
858.846	84.65
859.02	-30.04
859.195	33.45
859.369	98.99
859.543	-48.47
859.718	29.35
859.892	10.92
860.066	47.79
860.241	74.41
860.415	17.07
860.589	0.68
860.763	43.69
860.938	72.36
861.112	64.17
861.286	21.16
861.46	12.97
861.634	62.12
861.808	55.98
861.982	60.07
862.157	-13.65
862.331	-21.84
862.505	4.78
862.679	47.79
862.853	21.16
863.027	88.75
863.201	8.87
863.375	4.78
863.549	-5.46
863.722	6.83
863.896	60.07
864.07	35.5
864.244	47.79
864.418	90.79
864.592	43.69
864.766	53.93
864.939	31.4
865.113	60.07
865.287	53.93
865.461	29.35
865.634	113.32
865.808	-5.46
865.982	37.55
866.156	-79.19
866.329	27.31
866.503	39.59
866.676	66.22
866.85	-5.46
867.024	-13.65
867.197	21.16
867.371	21.16
867.544	10.92
867.718	53.93
867.891	-46.42
868.065	25.26
868.238	15.02
868.412	31.4
868.585	35.5
868.759	-54.61
868.932	8.87
869.105	-1.37
869.279	-7.51
869.452	-58.71
869.625	25.26
869.799	78.51
869.972	-19.8
870.145	25.26
870.319	17.07
870.492	78.51
870.665	17.07
870.838	8.87
871.011	17.07
871.185	49.83
871.358	53.93
871.531	10.92
871.704	82.6
871.877	76.46
872.05	-3.41
872.223	68.27
872.396	115.37
872.569	-60.76
872.742	58.03
872.915	68.27
873.088	-44.37
873.261	-25.94
873.434	15.02
873.607	10.92
873.78	64.17
873.953	51.88
874.126	53.93
874.299	82.6
874.471	53.93
874.644	-25.94
874.817	-15.7
874.99	111.27
875.163	41.64
875.335	29.35
875.508	-7.51
875.681	60.07
875.853	-89.43
876.026	17.07
876.199	72.36
876.371	76.46
876.544	-1.37
876.717	82.6
876.889	10.92
877.062	49.83
877.234	-1.37
877.407	33.45
877.579	-9.56
877.752	74.41
877.924	115.37
878.097	31.4
878.269	17.07
878.442	-7.51
878.614	-9.56
878.786	68.27
878.959	-21.84
879.131	8.87
879.303	31.4
879.476	-5.46
879.648	21.16
879.82	-19.8
879.993	0.68
880.165	-32.08
880.337	-79.19
880.509	-7.51
880.681	-7.51
880.854	31.4
881.026	8.87
881.198	33.45
881.37	70.31
881.542	-1.37
881.714	58.03
881.886	29.35
882.058	76.46
882.23	-17.75
882.402	53.93
882.574	-17.75
882.746	-30.04
882.918	141.99
883.09	-34.13
883.262	19.11
883.434	21.16
883.606	-15.7
883.778	-19.8
883.95	60.07
884.122	-13.65
884.293	-5.46
884.465	33.45
884.637	19.11
884.809	21.16
884.98	25.26
885.152	-9.56
885.324	2.73
885.496	12.97
885.667	-5.46
885.839	0.68
886.011	0.68
886.182	4.78
886.354	49.83
886.525	-79.19
886.697	-5.46
886.869	8.87
887.04	74.41
887.212	51.88
887.383	33.45
887.555	33.45
887.726	41.64
887.897	41.64
888.069	62.12
888.24	-13.65
888.412	-19.8
888.583	-19.8
888.754	-13.65
888.926	-11.61
889.097	15.02
889.268	25.26
889.44	-32.08
889.611	39.59
889.782	12.97
889.953	33.45
890.125	0.68
890.296	-23.89
890.467	43.69
890.638	-11.61
890.809	74.41
890.98	-17.75
891.151	68.27
891.323	-19.8
891.494	45.74
891.665	53.93
891.836	-11.61
892.007	-52.56
892.178	35.5
892.349	47.79
892.52	10.92
892.691	4.78
892.862	35.5
893.032	19.11
893.203	-19.8
893.374	70.31
893.545	12.97
893.716	29.35
893.887	103.08
894.057	47.79
894.228	-1.37
894.399	66.22
894.57	92.84
894.74	-23.89
894.911	-32.08
895.082	62.12
895.253	-32.08
895.423	-30.04
895.594	101.03
895.764	-11.61
895.935	4.78
896.106	74.41
896.276	-32.08
896.447	-5.46
896.617	10.92
896.788	-7.51
896.958	-34.13
897.129	19.11
897.299	55.98
897.47	37.55
897.64	39.59
897.81	-7.51
897.981	-42.32
898.151	-44.37
898.322	53.93
898.492	33.45
898.662	37.55
898.832	-83.28
899.003	37.55
899.173	21.16
899.343	-15.7
899.513	-30.04
