Data from USB4F104151__91__11-52-58-359.txt Node

Date: Fri Mar 14 11:52:58 EDT 2025
User: louis
Spectrometer: USB4F10415
Trigger mode: 4
Integration Time (sec): 2.000000E-2
Scans to average: 1
Electric dark correction enabled: true
Nonlinearity correction enabled: false
Boxcar width: 0
XAxis mode: Wavelengths
Number of Pixels in Spectrum: 3648
>>>>>Begin Spectral Data<<<<<
178.204	-96.94
178.424	-96.94
178.644	-96.94
178.864	-60.07
179.084	-131.75
179.304	27.99
179.524	-31.4
179.744	-45.74
179.964	-58.03
180.184	44.37
180.404	-17.07
180.624	75.09
180.844	21.85
181.064	-47.79
181.283	7.51
181.503	-31.4
181.723	54.61
181.943	-90.79
182.163	-23.21
182.383	21.85
182.602	52.56
182.822	68.95
183.042	44.37
183.262	9.56
183.482	46.42
183.701	81.24
183.921	62.8
184.141	21.85
184.361	3.41
184.58	-10.92
184.8	42.32
185.02	-58.03
185.239	-0.68
185.459	17.75
185.679	21.85
185.898	-23.21
186.118	71
186.338	36.18
186.557	-10.92
186.777	-25.26
186.997	-17.07
187.216	50.52
187.436	42.32
187.655	38.23
187.875	97.62
188.095	11.61
188.314	38.23
188.534	89.43
188.753	17.75
188.973	68.95
189.192	27.99
189.412	21.85
189.631	3.41
189.851	15.7
190.07	38.23
190.29	-6.83
190.509	81.24
190.729	-6.83
190.948	1.37
191.168	87.38
191.387	3.41
191.607	-10.92
191.826	9.56
192.045	23.89
192.265	17.75
192.484	-41.64
192.704	-23.21
192.923	32.08
193.142	77.14
193.362	99.67
193.581	3.41
193.8	38.23
194.02	21.85
194.239	15.7
194.458	17.75
194.678	-10.92
194.897	122.2
195.116	34.13
195.335	42.32
195.555	75.09
195.774	17.75
195.993	44.37
196.212	50.52
196.432	40.28
196.651	48.47
196.87	73.04
197.089	50.52
197.308	21.85
197.528	-10.92
197.747	-4.78
197.966	-4.78
198.185	-23.21
198.404	54.61
198.623	58.71
198.842	68.95
199.062	-4.78
199.281	38.23
199.5	64.85
199.719	75.09
199.938	7.51
200.157	54.61
200.376	-15.02
200.595	-19.11
200.814	-31.4
201.033	58.71
201.252	42.32
201.471	3.41
201.69	105.81
201.909	93.52
202.128	103.76
202.347	38.23
202.566	89.43
202.785	68.95
203.004	-0.68
203.223	77.14
203.442	25.94
203.661	54.61
203.879	60.76
204.098	23.89
204.317	66.9
204.536	-6.83
204.755	-25.26
204.974	44.37
205.193	40.28
205.411	15.7
205.63	116.05
205.849	91.48
206.068	-43.69
206.287	34.13
206.505	15.7
206.724	1.37
206.943	-6.83
207.162	68.95
207.381	1.37
207.599	25.94
207.818	38.23
208.037	36.18
208.255	54.61
208.474	27.99
208.693	36.18
208.911	9.56
209.13	36.18
209.349	13.65
209.567	-39.59
209.786	56.66
210.005	-0.68
210.223	30.04
210.442	25.94
210.661	85.33
210.879	56.66
211.098	42.32
211.316	27.99
211.535	56.66
211.753	-37.55
211.972	-2.73
212.191	54.61
212.409	54.61
212.628	48.47
212.846	68.95
213.065	-0.68
213.283	-17.07
213.502	17.75
213.72	-6.83
213.938	3.41
214.157	32.08
214.375	23.89
214.594	-37.55
214.812	5.46
215.031	19.8
215.249	5.46
215.467	-2.73
215.686	40.28
215.904	15.7
216.122	91.48
216.341	38.23
216.559	42.32
216.778	71
216.996	5.46
217.214	44.37
217.432	48.47
217.651	15.7
217.869	17.75
218.087	-33.45
218.306	13.65
218.524	62.8
218.742	46.42
218.96	9.56
219.179	56.66
219.397	71
219.615	85.33
219.833	118.1
220.051	-64.17
220.27	64.85
220.488	136.53
220.706	-19.11
220.924	19.8
221.142	1.37
221.36	9.56
221.578	11.61
221.796	50.52
222.015	32.08
222.233	52.56
222.451	73.04
222.669	9.56
222.887	91.48
223.105	46.42
223.323	3.41
223.541	5.46
223.759	19.8
223.977	27.99
224.195	71
224.413	64.85
224.631	91.48
224.849	27.99
225.067	25.94
225.285	32.08
225.503	101.72
225.721	-51.88
225.939	44.37
226.157	52.56
226.375	42.32
226.592	-23.21
226.81	38.23
227.028	60.76
227.246	71
227.464	21.85
227.682	79.19
227.9	5.46
228.117	85.33
228.335	68.95
228.553	30.04
228.771	15.7
228.989	58.71
229.206	68.95
229.424	38.23
229.642	3.41
229.86	-10.92
230.077	-0.68
230.295	48.47
230.513	81.24
230.731	30.04
230.948	19.8
231.166	46.42
231.384	32.08
231.601	111.96
231.819	25.94
232.037	38.23
232.254	1.37
232.472	-51.88
232.689	9.56
232.907	89.43
233.125	34.13
233.342	-64.17
233.56	5.46
233.777	36.18
233.995	77.14
234.213	109.91
234.43	124.24
234.648	-66.22
234.865	32.08
235.083	64.85
235.3	-10.92
235.518	21.85
235.735	58.71
235.953	97.62
236.17	30.04
236.388	42.32
236.605	17.75
236.822	30.04
237.04	27.99
237.257	17.75
237.475	-15.02
237.692	48.47
237.909	21.85
238.127	85.33
238.344	-10.92
238.562	-58.03
238.779	19.8
238.996	34.13
239.214	5.46
239.431	81.24
239.648	46.42
239.865	42.32
240.083	19.8
240.3	-43.69
240.517	-23.21
240.735	52.56
240.952	36.18
241.169	66.9
241.386	15.7
241.603	62.8
241.821	-10.92
242.038	34.13
242.255	93.52
242.472	34.13
242.689	44.37
242.907	95.57
243.124	62.8
243.341	-31.4
243.558	50.52
243.775	19.8
243.992	-31.4
244.209	114
244.426	56.66
244.643	23.89
244.86	11.61
245.078	25.94
245.295	54.61
245.512	27.99
245.729	-25.26
245.946	13.65
246.163	52.56
246.38	27.99
246.597	68.95
246.814	15.7
247.031	19.8
247.248	71
247.464	27.99
247.681	5.46
247.898	-10.92
248.115	64.85
248.332	-27.31
248.549	52.56
248.766	91.48
248.983	38.23
249.2	85.33
249.417	71
249.633	15.7
249.85	58.71
250.067	-51.88
250.284	38.23
250.501	85.33
250.717	34.13
250.934	9.56
251.151	42.32
251.368	-21.16
251.585	52.56
251.801	9.56
252.018	-29.35
252.235	38.23
252.451	64.85
252.668	48.47
252.885	75.09
253.102	81.24
253.318	-33.45
253.535	21.85
253.752	25.94
253.968	21.85
254.185	32.08
254.401	42.32
254.618	44.37
254.835	13.65
255.051	99.67
255.268	62.8
255.484	40.28
255.701	25.94
255.917	99.67
256.134	91.48
256.351	66.9
256.567	-8.87
256.784	50.52
257	15.7
257.217	56.66
257.433	68.95
257.65	27.99
257.866	79.19
258.082	-19.11
258.299	36.18
258.515	-2.73
258.732	44.37
258.948	23.89
259.165	68.95
259.381	-12.97
259.597	81.24
259.814	-43.69
260.03	5.46
260.246	58.71
260.463	-23.21
260.679	95.57
260.895	23.89
261.112	-4.78
261.328	40.28
261.544	19.8
261.761	120.15
261.977	17.75
262.193	-2.73
262.409	5.46
262.626	56.66
262.842	89.43
263.058	-0.68
263.274	25.94
263.49	-6.83
263.707	44.37
263.923	25.94
264.139	52.56
264.355	50.52
264.571	85.33
264.787	42.32
265.004	-0.68
265.22	44.37
265.436	-43.69
265.652	23.89
265.868	17.75
266.084	-8.87
266.3	17.75
266.516	40.28
266.732	52.56
266.948	-27.31
267.164	11.61
267.38	1.37
267.596	136.53
267.812	25.94
268.028	48.47
268.244	-6.83
268.46	66.9
268.676	15.7
268.892	13.65
269.108	21.85
269.324	36.18
269.54	27.99
269.756	62.8
269.972	40.28
270.188	-8.87
270.403	-21.16
270.619	56.66
270.835	23.89
271.051	58.71
271.267	7.51
271.483	103.76
271.698	58.71
271.914	34.13
272.13	40.28
272.346	-2.73
272.562	99.67
272.777	1.37
272.993	-23.21
273.209	25.94
273.425	11.61
273.64	66.9
273.856	56.66
274.072	21.85
274.287	-35.5
274.503	81.24
274.719	32.08
274.934	44.37
275.15	9.56
275.366	13.65
275.581	19.8
275.797	44.37
276.012	48.47
276.228	64.85
276.444	25.94
276.659	87.38
276.875	48.47
277.09	83.28
277.306	85.33
277.521	77.14
277.737	81.24
277.952	118.1
278.168	62.8
278.383	42.32
278.599	-47.79
278.814	34.13
279.03	68.95
279.245	30.04
279.461	40.28
279.676	56.66
279.892	1.37
280.107	-25.26
280.322	109.91
280.538	21.85
280.753	30.04
280.969	13.65
281.184	19.8
281.399	21.85
281.615	-12.97
281.83	77.14
282.045	-43.69
282.26	15.7
282.476	36.18
282.691	64.85
282.906	60.76
283.122	25.94
283.337	56.66
283.552	21.85
283.767	60.76
283.983	116.05
284.198	-2.73
284.413	-6.83
284.628	48.47
284.843	44.37
285.058	34.13
285.274	27.99
285.489	52.56
285.704	19.8
285.919	5.46
286.134	9.56
286.349	71
286.564	54.61
286.779	11.61
286.995	17.75
287.21	-15.02
287.425	54.61
287.64	27.99
287.855	77.14
288.07	66.9
288.285	36.18
288.5	7.51
288.715	77.14
288.93	36.18
289.145	-8.87
289.36	5.46
289.575	46.42
289.79	21.85
290.004	52.56
290.219	42.32
290.434	56.66
290.649	-45.74
290.864	124.24
291.079	60.76
291.294	25.94
291.509	44.37
291.724	79.19
291.938	68.95
292.153	71
292.368	13.65
292.583	60.76
292.798	-0.68
293.012	89.43
293.227	21.85
293.442	64.85
293.657	44.37
293.871	101.72
294.086	-41.64
294.301	34.13
294.516	30.04
294.73	56.66
294.945	-4.78
295.16	25.94
295.374	40.28
295.589	50.52
295.804	-10.92
296.018	-0.68
296.233	60.76
296.447	-15.02
296.662	25.94
296.877	87.38
297.091	17.75
297.306	120.15
297.52	-2.73
297.735	79.19
297.949	77.14
298.164	73.04
298.378	58.71
298.593	109.91
298.807	34.13
299.022	-35.5
299.236	66.9
299.451	-37.55
299.665	34.13
299.88	32.08
300.094	38.23
300.309	-0.68
300.523	44.37
300.737	81.24
300.952	13.65
301.166	118.1
301.381	30.04
301.595	-84.65
301.809	13.65
302.024	23.89
302.238	64.85
302.452	30.04
302.667	-8.87
302.881	111.96
303.095	38.23
303.309	50.52
303.524	77.14
303.738	-51.88
303.952	50.52
304.166	81.24
304.381	91.48
304.595	40.28
304.809	60.76
305.023	89.43
305.237	-12.97
305.452	-4.78
305.666	46.42
305.88	-15.02
306.094	54.61
306.308	15.7
306.522	83.28
306.736	62.8
306.95	23.89
307.164	32.08
307.379	25.94
307.593	62.8
307.807	64.85
308.021	34.13
308.235	58.71
308.449	15.7
308.663	30.04
308.877	17.75
309.091	40.28
309.305	17.75
309.519	7.51
309.733	-2.73
309.947	44.37
310.161	5.46
310.374	42.32
310.588	83.28
310.802	21.85
311.016	58.71
311.23	17.75
311.444	13.65
311.658	38.23
311.872	54.61
312.085	73.04
312.299	75.09
312.513	-15.02
312.727	42.32
312.941	-0.68
313.154	46.42
313.368	5.46
313.582	89.43
313.796	71
314.009	56.66
314.223	1.37
314.437	13.65
314.651	48.47
314.864	77.14
315.078	64.85
315.292	21.85
315.505	48.47
315.719	40.28
315.933	36.18
316.146	7.51
316.36	5.46
316.573	68.95
316.787	42.32
317.001	25.94
317.214	-21.16
317.428	52.56
317.641	17.75
317.855	42.32
318.068	-25.26
318.282	-10.92
318.495	46.42
318.709	11.61
318.922	40.28
319.136	23.89
319.349	34.13
319.563	120.15
319.776	-6.83
319.99	36.18
320.203	32.08
320.417	-8.87
320.63	116.05
320.843	120.15
321.057	87.38
321.27	116.05
321.483	11.61
321.697	46.42
321.91	79.19
322.124	116.05
322.337	5.46
322.55	44.37
322.763	-19.11
322.977	-25.26
323.19	-2.73
323.403	73.04
323.617	-53.93
323.83	36.18
324.043	52.56
324.256	85.33
324.469	23.89
324.683	105.81
324.896	5.46
325.109	56.66
325.322	56.66
325.535	68.95
325.748	-2.73
325.962	46.42
326.175	60.76
326.388	54.61
326.601	27.99
326.814	25.94
327.027	85.33
327.24	1.37
327.453	-2.73
327.666	52.56
327.879	40.28
328.092	50.52
328.305	32.08
328.518	42.32
328.731	52.56
328.944	46.42
329.157	17.75
329.37	7.51
329.583	48.47
329.796	93.52
330.009	42.32
330.222	19.8
330.435	75.09
330.648	79.19
330.861	30.04
331.073	54.61
331.286	7.51
331.499	44.37
331.712	58.71
331.925	25.94
332.138	23.89
332.35	120.15
332.563	56.66
332.776	50.52
332.989	17.75
333.202	15.7
333.414	91.48
333.627	38.23
333.84	-27.31
334.053	124.24
334.265	-2.73
334.478	-62.12
334.691	-27.31
334.903	85.33
335.116	38.23
335.329	30.04
335.541	27.99
335.754	118.1
335.966	-0.68
336.179	3.41
336.392	-37.55
336.604	54.61
336.817	32.08
337.029	42.32
337.242	99.67
337.454	97.62
337.667	93.52
337.88	83.28
338.092	83.28
338.305	48.47
338.517	38.23
338.729	25.94
338.942	3.41
339.154	15.7
339.367	1.37
339.579	101.72
339.792	-2.73
340.004	52.56
340.217	54.61
340.429	85.33
340.641	13.65
340.854	-60.07
341.066	97.62
341.278	91.48
341.491	40.28
341.703	-25.26
341.915	40.28
342.128	130.39
342.34	-15.02
342.552	9.56
342.764	54.61
342.977	89.43
343.189	-27.31
343.401	60.76
343.613	15.7
343.826	58.71
344.038	75.09
344.25	1.37
344.462	19.8
344.674	107.86
344.886	38.23
345.099	68.95
345.311	89.43
345.523	-6.83
345.735	36.18
345.947	71
346.159	44.37
346.371	-92.84
346.583	21.85
346.795	64.85
347.007	48.47
347.219	42.32
347.431	99.67
347.643	66.9
347.855	-53.93
348.067	56.66
348.279	64.85
348.491	83.28
348.703	56.66
348.915	13.65
349.127	75.09
349.339	56.66
349.551	-55.98
349.763	73.04
349.975	-17.07
350.187	79.19
350.399	68.95
350.61	50.52
350.822	54.61
351.034	44.37
351.246	5.46
351.458	64.85
351.669	66.9
351.881	27.99
352.093	60.76
352.305	95.57
352.517	-29.35
352.728	87.38
352.94	5.46
353.152	42.32
353.363	50.52
353.575	64.85
353.787	97.62
353.999	60.76
354.21	71
354.422	11.61
354.633	-49.83
354.845	-4.78
355.057	79.19
355.268	97.62
355.48	40.28
355.692	75.09
355.903	32.08
356.115	58.71
356.326	19.8
356.538	38.23
356.749	32.08
356.961	75.09
357.172	99.67
357.384	23.89
357.595	48.47
357.807	17.75
358.018	17.75
358.23	73.04
358.441	-31.4
358.653	42.32
358.864	30.04
359.075	30.04
359.287	25.94
359.498	21.85
359.709	-0.68
359.921	89.43
360.132	109.91
360.344	11.61
360.555	62.8
360.766	46.42
360.977	46.42
361.189	56.66
361.4	48.47
361.611	150.87
361.823	38.23
362.034	44.37
362.245	25.94
362.456	34.13
362.667	111.96
362.879	34.13
363.09	38.23
363.301	48.47
363.512	1.37
363.723	32.08
363.935	3.41
364.146	118.1
364.357	15.7
364.568	120.15
364.779	68.95
364.99	81.24
365.201	-39.59
365.412	25.94
365.623	-29.35
365.834	68.95
366.045	81.24
366.256	64.85
366.467	73.04
366.678	93.52
366.889	40.28
367.1	73.04
367.311	95.57
367.522	91.48
367.733	60.76
367.944	52.56
368.155	58.71
368.366	11.61
368.577	71
368.788	99.67
368.999	19.8
369.209	109.91
369.42	103.76
369.631	54.61
369.842	44.37
370.053	60.76
370.264	81.24
370.474	87.38
370.685	109.91
370.896	19.8
371.107	38.23
371.317	71
371.528	50.52
371.739	54.61
371.95	99.67
372.16	11.61
372.371	42.32
372.582	-12.97
372.792	52.56
373.003	17.75
373.214	46.42
373.424	118.1
373.635	40.28
373.846	-10.92
374.056	68.95
374.267	32.08
374.477	79.19
374.688	48.47
374.898	32.08
375.109	34.13
375.319	95.57
375.53	85.33
375.74	50.52
375.951	-0.68
376.161	-0.68
376.372	64.85
376.582	58.71
376.793	-6.83
377.003	58.71
377.214	103.76
377.424	40.28
377.635	68.95
377.845	89.43
378.055	11.61
378.266	34.13
378.476	-0.68
378.686	71
378.897	87.38
379.107	128.34
379.317	40.28
379.528	101.72
379.738	144.72
379.948	19.8
380.158	66.9
380.369	62.8
380.579	17.75
380.789	64.85
380.999	50.52
381.21	154.96
381.42	93.52
381.63	-6.83
381.84	109.91
382.05	38.23
382.261	46.42
382.471	38.23
382.681	7.51
382.891	107.86
383.101	40.28
383.311	79.19
383.521	42.32
383.731	66.9
383.941	85.33
384.151	64.85
384.361	75.09
384.571	101.72
384.781	64.85
384.991	142.68
385.201	77.14
385.411	73.04
385.621	73.04
385.831	11.61
386.041	-4.78
386.251	36.18
386.461	-12.97
386.671	56.66
386.881	46.42
387.091	40.28
387.301	27.99
387.511	75.09
387.72	27.99
387.93	66.9
388.14	25.94
388.35	50.52
388.56	58.71
388.769	58.71
388.979	97.62
389.189	50.52
389.399	46.42
389.609	25.94
389.818	144.72
390.028	48.47
390.238	46.42
390.447	73.04
390.657	105.81
390.867	21.85
391.076	85.33
391.286	-31.4
391.496	66.9
391.705	66.9
391.915	126.29
392.125	120.15
392.334	48.47
392.544	19.8
392.753	50.52
392.963	62.8
393.172	140.63
393.382	56.66
393.591	54.61
393.801	52.56
394.01	71
394.22	107.86
394.429	75.09
394.639	15.7
394.848	109.91
395.058	140.63
395.267	50.52
395.477	124.24
395.686	91.48
395.895	120.15
396.105	64.85
396.314	38.23
396.524	64.85
396.733	62.8
396.942	91.48
397.152	75.09
397.361	60.76
397.57	91.48
397.78	54.61
397.989	140.63
398.198	142.68
398.407	109.91
398.617	56.66
398.826	124.24
399.035	60.76
399.244	150.87
399.453	109.91
399.663	118.1
399.872	136.53
400.081	89.43
400.29	130.39
400.499	99.67
400.708	191.83
400.917	142.68
401.127	87.38
401.336	91.48
401.545	91.48
401.754	165.2
401.963	148.82
402.172	175.44
402.381	44.37
402.59	89.43
402.799	130.39
403.008	62.8
403.217	142.68
403.426	71
403.635	116.05
403.844	144.72
404.053	171.35
404.262	128.34
404.471	173.39
404.68	83.28
404.888	91.48
405.097	124.24
405.306	136.53
405.515	95.57
405.724	152.92
405.933	148.82
406.142	257.36
406.35	171.35
406.559	120.15
406.768	183.63
406.977	183.63
407.185	128.34
407.394	202.07
407.603	218.45
407.812	191.83
408.02	185.68
408.229	222.55
408.438	234.83
408.646	161.11
408.855	224.59
409.064	312.66
409.272	259.41
409.481	263.51
409.69	318.8
409.898	290.13
410.107	290.13
410.315	351.57
410.524	263.51
410.733	306.51
410.941	257.36
411.15	304.46
411.358	257.36
411.567	443.73
411.775	355.66
411.984	308.56
412.192	468.3
412.401	394.58
412.609	431.44
412.818	398.67
413.026	415.06
413.234	439.63
413.443	435.53
413.651	441.68
413.86	499.02
414.068	582.99
414.276	546.13
414.485	496.97
414.693	646.48
414.901	617.8
415.11	511.31
415.318	691.53
415.526	685.39
415.734	728.39
415.943	664.91
416.151	781.64
416.359	685.39
416.567	787.79
416.776	781.64
416.984	920.9
417.192	841.03
417.4	873.8
417.608	894.28
417.817	865.61
418.025	963.91
418.233	1017.16
418.441	1047.88
418.649	1090.88
418.857	1140.04
419.065	1183.04
419.273	1066.31
419.481	1146.18
419.689	1273.15
419.897	1334.59
420.105	1379.65
420.313	1361.22
420.521	1574.21
420.729	1502.53
420.937	1523.01
421.145	1551.68
421.353	1570.11
421.561	1688.89
421.769	1789.24
421.977	1877.3
422.185	1832.25
422.393	1873.21
422.601	1983.8
422.809	1875.26
423.017	2022.71
423.224	2018.61
423.432	2157.88
423.64	2184.5
423.848	2413.87
424.056	2338.1
424.263	2649.39
424.471	2460.98
424.679	2577.71
424.887	2581.81
425.094	2614.57
425.302	2731.31
425.51	2929.96
425.718	2934.06
425.925	2950.44
426.133	3114.28
426.341	3241.25
426.548	3331.36
426.756	3392.8
426.964	3591.45
427.171	3644.7
427.379	3765.53
427.586	3689.76
427.794	3839.26
428.001	4021.53
428.209	4252.95
428.417	4236.56
428.624	4490.51
428.832	4482.32
429.039	4517.14
429.247	4476.18
429.454	4812.04
429.662	5158.15
429.869	4887.82
430.076	5420.29
430.284	5195.01
430.491	5233.93
430.699	5694.72
430.906	5715.2
431.114	5551.36
431.321	5805.31
431.528	6114.55
431.736	6448.37
431.943	6814.96
432.15	6444.27
432.358	6421.75
432.565	6855.92
432.772	6892.78
432.979	7208.17
433.187	7353.57
433.394	7597.28
433.601	7834.85
433.808	8000.73
434.016	8154.33
434.223	8340.69
434.43	8867.02
434.637	8492.24
434.844	9217.22
435.052	9401.54
435.259	9182.41
435.466	9354.44
435.673	9303.24
435.88	10030.27
436.087	10486.97
436.294	10443.96
436.501	10194.11
436.708	10327.22
436.915	10691.76
437.122	11158.7
437.329	11183.27
437.537	11338.92
437.743	11556.01
437.95	11492.52
438.157	11945.12
438.364	12559.51
438.571	12375.19
438.778	12858.51
438.985	13960.32
439.192	13182.09
439.399	13845.63
439.606	13493.38
439.813	14171.26
440.02	15322.22
440.227	14689.4
440.433	14486.65
440.64	15156.33
440.847	14791.8
441.054	15492.2
441.261	16389.21
441.467	16006.24
441.674	16618.58
441.881	17134.67
442.088	17335.37
442.294	16880.72
442.501	17505.35
442.708	17904.71
442.914	18527.29
443.121	19158.06
443.328	18869.3
443.534	20233.25
443.741	19463.21
443.948	19262.51
444.154	20511.77
444.361	20460.57
444.568	20571.16
444.774	20583.45
444.981	20808.73
445.187	21597.2
445.394	22184.96
445.6	22170.63
445.807	24511.46
446.013	23237.62
446.22	23720.94
446.426	24499.17
446.633	25076.69
446.839	25709.52
447.046	24497.12
447.252	26043.34
447.459	26264.52
447.665	25820.11
447.871	26907.58
448.078	28339.11
448.284	26803.13
448.491	27558.83
448.697	28535.71
448.903	28797.85
449.11	29264.79
449.316	28947.36
449.522	29574.03
449.728	29934.48
449.935	30106.51
450.141	30036.87
450.347	30946.17
450.553	29926.28
450.76	30645.12
450.966	31110.01
451.172	31081.34
451.378	31789.94
451.584	31513.46
451.791	32217.96
451.997	31763.31
452.203	32695.14
452.409	32795.49
452.615	32668.51
452.821	30942.08
453.027	30456.71
453.233	32562.02
453.44	30976.89
453.646	31495.03
453.852	31949.68
454.058	32359.27
454.264	31085.43
454.47	31519.6
454.676	31097.72
454.882	31961.97
455.088	29084.57
455.294	29862.8
455.5	30182.28
455.705	30606.21
455.911	29473.68
456.117	29021.08
456.323	28298.15
456.529	26758.08
456.735	28208.04
456.941	27014.07
457.147	27104.18
457.352	26067.91
457.558	26041.29
457.764	25897.93
457.97	25531.34
458.176	24888.28
458.381	24652.77
458.587	23735.28
458.793	23755.75
458.999	22623.23
459.204	24060.9
459.41	23022.58
459.616	21675.02
459.821	21652.49
460.027	21885.96
460.233	21353.49
460.438	20349.98
460.644	20427.81
460.85	19549.23
461.055	19416.11
461.261	19166.26
461.466	17869.89
461.672	17011.79
461.878	18373.69
462.083	17153.1
462.289	17003.6
462.494	16749.65
462.7	16186.46
462.905	15508.58
463.111	16143.45
463.316	16368.73
463.522	15731.81
463.727	15864.93
463.932	15793.25
464.138	15889.51
464.343	15928.42
464.549	15178.86
464.754	15596.65
464.959	15662.18
465.165	15598.7
465.37	14673.01
465.575	14574.71
465.781	14967.92
465.986	15322.22
466.191	14814.32
466.397	14283.9
466.602	13513.86
466.807	14113.92
467.012	14068.86
467.218	14294.14
467.423	14115.97
467.628	13866.11
467.833	14539.9
468.038	13847.68
468.244	13630.6
468.449	13931.65
468.654	13538.44
468.859	13513.86
469.064	13595.78
469.269	13130.89
469.474	13317.26
469.679	13575.3
469.885	13075.6
470.09	12940.43
470.295	12983.44
470.5	12938.38
470.705	12749.97
470.91	12264.6
471.115	12528.79
471.32	12666
471.525	12491.93
471.73	12360.86
471.935	12311.71
472.139	11932.83
472.344	12018.85
472.549	12135.58
472.754	11580.58
472.959	11521.19
473.164	11218.09
473.369	11154.6
473.574	11603.11
473.778	11408.55
473.983	11283.63
474.188	11310.25
474.393	10706.1
474.598	10818.74
474.802	10624.18
475.007	10417.33
475.212	10624.18
475.417	10052.8
475.621	10333.37
475.826	10312.89
476.031	10124.47
476.235	9737.41
476.44	10190.01
476.645	9559.24
476.849	9809.09
477.054	9852.1
477.259	9835.71
477.463	9452.74
477.668	9323.72
477.872	9297.1
478.077	9393.35
478.282	9141.45
478.486	9030.86
478.691	8950.99
478.895	8963.28
479.1	8920.27
479.304	8692.94
479.509	8494.29
479.713	8787.15
479.918	8719.57
480.122	8697.04
480.326	8496.34
480.531	8525.01
480.735	8615.12
480.94	8477.91
481.144	8817.87
481.348	8387.8
481.553	8359.13
481.757	8117.47
481.961	8402.13
482.166	8486.1
482.37	8348.89
482.574	8129.75
482.778	8369.37
482.983	8355.03
483.187	8195.29
483.391	8352.98
483.595	8131.8
483.8	8346.84
484.004	8115.42
484.208	8381.65
484.412	8365.27
484.616	8254.68
484.821	8463.57
485.025	8023.26
485.229	8045.79
485.433	8205.53
485.637	8254.68
485.841	8166.62
486.045	8158.42
486.249	8256.73
486.453	8086.75
486.657	8324.31
486.861	8408.28
487.065	8082.65
487.269	8205.53
487.473	8148.19
487.677	8193.24
487.881	8305.88
488.085	8305.88
488.289	8365.27
488.493	8352.98
488.697	8289.49
488.901	8357.08
489.105	8305.88
489.309	8238.3
489.512	8312.02
489.716	8197.34
489.92	8424.66
490.124	8242.39
490.328	8518.87
490.531	8398.04
490.735	8393.94
490.939	8359.13
491.143	8283.35
491.346	8402.13
491.55	8498.39
491.754	8512.72
491.958	8670.42
492.161	8684.75
492.365	8561.87
492.569	8606.93
492.772	8512.72
492.976	8809.68
493.18	8588.5
493.383	8877.26
493.587	8938.7
493.79	9014.48
493.994	9086.15
494.197	8975.56
494.401	9235.66
494.605	9153.74
494.808	9125.07
495.012	9180.36
495.215	9465.03
495.419	9315.53
495.622	9481.41
495.825	9505.99
496.029	9587.91
496.232	9899.2
496.436	9794.75
496.639	10099.9
496.843	9839.81
497.046	10218.68
497.249	10017.98
497.453	10265.78
497.656	10552.5
497.859	10456.25
498.063	10710.19
498.266	10734.77
498.469	10740.91
498.673	10912.94
498.876	11015.34
499.079	11039.92
499.282	11224.23
499.485	11361.45
499.689	11261.1
499.892	11672.74
500.095	11701.41
500.298	11930.78
500.501	12115.1
500.705	12168.35
500.908	12133.53
501.111	12524.69
501.314	12536.98
501.517	12534.93
501.72	12700.82
501.923	12876.94
502.126	13051.02
502.329	13237.39
502.532	13374.6
502.735	13597.83
502.938	13616.26
503.141	13827.2
503.344	14199.93
503.547	13859.97
503.75	14095.49
503.953	14398.59
504.156	14421.11
504.359	14763.12
504.562	14670.97
504.765	15037.55
504.968	15363.18
505.17	15537.26
505.373	15434.86
505.576	15858.79
505.779	15938.66
505.982	16002.15
506.185	16280.67
506.387	16282.72
506.59	16428.12
506.793	16940.11
506.996	16700.5
507.198	17439.82
507.401	17110.1
507.604	17099.86
507.807	17640.52
508.009	17910.85
508.212	17943.62
508.415	18388.03
508.617	18023.49
508.82	18412.6
509.022	18494.52
509.225	19237.94
509.428	19000.37
509.63	19291.18
509.833	19303.47
510.035	20053.03
510.238	19788.84
510.44	19887.14
510.643	20188.19
510.845	20495.39
511.048	20560.92
511.25	20991
511.453	20818.97
511.655	21527.56
511.858	21253.14
512.06	21330.96
512.262	21953.54
512.465	21920.77
512.667	22160.39
512.87	22238.21
513.072	22430.72
513.274	22742.01
513.477	23174.13
513.679	23505.9
513.881	23649.26
514.084	23890.92
514.286	24009.7
514.488	23968.74
514.69	24718.3
514.893	24691.68
515.095	24439.78
515.297	25205.72
515.499	25019.35
515.701	25418.71
515.904	25799.63
516.106	25994.18
516.308	25744.33
516.51	26405.83
516.712	26704.83
516.914	26989.5
517.116	27243.45
517.318	27382.71
517.52	27937.71
517.722	27614.13
517.925	27982.76
518.127	28156.84
518.329	28666.78
518.531	28322.73
518.733	29137.82
518.935	29338.52
519.136	29453.2
519.338	29887.37
519.54	30296.97
519.742	30411.65
519.944	30247.82
520.146	31019.9
520.348	31124.35
520.55	31320.95
520.752	31239.03
520.954	31910.77
521.155	31449.97
521.357	32277.35
521.559	32781.15
521.761	32871.26
521.963	32463.72
522.164	33108.83
522.366	33360.73
522.568	33432.41
522.77	33915.73
522.971	34292.55
523.173	33997.65
523.375	34200.4
523.576	34413.38
523.778	35021.63
523.98	34964.29
524.181	35236.67
524.383	35314.49
524.584	36025.14
524.786	35803.95
524.988	35908.4
525.189	36107.05
525.391	36569.9
525.592	36709.16
525.794	36690.73
525.995	37012.26
526.197	36920.1
526.398	37403.42
526.6	37245.72
526.801	37309.21
527.003	37565.21
527.204	37964.56
527.406	38011.67
527.607	38130.45
527.808	38578.95
528.01	37747.48
528.211	38044.43
528.412	39090.94
528.614	38761.22
528.815	38529.8
529.016	39179.01
529.218	38839.04
529.419	39072.51
529.62	38691.59
529.822	39125.76
530.023	39697.14
530.224	39523.07
530.425	39445.24
530.626	39482.11
530.828	39250.69
531.029	40012.53
531.23	39656.18
531.431	39848.69
531.632	39889.65
531.833	40166.13
532.035	40151.79
532.236	40039.15
532.437	40555.24
532.638	40209.14
532.839	40256.24
533.04	40465.13
533.241	40446.7
533.442	41016.04
533.643	40807.14
533.844	40600.3
534.045	40821.48
534.246	40366.83
534.447	41122.53
534.648	40618.73
534.849	40639.21
535.05	40676.07
535.251	40700.65
535.451	40395.5
535.652	41177.82
535.853	40430.32
536.054	40960.74
536.255	40725.22
536.456	40737.51
536.657	41210.59
536.857	40669.93
537.058	40665.83
537.259	41085.67
537.46	41220.83
537.66	41009.89
537.861	41071.33
538.062	40450.8
538.263	41052.9
538.463	40671.98
538.664	41087.71
538.865	40952.55
539.065	41003.75
539.266	40850.15
539.466	41130.72
539.667	40516.33
539.868	41216.74
540.068	40735.46
540.269	40889.06
540.469	41267.94
540.67	40870.63
540.87	41247.46
541.071	41032.42
541.271	41194.21
541.472	41186.02
541.672	40870.63
541.873	40839.91
542.073	40502
542.274	41319.13
542.474	40569.58
542.675	40876.77
542.875	41290.46
543.075	40782.57
543.276	40528.62
543.476	41134.82
543.676	40987.36
543.877	41081.57
544.077	40954.6
544.277	40874.73
544.478	41118.43
544.678	40889.06
544.878	41128.67
545.078	40702.7
545.279	40407.79
545.479	40659.69
545.679	41130.72
545.879	40895.21
546.079	40655.59
546.28	40807.14
546.48	40590.06
546.68	40968.93
546.88	40485.61
547.08	40757.99
547.28	40471.28
547.48	40528.62
547.68	40991.46
547.88	40655.59
548.081	40889.06
548.281	40766.18
548.481	40329.97
548.681	40970.98
548.881	40479.47
549.081	40610.54
549.28	40487.66
549.48	41132.77
549.68	41130.72
549.88	41247.46
550.08	40184.56
550.28	40936.16
550.48	41024.23
550.68	40618.73
550.88	40760.04
551.08	40413.93
551.279	40610.54
551.479	40438.51
551.679	40502
551.879	40622.83
552.079	40882.92
552.278	40846.05
552.478	40790.76
552.678	40729.32
552.878	40649.45
553.077	40635.11
553.277	40110.83
553.477	40921.83
553.676	40682.22
553.876	40815.33
554.076	40235.76
554.275	40282.86
554.475	40000.24
554.674	40370.93
554.874	40053.49
555.074	40037.11
555.273	40155.89
555.473	40268.53
555.672	39973.62
555.872	40227.57
556.071	40381.17
556.271	39959.28
556.47	39994.1
556.67	39834.36
556.869	39994.1
557.068	39985.91
557.268	39641.85
557.467	40045.3
557.667	39795.45
557.866	39897.84
558.065	39846.65
558.265	39596.79
558.464	39592.7
558.663	39883.51
558.863	39367.42
559.062	39865.08
559.261	39586.55
559.461	39740.15
559.66	39074.56
559.859	39275.26
560.058	38945.54
560.258	39430.91
560.457	39107.33
560.656	39138.05
560.855	38916.87
561.054	38699.78
561.253	38658.82
561.453	39088.9
561.652	38943.49
561.851	38912.77
562.05	38427.4
562.249	38660.87
562.448	38669.06
562.647	38490.89
562.846	38124.3
563.045	38902.53
563.244	38120.21
563.443	38525.71
563.642	37837.59
563.841	38073.1
564.04	37913.36
564.239	38036.24
564.438	37716.76
564.637	38261.52
564.836	37933.84
565.035	37565.21
565.234	37937.94
565.432	37761.81
565.631	37184.29
565.83	37770
566.029	37096.22
566.228	36938.53
566.427	36938.53
566.625	36961.06
566.824	36565.8
567.023	37102.37
567.222	36428.59
567.42	37036.83
567.619	36598.57
567.818	36516.65
568.016	36629.29
568.215	36600.61
568.414	36252.46
568.612	36793.12
568.811	35818.29
569.01	35883.83
569.208	35728.18
569.407	35926.83
569.605	35660.6
569.804	36234.03
570.002	35504.95
570.201	35689.27
570.4	35091.26
570.598	35490.62
570.797	35316.54
570.995	35416.89
571.193	34982.72
571.392	35408.7
571.59	34892.61
571.789	34757.44
571.987	34806.59
572.186	34999.1
572.384	34528.07
572.582	34974.53
572.781	34573.13
572.979	34059.09
573.177	34397
573.376	34429.77
573.574	34210.64
573.772	34335.56
573.971	33921.87
574.169	33842
574.367	33692.5
574.565	33600.34
574.763	33770.32
574.962	33434.46
575.16	33344.34
575.358	33616.72
575.556	33020.77
575.754	33563.48
575.952	32842.59
576.151	33280.86
576.349	32559.97
576.547	32805.73
576.745	32711.52
576.943	32877.41
577.141	32750.43
577.339	32455.53
577.537	32306.02
577.735	32371.56
577.933	32177
578.131	32293.74
578.329	31914.86
578.527	32050.03
578.725	32181.1
578.923	31744.88
579.121	31718.26
579.319	31542.13
579.516	31585.14
579.714	31572.85
579.912	31800.18
580.11	31419.25
580.308	31478.64
580.506	31155.07
580.704	30600.07
580.901	31150.97
581.099	31388.53
581.297	30907.26
581.495	30757.76
581.692	30622.59
581.89	30665.6
582.088	30835.58
582.285	30229.38
582.483	30452.61
582.681	30534.53
582.878	30352.26
583.076	29811.6
583.274	30385.03
583.471	29711.25
583.669	30116.75
583.866	29946.76
584.064	30026.64
584.262	29223.83
584.459	29735.82
584.657	29756.3
584.854	29741.97
585.052	28877.72
585.249	29440.92
585.447	29283.22
585.644	29055.9
585.841	28941.21
586.039	29117.34
586.236	29010.84
586.434	28636.06
586.631	28298.15
586.828	28746.65
587.026	28758.94
587.223	28890.01
587.42	28148.65
587.618	28519.33
587.815	27863.98
588.012	28421.03
588.21	28214.18
588.407	28273.57
588.604	28113.83
588.801	27825.07
588.999	27698.09
589.196	27763.63
589.393	27501.49
589.59	27607.98
589.787	27530.16
589.984	27186.1
590.182	26979.26
590.379	27167.67
590.576	27284.4
590.773	27204.53
590.97	27028.41
591.167	26772.41
591.364	26483.65
591.561	26907.58
591.758	26387.39
591.955	26424.26
592.152	26852.28
592.349	26297.28
592.546	26530.75
592.743	26088.39
592.94	25926.6
593.137	26307.52
593.334	26149.83
593.531	25643.98
593.727	26057.67
593.924	25672.65
594.121	25770.96
594.318	25801.68
594.515	25377.75
594.712	25512.91
594.908	25396.18
595.105	25555.92
595.302	24886.23
595.499	25512.91
595.696	25267.16
595.892	24886.23
596.089	25267.16
596.286	24867.8
596.482	24837.08
596.679	24667.1
596.876	24984.54
597.072	24894.43
597.269	24906.71
597.466	24566.75
597.662	24364
597.859	24450.02
598.055	24558.56
598.252	23784.43
598.448	24056.81
598.645	23874.54
598.841	23786.47
599.038	23843.82
599.234	23784.43
599.431	23882.73
599.627	23553.01
599.824	23981.03
600.02	23350.26
600.217	23559.15
600.413	23434.22
600.609	23313.39
600.806	23200.76
601.002	23360.5
601.198	23114.74
601.395	23305.2
601.591	22760.44
601.787	23329.78
601.984	22907.9
602.18	23145.46
602.376	22840.31
602.572	22821.88
602.769	22590.46
602.965	22273.03
603.161	22653.95
603.357	22502.4
603.553	22125.57
603.75	22297.6
603.946	22264.83
604.142	22094.85
604.338	21851.14
604.534	21691.4
604.73	21564.43
604.926	21736.46
605.122	21978.12
605.318	21713.93
605.514	21589
605.71	21351.44
605.906	21603.34
606.102	21445.65
606.298	21462.03
606.494	21402.64
606.69	21232.66
606.886	21365.78
607.082	20945.94
607.278	21146.64
607.474	20894.74
607.67	21087.25
607.866	20866.07
608.062	21224.47
608.257	20796.44
608.453	20868.12
608.649	20864.02
608.845	20470.81
609.041	20718.62
609.236	20749.34
609.432	20575.26
609.628	20347.93
609.824	20624.41
610.019	20184.1
610.215	20311.07
610.411	20253.73
610.606	20079.65
610.802	20114.47
610.998	20259.87
611.193	20345.89
611.389	19977.25
611.584	20200.48
611.78	19919.91
611.976	19897.38
612.171	20036.64
612.367	19913.77
612.562	19846.18
612.758	19487.79
612.953	19698.73
613.149	19995.68
613.344	19516.46
613.539	19772.46
613.735	19659.82
613.93	19319.85
614.126	19649.58
614.321	19625
614.517	19459.12
614.712	19475.5
614.907	19139.63
615.103	19549.23
615.298	18840.63
615.493	19305.52
615.688	18830.39
615.884	19500.08
616.079	18809.91
616.274	19235.89
616.47	19059.76
616.665	18734.14
616.86	18793.53
617.055	18918.45
617.25	18605.11
617.445	19137.59
617.641	18529.34
617.836	19067.95
618.031	18451.52
618.226	18515
618.421	18545.72
618.616	18703.42
618.811	18132.03
619.006	18472
619.201	18179.14
619.396	18220.1
619.591	17769.54
619.786	18072.64
619.981	17402.96
620.176	18134.08
620.371	17495.11
620.566	17767.49
620.761	17685.58
620.956	17665.1
621.151	17398.86
621.346	17450.06
621.541	17329.23
621.735	17388.62
621.93	17065.04
622.125	17275.98
622.32	16907.35
622.515	16976.98
622.709	16833.62
622.904	17040.47
623.099	16659.54
623.294	16735.32
623.488	16383.07
623.683	16641.11
623.878	16211.04
624.072	16194.65
624.267	16295
624.462	16241.76
624.656	15959.14
624.851	15901.79
625.046	15979.62
625.24	15754.34
625.435	15475.82
625.629	15510.63
625.824	15449.19
626.018	15481.96
626.213	14935.15
626.407	15445.1
626.602	15201.39
626.796	15219.82
626.991	14984.3
627.185	14865.52
627.38	14847.09
627.574	14687.35
627.768	14660.73
627.963	14466.17
628.157	14572.66
628.352	14578.81
628.546	14281.85
628.74	14468.22
628.935	14210.17
629.129	14435.45
629.323	14204.03
629.517	13821.06
629.712	14091.39
629.906	13888.64
630.1	13782.15
630.294	13935.74
630.489	13597.83
630.683	13669.51
630.877	13442.18
631.071	13440.14
631.265	13497.48
631.459	13360.27
631.653	12985.49
631.848	13030.54
632.042	13089.93
632.236	13005.97
632.43	12975.25
632.624	12825.75
632.818	12862.61
633.012	12670.1
633.206	12817.55
633.4	12850.32
633.594	12317.85
633.788	12475.54
633.982	12477.59
634.176	12229.79
634.369	12258.46
634.563	12137.63
634.757	12203.16
634.951	12244.12
635.145	12137.63
635.339	11840.67
635.533	11791.52
635.726	11865.25
635.92	11619.49
636.114	11658.4
636.308	11605.16
636.501	11469.99
636.695	11748.51
636.889	11586.72
637.083	11426.98
637.276	11314.34
637.47	11330.73
637.664	11306.15
637.857	11236.52
638.051	11152.56
638.244	11140.27
638.438	10906.8
638.632	10859.7
638.825	10773.68
639.019	10808.5
639.212	10699.95
639.406	10663.09
639.599	10747.06
639.793	10785.97
639.986	10632.37
640.18	10661.04
640.373	10407.09
640.567	10284.22
640.76	10423.48
640.954	10278.07
641.147	10147
641.34	9950.4
641.534	10032.32
641.727	10308.79
641.92	10163.39
642.114	10001.6
642.307	9708.74
642.5	9735.36
642.694	9817.28
642.887	9546.95
643.08	9641.15
643.273	9596.1
643.467	9583.81
643.66	9522.37
643.853	9311.43
644.046	9211.08
644.239	9315.53
644.432	9088.2
644.626	9106.63
644.819	9196.75
645.012	9137.35
645.205	9194.7
645.398	9159.88
645.591	8862.93
645.784	8762.58
645.977	8948.94
646.17	8864.97
646.363	8813.77
646.556	8672.47
646.749	8764.62
646.942	8795.34
647.135	8592.59
647.328	8629.46
647.521	8393.94
647.714	8451.28
647.907	8522.96
648.099	8176.86
648.292	8430.8
648.485	8221.91
648.678	8293.59
648.871	8080.6
649.064	8094.94
649.256	8051.93
649.449	7963.87
649.642	8058.07
649.835	7945.44
650.027	7804.13
650.22	7826.65
650.413	7757.02
650.605	7636.19
650.798	7847.13
650.991	7832.8
651.183	7824.61
651.376	7484.64
651.568	7658.72
651.761	7562.47
651.954	7353.57
652.146	7314.66
652.339	7347.43
652.531	7468.26
652.724	7388.39
652.916	7191.78
653.109	7083.24
653.301	7318.76
653.494	7144.68
653.686	7048.43
653.879	7208.17
654.071	7113.96
654.263	7081.19
654.456	7023.85
654.648	6968.55
654.84	7019.75
655.033	6743.28
655.225	6874.35
655.417	6696.18
655.61	6849.77
655.802	6728.94
655.994	6774
656.186	6632.69
656.379	6685.94
656.571	6589.68
656.763	6655.22
656.955	6456.56
657.148	6456.56
657.34	6468.85
657.532	6327.54
657.724	6112.5
657.916	6460.66
658.108	6130.94
658.3	6386.93
658.492	6231.29
658.684	6143.22
658.876	6300.92
659.068	6341.88
659.26	6063.35
659.452	6184.18
659.644	6046.97
659.836	5876.99
660.028	6239.48
660.22	5936.38
660.412	5995.77
660.604	5831.93
660.796	5897.47
660.988	5725.44
661.18	5700.86
661.372	5715.2
661.563	5833.98
661.755	5659.9
661.947	5608.7
662.139	5469.44
662.331	5707.01
662.522	5612.8
662.714	5631.23
662.906	5641.47
663.097	5524.74
663.289	5408
663.481	5385.48
663.673	5526.78
663.864	5479.68
664.056	5264.64
664.247	5305.6
664.439	5207.3
664.631	5246.21
664.822	5260.55
665.014	5319.94
665.205	5092.62
665.397	5104.9
665.588	5154.05
665.78	5170.44
665.971	5166.34
666.163	5055.75
666.354	5104.9
666.546	5072.14
666.737	5035.27
666.929	5063.94
667.12	5082.38
667.311	5072.14
667.503	4877.58
667.694	4844.81
667.885	4877.58
668.077	4824.33
668.268	4828.43
668.459	4998.41
668.651	4885.77
668.842	4865.29
669.033	4875.53
669.224	4703.5
669.416	4703.5
669.607	4693.26
669.798	4670.73
669.989	4609.3
670.18	4689.17
670.371	4640.01
670.563	4631.82
670.754	4633.87
670.945	4625.68
671.136	4609.3
671.327	4437.27
671.518	4504.85
671.709	4541.71
671.9	4506.9
672.091	4416.79
672.282	4515.09
672.473	4412.69
672.664	4467.99
672.855	4375.83
673.046	4392.21
673.237	4435.22
673.428	4392.21
673.619	4298
673.809	4291.86
674	4341.01
674.191	4234.52
674.382	4265.24
674.573	4388.11
674.764	4203.8
674.954	4277.52
675.145	4211.99
675.336	4269.33
675.527	4201.75
675.717	4144.41
675.908	4166.93
676.099	4154.65
676.289	4216.09
676.48	4195.61
676.671	4197.65
676.861	4214.04
677.052	4179.22
677.243	4193.56
677.433	4160.79
677.624	4101.4
677.814	4175.13
678.005	4056.34
678.195	4115.73
678.386	4128.02
678.576	4037.91
678.767	4105.49
678.957	4160.79
679.148	4050.2
679.338	4199.7
679.529	4070.68
679.719	4109.59
679.909	4103.45
680.1	4017.43
680.29	4082.97
680.481	4064.54
680.671	4060.44
680.861	3933.47
681.052	4015.38
681.242	4115.73
681.432	4183.32
681.622	3910.94
681.813	3972.38
682.003	4070.68
682.193	4037.91
682.383	4031.77
682.573	3867.93
682.764	3894.55
682.954	3949.85
683.144	3951.9
683.334	3947.8
683.524	3996.95
683.714	3958.04
683.904	4009.24
684.094	3728.67
684.284	3939.61
684.474	3839.26
684.664	3835.16
684.854	3908.89
685.044	3806.49
685.234	3886.36
685.424	3859.74
685.614	3847.45
685.804	3841.31
685.994	3908.89
686.184	3788.06
686.374	3814.68
686.564	3796.25
686.753	3751.2
686.943	3663.13
687.133	3710.24
687.323	3806.49
687.513	3734.81
687.702	3693.85
687.892	3654.94
688.082	3738.91
688.272	3638.56
688.461	3661.09
688.651	3714.33
688.841	3497.25
689.03	3656.99
689.22	3650.85
689.41	3716.38
689.599	3523.87
689.789	3663.13
689.979	3585.31
690.168	3591.45
690.358	3511.58
690.547	3525.92
690.737	3523.87
690.926	3450.14
691.116	3542.3
691.305	3429.66
691.495	3411.23
691.684	3382.56
691.874	3538.21
692.063	3433.76
692.252	3380.51
692.442	3353.89
692.631	3374.37
692.82	3501.34
693.01	3319.07
693.199	3394.85
693.388	3298.59
693.578	3259.68
693.767	3310.88
693.956	3339.55
694.146	3208.48
694.335	3251.49
694.524	3417.38
694.713	3288.36
694.902	3403.04
695.092	3364.13
695.281	3310.88
695.47	3409.19
695.659	3233.06
695.848	3253.54
696.037	3124.52
696.226	3255.59
696.415	3249.44
696.604	3280.16
696.793	3312.93
696.982	3257.64
697.171	3265.83
697.36	3179.81
697.549	3192.1
697.738	3108.13
697.927	3310.88
698.116	3056.93
698.305	3173.67
698.494	3126.57
698.683	3067.17
698.872	3153.19
699.061	3108.13
699.25	3241.25
699.438	3042.6
699.627	2991.4
699.816	3185.96
700.005	3155.24
700.193	3003.69
700.382	3247.4
700.571	3118.37
700.76	3046.69
700.948	3124.52
701.137	3159.33
701.326	3091.75
701.514	3161.38
701.703	3120.42
701.892	3050.79
702.08	3079.46
702.269	3145
702.457	3165.48
702.646	3044.65
702.834	3118.37
703.023	3069.22
703.212	3118.37
703.4	3032.36
703.589	3081.51
703.777	3026.22
703.965	2962.73
704.154	3077.41
704.342	2997.54
704.531	3040.55
704.719	3020.07
704.907	3093.8
705.096	2997.54
705.284	3122.47
705.472	3081.51
705.661	3239.2
705.849	3128.61
706.037	3077.41
706.226	3075.37
706.414	3052.84
706.602	2889
706.79	3032.36
706.979	3099.94
707.167	3018.02
707.355	3038.5
707.543	3048.74
707.731	3112.23
707.919	2970.92
708.107	2956.58
708.296	3118.37
708.484	2954.54
708.672	3040.55
708.86	2950.44
709.048	3050.79
709.236	2970.92
709.424	3106.09
709.612	3013.93
709.8	2913.58
709.988	2995.5
710.176	3020.07
710.364	3050.79
710.551	3073.32
710.739	3030.31
710.927	2958.63
711.115	2979.11
711.303	3110.18
711.491	2958.63
711.679	3042.6
711.866	3011.88
712.054	3106.09
712.242	2923.82
712.43	3007.78
712.617	2991.4
712.805	2940.2
712.993	3114.28
713.181	2985.26
713.368	2962.73
713.556	3050.79
713.744	3003.69
713.931	3013.93
714.119	3050.79
714.306	2934.06
714.494	3007.78
714.682	2915.62
714.869	2966.82
715.057	2985.26
715.244	2985.26
715.432	2975.02
715.619	3009.83
715.807	3175.72
715.994	2993.45
716.182	2975.02
716.369	2995.5
716.556	2995.5
716.744	3044.65
716.931	2952.49
717.119	3005.74
717.306	3013.93
717.493	3015.98
717.681	2950.44
717.868	2977.06
718.055	3046.69
718.242	2913.58
718.43	2940.2
718.617	2968.87
718.804	2983.21
718.991	2983.21
719.179	3071.27
719.366	3032.36
719.553	2991.4
719.74	2958.63
719.927	2966.82
720.114	3048.74
720.301	3038.5
720.488	2950.44
720.676	2995.5
720.863	3005.74
721.05	3005.74
721.237	3048.74
721.424	2981.16
721.611	3042.6
721.798	3005.74
721.985	2805.03
722.172	3026.22
722.358	2952.49
722.545	2852.14
722.732	2913.58
722.919	2895.15
723.106	3007.78
723.293	2921.77
723.48	2860.33
723.667	3040.55
723.853	2827.56
724.04	3001.64
724.227	2925.86
724.414	2882.86
724.6	2944.3
724.787	2960.68
724.974	3077.41
725.161	2866.47
725.347	2921.77
725.534	2944.3
725.72	2936.1
725.907	2983.21
726.094	2856.23
726.28	2966.82
726.467	2823.47
726.653	2909.48
726.84	3011.88
727.027	3114.28
727.213	2766.12
727.4	2868.52
727.586	2956.58
727.773	2893.1
727.959	2845.99
728.145	3011.88
728.332	2829.61
728.518	2805.03
728.705	2905.39
728.891	2917.67
729.077	2813.23
729.264	2794.79
729.45	2858.28
729.636	2860.33
729.823	2913.58
730.009	2858.28
730.195	2897.19
730.382	2946.34
730.568	2932.01
730.754	2895.15
730.94	2690.35
731.126	2919.72
731.313	2837.8
731.499	2848.04
731.685	2821.42
731.871	2768.17
732.057	2792.75
732.243	2794.79
732.429	2753.84
732.615	2817.32
732.801	2786.6
732.987	2766.12
733.173	2839.85
733.359	2778.41
733.545	2852.14
733.731	2764.08
733.917	2739.5
734.103	2819.37
734.289	2766.12
734.475	2784.55
734.661	2864.43
734.847	2874.67
735.033	2784.55
735.219	2731.31
735.404	2772.27
735.59	2802.99
735.776	2788.65
735.962	2805.03
736.148	2882.86
736.333	2821.42
736.519	2686.25
736.705	2696.49
736.89	2723.12
737.076	2641.2
737.262	2796.84
737.447	2755.88
737.633	2702.64
737.819	2688.3
738.004	2641.2
738.19	2653.48
738.375	2690.35
738.561	2700.59
738.747	2610.48
738.932	2659.63
739.118	2686.25
739.303	2616.62
739.489	2708.78
739.674	2698.54
739.859	2620.72
740.045	2719.02
740.23	2692.4
740.416	2544.94
740.601	2518.32
740.786	2606.38
740.972	2561.33
741.157	2485.55
741.342	2602.29
741.528	2604.33
741.713	2489.65
741.898	2518.32
742.084	2606.38
742.269	2469.17
742.454	2561.33
742.639	2467.12
742.824	2473.26
743.01	2508.08
743.195	2487.6
743.38	2495.79
743.565	2360.63
743.75	2477.36
743.935	2428.21
744.12	2401.58
744.305	2362.67
744.49	2288.95
744.675	2370.87
744.86	2411.82
745.045	2393.39
745.23	2374.96
745.415	2430.26
745.6	2467.12
745.785	2317.62
745.97	2377.01
746.155	2336.05
746.34	2303.28
746.525	2276.66
746.71	2319.67
746.895	2227.51
747.079	2286.9
747.264	2211.12
747.449	2245.94
747.634	2207.03
747.819	2243.89
748.003	2090.29
748.188	2055.48
748.373	2114.87
748.557	2096.44
748.742	2170.16
748.927	2147.64
749.111	2139.44
749.296	2114.87
749.481	2057.53
749.665	2131.25
749.85	1977.66
750.034	2047.29
750.219	1996.09
750.404	2028.85
750.588	1879.35
750.773	2094.39
750.957	1961.27
751.141	1961.27
751.326	1922.36
751.51	1844.54
751.695	1932.6
751.879	1951.03
752.064	1948.98
752.248	1817.91
752.432	1789.24
752.617	1914.17
752.801	1852.73
752.985	1670.46
753.17	1850.68
753.354	1668.41
753.538	1811.77
753.722	1733.95
753.907	1733.95
754.091	1717.56
754.275	1688.89
754.459	1766.71
754.643	1715.52
754.828	1742.14
755.012	1697.08
755.196	1656.12
755.38	1688.89
755.564	1531.2
755.748	1512.77
755.932	1645.88
756.116	1604.92
756.3	1555.77
756.484	1527.1
756.668	1496.38
756.852	1441.09
757.036	1570.11
757.22	1512.77
757.404	1510.72
757.588	1527.1
757.772	1561.92
757.956	1459.52
758.14	1465.66
758.323	1555.77
758.507	1418.56
758.691	1375.55
758.875	1553.73
759.059	1480
759.242	1426.75
759.426	1393.98
759.61	1422.66
759.794	1461.57
759.977	1451.33
760.161	1414.46
760.345	1455.42
760.528	1396.03
760.712	1332.55
760.895	1357.12
761.079	1328.45
761.263	1281.35
761.446	1297.73
761.63	1338.69
761.813	1213.76
761.997	1303.87
762.18	1283.39
762.364	1344.83
762.547	1201.48
762.731	1164.61
762.914	1260.87
763.098	1326.4
763.281	1267.01
763.464	1203.52
763.648	1217.86
763.831	1183.04
764.015	1168.71
764.198	1226.05
764.381	1215.81
764.564	1181
764.748	1207.62
764.931	1244.48
765.114	1244.48
765.297	1221.95
765.481	1197.38
765.664	1236.29
765.847	1125.7
766.03	1181
766.213	1185.09
766.397	1156.42
766.58	1068.36
766.763	1142.08
766.946	1097.03
767.129	1131.84
767.312	1039.69
767.495	1164.61
767.678	1156.42
767.861	1051.97
768.044	1154.37
768.227	1123.65
768.41	1088.84
768.593	1080.64
768.776	1008.97
768.959	1152.32
769.142	1148.23
769.324	1119.56
769.507	922.95
769.69	1121.6
769.873	1013.06
770.056	1029.45
770.239	1088.84
770.421	1019.21
770.604	1017.16
770.787	980.29
770.97	1041.73
771.152	1011.01
771.335	972.1
771.518	1002.82
771.7	1043.78
771.883	931.14
772.066	1064.26
772.248	974.15
772.431	996.68
772.613	957.77
772.796	1000.77
772.978	949.57
773.161	951.62
773.343	871.75
773.526	904.52
773.708	908.62
773.891	888.14
774.073	861.51
774.256	869.7
774.438	994.63
774.621	949.57
774.803	830.79
774.985	875.85
775.168	871.75
775.35	838.98
775.532	908.62
775.715	804.17
775.897	822.6
776.079	867.66
776.261	806.22
776.444	925
776.626	808.27
776.808	843.08
776.99	750.92
777.173	785.74
777.355	783.69
777.537	859.46
777.719	812.36
777.901	832.84
778.083	820.55
778.265	841.03
778.447	738.63
778.629	734.54
778.811	802.12
778.993	830.79
779.175	679.24
779.357	722.25
779.539	750.92
779.721	748.87
779.903	695.63
780.085	712.01
780.267	761.16
780.449	644.43
780.631	697.67
780.812	642.38
780.994	701.77
781.176	666.96
781.358	599.37
781.54	697.67
781.721	681.29
781.903	632.14
782.085	634.19
782.267	669
782.448	550.22
782.63	591.18
782.812	679.24
782.993	644.43
783.175	589.13
783.357	589.13
783.538	601.42
783.72	695.63
783.901	589.13
784.083	601.42
784.264	650.57
784.446	472.4
784.627	542.03
784.809	556.36
784.99	613.71
785.172	601.42
785.353	626
785.535	535.89
785.716	507.21
785.897	529.74
786.079	496.97
786.26	576.84
786.441	464.21
786.623	458.06
786.804	486.73
786.985	550.22
787.167	521.55
787.348	447.82
787.529	515.41
787.71	488.78
787.891	582.99
788.073	443.73
788.254	492.88
788.435	400.72
788.616	505.17
788.797	439.63
788.978	443.73
789.159	349.52
789.34	324.94
789.522	390.48
789.703	431.44
789.884	441.68
790.065	456.01
790.246	392.53
790.427	425.29
790.607	374.1
790.788	443.73
790.969	472.4
791.15	441.68
791.331	343.38
791.512	441.68
791.693	329.04
791.874	392.53
792.054	402.77
792.235	415.06
792.416	335.18
792.597	376.14
792.778	380.24
792.958	427.34
793.139	370
793.32	365.9
793.5	343.38
793.681	339.28
793.862	363.86
794.042	425.29
794.223	441.68
794.404	388.43
794.584	345.42
794.765	417.1
794.945	294.22
795.126	400.72
795.306	349.52
795.487	382.29
795.667	408.91
795.848	320.85
796.028	353.62
796.209	345.42
796.389	290.13
796.57	318.8
796.75	324.94
796.93	341.33
797.111	359.76
797.291	240.98
797.471	281.94
797.652	333.14
797.832	294.22
798.012	277.84
798.192	298.32
798.373	283.99
798.553	294.22
798.733	324.94
798.913	320.85
799.093	300.37
799.274	312.66
799.454	304.46
799.634	286.03
799.814	308.56
799.994	339.28
800.174	318.8
800.354	296.27
800.534	286.03
800.714	353.62
800.894	271.7
801.074	236.88
801.254	290.13
801.434	314.7
801.614	294.22
801.794	308.56
801.974	619.85
802.154	193.87
802.334	304.46
802.514	220.5
802.693	267.6
802.873	195.92
803.053	245.07
803.233	296.27
803.413	281.94
803.592	288.08
803.772	169.3
803.952	343.38
804.131	273.75
804.311	216.4
804.491	343.38
804.67	226.64
804.85	210.26
805.03	347.47
805.209	197.97
805.389	187.73
805.568	206.16
805.748	220.5
805.928	216.4
806.107	187.73
806.287	232.79
806.466	263.51
806.646	146.77
806.825	288.08
807.004	216.4
807.184	222.55
807.363	277.84
807.543	230.74
807.722	175.44
807.901	187.73
808.081	273.75
808.26	177.49
808.439	283.99
808.619	224.59
808.798	257.36
808.977	140.63
809.156	243.03
809.336	197.97
809.515	130.39
809.694	240.98
809.873	187.73
810.052	167.25
810.231	181.59
810.411	152.92
810.59	220.5
810.769	177.49
810.948	261.46
811.127	191.83
811.306	136.53
811.485	226.64
811.664	175.44
811.843	243.03
812.022	197.97
812.201	206.16
812.38	181.59
812.559	181.59
812.737	236.88
812.916	128.34
813.095	134.48
813.274	220.5
813.453	238.93
813.632	181.59
813.811	220.5
813.989	214.35
814.168	193.87
814.347	161.11
814.526	224.59
814.704	77.14
814.883	236.88
815.062	200.02
815.24	222.55
815.419	124.24
815.598	146.77
815.776	114
815.955	218.45
816.133	60.76
816.312	220.5
816.49	95.57
816.669	130.39
816.847	187.73
817.026	212.31
817.204	130.39
817.383	210.26
817.561	167.25
817.74	169.3
817.918	130.39
818.097	159.06
818.275	103.76
818.453	169.3
818.632	171.35
818.81	169.3
818.988	93.52
819.167	150.87
819.345	165.2
819.523	154.96
819.701	157.01
819.879	122.2
820.058	165.2
820.236	136.53
820.414	189.78
820.592	71
820.77	97.62
820.948	91.48
821.127	126.29
821.305	128.34
821.483	101.72
821.661	163.15
821.839	216.4
822.017	191.83
822.195	132.44
822.373	157.01
822.551	148.82
822.729	208.21
822.907	89.43
823.085	140.63
823.262	146.77
823.44	126.29
823.618	144.72
823.796	161.11
823.974	89.43
824.152	136.53
824.329	146.77
824.507	187.73
824.685	114
824.863	93.52
825.04	136.53
825.218	163.15
825.396	99.67
825.574	167.25
825.751	111.96
825.929	120.15
826.107	122.2
826.284	103.76
826.462	83.28
826.639	109.91
826.817	118.1
826.994	154.96
827.172	91.48
827.349	138.58
827.527	161.11
827.704	140.63
827.882	134.48
828.059	189.78
828.237	97.62
828.414	99.67
828.591	116.05
828.769	132.44
828.946	89.43
829.124	124.24
829.301	116.05
829.478	68.95
829.655	95.57
829.833	46.42
830.01	103.76
830.187	126.29
830.364	120.15
830.542	99.67
830.719	146.77
830.896	97.62
831.073	161.11
831.25	126.29
831.427	99.67
831.604	157.01
831.782	68.95
831.959	150.87
832.136	181.59
832.313	148.82
832.49	81.24
832.667	165.2
832.844	95.57
833.021	101.72
833.198	58.71
833.374	46.42
833.551	46.42
833.728	140.63
833.905	91.48
834.082	77.14
834.259	95.57
834.436	124.24
834.612	75.09
834.789	169.3
834.966	111.96
835.143	66.9
835.319	107.86
835.496	46.42
835.673	132.44
835.85	114
836.026	64.85
836.203	154.96
836.38	58.71
836.556	109.91
836.733	99.67
836.909	85.33
837.086	11.61
837.262	85.33
837.439	81.24
837.616	58.71
837.792	42.32
837.968	134.48
838.145	30.04
838.321	136.53
838.498	54.61
838.674	68.95
838.851	128.34
839.027	83.28
839.203	157.01
839.38	62.8
839.556	75.09
839.732	83.28
839.909	52.56
840.085	103.76
840.261	34.13
840.437	21.85
840.614	116.05
840.79	52.56
840.966	99.67
841.142	54.61
841.318	71
841.494	75.09
841.671	111.96
841.847	152.92
842.023	144.72
842.199	130.39
842.375	134.48
842.551	36.18
842.727	40.28
842.903	132.44
843.079	27.99
843.255	68.95
843.431	48.47
843.607	5.46
843.783	-23.21
843.959	58.71
844.134	95.57
844.31	126.29
844.486	27.99
844.662	3.41
844.838	95.57
845.013	71
845.189	73.04
845.365	42.32
845.541	73.04
845.716	36.18
845.892	81.24
846.068	64.85
846.244	30.04
846.419	56.66
846.595	89.43
846.77	68.95
846.946	109.91
847.122	52.56
847.297	54.61
847.473	107.86
847.648	1.37
847.824	87.38
847.999	85.33
848.175	93.52
848.35	21.85
848.526	58.71
848.701	60.76
848.876	7.51
849.052	111.96
849.227	85.33
849.403	146.77
849.578	99.67
849.753	44.37
849.929	89.43
850.104	107.86
850.279	89.43
850.454	44.37
850.63	15.7
850.805	52.56
850.98	105.81
851.155	50.52
851.33	44.37
851.505	111.96
851.681	62.8
851.856	27.99
852.031	34.13
852.206	48.47
852.381	-19.11
852.556	27.99
852.731	44.37
852.906	66.9
853.081	66.9
853.256	-27.31
853.431	19.8
853.606	15.7
853.781	95.57
853.956	48.47
854.131	-2.73
854.305	19.8
854.48	52.56
854.655	48.47
854.83	48.47
855.005	15.7
855.18	91.48
855.354	9.56
855.529	38.23
855.704	44.37
855.879	23.89
856.053	48.47
856.228	30.04
856.403	-17.07
856.577	118.1
856.752	36.18
856.926	71
857.101	25.94
857.276	-19.11
857.45	73.04
857.625	58.71
857.799	34.13
857.974	50.52
858.148	-21.16
858.323	107.86
858.497	34.13
858.672	32.08
858.846	48.47
859.02	71
859.195	-19.11
859.369	13.65
859.543	7.51
859.718	34.13
859.892	52.56
860.066	50.52
860.241	93.52
860.415	54.61
860.589	-6.83
860.763	-10.92
860.938	64.85
861.112	40.28
861.286	13.65
861.46	21.85
861.634	68.95
861.808	66.9
861.982	56.66
862.157	38.23
862.331	60.76
862.505	46.42
862.679	13.65
862.853	38.23
863.027	62.8
863.201	19.8
863.375	-21.16
863.549	21.85
863.722	46.42
863.896	34.13
864.07	64.85
864.244	93.52
864.418	36.18
864.592	30.04
864.766	1.37
864.939	77.14
865.113	-6.83
865.287	40.28
865.461	11.61
865.634	68.95
865.808	19.8
865.982	44.37
866.156	30.04
866.329	11.61
866.503	54.61
866.676	3.41
866.85	42.32
867.024	36.18
867.197	40.28
867.371	52.56
867.544	23.89
867.718	-62.12
867.891	46.42
868.065	50.52
868.238	-49.83
868.412	64.85
868.585	62.8
868.759	52.56
868.932	11.61
869.105	68.95
869.279	-8.87
869.452	7.51
869.625	89.43
869.799	79.19
869.972	-25.26
870.145	-0.68
870.319	-8.87
870.492	-15.02
870.665	58.71
870.838	-6.83
871.011	13.65
871.185	5.46
871.358	87.38
871.531	48.47
871.704	25.94
871.877	1.37
872.05	66.9
872.223	71
872.396	50.52
872.569	-43.69
872.742	40.28
872.915	-27.31
873.088	56.66
873.261	30.04
873.434	56.66
873.607	81.24
873.78	25.94
873.953	7.51
874.126	11.61
874.299	54.61
874.471	-23.21
874.644	46.42
874.817	-8.87
874.99	-31.4
875.163	48.47
875.335	48.47
875.508	-51.88
875.681	17.75
875.853	30.04
876.026	23.89
876.199	17.75
876.371	-19.11
876.544	68.95
876.717	62.8
876.889	3.41
877.062	-4.78
877.234	-8.87
877.407	25.94
877.579	60.76
877.752	23.89
877.924	36.18
878.097	13.65
878.269	68.95
878.442	27.99
878.614	58.71
878.786	64.85
878.959	40.28
879.131	62.8
879.303	-51.88
879.476	81.24
879.648	5.46
879.82	56.66
879.993	1.37
880.165	-4.78
880.337	25.94
880.509	13.65
880.681	-0.68
880.854	-17.07
881.026	40.28
881.198	15.7
881.37	5.46
881.542	9.56
881.714	48.47
881.886	13.65
882.058	48.47
882.23	-68.27
882.402	-4.78
882.574	85.33
882.746	19.8
882.918	83.28
883.09	118.1
883.262	21.85
883.434	21.85
883.606	21.85
883.778	58.71
883.95	30.04
884.122	42.32
884.293	46.42
884.465	9.56
884.637	58.71
884.809	52.56
884.98	13.65
885.152	48.47
885.324	3.41
885.496	32.08
885.667	-6.83
885.839	9.56
886.011	23.89
886.182	-19.11
886.354	38.23
886.525	-45.74
886.697	1.37
886.869	-23.21
887.04	-27.31
887.212	40.28
887.383	15.7
887.555	-29.35
887.726	-51.88
887.897	-17.07
888.069	13.65
888.24	-25.26
888.412	23.89
888.583	-25.26
888.754	23.89
888.926	-17.07
889.097	-15.02
889.268	-33.45
889.44	60.76
889.611	-17.07
889.782	-2.73
889.953	1.37
890.125	36.18
890.296	-21.16
890.467	27.99
890.638	5.46
890.809	42.32
890.98	-23.21
891.151	75.09
891.323	60.76
891.494	71
891.665	-25.26
891.836	32.08
892.007	5.46
892.178	58.71
892.349	-2.73
892.52	-4.78
892.691	38.23
892.862	15.7
893.032	-10.92
893.203	-31.4
893.374	25.94
893.545	30.04
893.716	52.56
893.887	64.85
894.057	42.32
894.228	-19.11
894.399	7.51
894.57	50.52
894.74	-19.11
894.911	32.08
895.082	-19.11
895.253	60.76
895.423	-6.83
895.594	75.09
895.764	-4.78
895.935	21.85
896.106	36.18
896.276	50.52
896.447	15.7
896.617	32.08
896.788	9.56
896.958	17.75
897.129	15.7
897.299	40.28
897.47	3.41
897.64	-29.35
897.81	-53.93
897.981	-15.02
898.151	77.14
898.322	77.14
898.492	-21.16
898.662	-39.59
898.832	46.42
899.003	64.85
899.173	30.04
899.343	-47.79
899.513	103.76
