Data from USB4F104151__69__11-52-36-861.txt Node

Date: Fri Mar 14 11:52:36 EDT 2025
User: louis
Spectrometer: USB4F10415
Trigger mode: 4
Integration Time (sec): 2.000000E-2
Scans to average: 1
Electric dark correction enabled: true
Nonlinearity correction enabled: false
Boxcar width: 0
XAxis mode: Wavelengths
Number of Pixels in Spectrum: 3648
>>>>>Begin Spectral Data<<<<<
178.204	-62.63
178.424	-62.63
178.644	-62.63
178.864	-144.55
179.084	-62.63
179.304	-60.59
179.524	-9.39
179.744	7
179.964	54.1
180.184	-33.96
180.404	-25.77
180.624	29.52
180.844	23.38
181.064	-15.53
181.283	23.38
181.503	2.9
181.723	4.95
181.943	-5.29
182.163	-5.29
182.383	-62.63
182.602	80.72
182.822	80.72
183.042	7
183.262	9.05
183.482	-5.29
183.701	33.62
183.921	2.9
184.141	33.62
184.361	19.29
184.58	-11.43
184.8	2.9
185.02	-1.19
185.239	68.44
185.459	17.24
185.679	-9.39
185.898	9.05
186.118	62.29
186.338	64.34
186.557	-15.53
186.777	15.19
186.997	-70.83
187.216	4.95
187.436	-3.24
187.655	-11.43
187.875	88.92
188.095	56.15
188.314	54.1
188.534	13.14
188.753	66.39
188.973	90.96
189.192	54.1
189.412	76.63
189.631	0.85
189.851	0.85
190.07	80.72
190.29	-23.72
190.509	35.67
190.729	-17.58
190.948	-13.48
191.168	74.58
191.387	119.64
191.607	-44.2
191.826	52.05
192.045	15.19
192.265	31.57
192.484	64.34
192.704	2.9
192.923	15.19
193.142	27.48
193.362	-11.43
193.581	4.95
193.8	-13.48
194.02	-1.19
194.239	-36.01
194.458	-11.43
194.678	56.15
194.897	21.33
195.116	70.48
195.335	45.91
195.555	-19.63
195.774	2.9
195.993	88.92
196.212	29.52
196.432	27.48
196.651	47.96
196.87	-29.87
197.089	25.43
197.308	76.63
197.528	41.81
197.747	54.1
197.966	11.09
198.185	33.62
198.404	39.76
198.623	64.34
198.842	60.24
199.062	-7.34
199.281	-5.29
199.5	52.05
199.719	4.95
199.938	37.72
200.157	54.1
200.376	-13.48
200.595	39.76
200.814	-1.19
201.033	-1.19
201.252	-36.01
201.471	2.9
201.69	45.91
201.909	33.62
202.128	76.63
202.347	68.44
202.566	-5.29
202.785	17.24
203.004	11.09
203.223	95.06
203.442	-23.72
203.661	-17.58
203.879	4.95
204.098	29.52
204.317	37.72
204.536	39.76
204.755	62.29
204.974	13.14
205.193	-1.19
205.411	58.2
205.63	21.33
205.849	-40.11
206.068	-29.87
206.287	47.96
206.505	93.01
206.724	17.24
206.943	4.95
207.162	33.62
207.381	4.95
207.599	2.9
207.818	-19.63
208.037	58.2
208.255	-44.2
208.474	-36.01
208.693	74.58
208.911	45.91
209.13	4.95
209.349	45.91
209.567	39.76
209.786	-50.35
210.005	93.01
210.223	23.38
210.442	0.85
210.661	62.29
210.879	-21.67
211.098	60.24
211.316	-3.24
211.535	82.77
211.753	15.19
211.972	-17.58
212.191	-40.11
212.409	72.53
212.628	9.05
212.846	7
213.065	56.15
213.283	78.68
213.502	35.67
213.72	78.68
213.938	35.67
214.157	15.19
214.375	45.91
214.594	-1.19
214.812	41.81
215.031	-3.24
215.249	11.09
215.467	-13.48
215.686	13.14
215.904	66.39
216.122	37.72
216.341	72.53
216.559	66.39
216.778	37.72
216.996	58.2
217.214	-25.77
217.432	29.52
217.651	39.76
217.869	-60.59
218.087	21.33
218.306	-3.24
218.524	13.14
218.742	-9.39
218.96	127.83
219.179	-21.67
219.397	19.29
219.615	93.01
219.833	23.38
220.051	9.05
220.27	39.76
220.488	95.06
220.706	62.29
220.924	-5.29
221.142	47.96
221.36	47.96
221.578	7
221.796	9.05
222.015	25.43
222.233	39.76
222.451	68.44
222.669	9.05
222.887	37.72
223.105	-23.72
223.323	-36.01
223.541	35.67
223.759	52.05
223.977	68.44
224.195	-3.24
224.413	21.33
224.631	21.33
224.849	23.38
225.067	84.82
225.285	-33.96
225.503	33.62
225.721	-9.39
225.939	82.77
226.157	50
226.375	11.09
226.592	19.29
226.81	29.52
227.028	-15.53
227.246	-23.72
227.464	-15.53
227.682	86.87
227.9	-52.39
228.117	74.58
228.335	45.91
228.553	7
228.771	47.96
228.989	25.43
229.206	25.43
229.424	72.53
229.642	-33.96
229.86	19.29
230.077	52.05
230.295	74.58
230.513	-40.11
230.731	21.33
230.948	2.9
231.166	52.05
231.384	9.05
231.601	15.19
231.819	15.19
232.037	64.34
232.254	-11.43
232.472	21.33
232.689	-3.24
232.907	31.57
233.125	70.48
233.342	31.57
233.56	-40.11
233.777	68.44
233.995	70.48
234.213	72.53
234.43	29.52
234.648	19.29
234.865	-3.24
235.083	17.24
235.3	-21.67
235.518	4.95
235.735	58.2
235.953	35.67
236.17	-68.78
236.388	37.72
236.605	72.53
236.822	60.24
237.04	-70.83
237.257	31.57
237.475	0.85
237.692	70.48
237.909	23.38
238.127	60.24
238.344	-3.24
238.562	-33.96
238.779	31.57
238.996	39.76
239.214	35.67
239.431	43.86
239.648	9.05
239.865	58.2
240.083	45.91
240.3	7
240.517	11.09
240.735	-29.87
240.952	68.44
241.169	84.82
241.386	45.91
241.603	11.09
241.821	35.67
242.038	70.48
242.255	21.33
242.472	43.86
242.689	82.77
242.907	-31.91
243.124	-54.44
243.341	35.67
243.558	7
243.775	21.33
243.992	-72.87
244.209	31.57
244.426	-17.58
244.643	-5.29
244.86	0.85
245.078	31.57
245.295	0.85
245.512	86.87
245.729	-19.63
245.946	45.91
246.163	43.86
246.38	88.92
246.597	-5.29
246.814	58.2
247.031	-48.3
247.248	33.62
247.464	74.58
247.681	72.53
247.898	74.58
248.115	39.76
248.332	-3.24
248.549	19.29
248.766	43.86
248.983	99.16
249.2	25.43
249.417	27.48
249.633	27.48
249.85	45.91
250.067	-89.26
250.284	23.38
250.501	78.68
250.717	90.96
250.934	7
251.151	-74.92
251.368	0.85
251.585	-11.43
251.801	21.33
252.018	13.14
252.235	11.09
252.451	19.29
252.668	-44.2
252.885	39.76
253.102	15.19
253.318	37.72
253.535	-29.87
253.752	-33.96
253.968	4.95
254.185	39.76
254.401	72.53
254.618	25.43
254.835	-17.58
255.051	0.85
255.268	17.24
255.484	105.3
255.701	-46.25
255.917	-3.24
256.134	101.2
256.351	84.82
256.567	-13.48
256.784	-13.48
257	19.29
257.217	82.77
257.433	29.52
257.65	-15.53
257.866	25.43
258.082	4.95
258.299	60.24
258.515	33.62
258.732	39.76
258.948	11.09
259.165	41.81
259.381	56.15
259.597	-15.53
259.814	90.96
260.03	19.29
260.246	4.95
260.463	17.24
260.679	74.58
260.895	25.43
261.112	52.05
261.328	62.29
261.544	39.76
261.761	7
261.977	68.44
262.193	47.96
262.409	52.05
262.626	43.86
262.842	-9.39
263.058	15.19
263.274	64.34
263.49	4.95
263.707	60.24
263.923	125.78
264.139	-13.48
264.355	123.73
264.571	39.76
264.787	-5.29
265.004	-7.34
265.22	7
265.436	-7.34
265.652	-21.67
265.868	11.09
266.084	37.72
266.3	58.2
266.516	78.68
266.732	111.44
266.948	62.29
267.164	-1.19
267.38	31.57
267.596	2.9
267.812	58.2
268.028	13.14
268.244	-29.87
268.46	52.05
268.676	17.24
268.892	80.72
269.108	-52.39
269.324	54.1
269.54	19.29
269.756	-13.48
269.972	15.19
270.188	72.53
270.403	-27.82
270.619	72.53
270.835	47.96
271.051	-40.11
271.267	-52.39
271.483	90.96
271.698	64.34
271.914	80.72
272.13	54.1
272.346	15.19
272.562	19.29
272.777	31.57
272.993	-40.11
273.209	107.35
273.425	2.9
273.64	39.76
273.856	-9.39
274.072	-7.34
274.287	35.67
274.503	35.67
274.719	70.48
274.934	31.57
275.15	4.95
275.366	35.67
275.581	19.29
275.797	29.52
276.012	9.05
276.228	41.81
276.444	23.38
276.659	90.96
276.875	4.95
277.09	41.81
277.306	60.24
277.521	11.09
277.737	58.2
277.952	21.33
278.168	19.29
278.383	-64.68
278.599	78.68
278.814	-27.82
279.03	-15.53
279.245	86.87
279.461	97.11
279.676	72.53
279.892	-21.67
280.107	37.72
280.322	-7.34
280.538	62.29
280.753	-50.35
280.969	50
281.184	41.81
281.399	47.96
281.615	9.05
281.83	68.44
282.045	50
282.26	-40.11
282.476	25.43
282.691	60.24
282.906	-13.48
283.122	27.48
283.337	88.92
283.552	86.87
283.767	27.48
283.983	68.44
284.198	119.64
284.413	56.15
284.628	-48.3
284.843	58.2
285.058	4.95
285.274	84.82
285.489	17.24
285.704	-44.2
285.919	37.72
286.134	41.81
286.349	-13.48
286.564	52.05
286.779	41.81
286.995	21.33
287.21	-83.11
287.425	52.05
287.64	23.38
287.855	-13.48
288.07	-25.77
288.285	43.86
288.5	43.86
288.715	97.11
288.93	7
289.145	45.91
289.36	142.16
289.575	13.14
289.79	-23.72
290.004	4.95
290.219	84.82
290.434	-3.24
290.649	-33.96
290.864	-81.07
291.079	58.2
291.294	7
291.509	0.85
291.724	-1.19
291.938	47.96
292.153	7
292.368	-5.29
292.583	101.2
292.798	50
293.012	78.68
293.227	15.19
293.442	35.67
293.657	52.05
293.871	0.85
294.086	76.63
294.301	39.76
294.516	39.76
294.73	70.48
294.945	17.24
295.16	0.85
295.374	39.76
295.589	9.05
295.804	-87.21
296.018	35.67
296.233	54.1
296.447	-27.82
296.662	-31.91
296.877	33.62
297.091	-23.72
297.306	21.33
297.52	64.34
297.735	62.29
297.949	35.67
298.164	88.92
298.378	101.2
298.593	45.91
298.807	52.05
299.022	-17.58
299.236	76.63
299.451	43.86
299.665	39.76
299.88	0.85
300.094	60.24
300.309	45.91
300.523	21.33
300.737	43.86
300.952	62.29
301.166	23.38
301.381	31.57
301.595	31.57
301.809	-19.63
302.024	58.2
302.238	52.05
302.452	95.06
302.667	93.01
302.881	-3.24
303.095	64.34
303.309	121.68
303.524	33.62
303.738	29.52
303.952	-50.35
304.166	-11.43
304.381	7
304.595	68.44
304.809	-36.01
305.023	45.91
305.237	0.85
305.452	9.05
305.666	99.16
305.88	103.25
306.094	21.33
306.308	27.48
306.522	-27.82
306.736	11.09
306.95	9.05
307.164	29.52
307.379	19.29
307.593	62.29
307.807	123.73
308.021	-11.43
308.235	41.81
308.449	11.09
308.663	31.57
308.877	131.92
309.091	43.86
309.305	45.91
309.519	15.19
309.733	15.19
309.947	58.2
310.161	19.29
310.374	-52.39
310.588	31.57
310.802	13.14
311.016	56.15
311.23	-21.67
311.444	25.43
311.658	47.96
311.872	35.67
312.085	66.39
312.299	66.39
312.513	-11.43
312.727	47.96
312.941	37.72
313.154	27.48
313.368	-21.67
313.582	33.62
313.796	19.29
314.009	39.76
314.223	62.29
314.437	101.2
314.651	54.1
314.864	35.67
315.078	11.09
315.292	-50.35
315.505	21.33
315.719	39.76
315.933	66.39
316.146	-40.11
316.36	56.15
316.573	58.2
316.787	64.34
317.001	66.39
317.214	-3.24
317.428	15.19
317.641	4.95
317.855	90.96
318.068	70.48
318.282	23.38
318.495	11.09
318.709	70.48
318.922	19.29
319.136	95.06
319.349	45.91
319.563	90.96
319.776	2.9
319.99	54.1
320.203	72.53
320.417	56.15
320.63	-3.24
320.843	45.91
321.057	52.05
321.27	74.58
321.483	27.48
321.697	11.09
321.91	11.09
322.124	156.5
322.337	0.85
322.55	11.09
322.763	56.15
322.977	21.33
323.19	-56.49
323.403	-13.48
323.617	52.05
323.83	125.78
324.043	0.85
324.256	90.96
324.469	-23.72
324.683	88.92
324.896	62.29
325.109	-29.87
325.322	7
325.535	50
325.748	86.87
325.962	84.82
326.175	0.85
326.388	-64.68
326.601	31.57
326.814	-17.58
327.027	-9.39
327.24	105.3
327.453	-19.63
327.666	76.63
327.879	64.34
328.092	47.96
328.305	66.39
328.518	-9.39
328.731	52.05
328.944	31.57
329.157	68.44
329.37	43.86
329.583	117.59
329.796	127.83
330.009	-60.59
330.222	58.2
330.435	88.92
330.648	23.38
330.861	-7.34
331.073	-5.29
331.286	23.38
331.499	45.91
331.712	82.77
331.925	25.43
332.138	37.72
332.35	90.96
332.563	54.1
332.776	23.38
332.989	7
333.202	-5.29
333.414	60.24
333.627	68.44
333.84	25.43
334.053	68.44
334.265	-9.39
334.478	19.29
334.691	2.9
334.903	68.44
335.116	9.05
335.329	64.34
335.541	43.86
335.754	11.09
335.966	7
336.179	21.33
336.392	39.76
336.604	-27.82
336.817	148.31
337.029	25.43
337.242	33.62
337.454	45.91
337.667	19.29
337.88	29.52
338.092	-38.06
338.305	93.01
338.517	7
338.729	23.38
338.942	-38.06
339.154	54.1
339.367	27.48
339.579	-33.96
339.792	76.63
340.004	95.06
340.217	-5.29
340.429	45.91
340.641	88.92
340.854	2.9
341.066	-7.34
341.278	29.52
341.491	39.76
341.703	31.57
341.915	15.19
342.128	82.77
342.34	45.91
342.552	47.96
342.764	-50.35
342.977	0.85
343.189	7
343.401	41.81
343.613	17.24
343.826	103.25
344.038	-5.29
344.25	7
344.462	-3.24
344.674	13.14
344.886	56.15
345.099	68.44
345.311	82.77
345.523	29.52
345.735	9.05
345.947	103.25
346.159	70.48
346.371	54.1
346.583	109.4
346.795	76.63
347.007	31.57
347.219	95.06
347.431	-58.54
347.643	19.29
347.855	23.38
348.067	66.39
348.279	17.24
348.491	29.52
348.703	64.34
348.915	35.67
349.127	37.72
349.339	56.15
349.551	-11.43
349.763	7
349.975	82.77
350.187	99.16
350.399	82.77
350.61	11.09
350.822	-1.19
351.034	109.4
351.246	-15.53
351.458	74.58
351.669	113.49
351.881	72.53
352.093	111.44
352.305	90.96
352.517	66.39
352.728	80.72
352.94	76.63
353.152	47.96
353.363	-70.83
353.575	15.19
353.787	78.68
353.999	68.44
354.21	60.24
354.422	58.2
354.633	64.34
354.845	78.68
355.057	23.38
355.268	140.12
355.48	78.68
355.692	47.96
355.903	35.67
356.115	60.24
356.326	-13.48
356.538	80.72
356.749	37.72
356.961	150.36
357.172	29.52
357.384	70.48
357.595	107.35
357.807	27.48
358.018	78.68
358.23	47.96
358.441	70.48
358.653	76.63
358.864	0.85
359.075	37.72
359.287	39.76
359.498	146.26
359.709	78.68
359.921	-13.48
360.132	-5.29
360.344	39.76
360.555	88.92
360.766	117.59
360.977	33.62
361.189	70.48
361.4	62.29
361.611	31.57
361.823	31.57
362.034	27.48
362.245	45.91
362.456	115.54
362.667	58.2
362.879	29.52
363.09	27.48
363.301	72.53
363.512	35.67
363.723	99.16
363.935	43.86
364.146	80.72
364.357	0.85
364.568	39.76
364.779	90.96
364.99	117.59
365.201	15.19
365.412	33.62
365.623	19.29
365.834	97.11
366.045	84.82
366.256	45.91
366.467	68.44
366.678	33.62
366.889	37.72
367.1	90.96
367.311	72.53
367.522	-5.29
367.733	62.29
367.944	15.19
368.155	-11.43
368.366	-11.43
368.577	97.11
368.788	56.15
368.999	76.63
369.209	80.72
369.42	74.58
369.631	52.05
369.842	74.58
370.053	21.33
370.264	52.05
370.474	50
370.685	19.29
370.896	19.29
371.107	90.96
371.317	133.97
371.528	41.81
371.739	39.76
371.95	17.24
372.16	47.96
372.371	41.81
372.582	68.44
372.792	62.29
373.003	43.86
373.214	17.24
373.424	45.91
373.635	33.62
373.846	72.53
374.056	-7.34
374.267	52.05
374.477	7
374.688	-31.91
374.898	0.85
375.109	9.05
375.319	80.72
375.53	23.38
375.74	47.96
375.951	43.86
376.161	56.15
376.372	95.06
376.582	138.07
376.793	13.14
377.003	58.2
377.214	54.1
377.424	88.92
377.635	62.29
377.845	-15.53
378.055	93.01
378.266	-46.25
378.476	0.85
378.686	11.09
378.897	68.44
379.107	56.15
379.317	56.15
379.528	58.2
379.738	76.63
379.948	64.34
380.158	21.33
380.369	88.92
380.579	43.86
380.789	50
380.999	66.39
381.21	107.35
381.42	93.01
381.63	146.26
381.84	70.48
382.05	174.93
382.261	93.01
382.471	17.24
382.681	17.24
382.891	13.14
383.101	97.11
383.311	15.19
383.521	9.05
383.731	86.87
383.941	95.06
384.151	70.48
384.361	13.14
384.571	70.48
384.781	31.57
384.991	101.2
385.201	68.44
385.411	23.38
385.621	115.54
385.831	78.68
386.041	78.68
386.251	45.91
386.461	150.36
386.671	2.9
386.881	60.24
387.091	52.05
387.301	109.4
387.511	21.33
387.72	21.33
387.93	119.64
388.14	-17.58
388.35	74.58
388.56	62.29
388.769	80.72
388.979	4.95
389.189	52.05
389.399	142.16
389.609	101.2
389.818	166.74
390.028	23.38
390.238	52.05
390.447	54.1
390.657	82.77
390.867	80.72
391.076	29.52
391.286	60.24
391.496	64.34
391.705	35.67
391.915	101.2
392.125	43.86
392.334	-1.19
392.544	74.58
392.753	15.19
392.963	54.1
393.172	-15.53
393.382	19.29
393.591	164.69
393.801	62.29
394.01	117.59
394.22	47.96
394.429	95.06
394.639	82.77
394.848	105.3
395.058	19.29
395.267	41.81
395.477	86.87
395.686	52.05
395.895	140.12
396.105	136.02
396.314	41.81
396.524	64.34
396.733	39.76
396.942	162.64
397.152	107.35
397.361	154.45
397.57	80.72
397.78	99.16
397.989	45.91
398.198	168.79
398.407	107.35
398.617	68.44
398.826	80.72
399.035	103.25
399.244	68.44
399.453	113.49
399.663	86.87
399.872	103.25
400.081	133.97
400.29	86.87
400.499	90.96
400.708	119.64
400.917	133.97
401.127	82.77
401.336	90.96
401.545	230.23
401.754	201.55
401.963	127.83
402.172	140.12
402.381	86.87
402.59	70.48
402.799	84.82
403.008	154.45
403.217	183.12
403.426	111.44
403.635	160.59
403.844	113.49
404.053	160.59
404.262	144.21
404.471	119.64
404.68	191.31
404.888	187.22
405.097	146.26
405.306	187.22
405.515	172.88
405.724	205.65
405.933	127.83
406.142	203.6
406.35	211.79
406.559	189.27
406.768	179.03
406.977	336.72
407.185	322.38
407.394	267.09
407.603	244.56
407.812	265.04
408.02	277.33
408.229	234.32
408.438	185.17
408.646	271.19
408.855	203.6
409.064	310.1
409.272	256.85
409.481	359.25
409.69	318.29
409.898	344.91
410.107	344.91
410.315	367.44
410.524	381.78
410.733	361.3
410.941	385.87
411.15	422.73
411.358	404.3
411.567	418.64
411.775	318.29
411.984	392.02
412.192	490.32
412.401	533.33
412.609	555.85
412.818	582.48
413.026	668.49
413.234	562
413.443	555.85
413.651	584.52
413.86	547.66
414.068	555.85
414.276	674.64
414.485	613.2
414.693	650.06
414.901	760.65
415.11	846.66
415.318	836.42
415.526	807.75
415.734	893.77
415.943	908.1
416.151	949.06
416.359	990.02
416.567	981.83
416.776	1008.45
416.984	1059.65
417.192	1045.32
417.4	1092.42
417.608	1121.09
417.817	1186.63
418.025	1301.31
418.233	1248.07
418.441	1221.44
418.649	1354.56
418.857	1356.61
419.065	1491.77
419.273	1454.91
419.481	1526.59
419.689	1563.45
419.897	1561.41
420.105	1719.1
420.313	1667.9
420.521	1893.18
420.729	1762.11
420.937	1915.7
421.145	1895.22
421.353	2097.97
421.561	2087.73
421.769	2147.12
421.977	2259.76
422.185	2231.09
422.393	2394.93
422.601	2564.91
422.809	2519.85
423.017	2538.29
423.224	2728.75
423.432	2718.51
423.64	2771.76
423.848	3046.18
424.056	2925.35
424.263	3246.88
424.471	3226.4
424.679	3162.92
424.887	3425.06
425.094	3580.7
425.302	3509.02
425.51	3646.24
425.718	3779.36
425.925	3918.62
426.133	3922.71
426.341	4152.09
426.548	4414.23
426.756	4471.57
426.964	4371.22
427.171	4719.37
427.379	4815.63
427.586	4842.25
427.794	5032.71
428.001	5247.75
428.209	5413.63
428.417	5344
428.624	5872.38
428.832	5735.17
429.039	5847.8
429.247	5790.46
429.454	6281.97
429.662	6836.97
429.869	6398.71
430.076	6896.36
430.284	6619.89
430.491	6949.61
430.699	7334.63
430.906	7221.99
431.114	7414.5
431.321	7709.41
431.528	7787.23
431.736	8252.12
431.943	8809.17
432.15	8323.8
432.358	8542.93
432.565	8995.53
432.772	8973
432.979	9415.37
433.187	9626.31
433.394	9448.13
433.601	10140.35
433.808	10263.22
434.016	10095.29
434.223	10721.97
434.43	11481.77
434.637	11123.37
434.844	11723.43
435.052	11926.18
435.259	11883.17
435.466	12071.58
435.673	11934.37
435.88	12763.79
436.087	13525.64
436.294	13490.82
436.501	12944.02
436.708	13267.59
436.915	13879.94
437.122	14443.13
437.329	14422.65
437.537	14766.71
437.743	15151.73
437.95	14912.11
438.157	15800.93
438.364	16349.79
438.571	16353.88
438.778	16607.83
438.985	17934.92
439.192	17418.83
439.399	17746.5
439.606	17113.68
439.813	18432.57
440.02	19327.53
440.227	19008.05
440.433	18772.53
440.64	19485.23
440.847	19386.93
441.054	19808.81
441.261	21084.69
441.467	20990.49
441.674	21295.63
441.881	21971.46
442.088	22043.14
442.294	21832.2
442.501	22434.3
442.708	22874.62
442.914	23638.51
443.121	24809.95
443.328	23761.39
443.534	25768.4
443.741	25076.18
443.948	24693.21
444.154	26390.98
444.361	26159.56
444.568	26233.29
444.774	26503.62
444.981	26968.51
445.187	27726.25
445.394	28856.73
445.6	28363.17
445.807	31465.85
446.013	29706.64
446.22	30380.42
446.426	31644.02
446.633	31443.32
446.839	32737.63
447.046	31445.37
447.252	32889.18
447.459	33534.29
447.665	33110.36
447.871	34715.97
448.078	36075.82
448.284	34646.34
448.491	35354.94
448.697	36512.04
448.903	36981.03
449.11	37490.97
449.316	36696.36
449.522	37630.23
449.728	38535.43
449.935	39053.57
450.141	38678.79
450.347	39606.52
450.553	38492.43
450.76	38514.95
450.966	40552.68
451.172	39721.21
451.378	40497.39
451.584	39725.3
451.791	40622.31
451.997	40616.17
452.203	41494.75
452.409	41349.34
452.615	40945.89
452.821	39809.27
453.027	39643.38
453.233	41228.51
453.44	39581.95
453.646	39966.96
453.852	40737
454.058	41191.65
454.264	39768.31
454.47	40724.71
454.676	39702.78
454.882	40859.88
455.088	37779.73
455.294	38330.64
455.5	38625.54
455.705	39059.71
455.911	37396.76
456.117	36770.08
456.323	35918.13
456.529	34500.93
456.735	36055.34
456.941	35062.08
457.147	34357.58
457.352	33392.98
457.558	33106.27
457.764	33065.31
457.97	32498.02
458.176	32070
458.381	32168.3
458.587	30345.61
458.793	30466.44
458.999	29114.78
459.204	30935.42
459.41	29811.09
459.616	27673.01
459.821	28045.74
460.027	28088.74
460.233	27599.28
460.438	26044.87
460.644	26425.79
460.85	25100.76
461.055	24406.5
461.261	24711.64
461.466	22868.47
461.672	22067.72
461.878	23667.18
462.083	22235.65
462.289	21639.69
462.494	21568.01
462.7	20574.75
462.905	19782.18
463.111	20742.68
463.316	20843.03
463.522	19982.88
463.727	20533.79
463.932	20249.12
464.138	20154.91
464.343	20310.56
464.549	19536.43
464.754	20025.89
464.959	19933.73
465.165	19841.57
465.37	19309.1
465.575	18633.27
465.781	19188.27
465.986	19286.58
466.191	18494.01
466.397	18262.59
466.602	17420.88
466.807	17912.39
467.012	18080.32
467.218	18192.96
467.423	17713.74
467.628	17752.65
467.833	18418.24
468.038	17926.72
468.244	17261.13
468.449	17889.86
468.654	17631.82
468.859	17123.92
469.064	17238.61
469.269	16695.89
469.474	16499.29
469.679	17150.54
469.885	16540.25
470.09	16872.02
470.295	16435.8
470.5	16288.35
470.705	16339.55
470.91	15958.63
471.115	15829.6
471.32	15948.39
471.525	16038.5
471.73	15696.49
471.935	15520.36
472.139	15110.77
472.344	15213.17
472.549	15096.43
472.754	14715.51
472.959	14561.91
473.164	14310.01
473.369	14101.12
473.574	14711.41
473.778	14336.63
473.983	14586.49
474.188	14219.9
474.393	13535.88
474.598	13623.94
474.802	13449.86
475.007	13527.69
475.212	13634.18
475.417	13052.56
475.621	13003.41
475.826	13064.85
476.031	12675.73
476.235	12411.54
476.44	12677.78
476.645	12534.42
476.849	12114.59
477.054	12262.04
477.259	12321.43
477.463	12200.6
477.668	11973.28
477.872	12096.16
478.077	11717.28
478.282	11518.63
478.486	11430.57
478.691	11403.94
478.895	11485.86
479.1	11315.88
479.304	11106.99
479.509	10769.07
479.713	11168.43
479.918	10875.57
480.122	10762.93
480.326	10887.86
480.531	10894
480.735	10537.65
480.94	10736.31
481.144	10859.18
481.348	10455.73
481.553	10349.24
481.757	10373.82
481.961	10547.89
482.166	10762.93
482.37	10359.48
482.574	10152.63
482.778	10365.62
482.983	10388.15
483.187	10619.57
483.391	10326.71
483.595	10406.58
483.8	10324.66
484.004	10574.52
484.208	10336.95
484.412	10332.86
484.616	10537.65
484.821	10410.68
485.025	10066.62
485.229	10359.48
485.433	10396.34
485.637	10371.77
485.841	10316.47
486.045	10388.15
486.249	10353.34
486.453	10263.22
486.657	10382.01
486.861	10332.86
487.065	10087.1
487.269	10244.79
487.473	10199.74
487.677	10541.75
487.881	10652.34
488.085	10177.21
488.289	10439.35
488.493	10322.62
488.697	10523.32
488.901	10377.91
489.105	10230.46
489.309	10590.9
489.512	10443.45
489.716	10410.68
489.92	10652.34
490.124	10447.54
490.328	10744.5
490.531	10658.48
490.735	10697.39
490.939	10580.66
491.143	10769.07
491.346	10459.83
491.55	10707.63
491.754	10498.74
491.958	10883.76
492.161	10805.94
492.365	10760.88
492.569	10930.86
492.772	10951.34
492.976	10879.66
493.18	11049.64
493.383	11205.29
493.587	11090.6
493.79	11209.39
493.994	10951.34
494.197	11537.06
494.401	11483.81
494.605	11371.18
494.808	11899.55
495.012	11434.66
495.215	11645.6
495.419	11897.5
495.622	11725.47
495.825	11969.18
496.029	11936.42
496.232	12325.53
496.436	12092.06
496.639	12485.27
496.843	12554.9
497.046	12415.64
497.249	12769.94
497.453	12808.85
497.656	13003.41
497.859	13017.74
498.063	13066.89
498.266	13247.12
498.469	13273.74
498.673	13613.7
498.876	13650.57
499.079	13742.72
499.282	13703.81
499.485	13998.72
499.689	14045.82
499.892	14402.17
500.095	14561.91
500.298	14783.09
500.501	14434.94
500.705	15082.1
500.908	15225.45
501.111	15200.88
501.314	15336.04
501.517	15489.64
501.72	15725.16
501.923	15669.86
502.126	16134.75
502.329	16458.33
502.532	16204.38
502.735	16573.02
502.938	16829.01
503.141	16988.75
503.344	17103.44
503.547	17298
503.75	17513.03
503.953	17822.28
504.156	17592.9
504.359	17873.48
504.562	18029.12
504.765	18498.11
504.968	18688.57
505.17	18889.27
505.373	18778.68
505.576	19102.26
505.779	19323.44
505.982	19464.75
506.185	19694.12
506.387	19763.75
506.59	20034.08
506.793	20533.79
506.996	20449.82
507.198	21047.83
507.401	20840.98
507.604	21250.58
507.807	21563.92
508.009	21453.33
508.212	22000.13
508.415	22133.25
508.617	22325.76
508.82	22323.71
509.022	22317.57
509.225	22813.18
509.428	23366.13
509.63	23359.98
509.833	23228.91
510.035	23855.59
510.238	23882.22
510.44	24074.73
510.643	24371.68
510.845	24254.95
511.048	24697.31
511.25	25102.81
511.453	25197.01
511.655	25958.86
511.858	25412.05
512.06	25917.9
512.262	26462.66
512.465	26237.38
512.667	26642.88
512.87	26894.78
513.072	26849.72
513.274	27537.84
513.477	27707.82
513.679	27937.2
513.881	28221.86
514.084	28441
514.286	28676.51
514.488	28836.25
514.69	29479.32
514.893	29393.3
515.095	29598.1
515.297	30081.42
515.499	29989.26
515.701	30370.18
515.904	30597.51
516.106	30904.7
516.308	31103.35
516.51	31601.01
516.712	31592.82
516.914	31826.29
517.116	32336.23
517.318	32399.72
517.52	32680.29
517.722	32856.42
517.925	32928.09
518.127	33571.16
518.329	33927.5
518.531	33546.58
518.733	34300.23
518.935	34537.8
519.136	34421.06
519.338	34869.57
519.54	35088.7
519.742	35602.74
519.944	35305.79
520.146	35989.81
520.348	36337.96
520.55	36215.08
520.752	36618.53
520.954	37267.74
521.155	36892.96
521.357	37511.45
521.559	37822.74
521.761	38215.95
521.963	38256.91
522.164	38541.58
522.366	38484.23
522.568	38951.17
522.77	39100.67
522.971	39786.74
523.173	39121.15
523.375	39532.79
523.576	39747.83
523.778	39917.81
523.98	40294.64
524.181	40548.59
524.383	40554.73
524.584	40927.46
524.786	41394.4
524.988	40990.95
525.189	41517.28
525.391	41591
525.592	41873.62
525.794	42197.2
525.995	42328.27
526.197	42348.75
526.398	42426.57
526.6	43139.27
526.801	42625.23
527.003	43167.94
527.204	43165.89
527.406	42967.24
527.607	43030.72
527.808	43460.8
528.01	42799.3
528.211	43307.2
528.412	44884.14
528.614	43935.93
528.815	43860.15
529.016	44243.12
529.218	44054.71
529.419	44374.19
529.62	44310.71
529.822	44615.85
530.023	44456.11
530.224	44681.39
530.425	44634.28
530.626	44648.62
530.828	44636.33
531.029	45641.88
531.23	44204.21
531.431	44886.18
531.632	45293.73
531.833	45396.13
532.035	45301.92
532.236	45578.4
532.437	45426.85
532.638	45222.05
532.839	45668.51
533.04	45748.38
533.241	45267.11
533.442	45910.17
533.643	45840.54
533.844	45385.89
534.045	45664.41
534.246	45566.11
534.447	46127.25
534.648	45719.71
534.849	45830.3
535.05	45586.59
535.251	45959.32
535.451	45736.09
535.652	45930.65
535.853	45631.65
536.054	45682.84
536.255	46139.54
536.456	45469.86
536.657	46100.63
536.857	45547.68
537.058	45656.22
537.259	45992.09
537.46	45969.56
537.66	45494.43
537.861	45785.24
538.062	45762.72
538.263	45869.21
538.463	45721.76
538.664	45682.84
538.865	45746.33
539.065	46014.62
539.266	45680.8
539.466	45725.85
539.667	45439.14
539.868	45930.65
540.068	45811.87
540.269	45510.81
540.469	46047.38
540.67	45416.61
540.87	45461.66
541.071	45674.65
541.271	46004.38
541.472	45975.7
541.672	45490.34
541.873	45748.38
542.073	45158.56
542.274	45881.5
542.474	45658.27
542.675	45195.43
542.875	45828.25
543.075	45453.47
543.276	45148.32
543.476	45801.63
543.676	45250.72
543.877	45471.9
544.077	45453.47
544.277	45422.75
544.478	45688.99
544.678	45289.63
544.878	45547.68
545.078	45269.15
545.279	45256.87
545.479	45238.44
545.679	45346.98
545.879	45478.05
546.079	45394.08
546.28	44710.06
546.48	45103.27
546.68	45070.5
546.88	45713.56
547.08	45152.42
547.28	45308.07
547.48	44740.78
547.68	45320.35
547.88	45207.72
548.081	45045.93
548.281	45152.42
548.481	45220
548.681	45674.65
548.881	45279.39
549.081	45383.84
549.28	45111.46
549.48	45502.62
549.68	44957.86
549.88	45572.25
550.08	45129.89
550.28	44990.63
550.48	44921
550.68	45732
550.88	44732.59
551.08	45246.63
551.279	45187.24
551.479	44765.35
551.679	45242.53
551.879	45351.07
552.079	44806.31
552.278	44689.58
552.478	44886.18
552.678	44703.92
552.878	44974.25
553.077	44814.51
553.277	44591.28
553.477	45097.13
553.676	44789.93
553.876	44845.23
554.076	44923.05
554.275	44396.72
554.475	44071.09
554.674	44845.23
554.874	44583.09
555.074	44843.18
555.273	44347.57
555.473	44452.02
555.672	44257.46
555.872	44759.21
556.071	44247.22
556.271	44445.87
556.47	44255.41
556.67	44187.83
556.869	44003.51
557.068	44509.36
557.268	44191.92
557.467	43980.98
557.667	44032.18
557.866	43753.66
558.065	43757.75
558.265	43905.21
558.464	43839.67
558.663	44142.77
558.863	43479.23
559.062	44122.29
559.261	43376.83
559.461	43862.2
559.66	43057.35
559.859	43774.14
560.058	43096.26
560.258	43006.15
560.457	42729.67
560.656	43229.38
560.855	42782.92
561.054	43417.79
561.253	42948.81
561.453	43090.12
561.652	42879.18
561.851	43008.2
562.05	42827.98
562.249	42580.17
562.448	43077.83
562.647	42971.33
562.846	42449.1
563.045	42395.85
563.244	42236.11
563.443	42764.49
563.642	42008.79
563.841	42021.08
564.04	41894.1
564.239	42340.56
564.438	41838.81
564.637	41695.45
564.836	41963.73
565.035	41887.96
565.234	41787.61
565.432	41560.28
565.631	41431.26
565.83	41865.43
566.029	41328.86
566.228	41369.82
566.427	41464.03
566.625	40728.81
566.824	40544.49
567.023	41175.27
567.222	40362.22
567.42	41107.68
567.619	40722.66
567.818	40786.15
568.016	40607.98
568.215	41042.15
568.414	40519.92
568.612	40755.43
568.811	40423.66
569.01	40524.01
569.208	39948.53
569.407	40122.61
569.605	39780.6
569.804	40392.94
570.002	39506.17
570.201	40145.14
570.4	39731.45
570.598	39555.32
570.797	39358.72
570.995	39520.51
571.193	39172.35
571.392	39403.77
571.59	39182.59
571.789	39145.73
571.987	39088.38
572.186	38785.29
572.384	38658.31
572.582	38875.4
572.781	38947.08
572.979	38109.46
573.177	38773
573.376	38195.47
573.574	38037.78
573.772	38390.03
573.971	38162.7
574.169	38140.18
574.367	37867.8
574.565	38111.5
574.763	37656.85
574.962	37558.55
575.16	37263.64
575.358	37556.5
575.556	37048.61
575.754	37751.06
575.952	36882.72
576.151	37533.98
576.349	36886.82
576.547	36901.15
576.745	36835.62
576.943	36548.9
577.141	36876.58
577.339	36761.89
577.537	36628.77
577.735	36446.51
577.933	36217.13
578.131	36043.06
578.329	35959.09
578.527	36069.68
578.725	35971.38
578.923	35881.27
579.121	35586.36
579.319	35885.36
579.516	35967.28
579.714	35447.1
579.912	35871.03
580.11	35801.4
580.308	35655.99
580.506	35604.79
580.704	34623.81
580.901	35080.51
581.099	35356.99
581.297	34957.63
581.495	34951.49
581.692	34888
581.89	34259.27
582.088	34922.82
582.285	34355.53
582.483	34517.32
582.681	34480.46
582.878	34296.14
583.076	34246.99
583.274	34361.67
583.471	33872.21
583.669	33972.56
583.866	33597.78
584.064	34015.57
584.262	33538.39
584.459	33816.91
584.657	33468.76
584.854	33925.46
585.052	32840.03
585.249	33292.63
585.447	33597.78
585.644	32776.55
585.841	32821.6
586.039	33280.35
586.236	32444.77
586.434	32561.51
586.631	32493.93
586.828	32477.54
587.026	32606.56
587.223	32141.67
587.42	32317.8
587.618	32229.74
587.815	32080.24
588.012	32012.65
588.21	31981.93
588.407	32336.23
588.604	31502.71
588.801	31568.24
588.999	31340.92
589.196	31410.55
589.393	31392.12
589.59	31410.55
589.787	31295.86
589.984	30886.27
590.182	30828.93
590.379	31101.31
590.576	31019.39
590.773	30577.03
590.97	30519.68
591.167	30738.82
591.364	30189.96
591.561	30624.13
591.758	30161.29
591.955	30396.81
592.152	30189.96
592.349	29938.06
592.546	30306.69
592.743	30544.26
592.94	29600.15
593.137	29860.24
593.334	30212.49
593.531	29483.41
593.727	29534.61
593.924	29446.55
594.121	29125.02
594.318	29086.11
594.515	29008.28
594.712	29073.82
594.908	28793.25
595.105	29014.43
595.302	29010.33
595.499	28711.33
595.696	28379.56
595.892	28330.41
596.089	28758.43
596.286	28703.14
596.482	28588.45
596.679	28578.21
596.876	28389.8
597.072	28062.12
597.269	28025.26
597.466	27761.07
597.662	27863.47
597.859	27810.22
598.055	27705.77
598.252	27447.73
598.448	27515.31
598.645	27560.37
598.841	27355.57
599.038	27535.79
599.234	27062.71
599.431	26943.93
599.627	26620.35
599.824	27058.62
600.02	26952.12
600.217	26931.64
600.413	26675.65
600.609	26524.1
600.806	26614.21
601.002	26624.45
601.198	26323.4
601.395	26268.1
601.591	26290.63
601.787	26483.14
601.984	26149.32
602.18	26452.42
602.376	25934.28
602.572	26231.24
602.769	25668.05
602.965	25670.09
603.161	25819.6
603.357	25600.46
603.553	25504.21
603.75	25563.6
603.946	25242.07
604.142	25334.23
604.338	24805.85
604.534	25248.21
604.73	24969.69
604.926	24596.96
605.122	25027.03
605.318	25084.37
605.514	24666.59
605.71	24502.75
605.906	24893.91
606.102	24699.36
606.298	24429.02
606.494	24152.55
606.69	24519.14
606.886	24291.81
607.082	24066.53
607.278	24164.84
607.474	23708.14
607.67	24173.03
607.866	23794.15
608.062	24216.04
608.257	24009.19
608.453	23882.22
608.649	23853.55
608.845	23540.21
609.041	23794.15
609.236	23826.92
609.432	23601.65
609.628	23568.88
609.824	23382.51
610.019	23316.98
610.215	23663.08
610.411	23179.76
610.606	22903.29
610.802	23163.38
610.998	23306.74
611.193	22995.45
611.389	23108.08
611.584	23147
611.78	22923.77
611.976	22700.54
612.171	22641.15
612.367	22927.86
612.562	23007.73
612.758	22415.87
612.953	22471.17
613.149	22802.94
613.344	22448.64
613.539	22645.24
613.735	22501.89
613.93	22409.73
614.126	22223.36
614.321	22776.31
614.517	22485.5
614.712	22450.69
614.907	22155.78
615.103	22497.79
615.298	22194.69
615.493	22233.6
615.688	22192.64
615.884	22516.22
616.079	21932.55
616.274	21946.89
616.47	21838.34
616.665	21977.61
616.86	21502.48
617.055	21516.81
617.25	21500.43
617.445	21801.48
617.641	21592.59
617.836	21428.75
618.031	21187.09
618.226	21592.59
618.421	21393.93
618.616	21428.75
618.811	20832.79
619.006	21445.13
619.201	20732.44
619.396	21305.87
619.591	20744.73
619.786	20943.38
619.981	20677.15
620.176	20851.22
620.371	20271.65
620.566	20705.82
620.761	20529.69
620.956	20724.25
621.151	20116
621.346	20091.43
621.541	20046.37
621.735	19886.63
621.93	19616.3
622.125	19769.9
622.32	19812.9
622.515	19626.54
622.709	19735.08
622.904	19714.6
623.099	19364.4
623.294	19061.3
623.488	18934.32
623.683	19051.06
623.878	18647.61
624.072	19087.92
624.267	18803.25
624.462	18610.75
624.656	18297.41
624.851	18741.82
625.046	18313.79
625.24	18428.48
625.435	18164.29
625.629	18006.59
625.824	17707.59
626.018	17998.4
626.213	17470.03
626.407	17896
626.602	17470.03
626.796	17822.28
626.991	17541.71
627.185	17338.96
627.38	17314.38
627.574	16986.71
627.768	16896.6
627.963	16964.18
628.157	16777.81
628.352	16829.01
628.546	16519.77
628.74	16579.16
628.935	16564.82
629.129	16605.78
629.323	16188
629.517	16384.6
629.712	15927.91
629.906	16095.84
630.1	16003.68
630.294	16122.46
630.489	15868.52
630.683	16003.68
630.877	15641.19
631.071	15639.14
631.265	15927.91
631.459	15381.1
631.653	15270.51
631.848	15530.6
632.042	15094.38
632.236	15188.59
632.43	15080.05
632.624	15096.43
632.818	15204.97
633.012	14654.07
633.206	14658.17
633.4	14705.27
633.594	14711.41
633.788	14232.19
633.982	14723.7
634.176	14336.63
634.369	14328.44
634.563	14250.62
634.757	14250.62
634.951	14183.04
635.145	14051.97
635.339	13959.81
635.533	13957.76
635.726	13929.09
635.92	13537.93
636.114	13906.56
636.308	13718.15
636.501	13550.21
636.695	13587.08
636.889	13445.77
637.083	13222.54
637.276	13181.58
637.47	13154.96
637.664	13234.83
637.857	13095.57
638.051	12997.26
638.244	12878.48
638.438	12667.54
638.632	12831.38
638.825	12575.38
639.019	12442.26
639.212	12477.08
639.406	12450.46
639.599	12413.59
639.793	12272.28
639.986	12233.37
640.18	12448.41
640.373	12169.88
640.567	11965.09
640.76	12053.15
640.954	11807.39
641.147	11823.78
641.34	11809.44
641.534	11809.44
641.727	11745.95
641.92	11635.36
642.114	11661.99
642.307	11782.82
642.5	11674.28
642.694	11244.2
642.887	11360.94
643.08	11565.73
643.273	11236.01
643.467	11195.05
643.66	11197.1
643.853	11313.83
644.046	11008.69
644.239	11119.28
644.432	11004.59
644.626	10799.79
644.819	10834.61
645.012	10717.87
645.205	10777.26
645.398	10531.51
645.591	10621.62
645.784	10447.54
645.977	10425.01
646.17	10451.64
646.363	10246.84
646.556	10132.15
646.749	10220.22
646.942	10152.63
647.135	10044.09
647.328	10001.08
647.521	10234.55
647.714	9958.08
647.907	9863.87
648.099	9771.71
648.292	9978.56
648.485	9736.9
648.678	9636.55
648.871	9609.92
649.064	9583.3
649.256	9491.14
649.449	9673.41
649.642	9583.3
649.835	9423.56
650.027	9333.45
650.22	9220.81
650.413	9341.64
650.605	9214.66
650.798	9362.12
650.991	9034.44
651.183	9042.64
651.376	8815.31
651.568	9001.68
651.761	8925.9
651.954	8862.41
652.146	8829.65
652.339	8749.78
652.531	8839.89
652.724	8702.67
652.916	8729.3
653.109	8633.04
653.301	8714.96
653.494	8575.7
653.686	8178.39
653.879	8712.91
654.071	8192.73
654.263	8162.01
654.456	8313.56
654.648	8254.17
654.84	8217.3
655.033	8162.01
655.225	8239.83
655.417	8123.1
655.61	8006.36
655.802	8071.9
655.994	7764.7
656.186	7955.16
656.379	7903.96
656.571	7979.74
656.763	7731.94
656.955	7758.56
657.148	7908.06
657.34	7828.19
657.532	7475.94
657.724	7785.18
657.916	7781.09
658.108	7545.57
658.3	7453.41
658.492	7514.85
658.684	7361.25
658.876	7441.12
659.068	7318.25
659.26	7217.9
659.452	7375.59
659.644	7203.56
659.836	7156.46
660.028	7205.61
660.22	7092.97
660.412	7031.53
660.604	7017.19
660.796	7082.73
660.988	6943.47
661.18	6871.79
661.372	6902.51
661.563	6929.13
661.755	6785.77
661.947	6781.68
662.139	6966
662.331	6757.1
662.522	6607.6
662.714	6628.08
662.906	6662.9
663.097	6642.42
663.289	6423.28
663.481	6441.72
663.673	6470.39
663.864	6556.4
664.056	6533.87
664.247	6294.26
664.439	6406.9
664.631	6216.44
664.822	6443.76
665.014	6261.49
665.205	6124.28
665.397	6224.63
665.588	6118.14
665.78	6175.48
665.971	6210.29
666.163	6175.48
666.354	6159.1
666.546	6234.87
666.737	6046.46
666.929	6083.32
667.12	5976.83
667.311	5856
667.503	6046.46
667.694	5853.95
667.885	5868.28
668.077	5839.61
668.268	5937.91
668.459	5796.6
668.651	5794.56
668.842	5669.63
669.033	5839.61
669.224	5632.77
669.416	5716.73
669.607	5741.31
669.798	5595.9
669.989	5597.95
670.18	5348.1
670.371	5485.31
670.563	5571.33
670.754	5409.54
670.945	5413.63
671.136	5675.77
671.327	5436.16
671.518	5389.06
671.709	5319.43
671.9	5356.29
672.091	5372.68
672.282	5409.54
672.473	5520.13
672.664	5344
672.855	5255.94
673.046	5266.18
673.237	5174.02
673.428	5274.37
673.619	5083.91
673.809	5079.82
674	5126.92
674.191	5045
674.382	4981.51
674.573	4893.45
674.764	5012.23
674.954	4961.03
675.145	5008.14
675.336	5045
675.527	4897.55
675.717	4903.69
675.908	4911.88
676.099	5092.1
676.289	4883.21
676.48	4963.08
676.671	4811.53
676.861	4965.13
677.052	4950.79
677.243	4725.52
677.433	4780.81
677.624	4797.2
677.814	4872.97
678.005	5001.99
678.195	4807.44
678.386	4748.04
678.576	4610.83
678.767	4676.37
678.957	4709.13
679.148	4735.76
679.338	4684.56
679.529	4553.49
679.719	4657.93
679.909	4627.21
680.1	4616.97
680.29	4580.11
680.481	4502.29
680.671	4664.08
680.861	4725.52
681.052	4559.63
681.242	4502.29
681.432	4594.45
681.622	4549.39
681.813	4483.86
682.003	4373.27
682.193	4555.54
682.383	4477.71
682.573	4500.24
682.764	4426.51
682.954	4604.69
683.144	4367.12
683.334	4453.14
683.524	4328.21
683.714	4471.57
683.904	4360.98
684.094	4346.64
684.284	4414.23
684.474	4463.38
684.664	4348.69
684.854	4191
685.044	4299.54
685.234	4274.96
685.424	4264.72
685.614	4268.82
685.804	4203.29
685.994	4229.91
686.184	4076.31
686.374	4197.14
686.564	4225.81
686.753	4174.61
686.943	4084.5
687.133	4207.38
687.323	3973.91
687.513	4231.96
687.702	3935
687.892	4068.12
688.082	4014.87
688.272	3973.91
688.461	4072.22
688.651	4000.54
688.841	3978.01
689.03	3900.19
689.22	3877.66
689.41	3920.67
689.599	3844.89
689.789	3859.23
689.979	3709.72
690.168	3957.53
690.358	3775.26
690.547	3867.42
690.737	3791.64
690.926	3861.27
691.116	3777.31
691.305	3783.45
691.495	3740.44
691.684	3689.25
691.874	3734.3
692.063	3576.61
692.252	3631.9
692.442	3695.39
692.631	3552.03
692.82	3578.65
693.01	3543.84
693.199	3486.5
693.388	3449.63
693.578	3554.08
693.767	3443.49
693.956	3584.8
694.146	3609.37
694.335	3418.91
694.524	3302.18
694.713	3398.43
694.902	3369.76
695.092	3584.8
695.281	3355.43
695.47	3384.1
695.659	3435.3
695.848	3431.2
696.037	3277.6
696.226	3461.92
696.415	3377.95
696.604	3398.43
696.793	3083.05
696.982	3377.95
697.171	3437.34
697.36	3351.33
697.549	3261.22
697.738	3394.34
697.927	3253.03
698.116	3238.69
698.305	3273.51
698.494	3250.98
698.683	3300.13
698.872	3248.93
699.061	3226.4
699.25	3195.68
699.438	3277.6
699.627	3267.36
699.816	3138.34
700.005	3160.87
700.193	3283.75
700.382	3173.16
700.571	3261.22
700.76	3359.52
700.948	3296.04
701.137	3177.25
701.326	3097.38
701.514	3152.68
701.703	3167.01
701.892	3078.95
702.08	3081
702.269	3121.96
702.457	3101.48
702.646	3081
702.834	3052.33
703.023	3089.19
703.212	3138.34
703.4	3181.35
703.589	3183.4
703.777	3025.7
703.965	3105.57
704.154	3328.8
704.342	2951.98
704.531	3005.22
704.719	3105.57
704.907	3081
705.096	2976.55
705.284	3040.04
705.472	3074.85
705.661	2994.98
705.849	3015.46
706.037	3115.81
706.226	3031.85
706.414	2994.98
706.602	2945.83
706.79	3019.56
706.979	3019.56
707.167	3042.09
707.355	2980.65
707.543	3013.42
707.731	3119.91
707.919	3050.28
708.107	2931.5
708.296	3052.33
708.484	3093.29
708.672	2927.4
708.86	3046.18
709.048	3035.94
709.236	3029.8
709.424	2935.59
709.612	2931.5
709.8	3005.22
709.988	2970.41
710.176	3048.23
710.364	2994.98
710.551	3019.56
710.739	3005.22
710.927	3044.13
711.115	2888.49
711.303	2962.22
711.491	3101.48
711.679	2919.21
711.866	2964.26
712.054	3015.46
712.242	2917.16
712.43	2931.5
712.617	3025.7
712.805	2939.69
712.993	3068.71
713.181	2939.69
713.368	2997.03
713.556	3037.99
713.744	2870.06
713.931	2958.12
714.119	3013.42
714.306	2986.79
714.494	2947.88
714.682	2859.82
714.869	2933.54
715.057	2855.72
715.244	3003.18
715.432	2841.39
715.619	2956.07
715.807	2943.78
715.994	3046.18
716.182	2906.92
716.369	2913.06
716.556	2947.88
716.744	2853.67
716.931	2945.83
717.119	2966.31
717.306	3015.46
717.493	2884.39
717.681	2917.16
717.868	2902.83
718.055	3066.66
718.242	2929.45
718.43	2990.89
718.617	2994.98
718.804	3013.42
718.991	2986.79
719.179	2921.26
719.366	2847.53
719.553	2872.11
719.74	2962.22
719.927	2906.92
720.114	2876.2
720.301	2943.78
720.488	2777.9
720.676	2839.34
720.863	2933.54
721.05	2984.74
721.237	2939.69
721.424	3013.42
721.611	2939.69
721.798	2820.91
721.985	3072.81
722.172	2927.4
722.358	2898.73
722.545	2818.86
722.732	2939.69
722.919	3023.66
723.106	2886.44
723.293	2841.39
723.48	2882.35
723.667	2976.55
723.853	2800.43
724.04	2915.11
724.227	2859.82
724.414	2947.88
724.6	2704.17
724.787	2788.14
724.974	2853.67
725.161	2933.54
725.347	2943.78
725.534	2788.14
725.72	2945.83
725.907	2970.41
726.094	2855.72
726.28	2839.34
726.467	2812.71
726.653	2908.97
726.84	2904.87
727.027	2984.74
727.213	2724.65
727.4	2843.43
727.586	2919.21
727.773	2902.83
727.959	2898.73
728.145	2868.01
728.332	2816.81
728.518	2874.15
728.705	2888.49
728.891	2784.04
729.077	2738.99
729.264	2908.97
729.45	2800.43
729.636	2988.84
729.823	2872.11
730.009	2841.39
730.195	2675.5
730.382	2872.11
730.568	2865.96
730.754	2888.49
730.94	2687.79
731.126	2939.69
731.313	2906.92
731.499	2810.67
731.685	2966.31
731.871	2786.09
732.057	2921.26
732.243	2902.83
732.429	2951.98
732.615	2804.52
732.801	2958.12
732.987	2845.48
733.173	2784.04
733.359	2704.17
733.545	2732.84
733.731	2804.52
733.917	2769.71
734.103	2839.34
734.289	2863.91
734.475	2816.81
734.661	2863.91
734.847	2730.8
735.033	2761.52
735.219	2806.57
735.404	2749.23
735.59	2790.19
735.776	2743.08
735.962	2851.63
736.148	2825
736.333	2779.95
736.519	2779.95
736.705	2781.99
736.89	2777.9
737.076	2716.46
737.262	2650.92
737.447	2773.8
737.633	2689.84
737.819	2663.21
738.004	2734.89
738.19	2728.75
738.375	2587.44
738.561	2747.18
738.747	2732.84
738.932	2759.47
739.118	2677.55
739.303	2609.97
739.489	2661.16
739.674	2513.71
739.859	2669.36
740.045	2652.97
740.23	2558.77
740.416	2620.21
740.601	2738.99
740.786	2677.55
740.972	2521.9
741.157	2622.25
741.342	2704.17
741.528	2431.79
741.713	2644.78
741.898	2683.69
742.084	2577.2
742.269	2384.69
742.454	2528.05
742.639	2640.69
742.824	2628.4
743.01	2534.19
743.195	2452.27
743.38	2540.33
743.565	2507.57
743.75	2388.78
743.935	2456.37
744.12	2452.27
744.305	2487.09
744.49	2419.5
744.675	2433.84
744.86	2392.88
745.045	2380.59
745.23	2444.08
745.415	2380.59
745.6	2378.55
745.785	2368.31
745.97	2399.02
746.155	2218.8
746.34	2249.52
746.525	2321.2
746.71	2321.2
746.895	2181.94
747.079	2222.9
747.264	2218.8
747.449	2214.71
747.634	2173.75
747.819	2347.83
748.003	2196.28
748.188	2100.02
748.373	2149.17
748.557	2143.03
748.742	2194.23
748.927	2161.46
749.111	2140.98
749.296	2097.97
749.481	2153.27
749.665	2018.1
749.85	2003.77
750.034	2087.73
750.219	2014.01
750.404	2093.88
750.588	1893.18
750.773	1880.89
750.957	2007.86
751.141	1981.24
751.326	1948.47
751.51	1846.07
751.695	2009.91
751.879	1835.83
752.064	1864.5
752.248	1880.89
752.432	1788.73
752.617	1825.59
752.801	1850.17
752.985	1866.55
753.17	1815.35
753.354	1766.2
753.538	1858.36
753.722	1690.43
753.907	1715
754.091	1684.28
754.275	1747.77
754.459	1616.7
754.643	1633.08
754.828	1719.1
755.012	1680.19
755.196	1573.69
755.38	1688.38
755.564	1520.45
755.748	1667.9
755.932	1645.37
756.116	1657.66
756.3	1567.55
756.484	1608.51
756.668	1465.15
756.852	1569.6
757.036	1583.93
757.22	1579.84
757.404	1487.68
757.588	1465.15
757.772	1467.2
757.956	1409.86
758.14	1481.53
758.323	1510.21
758.507	1493.82
758.691	1487.68
758.875	1393.47
759.059	1383.23
759.242	1532.73
759.426	1325.89
759.61	1420.1
759.794	1370.94
759.977	1309.51
760.161	1434.43
760.345	1332.03
760.528	1420.1
760.712	1338.18
760.895	1387.33
761.079	1315.65
761.263	1362.75
761.446	1297.22
761.63	1420.1
761.813	1307.46
761.997	1334.08
762.18	1448.77
762.364	1252.16
762.547	1295.17
762.731	1260.35
762.914	1315.65
763.098	1409.86
763.281	1223.49
763.464	1299.27
763.648	1268.55
763.831	1166.15
764.015	1313.6
764.198	1186.63
764.381	1358.66
764.564	1239.87
764.748	1162.05
764.931	1196.87
765.114	1211.2
765.297	1145.67
765.481	1231.68
765.664	1250.11
765.847	1174.34
766.03	1233.73
766.213	1078.08
766.397	1098.56
766.58	1196.87
766.763	1180.48
766.946	1166.15
767.129	1145.67
767.312	1131.33
767.495	1137.48
767.678	1125.19
767.861	1112.9
768.044	1143.62
768.227	1094.47
768.41	1131.33
768.593	1209.15
768.776	1166.15
768.959	1045.32
769.142	1155.91
769.324	1088.32
769.507	1117
769.69	1098.56
769.873	1059.65
770.056	1176.39
770.239	1051.46
770.421	1030.98
770.604	1078.08
770.787	965.45
770.97	1028.93
771.152	981.83
771.335	1037.13
771.518	973.64
771.7	987.97
771.883	1057.61
772.066	992.07
772.248	965.45
772.431	994.12
772.613	938.82
772.796	973.64
772.978	914.25
773.161	906.06
773.343	930.63
773.526	979.78
773.708	895.82
773.891	828.23
774.073	924.49
774.256	899.91
774.438	947.01
774.621	924.49
774.803	895.82
774.985	938.82
775.168	922.44
775.35	854.86
775.532	893.77
775.715	791.37
775.897	856.9
776.079	826.18
776.261	861
776.444	873.29
776.626	848.71
776.808	793.42
776.99	826.18
777.173	863.05
777.355	738.12
777.537	832.33
777.719	873.29
777.901	811.85
778.083	695.11
778.265	699.21
778.447	742.22
778.629	721.74
778.811	805.71
778.993	807.75
779.175	707.4
779.357	756.55
779.539	670.54
779.721	697.16
779.903	834.38
780.085	758.6
780.267	774.99
780.449	762.7
780.631	666.44
780.812	670.54
780.994	731.98
781.176	650.06
781.358	684.87
781.54	617.29
781.721	650.06
781.903	717.64
782.085	656.2
782.267	629.58
782.448	574.28
782.63	568.14
782.812	637.77
782.993	582.48
783.175	615.24
783.357	578.38
783.538	654.16
783.72	574.28
783.901	576.33
784.083	564.04
784.264	521.04
784.446	539.47
784.627	602.96
784.809	555.85
784.99	547.66
785.172	600.91
785.353	598.86
785.535	504.65
785.716	494.41
785.897	531.28
786.079	660.3
786.26	531.28
786.441	508.75
786.623	435.02
786.804	482.13
786.985	504.65
787.167	465.74
787.348	455.5
787.529	555.85
787.71	572.24
787.891	424.78
788.073	451.41
788.254	404.3
788.435	527.18
788.616	475.98
788.797	414.54
788.978	523.09
789.159	459.6
789.34	394.06
789.522	412.5
789.703	451.41
789.884	435.02
790.065	482.13
790.246	424.78
790.427	389.97
790.607	490.32
790.788	457.55
790.969	420.69
791.15	430.93
791.331	426.83
791.512	375.63
791.693	420.69
791.874	392.02
792.054	443.21
792.235	478.03
792.416	465.74
792.597	404.3
792.778	328.53
792.958	416.59
793.139	408.4
793.32	328.53
793.5	381.78
793.681	424.78
793.862	326.48
794.042	418.64
794.223	361.3
794.404	426.83
794.584	320.34
794.765	316.24
794.945	400.21
795.126	377.68
795.306	316.24
795.487	392.02
795.667	293.71
795.848	355.15
796.028	338.77
796.209	330.58
796.389	338.77
796.57	250.71
796.75	385.87
796.93	291.66
797.111	340.82
797.291	312.14
797.471	394.06
797.652	383.82
797.832	277.33
798.012	387.92
798.192	351.06
798.373	310.1
798.553	344.91
798.733	426.83
798.913	314.19
799.093	281.43
799.274	342.86
799.454	332.62
799.634	273.23
799.814	306
799.994	283.47
800.174	312.14
800.354	248.66
800.534	303.95
800.714	271.19
800.894	193.36
801.074	312.14
801.254	213.84
801.434	306
801.614	363.34
801.794	248.66
801.974	678.73
802.154	297.81
802.334	289.62
802.514	260.95
802.693	308.05
802.873	371.54
803.053	332.62
803.233	201.55
803.413	211.79
803.592	199.51
803.772	224.08
803.952	293.71
804.131	176.98
804.311	275.28
804.491	211.79
804.67	269.14
804.85	154.45
805.03	271.19
805.209	250.71
805.389	291.66
805.568	256.85
805.748	273.23
805.928	291.66
806.107	260.95
806.287	230.23
806.466	224.08
806.646	181.07
806.825	166.74
807.004	236.37
807.184	262.99
807.363	256.85
807.543	185.17
807.722	158.55
807.901	271.19
808.081	164.69
808.26	240.47
808.439	187.22
808.619	244.56
808.798	262.99
808.977	291.66
809.156	242.51
809.336	203.6
809.515	219.99
809.694	203.6
809.873	230.23
810.052	162.64
810.231	295.76
810.411	205.65
810.59	197.46
810.769	246.61
810.948	207.7
811.127	185.17
811.306	144.21
811.485	99.16
811.664	277.33
811.843	199.51
812.022	236.37
812.201	158.55
812.38	123.73
812.559	146.26
812.737	209.75
812.916	156.5
813.095	90.96
813.274	152.4
813.453	138.07
813.632	158.55
813.811	133.97
813.989	207.7
814.168	205.65
814.347	150.36
814.526	234.32
814.704	240.47
814.883	228.18
815.062	158.55
815.24	170.83
815.419	191.31
815.598	201.55
815.776	131.92
815.955	142.16
816.133	138.07
816.312	226.13
816.49	146.26
816.669	136.02
816.847	148.31
817.026	93.01
817.204	201.55
817.383	150.36
817.561	193.36
817.74	148.31
817.918	152.4
818.097	168.79
818.275	95.06
818.453	213.84
818.632	209.75
818.81	138.07
818.988	144.21
819.167	109.4
819.345	103.25
819.523	205.65
819.701	150.36
819.879	170.83
820.058	113.49
820.236	154.45
820.414	107.35
820.592	125.78
820.77	205.65
820.948	103.25
821.127	115.54
821.305	136.02
821.483	174.93
821.661	226.13
821.839	121.68
822.017	191.31
822.195	60.24
822.373	156.5
822.551	101.2
822.729	117.59
822.907	146.26
823.085	113.49
823.262	56.15
823.44	207.7
823.618	140.12
823.796	125.78
823.974	97.11
824.152	93.01
824.329	129.88
824.507	109.4
824.685	54.1
824.863	144.21
825.04	117.59
825.218	129.88
825.396	121.68
825.574	123.73
825.751	111.44
825.929	156.5
826.107	101.2
826.284	50
826.462	142.16
826.639	183.12
826.817	144.21
826.994	205.65
827.172	82.77
827.349	129.88
827.527	193.36
827.704	31.57
827.882	101.2
828.059	80.72
828.237	136.02
828.414	138.07
828.591	27.48
828.769	125.78
828.946	58.2
829.124	146.26
829.301	97.11
829.478	123.73
829.655	0.85
829.833	90.96
830.01	88.92
830.187	146.26
830.364	107.35
830.542	127.83
830.719	150.36
830.896	185.17
831.073	60.24
831.25	105.3
831.427	99.16
831.604	56.15
831.782	68.44
831.959	74.58
832.136	138.07
832.313	111.44
832.49	129.88
832.667	103.25
832.844	29.52
833.021	84.82
833.198	74.58
833.374	35.67
833.551	84.82
833.728	80.72
833.905	105.3
834.082	15.19
834.259	27.48
834.436	88.92
834.612	47.96
834.789	76.63
834.966	105.3
835.143	129.88
835.319	115.54
835.496	101.2
835.673	86.87
835.85	58.2
836.026	88.92
836.203	111.44
836.38	66.39
836.556	97.11
836.733	2.9
836.909	170.83
837.086	68.44
837.262	43.86
837.439	56.15
837.616	166.74
837.792	84.82
837.968	88.92
838.145	68.44
838.321	37.72
838.498	33.62
838.674	109.4
838.851	25.43
839.027	58.2
839.203	95.06
839.38	117.59
839.556	93.01
839.732	80.72
839.909	27.48
840.085	121.68
840.261	35.67
840.437	41.81
840.614	72.53
840.79	105.3
840.966	101.2
841.142	97.11
841.318	56.15
841.494	13.14
841.671	45.91
841.847	133.97
842.023	129.88
842.199	66.39
842.375	129.88
842.551	52.05
842.727	43.86
842.903	47.96
843.079	-29.87
843.255	56.15
843.431	60.24
843.607	121.68
843.783	-23.72
843.959	74.58
844.134	-64.68
844.31	97.11
844.486	47.96
844.662	-13.48
844.838	66.39
845.013	29.52
845.189	19.29
845.365	54.1
845.541	-5.29
845.716	31.57
845.892	78.68
846.068	80.72
846.244	35.67
846.419	60.24
846.595	0.85
846.77	84.82
846.946	52.05
847.122	117.59
847.297	33.62
847.473	50
847.648	43.86
847.824	80.72
847.999	-25.77
848.175	39.76
848.35	0.85
848.526	62.29
848.701	62.29
848.876	43.86
849.052	117.59
849.227	52.05
849.403	11.09
849.578	90.96
849.753	7
849.929	17.24
850.104	64.34
850.279	64.34
850.454	54.1
850.63	45.91
850.805	27.48
850.98	109.4
851.155	107.35
851.33	43.86
851.505	-17.58
851.681	103.25
851.856	-50.35
852.031	25.43
852.206	43.86
852.381	-19.63
852.556	72.53
852.731	17.24
852.906	-21.67
853.081	29.52
853.256	78.68
853.431	-9.39
853.606	62.29
853.781	41.81
853.956	33.62
854.131	60.24
854.305	37.72
854.48	72.53
854.655	-5.29
854.83	9.05
855.005	64.34
855.18	-11.43
855.354	54.1
855.529	2.9
855.704	-42.15
855.879	97.11
856.053	33.62
856.228	68.44
856.403	70.48
856.577	-13.48
856.752	60.24
856.926	0.85
857.101	-46.25
857.276	15.19
857.45	-33.96
857.625	127.83
857.799	47.96
857.974	35.67
858.148	-27.82
858.323	25.43
858.497	11.09
858.672	0.85
858.846	19.29
859.02	64.34
859.195	45.91
859.369	56.15
859.543	47.96
859.718	84.82
859.892	47.96
860.066	-38.06
860.241	29.52
860.415	-27.82
860.589	-40.11
860.763	66.39
860.938	-48.3
861.112	54.1
861.286	45.91
861.46	25.43
861.634	17.24
861.808	52.05
861.982	-5.29
862.157	-36.01
862.331	62.29
862.505	19.29
862.679	97.11
862.853	58.2
863.027	64.34
863.201	39.76
863.375	54.1
863.549	45.91
863.722	2.9
863.896	29.52
864.07	35.67
864.244	43.86
864.418	76.63
864.592	86.87
864.766	-1.19
864.939	82.77
865.113	-3.24
865.287	43.86
865.461	-11.43
865.634	15.19
865.808	56.15
865.982	2.9
866.156	76.63
866.329	4.95
866.503	13.14
866.676	13.14
866.85	58.2
867.024	-1.19
867.197	45.91
867.371	117.59
867.544	25.43
867.718	-3.24
867.891	64.34
868.065	52.05
868.238	37.72
868.412	37.72
868.585	-19.63
868.759	-33.96
868.932	50
869.105	2.9
869.279	19.29
869.452	60.24
869.625	25.43
869.799	13.14
869.972	-7.34
870.145	52.05
870.319	-25.77
870.492	23.38
870.665	-31.91
870.838	-19.63
871.011	37.72
871.185	101.2
871.358	27.48
871.531	-21.67
871.704	29.52
871.877	72.53
872.05	52.05
872.223	-19.63
872.396	80.72
872.569	-25.77
872.742	45.91
872.915	-1.19
873.088	-7.34
873.261	47.96
873.434	78.68
873.607	64.34
873.78	7
873.953	-1.19
874.126	39.76
874.299	7
874.471	-66.73
874.644	56.15
874.817	52.05
874.99	37.72
875.163	25.43
875.335	41.81
875.508	-19.63
875.681	43.86
875.853	-19.63
876.026	17.24
876.199	66.39
876.371	43.86
876.544	-3.24
876.717	-9.39
876.889	72.53
877.062	4.95
877.234	-13.48
877.407	9.05
877.579	-50.35
877.752	27.48
877.924	68.44
878.097	33.62
878.269	58.2
878.442	23.38
878.614	17.24
878.786	37.72
878.959	41.81
879.131	4.95
879.303	-29.87
879.476	-33.96
879.648	29.52
879.82	-5.29
879.993	13.14
880.165	25.43
880.337	-27.82
880.509	9.05
880.681	4.95
880.854	2.9
881.026	76.63
881.198	54.1
881.37	-7.34
881.542	90.96
881.714	-7.34
881.886	29.52
882.058	43.86
882.23	-76.97
882.402	-15.53
882.574	17.24
882.746	-23.72
882.918	35.67
883.09	33.62
883.262	9.05
883.434	-1.19
883.606	-13.48
883.778	31.57
883.95	39.76
884.122	76.63
884.293	4.95
884.465	-15.53
884.637	-11.43
884.809	-21.67
884.98	31.57
885.152	47.96
885.324	58.2
885.496	-46.25
885.667	-1.19
885.839	-13.48
886.011	45.91
886.182	39.76
886.354	-15.53
886.525	37.72
886.697	7
886.869	-79.02
887.04	2.9
887.212	148.31
887.383	129.88
887.555	35.67
887.726	80.72
887.897	-29.87
888.069	-15.53
888.24	56.15
888.412	74.58
888.583	9.05
888.754	-1.19
888.926	-64.68
889.097	43.86
889.268	-29.87
889.44	52.05
889.611	-56.49
889.782	-9.39
889.953	19.29
890.125	43.86
890.296	15.19
890.467	23.38
890.638	11.09
890.809	45.91
890.98	17.24
891.151	78.68
891.323	-7.34
891.494	29.52
891.665	9.05
891.836	27.48
892.007	-11.43
892.178	-1.19
892.349	74.58
892.52	-40.11
892.691	64.34
892.862	-36.01
893.032	-11.43
893.203	-31.91
893.374	19.29
893.545	37.72
893.716	21.33
893.887	9.05
894.057	2.9
894.228	13.14
894.399	-31.91
894.57	41.81
894.74	27.48
894.911	29.52
895.082	29.52
895.253	17.24
895.423	2.9
895.594	45.91
895.764	76.63
895.935	-19.63
896.106	-29.87
896.276	-9.39
896.447	-7.34
896.617	-11.43
896.788	-25.77
896.958	41.81
897.129	-31.91
897.299	13.14
897.47	52.05
897.64	-5.29
897.81	-29.87
897.981	-21.67
898.151	29.52
898.322	78.68
898.492	13.14
898.662	4.95
898.832	52.05
899.003	11.09
899.173	4.95
899.343	60.24
899.513	78.68
