Data from USB4F104151__65__11-52-35-462.txt Node

Date: Fri Mar 14 11:52:35 EDT 2025
User: louis
Spectrometer: USB4F10415
Trigger mode: 4
Integration Time (sec): 2.000000E-2
Scans to average: 1
Electric dark correction enabled: true
Nonlinearity correction enabled: false
Boxcar width: 0
XAxis mode: Wavelengths
Number of Pixels in Spectrum: 3648
>>>>>Begin Spectral Data<<<<<
178.204	-37.89
178.424	-37.89
178.644	-37.89
178.864	-103.42
179.084	33.79
179.304	-46.08
179.524	-5.12
179.744	-15.36
179.964	-35.84
180.184	29.7
180.404	5.12
180.624	7.17
180.844	-56.32
181.064	21.5
181.283	44.03
181.503	17.41
181.723	33.79
181.943	-37.89
182.163	27.65
182.383	7.17
182.602	52.22
182.822	44.03
183.042	31.74
183.262	54.27
183.482	33.79
183.701	31.74
183.921	-11.26
184.141	19.46
184.361	35.84
184.58	41.98
184.8	41.98
185.02	-58.37
185.239	15.36
185.459	-15.36
185.679	1.02
185.898	-9.22
186.118	48.13
186.338	-17.41
186.557	89.09
186.777	64.51
186.997	19.46
187.216	17.41
187.436	-48.13
187.655	62.46
187.875	19.46
188.095	-23.55
188.314	-3.07
188.534	93.18
188.753	33.79
188.973	60.42
189.192	84.99
189.412	-21.5
189.631	19.46
189.851	-56.32
190.07	48.13
190.29	-15.36
190.509	41.98
190.729	-66.56
190.948	60.42
191.168	93.18
191.387	21.5
191.607	-82.94
191.826	-3.07
192.045	21.5
192.265	68.61
192.484	64.51
192.704	68.61
192.923	-15.36
193.142	146.43
193.362	17.41
193.581	84.99
193.8	50.18
194.02	54.27
194.239	37.89
194.458	19.46
194.678	48.13
194.897	82.94
195.116	140.29
195.335	48.13
195.555	119.81
195.774	46.08
195.993	-7.17
196.212	52.22
196.432	39.94
196.651	11.26
196.87	-54.27
197.089	62.46
197.308	-25.6
197.528	72.7
197.747	31.74
197.966	70.65
198.185	23.55
198.404	-5.12
198.623	-5.12
198.842	41.98
199.062	105.47
199.281	54.27
199.5	41.98
199.719	62.46
199.938	64.51
200.157	39.94
200.376	56.32
200.595	60.42
200.814	1.02
201.033	19.46
201.252	35.84
201.471	23.55
201.69	41.98
201.909	5.12
202.128	29.7
202.347	62.46
202.566	-84.99
202.785	97.28
203.004	33.79
203.223	62.46
203.442	74.75
203.661	25.6
203.879	-3.07
204.098	-5.12
204.317	103.42
204.536	84.99
204.755	68.61
204.974	103.42
205.193	68.61
205.411	80.89
205.63	33.79
205.849	-5.12
206.068	41.98
206.287	-13.31
206.505	9.22
206.724	-48.13
206.943	5.12
207.162	37.89
207.381	13.31
207.599	46.08
207.818	25.6
208.037	-9.22
208.255	58.37
208.474	25.6
208.693	7.17
208.911	-50.18
209.13	48.13
209.349	-66.56
209.567	23.55
209.786	31.74
210.005	48.13
210.223	70.65
210.442	-7.17
210.661	33.79
210.879	-31.74
211.098	17.41
211.316	66.56
211.535	29.7
211.753	70.65
211.972	7.17
212.191	1.02
212.409	41.98
212.628	72.7
212.846	48.13
213.065	7.17
213.283	74.75
213.502	-29.7
213.72	25.6
213.938	17.41
214.157	23.55
214.375	60.42
214.594	21.5
214.812	-17.41
215.031	119.81
215.249	19.46
215.467	41.98
215.686	3.07
215.904	31.74
216.122	1.02
216.341	74.75
216.559	-64.51
216.778	58.37
216.996	87.04
217.214	-11.26
217.432	-15.36
217.651	27.65
217.869	74.75
218.087	-31.74
218.306	35.84
218.524	25.6
218.742	87.04
218.96	82.94
219.179	-3.07
219.397	41.98
219.615	97.28
219.833	19.46
220.051	-27.65
220.27	68.61
220.488	54.27
220.706	46.08
220.924	-1.02
221.142	44.03
221.36	7.17
221.578	-25.6
221.796	91.13
222.015	68.61
222.233	7.17
222.451	58.37
222.669	46.08
222.887	56.32
223.105	9.22
223.323	62.46
223.541	17.41
223.759	-31.74
223.977	39.94
224.195	15.36
224.413	11.26
224.631	78.85
224.849	87.04
225.067	39.94
225.285	-9.22
225.503	-1.02
225.721	-27.65
225.939	21.5
226.157	17.41
226.375	132.09
226.592	-1.02
226.81	25.6
227.028	23.55
227.246	37.89
227.464	54.27
227.682	-19.46
227.9	89.09
228.117	117.76
228.335	1.02
228.553	7.17
228.771	39.94
228.989	50.18
229.206	39.94
229.424	3.07
229.642	21.5
229.86	52.22
230.077	44.03
230.295	60.42
230.513	-17.41
230.731	9.22
230.948	74.75
231.166	70.65
231.384	23.55
231.601	50.18
231.819	144.38
232.037	-50.18
232.254	-13.31
232.472	-5.12
232.689	-25.6
232.907	91.13
233.125	66.56
233.342	-33.79
233.56	48.13
233.777	17.41
233.995	21.5
234.213	111.61
234.43	48.13
234.648	-7.17
234.865	-15.36
235.083	60.42
235.3	-25.6
235.518	19.46
235.735	25.6
235.953	17.41
236.17	5.12
236.388	48.13
236.605	70.65
236.822	-19.46
237.04	66.56
237.257	19.46
237.475	60.42
237.692	25.6
237.909	44.03
238.127	21.5
238.344	35.84
238.562	48.13
238.779	27.65
238.996	21.5
239.214	58.37
239.431	-19.46
239.648	23.55
239.865	48.13
240.083	78.85
240.3	-1.02
240.517	5.12
240.735	-1.02
240.952	3.07
241.169	21.5
241.386	-27.65
241.603	52.22
241.821	-23.55
242.038	66.56
242.255	-39.94
242.472	-1.02
242.689	-25.6
242.907	-15.36
243.124	5.12
243.341	25.6
243.558	31.74
243.775	72.7
243.992	39.94
244.209	3.07
244.426	17.41
244.643	11.26
244.86	-15.36
245.078	52.22
245.295	66.56
245.512	21.5
245.729	-19.46
245.946	52.22
246.163	-21.5
246.38	54.27
246.597	27.65
246.814	44.03
247.031	25.6
247.248	93.18
247.464	15.36
247.681	-15.36
247.898	-9.22
248.115	60.42
248.332	9.22
248.549	23.55
248.766	21.5
248.983	56.32
249.2	70.65
249.417	17.41
249.633	64.51
249.85	39.94
250.067	-7.17
250.284	66.56
250.501	50.18
250.717	66.56
250.934	9.22
251.151	39.94
251.368	11.26
251.585	128
251.801	9.22
252.018	-27.65
252.235	37.89
252.451	21.5
252.668	-13.31
252.885	87.04
253.102	46.08
253.318	29.7
253.535	-5.12
253.752	60.42
253.968	-78.85
254.185	44.03
254.401	37.89
254.618	60.42
254.835	-25.6
255.051	-9.22
255.268	35.84
255.484	-37.89
255.701	-48.13
255.917	37.89
256.134	21.5
256.351	56.32
256.567	21.5
256.784	52.22
257	-1.02
257.217	37.89
257.433	39.94
257.65	-11.26
257.866	25.6
258.082	78.85
258.299	74.75
258.515	60.42
258.732	54.27
258.948	21.5
259.165	39.94
259.381	11.26
259.597	39.94
259.814	35.84
260.03	62.46
260.246	39.94
260.463	50.18
260.679	123.9
260.895	37.89
261.112	48.13
261.328	21.5
261.544	-37.89
261.761	93.18
261.977	15.36
262.193	-17.41
262.409	64.51
262.626	58.37
262.842	50.18
263.058	-48.13
263.274	115.71
263.49	70.65
263.707	35.84
263.923	-48.13
264.139	17.41
264.355	78.85
264.571	70.65
264.787	35.84
265.004	84.99
265.22	-11.26
265.436	64.51
265.652	87.04
265.868	46.08
266.084	66.56
266.3	78.85
266.516	-27.65
266.732	107.52
266.948	41.98
267.164	93.18
267.38	78.85
267.596	33.79
267.812	87.04
268.028	105.47
268.244	41.98
268.46	64.51
268.676	17.41
268.892	50.18
269.108	13.31
269.324	60.42
269.54	27.65
269.756	87.04
269.972	35.84
270.188	39.94
270.403	44.03
270.619	1.02
270.835	-11.26
271.051	7.17
271.267	39.94
271.483	103.42
271.698	-23.55
271.914	31.74
272.13	19.46
272.346	103.42
272.562	-23.55
272.777	66.56
272.993	72.7
273.209	35.84
273.425	19.46
273.64	46.08
273.856	80.89
274.072	72.7
274.287	-46.08
274.503	101.37
274.719	5.12
274.934	60.42
275.15	21.5
275.366	-21.5
275.581	13.31
275.797	15.36
276.012	25.6
276.228	46.08
276.444	70.65
276.659	37.89
276.875	1.02
277.09	33.79
277.306	-15.36
277.521	-13.31
277.737	15.36
277.952	27.65
278.168	66.56
278.383	82.94
278.599	-19.46
278.814	39.94
279.03	52.22
279.245	89.09
279.461	11.26
279.676	41.98
279.892	39.94
280.107	7.17
280.322	23.55
280.538	21.5
280.753	31.74
280.969	87.04
281.184	9.22
281.399	-1.02
281.615	-23.55
281.83	21.5
282.045	-21.5
282.26	23.55
282.476	66.56
282.691	31.74
282.906	23.55
283.122	41.98
283.337	5.12
283.552	37.89
283.767	-11.26
283.983	37.89
284.198	-48.13
284.413	50.18
284.628	13.31
284.843	13.31
285.058	39.94
285.274	21.5
285.489	78.85
285.704	97.28
285.919	50.18
286.134	41.98
286.349	-9.22
286.564	9.22
286.779	68.61
286.995	-5.12
287.21	21.5
287.425	5.12
287.64	-25.6
287.855	54.27
288.07	-13.31
288.285	-39.94
288.5	-1.02
288.715	115.71
288.93	-3.07
289.145	66.56
289.36	60.42
289.575	29.7
289.79	76.8
290.004	-11.26
290.219	19.46
290.434	50.18
290.649	19.46
290.864	19.46
291.079	-3.07
291.294	-9.22
291.509	33.79
291.724	-5.12
291.938	-3.07
292.153	60.42
292.368	29.7
292.583	35.84
292.798	-23.55
293.012	80.89
293.227	101.37
293.442	48.13
293.657	-7.17
293.871	7.17
294.086	48.13
294.301	56.32
294.516	33.79
294.73	11.26
294.945	35.84
295.16	95.23
295.374	48.13
295.589	64.51
295.804	64.51
296.018	-3.07
296.233	54.27
296.447	25.6
296.662	1.02
296.877	80.89
297.091	44.03
297.306	46.08
297.52	37.89
297.735	60.42
297.949	54.27
298.164	7.17
298.378	-3.07
298.593	-66.56
298.807	29.7
299.022	70.65
299.236	19.46
299.451	74.75
299.665	37.89
299.88	62.46
300.094	41.98
300.309	80.89
300.523	76.8
300.737	50.18
300.952	25.6
301.166	62.46
301.381	9.22
301.595	29.7
301.809	82.94
302.024	50.18
302.238	21.5
302.452	72.7
302.667	5.12
302.881	105.47
303.095	62.46
303.309	52.22
303.524	-17.41
303.738	-39.94
303.952	27.65
304.166	56.32
304.381	25.6
304.595	68.61
304.809	-19.46
305.023	101.37
305.237	66.56
305.452	21.5
305.666	56.32
305.88	136.19
306.094	33.79
306.308	76.8
306.522	62.46
306.736	74.75
306.95	-44.03
307.164	-1.02
307.379	-13.31
307.593	-17.41
307.807	58.37
308.021	-29.7
308.235	1.02
308.449	15.36
308.663	-3.07
308.877	-19.46
309.091	-19.46
309.305	82.94
309.519	-3.07
309.733	41.98
309.947	5.12
310.161	58.37
310.374	84.99
310.588	107.52
310.802	-48.13
311.016	66.56
311.23	19.46
311.444	48.13
311.658	66.56
311.872	-15.36
312.085	23.55
312.299	60.42
312.513	87.04
312.727	44.03
312.941	31.74
313.154	58.37
313.368	17.41
313.582	15.36
313.796	3.07
314.009	66.56
314.223	21.5
314.437	140.29
314.651	52.22
314.864	17.41
315.078	87.04
315.292	-13.31
315.505	-3.07
315.719	52.22
315.933	58.37
316.146	27.65
316.36	13.31
316.573	70.65
316.787	99.33
317.001	72.7
317.214	62.46
317.428	15.36
317.641	74.75
317.855	-17.41
318.068	70.65
318.282	91.13
318.495	27.65
318.709	44.03
318.922	89.09
319.136	35.84
319.349	68.61
319.563	68.61
319.776	93.18
319.99	80.89
320.203	44.03
320.417	105.47
320.63	15.36
320.843	7.17
321.057	64.51
321.27	70.65
321.483	80.89
321.697	76.8
321.91	82.94
322.124	74.75
322.337	21.5
322.55	72.7
322.763	80.89
322.977	99.33
323.19	68.61
323.403	23.55
323.617	-17.41
323.83	84.99
324.043	-21.5
324.256	44.03
324.469	5.12
324.683	70.65
324.896	80.89
325.109	60.42
325.322	27.65
325.535	123.9
325.748	9.22
325.962	68.61
326.175	48.13
326.388	-41.98
326.601	23.55
326.814	-27.65
327.027	31.74
327.24	101.37
327.453	-19.46
327.666	82.94
327.879	64.51
328.092	78.85
328.305	-5.12
328.518	7.17
328.731	5.12
328.944	89.09
329.157	70.65
329.37	-23.55
329.583	76.8
329.796	27.65
330.009	-23.55
330.222	-3.07
330.435	19.46
330.648	48.13
330.861	15.36
331.073	60.42
331.286	66.56
331.499	5.12
331.712	23.55
331.925	-13.31
332.138	54.27
332.35	56.32
332.563	29.7
332.776	62.46
332.989	33.79
333.202	-9.22
333.414	11.26
333.627	31.74
333.84	87.04
334.053	25.6
334.265	48.13
334.478	50.18
334.691	37.89
334.903	-25.6
335.116	-3.07
335.329	35.84
335.541	46.08
335.754	91.13
335.966	-3.07
336.179	-11.26
336.392	50.18
336.604	111.61
336.817	-7.17
337.029	29.7
337.242	95.23
337.454	50.18
337.667	46.08
337.88	27.65
338.092	44.03
338.305	91.13
338.517	-11.26
338.729	84.99
338.942	27.65
339.154	48.13
339.367	48.13
339.579	17.41
339.792	37.89
340.004	97.28
340.217	7.17
340.429	91.13
340.641	60.42
340.854	54.27
341.066	44.03
341.278	-27.65
341.491	31.74
341.703	39.94
341.915	5.12
342.128	52.22
342.34	1.02
342.552	21.5
342.764	107.52
342.977	56.32
343.189	58.37
343.401	7.17
343.613	-11.26
343.826	-15.36
344.038	13.31
344.25	-7.17
344.462	33.79
344.674	50.18
344.886	37.89
345.099	31.74
345.311	-66.56
345.523	125.95
345.735	56.32
345.947	-41.98
346.159	25.6
346.371	66.56
346.583	27.65
346.795	39.94
347.007	-21.5
347.219	35.84
347.431	52.22
347.643	17.41
347.855	17.41
348.067	64.51
348.279	-31.74
348.491	70.65
348.703	52.22
348.915	103.42
349.127	17.41
349.339	82.94
349.551	-19.46
349.763	107.52
349.975	56.32
350.187	103.42
350.399	58.37
350.61	72.7
350.822	-50.18
351.034	78.85
351.246	107.52
351.458	89.09
351.669	17.41
351.881	44.03
352.093	89.09
352.305	13.31
352.517	109.57
352.728	50.18
352.94	54.27
353.152	99.33
353.363	37.89
353.575	97.28
353.787	54.27
353.999	5.12
354.21	56.32
354.422	56.32
354.633	56.32
354.845	44.03
355.057	37.89
355.268	48.13
355.48	35.84
355.692	54.27
355.903	9.22
356.115	-9.22
356.326	-11.26
356.538	95.23
356.749	97.28
356.961	93.18
357.172	48.13
357.384	115.71
357.595	60.42
357.807	50.18
358.018	50.18
358.23	48.13
358.441	130.05
358.653	84.99
358.864	-19.46
359.075	31.74
359.287	13.31
359.498	-41.98
359.709	23.55
359.921	27.65
360.132	39.94
360.344	64.51
360.555	91.13
360.766	87.04
360.977	13.31
361.189	84.99
361.4	50.18
361.611	60.42
361.823	66.56
362.034	37.89
362.245	-25.6
362.456	128
362.667	54.27
362.879	44.03
363.09	-29.7
363.301	78.85
363.512	46.08
363.723	39.94
363.935	-11.26
364.146	74.75
364.357	11.26
364.568	48.13
364.779	29.7
364.99	148.48
365.201	-35.84
365.412	111.61
365.623	111.61
365.834	56.32
366.045	84.99
366.256	68.61
366.467	146.43
366.678	48.13
366.889	62.46
367.1	74.75
367.311	74.75
367.522	39.94
367.733	103.42
367.944	60.42
368.155	66.56
368.366	52.22
368.577	99.33
368.788	-5.12
368.999	117.76
369.209	58.37
369.42	119.81
369.631	128
369.842	35.84
370.053	166.91
370.264	56.32
370.474	70.65
370.685	27.65
370.896	54.27
371.107	58.37
371.317	46.08
371.528	33.79
371.739	46.08
371.95	68.61
372.16	50.18
372.371	-21.5
372.582	89.09
372.792	66.56
373.003	109.57
373.214	39.94
373.424	3.07
373.635	46.08
373.846	93.18
374.056	21.5
374.267	27.65
374.477	41.98
374.688	31.74
374.898	84.99
375.109	39.94
375.319	113.66
375.53	146.43
375.74	70.65
375.951	-3.07
376.161	64.51
376.372	87.04
376.582	76.8
376.793	56.32
377.003	48.13
377.214	89.09
377.424	76.8
377.635	97.28
377.845	-1.02
378.055	37.89
378.266	50.18
378.476	82.94
378.686	62.46
378.897	113.66
379.107	48.13
379.317	37.89
379.528	68.61
379.738	91.13
379.948	3.07
380.158	37.89
380.369	68.61
380.579	115.71
380.789	9.22
380.999	76.8
381.21	48.13
381.42	50.18
381.63	-15.36
381.84	70.65
382.05	-7.17
382.261	179.2
382.471	21.5
382.681	19.46
382.891	62.46
383.101	56.32
383.311	70.65
383.521	3.07
383.731	52.22
383.941	107.52
384.151	115.71
384.361	21.5
384.571	87.04
384.781	66.56
384.991	156.67
385.201	46.08
385.411	50.18
385.621	107.52
385.831	35.84
386.041	123.9
386.251	25.6
386.461	84.99
386.671	56.32
386.881	66.56
387.091	91.13
387.301	89.09
387.511	70.65
387.72	35.84
387.93	95.23
388.14	3.07
388.35	39.94
388.56	177.15
388.769	52.22
388.979	185.34
389.189	46.08
389.399	25.6
389.609	140.29
389.818	134.14
390.028	48.13
390.238	54.27
390.447	121.85
390.657	136.19
390.867	66.56
391.076	13.31
391.286	39.94
391.496	25.6
391.705	33.79
391.915	27.65
392.125	89.09
392.334	23.55
392.544	107.52
392.753	41.98
392.963	27.65
393.172	37.89
393.382	15.36
393.591	125.95
393.801	101.37
394.01	68.61
394.22	93.18
394.429	134.14
394.639	31.74
394.848	76.8
395.058	125.95
395.267	91.13
395.477	130.05
395.686	156.67
395.895	78.85
396.105	54.27
396.314	33.79
396.524	103.42
396.733	166.91
396.942	113.66
397.152	87.04
397.361	144.38
397.57	105.47
397.78	171.01
397.989	91.13
398.198	134.14
398.407	164.86
398.617	107.52
398.826	72.7
399.035	-11.26
399.244	89.09
399.453	134.14
399.663	146.43
399.872	166.91
400.081	130.05
400.29	171.01
400.499	66.56
400.708	134.14
400.917	132.09
401.127	166.91
401.336	89.09
401.545	154.62
401.754	197.63
401.963	140.29
402.172	58.37
402.381	154.62
402.59	173.05
402.799	142.33
403.008	168.96
403.217	154.62
403.426	95.23
403.635	166.91
403.844	111.61
404.053	193.53
404.262	140.29
404.471	224.25
404.68	214.01
404.888	160.77
405.097	140.29
405.306	209.92
405.515	134.14
405.724	195.58
405.933	111.61
406.142	222.2
406.35	240.64
406.559	218.11
406.768	197.63
406.977	218.11
407.185	216.06
407.394	144.38
407.603	234.49
407.812	316.41
408.02	222.2
408.229	181.25
408.438	201.72
408.646	246.78
408.855	279.55
409.064	254.97
409.272	312.32
409.481	340.99
409.69	248.83
409.898	297.98
410.107	349.18
410.315	322.56
410.524	355.32
410.733	463.86
410.941	383.99
411.15	349.18
411.358	427
411.567	437.24
411.775	408.57
411.984	451.58
412.192	414.71
412.401	455.67
412.609	508.92
412.818	527.35
413.026	517.11
413.234	556.02
413.443	570.36
413.651	572.41
413.86	621.56
414.068	693.24
414.276	627.7
414.485	680.95
414.693	728.05
414.901	818.16
415.11	715.77
415.318	758.77
415.526	754.68
415.734	730.1
415.943	809.97
416.151	936.95
416.359	955.38
416.567	898.03
416.776	1014.77
416.984	990.19
417.192	1063.92
417.4	1053.68
417.608	1057.78
417.817	1090.54
418.025	1172.46
418.233	1342.44
418.441	1311.72
418.649	1303.53
418.857	1297.39
419.065	1401.83
419.273	1401.83
419.481	1422.31
419.689	1582.06
419.897	1563.62
420.105	1727.46
420.313	1623.02
420.521	1655.78
420.729	1776.61
420.937	1852.39
421.145	1891.3
421.353	1979.36
421.561	2012.13
421.769	2104.29
421.977	2237.41
422.185	2184.16
422.393	2360.28
422.601	2536.41
422.809	2393.05
423.017	2538.46
423.224	2644.95
423.432	2718.68
423.64	2640.86
423.848	2874.32
424.056	2839.51
424.263	3046.35
424.471	3075.03
424.679	3109.84
424.887	3326.93
425.094	3468.24
425.302	3451.85
425.51	3447.76
425.718	3791.81
425.925	3636.17
426.133	3976.13
426.341	4111.3
426.548	4168.64
426.756	4316.09
426.964	4441.02
427.171	4737.98
427.379	4592.57
427.586	4637.63
427.794	4744.12
428.001	5114.8
428.209	5327.79
428.417	5159.86
428.624	5518.25
428.832	5544.88
429.039	5559.21
429.247	5655.47
429.454	6278.05
429.662	6542.24
429.869	6212.51
430.076	6441.89
430.284	6312.86
430.491	6618.01
430.699	7087
430.906	7136.15
431.114	7017.36
431.321	7349.14
431.528	7551.88
431.736	7865.22
431.943	8221.57
432.15	8215.43
432.358	8207.23
432.565	8639.36
432.772	8604.54
432.979	9077.62
433.187	9276.27
433.394	9249.65
433.601	9765.74
433.808	10052.45
434.016	9909.1
434.223	10271.59
434.43	10922.84
434.637	10660.7
434.844	11307.86
435.052	11670.35
435.259	11510.61
435.466	11508.56
435.673	11475.79
435.88	12045.13
436.087	12825.4
436.294	12970.81
436.501	12546.88
436.708	12915.51
436.915	13378.36
437.122	13853.48
437.329	13730.61
437.537	14322.47
437.743	14304.04
437.95	14336.81
438.157	15074.07
438.364	15618.83
438.571	15512.34
438.778	15823.63
438.985	17330.94
439.192	16507.65
439.399	16710.4
439.606	16622.34
439.813	17554.16
440.02	18664.16
440.227	18168.55
440.433	17904.37
440.64	18596.58
440.847	18574.05
441.054	19262.17
441.261	20077.26
441.467	20093.65
441.674	20622.02
441.881	21011.14
442.088	21240.51
442.294	21021.38
442.501	21732.02
442.708	21858.99
442.914	22962.85
443.121	23743.13
443.328	23042.72
443.534	24906.37
443.741	24197.77
443.948	23949.97
444.154	25721.46
444.361	25361.02
444.568	25721.46
444.774	25537.15
444.981	25651.83
445.187	26636.91
445.394	27628.12
445.6	27458.14
445.807	30159.41
446.013	28844.62
446.22	29446.72
446.426	30552.62
446.633	30808.62
446.839	31730.2
447.046	30298.67
447.252	31961.62
447.459	32012.82
447.665	31703.58
447.871	33415.68
448.078	35119.59
448.284	32905.74
448.491	34245.11
448.697	35193.32
448.903	36221.4
449.11	36108.76
449.316	35404.26
449.522	36315.61
449.728	37153.23
449.935	37554.63
450.141	37206.47
450.347	38304.18
450.553	36872.65
450.76	37517.76
450.966	38836.66
451.172	38060.48
451.378	39035.31
451.584	38674.87
451.791	39420.33
451.997	39373.22
452.203	40126.88
452.409	39915.93
452.615	39578.02
452.821	38230.46
453.027	38128.06
453.233	39592.36
453.44	38281.66
453.646	38762.93
453.852	38916.53
454.058	39750.05
454.264	38179.26
454.47	39078.32
454.676	38160.83
454.882	39516.58
455.088	35981.79
455.294	36485.59
455.5	37304.77
455.705	37573.06
455.911	36153.82
456.117	35619.3
456.323	34998.76
456.529	32985.61
456.735	34621.94
456.941	33892.86
457.147	33108.49
457.352	31935
457.558	32213.52
457.764	31959.58
457.97	30974.5
458.176	30700.08
458.381	30700.08
458.587	29100.61
458.793	29354.56
458.999	27564.64
459.204	29481.53
459.41	28582.48
459.616	27032.16
459.821	26923.62
460.027	27034.21
460.233	26233.46
460.438	24976
460.644	25119.36
460.85	23960.21
461.055	23745.17
461.261	23648.92
461.466	21785.27
461.672	21097.15
461.878	22856.36
462.083	21416.63
462.289	20900.55
462.494	20454.09
462.7	19772.11
462.905	19180.25
463.111	19833.55
463.316	20089.55
463.522	19487.45
463.727	19348.18
463.932	19432.15
464.138	19251.93
464.343	19192.54
464.549	18606.82
464.754	19557.08
464.959	19335.9
465.165	18864.86
465.37	18350.82
465.575	17771.25
465.781	18414.31
465.986	18772.71
466.191	18072.3
466.397	17531.64
466.602	16804.61
466.807	17361.66
467.012	17371.89
467.218	17310.46
467.423	17005.31
467.628	17128.19
467.833	17916.65
468.038	17013.5
468.244	16620.29
468.449	17396.47
468.654	16728.83
468.859	16671.49
469.064	16808.7
469.269	15946.51
469.474	15915.79
469.679	16489.22
469.885	15606.55
470.09	16067.34
470.295	16071.43
470.5	15581.97
470.705	15928.08
470.91	15272.73
471.115	15242.01
471.32	15672.08
471.525	15299.35
471.73	14897.95
471.935	14957.34
472.139	14623.52
472.344	14478.12
472.549	14748.45
472.754	14314.28
472.959	14015.27
473.164	13521.71
473.369	13636.4
473.574	14084.91
473.778	14054.19
473.983	13716.27
474.188	13728.56
474.393	13083.45
474.598	13093.69
474.802	13048.63
475.007	12948.28
475.212	13155.13
475.417	12366.66
475.621	12385.09
475.826	12579.65
476.031	12323.65
476.235	11912.01
476.44	12122.95
476.645	11901.77
476.849	12079.94
477.054	11983.69
477.259	11766.6
477.463	11905.87
477.668	11334.48
477.872	11494.22
478.077	11361.11
478.282	11195.22
478.486	11146.07
478.691	10971.99
478.895	10820.44
479.1	10799.96
479.304	10904.41
479.509	10597.21
479.713	10656.61
479.918	10554.21
480.122	10412.9
480.326	10515.3
480.531	10560.35
480.735	10214.24
480.94	10130.28
481.144	10437.47
481.348	9939.82
481.553	10115.94
481.757	10011.5
481.961	10050.41
482.166	10193.76
482.37	10167.14
482.574	10031.97
482.778	9804.65
482.983	10240.87
483.187	10099.56
483.391	10181.48
483.595	10019.69
483.8	9927.53
484.004	10001.26
484.208	9872.23
484.412	10009.45
484.616	10056.55
484.821	9986.92
485.025	9755.5
485.229	9839.47
485.433	9929.58
485.637	9972.58
485.841	9974.63
486.045	9913.19
486.249	9878.38
486.453	9872.23
486.657	9778.03
486.861	9872.23
487.065	9788.27
487.269	9771.88
487.473	9712.49
487.677	9943.91
487.881	9999.21
488.085	9956.2
488.289	10165.09
488.493	9937.77
488.697	10048.36
488.901	9943.91
489.105	10183.52
489.309	10025.83
489.512	10298.21
489.716	10027.88
489.92	10173.28
490.124	10095.46
490.328	10279.78
490.531	10189.67
490.735	10220.39
490.939	10214.24
491.143	10281.83
491.346	10304.35
491.55	10330.98
491.754	10339.17
491.958	10496.86
492.161	10410.85
492.365	10468.19
492.569	10455.9
492.772	10601.31
492.976	10701.66
493.18	10627.93
493.383	10859.35
493.587	10902.36
493.79	10924.89
493.994	10818.39
494.197	10996.57
494.401	10971.99
494.605	10971.99
494.808	11223.89
495.012	11146.07
495.215	11314
495.419	11346.77
495.622	11340.63
495.825	11678.54
496.029	11438.93
496.232	11928.39
496.436	11629.39
496.639	12061.51
496.843	12036.94
497.046	12188.49
497.249	12397.38
497.453	12147.53
497.656	12532.54
497.859	12538.69
498.063	12544.83
498.266	12710.72
498.469	12636.99
498.673	13062.97
498.876	13112.12
499.079	13450.03
499.282	13298.49
499.485	13552.43
499.689	13585.2
499.892	13855.53
500.095	13765.42
500.298	14261.03
500.501	13835.05
500.705	14439.2
500.908	14551.84
501.111	14625.57
501.314	14902.04
501.517	15004.44
501.72	15229.72
501.923	15266.58
502.126	15436.56
502.329	15624.98
502.532	15893.26
502.735	15923.98
502.938	16290.57
503.141	16165.64
503.344	16413.45
503.547	16601.86
503.75	16964.35
503.953	16972.54
504.156	17222.39
504.359	17562.36
504.562	17386.23
504.765	17902.32
504.968	17765.1
505.17	17769.2
505.373	18201.32
505.576	18588.39
505.779	18639.59
505.982	18643.68
506.185	19024.61
506.387	19245.79
506.59	19522.26
506.793	19796.69
506.996	19686.1
507.198	20320.97
507.401	20146.89
507.604	20304.59
507.807	21037.76
508.009	20732.61
508.212	20914.88
508.415	21285.56
508.617	21502.65
508.82	21383.87
509.022	21607.09
509.225	22241.96
509.428	22086.32
509.63	22598.31
509.833	22731.43
510.035	22887.07
510.238	23229.09
510.44	23397.02
510.643	23511.71
510.845	23861.91
511.048	23700.12
511.25	24066.7
511.453	24144.53
511.655	25174.66
511.858	24738.44
512.06	24994.43
512.262	25602.68
512.465	25172.61
512.667	25608.83
512.87	25778.81
513.072	25875.06
513.274	26671.72
513.477	26548.84
513.679	26813.03
513.881	27105.89
514.084	27400.8
514.286	27482.72
514.488	27406.94
514.69	27931.22
514.893	28123.73
515.095	28338.77
515.297	28607.05
515.499	29104.71
515.701	29014.6
515.904	29610.56
516.106	29405.76
516.308	29737.53
516.51	30087.73
516.712	30294.58
516.914	30378.54
517.116	31275.55
517.318	30945.83
517.52	31322.66
517.722	31246.88
517.925	31902.23
518.127	32358.93
518.329	32645.65
518.531	32244.24
518.733	32909.83
518.935	33638.91
519.136	33077.77
519.338	34003.45
519.54	34132.47
519.742	34222.58
519.944	34540.02
520.146	34748.91
520.348	35244.52
520.55	35170.79
520.752	35328.48
520.954	35820
521.155	35639.78
521.357	36327.89
521.559	36452.82
521.761	37091.79
521.963	36932.04
522.164	36782.54
522.366	37392.84
522.568	37677.51
522.77	37763.52
522.971	38324.66
523.173	38091.19
523.375	38689.2
523.576	38259.13
523.778	38545.84
523.98	39485.86
524.181	39403.94
524.383	39246.25
524.584	39535.01
524.786	39831.97
524.988	39596.45
525.189	39766.43
525.391	40581.52
525.592	40532.37
525.794	40855.95
525.995	41030.03
526.197	40716.69
526.398	40669.59
526.6	41482.63
526.801	41488.77
527.003	41671.04
527.204	41628.04
527.406	42033.53
527.607	41931.14
527.808	42328.44
528.01	42226.04
528.211	41900.42
528.412	42891.63
528.614	42764.66
528.815	42455.42
529.016	43247.98
529.218	42805.62
529.419	43063.66
529.62	42899.83
529.822	43078
530.023	43487.59
530.224	43348.33
530.425	43571.56
530.626	43186.54
530.828	42805.62
531.029	44011.87
531.23	43684.2
531.431	43616.61
531.632	43862.37
531.833	43934.05
532.035	43733.35
532.236	43637.09
532.437	44183.9
532.638	43876.71
532.839	43743.59
533.04	44226.91
533.241	43739.49
533.442	44513.62
533.643	44210.53
533.844	44312.92
534.045	44073.31
534.246	43858.27
534.447	44161.37
534.648	43843.94
534.849	44077.41
535.05	44093.79
535.251	44427.61
535.451	44382.55
535.652	44525.91
535.853	44460.38
536.054	44468.57
536.255	44530.01
536.456	44181.85
536.657	45164.88
536.857	44177.76
537.058	43985.25
537.259	44546.39
537.46	44794.2
537.66	44233.05
537.861	44433.75
538.062	44269.92
538.263	44214.62
538.463	44190.05
538.664	44185.95
538.865	44306.78
539.065	44861.78
539.266	44241.24
539.466	44757.33
539.667	43868.51
539.868	44804.44
540.068	44278.11
540.269	44435.8
540.469	44458.33
540.67	44521.82
540.87	44271.96
541.071	44241.24
541.271	44374.36
541.472	44708.18
541.672	44091.74
541.873	44089.7
542.073	43368.81
542.274	44605.78
542.474	44327.26
542.675	44104.03
542.875	44398.94
543.075	43942.24
543.276	43739.49
543.476	44411.23
543.676	44124.51
543.877	44128.61
544.077	44179.81
544.277	43929.95
544.478	43850.08
544.678	44333.4
544.878	43975.01
545.078	44284.25
545.279	43954.53
545.479	43620.71
545.679	44259.68
545.879	43882.85
546.079	43938.15
546.28	43882.85
546.48	43630.95
546.68	44132.7
546.88	44009.82
547.08	44093.79
547.28	44181.85
547.48	43432.3
547.68	43983.2
547.88	43354.47
548.081	43813.22
548.281	43921.76
548.481	43870.56
548.681	44032.35
548.881	44077.41
549.081	43434.35
549.28	43710.82
549.48	43858.27
549.68	43522.41
549.88	44419.42
550.08	43536.74
550.28	43645.29
550.48	43960.67
550.68	44018.02
550.88	43729.25
551.08	43503.98
551.279	43833.7
551.479	43229.55
551.679	43696.49
551.879	43706.73
552.079	43780.45
552.278	43403.63
552.478	43456.87
552.678	43620.71
552.878	44061.02
553.077	43207.02
553.277	43370.86
553.477	44032.35
553.676	43958.63
553.876	43706.73
554.076	43420.01
554.275	43092.33
554.475	43067.76
554.674	43223.4
554.874	43116.91
555.074	43473.26
555.273	43194.73
555.473	43592.04
555.672	43356.52
555.872	43032.94
556.071	42891.63
556.271	43385.19
556.47	42869.11
556.67	42666.36
556.869	42703.22
557.068	42772.85
557.268	42819.95
557.467	42938.74
557.667	42477.94
557.866	42531.19
558.065	42443.13
558.265	42688.88
558.464	42215.8
558.663	42750.32
558.863	42019.2
559.062	42566.01
559.261	42240.38
559.461	42725.75
559.66	42172.8
559.859	42047.87
560.058	41847.17
560.258	42187.13
560.457	41918.85
560.656	41830.79
560.855	41918.85
561.054	42316.15
561.253	41415.05
561.453	41834.88
561.652	41759.11
561.851	41826.69
562.05	41542.02
562.249	41333.13
562.448	41662.85
562.647	41468.3
562.846	40876.43
563.045	41236.87
563.244	40700.31
563.443	41580.93
563.642	40974.73
563.841	41263.5
564.04	40454.55
564.239	40886.67
564.438	40583.57
564.637	40579.48
564.836	40993.17
565.035	40548.76
565.234	40710.55
565.432	40503.7
565.631	40374.68
565.83	40212.89
566.029	40153.5
566.228	40259.99
566.427	39786.91
566.625	39516.58
566.824	39573.92
567.023	39987.61
567.222	39125.42
567.42	39729.57
567.619	39782.82
567.818	39414.18
568.016	39504.29
568.215	39887.26
568.414	39045.55
568.612	39764.39
568.811	39336.36
569.01	39182.76
569.208	38742.45
569.407	38973.87
569.605	38640.05
569.804	39139.75
570.002	38764.98
570.201	38506.93
570.4	38279.61
570.598	38179.26
570.797	37913.02
570.995	38521.27
571.193	37822.91
571.392	38414.77
571.59	37511.62
571.789	37650.88
571.987	37853.63
572.186	37489.09
572.384	37847.49
572.582	37824.96
572.781	37591.49
572.979	37417.41
573.177	37128.65
573.376	37460.42
573.574	37120.46
573.772	37046.73
573.971	37077.45
574.169	36870.61
574.367	36645.33
574.565	36837.84
574.763	36661.71
574.962	36637.14
575.16	36012.51
575.358	36651.47
575.556	35895.77
575.754	36596.18
575.952	35633.63
576.151	36170.2
576.349	35596.77
576.547	35809.76
576.745	35602.91
576.943	35559.91
577.141	35545.57
577.339	35711.46
577.537	35117.54
577.735	35211.75
577.933	35054.06
578.131	35494.37
578.329	35355.11
578.527	34640.37
578.725	34910.7
578.923	35195.37
579.121	34468.34
579.319	34185.72
579.516	34628.08
579.714	34591.22
579.912	34484.72
580.11	34150.9
580.308	34511.35
580.506	34275.83
580.704	33538.56
580.901	33894.91
581.099	34195.96
581.297	33769.98
581.495	33597.95
581.692	33788.41
581.89	33331.72
582.088	33458.69
582.285	33493.5
582.483	33188.36
582.681	33405.44
582.878	33202.69
583.076	32725.52
583.274	33434.11
583.471	32500.24
583.669	32930.31
583.866	32688.65
584.064	32977.42
584.262	32328.21
584.459	32782.86
584.657	32147.99
584.854	32541.2
585.052	31756.83
585.249	32113.17
585.447	32483.86
585.644	32000.54
585.841	31676.96
586.039	32281.11
586.236	31658.52
586.434	31306.27
586.631	31261.22
586.828	31353.38
587.026	31324.71
587.223	31175.2
587.42	31158.82
587.618	30968.36
587.815	30878.25
588.012	30917.16
588.21	30630.44
588.407	31023.65
588.604	30640.68
588.801	30530.09
588.999	30263.86
589.196	30403.12
589.393	30620.2
589.59	29870.65
589.787	30116.4
589.984	29686.33
590.182	29667.9
590.379	30347.82
590.576	29784.63
590.773	29497.92
590.97	29153.86
591.167	29583.93
591.364	29291.07
591.561	29506.11
591.758	29274.69
591.955	29305.41
592.152	29274.69
592.349	29092.42
592.546	28615.24
592.743	29262.4
592.94	28637.77
593.137	29018.69
593.334	28871.24
593.531	28512.84
593.727	28961.35
593.924	28201.55
594.121	28336.72
594.318	28404.3
594.515	27841.11
594.712	28387.92
594.908	28228.18
595.105	28379.73
595.302	27974.23
595.499	28090.96
595.696	28000.85
595.892	27607.64
596.089	27822.68
596.286	27472.48
596.482	27241.06
596.679	27271.78
596.876	27943.51
597.072	27165.28
597.269	26999.4
597.466	26718.82
597.662	26888.81
597.859	26759.78
598.055	26745.45
598.252	26665.58
598.448	26524.27
598.645	26292.85
598.841	26630.76
599.038	26415.72
599.234	26509.93
599.431	25942.64
599.627	26145.39
599.824	26352.24
600.02	25862.77
600.217	25836.15
600.413	25864.82
600.609	25571.96
600.806	25805.43
601.002	25528.95
601.198	25383.55
601.395	25774.71
601.591	25242.24
601.787	25569.91
601.984	25195.14
602.18	25520.76
602.376	25236.09
602.572	24900.23
602.769	25268.86
602.965	24609.42
603.161	24894.08
603.357	24431.24
603.553	24576.65
603.75	24642.18
603.946	24484.49
604.142	24435.34
604.338	24099.47
604.534	24277.65
604.73	23968.4
604.926	24171.15
605.122	24167.06
605.318	23823
605.514	23650.97
605.71	23823
605.906	23825.04
606.102	23693.97
606.298	23970.45
606.494	23374.49
606.69	23915.16
606.886	23483.03
607.082	23186.08
607.278	23689.88
607.474	22829.73
607.67	23401.11
607.866	22850.21
608.062	23458.46
608.257	22882.98
608.453	23163.55
608.649	22919.84
608.845	23048.86
609.041	23098.02
609.236	23102.11
609.432	22520.49
609.628	22690.47
609.824	22526.63
610.019	22799.01
610.215	22624.93
610.411	22641.32
610.606	22452.91
610.802	22248.11
610.998	22669.99
611.193	22325.93
611.389	22254.25
611.584	22442.67
611.78	22170.29
611.976	21981.87
612.171	21924.53
612.367	21938.87
612.562	21758.64
612.758	21785.27
612.953	21564.09
613.149	22123.18
613.344	21654.2
613.539	22084.27
613.735	21648.05
613.93	21856.95
614.126	21514.94
614.321	21879.47
614.517	21711.54
614.712	21519.03
614.907	21420.73
615.103	21772.98
615.298	21385.91
615.493	21775.03
615.688	21285.56
615.884	21385.91
616.079	21211.84
616.274	21303.99
616.47	21138.11
616.665	21265.08
616.86	21148.35
617.055	20945.6
617.25	21166.78
617.445	21127.87
617.641	20480.71
617.836	20783.81
618.031	20372.17
618.226	20751.04
618.421	20800.19
618.616	20857.54
618.811	20306.63
619.006	20656.84
619.201	19993.29
619.396	20447.94
619.591	20349.64
619.786	20187.85
619.981	20116.17
620.176	20196.04
620.371	19727.06
620.566	19931.86
620.761	19589.85
620.956	19772.11
621.151	19428.06
621.346	19739.35
621.541	19081.95
621.735	19563.22
621.93	19112.67
622.125	19278.55
622.32	18905.82
622.515	18717.41
622.709	18639.59
622.904	18924.26
623.099	18479.85
623.294	18715.36
623.488	18572
623.683	18223.85
623.878	18283.24
624.072	18137.84
624.267	18098.92
624.462	17832.69
624.656	17912.56
624.851	17863.41
625.046	17953.52
625.24	17634.03
625.435	17769.2
625.629	17455.86
625.824	17187.58
626.018	17279.74
626.213	17107.71
626.407	17275.64
626.602	16708.35
626.796	17021.69
626.991	16947.97
627.185	16780.03
627.38	16718.59
627.574	16579.33
627.768	16460.55
627.963	16444.17
628.157	16241.42
628.352	16253.7
628.546	16098.06
628.74	16136.97
628.935	15754
629.129	16184.07
629.323	15549.2
629.517	15690.51
629.712	15450.9
629.906	15391.51
630.1	15379.22
630.294	15579.92
630.489	15149.85
630.683	15213.34
630.877	15145.75
631.071	15055.64
631.265	15112.99
631.459	14943
631.653	14785.31
631.848	14854.94
632.042	14629.66
632.236	14711.58
632.43	14437.16
632.624	14443.3
632.818	14381.86
633.012	14304.04
633.206	14115.62
633.4	14301.99
633.594	13947.69
633.788	14093.1
633.982	14054.19
634.176	13826.86
634.369	13654.83
634.563	13736.75
634.757	13765.42
634.951	13558.58
635.145	13441.84
635.339	13390.64
635.533	13407.03
635.726	13388.6
635.92	13189.94
636.114	13130.55
636.308	13191.99
636.501	13224.76
636.695	13058.87
636.889	12935.99
637.083	12905.28
637.276	12827.45
637.47	12772.16
637.664	12651.33
637.857	12673.85
638.051	12454.72
638.244	12407.62
638.438	12376.9
638.632	12266.31
638.825	12405.57
639.019	12270.4
639.212	11965.26
639.406	12211.01
639.599	12153.67
639.793	12043.08
639.986	11877.19
640.18	11924.3
640.373	11852.62
640.567	11735.88
640.76	11531.09
640.954	11494.22
641.147	11596.62
641.34	11510.61
641.534	11565.9
641.727	11240.28
641.92	11400.02
642.114	11203.41
642.307	11283.28
642.5	11086.68
642.694	10718.04
642.887	11012.95
643.08	10945.37
643.273	11215.7
643.467	10867.55
643.66	10566.49
643.853	10703.71
644.046	10638.17
644.239	10527.58
644.432	10701.66
644.626	10505.06
644.819	10441.57
645.012	10476.38
645.205	10398.56
645.398	10005.35
645.591	10290.02
645.784	10224.48
645.977	10109.8
646.17	10005.35
646.363	9907.05
646.556	9790.31
646.749	9782.12
646.942	9837.42
647.135	9773.93
647.328	9659.24
647.521	9651.05
647.714	9333.62
647.907	9544.56
648.099	9411.44
648.292	9507.69
648.485	9483.12
648.678	9094.01
648.871	9091.96
649.064	9167.73
649.256	9292.66
649.449	9085.81
649.642	9167.73
649.835	9159.54
650.027	8967.03
650.22	8893.3
650.413	8938.36
650.605	8747.9
650.798	8835.96
650.991	8690.56
651.183	8764.28
651.376	8641.4
651.568	8573.82
651.761	8680.32
651.954	8692.6
652.146	8569.73
652.339	8426.37
652.531	8399.74
652.724	8506.24
652.916	8102.79
653.109	8270.72
653.301	8373.12
653.494	8268.67
653.686	8102.79
653.879	8123.27
654.071	8090.5
654.263	8096.64
654.456	8063.88
654.648	7902.09
654.84	7953.29
655.033	7848.84
655.225	7961.48
655.417	7803.78
655.61	7889.8
655.802	7848.84
655.994	7719.82
656.186	7709.58
656.379	7642
656.571	7691.15
656.763	7525.26
656.955	7312.27
657.148	7429.01
657.34	7523.21
657.532	7408.53
657.724	7422.86
657.916	7312.27
658.108	7365.52
658.3	7244.69
658.492	7228.31
658.684	7107.48
658.876	7066.52
659.068	7076.76
659.26	6945.69
659.452	7013.27
659.644	6964.12
659.836	6949.78
660.028	6839.19
660.22	6648.73
660.412	6867.86
660.604	6677.4
660.796	6839.19
660.988	6880.15
661.18	6683.55
661.372	6642.59
661.563	6589.34
661.755	6378.4
661.947	6517.66
662.139	6452.13
662.331	6556.57
662.522	6435.74
662.714	6357.92
662.906	6286.24
663.097	6296.48
663.289	6290.34
663.481	6368.16
663.673	6355.87
663.864	6159.27
664.056	6140.83
664.247	6364.06
664.439	5946.28
664.631	5993.38
664.822	6132.64
665.014	6011.81
665.205	6120.35
665.397	6065.06
665.588	6046.63
665.78	5837.73
665.971	5909.41
666.163	5841.83
666.354	6011.81
666.546	5725.1
666.737	5729.19
666.929	5641.13
667.12	5591.98
667.311	5686.19
667.503	5634.99
667.694	5684.14
667.885	5725.1
668.077	5667.75
668.268	5512.11
668.459	5563.31
668.651	5551.02
668.842	5424.05
669.033	5587.88
669.224	5381.04
669.416	5581.74
669.607	5370.8
669.798	5372.85
669.989	5497.77
670.18	5395.37
670.371	5313.45
670.563	5297.07
670.754	5213.1
670.945	5252.02
671.136	5188.53
671.327	5217.2
671.518	5405.61
671.709	5254.06
671.9	5215.15
672.091	5139.38
672.282	5174.19
672.473	5235.63
672.664	5116.85
672.855	5075.89
673.046	4993.97
673.237	5075.89
673.428	4805.56
673.619	5090.23
673.809	5020.6
674	4934.58
674.191	4977.59
674.382	4793.27
674.573	4993.97
674.764	4815.8
674.954	4985.78
675.145	4805.56
675.336	4686.78
675.527	4854.71
675.717	4850.61
675.908	4746.17
676.099	4871.09
676.289	4772.79
676.48	4774.84
676.671	4742.07
676.861	4903.86
677.052	4721.59
677.243	4617.15
677.433	4621.24
677.624	4723.64
677.814	4582.33
678.005	4625.34
678.195	4557.75
678.386	4533.18
678.576	4520.89
678.767	4623.29
678.957	4586.43
679.148	4531.13
679.338	4613.05
679.529	4559.8
679.719	4547.51
679.909	4518.84
680.1	4410.3
680.29	4424.64
680.481	4330.43
680.671	4520.89
680.861	4369.34
681.052	4281.28
681.242	4352.96
681.432	4408.25
681.622	4463.55
681.813	4391.87
682.003	4365.25
682.193	4395.96
682.383	4355.01
682.573	4455.36
682.764	4266.94
682.954	4277.18
683.144	4355.01
683.334	4228.03
683.524	4123.59
683.714	4271.04
683.904	4264.89
684.094	4340.67
684.284	4264.89
684.474	4266.94
684.664	4250.56
684.854	4232.13
685.044	4191.17
685.234	4039.62
685.424	4131.78
685.614	4133.82
685.804	4166.59
685.994	4213.7
686.184	3947.46
686.374	4043.71
686.564	4004.8
686.753	4152.26
686.943	4058.05
687.133	3951.56
687.323	3881.92
687.513	3976.13
687.702	3834.82
687.892	3886.02
688.082	3849.16
688.272	3912.64
688.461	3980.23
688.651	3978.18
688.841	3767.24
689.03	3777.48
689.22	3757
689.41	3845.06
689.599	3644.36
689.789	3695.56
689.979	3693.51
690.168	3900.36
690.358	3726.28
690.547	3720.14
690.737	3642.31
690.926	3699.66
691.116	3490.76
691.305	3699.66
691.495	3462.09
691.684	3560.39
691.874	3544.01
692.063	3574.73
692.252	3599.31
692.442	3392.46
692.631	3533.77
692.82	3408.84
693.01	3447.76
693.199	3488.71
693.388	3408.84
693.578	3308.49
693.767	3359.69
693.956	3474.38
694.146	3343.31
694.335	3388.36
694.524	3365.84
694.713	3281.87
694.902	3363.79
695.092	3394.51
695.281	3425.23
695.47	3345.36
695.659	3226.57
695.848	3265.49
696.037	3285.97
696.226	3234.77
696.415	3318.73
696.604	3269.58
696.793	3189.71
696.982	3296.21
697.171	3191.76
697.36	3216.33
697.549	3038.16
697.738	3197.9
697.927	3122.13
698.116	3183.57
698.305	2986.96
698.494	3277.77
698.683	3118.03
698.872	3161.04
699.061	3120.08
699.25	3199.95
699.438	3089.36
699.627	3085.26
699.816	3204.05
700.005	3075.03
700.193	3224.53
700.382	3062.74
700.571	3027.92
700.76	3085.26
700.948	3140.56
701.137	3044.31
701.326	3167.18
701.514	3070.93
701.703	3204.05
701.892	3095.5
702.08	3132.37
702.269	3023.83
702.457	3021.78
702.646	3136.46
702.834	2999.25
703.023	3021.78
703.212	3044.31
703.4	3101.65
703.589	2821.08
703.777	3046.35
703.965	3062.74
704.154	2989.01
704.342	2960.34
704.531	3091.41
704.719	2997.2
704.907	3099.6
705.096	2943.96
705.284	3015.63
705.472	3083.22
705.661	2935.76
705.849	3124.18
706.037	2964.43
706.226	2925.52
706.414	2935.76
706.602	2980.82
706.79	2917.33
706.979	2888.66
707.167	3091.41
707.355	2821.08
707.543	3046.35
707.731	3068.88
707.919	3070.93
708.107	2894.8
708.296	3034.07
708.484	2847.7
708.672	2937.81
708.86	2835.41
709.048	2823.12
709.236	2952.15
709.424	2997.2
709.612	2960.34
709.8	2874.32
709.988	2804.69
710.176	2864.08
710.364	2925.52
710.551	2853.84
710.739	2907.09
710.927	2831.32
711.115	2837.46
711.303	2925.52
711.491	2956.24
711.679	3011.54
711.866	2827.22
712.054	2931.67
712.242	2859.99
712.43	2939.86
712.617	2886.61
712.805	2941.91
712.993	2888.66
713.181	2857.94
713.368	2892.76
713.556	2952.15
713.744	2872.28
713.931	2982.87
714.119	2913.24
714.306	2884.56
714.494	2806.74
714.682	2792.41
714.869	2859.99
715.057	2900.95
715.244	2819.03
715.432	2888.66
715.619	2997.2
715.807	2888.66
715.994	2833.36
716.182	2888.66
716.369	2921.43
716.556	2937.81
716.744	2927.57
716.931	2859.99
717.119	2886.61
717.306	2847.7
717.493	2898.9
717.681	2921.43
717.868	2769.88
718.055	2814.93
718.242	2892.76
718.43	2868.18
718.617	2804.69
718.804	2798.55
718.991	2816.98
719.179	2898.9
719.366	2907.09
719.553	2843.6
719.74	2913.24
719.927	2970.58
720.114	2849.75
720.301	2872.28
720.488	2892.76
720.676	2796.5
720.863	2790.36
721.05	2882.52
721.237	2903
721.424	2894.8
721.611	2984.91
721.798	2915.28
721.985	2735.06
722.172	2997.2
722.358	2964.43
722.545	2911.19
722.732	2935.76
722.919	2849.75
723.106	2862.04
723.293	2816.98
723.48	2937.81
723.667	2866.13
723.853	2884.56
724.04	2880.47
724.227	2808.79
724.414	2802.65
724.6	2837.46
724.787	2812.89
724.974	2816.98
725.161	2892.76
725.347	2900.95
725.534	2868.18
725.72	2692.05
725.907	2819.03
726.094	2878.42
726.28	2823.12
726.467	2898.9
726.653	2798.55
726.84	2782.17
727.027	2788.31
727.213	2825.17
727.4	2718.68
727.586	2841.56
727.773	2806.74
727.959	2821.08
728.145	2913.24
728.332	2784.21
728.518	2804.69
728.705	2806.74
728.891	2866.13
729.077	2685.91
729.264	2773.97
729.45	2806.74
729.636	2753.49
729.823	2763.73
730.009	2749.4
730.195	3001.3
730.382	2841.56
730.568	2821.08
730.754	2939.86
730.94	2909.14
731.126	2800.6
731.313	2812.89
731.499	2816.98
731.685	2726.87
731.871	2796.5
732.057	2743.25
732.243	2790.36
732.429	2747.35
732.615	2876.37
732.801	2939.86
732.987	2913.24
733.173	2714.58
733.359	2710.49
733.545	2806.74
733.731	2794.45
733.917	2720.73
734.103	2698.2
734.289	2907.09
734.475	2679.77
734.661	2864.08
734.847	2733.01
735.033	2837.46
735.219	2683.86
735.404	2622.42
735.59	2761.69
735.776	2573.27
735.962	2814.93
736.148	2769.88
736.333	2716.63
736.519	2747.35
736.705	2755.54
736.89	2776.02
737.076	2704.34
737.262	2624.47
737.447	2685.91
737.633	2593.75
737.819	2782.17
738.004	2649.05
738.19	2698.2
738.375	2640.86
738.561	2681.82
738.747	2632.66
738.932	2581.46
739.118	2624.47
739.303	2608.09
739.489	2528.22
739.674	2603.99
739.859	2614.23
740.045	2483.16
740.23	2640.86
740.416	2505.69
740.601	2515.93
740.786	2534.36
740.972	2364.38
741.157	2618.33
741.342	2395.1
741.528	2513.88
741.713	2483.16
741.898	2450.39
742.084	2503.64
742.269	2616.28
742.454	2452.44
742.639	2505.69
742.824	2388.96
743.01	2556.89
743.195	2567.13
743.38	2442.2
743.565	2380.76
743.75	2509.79
743.935	2434.01
744.12	2429.91
744.305	2364.38
744.49	2438.11
744.675	2358.24
744.86	2421.72
745.045	2345.95
745.23	2288.61
745.415	2186.21
745.6	2378.72
745.785	2171.87
745.97	2458.59
746.155	2204.64
746.34	2212.83
746.525	2200.54
746.71	2253.79
746.895	2251.74
747.079	2128.86
747.264	2132.96
747.449	2137.06
747.634	2216.93
747.819	2063.33
748.003	2102.24
748.188	2145.25
748.373	2128.86
748.557	2151.39
748.742	1975.27
748.927	2122.72
749.111	2106.34
749.296	2096.1
749.481	2057.18
749.665	2024.42
749.85	2061.28
750.034	2010.08
750.219	2020.32
750.404	1858.53
750.588	1930.21
750.773	1942.5
750.957	1958.88
751.141	1991.65
751.326	1848.29
751.51	1897.44
751.695	1928.16
751.879	1856.48
752.064	1817.57
752.248	1836
752.432	1870.82
752.617	1889.25
752.801	1815.52
752.985	1778.66
753.17	1917.92
753.354	1813.48
753.538	1692.65
753.722	1786.85
753.907	1729.51
754.091	1690.6
754.275	1733.61
754.459	1639.4
754.643	1666.02
754.828	1639.4
755.012	1647.59
755.196	1541.1
755.38	1600.49
755.564	1721.32
755.748	1663.97
755.932	1606.63
756.116	1582.06
756.3	1487.85
756.484	1647.59
756.668	1580.01
756.852	1506.28
757.036	1518.57
757.22	1537
757.404	1471.47
757.588	1483.75
757.772	1629.16
757.956	1557.48
758.14	1522.66
758.323	1446.89
758.507	1557.48
758.691	1432.55
758.875	1481.71
759.059	1332.2
759.242	1356.78
759.426	1403.88
759.61	1407.98
759.794	1430.51
759.977	1461.23
760.161	1522.66
760.345	1475.56
760.528	1450.99
760.712	1383.4
760.895	1293.29
761.079	1309.68
761.263	1199.09
761.446	1305.58
761.63	1219.57
761.813	1278.96
761.997	1309.68
762.18	1270.76
762.364	1283.05
762.547	1227.76
762.731	1203.18
762.914	1301.48
763.098	1276.91
763.281	1252.33
763.464	1270.76
763.648	1326.06
763.831	1199.09
764.015	1182.7
764.198	1264.62
764.381	1240.05
764.564	1272.81
764.748	1219.57
764.931	1180.65
765.114	1170.41
765.297	1090.54
765.481	1154.03
765.664	1229.81
765.847	1188.85
766.03	1139.69
766.213	1209.33
766.397	1221.61
766.58	1113.07
766.763	1141.74
766.946	1033.2
767.129	1190.89
767.312	1178.61
767.495	1094.64
767.678	1065.97
767.861	1188.85
768.044	1182.7
768.227	1096.69
768.41	1108.98
768.593	1113.07
768.776	1090.54
768.959	1061.87
769.142	1160.17
769.324	1180.65
769.507	1092.59
769.69	916.47
769.873	1008.62
770.056	1078.26
770.239	1072.11
770.421	965.62
770.604	1025.01
770.787	906.23
770.97	1016.82
771.152	1059.82
771.335	1008.62
771.518	1000.43
771.7	914.42
771.883	1027.06
772.066	889.84
772.248	1016.82
772.431	947.19
772.613	941.04
772.796	934.9
772.978	957.43
773.161	961.52
773.343	963.57
773.526	895.99
773.708	918.51
773.891	973.81
774.073	918.51
774.256	904.18
774.438	955.38
774.621	934.9
774.803	879.6
774.985	871.41
775.168	938.99
775.35	855.03
775.532	865.27
775.715	871.41
775.897	855.03
776.079	900.08
776.261	924.66
776.444	769.01
776.626	773.11
776.808	732.15
776.99	834.55
777.173	857.07
777.355	807.92
777.537	777.2
777.719	838.64
777.901	717.81
778.083	764.92
778.265	777.2
778.447	797.68
778.629	783.35
778.811	781.3
778.993	685.05
779.175	742.39
779.357	707.57
779.539	730.1
779.721	695.29
779.903	703.48
780.085	785.4
780.267	726
780.449	656.37
780.631	705.53
780.812	734.2
780.994	644.09
781.176	740.34
781.358	678.9
781.54	652.28
781.721	588.79
781.903	703.48
782.085	615.41
782.267	656.37
782.448	611.32
782.63	599.03
782.812	717.81
782.993	656.37
783.175	568.31
783.357	615.41
783.538	584.7
783.72	601.08
783.901	576.5
784.083	660.47
784.264	566.26
784.446	504.82
784.627	543.74
784.809	607.22
784.99	551.93
785.172	592.89
785.353	533.5
785.535	584.7
785.716	513.02
785.897	513.02
786.079	549.88
786.26	488.44
786.441	527.35
786.623	496.63
786.804	560.12
786.985	457.72
787.167	545.78
787.348	443.39
787.529	496.63
787.71	529.4
787.891	527.35
788.073	480.25
788.254	439.29
788.435	492.54
788.616	443.39
788.797	478.2
788.978	410.62
789.159	447.48
789.34	502.78
789.522	455.67
789.703	510.97
789.884	455.67
790.065	435.19
790.246	437.24
790.427	412.67
790.607	433.15
790.788	420.86
790.969	418.81
791.15	410.62
791.331	357.37
791.512	390.14
791.693	457.72
791.874	386.04
792.054	420.86
792.235	465.91
792.416	357.37
792.597	427
792.778	355.32
792.958	461.82
793.139	365.56
793.32	439.29
793.5	336.89
793.681	328.7
793.862	326.65
794.042	254.97
794.223	334.84
794.404	365.56
794.584	396.28
794.765	371.71
794.945	293.88
795.126	281.6
795.306	400.38
795.487	392.19
795.667	343.03
795.848	359.42
796.028	322.56
796.209	396.28
796.389	365.56
796.57	336.89
796.75	361.47
796.93	381.95
797.111	383.99
797.291	347.13
797.471	291.84
797.652	336.89
797.832	300.03
798.012	306.17
798.192	340.99
798.373	343.03
798.553	287.74
798.733	328.7
798.913	297.98
799.093	351.23
799.274	322.56
799.454	318.46
799.634	293.88
799.814	365.56
799.994	320.51
800.174	285.69
800.354	269.31
800.534	263.16
800.714	295.93
800.894	230.4
801.074	353.27
801.254	297.98
801.434	246.78
801.614	242.68
801.794	287.74
801.974	619.51
802.154	246.78
802.334	273.4
802.514	277.5
802.693	248.83
802.873	302.08
803.053	369.66
803.233	265.21
803.413	269.31
803.592	297.98
803.772	228.35
803.952	244.73
804.131	234.49
804.311	240.64
804.491	230.4
804.67	132.09
804.85	228.35
805.03	207.87
805.209	300.03
805.389	216.06
805.568	267.26
805.748	232.44
805.928	287.74
806.107	289.79
806.287	214.01
806.466	246.78
806.646	222.2
806.825	261.12
807.004	214.01
807.184	209.92
807.363	218.11
807.543	248.83
807.722	238.59
807.901	320.51
808.081	257.02
808.26	148.48
808.439	228.35
808.619	209.92
808.798	211.96
808.977	209.92
809.156	121.85
809.336	291.84
809.515	230.4
809.694	216.06
809.873	195.58
810.052	207.87
810.231	154.62
810.411	193.53
810.59	232.44
810.769	236.54
810.948	232.44
811.127	175.1
811.306	238.59
811.485	199.68
811.664	265.21
811.843	203.77
812.022	175.1
812.201	183.29
812.38	156.67
812.559	250.88
812.737	224.25
812.916	164.86
813.095	123.9
813.274	136.19
813.453	195.58
813.632	179.2
813.811	201.72
813.989	125.95
814.168	166.91
814.347	171.01
814.526	162.81
814.704	160.77
814.883	246.78
815.062	136.19
815.24	179.2
815.419	150.53
815.598	199.68
815.776	160.77
815.955	209.92
816.133	201.72
816.312	142.33
816.49	238.59
816.669	72.7
816.847	173.05
817.026	168.96
817.204	109.57
817.383	173.05
817.561	136.19
817.74	148.48
817.918	162.81
818.097	179.2
818.275	201.72
818.453	160.77
818.632	140.29
818.81	138.24
818.988	123.9
819.167	158.72
819.345	132.09
819.523	160.77
819.701	46.08
819.879	187.39
820.058	105.47
820.236	130.05
820.414	140.29
820.592	171.01
820.77	125.95
820.948	93.18
821.127	173.05
821.305	99.33
821.483	78.85
821.661	150.53
821.839	146.43
822.017	105.47
822.195	93.18
822.373	177.15
822.551	189.44
822.729	128
822.907	115.71
823.085	162.81
823.262	152.57
823.44	130.05
823.618	156.67
823.796	146.43
823.974	136.19
824.152	44.03
824.329	109.57
824.507	166.91
824.685	134.14
824.863	121.85
825.04	78.85
825.218	144.38
825.396	158.72
825.574	113.66
825.751	146.43
825.929	95.23
826.107	87.04
826.284	84.99
826.462	154.62
826.639	111.61
826.817	115.71
826.994	138.24
827.172	91.13
827.349	132.09
827.527	132.09
827.704	128
827.882	160.77
828.059	89.09
828.237	121.85
828.414	187.39
828.591	41.98
828.769	62.46
828.946	78.85
829.124	78.85
829.301	9.22
829.478	140.29
829.655	130.05
829.833	152.57
830.01	72.7
830.187	105.47
830.364	89.09
830.542	91.13
830.719	46.08
830.896	113.66
831.073	193.53
831.25	111.61
831.427	134.14
831.604	117.76
831.782	105.47
831.959	48.13
832.136	35.84
832.313	80.89
832.49	80.89
832.667	74.75
832.844	33.79
833.021	123.9
833.198	84.99
833.374	74.75
833.551	62.46
833.728	144.38
833.905	11.26
834.082	46.08
834.259	99.33
834.436	156.67
834.612	-3.07
834.789	95.23
834.966	70.65
835.143	78.85
835.319	89.09
835.496	115.71
835.673	84.99
835.85	44.03
836.026	115.71
836.203	48.13
836.38	64.51
836.556	130.05
836.733	89.09
836.909	46.08
837.086	80.89
837.262	54.27
837.439	44.03
837.616	121.85
837.792	41.98
837.968	121.85
838.145	119.81
838.321	97.28
838.498	95.23
838.674	171.01
838.851	99.33
839.027	35.84
839.203	125.95
839.38	115.71
839.556	78.85
839.732	48.13
839.909	35.84
840.085	78.85
840.261	21.5
840.437	148.48
840.614	76.8
840.79	82.94
840.966	123.9
841.142	80.89
841.318	91.13
841.494	105.47
841.671	97.28
841.847	44.03
842.023	66.56
842.199	89.09
842.375	132.09
842.551	41.98
842.727	68.61
842.903	74.75
843.079	76.8
843.255	50.18
843.431	60.42
843.607	44.03
843.783	87.04
843.959	27.65
844.134	15.36
844.31	84.99
844.486	56.32
844.662	37.89
844.838	21.5
845.013	142.33
845.189	48.13
845.365	50.18
845.541	5.12
845.716	3.07
845.892	80.89
846.068	33.79
846.244	46.08
846.419	54.27
846.595	48.13
846.77	95.23
846.946	72.7
847.122	66.56
847.297	103.42
847.473	89.09
847.648	52.22
847.824	-9.22
847.999	9.22
848.175	80.89
848.35	103.42
848.526	56.32
848.701	74.75
848.876	76.8
849.052	78.85
849.227	60.42
849.403	50.18
849.578	27.65
849.753	58.37
849.929	35.84
850.104	15.36
850.279	84.99
850.454	87.04
850.63	52.22
850.805	25.6
850.98	80.89
851.155	52.22
851.33	58.37
851.505	23.55
851.681	68.61
851.856	-1.02
852.031	1.02
852.206	105.47
852.381	37.89
852.556	62.46
852.731	64.51
852.906	60.42
853.081	119.81
853.256	103.42
853.431	58.37
853.606	56.32
853.781	60.42
853.956	-29.7
854.131	17.41
854.305	74.75
854.48	21.5
854.655	21.5
854.83	-19.46
855.005	62.46
855.18	66.56
855.354	138.24
855.529	52.22
855.704	56.32
855.879	21.5
856.053	84.99
856.228	52.22
856.403	-21.5
856.577	9.22
856.752	-7.17
856.926	97.28
857.101	9.22
857.276	29.7
857.45	-1.02
857.625	58.37
857.799	48.13
857.974	54.27
858.148	7.17
858.323	27.65
858.497	19.46
858.672	54.27
858.846	-35.84
859.02	111.61
859.195	-21.5
859.369	54.27
859.543	46.08
859.718	95.23
859.892	84.99
860.066	27.65
860.241	-11.26
860.415	87.04
860.589	-23.55
860.763	54.27
860.938	15.36
861.112	52.22
861.286	103.42
861.46	1.02
861.634	37.89
861.808	56.32
861.982	3.07
862.157	7.17
862.331	19.46
862.505	68.61
862.679	9.22
862.853	17.41
863.027	58.37
863.201	66.56
863.375	-7.17
863.549	-17.41
863.722	15.36
863.896	-3.07
864.07	3.07
864.244	105.47
864.418	35.84
864.592	19.46
864.766	48.13
864.939	31.74
865.113	23.55
865.287	25.6
865.461	31.74
865.634	56.32
865.808	33.79
865.982	1.02
866.156	17.41
866.329	1.02
866.503	17.41
866.676	62.46
866.85	33.79
867.024	13.31
867.197	103.42
867.371	25.6
867.544	19.46
867.718	-37.89
867.891	84.99
868.065	17.41
868.238	99.33
868.412	35.84
868.585	13.31
868.759	-3.07
868.932	23.55
869.105	-23.55
869.279	-15.36
869.452	80.89
869.625	-27.65
869.799	87.04
869.972	-1.02
870.145	54.27
870.319	66.56
870.492	7.17
870.665	41.98
870.838	17.41
871.011	-1.02
871.185	78.85
871.358	23.55
871.531	31.74
871.704	13.31
871.877	64.51
872.05	-35.84
872.223	3.07
872.396	-15.36
872.569	13.31
872.742	52.22
872.915	-29.7
873.088	-64.51
873.261	3.07
873.434	7.17
873.607	-1.02
873.78	68.61
873.953	-9.22
874.126	35.84
874.299	3.07
874.471	44.03
874.644	78.85
874.817	39.94
874.99	62.46
875.163	60.42
875.335	37.89
875.508	-48.13
875.681	97.28
875.853	82.94
876.026	-17.41
876.199	21.5
876.371	29.7
876.544	-35.84
876.717	-44.03
876.889	-9.22
877.062	52.22
877.234	-23.55
877.407	-9.22
877.579	54.27
877.752	111.61
877.924	37.89
878.097	35.84
878.269	66.56
878.442	-58.37
878.614	5.12
878.786	44.03
878.959	64.51
879.131	48.13
879.303	-37.89
879.476	46.08
879.648	25.6
879.82	35.84
879.993	31.74
880.165	25.6
880.337	37.89
880.509	41.98
880.681	19.46
880.854	-13.31
881.026	1.02
881.198	13.31
881.37	-48.13
881.542	37.89
881.714	56.32
881.886	-1.02
882.058	56.32
882.23	60.42
882.402	-21.5
882.574	52.22
882.746	37.89
882.918	19.46
883.09	1.02
883.262	80.89
883.434	95.23
883.606	29.7
883.778	13.31
883.95	58.37
884.122	-15.36
884.293	84.99
884.465	-23.55
884.637	-13.31
884.809	-3.07
884.98	-3.07
885.152	9.22
885.324	68.61
885.496	-15.36
885.667	1.02
885.839	39.94
886.011	95.23
886.182	1.02
886.354	-21.5
886.525	-5.12
886.697	-3.07
886.869	3.07
887.04	60.42
887.212	-23.55
887.383	5.12
887.555	-3.07
887.726	39.94
887.897	-33.79
888.069	15.36
888.24	9.22
888.412	5.12
888.583	25.6
888.754	23.55
888.926	-117.76
889.097	46.08
889.268	60.42
889.44	-39.94
889.611	-19.46
889.782	37.89
889.953	-15.36
890.125	21.5
890.296	-9.22
890.467	66.56
890.638	-35.84
890.809	46.08
890.98	3.07
891.151	7.17
891.323	1.02
891.494	-33.79
891.665	21.5
891.836	-25.6
892.007	-23.55
892.178	35.84
892.349	-27.65
892.52	31.74
892.691	74.75
892.862	-5.12
893.032	99.33
893.203	-35.84
893.374	66.56
893.545	72.7
893.716	21.5
893.887	17.41
894.057	-23.55
894.228	15.36
894.399	-19.46
894.57	74.75
894.74	27.65
894.911	58.37
895.082	-1.02
895.253	48.13
895.423	76.8
895.594	5.12
895.764	-41.98
895.935	-39.94
896.106	41.98
896.276	97.28
896.447	72.7
896.617	-11.26
896.788	-41.98
896.958	5.12
897.129	-7.17
897.299	-7.17
897.47	37.89
897.64	97.28
897.81	52.22
897.981	99.33
898.151	-7.17
898.322	37.89
898.492	-23.55
898.662	-17.41
898.832	-48.13
899.003	-5.12
899.173	84.99
899.343	11.26
899.513	-11.26
