Data from USB4F104151__49__11-51-54-006.txt Node

Date: Fri Mar 14 11:51:54 EDT 2025
User: louis
Spectrometer: USB4F10415
Trigger mode: 4
Integration Time (sec): 2.000000E-2
Scans to average: 1
Electric dark correction enabled: true
Nonlinearity correction enabled: false
Boxcar width: 0
XAxis mode: Wavelengths
Number of Pixels in Spectrum: 3648
>>>>>Begin Spectral Data<<<<<
178.204	-33.45
178.424	-33.45
178.644	-33.45
178.864	-47.79
179.084	-96.94
179.304	-80.55
179.524	-41.64
179.744	-27.31
179.964	-21.16
180.184	-12.97
180.404	25.94
180.624	-6.83
180.844	46.42
181.064	-37.55
181.283	85.33
181.503	36.18
181.723	34.13
181.943	-2.73
182.163	13.65
182.383	1.37
182.602	7.51
182.822	25.94
183.042	-0.68
183.262	-15.02
183.482	36.18
183.701	-37.55
183.921	23.89
184.141	46.42
184.361	126.29
184.58	75.09
184.8	42.32
185.02	7.51
185.239	-12.97
185.459	11.61
185.679	-6.83
185.898	15.7
186.118	58.71
186.338	-15.02
186.557	75.09
186.777	-0.68
186.997	52.56
187.216	-66.22
187.436	-0.68
187.655	13.65
187.875	38.23
188.095	38.23
188.314	1.37
188.534	-10.92
188.753	-4.78
188.973	42.32
189.192	38.23
189.412	21.85
189.631	17.75
189.851	30.04
190.07	46.42
190.29	46.42
190.509	23.89
190.729	81.24
190.948	11.61
191.168	144.72
191.387	107.86
191.607	-25.26
191.826	-17.07
192.045	-41.64
192.265	52.56
192.484	-15.02
192.704	30.04
192.923	30.04
193.142	54.61
193.362	1.37
193.581	58.71
193.8	1.37
194.02	64.85
194.239	-23.21
194.458	36.18
194.678	-31.4
194.897	-10.92
195.116	-2.73
195.335	64.85
195.555	44.37
195.774	-21.16
195.993	60.76
196.212	-41.64
196.432	-45.74
196.651	38.23
196.87	-0.68
197.089	83.28
197.308	105.81
197.528	66.9
197.747	3.41
197.966	11.61
198.185	99.67
198.404	13.65
198.623	52.56
198.842	60.76
199.062	56.66
199.281	1.37
199.5	58.71
199.719	-17.07
199.938	144.72
200.157	56.66
200.376	36.18
200.595	85.33
200.814	42.32
201.033	-27.31
201.252	109.91
201.471	23.89
201.69	30.04
201.909	38.23
202.128	-19.11
202.347	27.99
202.566	-39.59
202.785	-6.83
203.004	9.56
203.223	91.48
203.442	48.47
203.661	34.13
203.879	91.48
204.098	17.75
204.317	3.41
204.536	103.76
204.755	60.76
204.974	66.9
205.193	17.75
205.411	52.56
205.63	83.28
205.849	-0.68
206.068	19.8
206.287	-17.07
206.505	15.7
206.724	27.99
206.943	66.9
207.162	-17.07
207.381	-39.59
207.599	21.85
207.818	1.37
208.037	17.75
208.255	23.89
208.474	23.89
208.693	15.7
208.911	19.8
209.13	-27.31
209.349	83.28
209.567	19.8
209.786	-53.93
210.005	48.47
210.223	77.14
210.442	-4.78
210.661	-0.68
210.879	91.48
211.098	46.42
211.316	3.41
211.535	97.62
211.753	-17.07
211.972	21.85
212.191	58.71
212.409	11.61
212.628	-17.07
212.846	-37.55
213.065	46.42
213.283	81.24
213.502	68.95
213.72	7.51
213.938	9.56
214.157	36.18
214.375	11.61
214.594	42.32
214.812	38.23
215.031	-21.16
215.249	48.47
215.467	73.04
215.686	-4.78
215.904	27.99
216.122	52.56
216.341	50.52
216.559	42.32
216.778	-0.68
216.996	-51.88
217.214	68.95
217.432	9.56
217.651	71
217.869	36.18
218.087	21.85
218.306	25.94
218.524	17.75
218.742	11.61
218.96	52.56
219.179	-6.83
219.397	-0.68
219.615	-15.02
219.833	25.94
220.051	19.8
220.27	9.56
220.488	15.7
220.706	34.13
220.924	13.65
221.142	19.8
221.36	1.37
221.578	109.91
221.796	21.85
222.015	13.65
222.233	7.51
222.451	73.04
222.669	38.23
222.887	19.8
223.105	23.89
223.323	-10.92
223.541	-12.97
223.759	38.23
223.977	-27.31
224.195	66.9
224.413	5.46
224.631	52.56
224.849	17.75
225.067	62.8
225.285	34.13
225.503	1.37
225.721	21.85
225.939	85.33
226.157	40.28
226.375	60.76
226.592	40.28
226.81	-10.92
227.028	-10.92
227.246	54.61
227.464	-35.5
227.682	15.7
227.9	48.47
228.117	-4.78
228.335	25.94
228.553	9.56
228.771	34.13
228.989	3.41
229.206	62.8
229.424	21.85
229.642	23.89
229.86	-64.17
230.077	122.2
230.295	56.66
230.513	52.56
230.731	107.86
230.948	50.52
231.166	81.24
231.384	25.94
231.601	58.71
231.819	25.94
232.037	-6.83
232.254	-19.11
232.472	-6.83
232.689	-19.11
232.907	15.7
233.125	34.13
233.342	-29.35
233.56	3.41
233.777	71
233.995	-17.07
234.213	3.41
234.43	44.37
234.648	40.28
234.865	-62.12
235.083	62.8
235.3	-8.87
235.518	-43.69
235.735	50.52
235.953	32.08
236.17	-8.87
236.388	42.32
236.605	105.81
236.822	32.08
237.04	15.7
237.257	25.94
237.475	83.28
237.692	30.04
237.909	56.66
238.127	27.99
238.344	73.04
238.562	-37.55
238.779	-29.35
238.996	13.65
239.214	-17.07
239.431	11.61
239.648	-4.78
239.865	50.52
240.083	46.42
240.3	73.04
240.517	-8.87
240.735	54.61
240.952	34.13
241.169	77.14
241.386	-6.83
241.603	5.46
241.821	-43.69
242.038	60.76
242.255	38.23
242.472	42.32
242.689	13.65
242.907	73.04
243.124	-2.73
243.341	48.47
243.558	-37.55
243.775	9.56
243.992	32.08
244.209	50.52
244.426	101.72
244.643	-15.02
244.86	-8.87
245.078	-15.02
245.295	58.71
245.512	56.66
245.729	34.13
245.946	50.52
246.163	-49.83
246.38	46.42
246.597	75.09
246.814	58.71
247.031	93.52
247.248	-33.45
247.464	87.38
247.681	91.48
247.898	44.37
248.115	27.99
248.332	68.95
248.549	36.18
248.766	79.19
248.983	81.24
249.2	58.71
249.417	118.1
249.633	-0.68
249.85	136.53
250.067	62.8
250.284	15.7
250.501	5.46
250.717	25.94
250.934	36.18
251.151	85.33
251.368	62.8
251.585	52.56
251.801	21.85
252.018	-17.07
252.235	42.32
252.451	9.56
252.668	-39.59
252.885	23.89
253.102	23.89
253.318	81.24
253.535	17.75
253.752	23.89
253.968	-4.78
254.185	-12.97
254.401	40.28
254.618	62.8
254.835	-25.26
255.051	38.23
255.268	-6.83
255.484	56.66
255.701	50.52
255.917	40.28
256.134	34.13
256.351	13.65
256.567	-6.83
256.784	64.85
257	17.75
257.217	13.65
257.433	34.13
257.65	46.42
257.866	19.8
258.082	-6.83
258.299	-8.87
258.515	7.51
258.732	-27.31
258.948	-45.74
259.165	9.56
259.381	25.94
259.597	52.56
259.814	15.7
260.03	58.71
260.246	-0.68
260.463	54.61
260.679	103.76
260.895	68.95
261.112	-23.21
261.328	-17.07
261.544	-12.97
261.761	101.72
261.977	36.18
262.193	-29.35
262.409	34.13
262.626	17.75
262.842	-2.73
263.058	50.52
263.274	58.71
263.49	3.41
263.707	66.9
263.923	3.41
264.139	-8.87
264.355	83.28
264.571	40.28
264.787	42.32
265.004	13.65
265.22	38.23
265.436	23.89
265.652	-68.27
265.868	-53.93
266.084	32.08
266.3	71
266.516	-10.92
266.732	54.61
266.948	46.42
267.164	95.57
267.38	48.47
267.596	7.51
267.812	73.04
268.028	-4.78
268.244	5.46
268.46	21.85
268.676	32.08
268.892	50.52
269.108	-10.92
269.324	-25.26
269.54	19.8
269.756	93.52
269.972	85.33
270.188	-2.73
270.403	7.51
270.619	5.46
270.835	50.52
271.051	25.94
271.267	50.52
271.483	5.46
271.698	42.32
271.914	75.09
272.13	5.46
272.346	7.51
272.562	103.76
272.777	42.32
272.993	23.89
273.209	54.61
273.425	66.9
273.64	-2.73
273.856	52.56
274.072	71
274.287	13.65
274.503	-84.65
274.719	40.28
274.934	-0.68
275.15	27.99
275.366	5.46
275.581	1.37
275.797	-10.92
276.012	-27.31
276.228	15.7
276.444	5.46
276.659	11.61
276.875	-21.16
277.09	9.56
277.306	-29.35
277.521	46.42
277.737	62.8
277.952	-23.21
278.168	83.28
278.383	30.04
278.599	21.85
278.814	27.99
279.03	34.13
279.245	25.94
279.461	5.46
279.676	1.37
279.892	-33.45
280.107	21.85
280.322	40.28
280.538	101.72
280.753	27.99
280.969	38.23
281.184	46.42
281.399	134.48
281.615	5.46
281.83	38.23
282.045	17.75
282.26	-15.02
282.476	48.47
282.691	-31.4
282.906	71
283.122	83.28
283.337	-23.21
283.552	62.8
283.767	34.13
283.983	54.61
284.198	50.52
284.413	58.71
284.628	-0.68
284.843	-6.83
285.058	79.19
285.274	56.66
285.489	11.61
285.704	38.23
285.919	5.46
286.134	-39.59
286.349	-12.97
286.564	21.85
286.779	73.04
286.995	66.9
287.21	52.56
287.425	13.65
287.64	9.56
287.855	23.89
288.07	7.51
288.285	-10.92
288.5	120.15
288.715	50.52
288.93	42.32
289.145	9.56
289.36	42.32
289.575	-8.87
289.79	-8.87
290.004	68.95
290.219	52.56
290.434	30.04
290.649	40.28
290.864	-17.07
291.079	44.37
291.294	1.37
291.509	17.75
291.724	38.23
291.938	77.14
292.153	17.75
292.368	-6.83
292.583	27.99
292.798	46.42
293.012	-12.97
293.227	46.42
293.442	-2.73
293.657	25.94
293.871	73.04
294.086	58.71
294.301	116.05
294.516	27.99
294.73	30.04
294.945	30.04
295.16	91.48
295.374	71
295.589	30.04
295.804	-23.21
296.018	38.23
296.233	54.61
296.447	44.37
296.662	-51.88
296.877	3.41
297.091	36.18
297.306	19.8
297.52	58.71
297.735	87.38
297.949	25.94
298.164	44.37
298.378	-2.73
298.593	-23.21
298.807	-15.02
299.022	44.37
299.236	62.8
299.451	107.86
299.665	46.42
299.88	83.28
300.094	-0.68
300.309	62.8
300.523	-6.83
300.737	54.61
300.952	-6.83
301.166	-6.83
301.381	5.46
301.595	-0.68
301.809	40.28
302.024	42.32
302.238	64.85
302.452	19.8
302.667	-33.45
302.881	73.04
303.095	56.66
303.309	38.23
303.524	-37.55
303.738	25.94
303.952	-2.73
304.166	-17.07
304.381	15.7
304.595	58.71
304.809	58.71
305.023	19.8
305.237	93.52
305.452	-21.16
305.666	54.61
305.88	116.05
306.094	50.52
306.308	42.32
306.522	64.85
306.736	118.1
306.95	32.08
307.164	-17.07
307.379	38.23
307.593	-10.92
307.807	48.47
308.021	101.72
308.235	50.52
308.449	83.28
308.663	54.61
308.877	83.28
309.091	-25.26
309.305	77.14
309.519	1.37
309.733	17.75
309.947	19.8
310.161	73.04
310.374	52.56
310.588	32.08
310.802	-6.83
311.016	17.75
311.23	5.46
311.444	-27.31
311.658	21.85
311.872	-17.07
312.085	-35.5
312.299	50.52
312.513	71
312.727	54.61
312.941	68.95
313.154	5.46
313.368	13.65
313.582	25.94
313.796	97.62
314.009	44.37
314.223	40.28
314.437	54.61
314.651	32.08
314.864	-27.31
315.078	46.42
315.292	50.52
315.505	52.56
315.719	-17.07
315.933	38.23
316.146	71
316.36	5.46
316.573	93.52
316.787	38.23
317.001	42.32
317.214	77.14
317.428	44.37
317.641	-49.83
317.855	3.41
318.068	7.51
318.282	-31.4
318.495	34.13
318.709	-12.97
318.922	15.7
319.136	-19.11
319.349	124.24
319.563	21.85
319.776	36.18
319.99	-37.55
320.203	93.52
320.417	126.29
320.63	38.23
320.843	58.71
321.057	17.75
321.27	93.52
321.483	-6.83
321.697	71
321.91	73.04
322.124	30.04
322.337	34.13
322.55	17.75
322.763	77.14
322.977	64.85
323.19	7.51
323.403	34.13
323.617	34.13
323.83	124.24
324.043	25.94
324.256	-41.64
324.469	-21.16
324.683	-17.07
324.896	-15.02
325.109	-8.87
325.322	46.42
325.535	66.9
325.748	7.51
325.962	97.62
326.175	27.99
326.388	-21.16
326.601	32.08
326.814	95.57
327.027	17.75
327.24	15.7
327.453	3.41
327.666	75.09
327.879	44.37
328.092	56.66
328.305	3.41
328.518	101.72
328.731	-17.07
328.944	36.18
329.157	77.14
329.37	56.66
329.583	-19.11
329.796	68.95
330.009	-45.74
330.222	32.08
330.435	7.51
330.648	107.86
330.861	42.32
331.073	77.14
331.286	71
331.499	52.56
331.712	77.14
331.925	7.51
332.138	13.65
332.35	-0.68
332.563	-35.5
332.776	101.72
332.989	-6.83
333.202	109.91
333.414	-8.87
333.627	-4.78
333.84	60.76
334.053	54.61
334.265	-2.73
334.478	-29.35
334.691	5.46
334.903	48.47
335.116	34.13
335.329	9.56
335.541	81.24
335.754	40.28
335.966	11.61
336.179	68.95
336.392	17.75
336.604	66.9
336.817	56.66
337.029	93.52
337.242	36.18
337.454	62.8
337.667	40.28
337.88	111.96
338.092	7.51
338.305	1.37
338.517	25.94
338.729	73.04
338.942	114
339.154	-27.31
339.367	23.89
339.579	27.99
339.792	73.04
340.004	64.85
340.217	-12.97
340.429	-21.16
340.641	54.61
340.854	91.48
341.066	23.89
341.278	58.71
341.491	3.41
341.703	13.65
341.915	9.56
342.128	-2.73
342.34	40.28
342.552	-2.73
342.764	3.41
342.977	-10.92
343.189	83.28
343.401	-29.35
343.613	-17.07
343.826	36.18
344.038	30.04
344.25	122.2
344.462	38.23
344.674	15.7
344.886	54.61
345.099	-8.87
345.311	101.72
345.523	99.67
345.735	58.71
345.947	93.52
346.159	-37.55
346.371	15.7
346.583	-6.83
346.795	30.04
347.007	17.75
347.219	-29.35
347.431	-17.07
347.643	93.52
347.855	-2.73
348.067	50.52
348.279	-27.31
348.491	52.56
348.703	23.89
348.915	23.89
349.127	40.28
349.339	-37.55
349.551	5.46
349.763	161.11
349.975	93.52
350.187	-35.5
350.399	58.71
350.61	36.18
350.822	46.42
351.034	17.75
351.246	11.61
351.458	9.56
351.669	27.99
351.881	21.85
352.093	11.61
352.305	132.44
352.517	46.42
352.728	60.76
352.94	73.04
353.152	93.52
353.363	15.7
353.575	60.76
353.787	81.24
353.999	48.47
354.21	56.66
354.422	42.32
354.633	30.04
354.845	73.04
355.057	66.9
355.268	46.42
355.48	15.7
355.692	95.57
355.903	40.28
356.115	-33.45
356.326	9.56
356.538	93.52
356.749	36.18
356.961	89.43
357.172	9.56
357.384	44.37
357.595	-6.83
357.807	93.52
358.018	1.37
358.23	-21.16
358.441	62.8
358.653	30.04
358.864	64.85
359.075	-31.4
359.287	5.46
359.498	87.38
359.709	17.75
359.921	-15.02
360.132	71
360.344	42.32
360.555	50.52
360.766	44.37
360.977	25.94
361.189	91.48
361.4	13.65
361.611	66.9
361.823	91.48
362.034	-6.83
362.245	-15.02
362.456	66.9
362.667	105.81
362.879	-12.97
363.09	52.56
363.301	91.48
363.512	52.56
363.723	66.9
363.935	-2.73
364.146	73.04
364.357	7.51
364.568	60.76
364.779	64.85
364.99	66.9
365.201	60.76
365.412	97.62
365.623	5.46
365.834	105.81
366.045	52.56
366.256	36.18
366.467	30.04
366.678	3.41
366.889	105.81
367.1	62.8
367.311	25.94
367.522	32.08
367.733	138.58
367.944	146.77
368.155	17.75
368.366	95.57
368.577	68.95
368.788	87.38
368.999	42.32
369.209	50.52
369.42	103.76
369.631	118.1
369.842	136.53
370.053	38.23
370.264	46.42
370.474	46.42
370.685	15.7
370.896	54.61
371.107	71
371.317	38.23
371.528	-0.68
371.739	48.47
371.95	-29.35
372.16	107.86
372.371	64.85
372.582	93.52
372.792	50.52
373.003	38.23
373.214	66.9
373.424	132.44
373.635	68.95
373.846	97.62
374.056	101.72
374.267	-12.97
374.477	130.39
374.688	138.58
374.898	75.09
375.109	9.56
375.319	95.57
375.53	107.86
375.74	-15.02
375.951	-37.55
376.161	52.56
376.372	85.33
376.582	48.47
376.793	81.24
377.003	-4.78
377.214	73.04
377.424	54.61
377.635	101.72
377.845	50.52
378.055	42.32
378.266	-8.87
378.476	52.56
378.686	52.56
378.897	91.48
379.107	87.38
379.317	40.28
379.528	-4.78
379.738	75.09
379.948	25.94
380.158	40.28
380.369	64.85
380.579	83.28
380.789	23.89
380.999	87.38
381.21	85.33
381.42	36.18
381.63	-45.74
381.84	118.1
382.05	40.28
382.261	101.72
382.471	-0.68
382.681	77.14
382.891	91.48
383.101	97.62
383.311	68.95
383.521	3.41
383.731	36.18
383.941	77.14
384.151	89.43
384.361	-21.16
384.571	17.75
384.781	81.24
384.991	134.48
385.201	54.61
385.411	60.76
385.621	95.57
385.831	1.37
386.041	60.76
386.251	56.66
386.461	136.53
386.671	71
386.881	11.61
387.091	75.09
387.301	38.23
387.511	56.66
387.72	19.8
387.93	60.76
388.14	-78.51
388.35	19.8
388.56	64.85
388.769	-17.07
388.979	30.04
389.189	5.46
389.399	7.51
389.609	130.39
389.818	23.89
390.028	75.09
390.238	11.61
390.447	83.28
390.657	52.56
390.867	50.52
391.076	95.57
391.286	46.42
391.496	81.24
391.705	25.94
391.915	150.87
392.125	126.29
392.334	93.52
392.544	17.75
392.753	46.42
392.963	54.61
393.172	3.41
393.382	107.86
393.591	77.14
393.801	34.13
394.01	116.05
394.22	79.19
394.429	107.86
394.639	64.85
394.848	77.14
395.058	107.86
395.267	60.76
395.477	52.56
395.686	95.57
395.895	85.33
396.105	83.28
396.314	116.05
396.524	111.96
396.733	32.08
396.942	116.05
397.152	75.09
397.361	54.61
397.57	81.24
397.78	36.18
397.989	48.47
398.198	79.19
398.407	62.8
398.617	134.48
398.826	81.24
399.035	34.13
399.244	-19.11
399.453	66.9
399.663	116.05
399.872	118.1
400.081	140.63
400.29	105.81
400.499	-0.68
400.708	120.15
400.917	132.44
401.127	169.3
401.336	60.76
401.545	140.63
401.754	130.39
401.963	103.76
402.172	142.68
402.381	64.85
402.59	120.15
402.799	58.71
403.008	118.1
403.217	126.29
403.426	105.81
403.635	109.91
403.844	136.53
404.053	161.11
404.262	73.04
404.471	161.11
404.68	116.05
404.888	165.2
405.097	109.91
405.306	89.43
405.515	109.91
405.724	157.01
405.933	87.38
406.142	103.76
406.35	212.31
406.559	247.12
406.768	142.68
406.977	130.39
407.185	157.01
407.394	15.7
407.603	154.96
407.812	154.96
408.02	218.45
408.229	255.31
408.438	175.44
408.646	206.16
408.855	255.31
409.064	238.93
409.272	212.31
409.481	251.22
409.69	173.39
409.898	310.61
410.107	259.41
410.315	222.55
410.524	283.98
410.733	251.22
410.941	316.75
411.15	343.38
411.358	210.26
411.567	367.95
411.775	308.56
411.984	322.9
412.192	386.38
412.401	363.86
412.609	337.23
412.818	423.25
413.026	365.9
413.234	380.24
413.443	421.2
413.651	447.82
413.86	503.12
414.068	507.21
414.276	527.69
414.485	507.21
414.693	542.03
414.901	646.48
415.11	570.7
415.318	626
415.526	607.56
415.734	644.43
415.943	570.7
416.151	705.87
416.359	599.37
416.567	701.77
416.776	752.97
416.984	783.69
417.192	886.09
417.4	767.31
417.608	765.26
417.817	894.28
418.025	836.94
418.233	959.81
418.441	965.96
418.649	988.49
418.857	1035.59
419.065	1084.74
419.273	1090.88
419.481	1017.16
419.689	1140.04
419.897	1189.19
420.105	1240.39
420.313	1195.33
420.521	1383.74
420.729	1377.6
420.937	1486.14
421.145	1451.33
421.353	1611.07
421.561	1699.13
421.769	1606.97
421.977	1731.9
422.185	1670.46
422.393	1996.09
422.601	1819.96
422.809	1871.16
423.017	1926.46
423.224	2032.95
423.432	2094.39
423.64	2106.68
423.848	2264.37
424.056	2073.91
424.263	2528.56
424.471	2344.24
424.679	2405.68
424.887	2469.17
425.094	2606.38
425.302	2673.96
425.51	2676.01
425.718	2714.92
425.925	2835.75
426.133	2913.58
426.341	2972.97
426.548	3323.17
426.756	3261.73
426.964	3323.17
427.171	3435.81
427.379	3536.16
427.586	3702.04
427.794	3749.15
428.001	3992.86
428.209	4134.17
428.417	4087.06
428.624	4373.78
428.832	4359.44
429.039	4377.87
429.247	4255
429.454	4758.8
429.662	4904.2
429.869	4603.15
430.076	5088.52
430.284	4924.68
430.491	5188.87
430.699	5387.52
430.906	5518.59
431.114	5356.8
431.321	5707.01
431.528	5788.92
431.736	5915.9
431.943	6436.08
432.15	6173.94
432.358	6313.2
432.565	6511.86
432.772	6526.19
432.979	6802.67
433.187	7101.67
433.394	7046.38
433.601	7576.8
433.808	7703.78
434.016	7582.95
434.223	7982.3
434.43	8301.78
434.637	8051.93
434.844	8832.21
435.052	8889.55
435.259	8983.76
435.466	8877.26
435.673	8862.93
435.88	9436.36
436.087	9817.28
436.294	9653.44
436.501	9661.63
436.708	9823.42
436.915	10282.17
437.122	10683.57
437.329	10538.16
437.537	11132.08
437.743	11306.15
437.95	11107.5
438.157	11797.67
438.364	12072.09
438.571	12014.75
438.778	12051.61
438.985	13091.98
439.192	12586.13
439.399	13110.41
439.606	12801.17
439.813	13438.09
440.02	14402.68
440.227	14142.59
440.433	14195.84
440.64	14488.7
440.847	14597.24
441.054	14662.77
441.261	15567.98
441.467	15291.5
441.674	15887.46
441.881	16297.05
442.088	16524.38
442.294	16454.75
442.501	16751.7
442.708	16888.92
442.914	17626.18
443.121	18574.39
443.328	17998.91
443.534	19188.78
443.741	18418.75
443.948	18162.75
444.154	19643.43
444.361	19780.65
444.568	19813.41
444.774	19702.82
444.981	20059.17
445.187	20827.16
445.394	21212.18
445.6	21115.92
445.807	23241.71
446.013	22234.11
446.22	22643.71
446.426	23460.85
446.633	23489.52
446.839	24247.27
447.046	23606.25
447.252	24853.47
447.459	24777.69
447.665	24593.37
447.871	25959.37
448.078	26887.1
448.284	25846.73
448.491	25879.5
448.697	27186.1
448.903	27863.98
449.11	28122.02
449.316	27442.1
449.522	28257.19
449.728	28685.22
449.935	28969.88
450.141	29215.64
450.347	29346.71
450.553	28369.83
450.76	29158.3
450.966	29989.77
451.172	29608.85
451.378	30493.57
451.584	29440.92
451.791	30452.61
451.997	30331.78
452.203	30661.51
452.409	30655.36
452.615	30747.52
452.821	29557.65
453.027	29174.68
453.233	30546.82
453.44	29873.04
453.646	30124.94
453.852	29764.5
454.058	30493.57
454.264	29942.67
454.47	30202.76
454.676	29281.17
454.882	30174.09
455.088	27825.07
455.294	28095.4
455.5	28736.41
455.705	28720.03
455.911	27466.67
456.117	27444.15
456.323	26702.78
456.529	25222.1
456.735	26684.35
456.941	25736.14
457.147	25361.36
457.352	24740.83
457.558	24349.67
457.764	24480.74
457.97	24163.3
458.176	23266.29
458.381	23636.97
458.587	22500.35
458.793	22383.62
458.999	21007.38
459.204	22707.19
459.41	22051.84
459.616	20468.76
459.821	20501.53
460.027	20612.12
460.233	20053.03
460.438	19047.47
460.644	19375.15
460.85	18353.21
461.055	18203.71
461.261	18015.3
461.466	16700.5
461.672	16100.45
461.878	17439.82
462.083	16204.89
462.289	15866.98
462.494	15688.81
462.7	15064.18
462.905	14713.97
463.111	15492.2
463.316	15361.13
463.522	14908.53
463.727	15068.27
463.932	15127.66
464.138	14775.41
464.343	14830.71
464.549	14374.01
464.754	14787.7
464.959	14910.58
465.165	14636.15
465.37	14044.29
465.575	13892.74
465.781	14148.73
465.986	14273.66
466.191	13902.98
466.397	13663.36
466.602	12735.63
466.807	13368.46
467.012	13640.84
467.218	13380.75
467.423	13106.32
467.628	13259.92
467.833	13962.37
468.038	13268.11
468.244	12899.47
468.449	13403.27
468.654	12979.34
468.859	12850.32
469.064	12807.31
469.269	12139.68
469.474	12260.51
469.679	12768.4
469.885	12311.71
470.09	12455.06
470.295	12414.1
470.5	12039.33
470.705	12221.59
470.91	11672.74
471.115	11660.45
471.32	12010.65
471.525	11824.29
471.73	11631.78
471.935	11578.53
472.139	11175.08
472.344	11291.82
472.549	11353.26
472.754	11009.2
472.959	10763.44
473.164	10575.03
473.369	10605.75
473.574	10755.25
473.778	10798.26
473.983	10714.29
474.188	10620.08
474.393	10202.3
474.598	10169.53
474.802	9979.07
475.007	10144.95
475.212	9936.06
475.417	9639.11
475.621	9706.69
475.826	9663.68
476.031	9473.22
476.235	9317.58
476.44	9479.36
476.645	9293
476.849	9395.4
477.054	9090.25
477.259	9024.72
477.463	9092.3
477.668	8676.56
477.872	8860.88
478.077	8621.27
478.282	8568.02
478.486	8594.64
478.691	8408.28
478.895	8260.82
479.1	8344.79
479.304	8416.47
479.509	7996.64
479.713	8367.32
479.918	8142.04
480.122	8027.35
480.326	8160.47
480.531	8158.42
480.735	8045.79
480.94	7959.77
481.144	8076.51
481.348	7738.59
481.553	8002.78
481.757	7656.67
481.961	7773.41
482.166	8094.94
482.37	7951.58
482.574	7779.55
482.778	7845.09
482.983	7800.03
483.187	7853.28
483.391	7814.37
483.595	7693.54
483.8	7605.47
484.004	7836.89
484.208	7933.15
484.412	7752.93
484.616	7775.45
484.821	7652.58
485.025	7550.18
485.229	7822.56
485.433	7523.55
485.637	7701.73
485.841	7535.84
486.045	7730.4
486.249	7877.85
486.453	7754.97
486.657	7828.7
486.861	7785.69
487.065	7621.86
487.269	7687.39
487.473	7611.62
487.677	7650.53
487.881	7738.59
488.085	7646.43
488.289	7857.37
488.493	7783.65
488.697	7836.89
488.901	7783.65
489.105	7814.37
489.309	7818.46
489.512	7894.24
489.716	7691.49
489.92	7947.48
490.124	7791.84
490.328	7910.62
490.531	7912.67
490.735	7972.06
490.939	7935.2
491.143	8013.02
491.346	7783.65
491.55	8109.27
491.754	7996.64
491.958	8236.25
492.161	8250.58
492.365	8266.97
492.569	8271.06
492.772	8004.83
492.976	8135.9
493.18	8242.39
493.383	8428.76
493.587	8408.28
493.79	8551.63
493.994	8537.3
494.197	8633.55
494.401	8623.31
494.605	8482
494.808	8651.99
495.012	8637.65
495.215	8824.01
495.419	8801.49
495.622	8686.8
495.825	8895.69
496.029	9047.24
496.232	9155.79
496.436	9176.27
496.639	9338.05
496.843	9438.41
497.046	9442.5
497.249	9561.28
497.453	9641.15
497.656	9727.17
497.859	9675.97
498.063	9843.9
498.266	10114.24
498.469	10091.71
498.673	10167.48
498.876	10411.19
499.079	10390.71
499.282	10601.65
499.485	10587.32
499.689	10714.29
499.892	10796.21
500.095	10765.49
500.298	11136.17
500.501	11011.25
500.705	11285.67
500.908	11463.85
501.111	11545.77
501.314	11654.31
501.517	11746.47
501.72	11941.02
501.923	12053.66
502.126	12383.38
502.329	12483.73
502.532	12207.26
502.735	12465.3
502.938	12663.96
503.141	12711.06
503.344	12915.86
503.547	13206.67
503.75	13239.44
503.953	13659.27
504.156	13579.4
504.359	13778.05
504.562	13614.21
504.765	13857.92
504.968	14302.33
505.17	13986.94
505.373	14226.56
505.576	14505.08
505.779	14693.49
505.982	14709.88
506.185	14961.78
506.387	15125.61
506.59	15236.2
506.793	15238.25
506.996	15518.82
507.198	15934.56
507.401	15938.66
507.604	15991.91
507.807	16360.54
508.009	16682.07
508.212	16583.77
508.415	16903.25
508.617	16946.26
508.82	17024.08
509.022	17040.47
509.225	17374.28
509.428	17255.5
509.63	17818.69
509.833	17853.51
510.035	18062.4
510.238	18195.52
510.44	18306.11
510.643	18838.58
510.845	18695.22
511.048	18836.53
511.25	19088.43
511.453	19100.72
511.655	19842.09
511.858	19586.09
512.06	19813.41
512.262	19866.66
512.465	20311.07
512.667	20436
512.87	20548.64
513.072	20677.66
513.274	20929.56
513.477	21261.33
513.679	21222.42
513.881	21412.88
514.084	21859.34
514.286	21877.77
514.488	21928.97
514.69	22225.92
514.893	22588.41
515.095	22602.75
515.297	22848.5
515.499	23047.16
515.701	23479.28
515.904	23557.1
516.106	23454.7
516.308	23825.39
516.51	24318.95
516.712	24224.74
516.914	24359.91
517.116	24837.08
517.318	24732.64
517.52	25056.21
517.722	25332.69
517.925	25553.87
518.127	25873.35
518.329	26012.62
518.531	26153.93
518.733	26452.93
518.935	26586.05
519.136	26631.1
519.338	27057.08
519.54	27071.42
519.742	27302.84
519.944	27601.84
520.146	27820.97
520.348	28042.15
520.55	28081.06
520.752	28296.1
520.954	29113.24
521.155	28783.52
521.357	29135.77
521.559	29320.09
521.761	29850.51
521.963	29842.32
522.164	29926.28
522.366	30036.87
522.568	30161.8
522.77	30548.87
522.971	31007.61
523.173	30694.27
523.375	31124.35
523.576	30929.79
523.778	31034.24
523.98	31841.14
524.181	31644.53
524.383	31609.71
524.584	32103.28
524.786	32179.05
524.988	32336.74
525.189	32783.2
525.391	32799.58
525.592	32889.7
525.794	33033.05
525.995	33184.6
526.197	33336.15
526.398	32992.09
526.6	33491.8
526.801	33866.58
527.003	33680.21
527.204	34089.81
527.406	33999.69
527.607	34155.34
527.808	34329.42
528.01	33528.66
528.211	34673.48
528.412	34978.62
528.614	34696
528.815	34687.81
529.016	35134.27
529.218	34927.42
529.419	35121.98
529.62	35253.05
529.822	34898.75
530.023	35134.27
530.224	35457.85
530.425	35627.83
530.626	35160.89
530.828	35099.45
531.029	36029.23
531.23	35605.3
531.431	35656.5
531.632	35715.89
531.833	36010.8
532.035	35687.22
532.236	35969.84
532.437	35908.4
532.638	35691.32
532.839	36428.59
533.04	36252.46
533.241	35722.04
533.442	36535.08
533.643	36109.1
533.844	36029.23
534.045	36524.84
534.246	36053.81
534.447	36526.89
534.648	36066.09
534.849	36580.14
535.05	36076.33
535.251	36428.59
535.451	36072.24
535.652	36590.38
535.853	36223.79
536.054	36455.21
536.255	36277.04
536.456	36154.16
536.657	36805.41
536.857	36256.56
537.058	36100.91
537.259	36571.94
537.46	36252.46
537.66	36397.87
537.861	36250.41
538.062	36236.08
538.263	36653.86
538.463	36397.87
538.664	36606.76
538.865	36537.13
539.065	36637.48
539.266	36338.47
539.466	36662.05
539.667	36479.78
539.868	36453.16
540.068	36404.01
540.269	36166.45
540.469	36608.81
540.67	36231.98
540.87	36473.64
541.071	36393.77
541.271	36694.82
541.472	36414.25
541.672	36119.34
541.873	36162.35
542.073	36115.25
542.274	36494.12
542.474	36238.12
542.675	36170.54
542.875	36115.25
543.075	36145.97
543.276	35969.84
543.476	36090.67
543.676	35992.37
543.877	35883.83
544.077	36145.97
544.277	36195.12
544.478	35912.5
544.678	36182.83
544.878	36229.93
545.078	36164.4
545.279	36004.66
545.479	35863.35
545.679	36227.88
545.879	36217.64
546.079	36172.59
546.28	35793.72
546.48	36016.94
546.68	36455.21
546.88	36281.13
547.08	36520.74
547.28	36100.91
547.48	35855.15
547.68	36105.01
547.88	36107.05
548.081	36363.05
548.281	35756.85
548.481	35941.17
548.681	36268.84
548.881	35889.97
549.081	36014.9
549.28	35906.35
549.48	35803.95
549.68	35986.22
549.88	36440.87
550.08	35527.48
550.28	36059.95
550.48	35990.32
550.68	36098.86
550.88	35738.42
551.08	36041.52
551.279	35928.88
551.479	35611.45
551.679	35685.17
551.879	36107.05
552.079	36221.74
552.278	35883.83
552.478	35996.46
552.678	35988.27
552.878	35574.58
553.077	35892.02
553.277	35615.54
553.477	35871.54
553.676	35715.89
553.876	35023.68
554.076	35595.06
554.275	35392.31
554.475	35355.45
554.674	35597.11
554.874	35783.48
555.074	35322.68
555.273	35683.12
555.473	35492.66
555.672	35535.67
555.872	35259.2
556.071	35580.73
556.271	35724.08
556.47	35066.69
556.67	34861.89
556.869	35058.49
557.068	35220.28
557.268	35033.92
557.467	35023.68
557.667	34995.01
557.866	35181.37
558.065	34982.72
558.265	34833.22
558.464	34929.47
558.663	35154.75
558.863	34440.01
559.062	35091.26
559.261	34648.9
559.461	34925.38
559.66	34542.41
559.859	34284.36
560.058	34397
560.258	34663.24
560.457	34222.92
560.656	34173.77
560.855	34253.64
561.054	34333.51
561.253	33981.26
561.453	34378.57
561.652	33991.5
561.851	34218.83
562.05	34300.75
562.249	33983.31
562.448	33979.21
562.647	34442.06
562.846	33973.07
563.045	33753.94
563.244	33741.65
563.443	33710.93
563.642	33317.72
563.841	33678.16
564.04	33229.66
564.239	33209.18
564.438	32947.04
564.637	33278.81
564.836	33385.3
565.035	32809.82
565.234	33145.69
565.432	32961.37
565.631	32469.86
565.83	33006.43
566.029	32836.45
566.228	32828.26
566.427	32697.19
566.625	32484.2
566.824	32060.27
567.023	32867.17
567.222	31929.2
567.42	32832.35
567.619	32500.58
567.818	32267.11
568.016	32172.91
568.215	31986.54
568.414	31912.81
568.612	32183.15
568.811	31834.99
569.01	31949.68
569.208	31402.87
569.407	31939.44
569.605	31320.95
569.804	31804.27
570.002	31482.74
570.201	31509.36
570.4	31189.88
570.598	30653.31
570.797	31095.67
570.995	30978.94
571.193	30606.21
571.392	31171.45
571.59	30514.05
571.789	30567.3
571.987	30827.39
572.186	30753.66
572.384	30632.83
572.582	30587.78
572.781	30382.98
572.979	29897.61
573.177	30264.2
573.376	30497.67
573.574	29877.13
573.772	30290.82
573.971	29729.68
574.169	29858.7
574.367	29922.19
574.565	29846.41
574.763	29412.24
574.962	29412.24
575.16	29553.55
575.358	29275.03
575.556	29084.57
575.754	29533.07
575.952	28955.55
576.151	29545.36
576.349	29133.72
576.547	29119.38
576.745	29133.72
576.943	28986.27
577.141	28916.64
577.339	28941.21
577.537	28793.76
577.735	28306.34
577.933	28511.14
578.131	28427.17
578.329	28375.97
578.527	28195.75
578.725	28244.9
578.923	28380.07
579.121	27792.3
579.319	27884.46
579.516	28328.87
579.714	27923.37
579.912	27917.23
580.11	27800.49
580.308	28001.19
580.506	27605.94
580.704	26880.96
580.901	27536.31
581.099	27610.03
581.297	26856.38
581.495	27139
581.692	27126.71
581.89	26938.3
582.088	27175.86
582.285	26786.75
582.483	27087.8
582.681	26989.5
582.878	26926.01
583.076	26512.32
583.274	26680.25
583.471	26422.21
583.669	26366.91
583.866	26586.05
584.064	26571.71
584.262	26246.08
584.459	26387.39
584.657	25918.41
584.854	26465.22
585.052	25785.29
585.249	25906.12
585.447	25979.85
585.644	25707.47
585.841	25957.32
586.039	25807.82
586.236	25312.21
586.434	25340.88
586.631	25566.16
586.828	25277.4
587.026	25428.95
587.223	25353.17
587.42	25123.8
587.618	25281.49
587.815	25070.55
588.012	24617.95
588.21	24763.36
588.407	25058.26
588.604	24841.18
588.801	24282.08
588.999	24493.02
589.196	24667.1
589.393	24497.12
589.59	24447.97
589.787	24169.44
589.984	24234.98
590.182	24134.63
590.379	24290.27
590.576	23809
590.773	24065
590.97	23907.3
591.167	23903.21
591.364	23663.6
591.561	23860.2
591.758	23399.41
591.955	23442.42
592.152	23362.54
592.349	23303.15
592.546	23544.81
592.743	23442.42
592.94	22887.42
593.137	23225.33
593.334	23133.17
593.531	22612.99
593.727	23041.01
593.924	22936.57
594.121	22625.28
594.318	22744.06
594.515	22551.55
594.712	22838.26
594.908	22637.56
595.105	22549.5
595.302	22297.6
595.499	22510.59
595.696	22356.99
595.892	22017.03
596.089	22242.31
596.286	22440.96
596.482	22162.44
596.679	21812.23
596.876	21857.29
597.072	21963.78
597.269	21697.55
597.466	21826.57
597.662	21881.86
597.859	21644.3
598.055	21437.45
598.252	21558.28
598.448	21658.63
598.645	21449.74
598.841	21189.65
599.038	21382.16
599.234	21361.68
599.431	21169.17
599.627	21087.25
599.824	20751.38
600.02	20900.89
600.217	20919.32
600.413	20702.23
600.609	20880.41
600.806	20556.83
601.002	20804.63
601.198	20325.41
601.395	20134.95
601.591	20442.14
601.787	20571.16
601.984	20161.57
602.18	20407.33
602.376	19885.09
602.572	20196.39
602.769	20134.95
602.965	19864.61
603.161	20134.95
603.357	19801.13
603.553	19833.89
603.75	19653.67
603.946	19717.16
604.142	19606.57
604.338	19391.53
604.534	19727.4
604.73	19622.95
604.926	19168.3
605.122	19280.94
605.318	19190.83
605.514	19172.4
605.71	19090.48
605.906	19053.62
606.102	19026.99
606.298	19188.78
606.494	19137.59
606.69	19031.09
606.886	18973.75
607.082	18553.91
607.278	18744.38
607.474	18740.28
607.67	18773.05
607.866	18392.12
608.062	18676.79
608.257	18650.17
608.453	18515
608.649	18650.17
608.845	18435.13
609.041	18211.9
609.236	18330.69
609.432	18408.51
609.628	18248.77
609.824	18385.98
610.019	18066.5
610.215	18076.74
610.411	18121.79
610.606	17681.48
610.802	18046.02
610.998	18172.99
611.193	17912.9
611.389	18089.03
611.584	18170.94
611.78	17675.34
611.976	17816.65
612.171	17945.67
612.367	17654.86
612.562	18054.21
612.758	17380.43
612.953	17583.18
613.149	17984.58
613.344	17421.39
613.539	17744.97
613.735	17566.79
613.93	17642.57
614.126	17566.79
614.321	17484.87
614.517	17441.87
614.712	17556.55
614.907	17433.68
615.103	17501.26
615.298	17294.41
615.493	17323.08
615.688	17120.34
615.884	17691.72
616.079	16807
616.274	17046.61
616.47	16899.16
616.665	17194.06
616.86	16807
617.055	16989.27
617.25	16761.94
617.445	16942.16
617.641	16409.69
617.836	16786.52
618.031	16720.98
618.226	16745.56
618.421	16479.32
618.616	16657.5
618.811	16538.71
619.006	16755.8
619.201	16139.36
619.396	16516.19
619.591	16145.5
619.786	16372.83
619.981	15877.22
620.176	16268.38
620.371	15873.12
620.566	16047.2
620.761	15909.99
620.956	16049.25
621.151	15721.57
621.346	15828.07
621.541	15391.85
621.735	15535.21
621.93	15223.92
622.125	15365.23
622.32	15111.28
622.515	15381.61
622.709	15066.22
622.904	15109.23
623.099	15221.87
623.294	14914.67
623.488	14840.95
623.683	14980.21
623.878	14468.22
624.072	14847.09
624.267	14488.7
624.462	14566.52
624.656	14251.13
624.851	14419.07
625.046	14406.78
625.24	14451.83
625.435	14161.02
625.629	13894.79
625.824	13737.09
626.018	13952.13
626.213	13520.01
626.407	13724.8
626.602	13651.08
626.796	13421.7
626.991	13464.71
627.185	13671.56
627.38	13390.99
627.574	13341.83
627.768	13304.97
627.963	13184.14
628.157	12821.65
628.352	13022.35
628.546	12729.49
628.74	12862.61
628.935	13065.36
629.129	12598.42
629.323	12733.59
629.517	12590.23
629.712	12704.92
629.906	12377.24
630.1	12237.98
630.294	12301.47
630.489	12360.86
630.683	12356.76
630.877	12188.83
631.071	12045.47
631.265	11930.78
631.459	11775.14
631.653	11721.89
631.848	11941.02
632.042	11697.31
632.236	11855.01
632.43	11613.35
632.624	11578.53
632.818	11611.3
633.012	11220.14
633.206	11386.02
633.4	11609.25
633.594	11326.63
633.788	11381.93
633.982	11162.79
634.176	11224.23
634.369	10822.83
634.563	11070.64
634.757	10933.42
634.951	11068.59
635.145	11017.39
635.339	10878.13
635.533	10650.8
635.726	10716.34
635.92	10656.95
636.114	10615.99
636.308	10568.88
636.501	10519.73
636.695	10323.13
636.889	10364.09
637.083	10345.66
637.276	10106.04
637.47	10247.35
637.664	10130.62
637.857	10044.6
638.051	9968.83
638.244	9893.05
638.438	10022.08
638.632	9944.25
638.825	9739.46
639.019	9753.79
639.212	9645.25
639.406	9905.34
639.599	9540.8
639.793	9551.04
639.986	9583.81
640.18	9501.89
640.373	9503.94
640.567	9258.18
640.76	9323.72
640.954	9178.31
641.147	8926.41
641.34	9028.81
641.534	9139.4
641.727	9131.21
641.92	9145.55
642.114	8967.37
642.307	8987.85
642.5	8955.08
642.694	8832.21
642.887	8824.01
643.08	8758.48
643.273	8572.11
643.467	8729.81
643.66	8555.73
643.853	8598.74
644.046	8320.21
644.239	8385.75
644.432	8223.96
644.626	8123.61
644.819	8240.34
645.012	8277.21
645.205	8393.94
645.398	8084.7
645.591	8248.54
645.784	8309.97
645.977	7881.95
646.17	8002.78
646.363	7754.97
646.556	7855.33
646.749	7824.61
646.942	8021.21
647.135	7781.6
647.328	7724.26
647.521	7587.04
647.714	7548.13
647.907	7554.27
648.099	7476.45
648.292	7556.32
648.485	7587.04
648.678	7335.14
648.871	7363.81
649.064	7519.46
649.256	7509.22
649.449	7273.7
649.642	7458.02
649.835	7404.77
650.027	7101.67
650.22	7404.77
650.413	7144.68
650.605	7253.22
650.798	6946.03
650.991	6982.89
651.183	6905.07
651.376	6984.94
651.568	6892.78
651.761	6900.97
651.954	6759.66
652.146	6745.33
652.339	6644.98
652.531	6802.67
652.724	6841.58
652.916	6716.65
653.109	6556.91
653.301	6737.13
653.494	6526.19
653.686	6403.32
653.879	6679.79
654.071	6417.65
654.263	6321.4
654.456	6436.08
654.648	6241.53
654.84	6249.72
655.033	6358.26
655.225	6147.32
655.417	6159.61
655.61	6286.58
655.802	6149.37
655.994	6221.05
656.186	6175.99
656.379	6141.18
656.571	6028.54
656.763	6010.11
656.955	6100.22
657.148	6053.11
657.34	5897.47
657.532	5903.61
657.724	5768.45
657.916	5860.6
658.108	5958.91
658.3	5807.36
658.492	5733.63
658.684	5698.81
658.876	5725.44
659.068	5635.33
659.26	5442.82
659.452	5563.65
659.644	5680.38
659.836	5586.18
660.028	5561.6
660.22	5479.68
660.412	5342.47
660.604	5291.27
660.796	5385.48
660.988	5428.48
661.18	5401.86
661.372	5201.16
661.563	5309.7
661.755	5328.13
661.947	5278.98
662.139	5115.14
662.331	5133.57
662.522	5143.81
662.714	5270.79
662.906	5043.46
663.097	5049.61
663.289	5160.2
663.481	5137.67
663.673	5123.34
663.864	4920.59
664.056	4945.16
664.247	4953.35
664.439	4988.17
664.631	5027.08
664.822	5117.19
665.014	4900.11
665.205	4984.07
665.397	4668.69
665.588	4873.48
665.78	4812.04
665.971	4685.07
666.163	4787.47
666.354	4814.09
666.546	4754.7
666.737	4640.01
666.929	4594.96
667.12	4625.68
667.311	4572.43
667.503	4687.12
667.694	4601.1
667.885	4605.2
668.077	4480.27
668.268	4564.24
668.459	4490.51
668.651	4531.47
668.842	4384.02
669.033	4418.83
669.224	4220.18
669.416	4470.03
669.607	4246.8
669.798	4201.75
669.989	4318.48
670.18	4465.94
670.371	4295.96
670.563	4343.06
670.754	4255
670.945	4160.79
671.136	4236.56
671.327	4326.68
671.518	4211.99
671.709	4203.8
671.9	4250.9
672.091	4234.52
672.282	3999
672.473	4109.59
672.664	4255
672.855	4228.37
673.046	4070.68
673.237	4152.6
673.428	4218.13
673.619	4093.21
673.809	4060.44
674	4103.45
674.191	4066.58
674.382	3999
674.573	3966.23
674.764	3876.12
674.954	4035.86
675.145	3931.42
675.336	3878.17
675.527	3880.22
675.717	3992.86
675.908	3898.65
676.099	3857.69
676.289	3857.69
676.48	3945.75
676.671	3683.61
676.861	3812.64
677.052	3783.96
677.243	3857.69
677.433	3888.41
677.624	3824.92
677.814	3659.04
678.005	3818.78
678.195	3745.05
678.386	3775.77
678.576	3790.11
678.767	3779.87
678.957	3702.04
679.148	3786.01
679.338	3673.37
679.529	3726.62
679.719	3685.66
679.909	3687.71
680.1	3722.52
680.29	3667.23
680.481	3714.33
680.671	3616.03
680.861	3704.09
681.052	3679.52
681.242	3503.39
681.432	3597.6
681.622	3640.61
681.813	3558.69
682.003	3589.41
682.193	3638.56
682.383	3568.93
682.573	3511.58
682.764	3697.95
682.954	3597.6
683.144	3519.78
683.334	3458.34
683.524	3579.17
683.714	3523.87
683.904	3468.58
684.094	3601.69
684.284	3474.72
684.474	3573.02
684.664	3591.45
684.854	3464.48
685.044	3456.29
685.234	3370.27
685.424	3478.82
685.614	3292.45
685.804	3446.05
685.994	3308.83
686.184	3487.01
686.374	3355.94
686.564	3405.09
686.753	3351.84
686.943	3329.31
687.133	3415.33
687.323	3308.83
687.513	3384.61
687.702	3249.44
687.892	3235.11
688.082	3317.03
688.272	3214.63
688.461	3255.59
688.651	3302.69
688.841	3228.96
689.03	3058.98
689.22	3140.9
689.41	3097.89
689.599	3052.84
689.789	3251.49
689.979	3046.69
690.168	3140.9
690.358	3122.47
690.547	3020.07
690.737	3151.14
690.926	3212.58
691.116	3128.61
691.305	3054.89
691.495	2997.54
691.684	3075.37
691.874	3095.85
692.063	2983.21
692.252	3005.74
692.442	3022.12
692.631	2985.26
692.82	2934.06
693.01	2880.81
693.199	3020.07
693.388	2975.02
693.578	2977.06
693.767	2929.96
693.956	2839.85
694.146	2856.23
694.335	2770.22
694.524	2911.53
694.713	2958.63
694.902	2848.04
695.092	2792.75
695.281	2923.82
695.47	2776.36
695.659	2784.55
695.848	2845.99
696.037	2727.21
696.226	2866.47
696.415	2694.44
696.604	2755.88
696.793	2811.18
696.982	2739.5
697.171	2690.35
697.36	2706.73
697.549	2731.31
697.738	2757.93
697.927	2817.32
698.116	2825.51
698.305	2706.73
698.494	2712.88
698.683	2682.16
698.872	2735.4
699.061	2671.92
699.25	2751.79
699.438	2721.07
699.627	2815.27
699.816	2741.55
700.005	2698.54
700.193	2743.6
700.382	2667.82
700.571	2598.19
700.76	2610.48
700.948	2606.38
701.137	2661.68
701.326	2794.79
701.514	2651.44
701.703	2653.48
701.892	2602.29
702.08	2737.45
702.269	2676.01
702.457	2680.11
702.646	2600.24
702.834	2551.09
703.023	2538.8
703.212	2594.09
703.4	2614.57
703.589	2686.25
703.777	2626.86
703.965	2639.15
704.154	2571.57
704.342	2628.91
704.531	2583.85
704.719	2508.08
704.907	2694.44
705.096	2618.67
705.284	2630.96
705.472	2663.72
705.661	2590
705.849	2663.72
706.037	2604.33
706.226	2633.01
706.414	2702.64
706.602	2581.81
706.79	2698.54
706.979	2590
707.167	2538.8
707.355	2633.01
707.543	2743.6
707.731	2618.67
707.919	2590
708.107	2590
708.296	2571.57
708.484	2520.37
708.672	2575.66
708.86	2743.6
709.048	2563.37
709.236	2676.01
709.424	2585.9
709.612	2561.33
709.8	2583.85
709.988	2596.14
710.176	2616.62
710.364	2633.01
710.551	2678.06
710.739	2712.88
710.927	2692.4
711.115	2622.77
711.303	2606.38
711.491	2573.61
711.679	2628.91
711.866	2567.47
712.054	2561.33
712.242	2571.57
712.43	2628.91
712.617	2534.7
712.805	2579.76
712.993	2526.51
713.181	2633.01
713.368	2610.48
713.556	2546.99
713.744	2563.37
713.931	2499.89
714.119	2551.09
714.306	2706.73
714.494	2661.68
714.682	2639.15
714.869	2657.58
715.057	2598.19
715.244	2551.09
715.432	2671.92
715.619	2540.85
715.807	2649.39
715.994	2532.65
716.182	2516.27
716.369	2575.66
716.556	2569.52
716.744	2577.71
716.931	2583.85
717.119	2573.61
717.306	2579.76
717.493	2559.28
717.681	2661.68
717.868	2690.35
718.055	2616.62
718.242	2551.09
718.43	2503.98
718.617	2569.52
718.804	2587.95
718.991	2573.61
719.179	2641.2
719.366	2489.65
719.553	2575.66
719.74	2594.09
719.927	2559.28
720.114	2553.13
720.301	2590
720.488	2510.13
720.676	2524.46
720.863	2565.42
721.05	2536.75
721.237	2655.53
721.424	2598.19
721.611	2524.46
721.798	2577.71
721.985	2569.52
722.172	2542.89
722.358	2503.98
722.545	2665.77
722.732	2598.19
722.919	2551.09
723.106	2559.28
723.293	2659.63
723.48	2663.72
723.667	2645.29
723.853	2600.24
724.04	2622.77
724.227	2618.67
724.414	2467.12
724.6	2508.08
724.787	2577.71
724.974	2522.41
725.161	2551.09
725.347	2551.09
725.534	2565.42
725.72	2647.34
725.907	2573.61
726.094	2622.77
726.28	2583.85
726.467	2534.7
726.653	2559.28
726.84	2487.6
727.027	2669.87
727.213	2473.26
727.4	2532.65
727.586	2446.64
727.773	2553.13
727.959	2530.61
728.145	2526.51
728.332	2530.61
728.518	2497.84
728.705	2573.61
728.891	2669.87
729.077	2594.09
729.264	2493.74
729.45	2516.27
729.636	2594.09
729.823	2559.28
730.009	2518.32
730.195	2659.63
730.382	2643.24
730.568	2544.94
730.754	2590
730.94	2610.48
731.126	2622.77
731.313	2590
731.499	2487.6
731.685	2587.95
731.871	2633.01
732.057	2610.48
732.243	2596.14
732.429	2530.61
732.615	2569.52
732.801	2444.59
732.987	2383.15
733.173	2530.61
733.359	2553.13
733.545	2579.76
733.731	2417.97
733.917	2583.85
734.103	2485.55
734.289	2475.31
734.475	2501.94
734.661	2528.56
734.847	2454.83
735.033	2563.37
735.219	2544.94
735.404	2520.37
735.59	2428.21
735.776	2456.88
735.962	2522.41
736.148	2581.81
736.333	2503.98
736.519	2424.11
736.705	2491.7
736.89	2465.07
737.076	2475.31
737.262	2366.77
737.447	2475.31
737.633	2471.22
737.819	2530.61
738.004	2383.15
738.19	2438.45
738.375	2503.98
738.561	2577.71
738.747	2321.71
738.932	2397.49
739.118	2383.15
739.303	2483.5
739.489	2387.25
739.674	2379.06
739.859	2442.54
740.045	2356.53
740.23	2303.28
740.416	2358.58
740.601	2340.15
740.786	2331.95
740.972	2344.24
741.157	2323.76
741.342	2342.19
741.528	2280.75
741.713	2243.89
741.898	2299.19
742.084	2293.04
742.269	2325.81
742.454	2342.19
742.639	2352.43
742.824	2250.03
743.01	2282.8
743.195	2233.65
743.38	2237.75
743.565	2235.7
743.75	2186.55
743.935	2219.32
744.12	2170.16
744.305	2069.81
744.49	2172.21
744.675	2145.59
744.86	2153.78
745.045	2084.15
745.23	2176.31
745.415	2067.77
745.6	2196.79
745.785	2035
745.97	2116.92
746.155	2102.58
746.34	1996.09
746.525	2039.09
746.71	2131.25
746.895	1885.5
747.079	2022.71
747.264	2043.19
747.449	2028.85
747.634	1948.98
747.819	2018.61
748.003	1910.07
748.188	1885.5
748.373	2022.71
748.557	1897.78
748.742	1885.5
748.927	2004.28
749.111	1989.94
749.296	1889.59
749.481	1903.93
749.665	1889.59
749.85	1801.53
750.034	1877.3
750.219	1774.91
750.404	1717.56
750.588	1809.72
750.773	1787.19
750.957	1740.09
751.141	1789.24
751.326	1723.71
751.51	1643.84
751.695	1760.57
751.879	1762.62
752.064	1770.81
752.248	1670.46
752.432	1744.19
752.617	1680.7
752.801	1619.26
752.985	1721.66
753.17	1576.25
753.354	1742.14
753.538	1647.93
753.722	1484.09
753.907	1457.47
754.091	1500.48
754.275	1553.73
754.459	1535.29
754.643	1520.96
754.828	1547.58
755.012	1531.2
755.196	1363.26
755.38	1518.91
755.564	1471.81
755.748	1473.85
755.932	1492.29
756.116	1482.05
756.3	1434.94
756.484	1469.76
756.668	1361.22
756.852	1393.98
757.036	1426.75
757.22	1350.98
757.404	1383.74
757.588	1318.21
757.772	1393.98
757.956	1346.88
758.14	1353.02
758.323	1338.69
758.507	1291.59
758.691	1283.39
758.875	1336.64
759.059	1336.64
759.242	1299.78
759.426	1305.92
759.61	1332.55
759.794	1275.2
759.977	1217.86
760.161	1320.26
760.345	1267.01
760.528	1168.71
760.712	1181
760.895	1207.62
761.079	1209.67
761.263	1162.56
761.446	1146.18
761.63	1322.31
761.813	1232.19
761.997	1154.37
762.18	1148.23
762.364	1219.91
762.547	1094.98
762.731	1158.47
762.914	1084.74
763.098	1041.73
763.281	1127.75
763.464	1178.95
763.648	1088.84
763.831	1117.51
764.015	1047.88
764.198	1037.64
764.381	1101.12
764.564	1209.67
764.748	1082.69
764.931	994.63
765.114	1045.83
765.297	1154.37
765.481	998.73
765.664	1084.74
765.847	1047.88
766.03	1107.27
766.213	1049.93
766.397	1037.64
766.58	1027.4
766.763	1023.3
766.946	1094.98
767.129	1031.49
767.312	914.76
767.495	998.73
767.678	1006.92
767.861	1011.01
768.044	957.77
768.227	1023.3
768.41	904.52
768.593	990.53
768.776	980.29
768.959	1039.69
769.142	1017.16
769.324	929.1
769.507	877.9
769.69	863.56
769.873	910.66
770.056	1058.12
770.239	922.95
770.421	937.29
770.604	963.91
770.787	904.52
770.97	968.01
771.152	900.42
771.335	896.33
771.518	910.66
771.7	908.62
771.883	818.5
772.066	849.22
772.248	992.58
772.431	877.9
772.613	771.4
772.796	820.55
772.978	824.65
773.161	888.14
773.343	873.8
773.526	771.4
773.708	783.69
773.891	755.02
774.073	806.22
774.256	808.26
774.438	832.84
774.621	789.83
774.803	740.68
774.985	789.83
775.168	736.59
775.35	795.98
775.532	744.78
775.715	759.11
775.897	744.78
776.079	847.18
776.261	798.03
776.444	771.4
776.626	779.59
776.808	750.92
776.99	734.54
777.173	736.59
777.355	841.03
777.537	765.26
777.719	714.06
777.901	652.62
778.083	681.29
778.265	738.63
778.447	707.91
778.629	709.96
778.811	644.43
778.993	720.2
779.175	691.53
779.357	669
779.539	585.04
779.721	671.05
779.903	632.14
780.085	623.95
780.267	562.51
780.449	646.48
780.631	628.04
780.812	593.23
780.994	677.19
781.176	666.96
781.358	574.8
781.54	468.3
781.721	646.48
781.903	617.8
782.085	576.84
782.267	599.37
782.448	578.89
782.63	554.32
782.812	535.89
782.993	535.89
783.175	523.6
783.357	539.98
783.538	501.07
783.72	529.74
783.901	433.49
784.083	632.14
784.264	548.17
784.446	499.02
784.627	480.59
784.809	470.35
784.99	453.97
785.172	537.93
785.353	462.16
785.535	415.05
785.716	453.97
785.897	386.38
786.079	447.82
786.26	460.11
786.441	486.73
786.623	423.25
786.804	490.83
786.985	419.15
787.167	509.26
787.348	492.88
787.529	482.64
787.71	470.35
787.891	370
788.073	400.72
788.254	466.25
788.435	415.05
788.616	462.16
788.797	310.61
788.978	408.91
789.159	445.77
789.34	460.11
789.522	410.96
789.703	427.34
789.884	380.24
790.065	413.01
790.246	341.33
790.427	396.62
790.607	398.67
790.788	427.34
790.969	333.14
791.15	427.34
791.331	413.01
791.512	404.82
791.693	292.18
791.874	376.14
792.054	382.29
792.235	447.82
792.416	292.18
792.597	410.96
792.778	273.75
792.958	337.23
793.139	439.63
793.32	365.9
793.5	292.18
793.681	429.39
793.862	314.7
794.042	308.56
794.223	316.75
794.404	288.08
794.584	316.75
794.765	298.32
794.945	376.14
795.126	349.52
795.306	324.94
795.487	269.65
795.667	318.8
795.848	306.51
796.028	384.34
796.209	345.42
796.389	341.33
796.57	347.47
796.75	343.38
796.93	296.27
797.111	245.07
797.291	316.75
797.471	247.12
797.652	353.62
797.832	283.98
798.012	243.03
798.192	290.13
798.373	257.36
798.553	259.41
798.733	296.27
798.913	306.51
799.093	269.65
799.274	292.18
799.454	208.21
799.634	240.98
799.814	279.89
799.994	304.46
800.174	316.75
800.354	273.75
800.534	214.35
800.714	298.32
800.894	279.89
801.074	202.07
801.254	232.79
801.434	210.26
801.614	292.18
801.794	191.83
801.974	623.95
802.154	243.03
802.334	202.07
802.514	261.46
802.693	279.89
802.873	148.82
803.053	243.03
803.233	251.22
803.413	261.46
803.592	204.11
803.772	216.4
803.952	202.07
804.131	210.26
804.311	265.55
804.491	275.79
804.67	169.3
804.85	206.16
805.03	296.27
805.209	222.55
805.389	222.55
805.568	249.17
805.748	193.87
805.928	281.94
806.107	224.59
806.287	290.13
806.466	202.07
806.646	169.3
806.825	236.88
807.004	212.31
807.184	243.03
807.363	218.45
807.543	99.67
807.722	245.07
807.901	140.63
808.081	318.8
808.26	154.96
808.439	245.07
808.619	234.83
808.798	216.4
808.977	191.83
809.156	169.3
809.336	189.78
809.515	222.55
809.694	197.97
809.873	177.49
810.052	191.83
810.231	202.07
810.411	195.92
810.59	107.86
810.769	230.74
810.948	257.36
811.127	122.2
811.306	181.59
811.485	169.3
811.664	240.98
811.843	154.96
812.022	222.55
812.201	191.83
812.38	171.35
812.559	181.59
812.737	187.73
812.916	116.05
813.095	124.24
813.274	71
813.453	134.48
813.632	202.07
813.811	107.86
813.989	87.38
814.168	234.83
814.347	218.45
814.526	167.25
814.704	206.16
814.883	253.27
815.062	134.48
815.24	148.82
815.419	181.59
815.598	191.83
815.776	146.77
815.955	167.25
816.133	163.15
816.312	128.34
816.49	218.45
816.669	136.53
816.847	124.24
817.026	191.83
817.204	134.48
817.383	185.68
817.561	148.82
817.74	144.72
817.918	173.39
818.097	128.34
818.275	138.58
818.453	165.2
818.632	124.24
818.81	212.31
818.988	132.44
819.167	134.48
819.345	126.29
819.523	79.19
819.701	144.72
819.879	187.73
820.058	146.77
820.236	114
820.414	165.2
820.592	116.05
820.77	171.35
820.948	118.1
821.127	60.76
821.305	130.39
821.483	58.71
821.661	202.07
821.839	171.35
822.017	126.29
822.195	60.76
822.373	134.48
822.551	126.29
822.729	140.63
822.907	97.62
823.085	109.91
823.262	17.75
823.44	66.9
823.618	148.82
823.796	150.87
823.974	142.68
824.152	68.95
824.329	64.85
824.507	97.62
824.685	114
824.863	165.2
825.04	103.76
825.218	140.63
825.396	111.96
825.574	99.67
825.751	27.99
825.929	83.28
826.107	124.24
826.284	159.06
826.462	146.77
826.639	93.52
826.817	46.42
826.994	40.28
827.172	116.05
827.349	79.19
827.527	118.1
827.704	101.72
827.882	138.58
828.059	66.9
828.237	103.76
828.414	128.34
828.591	-15.02
828.769	71
828.946	107.86
829.124	15.7
829.301	114
829.478	52.56
829.655	91.48
829.833	159.06
830.01	77.14
830.187	107.86
830.364	157.01
830.542	105.81
830.719	79.19
830.896	93.52
831.073	56.66
831.25	-27.31
831.427	77.14
831.604	73.04
831.782	89.43
831.959	81.24
832.136	79.19
832.313	109.91
832.49	75.09
832.667	130.39
832.844	118.1
833.021	93.52
833.198	103.76
833.374	23.89
833.551	134.48
833.728	9.56
833.905	109.91
834.082	101.72
834.259	68.95
834.436	91.48
834.612	81.24
834.789	116.05
834.966	68.95
835.143	87.38
835.319	66.9
835.496	109.91
835.673	89.43
835.85	91.48
836.026	107.86
836.203	38.23
836.38	68.95
836.556	64.85
836.733	79.19
836.909	146.77
837.086	173.39
837.262	-21.16
837.439	25.94
837.616	50.52
837.792	75.09
837.968	77.14
838.145	23.89
838.321	73.04
838.498	157.01
838.674	7.51
838.851	42.32
839.027	60.76
839.203	95.57
839.38	44.37
839.556	107.86
839.732	75.09
839.909	36.18
840.085	208.21
840.261	44.37
840.437	79.19
840.614	71
840.79	68.95
840.966	-12.97
841.142	21.85
841.318	15.7
841.494	23.89
841.671	54.61
841.847	54.61
842.023	48.47
842.199	42.32
842.375	52.56
842.551	-51.88
842.727	9.56
842.903	56.66
843.079	60.76
843.255	103.76
843.431	134.48
843.607	50.52
843.783	44.37
843.959	40.28
844.134	-8.87
844.31	91.48
844.486	109.91
844.662	13.65
844.838	19.8
845.013	36.18
845.189	3.41
845.365	58.71
845.541	40.28
845.716	-0.68
845.892	83.28
846.068	73.04
846.244	-33.45
846.419	40.28
846.595	79.19
846.77	68.95
846.946	-0.68
847.122	46.42
847.297	5.46
847.473	73.04
847.648	-25.26
847.824	11.61
847.999	19.8
848.175	34.13
848.35	105.81
848.526	101.72
848.701	85.33
848.876	89.43
849.052	48.47
849.227	64.85
849.403	17.75
849.578	103.76
849.753	40.28
849.929	111.96
850.104	-10.92
850.279	5.46
850.454	54.61
850.63	73.04
850.805	-12.97
850.98	58.71
851.155	30.04
851.33	44.37
851.505	-25.26
851.681	95.57
851.856	30.04
852.031	103.76
852.206	95.57
852.381	138.58
852.556	-33.45
852.731	93.52
852.906	48.47
853.081	32.08
853.256	19.8
853.431	77.14
853.606	1.37
853.781	95.57
853.956	-60.07
854.131	48.47
854.305	44.37
854.48	77.14
854.655	58.71
854.83	30.04
855.005	1.37
855.18	-23.21
855.354	91.48
855.529	19.8
855.704	56.66
855.879	-19.11
856.053	-10.92
856.228	36.18
856.403	30.04
856.577	42.32
856.752	-29.35
856.926	21.85
857.101	25.94
857.276	-6.83
857.45	-23.21
857.625	93.52
857.799	-2.73
857.974	73.04
858.148	23.89
858.323	60.76
858.497	21.85
858.672	30.04
858.846	-25.26
859.02	21.85
859.195	32.08
859.369	11.61
859.543	50.52
859.718	15.7
859.892	48.47
860.066	60.76
860.241	-17.07
860.415	19.8
860.589	-4.78
860.763	56.66
860.938	5.46
861.112	-19.11
861.286	36.18
861.46	52.56
861.634	54.61
861.808	54.61
861.982	23.89
862.157	17.75
862.331	1.37
862.505	15.7
862.679	17.75
862.853	-45.74
863.027	32.08
863.201	60.76
863.375	42.32
863.549	17.75
863.722	27.99
863.896	89.43
864.07	-6.83
864.244	13.65
864.418	-23.21
864.592	73.04
864.766	7.51
864.939	66.9
865.113	-33.45
865.287	21.85
865.461	-8.87
865.634	15.7
865.808	19.8
865.982	62.8
866.156	62.8
866.329	109.91
866.503	64.85
866.676	68.95
866.85	85.33
867.024	-0.68
867.197	58.71
867.371	32.08
867.544	27.99
867.718	21.85
867.891	-12.97
868.065	17.75
868.238	52.56
868.412	9.56
868.585	64.85
868.759	-45.74
868.932	13.65
869.105	3.41
869.279	15.7
869.452	-6.83
869.625	-43.69
869.799	32.08
869.972	38.23
870.145	19.8
870.319	62.8
870.492	66.9
870.665	101.72
870.838	-10.92
871.011	11.61
871.185	-10.92
871.358	1.37
871.531	68.95
871.704	27.99
871.877	11.61
872.05	15.7
872.223	68.95
872.396	58.71
872.569	44.37
872.742	-4.78
872.915	50.52
873.088	-49.83
873.261	38.23
873.434	7.51
873.607	34.13
873.78	58.71
873.953	-72.36
874.126	99.67
874.299	42.32
874.471	-23.21
874.644	-35.5
874.817	-12.97
874.99	99.67
875.163	50.52
875.335	40.28
875.508	40.28
875.681	40.28
875.853	15.7
876.026	-58.03
876.199	85.33
876.371	9.56
876.544	-25.26
876.717	58.71
876.889	68.95
877.062	38.23
877.234	23.89
877.407	75.09
877.579	-47.79
877.752	-19.11
877.924	9.56
878.097	60.76
878.269	40.28
878.442	52.56
878.614	17.75
878.786	21.85
878.959	81.24
879.131	11.61
879.303	1.37
879.476	68.95
879.648	58.71
879.82	23.89
879.993	25.94
880.165	32.08
880.337	73.04
880.509	27.99
880.681	-17.07
880.854	-15.02
881.026	48.47
881.198	103.76
881.37	1.37
881.542	7.51
881.714	23.89
881.886	-55.98
882.058	40.28
882.23	50.52
882.402	19.8
882.574	46.42
882.746	38.23
882.918	42.32
883.09	73.04
883.262	-2.73
883.434	23.89
883.606	-23.21
883.778	19.8
883.95	36.18
884.122	68.95
884.293	40.28
884.465	50.52
884.637	-15.02
884.809	-2.73
884.98	52.56
885.152	-27.31
885.324	36.18
885.496	-74.41
885.667	-8.87
885.839	1.37
886.011	1.37
886.182	17.75
886.354	-8.87
886.525	1.37
886.697	97.62
886.869	-101.03
887.04	44.37
887.212	25.94
887.383	68.95
887.555	17.75
887.726	-39.59
887.897	5.46
888.069	66.9
888.24	-17.07
888.412	-10.92
888.583	32.08
888.754	7.51
888.926	-35.5
889.097	-55.98
889.268	15.7
889.44	62.8
889.611	-66.22
889.782	-10.92
889.953	11.61
890.125	19.8
890.296	44.37
890.467	-2.73
890.638	1.37
890.809	44.37
890.98	25.94
891.151	23.89
891.323	97.62
891.494	-45.74
891.665	9.56
891.836	27.99
892.007	-35.5
892.178	44.37
892.349	21.85
892.52	40.28
892.691	-60.07
892.862	44.37
893.032	15.7
893.203	9.56
893.374	42.32
893.545	27.99
893.716	13.65
893.887	36.18
894.057	40.28
894.228	-12.97
894.399	-17.07
894.57	-31.4
894.74	-33.45
894.911	46.42
895.082	40.28
895.253	9.56
895.423	-29.35
895.594	-17.07
895.764	89.43
895.935	13.65
896.106	42.32
896.276	52.56
896.447	-23.21
896.617	44.37
896.788	-17.07
896.958	75.09
897.129	21.85
897.299	-12.97
897.47	44.37
897.64	68.95
897.81	64.85
897.981	91.48
898.151	25.94
898.322	1.37
898.492	9.56
898.662	52.56
898.832	-4.78
899.003	-12.97
899.173	-29.35
899.343	25.94
899.513	42.32
