Data from USB4F104151__45__11-51-49-467.txt Node

Date: Fri Mar 14 11:51:49 EDT 2025
User: louis
Spectrometer: USB4F10415
Trigger mode: 4
Integration Time (sec): 2.000000E-2
Scans to average: 1
Electric dark correction enabled: true
Nonlinearity correction enabled: false
Boxcar width: 0
XAxis mode: Wavelengths
Number of Pixels in Spectrum: 3648
>>>>>Begin Spectral Data<<<<<
178.204	-95.23
178.424	-95.23
178.644	-95.23
178.864	-97.28
179.084	-115.71
179.304	-3.07
179.524	-39.94
179.744	1.02
179.964	-31.74
180.184	82.94
180.404	-5.12
180.624	-17.41
180.844	50.18
181.064	-25.6
181.283	-23.55
181.503	23.55
181.723	-11.26
181.943	33.79
182.163	70.65
182.383	-1.02
182.602	41.98
182.822	-21.5
183.042	-1.02
183.262	-3.07
183.482	48.13
183.701	11.26
183.921	9.22
184.141	7.17
184.361	9.22
184.58	7.17
184.8	37.89
185.02	27.65
185.239	128
185.459	-17.41
185.679	5.12
185.898	-39.94
186.118	70.65
186.338	29.7
186.557	44.03
186.777	35.84
186.997	70.65
187.216	-78.85
187.436	39.94
187.655	66.56
187.875	52.22
188.095	-11.26
188.314	21.5
188.534	84.99
188.753	-23.55
188.973	87.04
189.192	23.55
189.412	-60.42
189.631	27.65
189.851	25.6
190.07	7.17
190.29	-46.08
190.509	13.31
190.729	70.65
190.948	60.42
191.168	113.66
191.387	21.5
191.607	-60.42
191.826	29.7
192.045	-5.12
192.265	-5.12
192.484	-15.36
192.704	58.37
192.923	-7.17
193.142	41.98
193.362	29.7
193.581	46.08
193.8	-15.36
194.02	33.79
194.239	54.27
194.458	1.02
194.678	-5.12
194.897	68.61
195.116	33.79
195.335	27.65
195.555	56.32
195.774	31.74
195.993	29.7
196.212	54.27
196.432	-37.89
196.651	-29.7
196.87	60.42
197.089	56.32
197.308	66.56
197.528	7.17
197.747	-74.75
197.966	3.07
198.185	107.52
198.404	31.74
198.623	1.02
198.842	84.99
199.062	23.55
199.281	50.18
199.5	-17.41
199.719	82.94
199.938	121.85
200.157	105.47
200.376	37.89
200.595	72.7
200.814	97.28
201.033	93.18
201.252	58.37
201.471	13.31
201.69	29.7
201.909	25.6
202.128	39.94
202.347	-17.41
202.566	-1.02
202.785	39.94
203.004	23.55
203.223	23.55
203.442	54.27
203.661	44.03
203.879	7.17
204.098	80.89
204.317	33.79
204.536	89.09
204.755	105.47
204.974	74.75
205.193	23.55
205.411	72.7
205.63	-41.98
205.849	80.89
206.068	17.41
206.287	9.22
206.505	-29.7
206.724	33.79
206.943	15.36
207.162	64.51
207.381	23.55
207.599	66.56
207.818	7.17
208.037	-15.36
208.255	-15.36
208.474	52.22
208.693	-15.36
208.911	-1.02
209.13	25.6
209.349	23.55
209.567	35.84
209.786	64.51
210.005	7.17
210.223	33.79
210.442	-11.26
210.661	46.08
210.879	31.74
211.098	13.31
211.316	31.74
211.535	56.32
211.753	-17.41
211.972	44.03
212.191	37.89
212.409	15.36
212.628	62.46
212.846	-41.98
213.065	46.08
213.283	78.85
213.502	-3.07
213.72	-13.31
213.938	3.07
214.157	13.31
214.375	-31.74
214.594	9.22
214.812	23.55
215.031	35.84
215.249	35.84
215.467	46.08
215.686	-27.65
215.904	37.89
216.122	62.46
216.341	39.94
216.559	35.84
216.778	-15.36
216.996	19.46
217.214	56.32
217.432	58.37
217.651	-70.65
217.869	31.74
218.087	46.08
218.306	113.66
218.524	58.37
218.742	-23.55
218.96	25.6
219.179	66.56
219.397	80.89
219.615	113.66
219.833	-29.7
220.051	-17.41
220.27	31.74
220.488	70.65
220.706	15.36
220.924	41.98
221.142	56.32
221.36	-9.22
221.578	41.98
221.796	1.02
222.015	19.46
222.233	113.66
222.451	95.23
222.669	-7.17
222.887	68.61
223.105	19.46
223.323	-9.22
223.541	-41.98
223.759	23.55
223.977	91.13
224.195	54.27
224.413	37.89
224.631	5.12
224.849	9.22
225.067	37.89
225.285	-7.17
225.503	-15.36
225.721	-13.31
225.939	33.79
226.157	74.75
226.375	17.41
226.592	19.46
226.81	44.03
227.028	-44.03
227.246	62.46
227.464	62.46
227.682	44.03
227.9	-15.36
228.117	89.09
228.335	-5.12
228.553	-35.84
228.771	23.55
228.989	95.23
229.206	99.33
229.424	-13.31
229.642	19.46
229.86	-41.98
230.077	87.04
230.295	3.07
230.513	7.17
230.731	105.47
230.948	125.95
231.166	62.46
231.384	21.5
231.601	-23.55
231.819	15.36
232.037	48.13
232.254	-15.36
232.472	64.51
232.689	27.65
232.907	27.65
233.125	52.22
233.342	21.5
233.56	21.5
233.777	3.07
233.995	1.02
234.213	48.13
234.43	7.17
234.648	7.17
234.865	48.13
235.083	52.22
235.3	54.27
235.518	66.56
235.735	-5.12
235.953	66.56
236.17	1.02
236.388	54.27
236.605	105.47
236.822	21.5
237.04	80.89
237.257	27.65
237.475	29.7
237.692	23.55
237.909	87.04
238.127	-1.02
238.344	11.26
238.562	46.08
238.779	35.84
238.996	-52.22
239.214	19.46
239.431	25.6
239.648	-1.02
239.865	13.31
240.083	74.75
240.3	-37.89
240.517	3.07
240.735	121.85
240.952	93.18
241.169	68.61
241.386	-13.31
241.603	7.17
241.821	-21.5
242.038	15.36
242.255	31.74
242.472	50.18
242.689	-11.26
242.907	95.23
243.124	41.98
243.341	27.65
243.558	7.17
243.775	41.98
243.992	-13.31
244.209	5.12
244.426	84.99
244.643	97.28
244.86	-44.03
245.078	74.75
245.295	84.99
245.512	-21.5
245.729	23.55
245.946	46.08
246.163	80.89
246.38	23.55
246.597	56.32
246.814	-19.46
247.031	17.41
247.248	-37.89
247.464	31.74
247.681	-21.5
247.898	29.7
248.115	87.04
248.332	48.13
248.549	-7.17
248.766	35.84
248.983	50.18
249.2	62.46
249.417	54.27
249.633	66.56
249.85	76.8
250.067	-5.12
250.284	25.6
250.501	41.98
250.717	109.57
250.934	-7.17
251.151	-21.5
251.368	-31.74
251.585	9.22
251.801	76.8
252.018	76.8
252.235	48.13
252.451	19.46
252.668	11.26
252.885	97.28
253.102	39.94
253.318	46.08
253.535	52.22
253.752	35.84
253.968	31.74
254.185	46.08
254.401	17.41
254.618	41.98
254.835	5.12
255.051	-33.79
255.268	27.65
255.484	15.36
255.701	25.6
255.917	134.14
256.134	13.31
256.351	7.17
256.567	31.74
256.784	68.61
257	29.7
257.217	52.22
257.433	101.37
257.65	48.13
257.866	35.84
258.082	21.5
258.299	15.36
258.515	33.79
258.732	17.41
258.948	9.22
259.165	52.22
259.381	7.17
259.597	70.65
259.814	33.79
260.03	41.98
260.246	27.65
260.463	7.17
260.679	44.03
260.895	11.26
261.112	54.27
261.328	-1.02
261.544	-35.84
261.761	109.57
261.977	-11.26
262.193	-37.89
262.409	44.03
262.626	27.65
262.842	-48.13
263.058	29.7
263.274	78.85
263.49	-27.65
263.707	66.56
263.923	48.13
264.139	-7.17
264.355	50.18
264.571	125.95
264.787	89.09
265.004	82.94
265.22	56.32
265.436	-7.17
265.652	50.18
265.868	23.55
266.084	-46.08
266.3	-21.5
266.516	19.46
266.732	37.89
266.948	1.02
267.164	5.12
267.38	-1.02
267.596	1.02
267.812	37.89
268.028	64.51
268.244	-3.07
268.46	11.26
268.676	109.57
268.892	44.03
269.108	-5.12
269.324	78.85
269.54	-31.74
269.756	33.79
269.972	15.36
270.188	66.56
270.403	50.18
270.619	15.36
270.835	-31.74
271.051	15.36
271.267	-5.12
271.483	17.41
271.698	87.04
271.914	37.89
272.13	-7.17
272.346	1.02
272.562	60.42
272.777	95.23
272.993	78.85
273.209	27.65
273.425	9.22
273.64	-11.26
273.856	84.99
274.072	50.18
274.287	58.37
274.503	50.18
274.719	25.6
274.934	-48.13
275.15	-37.89
275.366	132.09
275.581	72.7
275.797	-5.12
276.012	54.27
276.228	1.02
276.444	31.74
276.659	82.94
276.875	15.36
277.09	103.42
277.306	74.75
277.521	64.51
277.737	-13.31
277.952	48.13
278.168	11.26
278.383	7.17
278.599	56.32
278.814	60.42
279.03	-37.89
279.245	87.04
279.461	19.46
279.676	56.32
279.892	33.79
280.107	-39.94
280.322	-9.22
280.538	-25.6
280.753	5.12
280.969	123.9
281.184	-39.94
281.399	-11.26
281.615	19.46
281.83	78.85
282.045	3.07
282.26	25.6
282.476	-27.65
282.691	97.28
282.906	13.31
283.122	-15.36
283.337	-35.84
283.552	-3.07
283.767	-35.84
283.983	52.22
284.198	21.5
284.413	9.22
284.628	-50.18
284.843	62.46
285.058	-39.94
285.274	76.8
285.489	78.85
285.704	87.04
285.919	-9.22
286.134	64.51
286.349	-37.89
286.564	19.46
286.779	25.6
286.995	1.02
287.21	-29.7
287.425	11.26
287.64	-7.17
287.855	7.17
288.07	25.6
288.285	91.13
288.5	23.55
288.715	21.5
288.93	-52.22
289.145	-13.31
289.36	41.98
289.575	48.13
289.79	39.94
290.004	84.99
290.219	72.7
290.434	17.41
290.649	-29.7
290.864	7.17
291.079	66.56
291.294	89.09
291.509	-15.36
291.724	52.22
291.938	-54.27
292.153	21.5
292.368	13.31
292.583	11.26
292.798	50.18
293.012	21.5
293.227	17.41
293.442	64.51
293.657	-7.17
293.871	68.61
294.086	64.51
294.301	13.31
294.516	46.08
294.73	66.56
294.945	13.31
295.16	23.55
295.374	82.94
295.589	52.22
295.804	70.65
296.018	19.46
296.233	29.7
296.447	72.7
296.662	-5.12
296.877	62.46
297.091	142.33
297.306	33.79
297.52	66.56
297.735	21.5
297.949	50.18
298.164	31.74
298.378	76.8
298.593	7.17
298.807	-56.32
299.022	25.6
299.236	111.61
299.451	78.85
299.665	56.32
299.88	19.46
300.094	15.36
300.309	15.36
300.523	48.13
300.737	56.32
300.952	105.47
301.166	54.27
301.381	44.03
301.595	39.94
301.809	-23.55
302.024	-23.55
302.238	-9.22
302.452	37.89
302.667	-13.31
302.881	44.03
303.095	78.85
303.309	13.31
303.524	21.5
303.738	56.32
303.952	-13.31
304.166	15.36
304.381	-50.18
304.595	21.5
304.809	-80.89
305.023	74.75
305.237	29.7
305.452	64.51
305.666	87.04
305.88	68.61
306.094	37.89
306.308	52.22
306.522	97.28
306.736	89.09
306.95	76.8
307.164	37.89
307.379	39.94
307.593	13.31
307.807	19.46
308.021	35.84
308.235	35.84
308.449	-3.07
308.663	50.18
308.877	46.08
309.091	44.03
309.305	84.99
309.519	7.17
309.733	84.99
309.947	1.02
310.161	66.56
310.374	58.37
310.588	50.18
310.802	-93.18
311.016	13.31
311.23	5.12
311.444	87.04
311.658	46.08
311.872	27.65
312.085	72.7
312.299	5.12
312.513	23.55
312.727	66.56
312.941	103.42
313.154	31.74
313.368	19.46
313.582	62.46
313.796	107.52
314.009	-84.99
314.223	9.22
314.437	35.84
314.651	72.7
314.864	19.46
315.078	62.46
315.292	46.08
315.505	17.41
315.719	82.94
315.933	-3.07
316.146	-50.18
316.36	25.6
316.573	64.51
316.787	56.32
317.001	82.94
317.214	-19.46
317.428	93.18
317.641	3.07
317.855	27.65
318.068	15.36
318.282	15.36
318.495	13.31
318.709	41.98
318.922	5.12
319.136	56.32
319.349	41.98
319.563	78.85
319.776	11.26
319.99	23.55
320.203	-19.46
320.417	44.03
320.63	15.36
320.843	105.47
321.057	7.17
321.27	48.13
321.483	103.42
321.697	168.96
321.91	-11.26
322.124	78.85
322.337	58.37
322.55	25.6
322.763	68.61
322.977	9.22
323.19	23.55
323.403	68.61
323.617	13.31
323.83	-7.17
324.043	-1.02
324.256	25.6
324.469	-31.74
324.683	109.57
324.896	23.55
325.109	17.41
325.322	-21.5
325.535	115.71
325.748	58.37
325.962	31.74
326.175	-9.22
326.388	29.7
326.601	82.94
326.814	33.79
327.027	17.41
327.24	25.6
327.453	21.5
327.666	64.51
327.879	125.95
328.092	60.42
328.305	-3.07
328.518	56.32
328.731	76.8
328.944	7.17
329.157	13.31
329.37	52.22
329.583	80.89
329.796	52.22
330.009	68.61
330.222	35.84
330.435	107.52
330.648	91.13
330.861	-35.84
331.073	72.7
331.286	54.27
331.499	72.7
331.712	17.41
331.925	35.84
332.138	-11.26
332.35	72.7
332.563	-13.31
332.776	31.74
332.989	58.37
333.202	56.32
333.414	5.12
333.627	35.84
333.84	-50.18
334.053	76.8
334.265	-19.46
334.478	39.94
334.691	11.26
334.903	35.84
335.116	52.22
335.329	-35.84
335.541	76.8
335.754	70.65
335.966	5.12
336.179	78.85
336.392	21.5
336.604	29.7
336.817	91.13
337.029	41.98
337.242	54.27
337.454	80.89
337.667	84.99
337.88	52.22
338.092	-5.12
338.305	41.98
338.517	66.56
338.729	91.13
338.942	128
339.154	-19.46
339.367	-21.5
339.579	-17.41
339.792	-11.26
340.004	56.32
340.217	15.36
340.429	29.7
340.641	-23.55
340.854	17.41
341.066	3.07
341.278	-15.36
341.491	31.74
341.703	70.65
341.915	37.89
342.128	70.65
342.34	-15.36
342.552	84.99
342.764	29.7
342.977	31.74
343.189	-21.5
343.401	62.46
343.613	17.41
343.826	76.8
344.038	21.5
344.25	66.56
344.462	52.22
344.674	62.46
344.886	115.71
345.099	91.13
345.311	-35.84
345.523	66.56
345.735	39.94
345.947	7.17
346.159	50.18
346.371	48.13
346.583	-31.74
346.795	54.27
347.007	46.08
347.219	119.81
347.431	52.22
347.643	78.85
347.855	95.23
348.067	29.7
348.279	-17.41
348.491	-7.17
348.703	48.13
348.915	54.27
349.127	-11.26
349.339	9.22
349.551	46.08
349.763	58.37
349.975	3.07
350.187	89.09
350.399	-1.02
350.61	39.94
350.822	37.89
351.034	56.32
351.246	31.74
351.458	33.79
351.669	33.79
351.881	93.18
352.093	-3.07
352.305	27.65
352.517	60.42
352.728	29.7
352.94	54.27
353.152	107.52
353.363	-35.84
353.575	119.81
353.787	154.62
353.999	15.36
354.21	72.7
354.422	121.85
354.633	3.07
354.845	113.66
355.057	89.09
355.268	35.84
355.48	21.5
355.692	-48.13
355.903	1.02
356.115	41.98
356.326	25.6
356.538	44.03
356.749	35.84
356.961	54.27
357.172	29.7
357.384	78.85
357.595	70.65
357.807	-48.13
358.018	23.55
358.23	37.89
358.441	62.46
358.653	19.46
358.864	-25.6
359.075	84.99
359.287	25.6
359.498	64.51
359.709	50.18
359.921	39.94
360.132	15.36
360.344	44.03
360.555	-62.46
360.766	164.86
360.977	-33.79
361.189	15.36
361.4	93.18
361.611	60.42
361.823	64.51
362.034	82.94
362.245	-62.46
362.456	3.07
362.667	54.27
362.879	11.26
363.09	23.55
363.301	56.32
363.512	39.94
363.723	27.65
363.935	74.75
364.146	1.02
364.357	95.23
364.568	46.08
364.779	46.08
364.99	84.99
365.201	41.98
365.412	97.28
365.623	19.46
365.834	50.18
366.045	50.18
366.256	56.32
366.467	33.79
366.678	-5.12
366.889	74.75
367.1	7.17
367.311	78.85
367.522	15.36
367.733	93.18
367.944	62.46
368.155	-11.26
368.366	15.36
368.577	84.99
368.788	64.51
368.999	78.85
369.209	13.31
369.42	101.37
369.631	130.05
369.842	117.76
370.053	-1.02
370.264	66.56
370.474	60.42
370.685	5.12
370.896	1.02
371.107	62.46
371.317	35.84
371.528	25.6
371.739	31.74
371.95	21.5
372.16	84.99
372.371	-13.31
372.582	68.61
372.792	58.37
373.003	91.13
373.214	39.94
373.424	140.29
373.635	3.07
373.846	58.37
374.056	80.89
374.267	97.28
374.477	62.46
374.688	37.89
374.898	21.5
375.109	9.22
375.319	-3.07
375.53	111.61
375.74	1.02
375.951	115.71
376.161	60.42
376.372	48.13
376.582	23.55
376.793	99.33
377.003	54.27
377.214	-13.31
377.424	25.6
377.635	54.27
377.845	66.56
378.055	56.32
378.266	48.13
378.476	19.46
378.686	107.52
378.897	60.42
379.107	37.89
379.317	-21.5
379.528	31.74
379.738	-5.12
379.948	31.74
380.158	41.98
380.369	89.09
380.579	35.84
380.789	66.56
380.999	-9.22
381.21	101.37
381.42	132.09
381.63	39.94
381.84	78.85
382.05	101.37
382.261	13.31
382.471	82.94
382.681	7.17
382.891	62.46
383.101	82.94
383.311	68.61
383.521	72.7
383.731	70.65
383.941	25.6
384.151	46.08
384.361	25.6
384.571	15.36
384.781	136.19
384.991	37.89
385.201	87.04
385.411	128
385.621	54.27
385.831	31.74
386.041	62.46
386.251	48.13
386.461	107.52
386.671	-15.36
386.881	74.75
387.091	46.08
387.301	54.27
387.511	70.65
387.72	66.56
387.93	72.7
388.14	37.89
388.35	41.98
388.56	44.03
388.769	140.29
388.979	52.22
389.189	-7.17
389.399	76.8
389.609	58.37
389.818	48.13
390.028	15.36
390.238	5.12
390.447	37.89
390.657	48.13
390.867	35.84
391.076	142.33
391.286	5.12
391.496	76.8
391.705	134.14
391.915	99.33
392.125	-7.17
392.334	66.56
392.544	52.22
392.753	60.42
392.963	19.46
393.172	50.18
393.382	78.85
393.591	115.71
393.801	52.22
394.01	64.51
394.22	72.7
394.429	76.8
394.639	52.22
394.848	82.94
395.058	52.22
395.267	123.9
395.477	29.7
395.686	64.51
395.895	117.76
396.105	101.37
396.314	23.55
396.524	27.65
396.733	125.95
396.942	68.61
397.152	136.19
397.361	136.19
397.57	128
397.78	62.46
397.989	33.79
398.198	93.18
398.407	82.94
398.617	56.32
398.826	70.65
399.035	130.05
399.244	66.56
399.453	91.13
399.663	148.48
399.872	103.42
400.081	46.08
400.29	117.76
400.499	64.51
400.708	95.23
400.917	78.85
401.127	15.36
401.336	62.46
401.545	119.81
401.754	70.65
401.963	64.51
402.172	84.99
402.381	115.71
402.59	78.85
402.799	115.71
403.008	130.05
403.217	62.46
403.426	84.99
403.635	99.33
403.844	64.51
404.053	74.75
404.262	144.38
404.471	68.61
404.68	113.66
404.888	144.38
405.097	224.25
405.306	144.38
405.515	138.24
405.724	107.52
405.933	160.77
406.142	70.65
406.35	99.33
406.559	119.81
406.768	148.48
406.977	152.57
407.185	113.66
407.394	175.1
407.603	175.1
407.812	177.15
408.02	164.86
408.229	181.25
408.438	123.9
408.646	224.25
408.855	197.63
409.064	173.05
409.272	232.44
409.481	211.96
409.69	207.87
409.898	248.83
410.107	216.06
410.315	281.6
410.524	189.44
410.733	277.5
410.941	340.99
411.15	326.65
411.358	328.7
411.567	361.47
411.775	332.79
411.984	359.42
412.192	343.03
412.401	320.51
412.609	390.14
412.818	330.75
413.026	404.47
413.234	445.43
413.443	408.57
413.651	470.01
413.86	435.19
414.068	422.91
414.276	433.15
414.485	490.49
414.693	500.73
414.901	576.5
415.11	539.64
415.318	582.65
415.526	541.69
415.734	609.27
415.943	642.04
416.151	631.8
416.359	654.33
416.567	697.33
416.776	726
416.984	760.82
417.192	775.16
417.4	771.06
417.608	787.44
417.817	756.72
418.025	844.79
418.233	877.55
418.441	963.57
418.649	1010.67
418.857	1020.91
419.065	994.29
419.273	932.85
419.481	988.14
419.689	1088.5
419.897	1162.22
420.105	1250.28
420.313	1205.23
420.521	1244.14
420.729	1285.1
420.937	1385.45
421.145	1373.16
421.353	1444.84
421.561	1584.1
421.769	1627.11
421.977	1641.45
422.185	1590.25
422.393	1776.61
422.601	1829.86
422.809	1803.24
423.017	1842.15
423.224	2010.08
423.432	1991.65
423.64	1938.4
423.848	2192.35
424.056	2102.24
424.263	2239.45
424.471	2276.32
424.679	2399.2
424.887	2474.97
425.094	2501.59
425.302	2503.64
425.51	2581.46
425.718	2624.47
425.925	2675.67
426.133	2773.97
426.341	2929.62
426.548	3032.02
426.756	3015.63
426.964	3105.74
427.171	3320.78
427.379	3447.76
427.586	3509.19
427.794	3552.2
428.001	3636.17
428.209	3859.4
428.417	3779.53
428.624	4127.68
428.832	4094.91
429.039	4068.29
429.247	4113.35
429.454	4338.62
429.662	4834.23
429.869	4563.9
430.076	4823.99
430.284	4641.72
430.491	4848.57
430.699	5340.08
430.906	5092.27
431.114	5262.26
431.321	5231.54
431.528	5606.31
431.736	5833.64
431.943	6030.24
432.15	6073.25
432.358	6063.01
432.565	6370.21
432.772	6339.49
432.979	6689.69
433.187	6618.01
433.394	6863.77
433.601	7189.39
433.808	7295.89
434.016	7093.14
434.223	7674.76
434.43	8039.3
434.637	7822.22
434.844	8401.79
435.052	8612.73
435.259	8299.39
435.466	8518.53
435.673	8504.19
435.88	8807.29
436.087	9382.77
436.294	9497.46
436.501	9157.49
436.708	9218.93
436.915	9933.67
437.122	10263.4
437.329	10249.06
437.537	10603.36
437.743	10601.31
437.95	10519.39
438.157	11049.82
438.364	11402.07
438.571	11438.93
438.778	11754.32
438.985	12768.06
439.192	12256.07
439.399	12737.34
439.606	12299.08
439.813	12993.34
440.02	13951.79
440.227	13460.27
440.433	13374.26
440.64	13792.05
440.847	13775.66
441.054	13937.45
441.261	15348.5
441.467	14791.45
441.674	15106.84
441.881	15649.55
442.088	15614.74
442.294	15364.89
442.501	15958.8
442.708	16403.21
442.914	16714.5
443.121	17650.42
443.328	17298.17
443.534	18361.06
443.741	17752.82
443.948	17623.8
444.154	19057.37
444.361	18600.68
444.568	18821.86
444.774	18948.83
444.981	19436.25
445.187	19813.07
445.394	20691.65
445.6	20323.02
445.807	22155.95
446.013	21678.77
446.22	21861.04
446.426	22401.71
446.633	22495.91
446.839	23745.17
447.046	22516.39
447.252	24003.22
447.459	23988.88
447.665	23829.14
447.871	25096.83
448.078	26155.63
448.284	25012.87
448.491	24914.56
448.697	26421.87
448.903	26860.13
449.11	27122.27
449.316	26708.58
449.522	27169.38
449.728	28133.97
449.935	28101.2
450.141	27961.94
450.347	28801.61
450.553	27701.85
450.76	28144.21
450.966	29278.79
451.172	28707.4
451.378	29313.6
451.584	28873.29
451.791	29829.69
451.997	29430.33
452.203	29901.37
452.409	30100.02
452.615	30044.73
452.821	28828.23
453.027	28281.42
453.233	30222.9
453.44	29082.18
453.646	29436.48
453.852	29520.45
454.058	29764.15
454.264	29176.39
454.47	29766.2
454.676	28904.01
454.882	30241.33
455.088	26917.48
455.294	27802.2
455.5	27871.83
455.705	28549.71
455.911	27396.7
456.117	26962.53
456.323	26475.12
456.529	25199.23
456.735	26133.11
456.941	25651.83
457.147	25041.54
457.352	24152.72
457.558	23917.2
457.764	24128.14
457.97	23866
458.176	23204.51
458.381	23083.68
458.587	22092.46
458.793	21928.63
458.999	20806.34
459.204	22495.91
459.41	21883.57
459.616	20234.96
459.821	20331.21
460.027	20204.24
460.233	19983.06
460.438	18887.39
460.644	19129.05
460.85	18082.54
461.055	17652.47
461.261	17824.5
461.466	16562.95
461.672	16192.26
461.878	17220.35
462.083	16153.35
462.289	15944.46
462.494	15733.52
462.7	14887.71
462.905	14672.67
463.111	14986.01
463.316	14789.41
463.522	14926.62
463.727	14805.79
463.932	14773.02
464.138	14410.53
464.343	14549.79
464.549	14301.99
464.754	14709.54
464.959	14682.91
465.165	14555.94
465.37	13935.4
465.575	13486.9
465.781	14062.38
465.986	13986.6
466.191	13591.34
466.397	13263.67
466.602	12739.39
466.807	13173.56
467.012	13390.64
467.218	13347.64
467.423	13177.65
467.628	13157.18
467.833	13624.11
468.038	13140.79
468.244	12657.47
468.449	13239.09
468.654	12876.6
468.859	12587.84
469.064	12659.52
469.269	12309.32
469.474	12358.47
469.679	12593.98
469.885	12014.41
470.09	12243.78
470.295	12258.12
470.5	11961.16
470.705	11944.78
470.91	11746.12
471.115	11660.11
471.32	11666.25
471.525	11897.67
471.73	11526.99
471.935	11424.59
472.139	11023.19
472.344	11150.17
472.549	11010.9
472.754	10902.36
472.959	10455.9
473.164	10660.7
473.369	10500.96
473.574	10716
473.778	10609.5
473.983	10603.36
474.188	10705.76
474.393	10109.8
474.598	10175.33
474.802	9919.34
475.007	9927.53
475.212	9888.62
475.417	9384.82
475.621	9681.77
475.826	9710.44
476.031	9440.11
476.235	9190.26
476.44	9448.3
476.645	9175.92
476.849	9210.74
477.054	9048.95
477.259	8876.92
477.463	9071.48
477.668	8725.37
477.872	8887.16
478.077	8737.66
478.282	8467.33
478.486	8496
478.691	8395.65
478.895	8418.18
479.1	8401.79
479.304	8252.29
479.509	8219.52
479.713	8176.52
479.918	8131.46
480.122	7971.72
480.326	8246.15
480.531	8201.09
480.735	7883.66
480.94	7998.34
481.144	8219.52
481.348	7768.97
481.553	7836.55
481.757	7697.29
481.961	7840.65
482.166	7947.14
482.37	7895.94
482.574	7783.31
482.778	7738.25
482.983	7889.8
483.187	7865.22
483.391	7920.52
483.595	7715.72
483.8	7515.02
484.004	7648.14
484.208	7742.35
484.412	7725.96
484.616	7857.03
484.821	7842.7
485.025	7592.84
485.229	7818.12
485.433	7662.48
485.637	7709.58
485.841	7719.82
486.045	7660.43
486.249	7846.79
486.453	7500.69
486.657	7723.91
486.861	7863.18
487.065	7480.21
487.269	7738.25
487.473	7474.06
487.677	7656.33
487.881	7877.51
488.085	7805.83
488.289	7811.98
488.493	7834.5
488.697	7928.71
488.901	7828.36
489.105	7779.21
489.309	7926.66
489.512	7867.27
489.716	7805.83
489.92	7844.74
490.124	8018.82
490.328	8168.32
490.531	7959.43
490.735	7910.28
490.939	7916.42
491.143	8065.92
491.346	7852.94
491.55	8145.8
491.754	8084.36
491.958	8137.6
492.161	8160.13
492.365	8289.15
492.569	8207.23
492.772	8272.77
492.976	8190.85
493.18	8584.06
493.383	8768.38
493.587	8397.7
493.79	8512.38
493.994	8588.16
494.197	8653.69
494.401	8721.27
494.605	8809.34
494.808	8811.39
495.012	8823.67
495.215	9016.18
495.419	8856.44
495.622	8973.18
495.825	9190.26
496.029	9157.49
496.232	9356.15
496.436	9499.5
496.639	9519.98
496.843	9325.43
497.046	9780.07
497.249	9902.95
497.453	9843.56
497.656	9909.1
497.859	9988.97
498.063	10312.55
498.266	10462.05
498.469	10318.69
498.673	10335.07
498.876	10447.71
499.079	10570.59
499.282	10652.51
499.485	11064.15
499.689	10961.75
499.892	11055.96
500.095	11379.54
500.298	11357.01
500.501	11322.2
500.705	11809.61
500.908	11772.75
501.111	12079.94
501.314	12133.19
501.517	12192.58
501.72	12469.06
501.923	12446.53
502.126	12583.74
502.329	12903.23
502.532	12747.58
502.735	12907.32
502.938	13198.13
503.141	13361.97
503.344	13611.82
503.547	13749.04
503.75	13781.81
503.953	14025.51
504.156	13957.93
504.359	14170.92
504.562	14461.73
504.765	15002.4
504.968	14779.17
505.17	15250.2
505.373	15117.08
505.576	15264.54
505.779	15522.58
505.982	15313.69
506.185	15672.08
506.387	15862.54
506.59	15991.56
506.793	16356.1
506.996	16466.69
507.198	17042.17
507.401	16861.95
507.604	17113.85
507.807	17416.95
508.009	17466.1
508.212	17683.19
508.415	17871.6
508.617	18033.39
508.82	18291.43
509.022	18244.33
509.225	18979.55
509.428	18801.38
509.63	19104.48
509.833	19096.28
510.035	19512.02
510.238	19606.23
510.44	19919.57
510.643	20345.55
510.845	20290.25
511.048	20355.79
511.25	20749
511.453	20755.14
511.655	21793.46
511.858	21553.85
512.06	21650.1
512.262	21936.82
512.465	21973.68
512.667	22219.44
512.87	22545.06
513.072	22477.48
513.274	23104.16
513.477	23429.79
513.679	23552.66
513.881	23997.07
514.084	24212.11
514.286	24083.09
514.488	24347.28
514.69	24990.34
514.893	24892.04
515.095	25109.12
515.297	25463.42
515.499	25631.35
515.701	25993.84
515.904	26456.68
516.106	26587.75
516.308	26784.36
516.51	27236.96
516.712	27224.67
516.914	27437.66
517.116	27859.54
517.318	28064.34
517.52	28066.39
517.722	28547.66
517.925	28518.99
518.127	29205.06
518.329	29248.07
518.531	29403.71
518.733	30011.96
518.935	30485.04
519.136	30374.45
519.338	30687.79
519.54	31060.52
519.742	30949.93
519.944	31191.59
520.146	32195.09
520.348	31719.96
520.55	32236.05
520.752	32336.4
520.954	33272.32
521.155	32838.15
521.357	33413.63
521.559	33477.12
521.761	34075.13
521.963	34097.66
522.164	34482.67
522.366	34286.07
522.568	34695.66
522.77	34970.09
522.971	35582.43
523.173	35588.58
523.375	35824.09
523.576	36346.33
523.778	36473.3
523.98	36813.26
524.181	36733.39
524.383	36852.17
524.584	37544.39
524.786	37353.93
524.988	37505.48
525.189	37927.36
525.391	38021.56
525.592	38107.58
525.794	38554.04
525.995	38640.05
526.197	38332.86
526.398	38656.43
526.6	38971.82
526.801	39256.49
527.003	39180.71
527.204	39184.81
527.406	39723.43
527.607	39915.93
527.808	40182.17
528.01	39723.43
528.211	40155.55
528.412	41011.6
528.614	40823.19
528.815	40941.97
529.016	41527.69
529.218	41083.28
529.419	41216.4
529.62	41101.71
529.822	41144.72
530.023	41531.78
530.224	41822.59
530.425	41519.49
530.626	41247.11
530.828	41232.78
531.029	42275.19
531.23	41681.28
531.431	42162.56
531.632	41994.62
531.833	42301.82
532.035	42297.72
532.236	42774.9
532.437	42447.22
532.638	42203.52
532.839	42895.73
533.04	42733.94
533.241	42559.86
533.442	43151.73
533.643	42809.71
533.844	42850.67
534.045	43123.05
534.246	42865.01
534.447	43268.46
534.648	42951.02
534.849	43213.16
535.05	42875.25
535.251	42903.92
535.451	43204.97
535.652	43254.12
535.853	43104.62
536.054	43303.28
536.255	43374.95
536.456	42885.49
536.657	43835.75
536.857	43387.24
537.058	43207.02
537.259	43311.47
537.46	43522.41
537.66	43635.05
537.861	43372.91
538.062	43469.16
538.263	43463.02
538.463	43047.28
538.664	43430.25
538.865	43743.59
539.065	43426.15
539.266	43252.08
539.466	43891.04
539.667	42885.49
539.868	44005.73
540.068	43460.97
540.269	43217.26
540.469	43641.19
540.67	43448.68
540.87	43506.02
541.071	43295.08
541.271	44044.64
541.472	43403.63
541.672	43862.37
541.873	43456.87
542.073	43061.61
542.274	43878.75
542.474	43673.96
542.675	43383.15
542.875	44022.11
543.075	43831.65
543.276	43106.67
543.476	43768.16
543.676	43008.37
543.877	43493.74
544.077	43555.18
544.277	43714.92
544.478	43544.94
544.678	43954.53
544.878	43424.11
545.078	43946.34
545.279	43366.76
545.479	43608.42
545.679	43649.38
545.879	43202.92
546.079	43731.3
546.28	43311.47
546.48	43561.32
546.68	43598.18
546.88	43520.36
547.08	43633
547.28	43616.61
547.48	43465.06
547.68	43510.12
547.88	43329.9
548.081	44061.02
548.281	43850.08
548.481	43460.97
548.681	43829.6
548.881	43766.12
549.081	43589.99
549.28	43823.46
549.48	43479.4
549.68	43739.49
549.88	43897.19
550.08	43469.16
550.28	43884.9
550.48	43460.97
550.68	43843.94
550.88	43374.95
551.08	43448.68
551.279	43739.49
551.479	43444.59
551.679	43446.63
551.879	43667.81
552.079	43460.97
552.278	43422.06
552.478	43444.59
552.678	43209.07
552.878	43381.1
553.077	43186.54
553.277	42731.89
553.477	43262.32
553.676	43293.04
553.876	43200.88
554.076	43544.94
554.275	43247.98
554.475	42713.46
554.674	43575.66
554.874	43157.87
555.074	43274.6
555.273	43325.8
555.473	43594.09
555.672	43047.28
555.872	43207.02
556.071	43284.84
556.271	43315.56
556.47	42733.94
556.67	42793.33
556.869	42842.48
557.068	42865.01
557.268	42805.62
557.467	42826.1
557.667	42623.35
557.866	42664.31
558.065	42588.53
558.265	42846.58
558.464	42170.75
558.663	42746.23
558.863	42219.9
559.062	42676.6
559.261	42350.97
559.461	42252.67
559.66	41795.97
559.859	42092.93
560.058	41945.47
560.258	42260.86
560.457	41890.18
560.656	42490.23
560.855	42041.73
561.054	42242.43
561.253	41470.34
561.453	41564.55
561.652	41845.12
561.851	41947.52
562.05	41683.33
562.249	41369.99
562.448	41851.27
562.647	41431.43
562.846	41499.01
563.045	41750.91
563.244	40690.07
563.443	41443.72
563.642	40559
563.841	40751.51
564.04	40751.51
564.239	41570.69
564.438	40665.49
564.637	41210.25
564.836	40913.3
565.035	40245.66
565.234	40771.99
565.432	40126.88
565.631	40552.85
565.83	40524.18
566.029	40235.42
566.228	40321.43
566.427	39831.97
566.625	39692.71
566.824	39500.2
567.023	39993.76
567.222	39377.32
567.42	39795.1
567.619	39975.33
567.818	39518.63
568.016	39299.5
568.215	39750.05
568.414	39469.48
568.612	39465.38
568.811	39244.2
569.01	39188.91
569.208	38721.97
569.407	39201.19
569.605	38758.83
569.804	39418.28
570.002	38611.38
570.201	38785.46
570.4	38422.97
570.598	38609.33
570.797	38236.6
570.995	38275.51
571.193	37753.28
571.392	38605.23
571.59	37779.9
571.789	37466.56
571.987	37833.15
572.186	37538.24
572.384	37370.31
572.582	37771.71
572.781	37609.92
572.979	37300.68
573.177	37333.45
573.376	37388.74
573.574	37226.95
573.772	37335.49
573.971	36682.19
574.169	36520.4
574.367	36260.31
574.565	36622.8
574.763	36372.95
574.962	36215.26
575.16	36057.56
575.358	36254.17
575.556	35910.11
575.754	36375
575.952	35729.89
576.151	36035.03
576.349	35520.99
576.547	35975.64
576.745	35709.41
576.943	35695.07
577.141	35348.96
577.339	35461.6
577.537	35189.22
577.735	34906.6
577.933	35178.98
578.131	34978.28
578.329	34664.94
578.527	34761.2
578.725	34685.42
578.923	34619.89
579.121	34431.47
579.319	34501.11
579.516	34879.98
579.714	34224.63
579.912	33884.67
580.11	34066.94
580.308	33868.28
580.506	34001.4
580.704	33552.9
580.901	33733.12
581.099	33802.75
581.297	33464.83
581.495	33450.5
581.692	33647.1
581.89	33212.93
582.088	33468.93
582.285	32965.13
582.483	33237.51
582.681	33092.1
582.878	32795.15
583.076	32614.93
583.274	33061.38
583.471	32213.52
583.669	32623.12
583.866	32639.5
584.064	32907.79
584.262	31857.18
584.459	32414.23
584.657	31734.3
584.854	32303.64
585.052	31617.57
585.249	31697.44
585.447	32090.65
585.644	31250.98
585.841	31420.96
586.039	31748.64
586.236	31162.92
586.434	31392.29
586.631	30997.03
586.828	31156.77
587.026	31121.96
587.223	30978.6
587.42	31060.52
587.618	31085.09
587.815	30294.58
588.012	30698.03
588.21	30454.32
588.407	30474.8
588.604	30091.83
588.801	29905.46
588.999	30136.88
589.196	30165.56
589.393	30110.26
589.59	29737.53
589.787	29639.23
589.984	29692.47
590.182	29428.29
590.379	29506.11
590.576	29555.26
590.773	29508.16
590.97	28963.4
591.167	29055.56
591.364	28891.72
591.561	29141.57
591.758	28719.69
591.955	28965.45
592.152	28824.14
592.349	28625.48
592.546	28801.61
592.743	28791.37
592.94	28201.55
593.137	28437.07
593.334	28310.1
593.531	27990.61
593.727	27888.21
593.924	28099.16
594.121	27662.94
594.318	28056.15
594.515	27578.97
594.712	27804.25
594.908	27638.36
595.105	27972.18
595.302	27271.78
595.499	27374.17
595.696	26980.96
595.892	27122.27
596.089	27140.71
596.286	27562.59
596.482	27216.48
596.679	26995.3
596.876	26944.1
597.072	26573.42
597.269	27011.68
597.466	26542.7
597.662	26223.22
597.859	26610.28
598.055	26405.49
598.252	26331.76
598.448	26360.43
598.645	26298.99
598.841	25924.21
599.038	25893.49
599.234	25909.88
599.431	25967.22
599.627	25703.03
599.824	25965.17
600.02	25178.75
600.217	25655.93
600.413	25346.69
600.609	25375.36
600.806	25285.25
601.002	25412.22
601.198	25121.41
601.395	25045.63
601.591	24957.57
601.787	25031.3
601.984	24922.76
602.18	25014.91
602.376	24554.12
602.572	24459.91
602.769	24625.8
602.965	24576.65
603.161	24390.28
603.357	24517.26
603.553	24224.4
603.75	24197.77
603.946	23939.73
604.142	24150.67
604.338	23716.5
604.534	23962.26
604.73	23771.8
604.926	23427.74
605.122	23583.38
605.318	23560.86
605.514	23509.66
605.71	23390.88
605.906	23233.18
606.102	23313.05
606.298	23376.54
606.494	23622.3
606.69	23128.74
606.886	23296.67
607.082	22655.65
607.278	23134.88
607.474	22635.17
607.67	22708.9
607.866	22418.09
608.062	22760.1
608.257	22733.48
608.453	22727.33
608.649	22411.95
608.845	22567.59
609.041	22413.99
609.236	22610.6
609.432	22409.9
609.628	22405.8
609.824	22356.65
610.019	22223.53
610.215	22037.17
610.411	22162.09
610.606	21818.04
610.802	21924.53
610.998	22133.42
611.193	21850.8
611.389	21533.37
611.584	21684.92
611.78	21777.08
611.976	21668.53
612.171	21678.77
612.367	21607.09
612.562	21457.59
612.758	21203.64
612.953	21361.34
613.149	21414.59
613.344	21174.97
613.539	21697.2
613.735	21443.26
613.93	21039.81
614.126	21146.3
614.321	21183.16
614.517	20957.89
614.712	20884.16
614.907	20957.89
615.103	21123.77
615.298	20871.87
615.493	21127.87
615.688	20493
615.884	21021.38
616.079	20357.83
616.274	20898.5
616.47	20570.82
616.665	20675.27
616.86	20626.12
617.055	20499.14
617.25	20394.7
617.445	20562.63
617.641	20107.98
617.836	20570.82
618.031	20157.13
618.226	20173.52
618.421	19995.34
618.616	20099.79
618.811	19931.86
619.006	20142.8
619.201	19778.26
619.396	19874.51
619.591	19460.82
619.786	19770.07
619.981	19469.01
620.176	19507.93
620.371	18924.26
620.566	19458.78
620.761	19296.99
620.956	19194.59
621.151	18686.69
621.346	18725.6
621.541	18563.81
621.735	18893.54
621.93	18555.62
622.125	18784.99
622.32	18545.38
622.515	18287.34
622.709	18285.29
622.904	18148.08
623.099	18174.7
623.294	18221.8
623.488	17685.23
623.683	17922.8
623.878	17296.12
624.072	17625.84
624.267	17568.5
624.462	17552.12
624.656	17345.27
624.851	17421.05
625.046	16876.29
625.24	16952.06
625.435	16861.95
625.629	16823.04
625.824	16859.9
626.018	16622.34
626.213	16503.56
626.407	16427.78
626.602	16216.84
626.796	16112.39
626.991	16343.81
627.185	16186.12
627.38	15915.79
627.574	16042.76
627.768	15885.07
627.963	15934.22
628.157	15598.35
628.352	15948.56
628.546	15237.91
628.74	15717.14
628.935	15397.65
629.129	15579.92
629.323	15168.28
629.517	15280.92
629.712	15104.79
629.906	14803.74
630.1	14873.37
630.294	15051.55
630.489	14754.59
630.683	14684.96
630.877	14377.76
631.071	14555.94
631.265	14537.51
631.459	14490.4
631.653	14074.67
631.848	14357.28
632.042	14285.61
632.236	14183.21
632.43	13945.64
632.624	14156.58
632.818	13779.76
633.012	13546.29
633.206	13779.76
633.4	13622.06
633.594	13380.4
633.788	13732.65
633.982	13583.15
634.176	13357.88
634.369	13273.91
634.563	13146.94
634.757	13163.32
634.951	13112.12
635.145	12940.09
635.339	12931.9
635.533	12823.36
635.726	13103.93
635.92	12479.3
636.114	12753.73
636.308	12704.57
636.501	12460.87
636.695	12442.43
636.889	12301.12
637.083	12180.29
637.276	12403.52
637.47	11901.77
637.664	12116.81
637.857	11987.79
638.051	11901.77
638.244	11875.15
638.438	11842.38
638.632	11635.53
638.825	11713.36
639.019	11674.45
639.212	11371.35
639.406	11334.48
639.599	11475.79
639.793	11305.81
639.986	11199.32
640.18	11182.93
640.373	11297.62
640.567	10875.74
640.76	10967.9
640.954	11035.48
641.147	10705.76
641.34	10722.14
641.534	10658.65
641.727	10761.05
641.92	10435.42
642.114	10410.85
642.307	10543.97
642.5	10433.38
642.694	10199.91
642.887	10367.84
643.08	10343.27
643.273	10171.24
643.467	10056.55
643.66	9978.73
643.853	9984.87
644.046	9870.19
644.239	9751.4
644.432	9755.5
644.626	9546.61
644.819	9700.2
645.012	9646.96
645.205	9618.29
645.398	9685.87
645.591	9436.02
645.784	9507.69
645.977	9347.95
646.17	9440.11
646.363	9180.02
646.556	9042.81
646.749	9128.82
646.942	9106.29
647.135	9007.99
647.328	9089.91
647.521	8778.62
647.714	8803.19
647.907	8895.35
648.099	8731.51
648.292	8506.24
648.485	8756.09
648.678	8616.83
648.871	8536.96
649.064	8448.9
649.256	8455.04
649.449	8516.48
649.642	8291.2
649.835	8375.17
650.027	8274.82
650.22	8254.34
650.413	8131.46
650.605	8121.22
650.798	8043.4
650.991	7969.67
651.183	7822.22
651.376	8018.82
651.568	7945.09
651.761	7787.4
651.954	7756.68
652.146	7695.24
652.339	7797.64
652.531	7553.93
652.724	7678.86
652.916	7512.97
653.109	7656.33
653.301	7445.39
653.494	7345.04
653.686	7361.42
653.879	7314.32
654.071	7302.03
654.263	7199.63
654.456	7230.35
654.648	7330.7
654.84	7050.13
655.033	7082.9
655.225	7195.54
655.417	7039.89
655.61	6972.31
655.802	7037.84
655.994	6994.84
656.186	6986.65
656.379	6769.56
656.571	7017.36
656.763	6634.39
656.955	6771.61
657.148	6790.04
657.34	6763.42
657.532	6730.65
657.724	6521.76
657.916	6718.36
658.108	6497.18
658.3	6337.44
658.492	6413.21
658.684	6402.97
658.876	6460.32
659.068	6431.65
659.26	6144.93
659.452	6212.51
659.644	6267.81
659.836	6167.46
660.028	6169.51
660.22	6173.6
660.412	6208.42
660.604	5962.66
660.796	6028.2
660.988	5985.19
661.18	5907.37
661.372	6114.21
661.563	5903.27
661.755	5909.41
661.947	5764.01
662.139	5815.21
662.331	5759.91
662.522	5587.88
662.714	5874.6
662.906	5624.75
663.097	5616.55
663.289	5680.04
663.481	5671.85
663.673	5600.17
663.864	5383.09
664.056	5428.14
664.247	5452.72
664.439	5329.84
664.631	5311.41
664.822	5452.72
665.014	5342.13
665.205	5344.17
665.397	5254.06
665.588	5151.67
665.78	5022.64
665.971	5088.18
666.163	5266.35
666.354	5198.77
666.546	5077.94
666.737	5223.34
666.929	5088.18
667.12	4996.02
667.311	4957.11
667.503	4897.72
667.694	4916.15
667.885	4930.48
668.077	4830.13
668.268	4875.19
668.459	4867
668.651	4821.94
668.842	4895.67
669.033	4873.14
669.224	4586.43
669.416	4764.6
669.607	4697.02
669.798	4828.09
669.989	4737.98
670.18	4701.11
670.371	4522.94
670.563	4746.17
670.754	4682.68
670.945	4615.1
671.136	4461.5
671.327	4539.32
671.518	4574.14
671.709	4467.64
671.9	4524.99
672.091	4494.27
672.282	4367.29
672.473	4326.33
672.664	4553.66
672.855	4432.83
673.046	4369.34
673.237	4422.59
673.428	4449.21
673.619	4316.09
673.809	4430.78
674	4301.76
674.191	4289.47
674.382	4213.7
674.573	4387.77
674.764	4318.14
674.954	4316.09
675.145	4268.99
675.336	4297.66
675.527	4234.18
675.717	4420.54
675.908	4168.64
676.099	4228.03
676.289	4285.37
676.48	4187.07
676.671	4088.77
676.861	4178.88
677.052	4142.02
677.243	4142.02
677.433	4117.44
677.624	4219.84
677.814	4156.35
678.005	4236.22
678.195	4191.17
678.386	4015.04
678.576	4035.52
678.767	4170.69
678.957	4162.5
679.148	4033.47
679.338	4127.68
679.529	4094.91
679.719	3992.52
679.909	4068.29
680.1	4101.06
680.29	4111.3
680.481	3984.32
680.671	4099.01
680.861	4056
681.052	4121.54
681.242	3972.04
681.432	4168.64
681.622	4135.87
681.813	4086.72
682.003	4156.35
682.193	3861.45
682.383	4084.67
682.573	3998.66
682.764	4107.2
682.954	4113.35
683.144	3996.61
683.334	4078.53
683.524	3904.45
683.714	4133.82
683.904	4074.43
684.094	3984.32
684.284	3980.23
684.474	4176.83
684.664	3986.37
684.854	4072.39
685.044	3961.8
685.234	3931.08
685.424	4019.14
685.614	3980.23
685.804	3947.46
685.994	3808.2
686.184	4045.76
686.374	3894.21
686.564	3820.49
686.753	3933.12
686.943	3828.68
687.133	3976.13
687.323	3898.31
687.513	3867.59
687.702	3849.16
687.892	3838.92
688.082	3824.58
688.272	3929.03
688.461	3664.84
688.651	3859.4
688.841	3765.19
689.03	3775.43
689.22	3650.5
689.41	3681.22
689.599	3800.01
689.789	3703.75
689.979	3802.05
690.168	3625.93
690.358	3718.09
690.547	3638.22
690.737	3828.68
690.926	3595.21
691.116	3646.41
691.305	3724.23
691.495	3740.61
691.684	3679.18
691.874	3689.42
692.063	3759.05
692.252	3625.93
692.442	3587.02
692.631	3670.98
692.82	3713.99
693.01	3578.83
693.199	3687.37
693.388	3519.43
693.578	3779.53
693.767	3589.07
693.956	3679.18
694.146	3517.39
694.335	3406.8
694.524	3584.97
694.713	3533.77
694.902	3550.15
695.092	3488.71
695.281	3517.39
695.47	3578.83
695.659	3666.89
695.848	3369.93
696.037	3396.56
696.226	3523.53
696.415	3451.85
696.604	3591.11
696.793	3507.15
696.982	3533.77
697.171	3519.43
697.36	3570.63
697.549	3464.14
697.738	3556.3
697.927	3474.38
698.116	3312.59
698.305	3400.65
698.494	3431.37
698.683	3369.93
698.872	3486.67
699.061	3505.1
699.25	3492.81
699.438	3423.18
699.627	3410.89
699.816	3472.33
700.005	3513.29
700.193	3396.56
700.382	3402.7
700.571	3400.65
700.76	3292.11
700.948	3414.99
701.137	3523.53
701.326	3441.61
701.514	3472.33
701.703	3247.05
701.892	3431.37
702.08	3412.94
702.269	3492.81
702.457	3404.75
702.646	3267.53
702.834	3308.49
703.023	3367.88
703.212	3505.1
703.4	3423.18
703.589	3367.88
703.777	3318.73
703.965	3259.34
704.154	3339.21
704.342	3292.11
704.531	3429.32
704.719	3230.67
704.907	3523.53
705.096	3345.36
705.284	3298.25
705.472	3179.47
705.661	3275.73
705.849	3468.24
706.037	3302.35
706.226	3369.93
706.414	3394.51
706.602	3318.73
706.79	3337.17
706.979	3318.73
707.167	3242.96
707.355	3394.51
707.543	3218.38
707.731	3185.62
707.919	3281.87
708.107	3232.72
708.296	3263.44
708.484	3179.47
708.672	3398.6
708.86	3216.33
709.048	3230.67
709.236	3371.98
709.424	3353.55
709.612	3238.86
709.8	3169.23
709.988	3148.75
710.176	3318.73
710.364	3310.54
710.551	3283.92
710.739	3240.91
710.927	3357.64
711.115	3245.01
711.303	3384.27
711.491	3347.4
711.679	3199.95
711.866	3359.69
712.054	3259.34
712.242	3134.42
712.43	3238.86
712.617	3220.43
712.805	3249.1
712.993	3212.24
713.181	3105.74
713.368	3101.65
713.556	3222.48
713.744	3095.5
713.931	3220.43
714.119	3156.94
714.306	3072.98
714.494	3238.86
714.682	3120.08
714.869	3140.56
715.057	3216.33
715.244	3179.47
715.432	3204.05
715.619	3183.57
715.807	3253.2
715.994	3171.28
716.182	3277.77
716.369	3189.71
716.556	3044.31
716.744	3259.34
716.931	3138.51
717.119	3214.29
717.306	3234.77
717.493	3161.04
717.681	3132.37
717.868	3087.31
718.055	3081.17
718.242	3118.03
718.43	3199.95
718.617	3097.55
718.804	3107.79
718.991	3144.66
719.179	3056.59
719.366	3122.13
719.553	3146.7
719.74	3193.81
719.927	3101.65
720.114	3046.35
720.301	3062.74
720.488	3085.26
720.676	3011.54
720.863	3142.61
721.05	3161.04
721.237	3165.14
721.424	3044.31
721.611	3171.28
721.798	3083.22
721.985	3027.92
722.172	2870.23
722.358	3036.11
722.545	3154.9
722.732	3156.94
722.919	3103.7
723.106	3034.07
723.293	3056.59
723.48	2993.11
723.667	3095.5
723.853	3032.02
724.04	3111.89
724.227	3052.5
724.414	3093.46
724.6	2929.62
724.787	2956.24
724.974	3083.22
725.161	3138.51
725.347	2919.38
725.534	2966.48
725.72	3060.69
725.907	3015.63
726.094	3087.31
726.28	3093.46
726.467	2960.34
726.653	3009.49
726.84	2941.91
727.027	3032.02
727.213	2855.89
727.4	3034.07
727.586	2921.43
727.773	3046.35
727.959	2894.8
728.145	3009.49
728.332	3034.07
728.518	3081.17
728.705	3027.92
728.891	3025.87
729.077	3042.26
729.264	2962.39
729.45	2880.47
729.636	3015.63
729.823	2952.15
730.009	2970.58
730.195	2960.34
730.382	2948.05
730.568	3032.02
730.754	2978.77
730.94	2722.77
731.126	3077.07
731.313	2886.61
731.499	2954.19
731.685	2976.72
731.871	2819.03
732.057	2925.52
732.243	2913.24
732.429	2929.62
732.615	2962.39
732.801	2905.04
732.987	2886.61
733.173	2816.98
733.359	2946
733.545	2839.51
733.731	2804.69
733.917	2857.94
734.103	2833.36
734.289	2900.95
734.475	2880.47
734.661	2827.22
734.847	2905.04
735.033	2851.8
735.219	2853.84
735.404	2845.65
735.59	2886.61
735.776	2745.3
735.962	2810.84
736.148	2804.69
736.333	2900.95
736.519	2790.36
736.705	2765.78
736.89	2821.08
737.076	2784.21
737.262	2747.35
737.447	2708.44
737.633	2714.58
737.819	2769.88
738.004	2735.06
738.19	2720.73
738.375	2851.8
738.561	2819.03
738.747	2708.44
738.932	2560.98
739.118	2751.45
739.303	2700.25
739.489	2745.3
739.674	2583.51
739.859	2720.73
740.045	2792.41
740.23	2538.46
740.416	2640.86
740.601	2552.79
740.786	2644.95
740.972	2603.99
741.157	2630.62
741.342	2571.22
741.528	2554.84
741.713	2577.37
741.898	2485.21
742.084	2489.31
742.269	2534.36
742.454	2534.36
742.639	2634.71
742.824	2364.38
743.01	2429.91
743.195	2462.68
743.38	2474.97
743.565	2454.49
743.75	2517.98
743.935	2358.24
744.12	2450.39
744.305	2352.09
744.49	2309.08
744.675	2401.24
744.86	2456.54
745.045	2354.14
745.23	2368.48
745.415	2300.89
745.6	2352.09
745.785	2309.08
745.97	2388.96
746.155	2296.8
746.34	2266.08
746.525	2382.81
746.71	2218.97
746.895	2282.46
747.079	2196.45
747.264	2317.28
747.449	2288.61
747.634	2165.73
747.819	2261.98
748.003	2200.54
748.188	2094.05
748.373	2214.88
748.557	2044.9
748.742	2114.53
748.927	2175.97
749.111	2132.96
749.296	2135.01
749.481	1965.03
749.665	2079.71
749.85	1977.31
750.034	2034.66
750.219	1938.4
750.404	2030.56
750.588	1977.31
750.773	1967.07
750.957	1997.79
751.141	1960.93
751.326	1915.87
751.51	2055.14
751.695	1928.16
751.879	1854.44
752.064	1790.95
752.248	1864.68
752.432	1893.35
752.617	1848.29
752.801	1897.44
752.985	1856.48
753.17	1807.33
753.354	1821.67
753.538	1858.53
753.722	1674.21
753.907	1848.29
754.091	1709.03
754.275	1698.79
754.459	1766.37
754.643	1684.45
754.828	1711.08
755.012	1643.49
755.196	1620.97
755.38	1704.93
755.564	1582.06
755.748	1635.3
755.932	1651.69
756.116	1743.85
756.3	1631.21
756.484	1592.3
756.668	1670.12
756.852	1516.52
757.036	1610.73
757.22	1516.52
757.404	1582.06
757.588	1506.28
757.772	1518.57
757.956	1537
758.14	1487.85
758.323	1438.7
758.507	1401.83
758.691	1446.89
758.875	1410.03
759.059	1553.38
759.242	1500.14
759.426	1430.51
759.61	1407.98
759.794	1448.94
759.977	1395.69
760.161	1342.44
760.345	1311.72
760.528	1387.5
760.712	1287.15
760.895	1401.83
761.079	1387.5
761.263	1317.87
761.446	1367.02
761.63	1278.96
761.813	1385.45
761.997	1264.62
762.18	1278.96
762.364	1266.67
762.547	1268.72
762.731	1258.48
762.914	1291.24
763.098	1332.2
763.281	1274.86
763.464	1209.33
763.648	1184.75
763.831	1235.95
764.015	1240.05
764.198	1258.48
764.381	1221.61
764.564	1244.14
764.748	1213.42
764.931	1242.09
765.114	1096.69
765.297	1321.96
765.481	1197.04
765.664	1170.41
765.847	1162.22
766.03	1256.43
766.213	1227.76
766.397	1129.45
766.58	1127.41
766.763	1162.22
766.946	1194.99
767.129	1049.58
767.312	1080.3
767.495	1123.31
767.678	1143.79
767.861	1008.62
768.044	1162.22
768.227	1182.7
768.41	1076.21
768.593	1160.17
768.776	1088.5
768.959	1090.54
769.142	990.19
769.324	1061.87
769.507	1006.58
769.69	1127.41
769.873	1047.54
770.056	990.19
770.239	1041.39
770.421	1027.06
770.604	1139.69
770.787	1008.62
770.97	1020.91
771.152	1055.73
771.335	943.09
771.518	934.9
771.7	895.99
771.883	1029.1
772.066	1022.96
772.248	996.34
772.431	1043.44
772.613	1010.67
772.796	1051.63
772.978	967.67
773.161	975.86
773.343	938.99
773.526	922.61
773.708	924.66
773.891	869.36
774.073	961.52
774.256	869.36
774.438	1008.62
774.621	846.84
774.803	912.37
774.985	949.23
775.168	865.27
775.35	908.27
775.532	859.12
775.715	879.6
775.897	879.6
776.079	869.36
776.261	869.36
776.444	787.44
776.626	910.32
776.808	783.35
776.99	906.23
777.173	852.98
777.355	742.39
777.537	771.06
777.719	859.12
777.901	693.24
778.083	744.44
778.265	750.58
778.447	818.16
778.629	750.58
778.811	732.15
778.993	816.12
779.175	750.58
779.357	685.05
779.539	678.9
779.721	709.62
779.903	834.55
780.085	689.14
780.267	687.09
780.449	738.29
780.631	760.82
780.812	717.81
780.994	707.57
781.176	658.42
781.358	748.53
781.54	642.04
781.721	631.8
781.903	623.61
782.085	613.37
782.267	672.76
782.448	658.42
782.63	605.17
782.812	691.19
782.993	637.94
783.175	619.51
783.357	635.89
783.538	582.65
783.72	594.93
783.901	537.59
784.083	617.46
784.264	488.44
784.446	605.17
784.627	576.5
784.809	582.65
784.99	525.3
785.172	670.71
785.353	578.55
785.535	605.17
785.716	545.78
785.897	584.7
786.079	480.25
786.26	521.21
786.441	709.62
786.623	545.78
786.804	480.25
786.985	504.82
787.167	543.74
787.348	558.07
787.529	547.83
787.71	562.17
787.891	453.63
788.073	488.44
788.254	484.34
788.435	537.59
788.616	580.6
788.797	478.2
788.978	429.05
789.159	457.72
789.34	531.45
789.522	498.68
789.703	504.82
789.884	433.15
790.065	504.82
790.246	461.82
790.427	523.26
790.607	533.5
790.788	529.4
790.969	404.47
791.15	324.6
791.331	500.73
791.512	404.47
791.693	386.04
791.874	414.71
792.054	406.52
792.235	427
792.416	377.85
792.597	379.9
792.778	394.23
792.958	439.29
793.139	375.8
793.32	410.62
793.5	408.57
793.681	429.05
793.862	375.8
794.042	371.71
794.223	353.27
794.404	367.61
794.584	338.94
794.765	347.13
794.945	402.43
795.126	361.47
795.306	451.58
795.487	330.75
795.667	232.44
795.848	338.94
796.028	336.89
796.209	349.18
796.389	328.7
796.57	435.19
796.75	332.79
796.93	297.98
797.111	287.74
797.291	322.56
797.471	404.47
797.652	310.27
797.832	297.98
798.012	332.79
798.192	304.12
798.373	375.8
798.553	300.03
798.733	314.36
798.913	207.87
799.093	330.75
799.274	359.42
799.454	318.46
799.634	269.31
799.814	281.6
799.994	312.32
800.174	310.27
800.354	259.07
800.534	281.6
800.714	334.84
800.894	271.36
801.074	226.3
801.254	279.55
801.434	304.12
801.614	252.92
801.794	197.63
801.974	728.05
802.154	279.55
802.334	304.12
802.514	304.12
802.693	281.6
802.873	259.07
803.053	242.68
803.233	191.49
803.413	279.55
803.592	189.44
803.772	203.77
803.952	234.49
804.131	273.4
804.311	240.64
804.491	236.54
804.67	209.92
804.85	205.82
805.03	164.86
805.209	338.94
805.389	218.11
805.568	244.73
805.748	142.33
805.928	330.75
806.107	300.03
806.287	308.22
806.466	222.2
806.646	199.68
806.825	252.92
807.004	207.87
807.184	211.96
807.363	285.69
807.543	197.63
807.722	259.07
807.901	308.22
808.081	269.31
808.26	238.59
808.439	232.44
808.619	201.72
808.798	177.15
808.977	236.54
809.156	244.73
809.336	191.49
809.515	228.35
809.694	271.36
809.873	138.24
810.052	179.2
810.231	287.74
810.411	189.44
810.59	197.63
810.769	220.16
810.948	168.96
811.127	140.29
811.306	175.1
811.485	156.67
811.664	230.4
811.843	228.35
812.022	267.26
812.201	146.43
812.38	248.83
812.559	181.25
812.737	240.64
812.916	207.87
813.095	189.44
813.274	164.86
813.453	181.25
813.632	205.82
813.811	171.01
813.989	185.34
814.168	195.58
814.347	207.87
814.526	130.05
814.704	181.25
814.883	195.58
815.062	181.25
815.24	207.87
815.419	123.9
815.598	232.44
815.776	152.57
815.955	183.29
816.133	84.99
816.312	142.33
816.49	181.25
816.669	166.91
816.847	222.2
817.026	166.91
817.204	148.48
817.383	144.38
817.561	164.86
817.74	195.58
817.918	193.53
818.097	123.9
818.275	191.49
818.453	179.2
818.632	156.67
818.81	97.28
818.988	130.05
819.167	144.38
819.345	134.14
819.523	183.29
819.701	146.43
819.879	132.09
820.058	140.29
820.236	197.63
820.414	105.47
820.592	144.38
820.77	193.53
820.948	175.1
821.127	123.9
821.305	140.29
821.483	109.57
821.661	168.96
821.839	173.05
822.017	128
822.195	109.57
822.373	177.15
822.551	185.34
822.729	171.01
822.907	144.38
823.085	166.91
823.262	103.42
823.44	138.24
823.618	70.65
823.796	123.9
823.974	76.8
824.152	179.2
824.329	146.43
824.507	128
824.685	101.37
824.863	138.24
825.04	123.9
825.218	123.9
825.396	99.33
825.574	68.61
825.751	41.98
825.929	146.43
826.107	89.09
826.284	175.1
826.462	199.68
826.639	150.53
826.817	111.61
826.994	103.42
827.172	76.8
827.349	195.58
827.527	99.33
827.704	103.42
827.882	82.94
828.059	162.81
828.237	74.75
828.414	136.19
828.591	97.28
828.769	44.03
828.946	107.52
829.124	146.43
829.301	119.81
829.478	46.08
829.655	146.43
829.833	66.56
830.01	125.95
830.187	136.19
830.364	154.62
830.542	150.53
830.719	123.9
830.896	105.47
831.073	80.89
831.25	103.42
831.427	-1.02
831.604	105.47
831.782	54.27
831.959	101.37
832.136	125.95
832.313	31.74
832.49	123.9
832.667	125.95
832.844	134.14
833.021	128
833.198	99.33
833.374	119.81
833.551	111.61
833.728	101.37
833.905	111.61
834.082	39.94
834.259	60.42
834.436	160.77
834.612	33.79
834.789	115.71
834.966	89.09
835.143	119.81
835.319	95.23
835.496	103.42
835.673	54.27
835.85	82.94
836.026	84.99
836.203	132.09
836.38	15.36
836.556	105.47
836.733	39.94
836.909	84.99
837.086	46.08
837.262	103.42
837.439	80.89
837.616	66.56
837.792	35.84
837.968	82.94
838.145	140.29
838.321	111.61
838.498	160.77
838.674	95.23
838.851	109.57
839.027	25.6
839.203	37.89
839.38	78.85
839.556	89.09
839.732	27.65
839.909	89.09
840.085	89.09
840.261	125.95
840.437	68.61
840.614	35.84
840.79	52.22
840.966	99.33
841.142	171.01
841.318	50.18
841.494	78.85
841.671	78.85
841.847	29.7
842.023	11.26
842.199	89.09
842.375	41.98
842.551	25.6
842.727	-19.46
842.903	60.42
843.079	60.42
843.255	54.27
843.431	-7.17
843.607	35.84
843.783	93.18
843.959	48.13
844.134	56.32
844.31	23.55
844.486	46.08
844.662	58.37
844.838	13.31
845.013	21.5
845.189	19.46
845.365	82.94
845.541	60.42
845.716	146.43
845.892	93.18
846.068	103.42
846.244	105.47
846.419	50.18
846.595	80.89
846.77	25.6
846.946	134.14
847.122	19.46
847.297	62.46
847.473	-11.26
847.648	3.07
847.824	58.37
847.999	-3.07
848.175	87.04
848.35	84.99
848.526	105.47
848.701	111.61
848.876	136.19
849.052	72.7
849.227	113.66
849.403	58.37
849.578	35.84
849.753	19.46
849.929	46.08
850.104	101.37
850.279	128
850.454	19.46
850.63	64.51
850.805	82.94
850.98	68.61
851.155	31.74
851.33	74.75
851.505	54.27
851.681	121.85
851.856	-27.65
852.031	7.17
852.206	-23.55
852.381	48.13
852.556	-9.22
852.731	27.65
852.906	-17.41
853.081	62.46
853.256	17.41
853.431	56.32
853.606	-41.98
853.781	35.84
853.956	39.94
854.131	21.5
854.305	-15.36
854.48	84.99
854.655	103.42
854.83	93.18
855.005	44.03
855.18	41.98
855.354	62.46
855.529	39.94
855.704	44.03
855.879	52.22
856.053	25.6
856.228	-3.07
856.403	-3.07
856.577	-35.84
856.752	29.7
856.926	62.46
857.101	19.46
857.276	25.6
857.45	78.85
857.625	103.42
857.799	13.31
857.974	44.03
858.148	17.41
858.323	-5.12
858.497	23.55
858.672	21.5
858.846	54.27
859.02	87.04
859.195	-5.12
859.369	17.41
859.543	35.84
859.718	29.7
859.892	-13.31
860.066	-25.6
860.241	44.03
860.415	31.74
860.589	-3.07
860.763	46.08
860.938	1.02
861.112	68.61
861.286	21.5
861.46	48.13
861.634	31.74
861.808	13.31
861.982	-58.37
862.157	19.46
862.331	23.55
862.505	44.03
862.679	7.17
862.853	97.28
863.027	54.27
863.201	29.7
863.375	-21.5
863.549	31.74
863.722	54.27
863.896	97.28
864.07	27.65
864.244	37.89
864.418	58.37
864.592	-7.17
864.766	62.46
864.939	50.18
865.113	-21.5
865.287	13.31
865.461	11.26
865.634	17.41
865.808	52.22
865.982	-41.98
866.156	-46.08
866.329	29.7
866.503	1.02
866.676	15.36
866.85	-15.36
867.024	-5.12
867.197	84.99
867.371	107.52
867.544	-25.6
867.718	31.74
867.891	62.46
868.065	19.46
868.238	60.42
868.412	74.75
868.585	-17.41
868.759	64.51
868.932	33.79
869.105	78.85
869.279	-21.5
869.452	-1.02
869.625	60.42
869.799	31.74
869.972	15.36
870.145	37.89
870.319	-5.12
870.492	-25.6
870.665	68.61
870.838	-52.22
871.011	17.41
871.185	31.74
871.358	-17.41
871.531	-19.46
871.704	17.41
871.877	37.89
872.05	-13.31
872.223	46.08
872.396	62.46
872.569	103.42
872.742	68.61
872.915	-1.02
873.088	-15.36
873.261	13.31
873.434	82.94
873.607	54.27
873.78	87.04
873.953	11.26
874.126	39.94
874.299	21.5
874.471	-58.37
874.644	17.41
874.817	-7.17
874.99	58.37
875.163	-23.55
875.335	9.22
875.508	17.41
875.681	-9.22
875.853	-29.7
876.026	15.36
876.199	76.8
876.371	89.09
876.544	58.37
876.717	29.7
876.889	-11.26
877.062	39.94
877.234	-48.13
877.407	33.79
877.579	111.61
877.752	-3.07
877.924	39.94
878.097	56.32
878.269	-27.65
878.442	50.18
878.614	50.18
878.786	37.89
878.959	9.22
879.131	-56.32
879.303	7.17
879.476	52.22
879.648	-19.46
879.82	21.5
879.993	-44.03
880.165	21.5
880.337	-31.74
880.509	52.22
880.681	23.55
880.854	54.27
881.026	33.79
881.198	13.31
881.37	58.37
881.542	103.42
881.714	44.03
881.886	-27.65
882.058	117.76
882.23	5.12
882.402	17.41
882.574	-1.02
882.746	5.12
882.918	31.74
883.09	27.65
883.262	-19.46
883.434	19.46
883.606	54.27
883.778	64.51
883.95	27.65
884.122	7.17
884.293	52.22
884.465	27.65
884.637	15.36
884.809	-3.07
884.98	76.8
885.152	-3.07
885.324	44.03
885.496	-39.94
885.667	7.17
885.839	3.07
886.011	-9.22
886.182	41.98
886.354	25.6
886.525	50.18
886.697	5.12
886.869	-25.6
887.04	-21.5
887.212	72.7
887.383	1.02
887.555	-35.84
887.726	-13.31
887.897	23.55
888.069	44.03
888.24	19.46
888.412	78.85
888.583	48.13
888.754	66.56
888.926	-11.26
889.097	29.7
889.268	-35.84
889.44	-9.22
889.611	-41.98
889.782	19.46
889.953	-50.18
890.125	101.37
890.296	-48.13
890.467	76.8
890.638	-3.07
890.809	60.42
890.98	37.89
891.151	-27.65
891.323	99.33
891.494	-44.03
891.665	13.31
891.836	31.74
892.007	-13.31
892.178	-62.46
892.349	11.26
892.52	-37.89
892.691	-95.23
892.862	-39.94
893.032	7.17
893.203	17.41
893.374	70.65
893.545	76.8
893.716	52.22
893.887	78.85
894.057	48.13
894.228	1.02
894.399	-68.61
894.57	-17.41
894.74	-15.36
894.911	35.84
895.082	19.46
895.253	-64.51
895.423	-1.02
895.594	99.33
895.764	19.46
895.935	60.42
896.106	19.46
896.276	-5.12
896.447	3.07
896.617	5.12
896.788	21.5
896.958	35.84
897.129	-9.22
897.299	13.31
897.47	11.26
897.64	-11.26
897.81	31.74
897.981	19.46
898.151	50.18
898.322	62.46
898.492	41.98
898.662	95.23
898.832	-48.13
899.003	58.37
899.173	68.61
899.343	-87.04
899.513	-60.42
