Data from USB4F104151__17__11-51-17-470.txt Node

Date: Fri Mar 14 11:51:17 EDT 2025
User: louis
Spectrometer: USB4F10415
Trigger mode: 4
Integration Time (sec): 2.000000E-2
Scans to average: 1
Electric dark correction enabled: true
Nonlinearity correction enabled: false
Boxcar width: 0
XAxis mode: Wavelengths
Number of Pixels in Spectrum: 3648
>>>>>Begin Spectral Data<<<<<
178.204	-49.66
178.424	-49.66
178.644	-49.66
178.864	-111.1
179.084	-82.43
179.304	-4.61
179.524	-8.7
179.744	3.58
179.964	-82.43
180.184	-23.04
180.404	67.07
180.624	-25.09
180.844	5.63
181.064	24.06
181.283	34.3
181.503	-8.7
181.723	17.92
181.943	-78.33
182.163	85.5
182.383	-4.61
182.602	40.45
182.822	83.45
183.042	83.45
183.262	3.58
183.482	50.69
183.701	-35.33
183.921	52.74
184.141	-20.99
184.361	108.03
184.58	179.71
184.8	22.02
185.02	34.3
185.239	134.65
185.459	83.45
185.679	38.4
185.898	-29.18
186.118	114.17
186.338	-16.9
186.557	13.82
186.777	-18.94
186.997	32.26
187.216	3.58
187.436	65.02
187.655	-43.52
187.875	77.31
188.095	-66.05
188.314	26.11
188.534	-25.09
188.753	26.11
188.973	69.12
189.192	60.93
189.412	19.97
189.631	5.63
189.851	-25.09
190.07	54.78
190.29	36.35
190.509	-43.52
190.729	30.21
190.948	50.69
191.168	171.52
191.387	-18.94
191.607	-0.51
191.826	56.83
192.045	36.35
192.265	-23.04
192.484	3.58
192.704	-10.75
192.923	62.98
193.142	52.74
193.362	54.78
193.581	22.02
193.8	3.58
194.02	-37.38
194.239	50.69
194.458	38.4
194.678	40.45
194.897	54.78
195.116	75.26
195.335	93.69
195.555	85.5
195.774	-43.52
195.993	46.59
196.212	26.11
196.432	50.69
196.651	67.07
196.87	3.58
197.089	30.21
197.308	15.87
197.528	48.64
197.747	-39.42
197.966	38.4
198.185	62.98
198.404	34.3
198.623	-16.9
198.842	1.54
199.062	52.74
199.281	-8.7
199.5	19.97
199.719	128.51
199.938	28.16
200.157	11.78
200.376	46.59
200.595	-2.56
200.814	17.92
201.033	-10.75
201.252	28.16
201.471	56.83
201.69	52.74
201.909	44.54
202.128	-10.75
202.347	7.68
202.566	26.11
202.785	56.83
203.004	52.74
203.223	46.59
203.442	42.5
203.661	3.58
203.879	42.5
204.098	54.78
204.317	69.12
204.536	79.36
204.755	-33.28
204.974	77.31
205.193	40.45
205.411	71.17
205.63	-12.8
205.849	52.74
206.068	52.74
206.287	52.74
206.505	89.6
206.724	26.11
206.943	13.82
207.162	-14.85
207.381	67.07
207.599	40.45
207.818	-39.42
208.037	-0.51
208.255	38.4
208.474	-2.56
208.693	15.87
208.911	65.02
209.13	50.69
209.349	32.26
209.567	42.5
209.786	91.65
210.005	32.26
210.223	19.97
210.442	-6.66
210.661	-72.19
210.879	-16.9
211.098	58.88
211.316	28.16
211.535	65.02
211.753	-31.23
211.972	89.6
212.191	52.74
212.409	26.11
212.628	36.35
212.846	42.5
213.065	26.11
213.283	69.12
213.502	-23.04
213.72	34.3
213.938	71.17
214.157	38.4
214.375	7.68
214.594	-23.04
214.812	60.93
215.031	30.21
215.249	77.31
215.467	-41.47
215.686	15.87
215.904	40.45
216.122	65.02
216.341	42.5
216.559	19.97
216.778	138.75
216.996	11.78
217.214	-23.04
217.432	-31.23
217.651	17.92
217.869	67.07
218.087	-16.9
218.306	-61.95
218.524	81.41
218.742	15.87
218.96	60.93
219.179	44.54
219.397	36.35
219.615	89.6
219.833	3.58
220.051	7.68
220.27	-25.09
220.488	56.83
220.706	28.16
220.924	19.97
221.142	52.74
221.36	44.54
221.578	-29.18
221.796	34.3
222.015	24.06
222.233	-33.28
222.451	69.12
222.669	85.5
222.887	30.21
223.105	28.16
223.323	24.06
223.541	-0.51
223.759	36.35
223.977	13.82
224.195	54.78
224.413	93.69
224.631	87.55
224.849	44.54
225.067	26.11
225.285	87.55
225.503	-6.66
225.721	-12.8
225.939	71.17
226.157	50.69
226.375	114.17
226.592	30.21
226.81	67.07
227.028	54.78
227.246	93.69
227.464	60.93
227.682	36.35
227.9	-12.8
228.117	95.74
228.335	42.5
228.553	52.74
228.771	11.78
228.989	-31.23
229.206	36.35
229.424	32.26
229.642	56.83
229.86	46.59
230.077	118.27
230.295	-6.66
230.513	62.98
230.731	28.16
230.948	99.84
231.166	67.07
231.384	-16.9
231.601	42.5
231.819	67.07
232.037	15.87
232.254	-29.18
232.472	-14.85
232.689	30.21
232.907	42.5
233.125	-0.51
233.342	62.98
233.56	32.26
233.777	32.26
233.995	50.69
234.213	85.5
234.43	99.84
234.648	22.02
234.865	42.5
235.083	-2.56
235.3	40.45
235.518	50.69
235.735	24.06
235.953	17.92
236.17	73.21
236.388	50.69
236.605	24.06
236.822	103.93
237.04	85.5
237.257	-49.66
237.475	118.27
237.692	24.06
237.909	85.5
238.127	34.3
238.344	19.97
238.562	87.55
238.779	13.82
238.996	40.45
239.214	60.93
239.431	5.63
239.648	54.78
239.865	60.93
240.083	40.45
240.3	22.02
240.517	-8.7
240.735	42.5
240.952	103.93
241.169	40.45
241.386	54.78
241.603	46.59
241.821	-4.61
242.038	48.64
242.255	34.3
242.472	38.4
242.689	71.17
242.907	118.27
243.124	32.26
243.341	36.35
243.558	13.82
243.775	5.63
243.992	79.36
244.209	42.5
244.426	46.59
244.643	-0.51
244.86	38.4
245.078	22.02
245.295	1.54
245.512	71.17
245.729	15.87
245.946	11.78
246.163	22.02
246.38	48.64
246.597	22.02
246.814	15.87
247.031	-12.8
247.248	17.92
247.464	-18.94
247.681	52.74
247.898	-18.94
248.115	30.21
248.332	17.92
248.549	40.45
248.766	19.97
248.983	87.55
249.2	22.02
249.417	134.65
249.633	67.07
249.85	32.26
250.067	36.35
250.284	50.69
250.501	24.06
250.717	69.12
250.934	-6.66
251.151	81.41
251.368	-23.04
251.585	32.26
251.801	-20.99
252.018	71.17
252.235	-0.51
252.451	-2.56
252.668	62.98
252.885	81.41
253.102	62.98
253.318	-18.94
253.535	17.92
253.752	-8.7
253.968	9.73
254.185	-31.23
254.401	3.58
254.618	36.35
254.835	19.97
255.051	62.98
255.268	34.3
255.484	34.3
255.701	46.59
255.917	36.35
256.134	11.78
256.351	13.82
256.567	-2.56
256.784	-10.75
257	65.02
257.217	132.61
257.433	22.02
257.65	79.36
257.866	75.26
258.082	-0.51
258.299	1.54
258.515	26.11
258.732	22.02
258.948	26.11
259.165	65.02
259.381	58.88
259.597	13.82
259.814	-14.85
260.03	50.69
260.246	40.45
260.463	22.02
260.679	54.78
260.895	42.5
261.112	97.79
261.328	-0.51
261.544	28.16
261.761	62.98
261.977	69.12
262.193	-2.56
262.409	26.11
262.626	50.69
262.842	5.63
263.058	-0.51
263.274	58.88
263.49	-64
263.707	83.45
263.923	13.82
264.139	-64
264.355	-0.51
264.571	11.78
264.787	36.35
265.004	17.92
265.22	-14.85
265.436	15.87
265.652	11.78
265.868	73.21
266.084	-10.75
266.3	5.63
266.516	-4.61
266.732	89.6
266.948	7.68
267.164	1.54
267.38	62.98
267.596	-6.66
267.812	101.89
268.028	77.31
268.244	13.82
268.46	52.74
268.676	36.35
268.892	60.93
269.108	-10.75
269.324	56.83
269.54	44.54
269.756	22.02
269.972	-8.7
270.188	62.98
270.403	97.79
270.619	15.87
270.835	44.54
271.051	56.83
271.267	-53.76
271.483	13.82
271.698	28.16
271.914	67.07
272.13	73.21
272.346	-51.71
272.562	56.83
272.777	79.36
272.993	67.07
273.209	15.87
273.425	28.16
273.64	5.63
273.856	71.17
274.072	-25.09
274.287	32.26
274.503	7.68
274.719	-20.99
274.934	99.84
275.15	83.45
275.366	-12.8
275.581	1.54
275.797	7.68
276.012	22.02
276.228	77.31
276.444	30.21
276.659	48.64
276.875	-6.66
277.09	1.54
277.306	52.74
277.521	26.11
277.737	44.54
277.952	48.64
278.168	34.3
278.383	-25.09
278.599	38.4
278.814	24.06
279.03	-4.61
279.245	79.36
279.461	71.17
279.676	56.83
279.892	83.45
280.107	44.54
280.322	30.21
280.538	97.79
280.753	22.02
280.969	7.68
281.184	62.98
281.399	58.88
281.615	56.83
281.83	83.45
282.045	3.58
282.26	69.12
282.476	56.83
282.691	89.6
282.906	24.06
283.122	97.79
283.337	-0.51
283.552	56.83
283.767	3.58
283.983	28.16
284.198	-23.04
284.413	58.88
284.628	-29.18
284.843	-12.8
285.058	7.68
285.274	103.93
285.489	-29.18
285.704	54.78
285.919	11.78
286.134	-12.8
286.349	42.5
286.564	40.45
286.779	30.21
286.995	48.64
287.21	17.92
287.425	130.56
287.64	32.26
287.855	38.4
288.07	15.87
288.285	44.54
288.5	77.31
288.715	26.11
288.93	32.26
289.145	30.21
289.36	11.78
289.575	13.82
289.79	89.6
290.004	38.4
290.219	38.4
290.434	-6.66
290.649	1.54
290.864	91.65
291.079	-14.85
291.294	28.16
291.509	-23.04
291.724	56.83
291.938	-6.66
292.153	22.02
292.368	71.17
292.583	95.74
292.798	-61.95
293.012	62.98
293.227	-6.66
293.442	7.68
293.657	67.07
293.871	-0.51
294.086	34.3
294.301	38.4
294.516	13.82
294.73	17.92
294.945	13.82
295.16	48.64
295.374	71.17
295.589	95.74
295.804	83.45
296.018	85.5
296.233	19.97
296.447	73.21
296.662	-18.94
296.877	95.74
297.091	28.16
297.306	-68.09
297.52	48.64
297.735	89.6
297.949	36.35
298.164	50.69
298.378	99.84
298.593	50.69
298.807	-2.56
299.022	89.6
299.236	101.89
299.451	42.5
299.665	5.63
299.88	89.6
300.094	116.22
300.309	46.59
300.523	-18.94
300.737	38.4
300.952	73.21
301.166	79.36
301.381	-0.51
301.595	34.3
301.809	7.68
302.024	62.98
302.238	62.98
302.452	62.98
302.667	56.83
302.881	50.69
303.095	69.12
303.309	62.98
303.524	56.83
303.738	24.06
303.952	30.21
304.166	67.07
304.381	13.82
304.595	69.12
304.809	-20.99
305.023	95.74
305.237	19.97
305.452	46.59
305.666	114.17
305.88	30.21
306.094	46.59
306.308	95.74
306.522	15.87
306.736	3.58
306.95	42.5
307.164	-4.61
307.379	17.92
307.593	101.89
307.807	36.35
308.021	32.26
308.235	-27.14
308.449	17.92
308.663	50.69
308.877	79.36
309.091	122.37
309.305	77.31
309.519	83.45
309.733	44.54
309.947	54.78
310.161	60.93
310.374	58.88
310.588	69.12
310.802	58.88
311.016	30.21
311.23	87.55
311.444	-8.7
311.658	3.58
311.872	52.74
312.085	28.16
312.299	36.35
312.513	44.54
312.727	17.92
312.941	40.45
313.154	71.17
313.368	48.64
313.582	62.98
313.796	40.45
314.009	-20.99
314.223	56.83
314.437	69.12
314.651	34.3
314.864	13.82
315.078	-25.09
315.292	28.16
315.505	65.02
315.719	54.78
315.933	36.35
316.146	69.12
316.36	11.78
316.573	19.97
316.787	48.64
317.001	-20.99
317.214	-33.28
317.428	50.69
317.641	-90.62
317.855	-14.85
318.068	-2.56
318.282	24.06
318.495	112.13
318.709	28.16
318.922	-16.9
319.136	54.78
319.349	42.5
319.563	132.61
319.776	1.54
319.99	30.21
320.203	46.59
320.417	116.22
320.63	1.54
320.843	19.97
321.057	52.74
321.27	69.12
321.483	91.65
321.697	112.13
321.91	42.5
322.124	77.31
322.337	38.4
322.55	110.08
322.763	62.98
322.977	44.54
323.19	19.97
323.403	67.07
323.617	56.83
323.83	36.35
324.043	-57.86
324.256	103.93
324.469	19.97
324.683	50.69
324.896	60.93
325.109	42.5
325.322	93.69
325.535	110.08
325.748	22.02
325.962	48.64
326.175	19.97
326.388	99.84
326.601	60.93
326.814	-20.99
327.027	65.02
327.24	67.07
327.453	42.5
327.666	77.31
327.879	52.74
328.092	110.08
328.305	52.74
328.518	38.4
328.731	85.5
328.944	44.54
329.157	30.21
329.37	65.02
329.583	56.83
329.796	5.63
330.009	-10.75
330.222	60.93
330.435	7.68
330.648	42.5
330.861	85.5
331.073	50.69
331.286	58.88
331.499	-2.56
331.712	-66.05
331.925	17.92
332.138	34.3
332.35	38.4
332.563	13.82
332.776	26.11
332.989	50.69
333.202	40.45
333.414	65.02
333.627	73.21
333.84	-4.61
334.053	28.16
334.265	38.4
334.478	58.88
334.691	3.58
334.903	62.98
335.116	9.73
335.329	38.4
335.541	-18.94
335.754	44.54
335.966	-12.8
336.179	67.07
336.392	-18.94
336.604	62.98
336.817	62.98
337.029	65.02
337.242	69.12
337.454	-25.09
337.667	7.68
337.88	81.41
338.092	28.16
338.305	32.26
338.517	17.92
338.729	69.12
338.942	105.98
339.154	99.84
339.367	17.92
339.579	38.4
339.792	30.21
340.004	5.63
340.217	69.12
340.429	1.54
340.641	65.02
340.854	48.64
341.066	3.58
341.278	89.6
341.491	136.7
341.703	9.73
341.915	34.3
342.128	-16.9
342.34	50.69
342.552	56.83
342.764	34.3
342.977	73.21
343.189	79.36
343.401	60.93
343.613	-20.99
343.826	22.02
344.038	-10.75
344.25	122.37
344.462	36.35
344.674	42.5
344.886	89.6
345.099	13.82
345.311	50.69
345.523	-2.56
345.735	-2.56
345.947	40.45
346.159	42.5
346.371	28.16
346.583	44.54
346.795	83.45
347.007	5.63
347.219	69.12
347.431	24.06
347.643	77.31
347.855	11.78
348.067	118.27
348.279	24.06
348.491	140.8
348.703	-8.7
348.915	11.78
349.127	30.21
349.339	38.4
349.551	46.59
349.763	44.54
349.975	60.93
350.187	15.87
350.399	22.02
350.61	52.74
350.822	38.4
351.034	62.98
351.246	44.54
351.458	3.58
351.669	48.64
351.881	34.3
352.093	62.98
352.305	17.92
352.517	30.21
352.728	67.07
352.94	36.35
353.152	69.12
353.363	19.97
353.575	28.16
353.787	99.84
353.999	116.22
354.21	67.07
354.422	24.06
354.633	40.45
354.845	17.92
355.057	36.35
355.268	19.97
355.48	24.06
355.692	34.3
355.903	28.16
356.115	13.82
356.326	24.06
356.538	62.98
356.749	19.97
356.961	103.93
357.172	52.74
357.384	7.68
357.595	65.02
357.807	54.78
358.018	30.21
358.23	34.3
358.441	13.82
358.653	73.21
358.864	32.26
359.075	22.02
359.287	83.45
359.498	-18.94
359.709	108.03
359.921	38.4
360.132	73.21
360.344	81.41
360.555	95.74
360.766	24.06
360.977	95.74
361.189	81.41
361.4	42.5
361.611	34.3
361.823	50.69
362.034	110.08
362.245	15.87
362.456	97.79
362.667	46.59
362.879	99.84
363.09	-2.56
363.301	122.37
363.512	44.54
363.723	99.84
363.935	36.35
364.146	32.26
364.357	122.37
364.568	77.31
364.779	56.83
364.99	32.26
365.201	34.3
365.412	79.36
365.623	-12.8
365.834	54.78
366.045	42.5
366.256	19.97
366.467	89.6
366.678	38.4
366.889	48.64
367.1	73.21
367.311	110.08
367.522	69.12
367.733	97.79
367.944	71.17
368.155	42.5
368.366	97.79
368.577	93.69
368.788	120.32
368.999	3.58
369.209	-6.66
369.42	54.78
369.631	101.89
369.842	75.26
370.053	-20.99
370.264	34.3
370.474	48.64
370.685	48.64
370.896	50.69
371.107	73.21
371.317	65.02
371.528	28.16
371.739	71.17
371.95	46.59
372.16	44.54
372.371	71.17
372.582	65.02
372.792	-0.51
373.003	73.21
373.214	-2.56
373.424	13.82
373.635	54.78
373.846	77.31
374.056	26.11
374.267	19.97
374.477	15.87
374.688	83.45
374.898	7.68
375.109	79.36
375.319	54.78
375.53	38.4
375.74	95.74
375.951	87.55
376.161	112.13
376.372	60.93
376.582	85.5
376.793	32.26
377.003	-12.8
377.214	26.11
377.424	50.69
377.635	85.5
377.845	93.69
378.055	60.93
378.266	-4.61
378.476	122.37
378.686	-0.51
378.897	122.37
379.107	79.36
379.317	128.51
379.528	15.87
379.738	114.17
379.948	62.98
380.158	38.4
380.369	62.98
380.579	58.88
380.789	126.46
380.999	134.65
381.21	87.55
381.42	101.89
381.63	50.69
381.84	58.88
382.05	19.97
382.261	112.13
382.471	112.13
382.681	42.5
382.891	79.36
383.101	99.84
383.311	-2.56
383.521	85.5
383.731	79.36
383.941	75.26
384.151	103.93
384.361	97.79
384.571	75.26
384.781	101.89
384.991	77.31
385.201	118.27
385.411	48.64
385.621	62.98
385.831	67.07
386.041	58.88
386.251	71.17
386.461	-6.66
386.671	-20.99
386.881	56.83
387.091	7.68
387.301	26.11
387.511	67.07
387.72	69.12
387.93	36.35
388.14	85.5
388.35	-23.04
388.56	65.02
388.769	73.21
388.979	34.3
389.189	-2.56
389.399	118.27
389.609	93.69
389.818	163.33
390.028	5.63
390.238	126.46
390.447	22.02
390.657	85.5
390.867	-49.66
391.076	15.87
391.286	73.21
391.496	87.55
391.705	-10.75
391.915	48.64
392.125	108.03
392.334	69.12
392.544	93.69
392.753	163.33
392.963	67.07
393.172	38.4
393.382	56.83
393.591	69.12
393.801	73.21
394.01	89.6
394.22	116.22
394.429	1.54
394.639	114.17
394.848	118.27
395.058	91.65
395.267	46.59
395.477	54.78
395.686	108.03
395.895	81.41
396.105	140.8
396.314	122.37
396.524	112.13
396.733	28.16
396.942	132.61
397.152	140.8
397.361	95.74
397.57	91.65
397.78	69.12
397.989	173.57
398.198	105.98
398.407	67.07
398.617	75.26
398.826	126.46
399.035	124.41
399.244	71.17
399.453	153.09
399.663	103.93
399.872	79.36
400.081	97.79
400.29	105.98
400.499	116.22
400.708	108.03
400.917	122.37
401.127	167.42
401.336	65.02
401.545	134.65
401.754	157.18
401.963	146.94
402.172	97.79
402.381	124.41
402.59	112.13
402.799	165.37
403.008	153.09
403.217	85.5
403.426	144.89
403.635	179.71
403.844	140.8
404.053	171.52
404.262	175.61
404.471	198.14
404.68	214.52
404.888	200.19
405.097	171.52
405.306	85.5
405.515	161.28
405.724	93.69
405.933	271.87
406.142	157.18
406.35	163.33
406.559	208.38
406.768	214.52
406.977	132.61
407.185	142.85
407.394	294.4
407.603	183.81
407.812	259.58
408.02	212.48
408.229	253.44
408.438	206.33
408.646	288.25
408.855	224.76
409.064	214.52
409.272	257.53
409.481	400.89
409.69	267.77
409.898	247.29
410.107	335.35
410.315	351.74
410.524	310.78
410.733	323.07
410.941	407.03
411.15	466.42
411.358	484.86
411.567	376.31
411.775	359.93
411.984	435.71
412.192	445.95
412.401	513.53
412.609	433.66
412.818	456.19
413.026	525.82
413.234	564.73
413.443	517.62
413.651	552.44
413.86	570.87
414.068	615.93
414.276	581.11
414.485	712.18
414.693	648.69
414.901	693.75
415.11	716.28
415.318	685.56
415.526	812.53
415.734	839.16
415.943	847.35
416.151	814.58
416.359	929.27
416.567	839.16
416.776	982.51
416.984	896.5
417.192	1037.81
417.4	1021.42
417.608	1041.9
417.817	1029.62
418.025	1142.25
418.233	1203.69
418.441	1203.69
418.649	1242.61
418.857	1324.52
419.065	1379.82
419.273	1287.66
419.481	1504.75
419.689	1369.58
419.897	1465.83
420.105	1494.51
420.313	1635.82
420.521	1635.82
420.729	1650.15
420.937	1793.51
421.145	1816.04
421.353	1838.56
421.561	1906.15
421.769	1990.11
421.977	2094.56
422.185	2106.85
422.393	2235.87
422.601	2319.84
422.809	2383.32
423.017	2350.56
423.224	2579.93
423.432	2538.97
423.64	2518.49
423.848	2831.83
424.056	2770.39
424.263	2993.62
424.471	2907.6
424.679	2940.37
424.887	3225.04
425.094	3366.35
425.302	3257.81
425.51	3407.31
425.718	3440.08
425.925	3474.89
426.133	3737.03
426.341	3868.1
426.548	4076.99
426.756	4124.1
426.964	4163.01
427.171	4402.62
427.379	4425.15
427.586	4515.26
427.794	4748.73
428.001	4900.28
428.209	5053.87
428.417	4834.74
428.624	5330.35
428.832	5307.82
429.039	5256.62
429.247	5356.97
429.454	5805.48
429.662	6163.87
429.869	5750.18
430.076	6276.51
430.284	6139.3
430.491	6274.46
430.699	6725.02
430.906	6757.78
431.114	6641.05
431.321	7216.53
431.528	6919.57
431.736	7490.96
431.943	7832.97
432.15	7787.91
432.358	8009.09
432.565	8308.1
432.772	8217.99
432.979	8478.08
433.187	8795.51
433.394	8824.19
433.601	9694.57
433.808	9471.34
434.016	9346.42
434.223	9917.8
434.43	10491.23
434.637	10227.04
434.844	10802.52
435.052	10917.21
435.259	10859.87
435.466	11185.49
435.673	10878.3
435.88	11654.48
436.087	12297.54
436.294	12189
436.501	11902.28
436.708	12305.73
436.915	12674.37
437.122	13317.43
437.329	13196.6
437.537	13561.14
437.743	13825.33
437.95	13749.55
438.157	14341.41
438.364	14927.13
438.571	14939.42
438.778	15074.59
438.985	16459.01
439.192	15940.88
439.399	16170.25
439.606	15922.45
439.813	16737.54
440.02	17708.27
440.227	17421.56
440.433	17372.41
440.64	17923.31
440.847	17718.51
441.054	18169.07
441.261	19469.53
441.467	19311.83
441.674	19461.34
441.881	20204.75
442.088	20106.45
442.294	20008.14
442.501	20520.13
442.708	21120.19
442.914	21802.16
443.121	22807.72
443.328	22217.9
443.534	23784.6
443.741	22922.4
443.948	22746.28
444.154	24224.91
444.361	24186
444.568	24394.89
444.774	24220.81
444.981	24751.24
445.187	25377.92
445.394	26250.35
445.6	25992.31
445.807	28701.77
446.013	27204.7
446.22	28144.72
446.426	28793.93
446.633	29264.96
446.839	30135.35
447.046	29180.99
447.252	30624.81
447.459	30512.17
447.665	30063.67
447.871	31605.79
448.078	33235.97
448.284	31867.93
448.491	32408.59
448.697	33670.14
448.903	34474.99
449.11	34530.29
449.316	33977.34
449.522	34378.74
449.728	35296.23
449.935	35290.09
450.141	35369.96
450.347	36613.07
450.553	35386.34
450.76	35490.79
450.966	36768.72
451.172	36156.38
451.378	37518.28
451.584	36746.19
451.791	37391.3
451.997	37622.72
452.203	38038.46
452.409	38093.75
452.615	37962.68
452.821	36559.83
453.027	36053.98
453.233	38081.47
453.44	36807.63
453.646	37069.77
453.852	37084.11
454.058	37778.37
454.264	36404.18
454.47	37526.47
454.676	36365.27
454.882	37729.22
455.088	34571.25
455.294	34884.59
455.5	35480.55
455.705	35906.52
455.911	34251.77
456.117	33729.53
456.323	33557.5
456.529	31562.78
456.735	32896.01
456.941	31681.56
457.147	31788.06
457.352	30669.87
457.558	30329.91
457.764	30471.22
457.97	29811.77
458.176	28836.94
458.381	29246.53
458.587	27470.94
458.793	27726.94
458.999	26330.22
459.204	28269.65
459.41	27270.24
459.616	25648.25
459.821	25418.88
460.027	25484.41
460.233	24898.69
460.438	23784.6
460.644	23895.19
460.85	22887.59
461.055	22502.57
461.261	22680.74
461.466	20888.77
461.672	19956.94
461.878	21613.75
462.083	20219.08
462.289	19516.63
462.494	19801.3
462.7	18830.56
462.905	18234.6
463.111	18994.4
463.316	19123.42
463.522	18549.99
463.727	18695.39
463.932	18380.01
464.138	18119.92
464.343	18253.03
464.549	17888.5
464.754	18578.66
464.959	18449.64
465.165	18236.65
465.37	17452.28
465.575	16794.88
465.781	17634.55
465.986	17868.02
466.191	16835.84
466.397	16618.75
466.602	16020.75
466.807	16637.19
467.012	16534.79
467.218	16618.75
467.423	16475.4
467.628	16219.4
467.833	16966.91
468.038	16549.12
468.244	15971.6
468.449	16459.01
468.654	16127.24
468.859	15998.22
469.064	15686.93
469.269	15260.95
469.474	15136.03
469.679	15504.66
469.885	15267.1
470.09	15357.21
470.295	15142.17
470.5	14982.43
470.705	15035.67
470.91	14791.97
471.115	14548.26
471.32	14968.09
471.525	14640.42
471.73	14417.19
471.935	14236.97
472.139	13776.17
472.344	13876.52
472.549	13847.85
472.754	13714.73
472.959	13581.62
473.164	13126.97
473.369	12877.12
473.574	13442.35
473.778	13393.2
473.983	13094.2
474.188	13079.86
474.393	12666.17
474.598	12590.4
474.802	12418.37
475.007	12367.17
475.212	12465.47
475.417	12014.92
475.621	11859.28
475.826	12049.74
476.031	11754.83
476.235	11588.94
476.44	11816.27
476.645	11347.28
476.849	11511.12
477.054	11468.11
477.259	11273.56
477.463	10964.31
477.668	10929.5
477.872	11050.33
478.077	10888.54
478.282	10528.1
478.486	10421.6
478.691	10532.19
478.895	10435.94
479.1	10222.95
479.304	10268
479.509	9928.04
479.713	10435.94
479.918	10161.51
480.122	9958.76
480.326	10036.58
480.531	10055.01
480.735	9821.55
480.94	9768.3
481.144	9960.81
481.348	9717.1
481.553	9880.94
481.757	9645.42
481.961	9786.73
482.166	9786.73
482.37	9878.89
482.574	9483.63
482.778	9741.68
482.983	9846.12
483.187	9616.75
483.391	9641.32
483.595	9581.93
483.8	9112.95
484.004	9788.78
484.208	9614.7
484.412	9676.14
484.616	9665.9
484.821	9581.93
485.025	9534.83
485.229	9710.96
485.433	9481.58
485.637	9700.72
485.841	9360.75
486.045	9543.02
486.249	9702.76
486.453	9389.42
486.657	9690.48
486.861	9776.49
487.065	9188.72
487.269	9626.99
487.473	9149.81
487.677	9651.56
487.881	9401.71
488.085	9405.81
488.289	9586.03
488.493	9471.34
488.697	9543.02
488.901	9504.11
489.105	9497.97
489.309	9729.39
489.512	9815.4
489.716	9713
489.92	9643.37
490.124	9678.19
490.328	9833.83
490.531	9655.66
490.735	9700.72
490.939	9823.59
491.143	9682.28
491.346	9870.7
491.55	10028.39
491.754	9876.84
491.958	10106.21
492.161	9860.46
492.365	10247.52
492.569	10120.55
492.772	9897.32
492.976	10200.42
493.18	10245.48
493.383	10323.3
493.587	10511.71
493.79	10528.1
493.994	10204.52
494.197	10317.15
494.401	10626.4
494.605	10483.04
494.808	10679.65
495.012	10788.19
495.215	10775.9
495.419	11095.38
495.622	10843.48
495.825	11183.45
496.029	10935.64
496.232	11234.64
496.436	11214.16
496.639	11519.31
496.843	11394.39
497.046	11828.56
497.249	11781.45
497.453	11724.11
497.656	11990.35
497.859	11971.91
498.063	12217.67
498.266	12473.67
498.469	12422.47
498.673	12422.47
498.876	12592.45
499.079	12897.6
499.282	12700.99
499.485	13006.14
499.689	13294.9
499.892	13360.44
500.095	13192.5
500.298	13514.03
500.501	13448.5
500.705	13872.43
500.908	14161.19
501.111	14011.69
501.314	14273.83
501.517	14443.81
501.72	14554.4
501.923	14664.99
502.126	14906.65
502.329	15258.9
502.532	15279.38
502.735	15332.63
502.938	15650.07
503.141	15625.49
503.344	16024.84
503.547	16041.23
503.75	16268.55
503.953	16542.98
504.156	16375.05
504.359	16614.66
504.562	16862.46
504.765	17087.74
504.968	17349.88
505.17	17491.19
505.373	17483
505.576	17759.47
505.779	17929.45
505.982	17933.55
506.185	18275.56
506.387	18304.23
506.59	18445.54
506.793	19094.75
506.996	18898.14
507.198	19367.13
507.401	19176.67
507.604	19502.29
507.807	20088.01
508.009	20358.35
508.212	20358.35
508.415	20440.26
508.617	20812.99
508.82	20745.41
509.022	20720.84
509.225	21419.19
509.428	21343.42
509.63	21343.42
509.833	21871.79
510.035	22373.55
510.238	22133.93
510.44	22455.47
510.643	22754.47
510.845	23028.9
511.048	22805.67
511.25	22795.43
511.453	23211.17
511.655	24132.75
511.858	23762.07
512.06	24085.65
512.262	24102.03
512.465	24243.34
512.667	24640.65
512.87	24990.85
513.072	25304.19
513.274	25418.88
513.477	25758.84
513.679	25832.57
513.881	26238.06
514.084	26760.3
514.286	26438.76
514.488	26784.87
514.69	27450.46
514.893	27487.32
515.095	27180.13
515.297	27784.28
515.499	27956.31
515.701	28415.05
515.904	28312.66
516.106	28804.17
516.308	29113.41
516.51	29217.86
516.712	29596.73
516.914	29604.92
517.116	30493.74
517.318	30258.23
517.52	30256.18
517.722	30471.22
517.925	30798.89
518.127	31517.73
518.329	31548.45
518.531	31089.7
518.733	31910.94
518.935	32156.69
519.136	32277.52
519.338	32896.01
519.54	32691.21
519.742	33219.59
519.944	33192.97
520.146	33864.7
520.348	34120.7
520.55	34247.67
520.752	34169.85
520.954	34843.63
521.155	34491.38
521.357	35107.82
521.559	35247.08
521.761	35843.04
521.963	35574.75
522.164	36013.02
522.366	36260.82
522.568	36430.8
522.77	36815.82
522.971	37219.27
523.173	36684.75
523.375	37243.85
523.576	37706.69
523.778	37528.52
523.98	38237.11
524.181	37891.01
524.383	38001.6
524.584	38599.6
524.786	38755.25
524.988	38400.95
525.189	39007.15
525.391	39349.16
525.592	39625.64
525.794	39791.52
525.995	39644.07
526.197	39756.71
526.398	40090.52
526.6	40090.52
526.801	40440.73
527.003	40661.91
527.204	40270.75
527.406	40688.53
527.607	40850.32
527.808	41026.45
528.01	40749.97
528.211	41227.15
528.412	41859.97
528.614	41233.29
528.815	41620.36
529.016	42152.83
529.218	41446.28
529.419	41812.87
529.62	41884.54
529.822	42005.38
530.023	42312.57
530.224	42062.72
530.425	42265.47
530.626	42015.61
530.828	41935.74
531.029	42773.36
531.23	42115.97
531.431	42341.24
531.632	42640.25
531.833	43207.53
532.035	42822.51
532.236	42662.77
532.437	42791.8
532.638	42697.59
532.839	43049.84
533.04	43352.94
533.241	42478.46
533.442	43492.2
533.643	43332.46
533.844	43096.94
534.045	43305.84
534.246	42740.6
534.447	43555.69
534.648	43133.81
534.849	43418.47
535.05	43021.17
535.251	43152.24
535.451	43107.18
535.652	43111.28
535.853	43228.01
536.054	43348.84
536.255	43563.88
536.456	43185.01
536.657	43596.65
536.857	43002.74
537.058	43039.6
537.259	43643.75
537.46	43672.42
537.66	43248.49
537.861	43535.21
538.062	43230.06
538.263	43545.45
538.463	42935.15
538.664	43746.15
538.865	43295.6
539.065	43584.36
539.266	43295.6
539.466	43729.76
539.667	43133.81
539.868	43498.34
540.068	43598.69
540.269	43160.43
540.469	43557.74
540.67	43367.27
540.87	43180.91
541.071	43144.05
541.271	43539.3
541.472	43213.68
541.672	43021.17
541.873	43039.6
542.073	42695.54
542.274	43359.08
542.474	42933.1
542.675	42816.37
542.875	43412.33
543.075	43479.91
543.276	42455.93
543.476	43455.34
543.676	42982.26
543.877	43336.55
544.077	43649.89
544.277	43029.36
544.478	43152.24
544.678	43387.75
544.878	43242.35
545.078	43162.48
545.279	42933.1
545.479	42699.64
545.679	43082.61
545.879	43373.42
546.079	43156.33
546.28	42593.14
546.48	42677.11
546.68	43221.87
546.88	42912.63
547.08	43021.17
547.28	42537.85
547.48	42679.16
547.68	43191.15
547.88	42855.28
548.081	43199.34
548.281	42691.44
548.481	42726.26
548.681	43391.85
548.881	42941.3
549.081	42886
549.28	42587
549.48	42718.07
549.68	42879.86
549.88	43545.45
550.08	42683.25
550.28	42976.11
550.48	42654.58
550.68	42961.78
550.88	42521.46
551.08	42634.1
551.279	43148.14
551.479	42525.56
551.679	42582.9
551.879	42658.68
552.079	42666.87
552.278	42150.78
552.478	42648.44
552.678	42543.99
552.878	42744.69
553.077	42550.13
553.277	42318.71
553.477	42658.68
553.676	42081.15
553.876	42695.54
554.076	42398.59
554.275	42226.56
554.475	41667.46
554.674	42503.03
554.874	42326.91
555.074	42230.65
555.273	42259.32
555.473	42468.22
555.672	42247.04
555.872	42171.26
556.071	42144.64
556.271	42548.09
556.47	41800.58
556.67	41704.32
556.869	42224.51
557.068	41771.91
557.268	41284.49
557.467	41653.12
557.667	41880.45
557.866	41667.46
558.065	41579.4
558.265	41489.29
558.464	41264.01
558.663	41542.53
558.863	41284.49
559.062	41786.24
559.261	41495.43
559.461	41759.62
559.66	40971.15
559.859	40960.91
560.058	40864.66
560.258	41085.84
560.457	40432.54
560.656	41270.15
560.855	41075.6
561.054	41032.59
561.253	40543.13
561.453	40469.4
561.652	40934.29
561.851	40901.52
562.05	40618.9
562.249	40317.85
562.448	40905.62
562.647	40280.99
562.846	40457.11
563.045	40227.74
563.244	40039.33
563.443	40428.44
563.642	39678.88
563.841	40065.95
564.04	39852.96
564.239	40645.52
564.438	39656.35
564.637	39867.3
564.836	39859.1
565.035	39451.56
565.234	39613.35
565.432	39797.66
565.631	39560.1
565.83	39568.29
566.029	39187.37
566.228	39197.61
566.427	39156.65
566.625	39203.75
566.824	39035.82
567.023	39213.99
567.222	38523.83
567.42	38652.85
567.619	38745.01
567.818	38800.3
568.016	38474.68
568.215	39132.07
568.414	38122.43
568.612	38413.24
568.811	38126.52
569.01	38251.45
569.208	37761.98
569.407	38439.86
569.605	37815.23
569.804	37675.97
570.002	37618.63
570.201	37764.03
570.4	37274.57
570.598	37163.98
570.797	37223.37
570.995	37039.05
571.193	36398.04
571.392	37200.84
571.59	36946.89
571.789	37112.78
571.987	36713.42
572.186	36549.59
572.384	36377.56
572.582	36844.49
572.781	36803.53
572.979	36299.73
573.177	36307.93
573.376	36660.18
573.574	36070.36
573.772	36424.66
573.971	36283.35
574.169	35750.88
574.367	35728.35
574.565	36164.57
574.763	35677.15
574.962	35232.74
575.16	35316.71
575.358	35482.59
575.556	34999.27
575.754	35656.67
575.952	35451.88
576.151	35412.96
576.349	34466.8
576.547	35103.72
576.745	34976.75
576.943	35140.58
577.141	34616.3
577.339	34485.23
577.537	34620.4
577.735	34659.31
577.933	33965.05
578.131	34495.47
578.329	33729.53
578.527	34227.19
578.725	33934.33
578.923	34110.46
579.121	33901.56
579.319	33717.25
579.516	33862.65
579.714	33969.15
579.912	33278.98
580.11	33504.26
580.308	33563.65
580.506	33539.07
580.704	32775.18
580.901	33395.71
581.099	33215.49
581.297	32648.21
581.495	32625.68
581.692	33217.54
581.89	32554
582.088	33147.91
582.285	32312.34
582.483	32640.01
582.681	32453.65
582.878	32220.18
583.076	31786.01
583.274	32273.43
583.471	31829.02
583.669	32089.11
583.866	31773.72
584.064	31603.74
584.262	31466.53
584.459	31804.44
584.657	31732.76
584.854	31439.9
585.052	31214.63
585.249	31536.16
585.447	31573.02
585.644	31079.46
585.841	30981.16
586.039	31097.89
586.236	30655.53
586.434	31149.09
586.631	30835.75
586.828	30774.31
587.026	30491.69
587.223	30592.05
587.42	30118.96
587.618	30055.48
587.815	30133.3
588.012	30000.18
588.21	29930.55
588.407	30127.16
588.604	29791.29
588.801	29621.31
588.999	29709.37
589.196	29467.71
589.393	29916.22
589.59	29492.29
589.787	29281.35
589.984	29537.34
590.182	29158.47
590.379	29287.49
590.576	29090.88
590.773	28879.94
590.97	28695.63
591.167	29006.92
591.364	28578.89
591.561	29025.35
591.758	28255.31
591.955	28355.66
592.152	28484.69
592.349	28130.39
592.546	28257.36
592.743	28257.36
592.94	27810.9
593.137	28292.18
593.334	28159.06
593.531	27303.01
593.727	27800.66
593.924	28081.24
594.121	27802.71
594.318	27487.32
594.515	27440.22
594.712	27554.91
594.908	27176.03
595.105	27225.18
595.302	27270.24
595.499	27153.51
595.696	26950.76
595.892	26834.02
596.089	26823.78
596.286	26801.26
596.482	26602.6
596.679	26512.49
596.876	26440.81
597.072	26395.76
597.269	26311.79
597.466	26252.4
597.662	25961.59
597.859	26240.11
598.055	26356.85
598.252	26061.94
598.448	25613.43
598.645	25799.8
598.841	25355.39
599.038	25922.68
599.234	25758.84
599.431	25420.92
599.627	25183.36
599.824	25504.89
600.02	25220.22
600.217	25463.93
600.413	25226.37
600.609	24847.49
600.806	24913.03
601.002	25015.43
601.198	24794.25
601.395	24478.86
601.591	24702.09
601.787	24587.4
601.984	24347.79
602.18	24802.44
602.376	24609.93
602.572	24116.37
602.769	24530.06
602.965	24114.32
603.161	23973.01
603.357	24067.22
603.553	23954.58
603.75	24167.57
603.946	23872.66
604.142	24112.27
604.338	23846.04
604.534	23680.15
604.73	23477.4
604.926	23637.14
605.122	23573.66
605.318	23252.13
605.514	23471.26
605.71	23389.34
605.906	22879.39
606.102	23168.16
606.298	22820
606.494	22967.46
606.69	23141.53
606.886	22994.08
607.082	22768.8
607.278	22887.59
607.474	22332.59
607.67	22807.72
607.866	22334.64
608.062	22588.58
608.257	22183.09
608.453	22357.16
608.649	22770.85
608.845	22127.79
609.041	22531.24
609.236	22455.47
609.432	22445.23
609.628	21943.47
609.824	21992.62
610.019	21902.51
610.215	22068.4
610.411	22064.3
610.606	21904.56
610.802	21902.51
610.998	22019.25
611.193	22064.3
611.389	21521.59
611.584	21484.73
611.78	21595.32
611.976	21677.24
612.171	21513.4
612.367	21408.95
612.562	21241.02
612.758	21187.77
612.953	21515.45
613.149	21677.24
613.344	21312.7
613.539	21578.93
613.735	21214.4
613.93	21167.29
614.126	21253.31
614.321	21271.74
614.517	21105.85
614.712	21023.94
614.907	20970.69
615.103	21124.29
615.298	20704.45
615.493	21030.08
615.688	20686.02
615.884	21238.97
616.079	20612.29
616.274	20833.47
616.47	20626.63
616.665	20937.92
616.86	20653.25
617.055	20497.61
617.25	20419.78
617.445	20731.08
617.641	20288.71
617.836	20477.13
618.031	20284.62
618.226	20511.94
618.421	20212.94
618.616	20120.78
618.811	19528.92
619.006	20088.01
619.201	19684.56
619.396	20071.63
619.591	19602.64
619.786	19666.13
619.981	19395.8
620.176	19862.74
620.371	19373.27
620.566	19703
620.761	19215.58
620.956	19350.74
621.151	18896.1
621.346	19016.93
621.541	18808.03
621.735	19037.41
621.93	18705.63
622.125	18730.21
622.32	18709.73
622.515	18545.89
622.709	18457.83
622.904	18586.85
623.099	18427.11
623.294	18334.95
623.488	18212.07
623.683	17892.59
623.878	17474.81
624.072	17741.04
624.267	17937.65
624.462	17675.51
624.656	17362.17
624.851	17235.19
625.046	17227
625.24	17298.68
625.435	17036.54
625.629	17173.75
625.824	16997.63
626.018	16878.85
626.213	16626.95
626.407	16782.59
626.602	16426.25
626.796	16651.52
626.991	16348.42
627.185	16422.15
627.38	16170.25
627.574	16039.18
627.768	15985.93
627.963	16110.86
628.157	15799.57
628.352	16014.6
628.546	15734.03
628.74	15709.46
628.935	15713.55
629.129	15324.44
629.323	15047.96
629.517	15240.47
629.712	14961.95
629.906	15129.88
630.1	14839.07
630.294	14832.93
630.489	14996.76
630.683	15058.2
630.877	14736.67
631.071	14634.27
631.265	14812.45
631.459	14540.07
631.653	14488.87
631.848	14230.82
632.042	14376.23
632.236	14454.05
632.43	14175.53
632.624	14169.38
632.818	14226.73
633.012	13827.37
633.206	13970.73
633.4	13772.08
633.594	13675.82
633.788	13935.92
633.982	13765.93
634.176	13753.65
634.369	13325.62
634.563	13317.43
634.757	13337.91
634.951	13286.71
635.145	13319.48
635.339	13030.71
635.533	13137.21
635.726	12946.75
635.92	12850.49
636.114	12907.84
636.308	12850.49
636.501	12760.38
636.695	12850.49
636.889	12440.9
637.083	12504.39
637.276	12367.17
637.47	12432.71
637.664	12285.25
637.857	12385.6
638.051	11984.2
638.244	12066.12
638.438	12029.26
638.632	11939.15
638.825	11885.9
639.019	11873.61
639.212	11744.59
639.406	11941.19
639.599	11646.29
639.793	11683.15
639.986	11461.97
640.18	11439.44
640.373	11509.07
640.567	11322.71
640.76	11285.84
640.954	11300.18
641.147	11111.77
641.34	11142.49
641.534	10958.17
641.727	11113.81
641.92	11023.7
642.114	10884.44
642.307	10898.78
642.5	10988.89
642.694	10751.32
642.887	10579.29
643.08	10648.93
643.273	10646.88
643.467	10495.33
643.66	10548.58
643.853	10411.36
644.046	10558.81
644.239	10489.18
644.432	10075.49
644.626	10024.3
644.819	10126.69
645.012	10241.38
645.205	10198.37
645.398	10009.96
645.591	9940.33
645.784	10030.44
645.977	9723.24
646.17	9786.73
646.363	9702.76
646.556	9586.03
646.749	9665.9
646.942	9450.86
647.135	9612.65
647.328	9428.34
647.521	9203.06
647.714	9289.07
647.907	9264.5
648.099	9155.96
648.292	9401.71
648.485	9096.57
648.678	9067.89
648.871	9203.06
649.064	9065.85
649.256	8981.88
649.449	8963.45
649.642	8949.11
649.835	8799.61
650.027	8729.98
650.22	8762.75
650.413	8605.05
650.605	8635.77
650.798	8557.95
650.991	8586.62
651.183	8547.71
651.376	8371.58
651.568	8402.3
651.761	8416.64
651.954	8242.56
652.146	8390.02
652.339	8291.71
652.531	8297.86
652.724	8107.4
652.916	7927.18
653.109	8113.54
653.301	8045.96
653.494	8011.14
653.686	7749
653.879	7968.13
654.071	7869.83
654.263	7693.71
654.456	7810.44
654.648	7773.58
654.84	7568.78
655.033	7626.12
655.225	7689.61
655.417	7495.05
655.61	7646.6
655.802	7583.12
655.994	7386.51
656.186	7409.04
656.379	7241.11
656.571	7312.78
656.763	7327.12
656.955	7429.52
657.148	7237.01
657.34	7161.23
657.532	7196.05
657.724	7097.75
657.916	7220.63
658.108	7099.8
658.3	6938.01
658.492	7118.23
658.684	6808.98
658.876	6925.72
659.068	6829.46
659.26	6815.13
659.452	6886.81
659.644	6921.62
659.836	6788.5
660.028	6757.78
660.22	6581.66
660.412	6593.95
660.604	6624.67
660.796	6464.93
660.988	6575.52
661.18	6552.99
661.372	6593.95
661.563	6522.27
661.755	6464.93
661.947	6593.95
662.139	6397.34
662.331	6325.66
662.522	6323.62
662.714	6317.47
662.906	6153.63
663.097	6127.01
663.289	6120.87
663.481	6049.19
663.673	6022.56
663.864	6086.05
664.056	5934.5
664.247	6122.91
664.439	5797.29
664.631	5987.75
664.822	5838.25
665.014	5852.58
665.205	6008.23
665.397	5807.53
665.588	5770.66
665.78	5715.37
665.971	5813.67
666.163	5567.92
666.354	5543.34
666.546	5698.99
666.737	5653.93
666.929	5694.89
667.12	5557.68
667.311	5430.7
667.503	5625.26
667.694	5641.64
667.885	5662.12
668.077	5500.33
668.268	5455.28
668.459	5311.92
668.651	5240.24
668.842	5457.32
669.033	5293.49
669.224	5367.21
669.416	5436.85
669.607	5254.58
669.798	5207.47
669.989	5260.72
670.18	5338.54
670.371	5211.57
670.563	5209.52
670.754	5168.56
670.945	5225.9
671.136	5043.64
671.327	5105.07
671.518	5096.88
671.709	5074.35
671.9	5117.36
672.091	5086.64
672.282	5051.83
672.473	5031.35
672.664	5064.11
672.855	5035.44
673.046	4894.13
673.237	4822.45
673.428	4959.67
673.619	4920.76
673.809	4883.89
674	4785.59
674.191	4781.5
674.382	4672.95
674.573	4928.95
674.764	4851.13
674.954	4847.03
675.145	4720.06
675.336	4871.61
675.527	4724.15
675.717	4634.04
675.908	4574.65
676.099	4607.42
676.289	4744.63
676.48	4693.43
676.671	4697.53
676.861	4668.86
677.052	4646.33
677.243	4558.27
677.433	4644.28
677.624	4562.36
677.814	4595.13
678.005	4591.03
678.195	4629.95
678.386	4582.84
678.576	4472.25
678.767	4351.42
678.957	4498.88
679.148	4406.72
679.338	4634.04
679.529	4318.65
679.719	4380.09
679.909	4550.07
680.1	4408.76
680.29	4423.1
680.481	4410.81
680.671	4359.61
680.861	4314.56
681.052	4586.94
681.242	4349.37
681.432	4365.76
681.622	4345.28
681.813	4236.74
682.003	4414.91
682.193	4197.82
682.383	4353.47
682.573	4380.09
682.764	4261.31
682.954	4185.54
683.144	4306.37
683.334	4232.64
683.524	4269.5
683.714	4298.17
683.904	4142.53
684.094	4228.54
684.284	4156.86
684.474	4363.71
684.664	4242.88
684.854	4175.3
685.044	4060.61
685.234	4087.23
685.424	4169.15
685.614	4242.88
685.804	4050.37
685.994	4130.24
686.184	4126.15
686.374	4111.81
686.564	4038.08
686.753	4074.95
686.943	3898.82
687.133	4001.22
687.323	3995.08
687.513	3898.82
687.702	3945.92
687.892	3968.45
688.082	3935.68
688.272	3833.29
688.461	3898.82
688.651	3876.29
688.841	3743.17
689.03	3900.87
689.22	3825.09
689.41	3761.61
689.599	3818.95
689.789	3698.12
689.979	3804.61
690.168	3847.62
690.358	3683.78
690.547	3616.2
690.737	3761.61
690.926	3788.23
691.116	3669.45
691.305	3546.57
691.495	3573.19
691.684	3519.95
691.874	3610.06
692.063	3698.12
692.252	3710.41
692.442	3403.21
692.631	3431.88
692.82	3585.48
693.01	3560.91
693.199	3466.7
693.388	3360.2
693.578	3481.03
693.767	3263.95
693.956	3440.08
694.146	3364.3
694.335	3534.28
694.524	3403.21
694.713	3384.78
694.902	3325.39
695.092	3329.49
695.281	3366.35
695.47	3257.81
695.659	3329.49
695.848	3259.85
696.037	3235.28
696.226	3272.14
696.415	3257.81
696.604	3362.25
696.793	3192.27
696.982	3163.6
697.171	3251.66
697.36	3124.69
697.549	3268.05
697.738	3247.57
697.927	3147.22
698.116	3167.7
698.305	3218.89
698.494	3134.93
698.683	3085.78
698.872	3126.74
699.061	3016.15
699.25	3155.41
699.438	3237.33
699.627	3169.74
699.816	3128.78
700.005	3210.7
700.193	3087.82
700.382	3118.54
700.571	3163.6
700.76	3149.26
700.948	3149.26
701.137	3192.27
701.326	3153.36
701.514	3132.88
701.703	3147.22
701.892	2940.37
702.08	3212.75
702.269	3081.68
702.457	2932.18
702.646	3016.15
702.834	3042.77
703.023	3055.06
703.212	3053.01
703.4	2995.67
703.589	3016.15
703.777	3026.39
703.965	2909.65
704.154	3102.16
704.342	3118.54
704.531	3114.45
704.719	3024.34
704.907	3020.24
705.096	2991.57
705.284	2987.47
705.472	2948.56
705.661	2946.52
705.849	2991.57
706.037	3083.73
706.226	2975.19
706.414	2985.43
706.602	2921.94
706.79	3075.54
706.979	3018.19
707.167	3122.64
707.355	2979.28
707.543	2977.23
707.731	3028.43
707.919	2954.71
708.107	2962.9
708.296	2979.28
708.484	2880.98
708.672	2917.84
708.86	2954.71
709.048	2854.36
709.236	2969.04
709.424	2880.98
709.612	2973.14
709.8	3079.63
709.988	3032.53
710.176	2940.37
710.364	3028.43
710.551	3044.82
710.739	2991.57
710.927	2969.04
711.115	2837.97
711.303	2948.56
711.491	2913.75
711.679	3001.81
711.866	3032.53
712.054	2977.23
712.242	2932.18
712.43	3063.25
712.617	3032.53
712.805	2932.18
712.993	2975.19
713.181	2862.55
713.368	2944.47
713.556	2956.75
713.744	2956.75
713.931	3071.44
714.119	2932.18
714.306	2928.08
714.494	3030.48
714.682	3075.54
714.869	3057.11
715.057	2897.36
715.244	2958.8
715.432	3110.35
715.619	3003.86
715.807	2866.64
715.994	2905.56
716.182	2891.22
716.369	3003.86
716.556	3104.21
716.744	3104.21
716.931	3130.83
717.119	3112.4
717.306	2946.52
717.493	2942.42
717.681	3012.05
717.868	3001.81
718.055	3089.87
718.242	2995.67
718.43	3093.97
718.617	3018.19
718.804	3061.2
718.991	3014.1
719.179	3061.2
719.366	2966.99
719.553	2901.46
719.74	2950.61
719.927	3028.43
720.114	2979.28
720.301	3067.35
720.488	3040.72
720.676	3083.73
720.863	3032.53
721.05	3028.43
721.237	2993.62
721.424	3091.92
721.611	3073.49
721.798	2987.47
721.985	3053.01
722.172	3089.87
722.358	2928.08
722.545	2987.47
722.732	3038.67
722.919	2960.85
723.106	2989.52
723.293	3048.91
723.48	2981.33
723.667	2981.33
723.853	2866.64
724.04	3149.26
724.227	2983.38
724.414	2936.28
724.6	2926.04
724.787	3061.2
724.974	2917.84
725.161	3007.95
725.347	2921.94
725.534	2893.27
725.72	2905.56
725.907	3046.87
726.094	3151.31
726.28	2962.9
726.467	2889.17
726.653	3026.39
726.84	3018.19
727.027	3042.77
727.213	3030.48
727.4	2966.99
727.586	2928.08
727.773	2862.55
727.959	3055.06
728.145	3001.81
728.332	2985.43
728.518	3081.68
728.705	2993.62
728.891	3026.39
729.077	2889.17
729.264	3083.73
729.45	3061.2
729.636	2966.99
729.823	3048.91
730.009	3016.15
730.195	2858.45
730.382	2997.71
730.568	3050.96
730.754	3098.06
730.94	3016.15
731.126	3022.29
731.313	2960.85
731.499	2899.41
731.685	3085.78
731.871	2952.66
732.057	3010
732.243	2921.94
732.429	2964.95
732.615	2948.56
732.801	3012.05
732.987	2979.28
733.173	3038.67
733.359	2954.71
733.545	3055.06
733.731	2946.52
733.917	3007.95
734.103	3007.95
734.289	2926.04
734.475	2999.76
734.661	2983.38
734.847	2911.7
735.033	3022.29
735.219	3040.72
735.404	3018.19
735.59	2926.04
735.776	2866.64
735.962	3065.3
736.148	2854.36
736.333	2895.32
736.519	2907.6
736.705	2874.84
736.89	2889.17
737.076	2964.95
737.262	2926.04
737.447	2848.21
737.633	2969.04
737.819	2903.51
738.004	2923.99
738.19	2954.71
738.375	2817.49
738.561	2897.36
738.747	2856.4
738.932	2868.69
739.118	2827.73
739.303	2911.7
739.489	2887.12
739.674	2690.52
739.859	2788.82
740.045	2891.22
740.23	2909.65
740.416	2735.57
740.601	2868.69
740.786	2850.26
740.972	2768.34
741.157	2846.16
741.342	2815.45
741.528	2784.73
741.713	2651.61
741.898	2805.21
742.084	2665.94
742.269	2760.15
742.454	2825.68
742.639	2754.01
742.824	2637.27
743.01	2700.76
743.195	2823.64
743.38	2690.52
743.565	2661.85
743.75	2647.51
743.935	2723.29
744.12	2567.64
744.305	2571.74
744.49	2500.06
744.675	2631.13
744.86	2551.26
745.045	2594.26
745.23	2559.45
745.415	2502.11
745.6	2475.48
745.785	2551.26
745.97	2471.39
746.155	2485.72
746.34	2475.48
746.525	2409.95
746.71	2561.5
746.895	2430.43
747.079	2373.08
747.264	2409.95
747.449	2405.85
747.634	2285.02
747.819	2479.58
748.003	2379.23
748.188	2405.85
748.373	2311.64
748.557	2368.99
748.742	2364.89
748.927	2358.75
749.111	2237.92
749.296	2143.71
749.481	2301.4
749.665	2108.9
749.85	2258.4
750.034	2246.11
750.219	2137.57
750.404	2199.01
750.588	2164.19
750.773	2139.62
750.957	2143.71
751.141	2076.13
751.326	2162.14
751.51	2055.65
751.695	2045.41
751.879	2051.55
752.064	2149.86
752.248	1971.68
752.432	2055.65
752.617	2006.5
752.801	2035.17
752.985	2037.22
753.17	1936.87
753.354	1957.35
753.538	2000.35
753.722	1875.43
753.907	1871.33
754.091	1723.88
754.275	1904.1
754.459	1969.63
754.643	1904.1
754.828	1826.28
755.012	1709.54
755.196	1816.04
755.38	1773.03
755.564	1740.26
755.748	1830.37
755.932	1717.73
756.116	1768.93
756.3	1742.31
756.484	1619.43
756.668	1629.67
756.852	1646.05
757.036	1650.15
757.22	1629.67
757.404	1615.34
757.588	1578.47
757.772	1605.1
757.956	1605.1
758.14	1551.85
758.323	1658.34
758.507	1582.57
758.691	1545.7
758.875	1629.67
759.059	1527.27
759.242	1633.77
759.426	1488.36
759.61	1598.95
759.794	1557.99
759.977	1512.94
760.161	1590.76
760.345	1586.66
760.528	1478.12
760.712	1504.75
760.895	1340.91
761.079	1455.59
761.263	1285.61
761.446	1351.15
761.63	1412.59
761.813	1447.4
761.997	1377.77
762.18	1381.87
762.364	1453.55
762.547	1371.63
762.731	1383.91
762.914	1322.48
763.098	1424.87
763.281	1273.32
763.464	1396.2
763.648	1279.47
763.831	1299.95
764.015	1285.61
764.198	1349.1
764.381	1316.33
764.564	1338.86
764.748	1238.51
764.931	1373.68
765.114	1215.98
765.297	1330.67
765.481	1222.13
765.664	1242.61
765.847	1213.93
766.03	1281.52
766.213	1248.75
766.397	1234.41
766.58	1246.7
766.763	1295.85
766.946	1256.94
767.129	1224.17
767.312	1205.74
767.495	1203.69
767.678	1150.45
767.861	1215.98
768.044	1213.93
768.227	1252.84
768.41	1203.69
768.593	1277.42
768.776	1175.02
768.959	1177.07
769.142	1160.69
769.324	1170.93
769.507	1164.78
769.69	1189.36
769.873	1074.67
770.056	1119.73
770.239	1181.17
770.421	1244.65
770.604	1158.64
770.787	1062.38
770.97	1023.47
771.152	1089.01
771.335	1113.58
771.518	1084.91
771.7	1074.67
771.883	1129.97
772.066	1148.4
772.248	1046
772.431	1123.82
772.613	1076.72
772.796	1027.57
772.978	994.8
773.161	978.42
773.343	1074.67
773.526	1048.05
773.708	1002.99
773.891	992.75
774.073	1052.14
774.256	1080.82
774.438	1013.23
774.621	904.69
774.803	945.65
774.985	945.65
775.168	998.9
775.35	943.6
775.532	988.66
775.715	916.98
775.897	935.41
776.079	845.3
776.261	925.17
776.444	892.4
776.626	861.68
776.808	923.12
776.99	896.5
777.173	880.11
777.355	857.59
777.537	820.72
777.719	837.11
777.901	898.55
778.083	861.68
778.265	792.05
778.447	876.02
778.629	814.58
778.811	796.15
778.993	792.05
779.175	830.96
779.357	779.76
779.539	820.72
779.721	712.18
779.903	765.43
780.085	701.94
780.267	775.67
780.449	724.47
780.631	763.38
780.812	673.27
780.994	751.09
781.176	724.47
781.358	673.27
781.54	695.8
781.721	730.61
781.903	753.14
782.085	701.94
782.267	697.85
782.448	660.98
782.63	683.51
782.812	708.09
782.993	665.08
783.175	617.97
783.357	587.26
783.538	593.4
783.72	646.65
783.901	683.51
784.083	658.93
784.264	605.69
784.446	624.12
784.627	658.93
784.809	691.7
784.99	626.17
785.172	542.2
785.353	589.3
785.535	611.83
785.716	615.93
785.897	525.82
786.079	581.11
786.26	630.26
786.441	517.62
786.623	550.39
786.804	595.45
786.985	507.38
787.167	511.48
787.348	491
787.529	572.92
787.71	562.68
787.891	464.38
788.073	450.04
788.254	466.42
788.435	525.82
788.616	482.81
788.797	466.42
788.978	447.99
789.159	482.81
789.34	542.2
789.522	450.04
789.703	495.1
789.884	495.1
790.065	544.25
790.246	546.3
790.427	437.75
790.607	505.34
790.788	460.28
790.969	452.09
791.15	437.75
791.331	423.42
791.512	394.75
791.693	456.19
791.874	425.47
792.054	531.96
792.235	447.99
792.416	470.52
792.597	357.88
792.778	427.51
792.958	345.59
793.139	333.31
793.32	392.7
793.5	384.51
793.681	474.62
793.862	384.51
794.042	466.42
794.223	429.56
794.404	339.45
794.584	347.64
794.765	329.21
794.945	452.09
795.126	419.32
795.306	335.35
795.487	306.68
795.667	349.69
795.848	351.74
796.028	380.41
796.209	421.37
796.389	364.03
796.57	333.31
796.75	331.26
796.93	411.13
797.111	372.22
797.291	329.21
797.471	407.03
797.652	343.55
797.832	337.4
798.012	333.31
798.192	325.12
798.373	288.25
798.553	331.26
798.733	423.42
798.913	368.12
799.093	314.88
799.274	325.12
799.454	386.55
799.634	339.45
799.814	321.02
799.994	284.16
800.174	339.45
800.354	247.29
800.534	325.12
800.714	368.12
800.894	278.01
801.074	386.55
801.254	321.02
801.434	232.96
801.614	263.68
801.794	185.85
801.974	712.18
802.154	323.07
802.334	308.73
802.514	265.72
802.693	292.35
802.873	296.44
803.053	290.3
803.233	282.11
803.413	245.24
803.592	280.06
803.772	222.72
803.952	249.34
804.131	216.57
804.311	345.59
804.491	261.63
804.67	232.96
804.85	306.68
805.03	288.25
805.209	355.83
805.389	263.68
805.568	337.4
805.748	245.24
805.928	192
806.107	325.12
806.287	312.83
806.466	153.09
806.646	185.85
806.825	198.14
807.004	243.2
807.184	202.24
807.363	239.1
807.543	269.82
807.722	204.28
807.901	284.16
808.081	232.96
808.26	230.91
808.439	198.14
808.619	224.76
808.798	192
808.977	259.58
809.156	300.54
809.336	210.43
809.515	239.1
809.694	239.1
809.873	222.72
810.052	282.11
810.231	210.43
810.411	224.76
810.59	251.39
810.769	202.24
810.948	208.38
811.127	132.61
811.306	226.81
811.485	241.15
811.664	259.58
811.843	196.09
812.022	237.05
812.201	208.38
812.38	179.71
812.559	271.87
812.737	192
812.916	224.76
813.095	187.9
813.274	163.33
813.453	151.04
813.632	187.9
813.811	224.76
813.989	253.44
814.168	155.13
814.347	155.13
814.526	220.67
814.704	216.57
814.883	204.28
815.062	206.33
815.24	204.28
815.419	157.18
815.598	247.29
815.776	159.23
815.955	165.37
816.133	151.04
816.312	214.52
816.49	77.31
816.669	167.42
816.847	206.33
817.026	228.86
817.204	204.28
817.383	161.28
817.561	153.09
817.74	232.96
817.918	136.7
818.097	120.32
818.275	169.47
818.453	175.61
818.632	175.61
818.81	200.19
818.988	142.85
819.167	157.18
819.345	167.42
819.523	128.51
819.701	105.98
819.879	148.99
820.058	239.1
820.236	118.27
820.414	196.09
820.592	132.61
820.77	224.76
820.948	169.47
821.127	202.24
821.305	175.61
821.483	167.42
821.661	93.69
821.839	134.65
822.017	161.28
822.195	157.18
822.373	202.24
822.551	165.37
822.729	128.51
822.907	142.85
823.085	253.44
823.262	138.75
823.44	206.33
823.618	153.09
823.796	110.08
823.974	136.7
824.152	118.27
824.329	67.07
824.507	200.19
824.685	69.12
824.863	169.47
825.04	146.94
825.218	153.09
825.396	112.13
825.574	177.66
825.751	77.31
825.929	79.36
826.107	179.71
826.284	95.74
826.462	151.04
826.639	95.74
826.817	128.51
826.994	132.61
827.172	105.98
827.349	237.05
827.527	179.71
827.704	151.04
827.882	153.09
828.059	91.65
828.237	114.17
828.414	112.13
828.591	138.75
828.769	108.03
828.946	134.65
829.124	108.03
829.301	101.89
829.478	124.41
829.655	114.17
829.833	163.33
830.01	73.21
830.187	110.08
830.364	142.85
830.542	153.09
830.719	73.21
830.896	122.37
831.073	157.18
831.25	110.08
831.427	110.08
831.604	122.37
831.782	144.89
831.959	56.83
832.136	52.74
832.313	73.21
832.49	95.74
832.667	85.5
832.844	97.79
833.021	183.81
833.198	77.31
833.374	181.76
833.551	110.08
833.728	58.88
833.905	108.03
834.082	75.26
834.259	103.93
834.436	185.85
834.612	50.69
834.789	120.32
834.966	46.59
835.143	108.03
835.319	110.08
835.496	142.85
835.673	132.61
835.85	97.79
836.026	97.79
836.203	155.13
836.38	79.36
836.556	128.51
836.733	103.93
836.909	85.5
837.086	87.55
837.262	99.84
837.439	58.88
837.616	93.69
837.792	93.69
837.968	103.93
838.145	67.07
838.321	79.36
838.498	89.6
838.674	142.85
838.851	128.51
839.027	110.08
839.203	91.65
839.38	142.85
839.556	87.55
839.732	136.7
839.909	77.31
840.085	73.21
840.261	-16.9
840.437	93.69
840.614	62.98
840.79	95.74
840.966	19.97
841.142	105.98
841.318	87.55
841.494	136.7
841.671	19.97
841.847	56.83
842.023	28.16
842.199	7.68
842.375	38.4
842.551	46.59
842.727	56.83
842.903	116.22
843.079	120.32
843.255	157.18
843.431	87.55
843.607	44.54
843.783	56.83
843.959	116.22
844.134	15.87
844.31	138.75
844.486	52.74
844.662	40.45
844.838	7.68
845.013	151.04
845.189	60.93
845.365	30.21
845.541	9.73
845.716	62.98
845.892	42.5
846.068	77.31
846.244	32.26
846.419	40.45
846.595	11.78
846.77	99.84
846.946	22.02
847.122	105.98
847.297	32.26
847.473	93.69
847.648	17.92
847.824	60.93
847.999	-0.51
848.175	105.98
848.35	108.03
848.526	75.26
848.701	40.45
848.876	110.08
849.052	36.35
849.227	116.22
849.403	62.98
849.578	38.4
849.753	34.3
849.929	126.46
850.104	85.5
850.279	44.54
850.454	26.11
850.63	77.31
850.805	67.07
850.98	58.88
851.155	89.6
851.33	89.6
851.505	108.03
851.681	56.83
851.856	101.89
852.031	48.64
852.206	93.69
852.381	30.21
852.556	83.45
852.731	93.69
852.906	15.87
853.081	87.55
853.256	52.74
853.431	56.83
853.606	15.87
853.781	1.54
853.956	62.98
854.131	28.16
854.305	62.98
854.48	71.17
854.655	54.78
854.83	67.07
855.005	60.93
855.18	56.83
855.354	40.45
855.529	58.88
855.704	-4.61
855.879	19.97
856.053	7.68
856.228	52.74
856.403	19.97
856.577	15.87
856.752	3.58
856.926	77.31
857.101	81.41
857.276	50.69
857.45	67.07
857.625	71.17
857.799	54.78
857.974	13.82
858.148	17.92
858.323	36.35
858.497	34.3
858.672	48.64
858.846	9.73
859.02	87.55
859.195	36.35
859.369	44.54
859.543	44.54
859.718	67.07
859.892	11.78
860.066	17.92
860.241	40.45
860.415	19.97
860.589	7.68
860.763	46.59
860.938	-12.8
861.112	103.93
861.286	56.83
861.46	-12.8
861.634	-4.61
861.808	75.26
861.982	7.68
862.157	24.06
862.331	40.45
862.505	26.11
862.679	65.02
862.853	65.02
863.027	-31.23
863.201	97.79
863.375	24.06
863.549	30.21
863.722	38.4
863.896	148.99
864.07	50.69
864.244	-53.76
864.418	91.65
864.592	46.59
864.766	36.35
864.939	-20.99
865.113	17.92
865.287	40.45
865.461	22.02
865.634	56.83
865.808	1.54
865.982	17.92
866.156	40.45
866.329	34.3
866.503	-2.56
866.676	13.82
866.85	19.97
867.024	46.59
867.197	-23.04
867.371	62.98
867.544	140.8
867.718	-47.62
867.891	26.11
868.065	83.45
868.238	67.07
868.412	48.64
868.585	26.11
868.759	81.41
868.932	-33.28
869.105	52.74
869.279	44.54
869.452	-66.05
869.625	-55.81
869.799	93.69
869.972	5.63
870.145	-20.99
870.319	34.3
870.492	40.45
870.665	-31.23
870.838	52.74
871.011	-10.75
871.185	77.31
871.358	28.16
871.531	65.02
871.704	-57.86
871.877	9.73
872.05	9.73
872.223	13.82
872.396	105.98
872.569	-23.04
872.742	-27.14
872.915	71.17
873.088	62.98
873.261	-0.51
873.434	52.74
873.607	-14.85
873.78	28.16
873.953	56.83
874.126	-2.56
874.299	-49.66
874.471	-29.18
874.644	42.5
874.817	97.79
874.99	38.4
875.163	69.12
875.335	52.74
875.508	24.06
875.681	69.12
875.853	-20.99
876.026	-14.85
876.199	118.27
876.371	44.54
876.544	24.06
876.717	30.21
876.889	48.64
877.062	-0.51
877.234	1.54
877.407	28.16
877.579	-57.86
877.752	-8.7
877.924	17.92
878.097	75.26
878.269	28.16
878.442	44.54
878.614	58.88
878.786	48.64
878.959	-31.23
879.131	22.02
879.303	-43.52
879.476	44.54
879.648	-29.18
879.82	-10.75
879.993	-33.28
880.165	48.64
880.337	71.17
880.509	-14.85
880.681	15.87
880.854	9.73
881.026	3.58
881.198	3.58
881.37	65.02
881.542	65.02
881.714	15.87
881.886	-18.94
882.058	24.06
882.23	34.3
882.402	3.58
882.574	24.06
882.746	-6.66
882.918	19.97
883.09	56.83
883.262	-51.71
883.434	-18.94
883.606	24.06
883.778	26.11
883.95	9.73
884.122	22.02
884.293	62.98
884.465	-29.18
884.637	95.74
884.809	32.26
884.98	3.58
885.152	-51.71
885.324	62.98
885.496	-18.94
885.667	54.78
885.839	67.07
886.011	-14.85
886.182	-61.95
886.354	62.98
886.525	60.93
886.697	48.64
886.869	-10.75
887.04	48.64
887.212	3.58
887.383	46.59
887.555	22.02
887.726	32.26
887.897	67.07
888.069	9.73
888.24	48.64
888.412	-10.75
888.583	17.92
888.754	-4.61
888.926	44.54
889.097	-2.56
889.268	-23.04
889.44	30.21
889.611	3.58
889.782	-0.51
889.953	-41.47
890.125	30.21
890.296	19.97
890.467	-14.85
890.638	46.59
890.809	34.3
890.98	-12.8
891.151	-6.66
891.323	71.17
891.494	54.78
891.665	1.54
891.836	28.16
892.007	40.45
892.178	50.69
892.349	-29.18
892.52	85.5
892.691	-4.61
892.862	42.5
893.032	-10.75
893.203	-25.09
893.374	-0.51
893.545	-86.53
893.716	19.97
893.887	26.11
894.057	-43.52
894.228	17.92
894.399	48.64
894.57	-8.7
894.74	-10.75
894.911	40.45
895.082	-2.56
895.253	-0.51
895.423	-33.28
895.594	-57.86
895.764	48.64
895.935	-74.24
896.106	-20.99
896.276	9.73
896.447	-4.61
896.617	-2.56
896.788	-72.19
896.958	-29.18
897.129	28.16
897.299	73.21
897.47	48.64
897.64	-45.57
897.81	-61.95
897.981	7.68
898.151	-39.42
898.322	1.54
898.492	3.58
898.662	28.16
898.832	-33.28
899.003	40.45
899.173	34.3
899.343	40.45
899.513	-8.7
