Data from USB4F104151__82__11-52-50-099.txt Node

Date: Fri Mar 14 11:52:50 EDT 2025
User: louis
Spectrometer: USB4F10415
Trigger mode: 4
Integration Time (sec): 2.000000E-2
Scans to average: 1
Electric dark correction enabled: true
Nonlinearity correction enabled: false
Boxcar width: 0
XAxis mode: Wavelengths
Number of Pixels in Spectrum: 3648
>>>>>Begin Spectral Data<<<<<
178.204	-4.78
178.424	-4.78
178.644	-4.78
178.864	-86.7
179.084	-23.21
179.304	-12.97
179.524	-41.64
179.744	15.7
179.964	1.37
180.184	3.41
180.404	62.8
180.624	9.56
180.844	17.75
181.064	15.7
181.283	-60.07
181.503	-17.07
181.723	5.46
181.943	1.37
182.163	-2.73
182.383	38.23
182.602	52.56
182.822	60.76
183.042	42.32
183.262	23.89
183.482	5.46
183.701	-4.78
183.921	-17.07
184.141	-43.69
184.361	44.37
184.58	-8.87
184.8	5.46
185.02	-6.83
185.239	-53.93
185.459	-17.07
185.679	-33.45
185.898	-86.7
186.118	32.08
186.338	23.89
186.557	71
186.777	13.65
186.997	30.04
187.216	25.94
187.436	81.24
187.655	81.24
187.875	81.24
188.095	25.94
188.314	68.95
188.534	58.71
188.753	62.8
188.973	1.37
189.192	62.8
189.412	32.08
189.631	23.89
189.851	21.84
190.07	103.76
190.29	68.95
190.509	56.66
190.729	-0.68
190.948	21.84
191.168	120.15
191.387	56.66
191.607	60.76
191.826	11.61
192.045	13.65
192.265	97.62
192.484	-51.88
192.704	25.94
192.923	-4.78
193.142	83.28
193.362	3.41
193.581	101.72
193.8	64.85
194.02	83.28
194.239	68.95
194.458	54.61
194.678	75.09
194.897	97.62
195.116	13.65
195.335	64.85
195.555	85.33
195.774	3.41
195.993	32.08
196.212	-12.97
196.432	15.7
196.651	-2.73
196.87	75.09
197.089	58.71
197.308	50.52
197.528	21.84
197.747	-29.35
197.966	111.96
198.185	42.32
198.404	23.89
198.623	13.65
198.842	79.19
199.062	58.71
199.281	60.76
199.5	21.84
199.719	17.75
199.938	58.71
200.157	83.28
200.376	89.43
200.595	111.96
200.814	44.37
201.033	36.18
201.252	-25.26
201.471	17.75
201.69	58.71
201.909	32.08
202.128	48.47
202.347	58.71
202.566	7.51
202.785	7.51
203.004	-8.87
203.223	48.47
203.442	30.04
203.661	13.65
203.879	42.32
204.098	48.47
204.317	60.76
204.536	87.38
204.755	11.61
204.974	7.51
205.193	66.9
205.411	89.43
205.63	71
205.849	42.32
206.068	3.41
206.287	11.61
206.505	60.76
206.724	60.76
206.943	-0.68
207.162	25.94
207.381	-12.97
207.599	32.08
207.818	81.24
208.037	30.04
208.255	-12.97
208.474	71
208.693	58.71
208.911	36.18
209.13	38.23
209.349	71
209.567	48.47
209.786	42.32
210.005	58.71
210.223	81.24
210.442	-10.92
210.661	-2.73
210.879	15.7
211.098	-4.78
211.316	58.71
211.535	68.95
211.753	66.9
211.972	32.08
212.191	50.52
212.409	48.47
212.628	60.76
212.846	-0.68
213.065	79.19
213.283	62.8
213.502	48.47
213.72	-25.26
213.938	-17.07
214.157	79.19
214.375	60.76
214.594	23.89
214.812	68.95
215.031	48.47
215.249	50.52
215.467	-6.83
215.686	79.19
215.904	1.37
216.122	-2.73
216.341	79.19
216.559	-25.26
216.778	52.56
216.996	21.84
217.214	25.94
217.432	50.52
217.651	40.28
217.869	40.28
218.087	54.61
218.306	36.18
218.524	71
218.742	-41.64
218.96	87.38
219.179	-8.87
219.397	38.23
219.615	77.14
219.833	-62.12
220.051	9.56
220.27	-2.73
220.488	54.61
220.706	21.84
220.924	7.51
221.142	50.52
221.36	-47.79
221.578	46.42
221.796	15.7
222.015	56.66
222.233	5.46
222.451	64.85
222.669	23.89
222.887	91.48
223.105	-23.21
223.323	-4.78
223.541	13.65
223.759	128.34
223.977	34.13
224.195	89.43
224.413	3.41
224.631	15.7
224.849	56.66
225.067	38.23
225.285	32.08
225.503	52.56
225.721	-10.92
225.939	7.51
226.157	-41.64
226.375	42.32
226.592	66.9
226.81	38.23
227.028	30.04
227.246	1.37
227.464	46.42
227.682	42.32
227.9	42.32
228.117	64.85
228.335	58.71
228.553	17.75
228.771	-23.21
228.989	21.84
229.206	60.76
229.424	66.9
229.642	19.8
229.86	34.13
230.077	-6.83
230.295	-0.68
230.513	52.56
230.731	9.56
230.948	36.18
231.166	60.76
231.384	58.71
231.601	42.32
231.819	1.37
232.037	15.7
232.254	77.14
232.472	34.13
232.689	52.56
232.907	73.04
233.125	54.61
233.342	58.71
233.56	7.51
233.777	75.09
233.995	-21.16
234.213	85.33
234.43	91.48
234.648	-21.16
234.865	19.8
235.083	25.94
235.3	64.85
235.518	15.7
235.735	75.09
235.953	103.76
236.17	17.75
236.388	114
236.605	48.47
236.822	7.51
237.04	48.47
237.257	38.23
237.475	56.66
237.692	56.66
237.909	-37.55
238.127	116.05
238.344	71
238.562	19.8
238.779	5.46
238.996	30.04
239.214	75.09
239.431	-19.11
239.648	73.04
239.865	95.57
240.083	17.75
240.3	36.18
240.517	-12.97
240.735	-17.07
240.952	97.62
241.169	62.8
241.386	73.04
241.603	89.43
241.821	56.66
242.038	48.47
242.255	40.28
242.472	58.71
242.689	77.14
242.907	64.85
243.124	56.66
243.341	-12.97
243.558	32.08
243.775	32.08
243.992	17.75
244.209	-4.78
244.426	114
244.643	75.09
244.86	30.04
245.078	19.8
245.295	132.44
245.512	-15.02
245.729	46.42
245.946	62.8
246.163	48.47
246.38	54.61
246.597	19.8
246.814	-58.03
247.031	64.85
247.248	87.38
247.464	-21.16
247.681	-19.11
247.898	79.19
248.115	21.84
248.332	-6.83
248.549	19.8
248.766	40.28
248.983	-6.83
249.2	95.57
249.417	17.75
249.633	40.28
249.85	21.84
250.067	3.41
250.284	56.66
250.501	64.85
250.717	77.14
250.934	42.32
251.151	87.38
251.368	77.14
251.585	91.48
251.801	34.13
252.018	40.28
252.235	73.04
252.451	-21.16
252.668	30.04
252.885	62.8
253.102	38.23
253.318	62.8
253.535	44.37
253.752	48.47
253.968	50.52
254.185	23.89
254.401	9.56
254.618	27.99
254.835	50.52
255.051	124.24
255.268	11.61
255.484	44.37
255.701	77.14
255.917	-15.02
256.134	-4.78
256.351	95.57
256.567	42.32
256.784	87.38
257	60.76
257.217	42.32
257.433	50.52
257.65	42.32
257.866	83.28
258.082	-17.07
258.299	114
258.515	66.9
258.732	40.28
258.948	-35.5
259.165	77.14
259.381	-12.97
259.597	-12.97
259.814	19.8
260.03	-0.68
260.246	36.18
260.463	58.71
260.679	27.99
260.895	13.65
261.112	68.95
261.328	48.47
261.544	-12.97
261.761	38.23
261.977	32.08
262.193	46.42
262.409	27.99
262.626	38.23
262.842	5.46
263.058	-47.79
263.274	9.56
263.49	97.62
263.707	64.85
263.923	7.51
264.139	77.14
264.355	62.8
264.571	56.66
264.787	68.95
265.004	13.65
265.22	40.28
265.436	3.41
265.652	42.32
265.868	-31.4
266.084	-10.92
266.3	11.61
266.516	-12.97
266.732	27.99
266.948	44.37
267.164	44.37
267.38	7.51
267.596	34.13
267.812	101.72
268.028	77.14
268.244	54.61
268.46	62.8
268.676	44.37
268.892	85.33
269.108	-31.4
269.324	71
269.54	93.52
269.756	52.56
269.972	52.56
270.188	-4.78
270.403	48.47
270.619	-2.73
270.835	32.08
271.051	7.51
271.267	9.56
271.483	32.08
271.698	30.04
271.914	-4.78
272.13	44.37
272.346	48.47
272.562	-8.87
272.777	48.47
272.993	75.09
273.209	91.48
273.425	91.48
273.64	-8.87
273.856	109.91
274.072	23.89
274.287	58.71
274.503	-8.87
274.719	46.42
274.934	25.94
275.15	38.23
275.366	40.28
275.581	9.56
275.797	105.81
276.012	118.1
276.228	25.94
276.444	19.8
276.659	93.52
276.875	17.75
277.09	25.94
277.306	5.46
277.521	-10.92
277.737	95.57
277.952	46.42
278.168	7.51
278.383	32.08
278.599	-4.78
278.814	19.8
279.03	-10.92
279.245	66.9
279.461	60.76
279.676	64.85
279.892	27.99
280.107	44.37
280.322	13.65
280.538	118.1
280.753	48.47
280.969	-23.21
281.184	3.41
281.399	52.56
281.615	-8.87
281.83	56.66
282.045	48.47
282.26	87.38
282.476	27.99
282.691	21.84
282.906	3.41
283.122	21.84
283.337	13.65
283.552	13.65
283.767	-31.4
283.983	124.24
284.198	105.81
284.413	7.51
284.628	68.95
284.843	81.24
285.058	32.08
285.274	17.75
285.489	25.94
285.704	42.32
285.919	58.71
286.134	-23.21
286.349	81.24
286.564	38.23
286.779	25.94
286.995	46.42
287.21	91.48
287.425	101.72
287.64	89.43
287.855	-33.45
288.07	-8.87
288.285	136.53
288.5	83.28
288.715	64.85
288.93	-2.73
289.145	1.37
289.36	118.1
289.575	42.32
289.79	75.09
290.004	42.32
290.219	5.46
290.434	64.85
290.649	15.7
290.864	140.63
291.079	46.42
291.294	85.33
291.509	58.71
291.724	40.28
291.938	48.47
292.153	17.75
292.368	-4.78
292.583	60.76
292.798	44.37
293.012	83.28
293.227	66.9
293.442	32.08
293.657	-19.11
293.871	34.13
294.086	73.04
294.301	27.99
294.516	48.47
294.73	79.19
294.945	19.8
295.16	44.37
295.374	46.42
295.589	30.04
295.804	25.94
296.018	5.46
296.233	105.81
296.447	60.76
296.662	-4.78
296.877	-6.83
297.091	50.52
297.306	75.09
297.52	11.61
297.735	64.85
297.949	77.14
298.164	46.42
298.378	7.51
298.593	50.52
298.807	-6.83
299.022	85.33
299.236	85.33
299.451	40.28
299.665	36.18
299.88	85.33
300.094	30.04
300.309	62.8
300.523	7.51
300.737	64.85
300.952	7.51
301.166	1.37
301.381	21.84
301.595	91.48
301.809	-12.97
302.024	32.08
302.238	-2.73
302.452	9.56
302.667	40.28
302.881	99.67
303.095	85.33
303.309	75.09
303.524	54.61
303.738	27.99
303.952	32.08
304.166	-2.73
304.381	50.52
304.595	48.47
304.809	-94.89
305.023	77.14
305.237	44.37
305.452	44.37
305.666	-4.78
305.88	91.48
306.094	46.42
306.308	17.75
306.522	32.08
306.736	-0.68
306.95	58.71
307.164	60.76
307.379	32.08
307.593	40.28
307.807	62.8
308.021	32.08
308.235	62.8
308.449	1.37
308.663	19.8
308.877	34.13
309.091	-39.59
309.305	48.47
309.519	9.56
309.733	42.32
309.947	34.13
310.161	32.08
310.374	87.38
310.588	118.1
310.802	32.08
311.016	77.14
311.23	46.42
311.444	21.84
311.658	52.56
311.872	42.32
312.085	99.67
312.299	64.85
312.513	181.59
312.727	64.85
312.941	-25.26
313.154	109.91
313.368	50.52
313.582	124.24
313.796	-10.92
314.009	9.56
314.223	91.48
314.437	56.66
314.651	40.28
314.864	54.61
315.078	99.67
315.292	5.46
315.505	1.37
315.719	46.42
315.933	52.56
316.146	48.47
316.36	30.04
316.573	44.37
316.787	19.8
317.001	-8.87
317.214	68.95
317.428	13.65
317.641	27.99
317.855	50.52
318.068	60.76
318.282	107.86
318.495	50.52
318.709	148.82
318.922	32.08
319.136	48.47
319.349	42.32
319.563	52.56
319.776	40.28
319.99	79.19
320.203	60.76
320.417	-25.26
320.63	81.24
320.843	7.51
321.057	85.33
321.27	40.28
321.483	17.75
321.697	58.71
321.91	-0.68
322.124	46.42
322.337	68.95
322.55	60.76
322.763	140.63
322.977	-0.68
323.19	19.8
323.403	87.38
323.617	64.85
323.83	52.56
324.043	46.42
324.256	-33.45
324.469	13.65
324.683	30.04
324.896	36.18
325.109	44.37
325.322	13.65
325.535	44.37
325.748	91.48
325.962	87.38
326.175	27.99
326.388	77.14
326.601	32.08
326.814	38.23
327.027	11.61
327.24	62.8
327.453	7.51
327.666	99.67
327.879	66.9
328.092	5.46
328.305	34.13
328.518	97.62
328.731	-19.11
328.944	38.23
329.157	17.75
329.37	71
329.583	73.04
329.796	42.32
330.009	-15.02
330.222	60.76
330.435	46.42
330.648	60.76
330.861	-17.07
331.073	79.19
331.286	36.18
331.499	48.47
331.712	-15.02
331.925	73.04
332.138	23.89
332.35	11.61
332.563	38.23
332.776	81.24
332.989	42.32
333.202	13.65
333.414	36.18
333.627	34.13
333.84	81.24
334.053	107.86
334.265	56.66
334.478	81.24
334.691	27.99
334.903	62.8
335.116	105.81
335.329	89.43
335.541	83.28
335.754	30.04
335.966	19.8
336.179	97.62
336.392	3.41
336.604	48.47
336.817	87.38
337.029	9.56
337.242	46.42
337.454	38.23
337.667	32.08
337.88	-12.97
338.092	9.56
338.305	83.28
338.517	25.94
338.729	89.43
338.942	38.23
339.154	46.42
339.367	77.14
339.579	30.04
339.792	-27.31
340.004	83.28
340.217	-4.78
340.429	46.42
340.641	97.62
340.854	68.95
341.066	19.8
341.278	17.75
341.491	52.56
341.703	68.95
341.915	23.89
342.128	114
342.34	99.67
342.552	15.7
342.764	38.23
342.977	85.33
343.189	68.95
343.401	56.66
343.613	-6.83
343.826	32.08
344.038	48.47
344.25	107.86
344.462	21.84
344.674	-21.16
344.886	81.24
345.099	75.09
345.311	27.99
345.523	48.47
345.735	62.8
345.947	44.37
346.159	40.28
346.371	107.86
346.583	73.04
346.795	34.13
347.007	36.18
347.219	27.99
347.431	87.38
347.643	48.47
347.855	58.71
348.067	79.19
348.279	15.7
348.491	64.85
348.703	66.9
348.915	13.65
349.127	54.61
349.339	9.56
349.551	85.33
349.763	64.85
349.975	109.91
350.187	114
350.399	36.18
350.61	107.86
350.822	38.23
351.034	136.53
351.246	77.14
351.458	46.42
351.669	93.52
351.881	42.32
352.093	64.85
352.305	75.09
352.517	36.18
352.728	107.86
352.94	58.71
353.152	56.66
353.363	68.95
353.575	50.52
353.787	54.61
353.999	93.52
354.21	122.2
354.422	-2.73
354.633	-6.83
354.845	66.9
355.057	52.56
355.268	32.08
355.48	38.23
355.692	-2.73
355.903	122.2
356.115	11.61
356.326	81.24
356.538	68.95
356.749	48.47
356.961	54.61
357.172	77.14
357.384	40.28
357.595	54.61
357.807	1.37
358.018	89.43
358.23	48.47
358.441	105.81
358.653	7.51
358.864	44.37
359.075	140.63
359.287	32.08
359.498	60.76
359.709	42.32
359.921	148.82
360.132	30.04
360.344	111.96
360.555	91.48
360.766	81.24
360.977	19.8
361.189	21.84
361.4	46.42
361.611	32.08
361.823	85.33
362.034	42.32
362.245	-21.16
362.456	38.23
362.667	-17.07
362.879	62.8
363.09	91.48
363.301	44.37
363.512	7.51
363.723	38.23
363.935	-21.16
364.146	36.18
364.357	50.52
364.568	46.42
364.779	25.94
364.99	99.67
365.201	68.95
365.412	89.43
365.623	42.32
365.834	81.24
366.045	64.85
366.256	97.62
366.467	40.28
366.678	32.08
366.889	58.71
367.1	5.46
367.311	-19.11
367.522	5.46
367.733	9.56
367.944	-74.41
368.155	83.28
368.366	87.38
368.577	52.56
368.788	42.32
368.999	5.46
369.209	62.8
369.42	-31.4
369.631	36.18
369.842	17.75
370.053	17.75
370.264	66.9
370.474	50.52
370.685	46.42
370.896	46.42
371.107	91.48
371.317	23.89
371.528	75.09
371.739	54.61
371.95	62.8
372.16	-47.79
372.371	-62.12
372.582	114
372.792	58.71
373.003	5.46
373.214	81.24
373.424	66.9
373.635	40.28
373.846	122.2
374.056	83.28
374.267	54.61
374.477	81.24
374.688	60.76
374.898	-23.21
375.109	130.39
375.319	42.32
375.53	97.62
375.74	23.89
375.951	25.94
376.161	13.65
376.372	89.43
376.582	54.61
376.793	77.14
377.003	75.09
377.214	-10.92
377.424	99.67
377.635	81.24
377.845	27.99
378.055	85.33
378.266	25.94
378.476	118.1
378.686	42.32
378.897	128.34
379.107	71
379.317	32.08
379.528	-0.68
379.738	81.24
379.948	-80.55
380.158	21.84
380.369	64.85
380.579	-25.26
380.789	50.52
380.999	64.85
381.21	46.42
381.42	103.76
381.63	99.67
381.84	27.99
382.05	-19.11
382.261	68.95
382.471	99.67
382.681	40.28
382.891	79.19
383.101	99.67
383.311	103.76
383.521	54.61
383.731	50.52
383.941	89.43
384.151	91.48
384.361	34.13
384.571	44.37
384.781	120.15
384.991	52.56
385.201	56.66
385.411	85.33
385.621	44.37
385.831	44.37
386.041	19.8
386.251	77.14
386.461	122.2
386.671	101.72
386.881	109.91
387.091	23.89
387.301	30.04
387.511	38.23
387.72	83.28
387.93	-17.07
388.14	7.51
388.35	25.94
388.56	15.7
388.769	38.23
388.979	77.14
389.189	48.47
389.399	83.28
389.609	52.56
389.818	79.19
390.028	124.24
390.238	64.85
390.447	52.56
390.657	36.18
390.867	68.95
391.076	36.18
391.286	56.66
391.496	87.38
391.705	44.37
391.915	134.48
392.125	30.04
392.334	103.76
392.544	50.52
392.753	77.14
392.963	36.18
393.172	42.32
393.382	34.13
393.591	75.09
393.801	122.2
394.01	27.99
394.22	89.43
394.429	81.24
394.639	13.65
394.848	81.24
395.058	130.39
395.267	97.62
395.477	111.96
395.686	73.04
395.895	105.81
396.105	66.9
396.314	54.61
396.524	95.57
396.733	128.34
396.942	93.52
397.152	134.48
397.361	93.52
397.57	64.85
397.78	111.96
397.989	101.72
398.198	130.39
398.407	95.57
398.617	5.46
398.826	81.24
399.035	97.62
399.244	193.87
399.453	1.37
399.663	62.8
399.872	120.15
400.081	103.76
400.29	99.67
400.499	62.8
400.708	120.15
400.917	126.29
401.127	124.24
401.336	44.37
401.545	195.92
401.754	97.62
401.963	148.82
402.172	159.06
402.381	17.75
402.59	7.51
402.799	50.52
403.008	93.52
403.217	140.63
403.426	83.28
403.635	124.24
403.844	27.99
404.053	40.28
404.262	87.38
404.471	177.49
404.68	167.25
404.888	130.39
405.097	140.63
405.306	185.68
405.515	122.2
405.724	202.07
405.933	187.73
406.142	171.35
406.35	79.19
406.559	114
406.768	234.83
406.977	134.48
407.185	107.86
407.394	111.96
407.603	91.48
407.812	132.44
408.02	218.45
408.229	169.3
408.438	169.3
408.646	206.16
408.855	230.74
409.064	169.3
409.272	224.59
409.481	261.46
409.69	253.27
409.898	197.97
410.107	261.46
410.315	228.69
410.524	230.74
410.733	222.55
410.941	206.16
411.15	255.31
411.358	238.93
411.567	326.99
411.775	318.8
411.984	286.03
412.192	388.43
412.401	283.98
412.609	388.43
412.818	337.23
413.026	413.01
413.234	324.94
413.443	394.58
413.651	367.95
413.86	408.91
414.068	419.15
414.276	472.4
414.485	396.62
414.693	466.25
414.901	499.02
415.11	496.97
415.318	529.74
415.526	501.07
415.734	593.23
415.943	568.65
416.151	617.8
416.359	671.05
416.567	658.76
416.776	605.52
416.984	742.73
417.192	773.45
417.4	703.82
417.608	701.77
417.817	791.88
418.025	738.63
418.233	787.79
418.441	879.94
418.649	773.45
418.857	884.04
419.065	937.29
419.273	1006.92
419.481	1004.87
419.689	968.01
419.897	1086.79
420.105	1193.28
420.313	1156.42
420.521	1215.81
420.729	1140.04
420.937	1195.33
421.145	1289.54
421.353	1389.89
421.561	1408.32
421.769	1406.27
421.977	1500.48
422.185	1426.75
422.393	1609.02
422.601	1676.6
422.809	1623.36
423.017	1756.47
423.224	1766.71
423.432	1822.01
423.64	1768.76
423.848	1922.36
424.056	1934.65
424.263	2039.09
424.471	2155.83
424.679	2112.82
424.887	2256.18
425.094	2227.51
425.302	2325.81
425.51	2321.71
425.718	2329.91
425.925	2506.03
426.133	2526.51
426.341	2673.96
426.548	2776.36
426.756	2739.5
426.964	2913.58
427.171	3073.32
427.379	3145
427.586	3188
427.794	3190.05
428.001	3482.91
428.209	3548.45
428.417	3472.67
428.624	3607.84
428.832	3734.81
429.039	3665.18
429.247	3755.29
429.454	4068.63
429.662	4328.72
429.869	3923.23
430.076	4183.32
430.284	4218.13
430.491	4412.69
430.699	4746.51
430.906	4605.2
431.114	4656.4
431.321	4953.35
431.528	4943.11
431.736	5385.48
431.943	5457.15
432.15	5330.18
432.358	5487.87
432.565	5735.68
432.772	5567.74
432.979	5965.05
433.187	6077.69
433.394	6051.06
433.601	6466.8
433.808	6548.72
434.016	6542.58
434.223	6864.11
434.43	7232.74
434.637	7034.09
434.844	7349.48
435.052	7660.77
435.259	7652.58
435.466	7552.23
435.673	7599.33
435.88	8107.23
436.087	8611.03
436.294	8600.79
436.501	8389.85
436.708	8664.27
436.915	8592.59
437.122	9123.02
437.329	9170.12
437.537	9403.59
437.743	9397.45
437.95	9467.08
438.157	10013.88
438.364	10382.52
438.571	10179.77
438.778	10532.02
438.985	11189.42
439.192	10607.8
439.399	11050.16
439.606	11054.25
439.813	11570.34
440.02	12278.94
440.227	12082.33
440.433	11855.01
440.64	12389.53
440.847	12158.11
441.054	12442.78
441.261	13266.06
441.467	13114.51
441.674	13403.27
441.881	14218.36
442.088	13855.87
442.294	13810.82
442.501	14195.84
442.708	14666.87
442.914	15230.06
443.121	15846.5
443.328	15447.15
443.534	16551
443.741	15879.27
443.948	15588.46
444.154	16659.54
444.361	16819.28
444.568	16856.15
444.774	16829.52
444.981	16811.09
445.187	17724.49
445.394	18299.97
445.6	18060.35
445.807	19563.56
446.013	18797.62
446.22	19061.81
446.426	20046.88
446.633	20182.05
446.839	21074.96
447.046	20280.35
447.252	20999.19
447.459	20980.76
447.665	21148.69
447.871	22027.27
448.078	22977.53
448.284	21914.63
448.491	22680.57
448.697	23462.9
448.903	23657.45
449.11	23915.5
449.316	23260.15
449.522	23895.02
449.728	24599.52
449.935	24458.21
450.141	24677.34
450.347	25129.94
450.553	24253.41
450.76	25076.69
450.966	25654.22
451.172	25598.93
451.378	26020.81
451.584	25541.58
451.791	26106.82
451.997	25981.9
452.203	26680.25
452.409	26373.06
452.615	26072.01
452.821	25187.28
453.027	25297.88
453.233	26209.22
453.44	25463.76
453.646	25805.77
453.852	25670.61
454.058	26381.25
454.264	25281.49
454.47	25863.11
454.676	25195.48
454.882	26045.38
455.088	23858.15
455.294	24419.3
455.5	24486.88
455.705	24878.04
455.911	23657.45
456.117	23735.28
456.323	23266.29
456.529	22084.61
456.735	22930.42
456.941	22199.3
457.147	21961.73
457.352	21226.51
457.558	20880.41
457.764	21009.43
457.97	20722.71
458.176	20120.61
458.381	20132.9
458.587	19153.97
458.793	19176.5
458.999	17976.39
459.204	19541.04
459.41	18748.47
459.616	17671.24
459.821	17882.18
460.027	17773.64
460.233	17243.21
460.438	16395.36
460.644	16716.89
460.85	15846.5
461.055	15479.91
461.261	15670.37
461.466	14507.13
461.672	13917.31
461.878	15299.69
462.083	13847.68
462.289	13677.7
462.494	13644.93
462.7	13018.25
462.905	12719.25
463.111	13251.72
463.316	13141.13
463.522	12774.55
463.727	12895.38
463.932	12842.13
464.138	12809.36
464.343	12706.96
464.549	12344.47
464.754	12741.78
464.959	12666
465.165	12493.97
465.37	12127.39
465.575	11775.14
465.781	12258.46
465.986	12027.04
466.191	11850.91
466.397	11816.1
466.602	10906.8
466.807	11369.64
467.012	11461.8
467.218	11508.9
467.423	11381.93
467.628	11404.46
467.833	11906.21
468.038	11127.98
468.244	11050.16
468.449	11541.67
468.654	10988.72
468.859	10996.91
469.064	11011.25
469.269	10704.05
469.474	10493.11
469.679	10867.89
469.885	10601.65
470.09	10751.15
470.295	10398.9
470.5	10456.25
470.705	10480.82
470.91	10179.77
471.115	9911.49
471.32	10384.57
471.525	10286.26
471.73	9968.83
471.935	9919.68
472.139	9596.1
472.344	9850.05
472.549	9675.97
472.754	9594.05
472.959	9393.35
473.164	9129.16
473.369	9096.39
473.574	9336.01
473.778	9305.29
473.983	9256.14
474.188	9123.02
474.393	8754.38
474.598	8799.44
474.802	8651.99
475.007	8750.29
475.212	8635.6
475.417	8266.97
475.621	8395.99
475.826	8385.75
476.031	8264.92
476.235	8086.75
476.44	8000.73
476.645	7980.25
476.849	7818.46
477.054	7812.32
477.259	7707.87
477.463	7826.65
477.668	7404.77
477.872	7671.01
478.077	7490.79
478.282	7300.33
478.486	7251.17
478.691	7242.98
478.895	7277.8
479.1	7275.75
479.304	7142.63
479.509	6778.09
479.713	7062.76
479.918	7093.48
480.122	6851.82
480.326	7204.07
480.531	7017.71
480.735	6995.18
480.94	6833.39
481.144	6958.32
481.348	6784.24
481.553	6819.05
481.757	6460.66
481.961	6780.14
482.166	6933.74
482.37	6874.35
482.574	6589.68
482.778	6589.68
482.983	6833.39
483.187	6941.93
483.391	6671.6
483.595	6604.02
483.8	6581.49
484.004	6780.14
484.208	6837.48
484.412	6810.86
484.616	6788.33
484.821	6634.74
485.025	6694.13
485.229	6698.22
485.433	6612.21
485.637	6808.81
485.841	6577.39
486.045	6524.15
486.249	6765.81
486.453	6538.48
486.657	6456.56
486.861	6702.32
487.065	6587.63
487.269	6739.18
487.473	6434.04
487.677	6700.27
487.881	6681.84
488.085	6751.47
488.289	6722.8
488.493	6706.41
488.697	6538.48
488.901	6663.41
489.105	6632.69
489.309	6724.85
489.512	6954.22
489.716	6718.7
489.92	6751.47
490.124	6644.98
490.328	7042.28
490.531	6903.02
490.735	6976.75
490.939	6857.96
491.143	6796.53
491.346	6919.4
491.55	7034.09
491.754	6943.98
491.958	7017.71
492.161	7156.97
492.365	7177.45
492.569	7116.01
492.772	6997.23
492.976	7042.28
493.18	7253.22
493.383	7267.56
493.587	7144.68
493.79	7285.99
493.994	7308.52
494.197	7492.84
494.401	7496.93
494.605	7302.37
494.808	7605.47
495.012	7535.84
495.215	7531.75
495.419	7546.08
495.622	7773.41
495.825	7943.39
496.029	7793.89
496.232	7775.45
496.436	8062.17
496.639	8135.9
496.843	8058.07
497.046	8238.3
497.249	8266.97
497.453	8340.69
497.656	8500.44
497.859	8322.26
498.063	8598.74
498.266	8676.56
498.469	8631.51
498.673	8660.18
498.876	8973.52
499.079	9065.67
499.282	9102.54
499.485	9379.01
499.689	9069.77
499.892	9252.04
500.095	9340.1
500.298	9567.43
500.501	9594.05
500.705	9798.85
500.908	9761.98
501.111	10022.08
501.314	10122.43
501.517	10046.65
501.72	10341.56
501.923	10202.3
502.126	10708.15
502.329	10636.47
502.532	10888.37
502.735	10867.89
502.938	11148.46
503.141	11003.05
503.344	11332.78
503.547	11170.99
503.75	11324.58
503.953	11685.03
504.156	11685.03
504.359	11682.98
504.562	11916.45
504.765	12172.44
504.968	12209.31
505.17	12332.19
505.373	12237.98
505.576	12512.41
505.779	12813.46
505.982	12731.54
506.185	13116.56
506.387	12940.43
506.59	13425.8
506.793	13354.12
506.996	13372.55
507.198	13798.53
507.401	13630.6
507.604	13919.36
507.807	14263.42
508.009	14232.7
508.212	14324.86
508.415	14423.16
508.617	14777.46
508.82	14713.97
509.022	14699.64
509.225	15230.06
509.428	15271.02
509.63	15357.03
509.833	15377.51
510.035	15768.68
510.238	15664.23
510.44	16249.95
510.643	16120.93
510.845	16268.38
511.048	16352.35
511.25	16639.06
511.453	16712.79
511.655	17192.01
511.858	16790.61
512.06	17329.23
512.262	17294.41
512.465	17318.99
512.667	17689.67
512.87	17622.09
513.072	17941.57
513.274	18306.11
513.477	18512.95
513.679	18297.92
513.881	18476.09
514.084	18820.15
514.286	18857.01
514.488	18949.17
514.69	19659.82
514.893	19407.92
515.095	19330.09
515.297	19948.58
515.499	19958.82
515.701	20151.33
515.904	20433.95
516.106	20554.78
516.308	20732.95
516.51	21054.48
516.712	20935.7
516.914	21367.82
517.116	21568.52
517.318	21646.35
517.52	21705.74
517.722	21877.77
517.925	22492.16
518.127	22651.9
518.329	22291.46
518.531	22508.54
518.733	23069.69
518.935	23307.25
519.136	23383.02
519.338	23835.63
519.54	23567.34
519.742	23987.18
519.944	24368.1
520.146	24415.2
520.348	24615.9
520.55	24959.96
520.752	25121.75
520.954	25191.38
521.155	24951.77
521.357	25605.07
521.559	25682.89
521.761	25967.56
521.963	26129.35
522.164	26495.94
522.366	26176.45
522.568	26483.65
522.77	26856.38
522.971	27282.36
523.173	27126.71
523.375	27319.22
523.576	27790.25
523.778	27284.4
523.98	27808.68
524.181	27966.38
524.383	27974.57
524.584	28285.86
524.786	28195.75
524.988	28324.77
525.189	28447.65
525.391	28849.05
525.592	29078.43
525.794	29150.1
525.995	29283.22
526.197	29301.65
526.398	29342.61
526.6	29850.51
526.801	29764.5
527.003	30139.27
527.204	30307.21
527.406	30155.66
527.607	29979.53
527.808	30479.24
528.01	30229.38
528.211	30698.37
528.412	30659.46
528.614	30989.18
528.815	31009.66
529.016	31241.08
529.218	30966.65
529.419	30696.32
529.62	31050.62
529.822	31034.24
530.023	31345.53
530.224	31292.28
530.425	31488.88
530.626	31167.35
530.828	31124.35
531.029	31982.45
531.23	31724.4
531.431	31675.25
531.632	31730.55
531.833	31859.57
532.035	31955.82
532.236	32129.9
532.437	32156.52
532.638	31720.31
532.839	31814.51
533.04	32207.72
533.241	31742.83
533.442	32439.14
533.643	32174.95
533.844	32088.94
534.045	32725.86
534.246	31988.59
534.447	32125.8
534.648	32195.43
534.849	32349.03
535.05	32160.62
535.251	32519.01
535.451	32584.55
535.652	32263.02
535.853	32457.57
536.054	32338.79
536.255	32600.93
536.456	31921.01
536.657	32854.88
536.857	32433
537.058	32476.01
537.259	32537.44
537.46	32590.69
537.66	32416.61
537.861	32478.05
538.062	32535.4
538.263	32486.25
538.463	32502.63
538.664	32469.86
538.865	32435.05
539.065	32996.19
539.266	32369.51
539.466	32801.63
539.667	32207.72
539.868	32721.76
540.068	32418.66
540.269	32807.78
540.469	32691.04
540.67	32287.59
540.87	32459.62
541.071	32662.37
541.271	32936.8
541.472	32404.33
541.672	32551.78
541.873	32387.94
542.073	32314.22
542.274	32754.53
542.474	32158.57
542.675	32496.49
542.875	32824.16
543.075	32289.64
543.276	32166.76
543.476	32914.27
543.676	32387.94
543.877	32213.87
544.077	32506.73
544.277	32523.11
544.478	32240.49
544.678	32205.67
544.878	32781.15
545.078	32635.75
545.279	32564.07
545.479	32131.95
545.679	32584.55
545.879	32340.84
546.079	32422.76
546.28	32523.11
546.48	32467.81
546.68	32322.41
546.88	32654.18
547.08	32533.35
547.28	32332.65
547.48	32088.94
547.68	32101.23
547.88	32279.4
548.081	32537.44
548.281	32635.75
548.481	32246.63
548.681	32594.79
548.881	32138.09
549.081	32041.84
549.28	32138.09
549.48	32263.02
549.68	32297.83
549.88	32512.87
550.08	32101.23
550.28	32269.16
550.48	32254.83
550.68	32559.97
550.88	32162.67
551.08	32361.32
551.279	32584.55
551.479	32027.5
551.679	32090.99
551.879	32086.89
552.079	32379.75
552.278	31953.77
552.478	32187.24
552.678	31916.91
552.878	32375.66
553.077	32213.87
553.277	32062.32
553.477	32312.17
553.676	32248.68
553.876	32238.44
554.076	31470.45
554.275	31857.52
554.475	31296.38
554.674	32162.67
554.874	32021.36
555.074	31921.01
555.273	31800.18
555.473	32107.37
555.672	31689.59
555.872	31617.91
556.071	31814.51
556.271	32058.22
556.47	32029.55
556.67	31384.44
556.869	31695.73
557.068	32054.12
557.268	31490.93
557.467	31523.7
557.667	31341.43
557.866	31527.8
558.065	31249.27
558.265	31095.67
558.464	31114.11
558.663	31820.66
558.863	30935.93
559.062	31628.15
559.261	30987.13
559.461	31589.24
559.66	30550.92
559.859	31255.42
560.058	30782.34
560.258	31099.77
560.457	30722.94
560.656	31044.48
560.855	30933.89
561.054	30753.66
561.253	30641.03
561.453	30735.23
561.652	30561.15
561.851	30663.55
562.05	30505.86
562.249	30172.04
562.448	30514.05
562.647	30215.05
562.846	30688.13
563.045	30458.76
563.244	30141.32
563.443	30524.29
563.642	29651.86
563.841	29987.72
564.04	29836.17
564.239	30382.98
564.438	29944.72
564.637	29582.23
564.836	29658
565.035	29569.94
565.234	29809.55
565.432	29602.71
565.631	29309.85
565.83	29696.91
566.029	29193.11
566.228	29119.38
566.427	29240.22
566.625	28924.83
566.824	28844.96
567.023	29117.34
567.222	28607.39
567.42	29334.42
567.619	28533.67
567.818	29035.42
568.016	28472.23
568.215	28922.78
568.414	28621.73
568.612	28806.05
568.811	28627.87
569.01	28408.74
569.208	28251.05
569.407	28445.6
569.605	27677.61
569.804	28249
570.002	27730.86
570.201	28146.6
570.4	27880.36
570.598	27833.26
570.797	27478.96
570.995	27755.44
571.193	27253.69
571.392	27720.62
571.59	27239.35
571.789	27210.68
571.987	27370.42
572.186	27403.19
572.384	26966.97
572.582	27366.32
572.781	27063.22
572.979	26883
573.177	27083.7
573.376	26903.48
573.574	26530.75
573.772	26743.74
573.971	26573.76
574.169	26424.26
574.367	26065.86
574.565	26485.7
574.763	26129.35
574.962	26348.48
575.16	25670.61
575.358	26246.08
575.556	25904.07
575.754	25932.75
575.952	25789.39
576.151	25983.94
576.349	25537.49
576.547	25799.63
576.745	25562.06
576.943	25629.65
577.141	25572.3
577.339	25557.97
577.537	25375.7
577.735	25326.55
577.933	25080.79
578.131	25056.22
578.329	24859.61
578.527	24943.58
578.725	25070.55
578.923	24822.75
579.121	24785.88
579.319	24875.99
579.516	24787.93
579.714	24503.26
579.912	24472.54
580.11	24173.54
580.308	24851.42
580.506	24703.96
580.704	24183.78
580.901	24087.53
581.099	24296.42
581.297	24001.51
581.495	23655.4
581.692	24062.95
581.89	23950.31
582.088	24034.28
582.285	23802.86
582.483	23901.16
582.681	23688.17
582.878	23589.87
583.076	23200.76
583.274	23612.4
583.471	23403.5
583.669	23211
583.866	23110.64
584.064	23122.93
584.262	23006.2
584.459	23223.28
584.657	22965.24
584.854	23022.58
585.052	22344.7
585.249	23106.55
585.447	22848.5
585.644	22713.34
585.841	22770.68
586.039	22639.61
586.236	22178.82
586.434	22277.12
586.631	22275.07
586.828	22447.1
587.026	22291.46
587.223	22133.76
587.42	22307.84
587.618	22291.46
587.815	21754.89
588.012	22068.23
588.21	21715.98
588.407	21720.07
588.604	21433.36
588.801	21492.75
588.999	21627.92
589.196	21474.32
589.393	21380.11
589.59	21335.06
589.787	21206.03
589.984	21263.38
590.182	20984.85
590.379	21476.37
590.576	21042.2
590.773	21208.08
590.97	20991
591.167	21050.39
591.364	20806.68
591.561	20966.42
591.758	20515.87
591.955	20603.93
592.152	20778.01
592.349	20618.27
592.546	20472.86
592.743	20522.01
592.94	20188.19
593.137	20329.5
593.334	20632.6
593.531	20010.02
593.727	20263.97
593.924	20067.36
594.121	20028.45
594.318	20091.94
594.515	20096.03
594.712	19919.91
594.908	19794.98
595.105	19901.48
595.302	19725.35
595.499	19506.22
595.696	19948.58
595.892	19139.63
596.089	19536.94
596.286	19461.16
596.482	19371.05
596.679	19217.46
596.876	19369.01
597.072	19297.33
597.269	19233.84
597.466	18865.21
597.662	18586.68
597.859	18953.27
598.055	18910.26
598.252	18721.85
598.448	18619.45
598.645	18633.78
598.841	18476.09
599.038	18752.57
599.234	18762.81
599.431	18515
599.627	18121.79
599.824	18625.59
600.02	18234.43
600.217	18332.73
600.413	18017.35
600.609	18342.97
600.806	17904.71
601.002	18172.99
601.198	17900.61
601.395	17765.45
601.591	17824.84
601.787	17744.97
601.984	17679.43
602.18	18035.78
602.376	17806.41
602.572	17585.22
602.769	17415.24
602.965	17335.37
603.161	17511.5
603.357	17304.65
603.553	17290.32
603.75	17273.93
603.946	17210.45
604.142	17226.83
604.338	17144.91
604.534	17046.61
604.73	16940.11
604.926	16669.78
605.122	16878.68
605.318	16700.5
605.514	16780.37
605.71	16802.9
605.906	16763.99
606.102	16751.7
606.298	16608.34
606.494	16573.53
606.69	16575.58
606.886	16553.05
607.082	16333.92
607.278	16661.59
607.474	16276.57
607.67	16385.12
607.866	16235.61
608.062	16469.08
608.257	16188.51
608.453	16327.77
608.649	16213.09
608.845	15985.76
609.041	16055.39
609.236	16026.72
609.432	15854.69
609.628	16032.86
609.824	16008.29
610.019	16077.92
610.215	15856.74
610.411	15817.83
610.606	16049.25
610.802	15600.74
610.998	15707.24
611.193	15684.71
611.389	15787.11
611.584	15496.3
611.78	15363.18
611.976	15711.33
612.171	15627.37
612.367	15326.32
612.562	15152.24
612.758	15342.7
612.953	15182.96
613.149	15653.99
613.344	15109.23
613.539	15328.36
613.735	15244.4
613.93	15230.06
614.126	15168.62
614.321	15303.79
614.517	14908.53
614.712	14949.49
614.907	14965.87
615.103	15207.53
615.298	14879.86
615.493	15174.77
615.688	14830.71
615.884	15074.42
616.079	14767.22
616.274	14799.99
616.47	14791.8
616.665	14529.66
616.86	14541.94
617.055	14603.38
617.25	14488.7
617.445	14814.32
617.641	14290.04
617.836	14695.54
618.031	14511.22
618.226	14687.35
618.421	14560.38
618.616	14675.06
618.811	14126.21
619.006	14398.59
619.201	13999.23
619.396	14113.92
619.591	13876.35
619.786	14093.44
619.981	13915.26
620.176	13855.87
620.371	13726.85
620.566	13970.56
620.761	13814.91
620.956	13831.3
621.151	13423.75
621.346	13722.76
621.541	13472.9
621.735	13474.95
621.93	13356.17
622.125	13464.71
622.32	13167.76
622.515	13198.48
622.709	13122.7
622.904	12932.24
623.099	12936.34
623.294	13071.5
623.488	12770.45
623.683	12971.15
623.878	12733.59
624.072	12756.11
624.267	12618.9
624.462	12635.28
624.656	12551.32
624.851	12379.29
625.046	12453.02
625.24	12301.47
625.435	12156.06
625.629	12201.12
625.824	12004.51
626.018	12045.47
626.213	11793.57
626.407	11750.56
626.602	11715.75
626.796	11750.56
626.991	11766.95
627.185	11519.14
627.38	11531.43
627.574	11570.34
627.768	11410.6
627.963	11293.86
628.157	11109.55
628.352	11502.76
628.546	11148.46
628.74	11289.77
628.935	11035.82
629.129	11189.42
629.323	10949.81
629.517	10841.26
629.712	10878.13
629.906	10759.35
630.1	10732.72
630.294	10777.78
630.489	10570.93
630.683	10738.87
630.877	10624.18
631.071	10308.79
631.265	10425.53
631.459	10376.38
631.653	10370.23
631.848	10304.7
632.042	10169.53
632.236	10282.17
632.43	9972.93
632.624	10104
632.818	10142.91
633.012	9929.92
633.206	10007.74
633.4	9831.62
633.594	9819.33
633.788	9960.64
633.982	9809.09
634.176	9663.68
634.369	9669.83
634.563	9495.75
634.757	9479.36
634.951	9510.08
635.145	9370.82
635.339	9393.35
635.533	9290.95
635.726	9331.91
635.92	9174.22
636.114	9133.26
636.308	9137.35
636.501	9041.1
636.695	8983.76
636.889	8910.03
637.083	8955.08
637.276	8850.64
637.47	8799.44
637.664	8662.23
637.857	8762.58
638.051	8676.56
638.244	8613.07
638.438	8545.49
638.632	8590.55
638.825	8553.68
639.019	8277.21
639.212	8367.32
639.406	8445.14
639.599	8469.72
639.793	8371.41
639.986	8168.66
640.18	8076.51
640.373	8242.39
640.567	8180.95
640.76	8062.17
640.954	7945.44
641.147	7863.52
641.34	7824.61
641.534	7838.94
641.727	7904.48
641.92	7875.81
642.114	7734.5
642.307	7982.3
642.5	7646.43
642.694	7417.06
642.887	7492.84
643.08	7671.01
643.273	7705.82
643.467	7490.79
643.66	7421.16
643.853	7576.8
644.046	7326.95
644.239	7431.4
644.432	7427.3
644.626	7218.41
644.819	7255.27
645.012	7185.64
645.205	7296.23
645.398	7161.06
645.591	7285.99
645.784	7027.95
645.977	6999.27
646.17	6968.55
646.363	6796.53
646.556	6757.61
646.749	6919.4
646.942	6950.12
647.135	6802.67
647.328	6739.18
647.521	6716.65
647.714	6755.57
647.907	6644.98
648.099	6651.12
648.292	6675.7
648.485	6591.73
648.678	6515.95
648.871	6450.42
649.064	6472.95
649.256	6462.71
649.449	6325.49
649.642	6282.49
649.835	6255.86
650.027	6221.05
650.22	6247.67
650.413	6116.6
650.605	6149.37
650.798	6313.2
650.991	5993.72
651.183	6241.53
651.376	6044.92
651.568	5940.47
651.761	5944.57
651.954	5942.52
652.146	5872.89
652.339	5833.98
652.531	5899.52
652.724	5760.25
652.916	5793.02
653.109	5733.63
653.301	5750.01
653.494	5664
653.686	5682.43
653.879	5635.33
654.071	5586.18
654.263	5647.62
654.456	5526.78
654.648	5561.6
654.84	5465.35
655.033	5401.86
655.225	5506.31
655.417	5342.47
655.61	5475.59
655.802	5205.25
655.994	5268.74
656.186	5094.66
656.379	5129.48
656.571	5248.26
656.763	5235.97
656.955	5240.07
657.148	5182.73
657.34	5160.2
657.532	5121.29
657.724	5027.08
657.916	5053.7
658.108	5000.46
658.3	4924.68
658.492	4988.17
658.684	4865.29
658.876	4863.24
659.068	4867.34
659.26	4906.25
659.452	4848.91
659.644	5000.46
659.836	4869.39
660.028	4844.81
660.22	4705.55
660.412	4781.32
660.604	4754.7
660.796	4709.65
660.988	4592.91
661.18	4658.45
661.372	4736.27
661.563	4603.15
661.755	4617.49
661.947	4664.59
662.139	4500.75
662.331	4453.65
662.522	4373.78
662.714	4437.27
662.906	4549.9
663.097	4437.27
663.289	4367.63
663.481	4404.5
663.673	4386.07
663.864	4304.15
664.056	4408.59
664.247	4341.01
664.439	4246.8
664.631	4226.32
664.822	4261.14
665.014	4312.34
665.205	4207.89
665.397	4109.59
665.588	4238.61
665.78	4072.73
665.971	4087.06
666.163	4255
666.354	4168.98
666.546	3937.56
666.737	4033.82
666.929	4005.14
667.12	4091.16
667.311	3980.57
667.503	4050.2
667.694	4064.54
667.885	4029.72
668.077	3972.38
668.268	3933.47
668.459	3929.37
668.651	3915.03
668.842	3865.88
669.033	3771.68
669.224	3726.62
669.416	3904.79
669.607	3947.8
669.798	3761.44
669.989	3816.73
670.18	3716.38
670.371	3794.2
670.563	3630.37
670.754	3718.43
670.945	3794.2
671.136	3902.75
671.327	3683.61
671.518	3796.25
671.709	3693.85
671.9	3679.52
672.091	3575.07
672.282	3650.85
672.473	3515.68
672.664	3714.33
672.855	3532.06
673.046	3509.54
673.237	3587.36
673.428	3570.97
673.619	3515.68
673.809	3566.88
674	3538.21
674.191	3648.8
674.382	3638.56
674.573	3484.96
674.764	3620.13
674.954	3497.25
675.145	3611.93
675.336	3439.9
675.527	3552.54
675.717	3513.63
675.908	3378.47
676.099	3364.13
676.289	3386.66
676.48	3400.99
676.671	3368.23
676.861	3470.62
677.052	3374.37
677.243	3288.36
677.433	3380.51
677.624	3372.32
677.814	3378.47
678.005	3343.65
678.195	3294.5
678.386	3341.6
678.576	3417.38
678.767	3431.71
678.957	3366.18
679.148	3364.13
679.338	3456.29
679.529	3292.45
679.719	3288.36
679.909	3386.66
680.1	3157.29
680.29	3321.12
680.481	3331.36
680.671	3441.95
680.861	3372.32
681.052	3337.51
681.242	3251.49
681.432	3417.38
681.622	3396.9
681.813	3280.16
682.003	3163.43
682.193	3243.3
682.383	3294.5
682.573	3284.26
682.764	3243.3
682.954	3345.7
683.144	3280.16
683.334	3239.2
683.524	3214.63
683.714	3257.64
683.904	3065.13
684.094	3192.1
684.284	3284.26
684.474	3337.51
684.664	3288.36
684.854	3159.33
685.044	3093.8
685.234	3054.89
685.424	3204.39
685.614	3216.68
685.804	3243.3
685.994	3151.14
686.184	3163.43
686.374	3128.61
686.564	3048.74
686.753	3089.7
686.943	3083.56
687.133	2970.92
687.323	3065.13
687.513	3097.89
687.702	3085.61
687.892	2946.34
688.082	3022.12
688.272	3020.07
688.461	2993.45
688.651	3056.93
688.841	2944.3
689.03	2993.45
689.22	2919.72
689.41	2946.34
689.599	2815.27
689.789	2936.1
689.979	2907.43
690.168	2962.73
690.358	2764.08
690.547	2884.91
690.737	2870.57
690.926	2944.3
691.116	2786.6
691.305	2886.95
691.495	2843.95
691.684	2653.48
691.874	2811.18
692.063	2716.97
692.252	2893.1
692.442	2764.08
692.631	2645.29
692.82	2733.36
693.01	2772.27
693.199	2622.77
693.388	2706.73
693.578	2800.94
693.767	2678.06
693.956	2782.51
694.146	2630.96
694.335	2610.48
694.524	2643.24
694.713	2694.44
694.902	2676.01
695.092	2723.12
695.281	2585.9
695.47	2641.2
695.659	2628.91
695.848	2585.9
696.037	2555.18
696.226	2647.34
696.415	2618.67
696.604	2573.61
696.793	2729.26
696.982	2614.57
697.171	2600.24
697.36	2604.33
697.549	2579.76
697.738	2454.83
697.927	2616.62
698.116	2600.24
698.305	2477.36
698.494	2569.52
698.683	2526.51
698.872	2544.94
699.061	2452.78
699.25	2506.03
699.438	2544.94
699.627	2432.3
699.816	2553.13
700.005	2518.32
700.193	2579.76
700.382	2483.5
700.571	2508.08
700.76	2608.43
700.948	2477.36
701.137	2524.46
701.326	2559.28
701.514	2487.6
701.703	2495.79
701.892	2407.73
702.08	2635.05
702.269	2526.51
702.457	2471.22
702.646	2532.65
702.834	2495.79
703.023	2467.12
703.212	2481.46
703.4	2491.7
703.589	2463.02
703.777	2608.43
703.965	2454.83
704.154	2409.78
704.342	2577.71
704.531	2514.22
704.719	2432.3
704.907	2559.28
705.096	2456.88
705.284	2528.56
705.472	2528.56
705.661	2587.95
705.849	2542.89
706.037	2444.59
706.226	2510.13
706.414	2399.54
706.602	2432.3
706.79	2534.7
706.979	2551.09
707.167	2356.53
707.355	2549.04
707.543	2426.16
707.731	2526.51
707.919	2581.81
708.107	2503.98
708.296	2520.37
708.484	2512.17
708.672	2450.74
708.86	2465.07
709.048	2510.13
709.236	2458.93
709.424	2518.32
709.612	2596.14
709.8	2522.41
709.988	2520.37
710.176	2569.52
710.364	2565.42
710.551	2475.31
710.739	2460.98
710.927	2635.05
711.115	2510.13
711.303	2618.67
711.491	2542.89
711.679	2512.17
711.866	2600.24
712.054	2493.74
712.242	2483.5
712.43	2491.7
712.617	2487.6
712.805	2635.05
712.993	2563.37
713.181	2442.54
713.368	2594.09
713.556	2630.96
713.744	2430.26
713.931	2594.09
714.119	2526.51
714.306	2608.43
714.494	2506.03
714.682	2624.81
714.869	2446.64
715.057	2583.85
715.244	2628.91
715.432	2680.11
715.619	2532.65
715.807	2497.84
715.994	2694.44
716.182	2538.8
716.369	2567.47
716.556	2536.75
716.744	2616.62
716.931	2653.48
717.119	2575.66
717.306	2647.34
717.493	2618.67
717.681	2489.65
717.868	2706.73
718.055	2614.57
718.242	2573.61
718.43	2596.14
718.617	2612.53
718.804	2655.53
718.991	2596.14
719.179	2579.76
719.366	2635.05
719.553	2581.81
719.74	2499.89
719.927	2592.05
720.114	2637.1
720.301	2706.73
720.488	2587.95
720.676	2682.16
720.863	2622.77
721.05	2688.3
721.237	2682.16
721.424	2661.68
721.611	2600.24
721.798	2524.46
721.985	2585.9
722.172	2532.65
722.358	2596.14
722.545	2604.33
722.732	2594.09
722.919	2700.59
723.106	2571.57
723.293	2602.29
723.48	2567.47
723.667	2624.81
723.853	2561.33
724.04	2684.2
724.227	2800.94
724.414	2639.15
724.6	2602.29
724.787	2540.85
724.974	2561.33
725.161	2610.48
725.347	2587.95
725.534	2592.05
725.72	2499.89
725.907	2690.35
726.094	2608.43
726.28	2581.81
726.467	2602.29
726.653	2583.85
726.84	2716.97
727.027	2676.01
727.213	2491.7
727.4	2710.83
727.586	2686.25
727.773	2569.52
727.959	2587.95
728.145	2690.35
728.332	2712.88
728.518	2530.61
728.705	2694.44
728.891	2616.62
729.077	2682.16
729.264	2684.2
729.45	2497.84
729.636	2651.44
729.823	2571.57
730.009	2637.1
730.195	2653.48
730.382	2651.44
730.568	2622.77
730.754	2506.03
730.94	2508.08
731.126	2673.96
731.313	2639.15
731.499	2575.66
731.685	2686.25
731.871	2610.48
732.057	2620.72
732.243	2669.87
732.429	2686.25
732.615	2534.7
732.801	2518.32
732.987	2608.43
733.173	2669.87
733.359	2460.98
733.545	2610.48
733.731	2612.53
733.917	2653.48
734.103	2538.8
734.289	2469.17
734.475	2602.29
734.661	2716.97
734.847	2673.96
735.033	2645.29
735.219	2483.5
735.404	2622.77
735.59	2600.24
735.776	2604.33
735.962	2637.1
736.148	2710.83
736.333	2501.94
736.519	2585.9
736.705	2579.76
736.89	2553.13
737.076	2626.86
737.262	2424.11
737.447	2567.47
737.633	2592.05
737.819	2518.32
738.004	2583.85
738.19	2571.57
738.375	2422.06
738.561	2506.03
738.747	2551.09
738.932	2442.54
739.118	2516.27
739.303	2469.17
739.489	2409.78
739.674	2497.84
739.859	2420.02
740.045	2512.17
740.23	2385.2
740.416	2485.55
740.601	2475.31
740.786	2542.89
740.972	2329.91
741.157	2467.12
741.342	2407.73
741.528	2424.11
741.713	2483.5
741.898	2415.92
742.084	2387.25
742.269	2440.5
742.454	2348.34
742.639	2448.69
742.824	2284.85
743.01	2391.34
743.195	2379.06
743.38	2338.1
743.565	2293.04
743.75	2288.95
743.935	2276.66
744.12	2256.18
744.305	2217.27
744.49	2278.71
744.675	2366.77
744.86	2307.38
745.045	2209.08
745.23	2190.64
745.415	2317.62
745.6	2164.02
745.785	2192.69
745.97	2194.74
746.155	2118.97
746.34	2190.64
746.525	2170.16
746.71	2118.97
746.895	2161.97
747.079	2149.68
747.264	2149.68
747.449	2231.6
747.634	2168.12
747.819	2055.48
748.003	2037.05
748.188	2057.53
748.373	2000.18
748.557	1959.22
748.742	1914.17
748.927	1985.85
749.111	1871.16
749.296	1946.94
749.481	1996.09
749.665	1989.94
749.85	1979.7
750.034	1959.22
750.219	1912.12
750.404	1908.02
750.588	1932.6
750.773	1942.84
750.957	1873.21
751.141	1903.93
751.326	1797.43
751.51	1787.19
751.695	1811.77
751.879	1836.35
752.064	1817.91
752.248	1711.42
752.432	1811.77
752.617	1670.46
752.801	1682.75
752.985	1770.81
753.17	1678.65
753.354	1754.43
753.538	1635.64
753.722	1658.17
753.907	1637.69
754.091	1649.98
754.275	1643.84
754.459	1654.08
754.643	1572.16
754.828	1623.36
755.012	1531.2
755.196	1549.63
755.38	1539.39
755.564	1498.43
755.748	1559.87
755.932	1529.15
756.116	1539.39
756.3	1559.87
756.484	1594.68
756.668	1543.49
756.852	1383.74
757.036	1537.34
757.22	1480
757.404	1391.94
757.588	1422.66
757.772	1459.52
757.956	1414.46
758.14	1328.45
758.323	1439.04
758.507	1422.66
758.691	1275.2
758.875	1367.36
759.059	1408.32
759.242	1355.07
759.426	1271.11
759.61	1359.17
759.794	1283.39
759.977	1373.5
760.161	1346.88
760.345	1398.08
760.528	1185.09
760.712	1344.83
760.895	1273.15
761.079	1207.62
761.263	1340.74
761.446	1305.92
761.63	1174.85
761.813	1297.73
761.997	1219.91
762.18	1215.81
762.364	1287.49
762.547	1260.87
762.731	1262.91
762.914	1326.4
763.098	1213.76
763.281	1183.04
763.464	1248.58
763.648	1228.1
763.831	1209.67
764.015	1137.99
764.198	1205.57
764.381	1234.24
764.564	1094.98
764.748	1232.19
764.931	1158.47
765.114	1062.21
765.297	1221.95
765.481	982.34
765.664	1129.8
765.847	1070.4
766.03	1158.47
766.213	1066.31
766.397	1013.06
766.58	1025.35
766.763	1017.16
766.946	1006.92
767.129	1002.82
767.312	1140.04
767.495	1013.06
767.678	1011.01
767.861	1119.56
768.044	972.1
768.227	1142.08
768.41	996.68
768.593	1011.01
768.776	955.72
768.959	1002.82
769.142	970.05
769.324	1060.17
769.507	1017.16
769.69	996.68
769.873	1029.45
770.056	1013.06
770.239	996.68
770.421	1051.97
770.604	1004.87
770.787	976.2
770.97	953.67
771.152	849.22
771.335	1025.35
771.518	1017.16
771.7	984.39
771.883	939.33
772.066	890.18
772.248	898.38
772.431	943.43
772.613	871.75
772.796	855.37
772.978	959.81
773.161	900.42
773.343	806.22
773.526	906.57
773.708	927.05
773.891	798.03
774.073	884.04
774.256	800.07
774.438	851.27
774.621	830.79
774.803	908.62
774.985	814.41
775.168	855.37
775.35	775.5
775.532	824.65
775.715	814.41
775.897	812.36
776.079	795.98
776.261	761.16
776.444	685.39
776.626	775.5
776.808	709.96
776.99	771.4
777.173	795.98
777.355	800.07
777.537	773.45
777.719	757.07
777.901	744.78
778.083	714.06
778.265	642.38
778.447	730.44
778.629	709.96
778.811	748.87
778.993	628.04
779.175	675.15
779.357	673.1
779.539	677.19
779.721	642.38
779.903	707.91
780.085	689.48
780.267	679.24
780.449	689.48
780.631	623.95
780.812	654.67
780.994	644.43
781.176	587.08
781.358	525.65
781.54	623.95
781.721	605.52
781.903	615.76
782.085	613.71
782.267	675.15
782.448	554.32
782.63	660.81
782.812	613.71
782.993	578.89
783.175	484.69
783.357	615.76
783.538	546.12
783.72	554.32
783.901	574.8
784.083	478.54
784.264	556.36
784.446	509.26
784.627	527.69
784.809	603.47
784.99	556.36
785.172	560.46
785.353	537.93
785.535	507.21
785.716	492.88
785.897	492.88
786.079	531.79
786.26	486.73
786.441	511.31
786.623	519.5
786.804	357.71
786.985	474.45
787.167	415.05
787.348	423.25
787.529	464.21
787.71	413.01
787.891	435.53
788.073	404.82
788.254	359.76
788.435	460.11
788.616	460.11
788.797	494.93
788.978	478.54
789.159	429.39
789.34	451.92
789.522	396.62
789.703	406.86
789.884	464.21
790.065	449.87
790.246	443.73
790.427	372.05
790.607	386.38
790.788	392.53
790.969	419.15
791.15	419.15
791.331	421.2
791.512	333.14
791.693	349.52
791.874	458.06
792.054	439.63
792.235	445.77
792.416	376.14
792.597	367.95
792.778	347.47
792.958	339.28
793.139	347.47
793.32	427.34
793.5	349.52
793.681	326.99
793.862	476.49
794.042	370
794.223	331.09
794.404	333.14
794.584	388.43
794.765	394.58
794.945	363.86
795.126	349.52
795.306	460.11
795.487	339.28
795.667	255.31
795.848	378.19
796.028	386.38
796.209	329.04
796.389	232.79
796.57	296.27
796.75	294.22
796.93	277.84
797.111	234.83
797.291	378.19
797.471	255.31
797.652	294.22
797.832	224.59
798.012	277.84
798.192	298.32
798.373	283.98
798.553	372.05
798.733	306.51
798.913	267.6
799.093	294.22
799.274	257.36
799.454	290.13
799.634	302.42
799.814	267.6
799.994	292.18
800.174	265.55
800.354	261.46
800.534	298.32
800.714	333.14
800.894	279.89
801.074	253.27
801.254	234.83
801.434	304.46
801.614	286.03
801.794	245.07
801.974	712.01
802.154	306.51
802.334	273.75
802.514	245.07
802.693	253.27
802.873	157.01
803.053	283.98
803.233	236.88
803.413	255.31
803.592	232.79
803.772	173.39
803.952	318.8
804.131	273.75
804.311	294.22
804.491	247.12
804.67	232.79
804.85	236.88
805.03	234.83
805.209	288.08
805.389	234.83
805.568	179.54
805.748	277.84
805.928	218.45
806.107	226.64
806.287	290.13
806.466	251.22
806.646	263.51
806.825	273.75
807.004	114
807.184	232.79
807.363	230.74
807.543	179.54
807.722	230.74
807.901	232.79
808.081	288.08
808.26	159.06
808.439	228.69
808.619	249.17
808.798	161.11
808.977	232.79
809.156	218.45
809.336	193.87
809.515	216.4
809.694	228.69
809.873	189.78
810.052	101.72
810.231	290.13
810.411	257.36
810.59	253.27
810.769	236.88
810.948	232.79
811.127	163.15
811.306	224.59
811.485	191.83
811.664	232.79
811.843	204.11
812.022	224.59
812.201	212.31
812.38	214.35
812.559	136.53
812.737	200.02
812.916	240.98
813.095	128.34
813.274	185.68
813.453	187.73
813.632	195.92
813.811	187.73
813.989	181.59
814.168	181.59
814.347	128.34
814.526	105.81
814.704	142.68
814.883	232.79
815.062	116.05
815.24	218.45
815.419	157.01
815.598	128.34
815.776	169.3
815.955	181.59
816.133	140.63
816.312	234.83
816.49	161.11
816.669	148.82
816.847	200.02
817.026	179.54
817.204	195.92
817.383	122.2
817.561	146.77
817.74	183.63
817.918	103.76
818.097	294.22
818.275	179.54
818.453	204.11
818.632	126.29
818.81	212.31
818.988	116.05
819.167	95.57
819.345	91.48
819.523	157.01
819.701	175.44
819.879	206.16
820.058	167.25
820.236	126.29
820.414	222.55
820.592	202.07
820.77	124.24
820.948	36.18
821.127	91.48
821.305	193.87
821.483	81.24
821.661	185.68
821.839	154.96
822.017	210.26
822.195	91.48
822.373	218.45
822.551	140.63
822.729	103.76
822.907	142.68
823.085	116.05
823.262	122.2
823.44	185.68
823.618	66.9
823.796	95.57
823.974	111.96
824.152	118.1
824.329	107.86
824.507	195.92
824.685	144.72
824.863	193.87
825.04	116.05
825.218	118.1
825.396	187.73
825.574	23.89
825.751	150.87
825.929	206.16
826.107	126.29
826.284	118.1
826.462	138.58
826.639	150.87
826.817	46.42
826.994	109.91
827.172	146.77
827.349	114
827.527	126.29
827.704	103.76
827.882	62.8
828.059	91.48
828.237	173.39
828.414	128.34
828.591	107.86
828.769	128.34
828.946	62.8
829.124	134.48
829.301	120.15
829.478	152.91
829.655	109.91
829.833	148.82
830.01	75.09
830.187	173.39
830.364	109.91
830.542	126.29
830.719	150.87
830.896	83.28
831.073	138.58
831.25	34.13
831.427	177.49
831.604	75.09
831.782	140.63
831.959	107.86
832.136	64.85
832.313	95.57
832.49	103.76
832.667	71
832.844	56.66
833.021	136.53
833.198	87.38
833.374	64.85
833.551	64.85
833.728	99.67
833.905	159.06
834.082	42.32
834.259	118.1
834.436	132.44
834.612	38.23
834.789	128.34
834.966	128.34
835.143	101.72
835.319	114
835.496	89.43
835.673	122.2
835.85	114
836.026	23.89
836.203	36.18
836.38	66.9
836.556	89.43
836.733	95.57
836.909	118.1
837.086	36.18
837.262	27.99
837.439	122.2
837.616	140.63
837.792	163.15
837.968	48.47
838.145	152.91
838.321	118.1
838.498	-19.11
838.674	85.33
838.851	150.87
839.027	189.78
839.203	136.53
839.38	118.1
839.556	109.91
839.732	64.85
839.909	95.57
840.085	79.19
840.261	64.85
840.437	75.09
840.614	52.56
840.79	179.54
840.966	34.13
841.142	68.95
841.318	50.52
841.494	165.2
841.671	68.95
841.847	107.86
842.023	60.76
842.199	27.99
842.375	93.52
842.551	48.47
842.727	97.62
842.903	91.48
843.079	44.37
843.255	114
843.431	101.72
843.607	138.58
843.783	50.52
843.959	44.37
844.134	42.32
844.31	93.52
844.486	93.52
844.662	87.38
844.838	111.96
845.013	-6.83
845.189	130.39
845.365	142.68
845.541	27.99
845.716	73.04
845.892	146.77
846.068	42.32
846.244	32.08
846.419	91.48
846.595	73.04
846.77	40.28
846.946	56.66
847.122	140.63
847.297	60.76
847.473	97.62
847.648	73.04
847.824	-19.11
847.999	-2.73
848.175	36.18
848.35	21.84
848.526	68.95
848.701	44.37
848.876	87.38
849.052	79.19
849.227	114
849.403	-15.02
849.578	5.46
849.753	27.99
849.929	44.37
850.104	36.18
850.279	46.42
850.454	48.47
850.63	56.66
850.805	85.33
850.98	34.13
851.155	60.76
851.33	30.04
851.505	52.56
851.681	103.76
851.856	116.05
852.031	7.51
852.206	89.43
852.381	66.9
852.556	30.04
852.731	120.15
852.906	71
853.081	97.62
853.256	93.52
853.431	58.71
853.606	5.46
853.781	42.32
853.956	19.8
854.131	40.28
854.305	56.66
854.48	21.84
854.655	89.43
854.83	42.32
855.005	134.48
855.18	62.8
855.354	-8.87
855.529	85.33
855.704	9.56
855.879	50.52
856.053	32.08
856.228	99.67
856.403	11.61
856.577	13.65
856.752	40.28
856.926	36.18
857.101	44.37
857.276	54.61
857.45	38.23
857.625	75.09
857.799	64.85
857.974	54.61
858.148	25.94
858.323	44.37
858.497	15.7
858.672	17.75
858.846	42.32
859.02	13.65
859.195	-49.83
859.369	-19.11
859.543	68.95
859.718	77.14
859.892	103.76
860.066	68.95
860.241	42.32
860.415	48.47
860.589	152.91
860.763	54.61
860.938	44.37
861.112	64.85
861.286	13.65
861.46	97.62
861.634	7.51
861.808	154.96
861.982	73.04
862.157	-23.21
862.331	5.46
862.505	42.32
862.679	21.84
862.853	-2.73
863.027	-8.87
863.201	27.99
863.375	15.7
863.549	44.37
863.722	60.76
863.896	36.18
864.07	-6.83
864.244	-4.78
864.418	-23.21
864.592	54.61
864.766	1.37
864.939	40.28
865.113	42.32
865.287	114
865.461	-19.11
865.634	58.71
865.808	-4.78
865.982	27.99
866.156	60.76
866.329	5.46
866.503	-21.16
866.676	38.23
866.85	79.19
867.024	111.96
867.197	11.61
867.371	9.56
867.544	50.52
867.718	23.89
867.891	1.37
868.065	97.62
868.238	-12.97
868.412	36.18
868.585	75.09
868.759	87.38
868.932	-25.26
869.105	56.66
869.279	21.84
869.452	1.37
869.625	7.51
869.799	32.08
869.972	23.89
870.145	5.46
870.319	9.56
870.492	27.99
870.665	25.94
870.838	-37.55
871.011	15.7
871.185	-10.92
871.358	30.04
871.531	-31.4
871.704	27.99
871.877	58.71
872.05	30.04
872.223	-21.16
872.396	52.56
872.569	48.47
872.742	-4.78
872.915	15.7
873.088	1.37
873.261	44.37
873.434	89.43
873.607	60.76
873.78	44.37
873.953	-27.31
874.126	27.99
874.299	71
874.471	85.33
874.644	23.89
874.817	27.99
874.99	103.76
875.163	25.94
875.335	-8.87
875.508	-12.97
875.681	11.61
875.853	58.71
876.026	60.76
876.199	21.84
876.371	30.04
876.544	-21.16
876.717	30.04
876.889	3.41
877.062	23.89
877.234	-92.84
877.407	48.47
877.579	77.14
877.752	17.75
877.924	11.61
878.097	32.08
878.269	54.61
878.442	-2.73
878.614	-27.31
878.786	85.33
878.959	25.94
879.131	64.85
879.303	-27.31
879.476	85.33
879.648	71
879.82	81.24
879.993	79.19
880.165	52.56
880.337	-31.4
880.509	23.89
880.681	-12.97
880.854	58.71
881.026	13.65
881.198	146.77
881.37	-68.27
881.542	48.47
881.714	25.94
881.886	32.08
882.058	15.7
882.23	68.95
882.402	81.24
882.574	77.14
882.746	-15.02
882.918	13.65
883.09	46.42
883.262	32.08
883.434	-15.02
883.606	-23.21
883.778	60.76
883.95	97.62
884.122	5.46
884.293	77.14
884.465	46.42
884.637	-23.21
884.809	25.94
884.98	38.23
885.152	58.71
885.324	52.56
885.496	44.37
885.667	68.95
885.839	-15.02
886.011	48.47
886.182	-29.35
886.354	77.14
886.525	15.7
886.697	42.32
886.869	19.8
887.04	75.09
887.212	32.08
887.383	42.32
887.555	114
887.726	71
887.897	17.75
888.069	3.41
888.24	60.76
888.412	48.47
888.583	-2.73
888.754	-27.31
888.926	83.28
889.097	-15.02
889.268	17.75
889.44	23.89
889.611	-10.92
889.782	-41.64
889.953	-23.21
890.125	87.38
890.296	-0.68
890.467	15.7
890.638	5.46
890.809	83.28
890.98	9.56
891.151	9.56
891.323	-6.83
891.494	-8.87
891.665	34.13
891.836	15.7
892.007	15.7
892.178	5.46
892.349	-19.11
892.52	-0.68
892.691	15.7
892.862	11.61
893.032	-23.21
893.203	19.8
893.374	-25.26
893.545	71
893.716	38.23
893.887	-17.07
894.057	23.89
894.228	-17.07
894.399	17.75
894.57	-4.78
894.74	34.13
894.911	-19.11
895.082	21.84
895.253	15.7
895.423	48.47
895.594	48.47
895.764	44.37
895.935	19.8
896.106	44.37
896.276	-21.16
896.447	-4.78
896.617	97.62
896.788	-19.11
896.958	46.42
897.129	3.41
897.299	27.99
897.47	128.34
897.64	-0.68
897.81	25.94
897.981	75.09
898.151	30.04
898.322	56.66
898.492	-15.02
898.662	9.56
898.832	23.89
899.003	87.38
899.173	34.13
899.343	1.37
899.513	13.65
