Data from USB4F104151__88__11-52-55-439.txt Node

Date: Fri Mar 14 11:52:55 EDT 2025
User: louis
Spectrometer: USB4F10415
Trigger mode: 4
Integration Time (sec): 2.000000E-2
Scans to average: 1
Electric dark correction enabled: true
Nonlinearity correction enabled: false
Boxcar width: 0
XAxis mode: Wavelengths
Number of Pixels in Spectrum: 3648
>>>>>Begin Spectral Data<<<<<
178.204	-103.76
178.424	-103.76
178.644	-103.76
178.864	-81.24
179.084	-42.32
179.304	-42.32
179.524	-3.41
179.744	-27.99
179.964	49.83
180.184	-7.51
180.404	17.07
180.624	-44.37
180.844	45.74
181.064	-5.46
181.283	25.26
181.503	-19.8
181.723	12.97
181.943	53.93
182.163	55.98
182.383	43.69
182.602	49.83
182.822	17.07
183.042	55.98
183.262	58.03
183.482	25.26
183.701	82.6
183.921	23.21
184.141	43.69
184.361	15.02
184.58	-7.51
184.8	135.85
185.02	-3.41
185.239	21.16
185.459	-13.65
185.679	39.59
185.898	-17.75
186.118	35.5
186.338	-23.89
186.557	154.28
186.777	33.45
186.997	21.16
187.216	92.84
187.436	53.93
187.655	53.93
187.875	25.26
188.095	-46.42
188.314	58.03
188.534	-11.61
188.753	17.07
188.973	-60.76
189.192	82.6
189.412	-32.08
189.631	10.92
189.851	35.5
190.07	74.41
190.29	-23.89
190.509	-13.65
190.729	21.16
190.948	43.69
191.168	92.84
191.387	72.36
191.607	-7.51
191.826	-11.61
192.045	6.83
192.265	47.79
192.484	37.55
192.704	66.22
192.923	2.73
193.142	98.99
193.362	62.12
193.581	47.79
193.8	0.68
194.02	37.55
194.239	51.88
194.458	53.93
194.678	45.74
194.897	10.92
195.116	-7.51
195.335	51.88
195.555	84.65
195.774	58.03
195.993	-7.51
196.212	53.93
196.432	35.5
196.651	37.55
196.87	15.02
197.089	45.74
197.308	64.17
197.528	76.46
197.747	-36.18
197.966	4.78
198.185	23.21
198.404	17.07
198.623	-19.8
198.842	4.78
199.062	0.68
199.281	82.6
199.5	37.55
199.719	49.83
199.938	58.03
200.157	27.31
200.376	76.46
200.595	12.97
200.814	-5.46
201.033	-36.18
201.252	-52.56
201.471	86.7
201.69	15.02
201.909	35.5
202.128	29.35
202.347	45.74
202.566	27.31
202.785	58.03
203.004	-27.99
203.223	115.37
203.442	35.5
203.661	-15.7
203.879	0.68
204.098	55.98
204.317	4.78
204.536	41.64
204.755	58.03
204.974	86.7
205.193	19.11
205.411	31.4
205.63	4.78
205.849	51.88
206.068	17.07
206.287	82.6
206.505	-30.04
206.724	12.97
206.943	64.17
207.162	2.73
207.381	55.98
207.599	-23.89
207.818	37.55
208.037	70.31
208.255	53.93
208.474	12.97
208.693	10.92
208.911	-27.99
209.13	27.31
209.349	21.16
209.567	58.03
209.786	109.22
210.005	55.98
210.223	12.97
210.442	21.16
210.661	90.79
210.879	33.45
211.098	-44.37
211.316	39.59
211.535	33.45
211.753	70.31
211.972	47.79
212.191	58.03
212.409	-25.94
212.628	-9.56
212.846	66.22
213.065	-17.75
213.283	17.07
213.502	4.78
213.72	121.51
213.938	27.31
214.157	37.55
214.375	66.22
214.594	35.5
214.812	37.55
215.031	31.4
215.249	-48.47
215.467	43.69
215.686	41.64
215.904	103.08
216.122	51.88
216.341	78.51
216.559	82.6
216.778	-38.23
216.996	80.55
217.214	-3.41
217.432	58.03
217.651	-25.94
217.869	-40.28
218.087	66.22
218.306	4.78
218.524	21.16
218.742	15.02
218.96	-3.41
219.179	15.02
219.397	27.31
219.615	72.36
219.833	111.27
220.051	27.31
220.27	76.46
220.488	94.89
220.706	49.83
220.924	8.87
221.142	82.6
221.36	8.87
221.578	49.83
221.796	19.11
222.015	86.7
222.233	19.11
222.451	0.68
222.669	33.45
222.887	74.41
223.105	4.78
223.323	62.12
223.541	-75.09
223.759	19.11
223.977	27.31
224.195	45.74
224.413	29.35
224.631	23.21
224.849	41.64
225.067	64.17
225.285	4.78
225.503	-40.28
225.721	10.92
225.939	84.65
226.157	-9.56
226.375	47.79
226.592	0.68
226.81	55.98
227.028	-17.75
227.246	62.12
227.464	53.93
227.682	-19.8
227.9	-21.85
228.117	-15.7
228.335	64.17
228.553	74.41
228.771	-5.46
228.989	58.03
229.206	43.69
229.424	-3.41
229.642	62.12
229.86	6.83
230.077	94.89
230.295	15.02
230.513	68.27
230.731	78.51
230.948	27.31
231.166	90.79
231.384	-32.08
231.601	25.26
231.819	17.07
232.037	60.07
232.254	47.79
232.472	43.69
232.689	-27.99
232.907	21.16
233.125	39.59
233.342	12.97
233.56	23.21
233.777	94.89
233.995	0.68
234.213	37.55
234.43	35.5
234.648	96.94
234.865	47.79
235.083	-1.37
235.3	55.98
235.518	55.98
235.735	84.65
235.953	144.04
236.17	0.68
236.388	15.02
236.605	41.64
236.822	107.18
237.04	41.64
237.257	6.83
237.475	25.26
237.692	31.4
237.909	-1.37
238.127	41.64
238.344	47.79
238.562	70.31
238.779	4.78
238.996	-1.37
239.214	19.11
239.431	76.46
239.648	8.87
239.865	33.45
240.083	37.55
240.3	74.41
240.517	60.07
240.735	37.55
240.952	-44.37
241.169	47.79
241.386	23.21
241.603	0.68
241.821	41.64
242.038	113.32
242.255	21.16
242.472	21.16
242.689	51.88
242.907	47.79
243.124	-11.61
243.341	43.69
243.558	-11.61
243.775	-42.32
243.992	-56.66
244.209	41.64
244.426	-9.56
244.643	86.7
244.86	53.93
245.078	27.31
245.295	72.36
245.512	-17.75
245.729	37.55
245.946	41.64
246.163	96.94
246.38	21.16
246.597	15.02
246.814	10.92
247.031	64.17
247.248	41.64
247.464	2.73
247.681	-50.52
247.898	6.83
248.115	0.68
248.332	12.97
248.549	15.02
248.766	94.89
248.983	53.93
249.2	-13.65
249.417	19.11
249.633	29.35
249.85	37.55
250.067	6.83
250.284	84.65
250.501	6.83
250.717	82.6
250.934	-15.7
251.151	-3.41
251.368	10.92
251.585	84.65
251.801	-34.13
252.018	45.74
252.235	60.07
252.451	35.5
252.668	4.78
252.885	86.7
253.102	49.83
253.318	21.16
253.535	0.68
253.752	43.69
253.968	-17.75
254.185	23.21
254.401	-81.24
254.618	6.83
254.835	37.55
255.051	53.93
255.268	29.35
255.484	60.07
255.701	19.11
255.917	0.68
256.134	49.83
256.351	-3.41
256.567	6.83
256.784	39.59
257	-60.76
257.217	84.65
257.433	10.92
257.65	74.41
257.866	58.03
258.082	29.35
258.299	41.64
258.515	109.22
258.732	-17.75
258.948	6.83
259.165	43.69
259.381	15.02
259.597	49.83
259.814	33.45
260.03	39.59
260.246	-42.32
260.463	31.4
260.679	-13.65
260.895	68.27
261.112	29.35
261.328	21.16
261.544	66.22
261.761	62.12
261.977	27.31
262.193	2.73
262.409	31.4
262.626	121.51
262.842	37.55
263.058	15.02
263.274	70.31
263.49	-15.7
263.707	-1.37
263.923	29.35
264.139	53.93
264.355	29.35
264.571	12.97
264.787	90.79
265.004	33.45
265.22	12.97
265.436	15.02
265.652	60.07
265.868	2.73
266.084	41.64
266.3	-5.46
266.516	-30.04
266.732	-27.99
266.948	70.31
267.164	29.35
267.38	66.22
267.596	58.03
267.812	119.46
268.028	27.31
268.244	-32.08
268.46	-3.41
268.676	15.02
268.892	60.07
269.108	64.17
269.324	47.79
269.54	17.07
269.756	35.5
269.972	51.88
270.188	23.21
270.403	21.16
270.619	-11.61
270.835	76.46
271.051	37.55
271.267	-15.7
271.483	117.42
271.698	76.46
271.914	109.22
272.13	41.64
272.346	31.4
272.562	0.68
272.777	6.83
272.993	35.5
273.209	35.5
273.425	90.79
273.64	29.35
273.856	29.35
274.072	29.35
274.287	25.26
274.503	6.83
274.719	111.27
274.934	51.88
275.15	-32.08
275.366	-27.99
275.581	72.36
275.797	62.12
276.012	8.87
276.228	35.5
276.444	39.59
276.659	109.22
276.875	-11.61
277.09	8.87
277.306	41.64
277.521	49.83
277.737	62.12
277.952	62.12
278.168	37.55
278.383	94.89
278.599	29.35
278.814	88.75
279.03	51.88
279.245	96.94
279.461	31.4
279.676	21.16
279.892	58.03
280.107	12.97
280.322	-17.75
280.538	82.6
280.753	-27.99
280.969	-9.56
281.184	29.35
281.399	21.16
281.615	37.55
281.83	-34.13
282.045	-89.43
282.26	49.83
282.476	76.46
282.691	70.31
282.906	68.27
283.122	72.36
283.337	41.64
283.552	55.98
283.767	33.45
283.983	33.45
284.198	47.79
284.413	66.22
284.628	10.92
284.843	29.35
285.058	-23.89
285.274	27.31
285.489	21.16
285.704	94.89
285.919	0.68
286.134	-15.7
286.349	-32.08
286.564	43.69
286.779	33.45
286.995	58.03
287.21	8.87
287.425	47.79
287.64	19.11
287.855	39.59
288.07	4.78
288.285	47.79
288.5	39.59
288.715	-1.37
288.93	-32.08
289.145	-77.14
289.36	68.27
289.575	10.92
289.79	35.5
290.004	51.88
290.219	58.03
290.434	-36.18
290.649	39.59
290.864	29.35
291.079	12.97
291.294	41.64
291.509	15.02
291.724	105.13
291.938	10.92
292.153	6.83
292.368	-32.08
292.583	111.27
292.798	39.59
293.012	15.02
293.227	84.65
293.442	64.17
293.657	68.27
293.871	21.16
294.086	64.17
294.301	-11.61
294.516	103.08
294.73	39.59
294.945	23.21
295.16	-9.56
295.374	55.98
295.589	88.75
295.804	123.56
296.018	105.13
296.233	64.17
296.447	27.31
296.662	-1.37
296.877	10.92
297.091	66.22
297.306	96.94
297.52	-13.65
297.735	10.92
297.949	-3.41
298.164	37.55
298.378	66.22
298.593	-30.04
298.807	23.21
299.022	4.78
299.236	-17.75
299.451	101.03
299.665	72.36
299.88	27.31
300.094	37.55
300.309	12.97
300.523	160.42
300.737	88.75
300.952	-7.51
301.166	39.59
301.381	6.83
301.595	10.92
301.809	39.59
302.024	84.65
302.238	25.26
302.452	123.56
302.667	19.11
302.881	72.36
303.095	15.02
303.309	86.7
303.524	23.21
303.738	82.6
303.952	0.68
304.166	78.51
304.381	53.93
304.595	68.27
304.809	23.21
305.023	43.69
305.237	-36.18
305.452	31.4
305.666	35.5
305.88	-23.89
306.094	109.22
306.308	45.74
306.522	101.03
306.736	86.7
306.95	33.45
307.164	21.16
307.379	39.59
307.593	55.98
307.807	51.88
308.021	66.22
308.235	51.88
308.449	-30.04
308.663	55.98
308.877	60.07
309.091	12.97
309.305	-17.75
309.519	12.97
309.733	58.03
309.947	21.16
310.161	58.03
310.374	4.78
310.588	68.27
310.802	43.69
311.016	51.88
311.23	94.89
311.444	74.41
311.658	98.99
311.872	117.42
312.085	74.41
312.299	2.73
312.513	66.22
312.727	-3.41
312.941	45.74
313.154	-11.61
313.368	23.21
313.582	4.78
313.796	80.55
314.009	39.59
314.223	172.71
314.437	39.59
314.651	49.83
314.864	-36.18
315.078	51.88
315.292	-11.61
315.505	8.87
315.719	53.93
315.933	55.98
316.146	25.26
316.36	103.08
316.573	78.51
316.787	27.31
317.001	51.88
317.214	41.64
317.428	4.78
317.641	-32.08
317.855	90.79
318.068	74.41
318.282	29.35
318.495	10.92
318.709	35.5
318.922	12.97
319.136	70.31
319.349	0.68
319.563	10.92
319.776	45.74
319.99	-3.41
320.203	-50.52
320.417	47.79
320.63	94.89
320.843	76.46
321.057	53.93
321.27	-50.52
321.483	45.74
321.697	80.55
321.91	53.93
322.124	49.83
322.337	43.69
322.55	19.11
322.763	-58.71
322.977	8.87
323.19	-13.65
323.403	82.6
323.617	23.21
323.83	41.64
324.043	107.18
324.256	17.07
324.469	84.65
324.683	66.22
324.896	-15.7
325.109	76.46
325.322	10.92
325.535	90.79
325.748	121.51
325.962	74.41
326.175	8.87
326.388	86.7
326.601	47.79
326.814	33.45
327.027	15.02
327.24	90.79
327.453	-40.28
327.666	-48.47
327.879	-11.61
328.092	51.88
328.305	55.98
328.518	15.02
328.731	66.22
328.944	64.17
329.157	23.21
329.37	19.11
329.583	58.03
329.796	-15.7
330.009	43.69
330.222	51.88
330.435	-1.37
330.648	55.98
330.861	64.17
331.073	64.17
331.286	23.21
331.499	21.16
331.712	31.4
331.925	35.5
332.138	64.17
332.35	72.36
332.563	-15.7
332.776	66.22
332.989	4.78
333.202	86.7
333.414	4.78
333.627	119.46
333.84	-30.04
334.053	35.5
334.265	25.26
334.478	74.41
334.691	-13.65
334.903	37.55
335.116	92.84
335.329	127.66
335.541	-11.61
335.754	51.88
335.966	-48.47
336.179	129.7
336.392	31.4
336.604	-21.85
336.817	-15.7
337.029	41.64
337.242	2.73
337.454	27.31
337.667	-5.46
337.88	15.02
338.092	17.07
338.305	-7.51
338.517	-27.99
338.729	68.27
338.942	58.03
339.154	27.31
339.367	-23.89
339.579	33.45
339.792	41.64
340.004	109.22
340.217	29.35
340.429	53.93
340.641	-46.42
340.854	41.64
341.066	0.68
341.278	76.46
341.491	66.22
341.703	90.79
341.915	47.79
342.128	72.36
342.34	6.83
342.552	-11.61
342.764	31.4
342.977	80.55
343.189	-17.75
343.401	117.42
343.613	70.31
343.826	8.87
344.038	-30.04
344.25	0.68
344.462	-68.95
344.674	25.26
344.886	72.36
345.099	-5.46
345.311	-42.32
345.523	17.07
345.735	-36.18
345.947	17.07
346.159	107.18
346.371	47.79
346.583	17.07
346.795	58.03
347.007	17.07
347.219	62.12
347.431	68.27
347.643	68.27
347.855	41.64
348.067	72.36
348.279	19.11
348.491	45.74
348.703	82.6
348.915	53.93
349.127	64.17
349.339	21.16
349.551	6.83
349.763	-9.56
349.975	-36.18
350.187	29.35
350.399	98.99
350.61	70.31
350.822	25.26
351.034	21.16
351.246	129.7
351.458	37.55
351.669	12.97
351.881	60.07
352.093	41.64
352.305	23.21
352.517	64.17
352.728	101.03
352.94	-9.56
353.152	80.55
353.363	55.98
353.575	41.64
353.787	15.02
353.999	84.65
354.21	92.84
354.422	33.45
354.633	-11.61
354.845	45.74
355.057	109.22
355.268	49.83
355.48	37.55
355.692	-27.99
355.903	25.26
356.115	17.07
356.326	0.68
356.538	33.45
356.749	2.73
356.961	70.31
357.172	2.73
357.384	17.07
357.595	72.36
357.807	74.41
358.018	90.79
358.23	86.7
358.441	-1.37
358.653	33.45
358.864	37.55
359.075	60.07
359.287	125.61
359.498	86.7
359.709	146.09
359.921	92.84
360.132	29.35
360.344	35.5
360.555	-30.04
360.766	60.07
360.977	35.5
361.189	80.55
361.4	21.16
361.611	62.12
361.823	51.88
362.034	53.93
362.245	12.97
362.456	129.7
362.667	15.02
362.879	-62.8
363.09	2.73
363.301	90.79
363.512	35.5
363.723	-9.56
363.935	-44.37
364.146	-46.42
364.357	12.97
364.568	64.17
364.779	41.64
364.99	51.88
365.201	-17.75
365.412	4.78
365.623	33.45
365.834	92.84
366.045	-17.75
366.256	55.98
366.467	94.89
366.678	37.55
366.889	70.31
367.1	47.79
367.311	33.45
367.522	35.5
367.733	8.87
367.944	119.46
368.155	113.32
368.366	23.21
368.577	35.5
368.788	6.83
368.999	25.26
369.209	-3.41
369.42	41.64
369.631	80.55
369.842	129.7
370.053	23.21
370.264	49.83
370.474	25.26
370.685	76.46
370.896	55.98
371.107	29.35
371.317	49.83
371.528	8.87
371.739	53.93
371.95	70.31
372.16	-3.41
372.371	-1.37
372.582	113.32
372.792	-9.56
373.003	55.98
373.214	66.22
373.424	33.45
373.635	29.35
373.846	101.03
374.056	2.73
374.267	-7.51
374.477	31.4
374.688	10.92
374.898	-15.7
375.109	113.32
375.319	23.21
375.53	-23.89
375.74	10.92
375.951	76.46
376.161	55.98
376.372	82.6
376.582	76.46
376.793	115.37
377.003	4.78
377.214	39.59
377.424	62.12
377.635	84.65
377.845	-15.7
378.055	47.79
378.266	12.97
378.476	98.99
378.686	6.83
378.897	90.79
379.107	82.6
379.317	88.75
379.528	27.31
379.738	21.16
379.948	76.46
380.158	55.98
380.369	-40.28
380.579	58.03
380.789	84.65
380.999	94.89
381.21	62.12
381.42	113.32
381.63	109.22
381.84	68.27
382.05	39.59
382.261	105.13
382.471	19.11
382.681	115.37
382.891	37.55
383.101	23.21
383.311	45.74
383.521	2.73
383.731	25.26
383.941	-42.32
384.151	51.88
384.361	92.84
384.571	37.55
384.781	27.31
384.991	68.27
385.201	64.17
385.411	55.98
385.621	92.84
385.831	72.36
386.041	51.88
386.251	0.68
386.461	35.5
386.671	68.27
386.881	15.02
387.091	-13.65
387.301	37.55
387.511	-19.8
387.72	117.42
387.93	101.03
388.14	66.22
388.35	68.27
388.56	76.46
388.769	15.02
388.979	49.83
389.189	109.22
389.399	68.27
389.609	60.07
389.818	23.21
390.028	-9.56
390.238	78.51
390.447	-1.37
390.657	68.27
390.867	51.88
391.076	10.92
391.286	64.17
391.496	33.45
391.705	37.55
391.915	125.61
392.125	8.87
392.334	72.36
392.544	80.55
392.753	51.88
392.963	43.69
393.172	98.99
393.382	15.02
393.591	113.32
393.801	103.08
394.01	127.66
394.22	88.75
394.429	62.12
394.639	96.94
394.848	129.7
395.058	55.98
395.267	109.22
395.477	117.42
395.686	105.13
395.895	131.75
396.105	88.75
396.314	166.57
396.524	82.6
396.733	47.79
396.942	94.89
397.152	45.74
397.361	127.66
397.57	49.83
397.78	74.41
397.989	105.13
398.198	195.24
398.407	90.79
398.617	113.32
398.826	103.08
399.035	72.36
399.244	37.55
399.453	125.61
399.663	193.19
399.872	162.47
400.081	84.65
400.29	127.66
400.499	129.7
400.708	123.56
400.917	74.41
401.127	92.84
401.336	82.6
401.545	90.79
401.754	141.99
401.963	111.27
402.172	144.04
402.381	86.7
402.59	146.09
402.799	154.28
403.008	146.09
403.217	129.7
403.426	156.33
403.635	92.84
403.844	90.79
404.053	33.45
404.262	115.37
404.471	168.62
404.68	152.23
404.888	164.52
405.097	162.47
405.306	96.94
405.515	154.28
405.724	129.7
405.933	178.86
406.142	146.09
406.35	162.47
406.559	178.86
406.768	185
406.977	121.51
407.185	96.94
407.394	156.33
407.603	154.28
407.812	197.29
408.02	182.95
408.229	215.72
408.438	187.05
408.646	199.34
408.855	225.96
409.064	156.33
409.272	271.01
409.481	314.02
409.69	256.68
409.898	148.14
410.107	260.77
410.315	203.43
410.524	307.88
410.733	295.59
410.941	271.01
411.15	346.79
411.358	305.83
411.567	316.07
411.775	289.45
411.984	381.6
412.192	385.7
412.401	400.04
412.609	397.99
412.818	436.9
413.026	416.42
413.234	481.96
413.443	432.8
413.651	408.23
413.86	443.04
414.068	498.34
414.276	559.78
414.485	492.2
414.693	512.67
414.901	529.06
415.11	580.26
415.318	600.74
415.526	637.6
415.734	660.13
415.943	670.37
416.151	754.34
416.359	725.66
416.567	649.89
416.776	752.29
416.984	828.06
417.192	834.21
417.4	866.97
417.608	873.12
417.817	932.51
418.025	895.64
418.233	1010.33
418.441	977.56
418.649	1012.38
418.857	1102.49
419.065	1092.25
419.273	1098.39
419.481	1170.07
419.689	1211.03
419.897	1313.43
420.105	1237.66
420.313	1360.53
420.521	1366.68
420.729	1528.47
420.937	1403.54
421.145	1493.65
421.353	1565.33
421.561	1630.87
421.769	1598.1
421.977	1677.97
422.185	1684.11
422.393	1878.67
422.601	1845.9
422.809	1895.05
423.017	1893.01
423.224	2003.6
423.432	2085.51
423.64	2013.84
423.848	2179.72
424.056	2288.26
424.263	2392.71
424.471	2470.53
424.679	2470.53
424.887	2521.73
425.094	2617.99
425.302	2622.08
425.51	2761.34
425.718	2790.02
425.925	2779.78
426.133	2994.81
426.341	3066.49
426.548	3172.99
426.756	3218.04
426.964	3373.69
427.171	3549.81
427.379	3656.31
427.586	3752.56
427.794	3803.76
428.001	4004.46
428.209	4178.54
428.417	4104.81
428.624	4321.9
428.832	4446.82
429.039	4409.96
429.247	4467.3
429.454	4891.23
429.662	5065.31
429.869	4823.65
430.076	5108.32
430.284	4946.53
430.491	5124.7
430.699	5569.11
430.906	5573.21
431.114	5634.64
431.321	5773.91
431.528	5950.03
431.736	6177.36
431.943	6548.04
432.15	6382.15
432.358	6320.71
432.565	6695.49
432.772	6738.5
432.979	7080.51
433.187	7268.92
433.394	7256.64
433.601	7815.73
433.808	7494.2
434.016	7705.14
434.223	7967.28
434.43	8569.38
434.637	8432.17
434.844	8866.34
435.052	8985.12
435.259	8993.31
435.466	9069.09
435.673	9110.05
435.88	9681.43
436.087	10123.79
436.294	10017.3
436.501	9869.84
436.708	9998.87
436.915	10174.99
437.122	10879.49
437.329	10777.09
437.537	11174.4
437.743	11551.23
437.95	11350.53
438.157	11762.17
438.364	12247.54
438.571	12192.24
438.778	12315.12
438.985	13361.63
439.192	12890.6
439.399	13414.88
439.606	13177.31
439.813	14008.79
440.02	14547.4
440.227	14576.08
440.433	14275.02
440.64	14549.45
440.847	14399.95
441.054	15026.63
441.261	15890.87
441.467	15712.7
441.674	15946.17
441.881	16757.16
442.088	16798.12
442.294	16495.02
442.501	16832.94
442.708	17635.74
442.914	17998.23
443.121	18717.07
443.328	18325.91
443.534	19425.67
443.741	18712.97
443.948	18782.6
444.154	20119.93
444.361	19820.92
444.568	20072.82
444.774	20111.74
444.981	20552.05
445.187	21029.23
445.394	21694.82
445.6	21774.69
445.807	23609.67
446.013	22534.48
446.22	23003.47
446.426	23910.72
446.633	24385.85
446.839	24959.28
447.046	23920.96
447.252	25325.86
447.459	25229.61
447.665	25329.96
447.871	26339.61
448.078	27357.45
448.284	26339.61
448.491	26777.87
448.697	28035.33
448.903	28481.78
449.11	28647.67
449.316	27973.89
449.522	28672.25
449.728	29649.13
449.935	29468.9
450.141	29726.95
450.347	30306.52
450.553	29182.19
450.76	30050.53
450.966	30755.03
451.172	30370.01
451.378	31367.37
451.584	30216.41
451.791	31357.13
451.997	31402.19
452.203	32059.59
452.409	31838.4
452.615	31572.17
452.821	30423.26
453.027	30312.67
453.233	31746.25
453.44	30748.89
453.646	31226.06
453.852	31283.41
454.058	31588.55
454.264	30558.42
454.47	31406.28
454.676	30628.06
454.882	31590.6
455.088	28946.67
455.294	29255.92
455.5	29645.03
455.705	30089.44
455.911	28860.66
456.117	28446.97
456.323	28090.62
456.529	26562.84
456.735	27672.84
456.941	26986.77
457.147	26583.32
457.352	25757.99
457.558	25368.87
457.764	25266.47
457.97	25143.59
458.176	24330.55
458.381	24690.99
458.587	23525.7
458.793	23214.41
458.999	21872.99
459.204	23839.04
459.41	23060.81
459.616	21537.12
459.821	21614.94
460.027	21375.33
460.233	21123.43
460.438	20078.97
460.644	20203.89
460.85	19288.45
461.055	18950.54
461.261	18776.46
461.466	17564.06
461.672	17017.25
461.878	18139.54
462.083	17113.51
462.289	16636.33
462.494	16443.82
462.7	15958.46
462.905	15419.84
463.111	15899.06
463.316	15927.74
463.522	15692.22
463.727	15929.78
463.932	15425.98
464.138	15450.56
464.343	15612.35
464.549	15065.54
464.754	15475.13
464.959	15368.64
465.165	15385.02
465.37	14594.51
465.575	14346.7
465.781	14875.08
465.986	14903.75
466.191	14619.08
466.397	14244.31
466.602	13367.77
466.807	13898.2
467.012	13904.34
467.218	14070.23
467.423	13685.21
467.628	13609.43
467.833	14369.23
468.038	13765.08
468.244	13562.33
468.449	13926.87
468.654	13535.71
468.859	13373.92
469.064	13316.58
469.269	12773.86
469.474	12915.17
469.679	13181.41
469.885	12825.06
470.09	12988.9
470.295	12968.42
470.5	12390.89
470.705	12640.75
470.91	12220.91
471.115	12235.25
471.32	12560.88
471.525	12171.76
471.73	12394.99
471.935	12112.37
472.139	11592.19
472.344	11811.32
472.549	11753.98
472.754	11583.99
472.959	11637.24
473.164	10838.53
473.369	10881.54
473.574	11381.24
473.778	11194.88
473.983	11170.3
474.188	10998.27
474.393	10783.24
474.598	10541.58
474.802	10639.88
475.007	10592.78
475.212	10426.89
475.417	10111.5
475.621	9953.81
475.826	10002.96
476.031	10117.65
476.235	9808.4
476.44	10033.68
476.645	9550.36
476.849	9734.68
477.054	9562.65
477.259	9402.91
477.463	9615.9
477.668	9280.03
477.872	9402.91
478.077	9091.62
478.282	9069.09
478.486	8749.61
478.691	8811.04
478.895	8741.41
479.1	8727.08
479.304	8833.57
479.509	8602.15
479.713	8587.82
479.918	8368.68
480.122	8428.07
480.326	8503.85
480.531	8583.72
480.735	8274.48
480.94	8368.68
481.144	8524.33
481.348	8038.96
481.553	8309.29
481.757	8096.3
481.961	8286.76
482.166	8333.87
482.37	8167.98
482.574	8116.78
482.778	8190.51
482.983	8378.92
483.187	8213.04
483.391	8172.08
483.595	8112.69
483.8	8122.93
484.004	8215.09
484.208	8411.69
484.412	8124.97
484.616	8301.1
484.821	8141.36
485.025	8059.44
485.229	8098.35
485.433	8092.21
485.637	8120.88
485.841	8139.31
486.045	7928.37
486.249	8143.41
486.453	8041.01
486.657	8120.88
486.861	8208.94
487.065	7701.05
487.269	8108.59
487.473	8116.78
487.677	8096.3
487.881	8188.46
488.085	7940.66
488.289	8219.18
488.493	8155.69
488.697	8229.42
488.901	8124.97
489.105	8036.91
489.309	8251.95
489.512	8016.43
489.716	8254
489.92	8174.13
490.124	8284.72
490.328	8342.06
490.531	8417.83
490.735	8342.06
490.939	8323.63
491.143	8423.98
491.346	8276.52
491.55	8487.47
491.754	8376.87
491.958	8569.38
492.161	8446.51
492.365	8704.55
492.569	8450.6
492.772	8454.7
492.976	8727.08
493.18	8831.52
493.383	8790.56
493.587	8802.85
493.79	8938.02
493.994	8866.34
494.197	8935.97
494.401	8985.12
494.605	8849.96
494.808	8974.88
495.012	9151.01
495.215	9318.94
495.419	9280.03
495.622	9325.08
495.825	9417.24
496.029	9445.91
496.232	9630.23
496.436	9663
496.639	9855.51
496.843	9722.39
497.046	10078.74
497.249	10127.89
497.453	10199.57
497.656	10078.74
497.859	10136.08
498.063	10351.12
498.266	10555.91
498.469	10463.75
498.673	10727.94
498.876	10889.73
499.079	10914.31
499.282	11022.85
499.485	11287.04
499.689	11459.07
499.892	11522.55
500.095	11368.96
500.298	11682.3
500.501	11536.89
500.705	12153.33
500.908	12134.9
501.111	12214.77
501.314	12259.82
501.517	12470.76
501.72	12448.24
501.923	12546.54
502.126	12886.5
502.329	12892.65
502.532	13195.75
502.735	13189.6
502.938	13578.72
503.141	13642.2
503.344	13701.59
503.547	13711.83
503.75	14053.84
503.953	14442.96
504.156	14291.41
504.359	14379.47
504.562	14737.87
504.765	14963.14
504.968	14913.99
505.17	15323.58
505.373	15090.12
505.576	15606.2
505.779	15698.36
505.982	15849.91
506.185	15940.02
506.387	16064.95
506.59	16288.18
506.793	16877.99
506.996	16517.55
507.198	17068.45
507.401	16871.85
507.604	17050.02
507.807	17547.68
508.009	17533.34
508.212	17699.23
508.415	17899.93
508.617	18248.08
508.82	18317.72
509.022	18254.23
509.225	18897.29
509.428	18923.91
509.63	18991.5
509.833	19321.22
510.035	19685.76
510.238	19571.07
510.44	19755.39
510.643	20101.5
510.845	20425.07
511.048	20181.37
511.25	20640.11
511.453	20750.7
511.655	21279.08
511.858	21117.29
512.06	21485.92
512.262	21741.92
512.465	21768.54
512.667	22014.3
512.87	22165.85
513.072	22286.68
513.274	22944.08
513.477	22989.13
513.679	23218.5
513.881	23279.94
514.084	23697.73
514.286	23679.3
514.488	23707.97
514.69	24518.96
514.893	24738.1
515.095	24877.36
515.297	25119.02
515.499	25344.3
515.701	25549.09
515.904	25876.77
516.106	25725.22
516.308	26247.45
516.51	26538.26
516.712	26786.07
516.914	26853.65
517.116	27136.27
517.318	27281.67
517.52	27439.37
517.722	27885.83
517.925	28150.01
518.127	28377.34
518.329	28715.25
518.531	28330.23
518.733	29288.68
518.935	29200.62
519.136	29448.43
519.338	29569.26
519.54	29962.47
519.742	30365.92
519.944	30394.59
520.146	31004.88
520.348	31135.95
520.55	31236.3
520.752	31641.8
520.954	32166.08
521.155	31840.45
521.357	32219.33
521.559	32624.82
521.761	32663.74
521.963	33102
522.164	33040.56
522.366	33030.32
522.568	33493.16
522.77	34123.94
522.971	34404.51
523.173	34031.78
523.375	34459.8
523.576	34527.39
523.778	34420.89
523.98	34824.34
524.181	35088.53
524.383	35313.81
524.584	36016.26
524.786	35719.31
524.988	35852.42
525.189	36133
525.391	36544.64
525.592	37021.81
525.794	36731
525.995	36673.66
526.197	36558.97
526.398	37146.74
526.6	37326.96
526.801	37736.55
527.003	37523.57
527.204	38099.05
527.406	37736.55
527.607	38017.13
527.808	38422.62
528.01	37707.88
528.211	38389.86
528.412	39120.98
528.614	38938.71
528.815	38807.64
529.016	39553.1
529.218	38623.33
529.419	39147.61
529.62	39170.13
529.822	39018.58
530.023	39268.44
530.224	39579.73
530.425	39694.41
530.626	39237.72
530.828	39186.52
531.029	40157.25
531.23	39569.49
531.431	40183.88
531.632	40028.23
531.833	40562.75
532.035	40128.58
532.236	40273.99
532.437	40597.57
532.638	40153.16
532.839	40347.71
533.04	40464.45
533.241	40249.41
533.442	40847.42
533.643	40480.83
533.844	40702.01
534.045	40712.25
534.246	40407.11
534.447	40835.13
534.648	40292.42
534.849	40820.8
535.05	40517.7
535.251	40773.69
535.451	40998.97
535.652	40978.49
535.853	40783.93
536.054	40964.15
536.255	41084.98
536.456	40413.25
536.657	41236.53
536.857	40628.29
537.058	40536.13
537.259	41001.02
537.46	40992.83
537.66	40826.94
537.861	41044.02
538.062	40847.42
538.263	41140.28
538.463	40929.34
538.664	41080.89
538.865	41076.79
539.065	41285.68
539.266	40654.91
539.466	41300.02
539.667	40568.9
539.868	41441.33
540.068	41171
540.269	40896.57
540.469	41189.43
540.67	40439.87
540.87	40562.75
541.071	40716.35
541.271	41113.66
541.472	41277.49
541.672	41023.54
541.873	40673.34
542.073	40454.21
542.274	41138.23
542.474	40880.19
542.675	40198.21
542.875	41355.32
543.075	41134.13
543.276	40857.66
543.476	41150.52
543.676	40722.49
543.877	40704.06
544.077	40878.14
544.277	41023.54
544.478	41054.26
544.678	40964.15
544.878	40753.21
545.078	40978.49
545.279	40699.97
545.479	40431.68
545.679	41009.21
545.879	41050.17
546.079	40411.2
546.28	40835.13
546.48	40796.22
546.68	40871.99
546.88	41035.83
547.08	40513.6
547.28	40695.87
547.48	40890.43
547.68	41144.37
547.88	40890.43
548.081	40839.23
548.281	41017.4
548.481	40677.44
548.681	41592.88
548.881	40890.43
549.081	40867.9
549.28	40865.85
549.48	40951.87
549.68	40736.83
549.88	41613.36
550.08	40859.71
550.28	40652.86
550.48	40517.7
550.68	41248.82
550.88	40679.49
551.08	41007.16
551.279	41095.22
551.479	40409.15
551.679	40628.29
551.879	40534.08
552.079	40742.97
552.278	40749.12
552.478	40747.07
552.678	40808.51
552.878	40884.28
553.077	40597.57
553.277	40104.01
553.477	40972.35
553.676	40511.55
553.876	40587.33
554.076	40187.97
554.275	40351.81
554.475	40368.19
554.674	40704.06
554.874	40378.43
555.074	40476.74
555.273	40374.34
555.473	40560.7
555.672	40341.57
555.872	40044.62
556.071	40020.04
556.271	40394.82
556.47	40222.79
556.67	39901.26
556.869	39798.86
557.068	40114.25
557.268	39721.04
557.467	40124.49
557.667	39925.83
557.866	39993.42
558.065	39800.91
558.265	39540.82
558.464	39792.72
558.663	40306.76
558.863	39215.19
559.062	39987.27
559.261	39637.07
559.461	40147.01
559.66	39254.1
559.859	39385.17
560.058	39127.13
560.258	39491.66
560.457	38725.72
560.656	39229.52
560.855	39055.45
561.054	39293.01
561.253	38699.1
561.453	38959.19
561.652	39102.55
561.851	38725.72
562.05	38754.4
562.249	38807.64
562.448	39268.44
562.647	38692.96
562.846	38375.52
563.045	38910.04
563.244	38094.95
563.443	38639.71
563.642	38193.25
563.841	38256.74
564.04	38023.27
564.239	38422.62
564.438	38119.53
564.637	38144.1
564.836	38074.47
565.035	37785.71
565.234	38025.32
565.432	37785.71
565.631	37390.45
565.83	37595.24
566.029	37427.31
566.228	37468.27
566.427	37410.93
566.625	37156.98
566.824	36888.7
567.023	37589.1
567.222	36628.6
567.42	37431.41
567.619	36786.3
567.818	37066.87
568.016	36759.67
568.215	36968.57
568.414	36556.92
568.612	37003.38
568.811	36321.41
569.01	36444.29
569.208	36440.19
569.407	36628.6
569.605	36249.73
569.804	36440.19
570.002	35952.77
570.201	36122.76
570.4	35586.19
570.598	35621
570.797	35502.22
570.995	35457.17
571.193	35293.33
571.392	36024.45
571.59	35543.18
571.789	35473.55
571.987	35274.9
572.186	35453.07
572.384	34881.69
572.582	35096.72
572.781	35307.66
572.979	34941.08
573.177	35084.44
573.376	34789.53
573.574	34554.01
573.772	34650.27
573.971	34572.44
574.169	34384.03
574.367	34009.25
574.565	34074.79
574.763	33908.9
574.962	33786.02
575.16	33675.43
575.358	33990.82
575.556	33491.12
575.754	34007.2
575.952	33425.58
576.151	33644.71
576.349	33341.61
576.547	33257.65
576.745	33460.4
576.943	33280.17
577.141	32692.41
577.339	32938.16
577.537	32684.22
577.735	33157.3
577.933	32704.7
578.131	32702.65
578.329	32663.74
578.527	32411.84
578.725	32336.06
578.923	32149.7
579.121	32172.22
579.319	32075.97
579.516	32297.15
579.714	31916.23
579.912	31803.59
580.11	31983.81
580.308	31858.88
580.506	31668.42
580.704	31301.84
580.901	31656.14
581.099	31396.04
581.297	31412.43
581.495	31119.57
581.692	31369.42
581.89	31060.18
582.088	31334.6
582.285	30591.19
582.483	31006.93
582.681	30644.44
582.878	30787.8
583.076	29991.14
583.274	31019.22
583.471	30365.92
583.669	30478.55
583.866	30071.01
584.064	30318.81
584.262	29726.95
584.459	30056.67
584.657	29882.59
584.854	30327
585.052	29864.16
585.249	29825.25
585.447	29950.18
585.644	29235.44
585.841	29542.63
586.039	29434.09
586.236	29362.41
586.434	28891.38
586.631	28913.91
586.828	29313.26
587.026	29145.33
587.223	29296.88
587.42	28700.92
587.618	28825.84
587.815	28518.65
588.012	28375.29
588.21	28414.2
588.407	28655.86
588.604	28467.45
588.801	28295.42
588.999	28260.6
589.196	28162.3
589.393	27920.64
589.59	27521.29
589.787	28010.75
589.984	27719.94
590.182	27494.66
590.379	27801.86
590.576	27459.85
590.773	27498.76
590.97	27050.25
591.167	27494.66
591.364	27283.72
591.561	27253
591.758	26765.59
591.955	27001.1
592.152	26886.42
592.349	27009.29
592.546	26880.27
592.743	26734.87
592.94	26360.09
593.137	26362.14
593.334	26454.29
593.531	26216.73
593.727	26425.62
593.924	26210.59
594.121	25989.41
594.318	26564.89
594.515	25688.35
594.712	26153.24
594.908	25800.99
595.105	25772.32
595.302	25622.82
595.499	25485.61
595.696	25461.03
595.892	25266.47
596.089	25532.71
596.286	25606.44
596.482	25194.79
596.679	25270.57
596.876	25248.04
597.072	25030.96
597.269	24854.83
597.466	24502.58
597.662	24781.1
597.859	24946.99
598.055	24717.62
598.252	24641.84
598.448	24760.62
598.645	24670.51
598.841	23982.4
599.038	24353.08
599.234	24338.74
599.431	23959.87
599.627	24054.08
599.824	24199.48
600.02	23781.7
600.217	24236.34
600.413	23804.22
600.609	23599.43
600.806	23662.91
601.002	23390.53
601.198	23298.38
601.395	23429.45
601.591	23343.43
601.787	23249.22
601.984	23028.04
602.18	23386.44
602.376	23003.47
602.572	22837.58
602.769	22915.4
602.965	22528.34
603.161	22905.17
603.357	22712.66
603.553	22745.42
603.75	22765.9
603.946	22387.03
604.142	22339.93
604.338	22454.61
604.534	22595.92
604.73	21930.33
604.926	21946.72
605.122	21913.95
605.318	22096.22
605.514	22024.54
605.71	21967.2
605.906	21791.07
606.102	21762.4
606.298	21897.56
606.494	21768.54
606.69	21721.44
606.886	21580.13
607.082	21600.61
607.278	21602.66
607.474	21236.07
607.67	21401.96
607.866	21084.52
608.062	21416.29
608.257	21293.41
608.453	21209.45
608.649	21043.56
608.845	20791.66
609.041	20832.62
609.236	20826.48
609.432	20881.77
609.628	20894.06
609.824	20851.05
610.019	20728.17
610.215	20668.78
610.411	20683.12
610.606	20586.86
610.802	20623.73
610.998	20384.12
611.193	20289.91
611.389	20365.68
611.584	20224.37
611.78	20128.12
611.976	20101.5
612.171	20107.64
612.367	20248.95
612.562	19761.53
612.758	20238.71
612.953	19827.07
613.149	20070.78
613.344	19775.87
613.539	19913.08
613.735	19974.52
613.93	19835.26
614.126	19804.54
614.321	19825.02
614.517	19679.61
614.712	19491.2
614.907	19595.65
615.103	19784.06
615.298	19341.7
615.493	19321.22
615.688	19212.68
615.884	19908.99
616.079	19110.28
616.274	19456.39
616.47	19296.64
616.665	19233.16
616.86	19270.02
617.055	18993.54
617.25	19204.49
617.445	19173.77
617.641	18809.23
617.836	19145.09
618.031	18768.27
618.226	19001.74
618.421	18858.38
618.616	19173.77
618.811	18459.02
619.006	18803.08
619.201	18295.19
619.396	18274.71
619.591	18178.45
619.786	18180.5
619.981	18024.86
620.176	18301.33
620.371	17867.16
620.566	18006.42
620.761	17944.98
620.956	18209.17
621.151	17658.27
621.346	17854.87
621.541	17693.08
621.735	17732
621.93	17148.33
622.125	17406.37
622.32	16740.78
622.515	17316.26
622.709	17199.52
622.904	17138.09
623.099	16953.77
623.294	16769.45
623.488	16617.9
623.683	16687.53
623.878	16523.69
624.072	16656.81
624.267	16466.35
624.462	16392.62
624.656	16169.4
624.851	16490.93
625.046	16023.99
625.24	16038.33
625.435	16032.18
625.629	15702.46
625.824	15692.22
626.018	15778.23
626.213	15231.43
626.407	15391.17
626.602	15212.99
626.796	15339.97
626.991	15233.47
627.185	15352.26
627.38	15243.71
627.574	14838.22
627.768	15092.16
627.963	15100.36
628.157	14483.92
628.352	14627.28
628.546	14455.25
628.74	14625.23
628.935	14578.12
629.129	14834.12
629.323	14234.07
629.517	14090.71
629.712	14367.18
629.906	14029.27
630.1	13998.55
630.294	14051.8
630.489	14021.08
630.683	13912.53
630.877	13488.6
631.071	13593.05
631.265	13742.55
631.459	13414.88
631.653	13406.69
631.848	13451.74
632.042	13289.95
632.236	13486.56
632.43	13257.18
632.624	13085.15
632.818	13072.87
633.012	12720.62
633.206	12956.13
633.4	12755.43
633.594	12886.5
633.788	12650.99
633.982	12747.24
634.176	12876.26
634.369	12558.83
634.563	12597.74
634.757	12409.33
634.951	12351.98
635.145	12364.27
635.339	12163.57
635.533	12175.86
635.726	12003.83
635.92	11799.03
636.114	11983.35
636.308	11846.13
636.501	11803.13
636.695	12016.12
636.889	11645.43
637.083	11598.33
637.276	11469.31
637.47	11653.62
637.664	11319.81
637.857	11313.66
638.051	11270.65
638.244	11342.33
638.438	11209.22
638.632	11088.39
638.825	10992.13
639.019	11166.21
639.212	11049.47
639.406	10842.63
639.599	10889.73
639.793	10842.63
639.986	10664.46
640.18	10672.65
640.373	10461.71
640.567	10441.23
640.76	10404.36
640.954	10369.55
641.147	10205.71
641.34	10342.92
641.534	10293.77
641.727	10275.34
641.92	10000.91
642.114	9908.76
642.307	9964.05
642.5	9992.72
642.694	9837.08
642.887	9769.49
643.08	9677.33
643.273	9890.32
643.467	9667.1
643.66	9572.89
643.853	9454.11
644.046	9566.74
644.239	9456.15
644.432	9280.03
644.626	9251.36
644.819	9198.11
645.012	9183.77
645.205	9114.14
645.398	9247.26
645.591	9118.24
645.784	9034.27
645.977	9030.18
646.17	9087.52
646.363	8849.96
646.556	8725.03
646.749	8688.17
646.942	8536.62
647.135	8624.68
647.328	8567.34
647.521	8563.24
647.714	8481.32
647.907	8538.66
648.099	8493.61
648.292	8405.55
648.485	8356.4
648.678	8294.96
648.871	8256.04
649.064	8108.59
649.256	8313.39
649.449	8137.26
649.642	8061.49
649.835	8098.35
650.027	7991.86
650.22	7901.75
650.413	7844.4
650.605	7852.59
650.798	7830.07
650.991	7737.91
651.183	7739.96
651.376	7625.27
651.568	7584.31
651.761	7594.55
651.954	7498.3
652.146	7399.99
652.339	7518.78
652.531	7440.95
652.724	7494.2
652.916	7297.6
653.109	7404.09
653.301	7258.68
653.494	7309.88
653.686	7180.86
653.879	7283.26
654.071	7090.75
654.263	7133.76
654.456	7107.13
654.648	7080.51
654.84	6867.52
655.033	7006.78
655.225	6836.8
655.417	6826.56
655.61	6916.67
655.802	6980.16
655.994	6734.4
656.186	6713.92
656.379	6627.91
656.571	6808.13
656.763	6595.14
656.955	6494.79
657.148	6685.25
657.34	6505.03
657.532	6181.45
657.724	6328.91
657.916	6449.74
658.108	6464.07
658.3	6173.26
658.492	6322.76
658.684	6330.95
658.876	6195.79
659.068	6246.99
659.26	6214.22
659.452	6050.38
659.644	6277.71
659.836	6099.53
660.028	6062.67
660.22	5847.63
660.412	5945.94
660.604	5792.34
660.796	5954.13
660.988	5800.53
661.18	5954.13
661.372	5714.52
661.563	5679.7
661.755	5732.95
661.947	5814.87
662.139	5755.47
662.331	5651.03
662.522	5755.47
662.714	5675.6
662.906	5513.81
663.097	5651.03
663.289	5474.9
663.481	5440.09
663.673	5417.56
663.864	5296.73
664.056	5302.87
664.247	5282.39
664.439	5382.74
664.631	5231.19
664.822	5474.9
665.014	5311.07
665.205	5497.43
665.397	5313.11
665.588	5143.13
665.78	5192.28
665.971	5077.6
666.163	5046.88
666.354	5055.07
666.546	5085.79
666.737	5044.83
666.929	5022.3
667.12	5083.74
667.311	4973.15
667.503	4862.56
667.694	5018.21
667.885	4866.66
668.077	4772.45
668.268	4778.59
668.459	4756.07
668.651	4825.7
668.842	4856.42
669.033	4831.84
669.224	4770.4
669.416	4682.34
669.607	4680.29
669.798	4631.14
669.989	4760.16
670.18	4655.72
670.371	4633.19
670.563	4719.2
670.754	4682.34
670.945	4610.66
671.136	4586.08
671.327	4465.25
671.518	4475.49
671.709	4522.6
671.9	4520.55
672.091	4338.28
672.282	4528.74
672.473	4328.04
672.664	4489.83
672.855	4498.02
673.046	4336.23
673.237	4516.45
673.428	4237.93
673.619	4311.66
673.809	4338.28
674	4215.4
674.191	4242.03
674.382	4147.82
674.573	4418.15
674.764	4145.77
674.954	4295.27
675.145	4129.39
675.336	4342.38
675.527	4133.48
675.717	4133.48
675.908	4219.5
676.099	4235.88
676.289	4100.72
676.48	4158.06
676.671	4065.9
676.861	4080.24
677.052	4131.44
677.243	4039.28
677.433	4006.51
677.624	4061.8
677.814	4145.77
678.005	4082.28
678.195	4035.18
678.386	4162.16
678.576	4039.28
678.767	4014.7
678.957	4078.19
679.148	4008.56
679.338	4117.1
679.529	4055.66
679.719	3943.02
679.909	3914.35
680.1	3920.49
680.29	4037.23
680.481	4002.41
680.671	3904.11
680.861	3988.08
681.052	3977.84
681.242	3846.77
681.432	4016.75
681.622	4000.37
681.813	3932.78
682.003	3793.52
682.193	3918.45
682.383	3957.36
682.573	3895.92
682.764	3822.19
682.954	3961.45
683.144	3859.06
683.334	3848.82
683.524	3770.99
683.714	3727.99
683.904	3865.2
684.094	3885.68
684.284	3848.82
684.474	3875.44
684.664	3773.04
684.854	3854.96
685.044	3936.88
685.234	3750.51
685.424	3951.21
685.614	3684.98
685.804	3824.24
685.994	3740.27
686.184	3666.55
686.374	3703.41
686.564	3707.51
686.753	3721.84
686.943	3713.65
687.133	3564.15
687.323	3646.07
687.513	3768.95
687.702	3807.86
687.892	3619.44
688.082	3480.18
688.272	3633.78
688.461	3529.33
688.651	3525.24
688.841	3572.34
689.03	3691.12
689.22	3568.24
689.41	3400.31
689.599	3492.47
689.789	3420.79
689.979	3445.37
690.168	3455.61
690.358	3590.77
690.547	3549.81
690.737	3512.95
690.926	3474.04
691.116	3279.48
691.305	3351.16
691.495	3330.68
691.684	3332.73
691.874	3523.19
692.063	3416.69
692.252	3285.62
692.442	3463.8
692.631	3381.88
692.82	3181.18
693.01	3328.63
693.199	3398.26
693.388	3283.58
693.578	3316.34
693.767	3349.11
693.956	3435.13
694.146	3414.65
694.335	3271.29
694.524	3275.38
694.713	3293.82
694.902	3265.14
695.092	3314.3
695.281	3234.43
695.47	3375.74
695.659	3252.86
695.848	3172.99
696.037	3195.51
696.226	3242.62
696.415	3125.88
696.604	3213.95
696.793	3140.22
696.982	3148.41
697.171	3175.03
697.36	3228.28
697.549	3154.55
697.738	3146.36
697.927	3187.32
698.116	3148.41
698.305	3080.83
698.494	3101.31
698.683	3078.78
698.872	3211.9
699.061	3150.46
699.25	3267.19
699.438	3064.44
699.627	3105.4
699.816	3109.5
700.005	3150.46
700.193	3134.07
700.382	3115.64
700.571	3072.64
700.76	3046.01
700.948	3031.68
701.137	3066.49
701.326	3101.31
701.514	2978.43
701.703	3123.84
701.892	3013.24
702.08	3086.97
702.269	3132.03
702.457	3091.07
702.646	3056.25
702.834	3015.29
703.023	3099.26
703.212	3115.64
703.4	3238.52
703.589	3060.35
703.777	3103.36
703.965	2986.62
704.154	3076.73
704.342	3117.69
704.531	2974.33
704.719	3099.26
704.907	3009.15
705.096	3039.87
705.284	2945.66
705.472	3029.63
705.661	3017.34
705.849	3035.77
706.037	3074.68
706.226	3031.68
706.414	3011.2
706.602	3039.87
706.79	3119.74
706.979	2964.09
707.167	3023.48
707.355	2990.72
707.543	3027.58
707.731	3080.83
707.919	3009.15
708.107	2994.81
708.296	2951.81
708.484	3017.34
708.672	3132.03
708.86	2947.71
709.048	2986.62
709.236	2953.85
709.424	2951.81
709.612	2984.57
709.8	2978.43
709.988	2962.05
710.176	3058.3
710.364	2980.48
710.551	2882.17
710.739	3093.12
710.927	2953.85
711.115	2916.99
711.303	2919.04
711.491	3013.24
711.679	2933.37
711.866	2900.61
712.054	2980.48
712.242	2804.35
712.43	2990.72
712.617	2882.17
712.805	2888.32
712.993	2923.13
713.181	2841.22
713.368	2957.95
713.556	2949.76
713.744	2863.74
713.931	3000.96
714.119	2992.76
714.306	2960
714.494	2916.99
714.682	3009.15
714.869	2949.76
715.057	2994.81
715.244	2822.78
715.432	2923.13
715.619	2966.14
715.807	2914.94
715.994	2896.51
716.182	2767.49
716.369	2861.69
716.556	2871.93
716.744	2925.18
716.931	2998.91
717.119	2927.23
717.306	2865.79
717.493	2894.46
717.681	2833.02
717.868	2798.21
718.055	2873.98
718.242	3021.44
718.43	2921.09
718.617	2947.71
718.804	2773.63
718.991	2898.56
719.179	2828.93
719.366	2916.99
719.553	2908.8
719.74	2888.32
719.927	2935.42
720.114	2785.92
720.301	2820.74
720.488	2880.13
720.676	2923.13
720.863	2876.03
721.05	2796.16
721.237	2847.36
721.424	2841.22
721.611	2857.6
721.798	2894.46
721.985	2792.06
722.172	2906.75
722.358	2790.02
722.545	2671.23
722.732	2878.08
722.919	2933.37
723.106	2861.69
723.293	2876.03
723.48	2800.26
723.667	2771.58
723.853	2931.33
724.04	2781.82
724.227	2818.69
724.414	2728.58
724.6	2747.01
724.787	2761.34
724.974	2792.06
725.161	2681.47
725.347	2802.3
725.534	2763.39
725.72	2790.02
725.907	2812.54
726.094	2777.73
726.28	2626.18
726.467	2681.47
726.653	2720.39
726.84	2755.2
727.027	2671.23
727.213	2611.84
727.4	2669.19
727.586	2863.74
727.773	2644.61
727.959	2722.43
728.145	2747.01
728.332	2611.84
728.518	2648.71
728.705	2777.73
728.891	2701.95
729.077	2695.81
729.264	2783.87
729.45	2814.59
729.636	2771.58
729.823	2585.22
730.009	2738.82
730.195	2671.23
730.382	2716.29
730.568	2617.99
730.754	2683.52
730.94	2728.58
731.126	2759.3
731.313	2699.91
731.499	2617.99
731.685	2613.89
731.871	2671.23
732.057	2728.58
732.243	2632.32
732.429	2751.1
732.615	2716.29
732.801	2671.23
732.987	2654.85
733.173	2570.88
733.359	2687.62
733.545	2689.67
733.731	2585.22
733.917	2687.62
734.103	2617.99
734.289	2617.99
734.475	2609.79
734.661	2759.3
734.847	2667.14
735.033	2593.41
735.219	2624.13
735.404	2552.45
735.59	2677.38
735.776	2542.21
735.962	2640.51
736.148	2540.16
736.333	2695.81
736.519	2554.5
736.705	2585.22
736.89	2552.45
737.076	2613.89
737.262	2458.25
737.447	2562.69
737.633	2613.89
737.819	2499.2
738.004	2534.02
738.19	2417.29
738.375	2454.15
738.561	2456.2
738.747	2462.34
738.932	2417.29
739.118	2626.18
739.303	2476.68
739.489	2515.59
739.674	2368.13
739.859	2558.6
740.045	2536.07
740.23	2468.48
740.416	2337.41
740.601	2529.92
740.786	2376.33
740.972	2359.94
741.157	2286.22
741.342	2275.98
741.528	2359.94
741.713	2353.8
741.898	2382.47
742.084	2298.5
742.269	2341.51
742.454	2316.94
742.639	2437.77
742.824	2321.03
743.01	2300.55
743.195	2349.7
743.38	2294.41
743.565	2419.33
743.75	2212.49
743.935	2357.89
744.12	2366.09
744.305	2235.02
744.49	2177.67
744.675	2183.82
744.86	2181.77
745.045	2048.65
745.23	2044.56
745.415	2116.23
745.6	2255.5
745.785	2192.01
745.97	2192.01
746.155	2073.23
746.34	2196.11
746.525	2134.67
746.71	2065.04
746.895	1958.54
747.079	2146.95
747.264	2026.12
747.449	2001.55
747.634	2151.05
747.819	2001.55
748.003	1911.44
748.188	2038.41
748.373	2054.8
748.557	2062.99
748.742	1966.73
748.927	1915.53
749.111	1868.43
749.296	2060.94
749.481	1974.92
749.665	1794.7
749.85	1952.4
750.034	1874.57
750.219	1876.62
750.404	1737.36
750.588	1909.39
750.773	1829.52
750.957	1884.81
751.141	1817.23
751.326	1741.46
751.51	1809.04
751.695	1772.18
751.879	1778.32
752.064	1761.94
752.248	1718.93
752.432	1745.55
752.617	1682.07
752.801	1653.39
752.985	1655.44
753.17	1610.39
753.354	1684.11
753.538	1680.02
753.722	1620.63
753.907	1581.71
754.091	1604.24
754.275	1550.99
754.459	1591.95
754.643	1493.65
754.828	1591.95
755.012	1628.82
755.196	1553.04
755.38	1507.99
755.564	1493.65
755.748	1507.99
755.932	1544.85
756.116	1553.04
756.3	1489.56
756.484	1540.76
756.668	1473.17
756.852	1419.92
757.036	1403.54
757.22	1438.36
757.404	1487.51
757.588	1321.62
757.772	1295
757.956	1266.33
758.14	1395.35
758.323	1323.67
758.507	1278.62
758.691	1264.28
758.875	1348.25
759.059	1362.58
759.242	1262.23
759.426	1354.39
759.61	1323.67
759.794	1264.28
759.977	1278.62
760.161	1358.49
760.345	1319.57
760.528	1276.57
760.712	1235.61
760.895	1272.47
761.079	1188.5
761.263	1317.53
761.446	1176.22
761.63	1153.69
761.813	1233.56
761.997	1165.98
762.18	1153.69
762.364	1206.94
762.547	1090.2
762.731	1149.59
762.914	1108.63
763.098	1168.02
763.281	1165.98
763.464	1018.52
763.648	1163.93
763.831	1090.2
764.015	1069.72
764.198	1141.4
764.381	1178.26
764.564	1159.83
764.748	1157.78
764.931	1102.49
765.114	1151.64
765.297	1139.35
765.481	1059.48
765.664	1143.45
765.847	977.56
766.03	1071.77
766.213	1170.07
766.397	1082.01
766.58	1157.78
766.763	1026.71
766.946	1086.11
767.129	1036.95
767.312	952.99
767.495	1041.05
767.678	1024.67
767.861	1075.87
768.044	1034.91
768.227	987.8
768.41	928.41
768.593	1030.81
768.776	1000.09
768.959	1086.11
769.142	961.18
769.324	967.32
769.507	987.8
769.69	979.61
769.873	899.74
770.056	938.65
770.239	948.89
770.421	889.5
770.604	967.32
770.787	1014.43
770.97	918.17
771.152	811.68
771.335	901.79
771.518	963.23
771.7	959.13
771.883	914.08
772.066	891.55
772.248	877.21
772.431	883.36
772.613	883.36
772.796	819.87
772.978	965.28
773.161	981.66
773.343	928.41
773.526	793.25
773.708	803.49
773.891	764.57
774.073	768.67
774.256	807.58
774.438	762.53
774.621	901.79
774.803	828.06
774.985	846.49
775.168	819.87
775.35	840.35
775.532	830.11
775.715	770.72
775.897	795.29
776.079	813.73
776.261	756.38
776.444	703.14
776.626	813.73
776.808	719.52
776.99	756.38
777.173	797.34
777.355	799.39
777.537	713.38
777.719	682.66
777.901	660.13
778.083	701.09
778.265	699.04
778.447	776.86
778.629	748.19
778.811	727.71
778.993	762.53
779.175	709.28
779.357	623.27
779.539	688.8
779.721	774.81
779.903	727.71
780.085	604.83
780.267	647.84
780.449	649.89
780.631	639.65
780.812	645.79
780.994	696.99
781.176	645.79
781.358	574.11
781.54	672.42
781.721	606.88
781.903	606.88
782.085	522.91
782.267	537.25
782.448	619.17
782.63	580.26
782.812	537.25
782.993	559.78
783.175	656.03
783.357	621.22
783.538	535.2
783.72	565.92
783.901	492.2
784.083	557.73
784.264	527.01
784.446	514.72
784.627	533.15
784.809	522.91
784.99	539.3
785.172	549.54
785.353	514.72
785.535	508.58
785.716	436.9
785.897	463.52
786.079	438.95
786.26	531.11
786.441	479.91
786.623	418.47
786.804	436.9
786.985	490.15
787.167	461.48
787.348	496.29
787.529	455.33
787.71	475.81
787.891	469.67
788.073	424.61
788.254	484
788.435	436.9
788.616	441
788.797	379.56
788.978	426.66
789.159	461.48
789.34	447.14
789.522	428.71
789.703	430.76
789.884	416.42
790.065	443.04
790.246	494.24
790.427	434.85
790.607	334.5
790.788	457.38
790.969	371.37
791.15	434.85
791.331	418.47
791.512	361.13
791.693	357.03
791.874	420.52
792.054	422.56
792.235	389.8
792.416	385.7
792.597	369.32
792.778	330.41
792.958	438.95
793.139	367.27
793.32	363.17
793.5	379.56
793.681	414.37
793.862	342.69
794.042	346.79
794.223	340.65
794.404	316.07
794.584	266.92
794.765	381.6
794.945	289.45
795.126	367.27
795.306	299.69
795.487	279.21
795.667	293.54
795.848	295.59
796.028	281.25
796.209	373.41
796.389	404.13
796.57	299.69
796.75	293.54
796.93	248.49
797.111	279.21
797.291	271.01
797.471	283.3
797.652	287.4
797.832	295.59
798.012	342.69
798.192	268.97
798.373	320.17
798.553	287.4
798.733	268.97
798.913	277.16
799.093	260.77
799.274	260.77
799.454	318.12
799.634	322.21
799.814	332.45
799.994	289.45
800.174	303.78
800.354	273.06
800.534	256.68
800.714	268.97
800.894	330.41
801.074	256.68
801.254	166.57
801.434	234.15
801.614	219.82
801.794	289.45
801.974	694.94
802.154	234.15
802.334	230.06
802.514	228.01
802.693	238.25
802.873	248.49
803.053	275.11
803.233	268.97
803.413	230.06
803.592	238.25
803.772	215.72
803.952	309.93
804.131	262.82
804.311	305.83
804.491	291.49
804.67	205.48
804.85	207.53
805.03	283.3
805.209	266.92
805.389	211.62
805.568	297.64
805.748	185
805.928	189.1
806.107	191.14
806.287	281.25
806.466	170.66
806.646	90.79
806.825	234.15
807.004	166.57
807.184	148.14
807.363	250.53
807.543	195.24
807.722	156.33
807.901	193.19
808.081	223.91
808.26	141.99
808.439	238.25
808.619	168.62
808.798	254.63
808.977	189.1
809.156	232.1
809.336	170.66
809.515	250.53
809.694	117.42
809.873	203.43
810.052	234.15
810.231	230.06
810.411	221.86
810.59	174.76
810.769	199.34
810.948	96.94
811.127	211.62
811.306	213.67
811.485	232.1
811.664	203.43
811.843	141.99
812.022	236.2
812.201	185
812.38	150.18
812.559	193.19
812.737	150.18
812.916	252.58
813.095	125.61
813.274	148.14
813.453	123.56
813.632	131.75
813.811	150.18
813.989	174.76
814.168	150.18
814.347	182.95
814.526	166.57
814.704	185
814.883	166.57
815.062	137.9
815.24	178.86
815.419	121.51
815.598	182.95
815.776	148.14
815.955	203.43
816.133	121.51
816.312	185
816.49	133.8
816.669	215.72
816.847	119.46
817.026	205.48
817.204	154.28
817.383	103.08
817.561	115.37
817.74	207.53
817.918	101.03
818.097	158.38
818.275	152.23
818.453	94.89
818.632	154.28
818.81	117.42
818.988	115.37
819.167	197.29
819.345	127.66
819.523	123.56
819.701	113.32
819.879	158.38
820.058	148.14
820.236	148.14
820.414	105.13
820.592	66.22
820.77	154.28
820.948	133.8
821.127	109.22
821.305	92.84
821.483	64.17
821.661	119.46
821.839	146.09
822.017	129.7
822.195	146.09
822.373	168.62
822.551	86.7
822.729	176.81
822.907	74.41
823.085	121.51
823.262	189.1
823.44	49.83
823.618	117.42
823.796	117.42
823.974	109.22
824.152	64.17
824.329	76.46
824.507	162.47
824.685	123.56
824.863	119.46
825.04	70.31
825.218	88.75
825.396	139.94
825.574	168.62
825.751	74.41
825.929	117.42
826.107	107.18
826.284	125.61
826.462	113.32
826.639	96.94
826.817	90.79
826.994	139.94
827.172	185
827.349	139.94
827.527	86.7
827.704	156.33
827.882	182.95
828.059	49.83
828.237	117.42
828.414	117.42
828.591	45.74
828.769	66.22
828.946	74.41
829.124	74.41
829.301	107.18
829.478	23.21
829.655	103.08
829.833	168.62
830.01	66.22
830.187	139.94
830.364	17.07
830.542	78.51
830.719	113.32
830.896	31.4
831.073	119.46
831.25	68.27
831.427	10.92
831.604	141.99
831.782	37.55
831.959	131.75
832.136	146.09
832.313	94.89
832.49	90.79
832.667	137.9
832.844	92.84
833.021	176.81
833.198	105.13
833.374	127.66
833.551	131.75
833.728	27.31
833.905	107.18
834.082	66.22
834.259	74.41
834.436	146.09
834.612	80.55
834.789	141.99
834.966	113.32
835.143	53.93
835.319	109.22
835.496	101.03
835.673	6.83
835.85	117.42
836.026	115.37
836.203	80.55
836.38	8.87
836.556	43.69
836.733	58.03
836.909	135.85
837.086	27.31
837.262	60.07
837.439	129.7
837.616	12.97
837.792	17.07
837.968	121.51
838.145	33.45
838.321	60.07
838.498	86.7
838.674	84.65
838.851	86.7
839.027	78.51
839.203	109.22
839.38	72.36
839.556	119.46
839.732	86.7
839.909	86.7
840.085	86.7
840.261	178.86
840.437	60.07
840.614	53.93
840.79	150.18
840.966	70.31
841.142	144.04
841.318	88.75
841.494	66.22
841.671	41.64
841.847	105.13
842.023	80.55
842.199	88.75
842.375	51.88
842.551	25.26
842.727	17.07
842.903	101.03
843.079	78.51
843.255	135.85
843.431	66.22
843.607	117.42
843.783	2.73
843.959	94.89
844.134	8.87
844.31	107.18
844.486	0.68
844.662	64.17
844.838	74.41
845.013	129.7
845.189	105.13
845.365	53.93
845.541	78.51
845.716	115.37
845.892	64.17
846.068	62.12
846.244	64.17
846.419	64.17
846.595	84.65
846.77	105.13
846.946	68.27
847.122	19.11
847.297	72.36
847.473	62.12
847.648	23.21
847.824	37.55
847.999	-7.51
848.175	117.42
848.35	103.08
848.526	55.98
848.701	105.13
848.876	64.17
849.052	62.12
849.227	0.68
849.403	45.74
849.578	51.88
849.753	47.79
849.929	133.8
850.104	-34.13
850.279	45.74
850.454	17.07
850.63	90.79
850.805	15.02
850.98	78.51
851.155	21.16
851.33	-7.51
851.505	49.83
851.681	78.51
851.856	35.5
852.031	37.55
852.206	88.75
852.381	4.78
852.556	107.18
852.731	121.51
852.906	39.59
853.081	62.12
853.256	117.42
853.431	31.4
853.606	17.07
853.781	23.21
853.956	41.64
854.131	2.73
854.305	60.07
854.48	92.84
854.655	39.59
854.83	33.45
855.005	72.36
855.18	15.02
855.354	-3.41
855.529	2.73
855.704	21.16
855.879	123.56
856.053	92.84
856.228	180.9
856.403	12.97
856.577	92.84
856.752	15.02
856.926	49.83
857.101	45.74
857.276	76.46
857.45	111.27
857.625	53.93
857.799	-42.32
857.974	27.31
858.148	8.87
858.323	66.22
858.497	10.92
858.672	-3.41
858.846	-27.99
859.02	21.16
859.195	10.92
859.369	66.22
859.543	-7.51
859.718	66.22
859.892	-40.28
860.066	-75.09
860.241	27.31
860.415	-1.37
860.589	-15.7
860.763	25.26
860.938	-11.61
861.112	6.83
861.286	-34.13
861.46	80.55
861.634	27.31
861.808	72.36
861.982	66.22
862.157	-27.99
862.331	49.83
862.505	35.5
862.679	12.97
862.853	72.36
863.027	-5.46
863.201	51.88
863.375	-21.85
863.549	19.11
863.722	45.74
863.896	47.79
864.07	25.26
864.244	66.22
864.418	127.66
864.592	64.17
864.766	19.11
864.939	21.16
865.113	0.68
865.287	51.88
865.461	-40.28
865.634	-62.8
865.808	84.65
865.982	27.31
866.156	8.87
866.329	17.07
866.503	49.83
866.676	6.83
866.85	41.64
867.024	84.65
867.197	72.36
867.371	60.07
867.544	37.55
867.718	-34.13
867.891	35.5
868.065	19.11
868.238	2.73
868.412	88.75
868.585	41.64
868.759	15.02
868.932	35.5
869.105	-17.75
869.279	53.93
869.452	51.88
869.625	-30.04
869.799	76.46
869.972	-1.37
870.145	-81.24
870.319	15.02
870.492	21.16
870.665	82.6
870.838	4.78
871.011	45.74
871.185	55.98
871.358	68.27
871.531	74.41
871.704	-46.42
871.877	53.93
872.05	2.73
872.223	82.6
872.396	-7.51
872.569	45.74
872.742	105.13
872.915	-5.46
873.088	107.18
873.261	21.16
873.434	84.65
873.607	-3.41
873.78	-32.08
873.953	-7.51
874.126	25.26
874.299	31.4
874.471	25.26
874.644	-58.71
874.817	51.88
874.99	82.6
875.163	-3.41
875.335	-3.41
875.508	-21.85
875.681	39.59
875.853	43.69
876.026	10.92
876.199	15.02
876.371	72.36
876.544	-1.37
876.717	-30.04
876.889	-11.61
877.062	29.35
877.234	-44.37
877.407	39.59
877.579	-21.85
877.752	25.26
877.924	53.93
878.097	27.31
878.269	23.21
878.442	0.68
878.614	33.45
878.786	82.6
878.959	10.92
879.131	-32.08
879.303	33.45
879.476	53.93
879.648	-36.18
879.82	49.83
879.993	-50.52
880.165	55.98
880.337	-13.65
880.509	31.4
880.681	2.73
880.854	41.64
881.026	23.21
881.198	74.41
881.37	-25.94
881.542	62.12
881.714	33.45
881.886	6.83
882.058	45.74
882.23	-15.7
882.402	-7.51
882.574	90.79
882.746	70.31
882.918	78.51
883.09	55.98
883.262	8.87
883.434	-11.61
883.606	64.17
883.778	31.4
883.95	27.31
884.122	-89.43
884.293	-5.46
884.465	-71
884.637	66.22
884.809	23.21
884.98	-40.28
885.152	-11.61
885.324	43.69
885.496	17.07
885.667	43.69
885.839	-50.52
886.011	25.26
886.182	27.31
886.354	76.46
886.525	-1.37
886.697	17.07
886.869	15.02
887.04	-3.41
887.212	31.4
887.383	72.36
887.555	43.69
887.726	39.59
887.897	12.97
888.069	-30.04
888.24	55.98
888.412	4.78
888.583	-27.99
888.754	86.7
888.926	-9.56
889.097	0.68
889.268	-13.65
889.44	72.36
889.611	-9.56
889.782	41.64
889.953	2.73
890.125	41.64
890.296	47.79
890.467	23.21
890.638	35.5
890.809	31.4
890.98	31.4
891.151	-48.47
891.323	41.64
891.494	31.4
891.665	43.69
891.836	43.69
892.007	51.88
892.178	-15.7
892.349	35.5
892.52	-9.56
892.691	2.73
892.862	-3.41
893.032	-48.47
893.203	8.87
893.374	-23.89
893.545	33.45
893.716	43.69
893.887	17.07
894.057	60.07
894.228	-15.7
894.399	19.11
894.57	47.79
894.74	55.98
894.911	94.89
895.082	4.78
895.253	45.74
895.423	51.88
895.594	-5.46
895.764	68.27
895.935	55.98
896.106	58.03
896.276	23.21
896.447	25.26
896.617	12.97
896.788	-13.65
896.958	-5.46
897.129	33.45
897.299	-32.08
897.47	19.11
897.64	51.88
897.81	29.35
897.981	-44.37
898.151	4.78
898.322	37.55
898.492	2.73
898.662	27.31
898.832	-17.75
899.003	10.92
899.173	-11.61
899.343	-1.37
899.513	68.27
