Data from USB4F104151__13__11-51-12-211.txt Node

Date: Fri Mar 14 11:51:12 EDT 2025
User: louis
Spectrometer: USB4F10415
Trigger mode: 4
Integration Time (sec): 2.000000E-2
Scans to average: 1
Electric dark correction enabled: true
Nonlinearity correction enabled: false
Boxcar width: 0
XAxis mode: Wavelengths
Number of Pixels in Spectrum: 3648
>>>>>Begin Spectral Data<<<<<
178.204	-10.07
178.424	-10.07
178.644	-10.07
178.864	-46.93
179.084	-67.41
179.304	59.56
179.524	-5.97
179.744	-28.5
179.964	37.03
180.184	-16.21
180.404	-12.12
180.624	-34.64
180.844	55.47
181.064	-30.55
181.283	-40.79
181.503	-53.08
181.723	69.8
181.943	-30.55
182.163	51.37
182.383	32.94
182.602	75.95
182.822	82.09
183.042	59.56
183.262	28.84
183.482	-10.07
183.701	-61.27
183.921	26.79
184.141	16.55
184.361	51.37
184.58	75.95
184.8	32.94
185.02	65.71
185.239	51.37
185.459	-73.56
185.679	28.84
185.898	-5.97
186.118	8.36
186.338	24.75
186.557	51.37
186.777	30.89
186.997	100.52
187.216	65.71
187.436	-36.69
187.655	69.8
187.875	125.1
188.095	73.9
188.314	47.27
188.534	24.75
188.753	39.08
188.973	20.65
189.192	30.89
189.412	51.37
189.631	4.27
189.851	61.61
190.07	80.04
190.29	12.46
190.509	39.08
190.729	59.56
190.948	88.23
191.168	80.04
191.387	80.04
191.607	82.09
191.826	75.95
192.045	69.8
192.265	-8.02
192.484	71.85
192.704	-8.02
192.923	-34.64
193.142	104.62
193.362	32.94
193.581	71.85
193.8	43.18
194.02	55.47
194.239	-38.74
194.458	39.08
194.678	37.03
194.897	-3.93
195.116	-1.88
195.335	-5.97
195.555	20.65
195.774	63.66
195.993	67.75
196.212	28.84
196.432	75.95
196.651	12.46
196.87	77.99
197.089	86.19
197.308	121
197.528	69.8
197.747	34.99
197.966	51.37
198.185	53.42
198.404	-10.07
198.623	39.08
198.842	12.46
199.062	80.04
199.281	61.61
199.5	14.51
199.719	86.19
199.938	43.18
200.157	63.66
200.376	55.47
200.595	88.23
200.814	-24.4
201.033	45.23
201.252	16.55
201.471	86.19
201.69	65.71
201.909	61.61
202.128	86.19
202.347	24.75
202.566	37.03
202.785	59.56
203.004	43.18
203.223	53.42
203.442	94.38
203.661	14.51
203.879	125.1
204.098	6.31
204.317	41.13
204.536	18.6
204.755	-28.5
204.974	47.27
205.193	6.31
205.411	100.52
205.63	88.23
205.849	71.85
206.068	20.65
206.287	34.99
206.505	45.23
206.724	59.56
206.943	-1.88
207.162	22.7
207.381	92.33
207.599	32.94
207.818	82.09
208.037	28.84
208.255	53.42
208.474	16.55
208.693	55.47
208.911	-22.36
209.13	14.51
209.349	61.61
209.567	133.29
209.786	63.66
210.005	10.41
210.223	39.08
210.442	-3.93
210.661	73.9
210.879	92.33
211.098	65.71
211.316	4.27
211.535	-16.21
211.753	77.99
211.972	59.56
212.191	37.03
212.409	28.84
212.628	51.37
212.846	-20.31
213.065	104.62
213.283	73.9
213.502	39.08
213.72	67.75
213.938	45.23
214.157	73.9
214.375	69.8
214.594	-26.45
214.812	59.56
215.031	90.28
215.249	-10.07
215.467	75.95
215.686	41.13
215.904	53.42
216.122	6.31
216.341	49.32
216.559	61.61
216.778	37.03
216.996	57.51
217.214	20.65
217.432	45.23
217.651	45.23
217.869	55.47
218.087	49.32
218.306	-42.84
218.524	82.09
218.742	34.99
218.96	71.85
219.179	2.22
219.397	63.66
219.615	63.66
219.833	30.89
220.051	4.27
220.27	102.57
220.488	49.32
220.706	69.8
220.924	51.37
221.142	26.79
221.36	4.27
221.578	53.42
221.796	37.03
222.015	98.47
222.233	75.95
222.451	145.58
222.669	77.99
222.887	20.65
223.105	-26.45
223.323	34.99
223.541	63.66
223.759	6.31
223.977	41.13
224.195	43.18
224.413	49.32
224.631	67.75
224.849	37.03
225.067	116.9
225.285	-20.31
225.503	-20.31
225.721	34.99
225.939	69.8
226.157	28.84
226.375	82.09
226.592	12.46
226.81	34.99
227.028	12.46
227.246	49.32
227.464	51.37
227.682	92.33
227.9	77.99
228.117	49.32
228.335	82.09
228.553	-10.07
228.771	47.27
228.989	32.94
229.206	22.7
229.424	88.23
229.642	90.28
229.86	-48.98
230.077	37.03
230.295	69.8
230.513	10.41
230.731	61.61
230.948	28.84
231.166	61.61
231.384	-1.88
231.601	-10.07
231.819	39.08
232.037	34.99
232.254	24.75
232.472	90.28
232.689	65.71
232.907	80.04
233.125	108.71
233.342	96.43
233.56	45.23
233.777	82.09
233.995	43.18
234.213	92.33
234.43	-5.97
234.648	22.7
234.865	73.9
235.083	20.65
235.3	-14.17
235.518	112.81
235.735	47.27
235.953	125.1
236.17	41.13
236.388	-3.93
236.605	-22.36
236.822	6.31
237.04	8.36
237.257	2.22
237.475	20.65
237.692	75.95
237.909	49.32
238.127	-1.88
238.344	28.84
238.562	80.04
238.779	16.55
238.996	32.94
239.214	8.36
239.431	22.7
239.648	-30.55
239.865	34.99
240.083	88.23
240.3	22.7
240.517	-10.07
240.735	84.14
240.952	98.47
241.169	161.96
241.386	4.27
241.603	18.6
241.821	61.61
242.038	114.86
242.255	75.95
242.472	-20.31
242.689	51.37
242.907	94.38
243.124	61.61
243.341	43.18
243.558	-12.12
243.775	71.85
243.992	53.42
244.209	106.67
244.426	67.75
244.643	90.28
244.86	32.94
245.078	100.52
245.295	80.04
245.512	71.85
245.729	32.94
245.946	10.41
246.163	-5.97
246.38	10.41
246.597	59.56
246.814	6.31
247.031	129.19
247.248	59.56
247.464	37.03
247.681	59.56
247.898	37.03
248.115	92.33
248.332	69.8
248.549	98.47
248.766	80.04
248.983	53.42
249.2	12.46
249.417	90.28
249.633	-44.88
249.85	49.32
250.067	26.79
250.284	30.89
250.501	133.29
250.717	26.79
250.934	49.32
251.151	67.75
251.368	90.28
251.585	49.32
251.801	61.61
252.018	71.85
252.235	108.71
252.451	47.27
252.668	59.56
252.885	30.89
253.102	47.27
253.318	53.42
253.535	51.37
253.752	14.51
253.968	26.79
254.185	-57.17
254.401	80.04
254.618	94.38
254.835	71.85
255.051	77.99
255.268	39.08
255.484	0.17
255.701	28.84
255.917	18.6
256.134	69.8
256.351	57.51
256.567	6.31
256.784	-12.12
257	-22.36
257.217	43.18
257.433	102.57
257.65	-16.21
257.866	10.41
258.082	94.38
258.299	41.13
258.515	80.04
258.732	59.56
258.948	39.08
259.165	20.65
259.381	39.08
259.597	22.7
259.814	102.57
260.03	75.95
260.246	30.89
260.463	65.71
260.679	32.94
260.895	22.7
261.112	143.53
261.328	22.7
261.544	30.89
261.761	20.65
261.977	47.27
262.193	24.75
262.409	127.14
262.626	59.56
262.842	82.09
263.058	4.27
263.274	133.29
263.49	75.95
263.707	16.55
263.923	100.52
264.139	8.36
264.355	65.71
264.571	39.08
264.787	116.9
265.004	88.23
265.22	16.55
265.436	45.23
265.652	51.37
265.868	98.47
266.084	43.18
266.3	10.41
266.516	49.32
266.732	34.99
266.948	34.99
267.164	-40.79
267.38	67.75
267.596	34.99
267.812	106.67
268.028	47.27
268.244	30.89
268.46	28.84
268.676	37.03
268.892	71.85
269.108	-1.88
269.324	92.33
269.54	6.31
269.756	37.03
269.972	-8.02
270.188	41.13
270.403	67.75
270.619	-3.93
270.835	41.13
271.051	39.08
271.267	10.41
271.483	59.56
271.698	26.79
271.914	24.75
272.13	-30.55
272.346	47.27
272.562	32.94
272.777	16.55
272.993	45.23
273.209	75.95
273.425	-1.88
273.64	-20.31
273.856	22.7
274.072	-22.36
274.287	67.75
274.503	63.66
274.719	82.09
274.934	92.33
275.15	-10.07
275.366	49.32
275.581	34.99
275.797	43.18
276.012	34.99
276.228	80.04
276.444	53.42
276.659	80.04
276.875	14.51
277.09	47.27
277.306	10.41
277.521	-5.97
277.737	28.84
277.952	59.56
278.168	8.36
278.383	28.84
278.599	69.8
278.814	69.8
279.03	-8.02
279.245	82.09
279.461	8.36
279.676	108.71
279.892	16.55
280.107	69.8
280.322	12.46
280.538	104.62
280.753	53.42
280.969	39.08
281.184	-10.07
281.399	-8.02
281.615	6.31
281.83	88.23
282.045	71.85
282.26	63.66
282.476	37.03
282.691	75.95
282.906	49.32
283.122	82.09
283.337	-38.74
283.552	90.28
283.767	26.79
283.983	-1.88
284.198	49.32
284.413	18.6
284.628	73.9
284.843	100.52
285.058	14.51
285.274	61.61
285.489	10.41
285.704	96.43
285.919	-16.21
286.134	75.95
286.349	32.94
286.564	55.47
286.779	4.27
286.995	45.23
287.21	80.04
287.425	43.18
287.64	32.94
287.855	98.47
288.07	22.7
288.285	94.38
288.5	94.38
288.715	69.8
288.93	77.99
289.145	26.79
289.36	16.55
289.575	55.47
289.79	20.65
290.004	37.03
290.219	-16.21
290.434	102.57
290.649	82.09
290.864	63.66
291.079	26.79
291.294	-28.5
291.509	39.08
291.724	2.22
291.938	-18.26
292.153	57.51
292.368	59.56
292.583	82.09
292.798	51.37
293.012	24.75
293.227	22.7
293.442	71.85
293.657	112.81
293.871	129.19
294.086	-59.22
294.301	75.95
294.516	67.75
294.73	-5.97
294.945	-63.32
295.16	24.75
295.374	24.75
295.589	92.33
295.804	63.66
296.018	84.14
296.233	59.56
296.447	94.38
296.662	-14.17
296.877	98.47
297.091	106.67
297.306	77.99
297.52	41.13
297.735	100.52
297.949	26.79
298.164	100.52
298.378	39.08
298.593	24.75
298.807	28.84
299.022	65.71
299.236	65.71
299.451	30.89
299.665	77.99
299.88	39.08
300.094	51.37
300.309	47.27
300.523	57.51
300.737	39.08
300.952	43.18
301.166	20.65
301.381	45.23
301.595	-18.26
301.809	49.32
302.024	55.47
302.238	-16.21
302.452	102.57
302.667	45.23
302.881	49.32
303.095	73.9
303.309	45.23
303.524	75.95
303.738	-36.69
303.952	14.51
304.166	116.9
304.381	12.46
304.595	57.51
304.809	2.22
305.023	143.53
305.237	71.85
305.452	24.75
305.666	104.62
305.88	137.38
306.094	49.32
306.308	8.36
306.522	114.86
306.736	59.56
306.95	45.23
307.164	41.13
307.379	51.37
307.593	59.56
307.807	59.56
308.021	92.33
308.235	-3.93
308.449	63.66
308.663	4.27
308.877	47.27
309.091	-12.12
309.305	71.85
309.519	-5.97
309.733	67.75
309.947	14.51
310.161	57.51
310.374	100.52
310.588	-14.17
310.802	-22.36
311.016	16.55
311.23	-30.55
311.444	24.75
311.658	4.27
311.872	49.32
312.085	18.6
312.299	82.09
312.513	63.66
312.727	12.46
312.941	59.56
313.154	108.71
313.368	26.79
313.582	51.37
313.796	82.09
314.009	80.04
314.223	0.17
314.437	84.14
314.651	51.37
314.864	10.41
315.078	104.62
315.292	18.6
315.505	67.75
315.719	39.08
315.933	53.42
316.146	53.42
316.36	65.71
316.573	49.32
316.787	59.56
317.001	-1.88
317.214	114.86
317.428	63.66
317.641	-34.64
317.855	22.7
318.068	30.89
318.282	39.08
318.495	0.17
318.709	84.14
318.922	14.51
319.136	47.27
319.349	123.05
319.563	37.03
319.776	45.23
319.99	65.71
320.203	90.28
320.417	24.75
320.63	135.34
320.843	12.46
321.057	49.32
321.27	24.75
321.483	10.41
321.697	102.57
321.91	63.66
322.124	34.99
322.337	102.57
322.55	43.18
322.763	137.38
322.977	30.89
323.19	61.61
323.403	43.18
323.617	37.03
323.83	100.52
324.043	77.99
324.256	57.51
324.469	37.03
324.683	123.05
324.896	49.32
325.109	47.27
325.322	26.79
325.535	73.9
325.748	32.94
325.962	82.09
326.175	100.52
326.388	6.31
326.601	82.09
326.814	16.55
327.027	73.9
327.24	69.8
327.453	-24.4
327.666	104.62
327.879	80.04
328.092	6.31
328.305	75.95
328.518	94.38
328.731	6.31
328.944	96.43
329.157	43.18
329.37	47.27
329.583	84.14
329.796	75.95
330.009	12.46
330.222	18.6
330.435	43.18
330.648	67.75
330.861	65.71
331.073	18.6
331.286	77.99
331.499	24.75
331.712	37.03
331.925	55.47
332.138	34.99
332.35	135.34
332.563	10.41
332.776	53.42
332.989	34.99
333.202	0.17
333.414	34.99
333.627	77.99
333.84	-12.12
334.053	30.89
334.265	12.46
334.478	22.7
334.691	106.67
334.903	67.75
335.116	-12.12
335.329	55.47
335.541	-14.17
335.754	106.67
335.966	6.31
336.179	32.94
336.392	80.04
336.604	49.32
336.817	73.9
337.029	86.19
337.242	69.8
337.454	-30.55
337.667	94.38
337.88	71.85
338.092	20.65
338.305	90.28
338.517	14.51
338.729	106.67
338.942	69.8
339.154	-8.02
339.367	92.33
339.579	32.94
339.792	26.79
340.004	84.14
340.217	14.51
340.429	82.09
340.641	28.84
340.854	16.55
341.066	-5.97
341.278	129.19
341.491	96.43
341.703	84.14
341.915	26.79
342.128	63.66
342.34	-5.97
342.552	22.7
342.764	90.28
342.977	100.52
343.189	39.08
343.401	49.32
343.613	-1.88
343.826	137.38
344.038	20.65
344.25	47.27
344.462	63.66
344.674	8.36
344.886	77.99
345.099	51.37
345.311	51.37
345.523	108.71
345.735	-30.55
345.947	49.32
346.159	-10.07
346.371	61.61
346.583	12.46
346.795	80.04
347.007	10.41
347.219	71.85
347.431	24.75
347.643	43.18
347.855	102.57
348.067	100.52
348.279	2.22
348.491	14.51
348.703	2.22
348.915	57.51
349.127	26.79
349.339	43.18
349.551	49.32
349.763	34.99
349.975	67.75
350.187	123.05
350.399	28.84
350.61	34.99
350.822	75.95
351.034	77.99
351.246	34.99
351.458	67.75
351.669	63.66
351.881	14.51
352.093	59.56
352.305	61.61
352.517	18.6
352.728	88.23
352.94	20.65
353.152	96.43
353.363	14.51
353.575	57.51
353.787	121
353.999	32.94
354.21	108.71
354.422	8.36
354.633	47.27
354.845	22.7
355.057	82.09
355.268	51.37
355.48	4.27
355.692	10.41
355.903	8.36
356.115	61.61
356.326	49.32
356.538	118.95
356.749	6.31
356.961	57.51
357.172	-22.36
357.384	73.9
357.595	73.9
357.807	57.51
358.018	80.04
358.23	-12.12
358.441	28.84
358.653	92.33
358.864	59.56
359.075	98.47
359.287	20.65
359.498	102.57
359.709	20.65
359.921	59.56
360.132	71.85
360.344	6.31
360.555	32.94
360.766	80.04
360.977	34.99
361.189	73.9
361.4	28.84
361.611	57.51
361.823	8.36
362.034	80.04
362.245	-79.7
362.456	80.04
362.667	73.9
362.879	16.55
363.09	39.08
363.301	-1.88
363.512	12.46
363.723	12.46
363.935	20.65
364.146	118.95
364.357	2.22
364.568	37.03
364.779	63.66
364.99	104.62
365.201	59.56
365.412	80.04
365.623	45.23
365.834	41.13
366.045	32.94
366.256	16.55
366.467	71.85
366.678	47.27
366.889	12.46
367.1	100.52
367.311	65.71
367.522	86.19
367.733	51.37
367.944	86.19
368.155	-10.07
368.366	-16.21
368.577	51.37
368.788	77.99
368.999	-34.64
369.209	37.03
369.42	125.1
369.631	53.42
369.842	88.23
370.053	41.13
370.264	57.51
370.474	82.09
370.685	96.43
370.896	2.22
371.107	45.23
371.317	51.37
371.528	37.03
371.739	96.43
371.95	114.86
372.16	77.99
372.371	16.55
372.582	55.47
372.792	45.23
373.003	37.03
373.214	12.46
373.424	86.19
373.635	102.57
373.846	112.81
374.056	-5.97
374.267	80.04
374.477	100.52
374.688	43.18
374.898	80.04
375.109	16.55
375.319	92.33
375.53	112.81
375.74	34.99
375.951	80.04
376.161	-55.12
376.372	26.79
376.582	-1.88
376.793	18.6
377.003	-40.79
377.214	39.08
377.424	14.51
377.635	47.27
377.845	41.13
378.055	45.23
378.266	73.9
378.476	39.08
378.686	6.31
378.897	8.36
379.107	37.03
379.317	24.75
379.528	14.51
379.738	65.71
379.948	6.31
380.158	49.32
380.369	116.9
380.579	92.33
380.789	-12.12
380.999	28.84
381.21	55.47
381.42	155.82
381.63	12.46
381.84	80.04
382.05	100.52
382.261	53.42
382.471	153.77
382.681	43.18
382.891	157.86
383.101	82.09
383.311	53.42
383.521	69.8
383.731	12.46
383.941	116.9
384.151	57.51
384.361	75.95
384.571	26.79
384.781	4.27
384.991	71.85
385.201	129.19
385.411	80.04
385.621	84.14
385.831	53.42
386.041	94.38
386.251	77.99
386.461	12.46
386.671	53.42
386.881	59.56
387.091	59.56
387.301	121
387.511	49.32
387.72	30.89
387.93	61.61
388.14	2.22
388.35	45.23
388.56	84.14
388.769	149.67
388.979	73.9
389.189	82.09
389.399	49.32
389.609	53.42
389.818	96.43
390.028	106.67
390.238	14.51
390.447	-8.02
390.657	82.09
390.867	28.84
391.076	59.56
391.286	8.36
391.496	127.14
391.705	-12.12
391.915	32.94
392.125	43.18
392.334	108.71
392.544	75.95
392.753	57.51
392.963	61.61
393.172	80.04
393.382	73.9
393.591	55.47
393.801	125.1
394.01	104.62
394.22	80.04
394.429	65.71
394.639	65.71
394.848	80.04
395.058	51.37
395.267	57.51
395.477	114.86
395.686	80.04
395.895	129.19
396.105	2.22
396.314	108.71
396.524	65.71
396.733	65.71
396.942	55.47
397.152	80.04
397.361	84.14
397.57	51.37
397.78	147.62
397.989	37.03
398.198	108.71
398.407	157.86
398.617	26.79
398.826	164.01
399.035	77.99
399.244	96.43
399.453	82.09
399.663	94.38
399.872	94.38
400.081	80.04
400.29	147.62
400.499	90.28
400.708	108.71
400.917	86.19
401.127	137.38
401.336	71.85
401.545	121
401.754	102.57
401.963	57.51
402.172	63.66
402.381	112.81
402.59	129.19
402.799	125.1
403.008	116.9
403.217	94.38
403.426	98.47
403.635	43.18
403.844	71.85
404.053	106.67
404.262	104.62
404.471	121
404.68	96.43
404.888	123.05
405.097	53.42
405.306	159.91
405.515	125.1
405.724	200.87
405.933	90.28
406.142	94.38
406.35	155.82
406.559	110.76
406.768	170.15
406.977	182.44
407.185	143.53
407.394	133.29
407.603	121
407.812	143.53
408.02	225.45
408.229	215.21
408.438	145.58
408.646	141.48
408.855	202.92
409.064	186.54
409.272	127.14
409.481	231.59
409.69	161.96
409.898	194.73
410.107	215.21
410.315	241.83
410.524	258.21
410.733	229.54
410.941	239.78
411.15	272.55
411.358	307.37
411.567	266.41
411.775	276.65
411.984	381.09
412.192	327.85
412.401	336.04
412.609	374.95
412.818	420
413.026	333.99
413.234	352.42
413.443	415.91
413.651	360.61
413.86	452.77
414.068	497.83
414.276	454.82
414.485	415.91
414.693	460.96
414.901	542.88
415.11	473.25
415.318	446.63
415.526	460.96
415.734	485.54
415.943	520.35
416.151	567.46
416.359	528.55
416.567	655.52
416.776	655.52
416.984	639.14
417.192	669.86
417.4	710.82
417.608	682.14
417.817	792.73
418.025	747.68
418.233	794.78
418.441	823.45
418.649	833.69
418.857	827.55
419.065	841.89
419.273	872.61
419.481	893.09
419.689	936.09
419.897	1061.02
420.105	1054.87
420.313	1063.07
420.521	1169.56
420.729	1085.59
420.937	1124.51
421.145	1245.34
421.353	1374.36
421.561	1323.16
421.769	1357.97
421.977	1413.27
422.185	1317.01
422.393	1480.85
422.601	1669.27
422.809	1630.35
423.017	1493.14
423.224	1722.51
423.432	1691.79
423.64	1796.24
423.848	1869.97
424.056	1806.48
424.263	1962.12
424.471	1941.65
424.679	1986.7
424.887	2148.49
425.094	2244.74
425.302	2181.26
425.51	2275.46
425.718	2201.74
425.925	2412.68
426.133	2480.26
426.341	2447.49
426.548	2648.19
426.756	2652.29
426.964	2697.35
427.171	2869.37
427.379	2812.03
427.586	2934.91
427.794	3119.23
428.001	3197.05
428.209	3389.56
428.417	3217.53
428.624	3457.14
428.832	3543.16
429.039	3489.91
429.247	3403.89
429.454	3840.11
429.662	4132.97
429.869	3829.87
430.076	4083.82
430.284	3913.84
430.491	4087.92
430.699	4274.28
430.906	4192.36
431.114	4317.29
431.321	4507.75
431.528	4649.06
431.736	4950.11
431.943	5175.39
432.15	5087.33
432.358	4980.83
432.565	5359.7
432.772	5320.79
432.979	5632.08
433.187	5531.73
433.394	5779.54
433.601	6015.05
433.808	6154.32
434.016	6195.28
434.223	6488.14
434.43	6719.56
434.637	6729.8
434.844	7028.8
435.052	7106.62
435.259	6950.98
435.466	7118.91
435.673	7157.82
435.88	7518.26
436.087	8028.21
436.294	8071.22
436.501	7774.26
436.708	8009.78
436.915	8181.81
437.122	8601.64
437.329	8761.38
437.537	8796.2
437.743	8988.71
437.95	8957.99
438.157	9431.07
438.364	9629.72
438.571	9680.92
438.778	9793.56
438.985	10555.4
439.192	10422.28
439.399	10627.08
439.606	10371.08
439.813	10956.8
440.02	11454.46
440.227	11233.28
440.433	11382.78
440.64	11671.54
440.847	11546.62
441.054	11905.01
441.261	12722.15
441.467	12414.96
441.674	12679.15
441.881	13037.54
442.088	13299.68
442.294	13207.52
442.501	13440.99
442.708	13723.61
442.914	14116.82
443.121	14974.92
443.328	14477.26
443.534	15310.79
443.741	15065.03
443.948	14901.19
444.154	15867.83
444.361	15718.33
444.568	16082.87
444.774	15638.46
444.981	16007.09
445.187	16584.62
445.394	17125.29
445.6	16945.06
445.807	18595.73
446.013	17678.24
446.22	18292.63
446.426	18829.2
446.633	19081.1
446.839	19709.82
447.046	19158.92
447.252	19877.76
447.459	19879.8
447.665	19908.47
447.871	20582.26
448.078	21518.18
448.284	20848.49
448.491	21227.37
448.697	21735.26
448.903	22310.74
449.11	22394.71
449.316	21913.44
449.522	22505.3
449.728	23134.03
449.935	23312.2
450.141	23134.03
450.347	23719.74
450.553	22816.59
450.76	23406.41
450.966	24170.3
451.172	23709.5
451.378	24401.72
451.584	23940.93
451.791	24387.38
451.997	24327.99
452.203	24698.67
452.409	24995.63
452.615	24817.46
452.821	23410.5
453.027	23129.93
453.233	24303.42
453.44	23613.25
453.646	24037.18
453.852	23926.59
454.058	24719.15
454.264	23881.53
454.47	24399.67
454.676	23727.94
454.882	24291.13
455.088	22267.73
455.294	22859.6
455.5	22789.97
455.705	23344.97
455.911	21983.07
456.117	21753.69
456.323	21561.19
456.529	20549.49
456.735	21239.65
456.941	20930.41
457.147	20649.84
457.352	19621.76
457.558	19541.89
457.764	19586.94
457.97	19201.93
458.176	18878.35
458.381	18659.21
458.587	17786.78
458.793	18026.39
458.999	16897.96
459.204	17844.12
459.41	17366.95
459.616	16279.47
459.821	16390.06
460.027	16809.9
460.233	16007.09
460.438	15382.46
460.644	15546.3
460.85	14903.24
461.055	14563.28
461.261	14589.9
461.466	13527
461.672	13139.94
461.878	14036.95
462.083	13070.31
462.289	12804.07
462.494	12734.44
462.7	11958.26
462.905	11806.71
463.111	12173.3
463.316	12298.22
463.522	11931.64
463.727	12218.35
463.932	11966.45
464.138	11884.53
464.343	11995.12
464.549	11612.15
464.754	11874.29
464.959	11665.4
465.165	11593.72
465.37	11311.1
465.575	10835.97
465.781	11409.4
465.986	11519.99
466.191	11075.59
466.397	10825.73
466.602	10240.01
466.807	10711.05
467.012	10729.48
467.218	10665.99
467.423	10676.23
467.628	10631.18
467.833	11016.19
468.038	10887.17
468.244	10274.83
468.449	10821.64
468.654	10457.1
468.859	10405.9
469.064	10348.56
469.269	9924.63
469.474	9775.13
469.679	10162.19
469.885	9748.5
470.09	9916.44
470.295	9947.15
470.5	9615.38
470.705	9689.11
470.91	9564.18
471.115	9166.88
471.32	9498.65
471.525	9541.66
471.73	9021.47
471.935	9244.7
472.139	8867.88
472.344	9125.92
472.549	9048.1
472.754	9078.82
472.959	8902.69
473.164	8605.74
473.369	8480.81
473.574	8740.9
473.778	8544.3
473.983	8517.67
474.188	8699.94
474.393	8122.41
474.598	8079.41
474.802	8130.61
475.007	7839.8
475.212	8022.06
475.417	7655.48
475.621	7772.21
475.826	7796.79
476.031	7413.82
476.235	7639.09
476.44	7626.81
476.645	7266.36
476.849	7268.41
477.054	7370.81
477.259	7194.68
477.463	7266.36
477.668	7032.9
477.872	7192.64
478.077	7133.25
478.282	6881.35
478.486	6967.36
478.691	6787.14
478.895	6867.01
479.1	6850.63
479.304	6748.23
479.509	6576.2
479.713	6910.02
479.918	6565.96
480.122	6277.19
480.326	6549.57
480.531	6516.81
480.735	6371.4
480.94	6453.32
481.144	6549.57
481.348	6262.86
481.553	6412.36
481.757	6232.14
481.961	6346.83
482.166	6471.75
482.37	6391.88
482.574	6207.56
482.778	6301.77
482.983	6318.15
483.187	6416.46
483.391	6426.7
483.595	6271.05
483.8	6213.71
484.004	6199.37
484.208	6438.98
484.412	6338.63
484.616	6449.22
484.821	6299.72
485.025	6283.34
485.229	6379.59
485.433	6041.68
485.637	6195.28
485.841	6166.6
486.045	6180.94
486.249	6365.26
486.453	6058.06
486.657	6209.61
486.861	6416.46
487.065	6025.29
487.269	6469.7
487.473	6066.25
487.677	6203.47
487.881	6242.38
488.085	6307.91
488.289	6430.79
488.493	6207.56
488.697	6334.54
488.901	6297.67
489.105	6461.51
489.309	6346.83
489.512	6316.11
489.716	6422.6
489.92	6211.66
490.124	6301.77
490.328	6369.35
490.531	6471.75
490.735	6453.32
490.939	6686.79
491.143	6422.6
491.346	6461.51
491.55	6680.64
491.754	6531.14
491.958	6713.41
492.161	6580.29
492.365	6680.64
492.569	6664.26
492.772	6686.79
492.976	6639.69
493.18	6760.52
493.383	6707.27
493.587	6772.8
493.79	6987.84
493.994	7030.85
494.197	7004.22
494.401	7002.18
494.605	6930.5
494.808	7247.93
495.012	7053.38
495.215	7266.36
495.419	7094.33
495.622	7090.24
495.825	7405.63
496.029	7442.49
496.232	7467.06
496.436	7432.25
496.639	7688.25
496.843	7514.17
497.046	7690.29
497.249	7731.25
497.453	7874.61
497.656	7888.95
497.859	7952.43
498.063	8118.32
498.266	8249.39
498.469	8083.5
498.673	8155.18
498.876	8316.97
499.079	8392.75
499.282	8431.66
499.485	8628.26
499.689	8597.54
499.892	8747.05
500.095	8865.83
500.298	9099.3
500.501	9084.96
500.705	9125.92
500.908	9306.14
501.111	9244.7
501.314	9363.48
501.517	9476.12
501.72	9656.34
501.923	9596.95
502.126	9811.99
502.329	10078.22
502.532	10074.13
502.735	10094.61
502.938	10309.65
503.141	10416.14
503.344	10381.32
503.547	10518.54
503.75	10608.65
503.953	10811.4
504.156	10938.37
504.359	11005.95
504.562	11159.55
504.765	11282.43
504.968	11483.13
505.17	11593.72
505.373	11593.72
505.576	11851.77
505.779	12017.65
505.982	11950.07
506.185	12255.22
506.387	12130.29
506.59	12423.15
506.793	12580.84
506.996	12679.15
507.198	12834.79
507.401	12984.29
507.604	12994.53
507.807	13246.43
508.009	13322.21
508.212	13402.08
508.415	13682.65
508.617	13826.01
508.82	13690.84
509.022	13721.56
509.225	14249.94
509.428	14206.93
509.63	14499.79
509.833	14475.21
510.035	14735.31
510.238	14548.94
510.44	15095.75
510.643	15345.6
510.845	15257.54
511.048	15181.76
511.25	15540.16
511.453	15280.07
511.655	16115.64
511.858	15861.69
512.06	16068.53
512.262	16129.97
512.465	16103.35
512.667	16717.74
512.87	16258.99
513.072	16799.66
513.274	17125.29
513.477	17147.81
513.679	17551.26
513.881	17565.6
514.084	17749.92
514.286	17579.93
514.488	17717.15
514.69	18190.23
514.893	18360.21
515.095	18476.94
515.297	18825.1
515.499	18925.45
515.701	18710.41
515.904	19173.25
516.106	19179.4
516.308	19478.4
516.51	19662.72
516.712	19756.93
516.914	19838.84
517.116	20318.07
517.318	20309.88
517.52	20397.94
517.722	20494.19
517.925	20631.41
518.127	21182.31
518.329	21133.16
518.531	21215.08
518.733	21849.95
518.935	21731.17
519.136	21899.1
519.338	21987.16
519.54	22261.59
519.742	22497.11
519.944	22480.72
520.146	22732.62
520.348	23062.35
520.55	23220.04
520.752	23232.33
520.954	23752.51
521.155	23646.02
521.357	23938.88
521.559	24057.66
521.761	24334.14
521.963	24262.46
522.164	24790.83
522.366	24457.01
522.568	24715.06
522.77	25151.27
522.971	25524.01
523.173	25163.56
523.375	25796.39
523.576	25663.27
523.778	25595.68
523.98	26201.88
524.181	26457.88
524.383	26136.35
524.584	26363.67
524.786	26607.38
524.988	26378.01
525.189	26971.92
525.391	26961.68
525.592	27154.19
525.794	27021.07
525.995	27172.62
526.197	27496.2
526.398	27338.51
526.6	27543.3
526.801	27746.05
527.003	27789.06
527.204	27827.97
527.406	28188.41
527.607	28147.45
527.808	28462.84
528.01	28200.7
528.211	28366.59
528.412	28966.64
528.614	28651.25
528.815	28753.65
529.016	28886.77
529.218	29079.28
529.419	28679.93
529.62	29290.22
529.822	29112.05
530.023	29153.01
530.224	29286.12
530.425	29331.18
530.626	29322.99
530.828	29226.73
531.029	29765.35
531.23	29386.47
531.431	29112.05
531.632	29478.63
531.833	29560.55
532.035	29886.18
532.236	29861.6
532.437	30068.45
532.638	29931.23
532.839	29980.39
533.04	29957.86
533.241	29578.98
533.442	30521.05
533.643	30029.54
533.844	30318.3
534.045	30080.74
534.246	30088.93
534.447	30199.52
534.648	30269.15
534.849	30414.55
535.05	29910.75
535.251	29904.61
535.451	30559.96
535.652	30211.81
535.853	29837.03
536.054	30379.74
536.255	30121.7
536.456	29966.05
536.657	30404.31
536.857	30090.98
537.058	30220
537.259	30342.88
537.46	30252.77
537.66	30332.64
537.861	30471.9
538.062	30217.95
538.263	30564.06
538.463	30600.92
538.664	30617.3
538.865	30445.27
539.065	30490.33
539.266	30181.09
539.466	30510.81
539.667	29888.23
539.868	30555.86
540.068	30355.16
540.269	30193.37
540.469	29953.76
540.67	30158.56
540.87	30535.38
541.071	30547.67
541.271	30564.06
541.472	30400.22
541.672	30226.14
541.873	30217.95
542.073	30088.93
542.274	30768.85
542.474	30086.88
542.675	30322.4
542.875	30211.81
543.075	30355.16
543.276	30045.92
543.476	30564.06
543.676	30023.39
543.877	30322.4
544.077	30176.99
544.277	30183.13
544.478	30293.72
544.678	30248.67
544.878	30105.31
545.078	30328.54
545.279	30176.99
545.479	29810.4
545.679	30172.89
545.879	30377.69
546.079	30263
546.28	30068.45
546.48	29970.15
546.68	30478.04
546.88	30310.11
547.08	30199.52
547.28	30054.11
547.48	30203.61
547.68	30023.39
547.88	29912.8
548.081	30410.46
548.281	30281.44
548.481	30031.58
548.681	30269.15
548.881	30197.47
549.081	30475.99
549.28	29746.92
549.48	30414.55
549.68	29996.77
549.88	30256.86
550.08	29550.31
550.28	30131.93
550.48	29949.67
550.68	30109.41
550.88	30056.16
551.08	30125.79
551.279	30228.19
551.479	29955.81
551.679	30195.42
551.879	30078.69
552.079	30123.74
552.278	29832.93
552.478	30140.13
552.678	30099.17
552.878	29822.69
553.077	29785.83
553.277	29552.36
553.477	30093.02
553.676	29828.84
553.876	29617.89
554.076	29943.52
554.275	29781.73
554.475	29200.11
554.674	30099.17
554.874	29867.75
555.074	29865.7
555.273	29845.22
555.473	29673.19
555.672	29511.4
555.872	29482.73
556.071	29722.34
556.271	29464.3
556.47	29271.79
556.67	29265.64
556.869	29505.26
557.068	29351.66
557.268	28972.78
557.467	29529.83
557.667	29302.51
557.866	29423.34
558.065	29318.89
558.265	29107.95
558.464	29224.68
558.663	29648.61
558.863	28811
559.062	29521.64
559.261	28770.04
559.461	28993.26
559.66	28942.07
559.859	28878.58
560.058	28884.72
560.258	28647.16
560.457	28843.76
560.656	28948.21
560.855	28647.16
561.054	28569.33
561.253	28364.54
561.453	28303.1
561.652	28598.01
561.851	28630.77
562.05	28483.32
562.249	28239.61
562.448	28434.17
562.647	28344.06
562.846	28505.85
563.045	28178.17
563.244	28034.81
563.443	28178.17
563.642	27844.35
563.841	28045.05
564.04	27844.35
564.239	28184.32
564.438	27799.3
564.637	27674.37
564.836	28020.48
565.035	27682.56
565.234	27860.74
565.432	27621.13
565.631	27533.06
565.83	27811.59
566.029	27463.43
566.228	27227.92
566.427	27176.72
566.625	27176.72
566.824	27098.89
567.023	27084.56
567.222	26558.23
567.42	27012.88
567.619	26943.25
567.818	27051.79
568.016	27006.73
568.215	26947.34
568.414	26220.31
568.612	27049.74
568.811	26638.1
569.01	26416.92
569.208	26119.96
569.407	26509.08
569.605	26375.96
569.804	26464.02
570.002	26177.31
570.201	25853.73
570.4	25671.46
570.598	25431.85
570.797	25507.62
570.995	25661.22
571.193	25628.45
571.392	25714.47
571.59	25452.33
571.789	25632.55
571.987	25290.54
572.186	25255.72
572.384	25186.09
572.582	25241.39
572.781	25579.3
572.979	24817.46
573.177	25206.57
573.376	25239.34
573.574	25085.74
573.772	25134.89
573.971	24815.41
574.169	24747.83
574.367	24411.96
574.565	24852.27
574.763	24395.57
574.962	24250.17
575.16	24241.98
575.358	24377.14
575.556	24049.47
575.754	24536.88
575.952	23869.25
576.151	23854.91
576.349	23760.7
576.547	23877.44
576.745	23768.9
576.943	23867.2
577.141	23842.62
577.339	23715.65
577.537	23623.49
577.735	23615.3
577.933	23758.66
578.131	23547.72
578.329	23131.98
578.527	23406.41
578.725	23240.52
578.923	23457.6
579.121	23353.16
579.319	23011.15
579.516	23097.16
579.714	22972.24
579.912	22816.59
580.11	22816.59
580.308	22710.1
580.506	22753.1
580.704	22703.95
580.901	22619.99
581.099	22904.65
581.297	22417.24
581.495	22490.96
581.692	22359.89
581.89	22175.58
582.088	22533.97
582.285	22064.99
582.483	22482.77
582.681	22060.89
582.878	22024.03
583.076	21690.21
583.274	22202.2
583.471	21737.31
583.669	21845.85
583.866	21659.49
584.064	22038.36
584.262	21503.84
584.459	21428.07
584.657	21720.93
584.854	21522.27
585.052	21297
585.249	21309.29
585.447	21317.48
585.644	21041
585.841	20864.88
586.039	21301.09
586.236	20924.27
586.434	21108.58
586.631	20711.28
586.828	20873.07
587.026	20850.54
587.223	20758.38
587.42	20608.88
587.618	20723.57
587.815	20449.14
588.012	20696.94
588.21	20408.18
588.407	20621.17
588.604	20156.28
588.801	20203.38
588.999	20309.88
589.196	20006.78
589.393	20240.25
589.59	19890.04
589.787	19777.4
589.984	19971.96
590.182	19640.19
590.379	19806.08
590.576	19763.07
590.773	19718.01
590.97	19525.5
591.167	19541.89
591.364	19601.28
591.561	19335.04
591.758	19095.43
591.955	19324.8
592.152	19507.07
592.349	19179.4
592.546	19220.36
592.743	19269.51
592.94	18818.96
593.137	18935.69
593.334	19046.28
593.531	18718.61
593.727	18970.51
593.924	18644.88
594.121	18843.53
594.318	18671.5
594.515	18593.68
594.712	18753.42
594.908	18425.75
595.105	18519.95
595.302	18253.72
595.499	18536.34
595.696	18007.96
595.892	18194.33
596.089	18100.12
596.286	18141.08
596.482	18079.64
596.679	18089.88
596.876	17936.28
597.072	17928.09
597.269	17758.11
597.466	17930.14
597.662	17735.58
597.859	17887.13
598.055	17930.14
598.252	17641.37
598.448	17762.2
598.645	17504.16
598.841	17317.79
599.038	17506.21
599.234	17530.78
599.431	17194.92
599.627	17180.58
599.824	17301.41
600.02	17196.96
600.217	17397.67
600.413	17031.08
600.609	17319.84
600.806	16975.78
601.002	16981.93
601.198	16635.82
601.395	16598.96
601.591	16760.75
601.787	16846.76
601.984	16392.11
602.18	16555.95
602.376	16623.53
602.572	16455.6
602.769	16461.74
602.965	16226.23
603.161	16418.74
603.357	16207.8
603.553	16129.97
603.75	16213.94
603.946	16197.56
604.142	16422.83
604.338	15888.31
604.534	16013.24
604.73	15980.47
604.926	15796.15
605.122	15896.5
605.318	15843.26
605.514	15804.35
605.71	15521.73
605.906	15706.04
606.102	15695.8
606.298	15640.51
606.494	15687.61
606.69	15773.63
606.886	15585.21
607.082	15245.25
607.278	15304.64
607.474	15288.26
607.67	15357.89
607.866	15046.6
608.062	15192
608.257	15333.31
608.453	15222.72
608.649	15192
608.845	14911.43
609.041	15126.47
609.236	15105.99
609.432	15173.57
609.628	15034.31
609.824	14669.77
610.019	14936.01
610.215	14802.89
610.411	14997.45
610.606	14618.57
610.802	15048.65
610.998	14555.08
611.193	14579.66
611.389	14866.38
611.584	14708.68
611.78	14491.6
611.976	14706.63
612.171	14467.02
612.367	14407.63
612.562	14729.16
612.758	14346.19
612.953	14215.12
613.149	14211.03
613.344	14356.43
613.539	14487.5
613.735	14403.53
613.93	14471.12
614.126	14120.92
614.321	14350.29
614.517	14282.7
614.712	14397.39
614.907	14184.4
615.103	14208.98
615.298	13834.2
615.493	14196.69
615.688	13832.15
615.884	14096.34
616.079	14059.48
616.274	13946.84
616.47	14073.81
616.665	14125.01
616.86	13764.57
617.055	13821.91
617.25	13815.77
617.445	13985.75
617.641	13527
617.836	13891.54
618.031	13348.83
618.226	13809.62
618.421	13651.93
618.616	13651.93
618.811	13281.25
619.006	13709.27
619.201	13375.45
619.396	13557.72
619.591	13318.11
619.786	13199.33
619.981	12875.75
620.176	13139.94
620.371	12836.84
620.566	13012.96
620.761	12879.85
620.956	13010.92
621.151	12785.64
621.346	12627.95
621.541	12691.43
621.735	12808.17
621.93	12660.71
622.125	12451.82
622.32	12492.78
622.515	12406.77
622.709	12228.59
622.904	12427.25
623.099	12105.71
623.294	12378.09
623.488	12140.53
623.683	12095.47
623.878	11870.2
624.072	11806.71
624.267	11726.84
624.462	11636.73
624.656	11833.33
624.851	11628.54
625.046	11468.8
625.24	11667.45
625.435	11401.21
625.629	11452.41
625.824	11413.5
626.018	11421.69
626.213	11091.97
626.407	11229.18
626.602	11190.27
626.796	11003.91
626.991	10995.71
627.185	11089.92
627.38	10891.27
627.574	10852.36
627.768	10571.79
627.963	10573.83
628.157	10471.43
628.352	10653.7
628.546	10256.4
628.74	10401.8
628.935	10395.66
629.129	10315.79
629.323	10321.93
629.517	10319.89
629.712	10100.75
629.906	10317.84
630.1	10151.95
630.294	10098.7
630.489	10211.34
630.683	9981.97
630.877	9836.56
631.071	9635.86
631.265	9871.38
631.459	9517.08
631.653	9615.38
631.848	9762.84
632.042	9566.23
632.236	9832.47
632.43	9480.22
632.624	9560.09
632.818	9379.87
633.012	9134.11
633.206	9300
633.4	9226.27
633.594	9166.88
633.788	9197.6
633.982	9213.98
634.176	9242.65
634.369	9168.93
634.563	9123.87
634.757	9017.38
634.951	9011.23
635.145	9035.81
635.339	8917.03
635.533	8783.91
635.726	8730.66
635.92	8536.1
636.114	8564.78
636.308	8609.83
636.501	8509.48
636.695	8390.7
636.889	8445.99
637.083	8185.9
637.276	8374.31
637.47	8300.59
637.664	8284.2
637.857	8304.68
638.051	8259.63
638.244	8218.67
638.438	8007.73
638.632	7983.15
638.825	7940.15
639.019	7979.06
639.212	7850.03
639.406	7708.73
639.599	7739.44
639.793	7856.18
639.986	7639.09
640.18	7817.27
640.373	7614.52
640.567	7456.82
640.76	7647.29
640.954	7563.32
641.147	7503.93
641.34	7604.28
641.534	7538.74
641.727	7589.94
641.92	7364.67
642.114	7358.52
642.307	7258.17
642.5	7215.16
642.694	7223.36
642.887	7235.64
643.08	7153.73
643.273	7135.29
643.467	6989.89
643.66	7166.01
643.853	7010.37
644.046	6867.01
644.239	6899.78
644.432	6885.44
644.626	6787.14
644.819	6881.35
645.012	6789.19
645.205	6686.79
645.398	6596.68
645.591	6568.01
645.784	6654.02
645.977	6580.29
646.17	6496.33
646.363	6529.1
646.556	6215.76
646.749	6393.93
646.942	6651.97
647.135	6381.64
647.328	6262.86
647.521	6275.15
647.714	6209.61
647.907	6043.73
648.099	6176.84
648.292	6180.94
648.485	6219.85
648.678	6021.2
648.871	6086.73
649.064	5785.68
649.256	6180.94
649.449	6070.35
649.642	5886.03
649.835	5992.53
650.027	5883.98
650.22	5722.2
650.413	5800.02
650.605	5838.93
650.798	5859.41
650.991	5818.45
651.183	5734.48
651.376	5673.04
651.568	5716.05
651.761	5619.8
651.954	5652.56
652.146	5511.25
652.339	5464.15
652.531	5419.1
652.724	5486.68
652.916	5400.66
653.109	5537.88
653.301	5515.35
653.494	5429.34
653.686	5308.51
653.879	5388.38
654.071	5298.27
654.263	5359.7
654.456	5236.83
654.648	5283.93
654.84	5097.56
655.033	5279.83
655.225	5161.05
655.417	4952.16
655.61	5189.72
655.802	5046.37
655.994	4952.16
656.186	5116
656.379	5015.65
656.571	4993.12
656.763	4876.38
656.955	4855.9
657.148	4964.45
657.34	4923.49
657.532	4810.85
657.724	4800.61
657.916	4687.97
658.108	4763.75
658.3	4640.87
658.492	4726.88
658.684	4644.96
658.876	4561
659.068	4849.76
659.26	4567.14
659.452	4378.73
659.644	4780.13
659.836	4470.89
660.028	4626.53
660.22	4419.69
660.412	4581.48
660.604	4415.59
660.796	4479.08
660.988	4413.54
661.18	4352.1
661.372	4264.04
661.563	4393.06
661.755	4231.27
661.947	4307.05
662.139	4345.96
662.331	4356.2
662.522	4278.38
662.714	4257.9
662.906	4249.71
663.097	4069.48
663.289	4261.99
663.481	4149.36
663.673	4186.22
663.864	4188.27
664.056	3985.52
664.247	4053.1
664.439	3979.37
664.631	3977.33
664.822	3979.37
665.014	3936.37
665.205	4032.62
665.397	4077.68
665.588	3991.66
665.78	3862.64
665.971	3948.65
666.163	3979.37
666.354	3813.49
666.546	3797.1
666.737	3915.89
666.929	3731.57
667.12	3786.86
667.311	3735.67
667.503	3762.29
667.694	3743.86
667.885	3680.37
668.077	3844.21
668.268	3596.4
668.459	3711.09
668.651	3725.43
668.842	3694.71
669.033	3629.17
669.224	3702.9
669.416	3668.08
669.607	3541.11
669.798	3528.82
669.989	3618.93
670.18	3592.31
670.371	3575.92
670.563	3594.36
670.754	3651.7
670.945	3588.21
671.136	3477.62
671.327	3455.09
671.518	3467.38
671.709	3530.87
671.9	3485.81
672.091	3491.96
672.282	3389.56
672.473	3285.11
672.664	3385.46
672.855	3461.24
673.046	3412.09
673.237	3479.67
673.428	3340.41
673.619	3448.95
673.809	3348.6
674	3344.5
674.191	3350.65
674.382	3424.37
674.573	3221.63
674.764	3332.22
674.954	3350.65
675.145	3352.7
675.336	3231.87
675.527	3334.26
675.717	3301.5
675.908	3227.77
676.099	3233.91
676.289	3344.5
676.48	3119.23
676.671	3170.43
676.861	3199.1
677.052	3248.25
677.243	3217.53
677.433	3154.04
677.624	3151.99
677.814	3121.28
678.005	3209.34
678.195	3033.21
678.386	3238.01
678.576	3219.58
678.767	3104.89
678.957	3156.09
679.148	3221.63
679.338	3123.32
679.529	3137.66
679.719	3115.13
679.909	3113.08
680.1	3248.25
680.29	3049.6
680.481	3139.71
680.671	3131.51
680.861	3238.01
681.052	3086.46
681.242	3113.08
681.432	3156.09
681.622	3135.61
681.813	3012.73
682.003	3043.45
682.193	3094.65
682.383	3164.28
682.573	3141.75
682.764	3012.73
682.954	3127.42
683.144	3063.93
683.334	3057.79
683.524	2998.4
683.714	3039.36
683.904	3037.31
684.094	3014.78
684.284	3113.08
684.474	3043.45
684.664	2998.4
684.854	3051.64
685.044	3033.21
685.234	3014.78
685.424	2857.09
685.614	2949.25
685.804	2910.33
685.994	2916.48
686.184	2936.96
686.374	2754.69
686.564	2965.63
686.753	2936.96
686.943	2840.7
687.133	2885.76
687.323	2889.85
687.513	2801.79
687.702	2812.03
687.892	2750.59
688.082	2803.84
688.272	2855.04
688.461	2904.19
688.651	2850.94
688.841	2756.74
689.03	2799.74
689.22	2746.5
689.41	2719.87
689.599	2738.3
689.789	2719.87
689.979	2611.33
690.168	2705.54
690.358	2646.15
690.547	2760.83
690.737	2744.45
690.926	2709.63
691.116	2584.71
691.305	2736.26
691.495	2699.39
691.684	2617.47
691.874	2603.14
692.063	2637.95
692.252	2621.57
692.442	2599.04
692.631	2553.99
692.82	2562.18
693.01	2562.18
693.199	2435.21
693.388	2502.79
693.578	2412.68
693.767	2553.99
693.956	2558.08
694.146	2457.73
694.335	2441.35
694.524	2465.93
694.713	2388.1
694.902	2336.9
695.092	2484.36
695.281	2451.59
695.47	2455.69
695.659	2422.92
695.848	2414.73
696.037	2443.4
696.226	2400.39
696.415	2281.61
696.604	2443.4
696.793	2355.33
696.982	2316.42
697.171	2431.11
697.36	2404.49
697.549	2377.86
697.738	2271.37
697.927	2316.42
698.116	2355.33
698.305	2363.53
698.494	2306.18
698.683	2369.67
698.872	2314.38
699.061	2424.97
699.25	2371.72
699.438	2439.3
699.627	2277.51
699.816	2379.91
700.005	2310.28
700.193	2341
700.382	2308.23
700.571	2396.29
700.76	2406.53
700.948	2437.25
701.137	2271.37
701.326	2297.99
701.514	2281.61
701.703	2435.21
701.892	2285.7
702.08	2384.01
702.269	2381.96
702.457	2410.63
702.646	2214.02
702.834	2361.48
703.023	2310.28
703.212	2357.38
703.4	2138.25
703.589	2203.79
703.777	2123.91
703.965	2232.46
704.154	2338.95
704.342	2244.74
704.531	2314.38
704.719	2175.11
704.907	2312.33
705.096	2207.88
705.284	2244.74
705.472	2287.75
705.661	2185.35
705.849	2291.85
706.037	2371.72
706.226	2336.9
706.414	2332.81
706.602	2291.85
706.79	2367.62
706.979	2328.71
707.167	2392.2
707.355	2365.57
707.543	2254.98
707.731	2273.42
707.919	2336.9
708.107	2341
708.296	2279.56
708.484	2334.86
708.672	2345.09
708.86	2252.94
709.048	2300.04
709.236	2295.94
709.424	2431.11
709.612	2349.19
709.8	2285.7
709.988	2302.09
710.176	2224.26
710.364	2291.85
710.551	2281.61
710.739	2390.15
710.927	2310.28
711.115	2201.74
711.303	2248.84
711.491	2308.23
711.679	2279.56
711.866	2250.89
712.054	2271.37
712.242	2187.4
712.43	2345.09
712.617	2265.22
712.805	2377.86
712.993	2420.87
713.181	2338.95
713.368	2398.34
713.556	2435.21
713.744	2334.86
713.931	2474.12
714.119	2386.05
714.306	2279.56
714.494	2269.32
714.682	2322.57
714.869	2351.24
715.057	2394.25
715.244	2252.94
715.432	2418.82
715.619	2338.95
715.807	2461.83
715.994	2435.21
716.182	2308.23
716.369	2404.49
716.556	2343.05
716.744	2367.62
716.931	2267.27
717.119	2416.77
717.306	2386.05
717.493	2216.07
717.681	2404.49
717.868	2445.45
718.055	2519.17
718.242	2267.27
718.43	2541.7
718.617	2478.21
718.804	2361.48
718.991	2390.15
719.179	2343.05
719.366	2338.95
719.553	2472.07
719.74	2455.69
719.927	2449.54
720.114	2412.68
720.301	2445.45
720.488	2429.06
720.676	2244.74
720.863	2330.76
721.05	2375.81
721.237	2377.86
721.424	2492.55
721.611	2449.54
721.798	2455.69
721.985	2443.4
722.172	2412.68
722.358	2365.57
722.545	2412.68
722.732	2375.81
722.919	2345.09
723.106	2295.94
723.293	2283.66
723.48	2474.12
723.667	2334.86
723.853	2365.57
724.04	2384.01
724.227	2353.29
724.414	2404.49
724.6	2334.86
724.787	2457.73
724.974	2506.88
725.161	2443.4
725.347	2371.72
725.534	2478.21
725.72	2410.63
725.907	2459.78
726.094	2312.33
726.28	2424.97
726.467	2451.59
726.653	2398.34
726.84	2488.45
727.027	2474.12
727.213	2400.39
727.4	2365.57
727.586	2431.11
727.773	2492.55
727.959	2410.63
728.145	2494.6
728.332	2508.93
728.518	2439.3
728.705	2474.12
728.891	2424.97
729.077	2496.64
729.264	2369.67
729.45	2525.32
729.636	2437.25
729.823	2373.77
730.009	2496.64
730.195	2490.5
730.382	2424.97
730.568	2457.73
730.754	2369.67
730.94	2318.47
731.126	2451.59
731.313	2502.79
731.499	2373.77
731.685	2367.62
731.871	2541.7
732.057	2410.63
732.243	2420.87
732.429	2418.82
732.615	2451.59
732.801	2404.49
732.987	2422.92
733.173	2486.4
733.359	2556.04
733.545	2410.63
733.731	2457.73
733.917	2529.41
734.103	2523.27
734.289	2320.52
734.475	2439.3
734.661	2414.73
734.847	2287.75
735.033	2457.73
735.219	2336.9
735.404	2457.73
735.59	2316.42
735.776	2318.47
735.962	2424.97
736.148	2513.03
736.333	2422.92
736.519	2437.25
736.705	2424.97
736.89	2416.77
737.076	2480.26
737.262	2402.44
737.447	2437.25
737.633	2345.09
737.819	2373.77
738.004	2254.98
738.19	2455.69
738.375	2349.19
738.561	2365.57
738.747	2349.19
738.932	2357.38
739.118	2357.38
739.303	2332.81
739.489	2306.18
739.674	2367.62
739.859	2252.94
740.045	2254.98
740.23	2240.65
740.416	2273.42
740.601	2357.38
740.786	2343.05
740.972	2222.22
741.157	2250.89
741.342	2367.62
741.528	2285.7
741.713	2287.75
741.898	2189.45
742.084	2164.87
742.269	2173.07
742.454	2154.63
742.639	2144.39
742.824	2152.59
743.01	2113.67
743.195	2250.89
743.38	2082.95
743.565	2166.92
743.75	2201.74
743.935	2240.65
744.12	2085
744.305	2113.67
744.49	2097.29
744.675	2097.29
744.86	2130.06
745.045	2197.64
745.23	2144.39
745.415	2095.24
745.6	2087.05
745.785	1982.6
745.97	2029.71
746.155	1945.74
746.34	2123.91
746.525	1947.79
746.71	1964.17
746.895	1992.84
747.079	1994.89
747.264	1974.41
747.449	2003.08
747.634	2001.04
747.819	2066.57
748.003	1882.25
748.188	1941.65
748.373	1994.89
748.557	1945.74
748.742	1892.49
748.927	1939.6
749.111	1878.16
749.296	1706.13
749.481	1990.8
749.665	1831.05
749.85	1867.92
750.034	1837.2
750.219	1855.63
750.404	1788.05
750.588	1702.03
750.773	1726.61
750.957	1685.65
751.141	1816.72
751.326	1790.1
751.51	1738.9
751.695	1796.24
751.879	1681.55
752.064	1722.51
752.248	1775.76
752.432	1691.79
752.617	1605.78
752.801	1689.74
752.985	1616.02
753.17	1579.15
753.354	1661.07
753.538	1550.48
753.722	1519.76
753.907	1484.95
754.091	1613.97
754.275	1513.62
754.459	1587.35
754.643	1409.17
754.828	1552.53
755.012	1405.08
755.196	1540.24
755.38	1513.62
755.564	1462.42
755.748	1437.84
755.932	1435.8
756.116	1390.74
756.3	1429.65
756.484	1403.03
756.668	1339.54
756.852	1411.22
757.036	1419.41
757.22	1357.97
757.404	1222.81
757.588	1327.25
757.772	1364.12
757.956	1382.55
758.14	1368.21
758.323	1355.93
758.507	1302.68
758.691	1274.01
758.875	1329.3
759.059	1296.53
759.242	1345.69
759.426	1310.87
759.61	1288.34
759.794	1181.85
759.977	1212.57
760.161	1312.92
760.345	1210.52
760.528	1255.58
760.712	1192.09
760.895	1220.76
761.079	1235.1
761.263	1144.99
761.446	1185.94
761.63	1120.41
761.813	1147.03
761.997	1149.08
762.18	1212.57
762.364	1083.55
762.547	1220.76
762.731	1124.51
762.914	1104.03
763.098	1175.7
763.281	1124.51
763.464	1151.13
763.648	1067.16
763.831	1048.73
764.015	1022.11
764.198	1128.6
764.381	1120.41
764.564	1132.7
764.748	1144.99
764.931	1120.41
765.114	1151.13
765.297	1089.69
765.481	995.48
765.664	1052.83
765.847	1022.11
766.03	1067.16
766.213	970.91
766.397	1067.16
766.58	989.34
766.763	1036.44
766.946	1038.49
767.129	946.33
767.312	948.38
767.495	954.52
767.678	948.38
767.861	987.29
768.044	934.04
768.227	1048.73
768.41	1042.59
768.593	932
768.776	1058.97
768.959	956.57
769.142	993.44
769.324	872.61
769.507	876.7
769.69	944.28
769.873	946.33
770.056	934.04
770.239	884.89
770.421	878.75
770.604	899.23
770.787	966.81
770.97	950.43
771.152	862.37
771.335	856.22
771.518	888.99
771.7	827.55
771.883	925.85
772.066	862.37
772.248	852.13
772.431	907.42
772.613	833.69
772.796	893.09
772.978	891.04
773.161	882.85
773.343	784.54
773.526	841.89
773.708	878.75
773.891	929.95
774.073	923.8
774.256	764.06
774.438	923.8
774.621	831.65
774.803	700.58
774.985	819.36
775.168	805.02
775.35	776.35
775.532	843.93
775.715	747.68
775.897	762.02
776.079	731.3
776.261	749.73
776.444	772.25
776.626	786.59
776.808	706.72
776.99	626.85
777.173	737.44
777.355	755.87
777.537	688.29
777.719	811.17
777.901	702.62
778.083	678.05
778.265	661.66
778.447	727.2
778.629	719.01
778.811	602.27
778.993	751.78
779.175	751.78
779.357	690.34
779.539	676
779.721	632.99
779.903	608.42
780.085	637.09
780.267	639.14
780.449	651.42
780.631	594.08
780.812	706.72
780.994	585.89
781.176	610.47
781.358	585.89
781.54	538.79
781.721	594.08
781.903	557.22
782.085	637.09
782.267	635.04
782.448	493.73
782.63	522.4
782.812	600.23
782.993	516.26
783.175	510.11
783.357	549.03
783.538	518.31
783.72	530.59
783.901	581.79
784.083	612.51
784.264	551.07
784.446	573.6
784.627	518.31
784.809	491.68
784.99	428.2
785.172	440.48
785.353	465.06
785.535	561.31
785.716	422.05
785.897	420
786.079	499.88
786.26	428.2
786.441	555.17
786.623	413.86
786.804	471.2
786.985	481.44
787.167	469.16
787.348	413.86
787.529	528.55
787.71	458.92
787.891	403.62
788.073	391.33
788.254	424.1
788.435	409.76
788.616	430.24
788.797	407.72
788.978	411.81
789.159	520.35
789.34	360.61
789.522	413.86
789.703	430.24
789.884	428.2
790.065	405.67
790.246	391.33
790.427	426.15
790.607	481.44
790.788	467.11
790.969	372.9
791.15	385.19
791.331	325.8
791.512	309.41
791.693	325.8
791.874	370.85
792.054	393.38
792.235	393.38
792.416	356.52
792.597	325.8
792.778	370.85
792.958	399.52
793.139	321.7
793.32	342.18
793.5	321.7
793.681	354.47
793.862	391.33
794.042	204.97
794.223	329.89
794.404	372.9
794.584	313.51
794.765	399.52
794.945	407.72
795.126	260.26
795.306	313.51
795.487	305.32
795.667	336.04
795.848	397.48
796.028	352.42
796.209	303.27
796.389	391.33
796.57	321.7
796.75	323.75
796.93	393.38
797.111	243.88
797.291	364.71
797.471	272.55
797.652	196.78
797.832	321.7
798.012	305.32
798.192	272.55
798.373	329.89
798.553	284.84
798.733	321.7
798.913	309.41
799.093	333.99
799.274	299.17
799.454	297.13
799.634	297.13
799.814	282.79
799.994	272.55
800.174	282.79
800.354	311.46
800.534	293.03
800.714	215.21
800.894	268.45
801.074	239.78
801.254	264.36
801.434	293.03
801.614	243.88
801.794	221.35
801.974	622.75
802.154	297.13
802.334	313.51
802.514	229.54
802.693	209.06
802.873	209.06
803.053	290.98
803.233	209.06
803.413	254.12
803.592	245.93
803.772	272.55
803.952	307.37
804.131	231.59
804.311	227.5
804.491	225.45
804.67	139.43
804.85	164.01
805.03	196.78
805.209	196.78
805.389	241.83
805.568	243.88
805.748	190.63
805.928	276.65
806.107	155.82
806.287	178.34
806.466	264.36
806.646	176.3
806.825	268.45
807.004	186.54
807.184	196.78
807.363	178.34
807.543	223.4
807.722	188.58
807.901	237.74
808.081	235.69
808.26	180.39
808.439	245.93
808.619	202.92
808.798	245.93
808.977	264.36
809.156	198.82
809.336	217.26
809.515	200.87
809.694	209.06
809.873	176.3
810.052	114.86
810.231	262.31
810.411	258.21
810.59	164.01
810.769	159.91
810.948	172.2
811.127	157.86
811.306	176.3
811.485	204.97
811.664	221.35
811.843	166.06
812.022	178.34
812.201	217.26
812.38	139.43
812.559	125.1
812.737	219.3
812.916	157.86
813.095	186.54
813.274	170.15
813.453	170.15
813.632	192.68
813.811	223.4
813.989	196.78
814.168	161.96
814.347	190.63
814.526	223.4
814.704	172.2
814.883	204.97
815.062	143.53
815.24	188.58
815.419	135.34
815.598	204.97
815.776	118.95
815.955	104.62
816.133	151.72
816.312	194.73
816.49	164.01
816.669	245.93
816.847	88.23
817.026	196.78
817.204	145.58
817.383	186.54
817.561	108.71
817.74	104.62
817.918	196.78
818.097	114.86
818.275	166.06
818.453	73.9
818.632	233.64
818.81	149.67
818.988	176.3
819.167	170.15
819.345	123.05
819.523	186.54
819.701	98.47
819.879	157.86
820.058	247.97
820.236	202.92
820.414	69.8
820.592	106.67
820.77	123.05
820.948	155.82
821.127	147.62
821.305	118.95
821.483	143.53
821.661	110.76
821.839	180.39
822.017	151.72
822.195	129.19
822.373	153.77
822.551	139.43
822.729	88.23
822.907	133.29
823.085	188.58
823.262	80.04
823.44	121
823.618	121
823.796	133.29
823.974	139.43
824.152	239.78
824.329	127.14
824.507	188.58
824.685	94.38
824.863	137.38
825.04	168.1
825.218	145.58
825.396	137.38
825.574	129.19
825.751	141.48
825.929	121
826.107	178.34
826.284	116.9
826.462	94.38
826.639	131.24
826.817	71.85
826.994	137.38
827.172	75.95
827.349	155.82
827.527	147.62
827.704	112.81
827.882	112.81
828.059	59.56
828.237	149.67
828.414	198.82
828.591	30.89
828.769	108.71
828.946	104.62
829.124	12.46
829.301	166.06
829.478	172.2
829.655	137.38
829.833	131.24
830.01	80.04
830.187	121
830.364	164.01
830.542	104.62
830.719	151.72
830.896	184.49
831.073	104.62
831.25	139.43
831.427	92.33
831.604	161.96
831.782	110.76
831.959	55.47
832.136	114.86
832.313	59.56
832.49	69.8
832.667	139.43
832.844	59.56
833.021	194.73
833.198	75.95
833.374	96.43
833.551	47.27
833.728	67.75
833.905	71.85
834.082	10.41
834.259	47.27
834.436	94.38
834.612	63.66
834.789	110.76
834.966	168.1
835.143	92.33
835.319	24.75
835.496	155.82
835.673	182.44
835.85	32.94
836.026	166.06
836.203	63.66
836.38	82.09
836.556	59.56
836.733	98.47
836.909	159.91
837.086	106.67
837.262	96.43
837.439	90.28
837.616	-5.97
837.792	92.33
837.968	129.19
838.145	133.29
838.321	63.66
838.498	69.8
838.674	125.1
838.851	112.81
839.027	88.23
839.203	180.39
839.38	127.14
839.556	96.43
839.732	90.28
839.909	30.89
840.085	75.95
840.261	57.51
840.437	51.37
840.614	112.81
840.79	141.48
840.966	84.14
841.142	67.75
841.318	112.81
841.494	98.47
841.671	77.99
841.847	37.03
842.023	41.13
842.199	145.58
842.375	129.19
842.551	69.8
842.727	104.62
842.903	55.47
843.079	26.79
843.255	131.24
843.431	26.79
843.607	80.04
843.783	73.9
843.959	75.95
844.134	63.66
844.31	100.52
844.486	6.31
844.662	61.61
844.838	110.76
845.013	-5.97
845.189	131.24
845.365	51.37
845.541	49.32
845.716	37.03
845.892	69.8
846.068	125.1
846.244	75.95
846.419	47.27
846.595	8.36
846.77	32.94
846.946	90.28
847.122	67.75
847.297	75.95
847.473	133.29
847.648	77.99
847.824	26.79
847.999	43.18
848.175	86.19
848.35	108.71
848.526	94.38
848.701	55.47
848.876	77.99
849.052	28.84
849.227	51.37
849.403	51.37
849.578	59.56
849.753	141.48
849.929	45.23
850.104	8.36
850.279	92.33
850.454	34.99
850.63	37.03
850.805	59.56
850.98	63.66
851.155	22.7
851.33	16.55
851.505	77.99
851.681	59.56
851.856	30.89
852.031	100.52
852.206	80.04
852.381	37.03
852.556	118.95
852.731	100.52
852.906	84.14
853.081	55.47
853.256	116.9
853.431	80.04
853.606	53.42
853.781	59.56
853.956	69.8
854.131	26.79
854.305	16.55
854.48	88.23
854.655	26.79
854.83	63.66
855.005	77.99
855.18	98.47
855.354	22.7
855.529	75.95
855.704	18.6
855.879	28.84
856.053	114.86
856.228	12.46
856.403	-59.22
856.577	28.84
856.752	37.03
856.926	43.18
857.101	14.51
857.276	0.17
857.45	98.47
857.625	6.31
857.799	55.47
857.974	12.46
858.148	-46.93
858.323	49.32
858.497	71.85
858.672	12.46
858.846	53.42
859.02	75.95
859.195	6.31
859.369	32.94
859.543	92.33
859.718	53.42
859.892	28.84
860.066	63.66
860.241	-1.88
860.415	84.14
860.589	63.66
860.763	96.43
860.938	2.22
861.112	10.41
861.286	102.57
861.46	71.85
861.634	-26.45
861.808	108.71
861.982	30.89
862.157	67.75
862.331	49.32
862.505	59.56
862.679	-14.17
862.853	86.19
863.027	49.32
863.201	182.44
863.375	69.8
863.549	47.27
863.722	32.94
863.896	22.7
864.07	77.99
864.244	10.41
864.418	67.75
864.592	67.75
864.766	0.17
864.939	102.57
865.113	110.76
865.287	51.37
865.461	-55.12
865.634	73.9
865.808	49.32
865.982	65.71
866.156	57.51
866.329	67.75
866.503	53.42
866.676	108.71
866.85	10.41
867.024	24.75
867.197	82.09
867.371	20.65
867.544	53.42
867.718	90.28
867.891	63.66
868.065	26.79
868.238	-24.4
868.412	26.79
868.585	34.99
868.759	30.89
868.932	22.7
869.105	-24.4
869.279	47.27
869.452	73.9
869.625	8.36
869.799	73.9
869.972	24.75
870.145	24.75
870.319	-16.21
870.492	32.94
870.665	57.51
870.838	49.32
871.011	39.08
871.185	24.75
871.358	-22.36
871.531	55.47
871.704	-108.37
871.877	63.66
872.05	12.46
872.223	18.6
872.396	77.99
872.569	41.13
872.742	16.55
872.915	30.89
873.088	77.99
873.261	82.09
873.434	24.75
873.607	18.6
873.78	-16.21
873.953	8.36
874.126	-18.26
874.299	141.48
874.471	-28.5
874.644	24.75
874.817	30.89
874.99	18.6
875.163	57.51
875.335	-38.74
875.508	26.79
875.681	84.14
875.853	12.46
876.026	22.7
876.199	16.55
876.371	47.27
876.544	26.79
876.717	32.94
876.889	-32.6
877.062	71.85
877.234	34.99
877.407	65.71
877.579	20.65
877.752	-8.02
877.924	59.56
878.097	69.8
878.269	-57.17
878.442	16.55
878.614	69.8
878.786	69.8
878.959	41.13
879.131	-32.6
879.303	-38.74
879.476	-12.12
879.648	59.56
879.82	86.19
879.993	2.22
880.165	61.61
880.337	-1.88
880.509	45.23
880.681	39.08
880.854	12.46
881.026	100.52
881.198	43.18
881.37	53.42
881.542	-46.93
881.714	-10.07
881.886	41.13
882.058	6.31
882.23	39.08
882.402	37.03
882.574	26.79
882.746	43.18
882.918	8.36
883.09	10.41
883.262	59.56
883.434	88.23
883.606	32.94
883.778	28.84
883.95	59.56
884.122	53.42
884.293	12.46
884.465	10.41
884.637	65.71
884.809	-18.26
884.98	32.94
885.152	123.05
885.324	26.79
885.496	49.32
885.667	96.43
885.839	32.94
886.011	69.8
886.182	0.17
886.354	32.94
886.525	30.89
886.697	6.31
886.869	-5.97
887.04	-26.45
887.212	-3.93
887.383	82.09
887.555	61.61
887.726	24.75
887.897	-1.88
888.069	86.19
888.24	12.46
888.412	88.23
888.583	-18.26
888.754	-8.02
888.926	24.75
889.097	75.95
889.268	-32.6
889.44	0.17
889.611	22.7
889.782	77.99
889.953	108.71
890.125	55.47
890.296	14.51
890.467	61.61
890.638	6.31
890.809	14.51
890.98	47.27
891.151	53.42
891.323	69.8
891.494	63.66
891.665	-14.17
891.836	22.7
892.007	63.66
892.178	14.51
892.349	110.76
892.52	37.03
892.691	39.08
892.862	37.03
893.032	43.18
893.203	12.46
893.374	65.71
893.545	26.79
893.716	37.03
893.887	37.03
894.057	51.37
894.228	37.03
894.399	-71.51
894.57	88.23
894.74	4.27
894.911	67.75
895.082	-38.74
895.253	32.94
895.423	24.75
895.594	47.27
895.764	69.8
895.935	28.84
896.106	67.75
896.276	-55.12
896.447	6.31
896.617	-3.93
896.788	57.51
896.958	43.18
897.129	-24.4
897.299	20.65
897.47	26.79
897.64	69.8
897.81	51.37
897.981	51.37
898.151	75.95
898.322	10.41
898.492	14.51
898.662	20.65
898.832	57.51
899.003	-34.64
899.173	-5.97
899.343	-8.02
899.513	45.23
