Data from USB4F104151__87__11-52-54-999.txt Node

Date: Fri Mar 14 11:52:54 EDT 2025
User: louis
Spectrometer: USB4F10415
Trigger mode: 4
Integration Time (sec): 2.000000E-2
Scans to average: 1
Electric dark correction enabled: true
Nonlinearity correction enabled: false
Boxcar width: 0
XAxis mode: Wavelengths
Number of Pixels in Spectrum: 3648
>>>>>Begin Spectral Data<<<<<
178.204	-76.46
178.424	-76.46
178.644	-76.46
178.864	-88.75
179.084	-51.88
179.304	-29.35
179.524	-25.26
179.744	48.47
179.964	54.61
180.184	-12.97
180.404	-19.11
180.624	13.65
180.844	44.37
181.064	-25.26
181.283	7.51
181.503	-55.98
181.723	-0.68
181.943	-72.36
182.163	36.18
182.383	11.61
182.602	-6.83
182.822	99.67
183.042	54.61
183.262	77.14
183.482	83.28
183.701	9.56
183.921	-39.59
184.141	62.8
184.361	-12.97
184.58	50.52
184.8	9.56
185.02	-8.87
185.239	62.8
185.459	1.37
185.679	36.18
185.898	-0.68
186.118	40.28
186.338	21.85
186.557	3.41
186.777	77.14
186.997	93.52
187.216	-2.73
187.436	109.91
187.655	17.75
187.875	-25.26
188.095	105.81
188.314	27.99
188.534	50.52
188.753	95.57
188.973	79.19
189.192	103.76
189.412	1.37
189.631	48.47
189.851	66.9
190.07	11.61
190.29	36.18
190.509	-29.35
190.729	-27.31
190.948	48.47
191.168	122.2
191.387	38.23
191.607	7.51
191.826	30.04
192.045	-49.83
192.265	54.61
192.484	34.13
192.704	17.75
192.923	-23.21
193.142	83.28
193.362	79.19
193.581	66.9
193.8	-0.68
194.02	-6.83
194.239	79.19
194.458	19.8
194.678	11.61
194.897	66.9
195.116	25.94
195.335	3.41
195.555	54.61
195.774	-29.35
195.993	46.42
196.212	36.18
196.432	87.38
196.651	25.94
196.87	66.9
197.089	34.13
197.308	40.28
197.528	60.76
197.747	46.42
197.966	19.8
198.185	134.48
198.404	38.23
198.623	48.47
198.842	46.42
199.062	83.28
199.281	54.61
199.5	-10.92
199.719	-2.73
199.938	64.85
200.157	48.47
200.376	58.71
200.595	15.7
200.814	46.42
201.033	1.37
201.252	79.19
201.471	27.99
201.69	66.9
201.909	83.28
202.128	48.47
202.347	13.65
202.566	83.28
202.785	13.65
203.004	21.85
203.223	38.23
203.442	27.99
203.661	-45.74
203.879	62.8
204.098	21.85
204.317	60.76
204.536	62.8
204.755	19.8
204.974	11.61
205.193	27.99
205.411	114
205.63	52.56
205.849	42.32
206.068	-21.16
206.287	68.95
206.505	-2.73
206.724	-8.87
206.943	38.23
207.162	-29.35
207.381	42.32
207.599	56.66
207.818	1.37
208.037	77.14
208.255	21.85
208.474	134.48
208.693	23.89
208.911	52.56
209.13	75.09
209.349	60.76
209.567	105.81
209.786	25.94
210.005	97.62
210.223	40.28
210.442	11.61
210.661	71
210.879	27.99
211.098	3.41
211.316	-17.07
211.535	58.71
211.753	19.8
211.972	34.13
212.191	68.95
212.409	52.56
212.628	52.56
212.846	-27.31
213.065	81.24
213.283	87.38
213.502	25.94
213.72	9.56
213.938	23.89
214.157	66.9
214.375	83.28
214.594	36.18
214.812	21.85
215.031	-2.73
215.249	32.08
215.467	1.37
215.686	13.65
215.904	85.33
216.122	15.7
216.341	60.76
216.559	9.56
216.778	95.57
216.996	101.72
217.214	40.28
217.432	-27.31
217.651	89.43
217.869	60.76
218.087	58.71
218.306	83.28
218.524	-2.73
218.742	64.85
218.96	11.61
219.179	50.52
219.397	-12.97
219.615	56.66
219.833	17.75
220.051	15.7
220.27	11.61
220.488	58.71
220.706	75.09
220.924	-15.02
221.142	62.8
221.36	11.61
221.578	56.66
221.796	-10.92
222.015	36.18
222.233	27.99
222.451	30.04
222.669	68.95
222.887	34.13
223.105	13.65
223.323	62.8
223.541	-27.31
223.759	32.08
223.977	-17.07
224.195	93.52
224.413	48.47
224.631	56.66
224.849	50.52
225.067	13.65
225.285	5.46
225.503	-10.92
225.721	-29.35
225.939	58.71
226.157	5.46
226.375	93.52
226.592	30.04
226.81	21.85
227.028	5.46
227.246	77.14
227.464	83.28
227.682	48.47
227.9	58.71
228.117	46.42
228.335	83.28
228.553	42.32
228.771	32.08
228.989	64.85
229.206	73.04
229.424	25.94
229.642	23.89
229.86	89.43
230.077	62.8
230.295	36.18
230.513	48.47
230.731	25.94
230.948	81.24
231.166	50.52
231.384	46.42
231.601	68.95
231.819	-8.87
232.037	30.04
232.254	-19.11
232.472	42.32
232.689	-41.64
232.907	73.04
233.125	40.28
233.342	62.8
233.56	73.04
233.777	25.94
233.995	34.13
234.213	58.71
234.43	62.8
234.648	9.56
234.865	7.51
235.083	46.42
235.3	60.76
235.518	87.38
235.735	25.94
235.953	3.41
236.17	46.42
236.388	13.65
236.605	60.76
236.822	15.7
237.04	89.43
237.257	25.94
237.475	75.09
237.692	58.71
237.909	52.56
238.127	44.37
238.344	77.14
238.562	122.2
238.779	36.18
238.996	95.57
239.214	-23.21
239.431	87.38
239.648	11.61
239.865	19.8
240.083	-4.78
240.3	62.8
240.517	5.46
240.735	11.61
240.952	30.04
241.169	9.56
241.386	19.8
241.603	103.76
241.821	-70.31
242.038	103.76
242.255	48.47
242.472	-43.69
242.689	7.51
242.907	107.86
243.124	73.04
243.341	46.42
243.558	89.43
243.775	-29.35
243.992	56.66
244.209	13.65
244.426	77.14
244.643	-2.73
244.86	58.71
245.078	73.04
245.295	36.18
245.512	7.51
245.729	9.56
245.946	42.32
246.163	-12.97
246.38	1.37
246.597	34.13
246.814	128.34
247.031	71
247.248	58.71
247.464	77.14
247.681	44.37
247.898	46.42
248.115	101.72
248.332	13.65
248.549	17.75
248.766	66.9
248.983	21.85
249.2	25.94
249.417	36.18
249.633	7.51
249.85	73.04
250.067	79.19
250.284	101.72
250.501	58.71
250.717	58.71
250.934	34.13
251.151	-17.07
251.368	-27.31
251.585	87.38
251.801	23.89
252.018	21.85
252.235	40.28
252.451	40.28
252.668	-8.87
252.885	9.56
253.102	-10.92
253.318	30.04
253.535	-12.97
253.752	7.51
253.968	68.95
254.185	62.8
254.401	89.43
254.618	68.95
254.835	-39.59
255.051	54.61
255.268	15.7
255.484	40.28
255.701	32.08
255.917	-8.87
256.134	-15.02
256.351	7.51
256.567	-8.87
256.784	118.1
257	56.66
257.217	21.85
257.433	68.95
257.65	48.47
257.866	27.99
258.082	-47.79
258.299	50.52
258.515	23.89
258.732	7.51
258.948	13.65
259.165	36.18
259.381	36.18
259.597	66.9
259.814	23.89
260.03	5.46
260.246	-41.64
260.463	116.05
260.679	-19.11
260.895	71
261.112	60.76
261.328	44.37
261.544	93.52
261.761	105.81
261.977	68.95
262.193	52.56
262.409	91.48
262.626	-8.87
262.842	66.9
263.058	122.2
263.274	111.96
263.49	32.08
263.707	46.42
263.923	17.75
264.139	58.71
264.355	5.46
264.571	148.82
264.787	23.89
265.004	34.13
265.22	52.56
265.436	81.24
265.652	27.99
265.868	48.47
266.084	23.89
266.3	40.28
266.516	62.8
266.732	58.71
266.948	-43.69
267.164	34.13
267.38	126.29
267.596	7.51
267.812	85.33
268.028	73.04
268.244	30.04
268.46	27.99
268.676	-68.27
268.892	62.8
269.108	19.8
269.324	130.39
269.54	89.43
269.756	1.37
269.972	48.47
270.188	-31.4
270.403	40.28
270.619	7.51
270.835	50.52
271.051	3.41
271.267	48.47
271.483	5.46
271.698	15.7
271.914	13.65
272.13	60.76
272.346	89.43
272.562	21.85
272.777	38.23
272.993	1.37
273.209	68.95
273.425	116.05
273.64	52.56
273.856	146.77
274.072	46.42
274.287	25.94
274.503	13.65
274.719	44.37
274.934	42.32
275.15	36.18
275.366	19.8
275.581	-19.11
275.797	27.99
276.012	36.18
276.228	-6.83
276.444	-27.31
276.659	87.38
276.875	62.8
277.09	-6.83
277.306	19.8
277.521	81.24
277.737	-2.73
277.952	46.42
278.168	-2.73
278.383	75.09
278.599	66.9
278.814	-35.5
279.03	38.23
279.245	-4.78
279.461	32.08
279.676	-17.07
279.892	-45.74
280.107	11.61
280.322	17.75
280.538	60.76
280.753	116.05
280.969	40.28
281.184	17.75
281.399	95.57
281.615	-12.97
281.83	60.76
282.045	-4.78
282.26	13.65
282.476	36.18
282.691	-31.4
282.906	60.76
283.122	-8.87
283.337	-6.83
283.552	68.95
283.767	-51.88
283.983	64.85
284.198	7.51
284.413	54.61
284.628	30.04
284.843	93.52
285.058	25.94
285.274	46.42
285.489	73.04
285.704	191.83
285.919	1.37
286.134	46.42
286.349	21.85
286.564	25.94
286.779	87.38
286.995	21.85
287.21	3.41
287.425	23.89
287.64	42.32
287.855	52.56
288.07	38.23
288.285	58.71
288.5	-4.78
288.715	79.19
288.93	56.66
289.145	71
289.36	93.52
289.575	32.08
289.79	-17.07
290.004	27.99
290.219	54.61
290.434	103.76
290.649	30.04
290.864	-8.87
291.079	68.95
291.294	54.61
291.509	30.04
291.724	30.04
291.938	-47.79
292.153	52.56
292.368	19.8
292.583	34.13
292.798	97.62
293.012	66.9
293.227	75.09
293.442	93.52
293.657	87.38
293.871	66.9
294.086	83.28
294.301	77.14
294.516	73.04
294.73	27.99
294.945	25.94
295.16	36.18
295.374	36.18
295.589	111.96
295.804	3.41
296.018	5.46
296.233	75.09
296.447	44.37
296.662	68.95
296.877	64.85
297.091	48.47
297.306	71
297.52	58.71
297.735	97.62
297.949	27.99
298.164	77.14
298.378	62.8
298.593	38.23
298.807	-6.83
299.022	75.09
299.236	107.86
299.451	85.33
299.665	21.85
299.88	23.89
300.094	89.43
300.309	62.8
300.523	52.56
300.737	83.28
300.952	32.08
301.166	7.51
301.381	48.47
301.595	58.71
301.809	38.23
302.024	11.61
302.238	11.61
302.452	118.1
302.667	27.99
302.881	109.91
303.095	52.56
303.309	81.24
303.524	1.37
303.738	83.28
303.952	71
304.166	62.8
304.381	32.08
304.595	101.72
304.809	-12.97
305.023	17.75
305.237	64.85
305.452	11.61
305.666	27.99
305.88	36.18
306.094	-17.07
306.308	60.76
306.522	66.9
306.736	5.46
306.95	34.13
307.164	42.32
307.379	54.61
307.593	144.72
307.807	79.19
308.021	5.46
308.235	103.76
308.449	-27.31
308.663	7.51
308.877	103.76
309.091	79.19
309.305	-2.73
309.519	32.08
309.733	107.86
309.947	36.18
310.161	83.28
310.374	85.33
310.588	23.89
310.802	30.04
311.016	60.76
311.23	-21.16
311.444	81.24
311.658	21.85
311.872	48.47
312.085	97.62
312.299	89.43
312.513	34.13
312.727	5.46
312.941	5.46
313.154	87.38
313.368	7.51
313.582	75.09
313.796	50.52
314.009	27.99
314.223	93.52
314.437	79.19
314.651	25.94
314.864	7.51
315.078	19.8
315.292	15.7
315.505	9.56
315.719	111.96
315.933	34.13
316.146	99.67
316.36	64.85
316.573	-0.68
316.787	48.47
317.001	93.52
317.214	44.37
317.428	95.57
317.641	-29.35
317.855	93.52
318.068	-53.93
318.282	71
318.495	50.52
318.709	58.71
318.922	60.76
319.136	111.96
319.349	38.23
319.563	9.56
319.776	40.28
319.99	1.37
320.203	-0.68
320.417	27.99
320.63	75.09
320.843	77.14
321.057	-33.45
321.27	-19.11
321.483	79.19
321.697	89.43
321.91	56.66
322.124	25.94
322.337	36.18
322.55	66.9
322.763	11.61
322.977	95.57
323.19	-0.68
323.403	91.48
323.617	71
323.83	85.33
324.043	-31.4
324.256	52.56
324.469	5.46
324.683	120.15
324.896	34.13
325.109	42.32
325.322	5.46
325.535	101.72
325.748	87.38
325.962	-0.68
326.175	77.14
326.388	46.42
326.601	42.32
326.814	71
327.027	34.13
327.24	122.2
327.453	87.38
327.666	44.37
327.879	87.38
328.092	97.62
328.305	52.56
328.518	56.66
328.731	-31.4
328.944	-31.4
329.157	77.14
329.37	3.41
329.583	103.76
329.796	87.38
330.009	25.94
330.222	54.61
330.435	54.61
330.648	38.23
330.861	122.2
331.073	83.28
331.286	109.91
331.499	62.8
331.712	-53.93
331.925	13.65
332.138	13.65
332.35	7.51
332.563	-21.16
332.776	159.06
332.989	-10.92
333.202	44.37
333.414	71
333.627	27.99
333.84	17.75
334.053	-8.87
334.265	42.32
334.478	60.76
334.691	71
334.903	17.75
335.116	42.32
335.329	11.61
335.541	81.24
335.754	101.72
335.966	48.47
336.179	89.43
336.392	60.76
336.604	68.95
336.817	83.28
337.029	68.95
337.242	30.04
337.454	81.24
337.667	56.66
337.88	77.14
338.092	64.85
338.305	81.24
338.517	5.46
338.729	89.43
338.942	46.42
339.154	75.09
339.367	81.24
339.579	130.39
339.792	-10.92
340.004	52.56
340.217	54.61
340.429	140.63
340.641	9.56
340.854	52.56
341.066	3.41
341.278	105.81
341.491	75.09
341.703	79.19
341.915	36.18
342.128	38.23
342.34	75.09
342.552	52.56
342.764	38.23
342.977	-10.92
343.189	91.48
343.401	62.8
343.613	-2.73
343.826	5.46
344.038	-23.21
344.25	30.04
344.462	-15.02
344.674	89.43
344.886	66.9
345.099	85.33
345.311	58.71
345.523	56.66
345.735	-43.69
345.947	1.37
346.159	1.37
346.371	40.28
346.583	93.52
346.795	71
347.007	50.52
347.219	89.43
347.431	1.37
347.643	126.29
347.855	56.66
348.067	56.66
348.279	1.37
348.491	21.85
348.703	83.28
348.915	42.32
349.127	13.65
349.339	60.76
349.551	-21.16
349.763	36.18
349.975	97.62
350.187	175.44
350.399	60.76
350.61	-0.68
350.822	81.24
351.034	11.61
351.246	73.04
351.458	60.76
351.669	89.43
351.881	58.71
352.093	122.2
352.305	19.8
352.517	32.08
352.728	48.47
352.94	52.56
353.152	77.14
353.363	62.8
353.575	73.04
353.787	109.91
353.999	3.41
354.21	126.29
354.422	89.43
354.633	-47.79
354.845	40.28
355.057	23.89
355.268	36.18
355.48	25.94
355.692	52.56
355.903	93.52
356.115	60.76
356.326	36.18
356.538	91.48
356.749	62.8
356.961	111.96
357.172	81.24
357.384	9.56
357.595	116.05
357.807	111.96
358.018	23.89
358.23	105.81
358.441	87.38
358.653	83.28
358.864	68.95
359.075	56.66
359.287	-6.83
359.498	89.43
359.709	89.43
359.921	40.28
360.132	15.7
360.344	-6.83
360.555	17.75
360.766	64.85
360.977	107.86
361.189	83.28
361.4	-10.92
361.611	144.72
361.823	-17.07
362.034	79.19
362.245	-10.92
362.456	62.8
362.667	79.19
362.879	81.24
363.09	83.28
363.301	66.9
363.512	48.47
363.723	13.65
363.935	64.85
364.146	91.48
364.357	-6.83
364.568	48.47
364.779	54.61
364.99	60.76
365.201	-12.97
365.412	91.48
365.623	21.85
365.834	19.8
366.045	62.8
366.256	27.99
366.467	21.85
366.678	103.76
366.889	9.56
367.1	40.28
367.311	99.67
367.522	75.09
367.733	13.65
367.944	1.37
368.155	79.19
368.366	64.85
368.577	79.19
368.788	124.24
368.999	83.28
369.209	75.09
369.42	120.15
369.631	107.86
369.842	87.38
370.053	-8.87
370.264	97.62
370.474	73.04
370.685	15.7
370.896	91.48
371.107	128.34
371.317	105.81
371.528	50.52
371.739	140.63
371.95	118.1
372.16	23.89
372.371	58.71
372.582	64.85
372.792	79.19
373.003	111.96
373.214	64.85
373.424	79.19
373.635	-35.5
373.846	62.8
374.056	30.04
374.267	66.9
374.477	93.52
374.688	54.61
374.898	87.38
375.109	118.1
375.319	101.72
375.53	64.85
375.74	48.47
375.951	97.62
376.161	13.65
376.372	52.56
376.582	77.14
376.793	56.66
377.003	-2.73
377.214	58.71
377.424	30.04
377.635	68.95
377.845	64.85
378.055	73.04
378.266	7.51
378.476	60.76
378.686	89.43
378.897	83.28
379.107	136.53
379.317	56.66
379.528	54.61
379.738	46.42
379.948	23.89
380.158	85.33
380.369	105.81
380.579	56.66
380.789	79.19
380.999	58.71
381.21	9.56
381.42	116.05
381.63	19.8
381.84	93.52
382.05	132.44
382.261	58.71
382.471	77.14
382.681	85.33
382.891	91.48
383.101	79.19
383.311	-4.78
383.521	3.41
383.731	34.13
383.941	107.86
384.151	56.66
384.361	54.61
384.571	46.42
384.781	71
384.991	85.33
385.201	95.57
385.411	75.09
385.621	48.47
385.831	103.76
386.041	34.13
386.251	1.37
386.461	124.24
386.671	50.52
386.881	87.38
387.091	15.7
387.301	122.2
387.511	71
387.72	99.67
387.93	87.38
388.14	-0.68
388.35	36.18
388.56	97.62
388.769	134.48
388.979	3.41
389.189	44.37
389.399	48.47
389.609	114
389.818	44.37
390.028	68.95
390.238	11.61
390.447	71
390.657	101.72
390.867	73.04
391.076	30.04
391.286	128.34
391.496	97.62
391.705	132.44
391.915	144.72
392.125	62.8
392.334	159.06
392.544	111.96
392.753	124.24
392.963	83.28
393.172	71
393.382	19.8
393.591	109.91
393.801	30.04
394.01	152.92
394.22	68.95
394.429	118.1
394.639	46.42
394.848	79.19
395.058	54.61
395.267	87.38
395.477	73.04
395.686	103.76
395.895	140.63
396.105	161.11
396.314	66.9
396.524	5.46
396.733	89.43
396.942	140.63
397.152	107.86
397.361	128.34
397.57	124.24
397.78	52.56
397.989	73.04
398.198	159.06
398.407	73.04
398.617	48.47
398.826	60.76
399.035	128.34
399.244	56.66
399.453	165.2
399.663	202.07
399.872	71
400.081	32.08
400.29	89.43
400.499	134.48
400.708	62.8
400.917	116.05
401.127	107.86
401.336	50.52
401.545	138.58
401.754	93.52
401.963	146.77
402.172	103.76
402.381	130.39
402.59	157.01
402.799	200.02
403.008	103.76
403.217	87.38
403.426	187.73
403.635	68.95
403.844	50.52
404.053	109.91
404.262	87.38
404.471	140.63
404.68	122.2
404.888	204.11
405.097	130.39
405.306	173.39
405.515	187.73
405.724	191.83
405.933	161.11
406.142	214.35
406.35	138.58
406.559	114
406.768	183.63
406.977	269.65
407.185	204.11
407.394	189.78
407.603	179.54
407.812	157.01
408.02	238.93
408.229	181.59
408.438	197.97
408.646	146.77
408.855	220.5
409.064	243.03
409.272	331.09
409.481	273.75
409.69	191.83
409.898	275.79
410.107	304.46
410.315	240.98
410.524	283.99
410.733	290.13
410.941	232.79
411.15	314.7
411.358	365.9
411.567	441.68
411.775	374.1
411.984	423.25
412.192	404.82
412.401	445.77
412.609	480.59
412.818	462.16
413.026	458.06
413.234	451.92
413.443	458.06
413.651	462.16
413.86	449.87
414.068	552.27
414.276	523.6
414.485	570.7
414.693	574.8
414.901	652.62
415.11	550.22
415.318	691.53
415.526	732.49
415.734	660.81
415.943	623.95
416.151	701.77
416.359	652.62
416.567	793.93
416.776	740.68
416.984	871.75
417.192	750.92
417.4	820.55
417.608	691.53
417.817	847.18
418.025	875.85
418.233	982.34
418.441	906.57
418.649	1041.73
418.857	1031.49
419.065	1142.08
419.273	1068.36
419.481	1185.09
419.689	1248.58
419.897	1307.97
420.105	1385.79
420.313	1350.98
420.521	1332.55
420.729	1387.84
420.937	1434.94
421.145	1480
421.353	1539.39
421.561	1639.74
421.769	1664.32
421.977	1836.35
422.185	1711.42
422.393	1838.39
422.601	1903.93
422.809	2002.23
423.017	1959.22
423.224	2090.29
423.432	2078.01
423.64	2149.68
423.848	2315.57
424.056	2336.05
424.263	2481.46
424.471	2377.01
424.679	2497.84
424.887	2594.09
425.094	2661.68
425.302	2751.79
425.51	2872.62
425.718	2946.34
425.925	2981.16
426.133	3028.26
426.341	3216.68
426.548	3263.78
426.756	3335.46
426.964	3419.43
427.171	3501.34
427.379	3603.74
427.586	3634.46
427.794	3716.38
428.001	3872.03
428.209	4109.59
428.417	4070.68
428.624	4410.64
428.832	4244.76
429.039	4521.23
429.247	4597.01
429.454	4715.79
429.662	5184.77
429.869	4799.76
430.076	5266.69
430.284	4959.5
430.491	5172.49
430.699	5543.17
430.906	5354.76
431.114	5643.52
431.321	5721.34
431.528	5887.23
431.736	6266.1
431.943	6534.39
432.15	6311.16
432.358	6481.14
432.565	6761.71
432.772	6745.33
432.979	7154.92
433.187	7249.13
433.394	7333.09
433.601	7826.65
433.808	7853.28
434.016	7730.4
434.223	8174.81
434.43	8658.13
434.637	8352.98
434.844	8930.51
435.052	9028.81
435.259	9100.49
435.466	9006.28
435.673	8989.9
435.88	9532.61
436.087	10104
436.294	10187.96
436.501	9809.09
436.708	10060.99
436.915	10308.79
437.122	10863.79
437.329	10769.58
437.537	11175.08
437.743	11394.22
437.95	11132.08
438.157	11889.82
438.364	12350.62
438.571	12078.24
438.778	12422.3
438.985	13624.45
439.192	12811.41
439.399	13249.68
439.606	13161.61
439.813	13823.11
440.02	14650.49
440.227	14552.18
440.433	14144.64
440.64	14750.84
440.847	14513.27
441.054	14873.71
441.261	16194.65
441.467	15813.73
441.674	16165.98
441.881	16630.87
442.088	16628.82
442.294	16632.92
442.501	16825.43
442.708	17083.47
442.914	17894.47
443.121	18814.01
443.328	18414.65
443.534	19579.95
443.741	19065.91
443.948	18902.07
444.154	19868.71
444.361	20339.74
444.568	20392.99
444.774	19993.64
444.981	20331.55
445.187	21023.76
445.394	21943.3
445.6	21971.97
445.807	23768.04
446.013	22750.2
446.22	23106.55
446.426	24013.8
446.633	24351.71
446.839	24941.53
447.046	23950.31
447.252	25521.1
447.459	25367.51
447.665	25330.64
447.871	26565.57
448.078	27679.66
448.284	26440.64
448.491	27020.22
448.697	28263.33
448.903	28685.22
449.11	28617.63
449.316	28228.52
449.522	28961.69
449.728	29543.31
449.935	29770.64
450.141	29684.62
450.347	30481.28
450.553	29164.44
450.76	29993.87
450.966	30749.57
451.172	30448.52
451.378	31179.64
451.584	30880.64
451.791	31554.42
451.997	31251.32
452.203	32086.89
452.409	31695.73
452.615	31898.48
452.821	30825.34
453.027	30270.34
453.233	31902.57
453.44	30835.58
453.646	31005.56
453.852	31126.39
454.058	31959.92
454.264	30913.41
454.47	31189.88
454.676	30702.46
454.882	31619.95
455.088	28730.27
455.294	29326.23
455.5	29748.11
455.705	30620.55
455.911	29033.37
456.117	28097.45
456.323	28400.55
456.529	26528.7
456.735	27761.58
456.941	26805.18
457.147	26760.12
457.352	26147.78
457.558	25551.82
457.764	25576.4
457.97	24925.14
458.176	24433.63
458.381	24454.11
458.587	23600.11
458.793	23389.17
458.999	22197.25
459.204	23929.83
459.41	22989.81
459.616	21617.68
459.821	21533.71
460.027	21781.51
460.233	21163.03
460.438	20294.69
460.644	20241.44
460.85	19352.62
461.055	18983.99
461.261	18893.88
461.466	17466.44
461.672	17015.89
461.878	18431.04
462.083	16921.68
462.289	16354.4
462.494	16518.23
462.7	15688.81
462.905	15404.14
463.111	16006.24
463.316	16100.45
463.522	15731.81
463.727	15692.9
463.932	15486.06
464.138	15223.92
464.343	15608.94
464.549	14959.73
464.754	15541.35
464.959	15322.22
465.165	15406.19
465.37	14642.29
465.575	14423.16
465.781	14765.17
465.986	14908.53
466.191	14509.18
466.397	14150.78
466.602	13395.08
466.807	13837.44
467.012	13976.7
467.218	13765.76
467.423	13728.9
467.628	13819.01
467.833	14369.91
468.038	14034.05
468.244	13704.32
468.449	14101.63
468.654	13450.38
468.859	13618.31
469.064	13315.21
469.269	13063.31
469.474	12924.05
469.679	13237.39
469.885	12860.56
470.09	13020.3
470.295	13022.35
470.5	12674.2
470.705	12539.03
470.91	12393.62
471.115	12342.42
471.32	12467.35
471.525	12356.76
471.73	12156.06
471.935	12338.33
472.139	11773.09
472.344	11816.1
472.549	11773.09
472.754	11539.62
472.959	11312.3
473.164	10976.43
473.369	10912.94
473.574	11457.7
473.778	11453.61
473.983	11127.98
474.188	10914.99
474.393	10646.71
474.598	10673.33
474.802	10577.08
475.007	10534.07
475.212	10581.17
475.417	10083.52
475.621	10366.14
475.826	10003.64
476.031	9991.36
476.235	9950.4
476.44	10071.23
476.645	9729.22
476.849	9741.5
477.054	9622.72
477.259	9546.95
477.463	9549
477.668	9000.14
477.872	9370.82
478.077	9344.2
478.282	8946.89
478.486	9045.2
478.691	8764.62
478.895	8932.56
479.1	9004.24
479.304	8746.19
479.509	8484.05
479.713	8723.66
479.918	8604.88
480.122	8363.22
480.326	8602.83
480.531	8436.95
480.735	8406.23
480.94	8320.21
481.144	8639.7
481.348	8113.37
481.553	8289.49
481.757	8002.78
481.961	8381.65
482.166	8299.73
482.37	8090.84
482.574	8201.43
482.778	8346.84
482.983	8332.5
483.187	8170.71
483.391	8359.13
483.595	8269.02
483.8	7996.64
484.004	8123.61
484.208	8355.03
484.412	8013.02
484.616	8377.56
484.821	8287.45
485.025	8111.32
485.229	8199.38
485.433	7957.72
485.637	8314.07
485.841	8142.04
486.045	8037.59
486.249	8291.54
486.453	8019.16
486.657	8256.73
486.861	7972.06
487.065	7840.99
487.269	8176.86
487.473	8082.65
487.677	8082.65
487.881	8291.54
488.085	8271.06
488.289	8299.73
488.493	8152.28
488.697	8309.97
488.901	8449.24
489.105	8131.8
489.309	8217.82
489.512	8146.14
489.716	8330.45
489.92	8099.03
490.124	8236.25
490.328	8221.91
490.531	8125.66
490.735	8281.3
490.939	8383.7
491.143	8445.14
491.346	8404.18
491.55	8537.3
491.754	8279.25
491.958	8705.23
492.161	8512.72
492.365	8873.17
492.569	8551.63
492.772	8475.86
492.976	8760.53
493.18	8809.68
493.383	8647.89
493.587	8891.6
493.79	9084.11
493.994	8811.73
494.197	8979.66
494.401	9176.27
494.605	9086.15
494.808	9049.29
495.012	9260.23
495.215	9182.41
495.419	9436.36
495.622	9178.31
495.825	9530.56
496.029	9577.67
496.232	9696.45
496.436	9682.11
496.639	9786.56
496.843	9764.03
497.046	9860.29
497.249	10153.15
497.453	10144.95
497.656	10370.23
497.859	10304.7
498.063	10427.57
498.266	10575.03
498.469	10544.31
498.673	10837.17
498.876	10871.98
499.079	10923.18
499.282	11015.34
499.485	11367.59
499.689	11322.54
499.892	11443.37
500.095	11447.46
500.298	11875.49
500.501	11717.79
500.705	12096.67
500.908	12280.99
501.111	12137.63
501.314	12328.09
501.517	12438.68
501.72	12739.73
501.923	12577.94
502.126	13038.73
502.329	13171.85
502.532	13147.28
502.735	13245.58
502.938	13632.65
503.141	13733
503.344	13796.48
503.547	13921.41
503.75	13855.87
503.953	14529.66
504.156	14349.43
504.359	14705.78
504.562	14877.81
504.765	14875.76
504.968	15166.57
505.17	15154.29
505.373	15055.98
505.576	15584.36
505.779	15793.25
505.982	16057.44
506.185	16135.26
506.387	16436.31
506.59	16266.33
506.793	16839.76
506.996	16802.9
507.198	16933.97
507.401	17146.96
507.604	17323.08
507.807	17605.7
508.009	17704.01
508.212	17808.45
508.415	18236.48
508.617	18289.73
508.82	18314.3
509.022	18850.87
509.225	18869.3
509.428	18996.28
509.63	19299.37
509.833	19209.26
510.035	19842.09
510.238	19493.93
510.44	19805.22
510.643	20354.08
510.845	20450.33
511.048	20173.86
511.25	20837.4
511.453	20911.13
511.655	21619.72
511.858	21517.32
512.06	21527.56
512.262	21642.25
512.465	21910.53
512.667	21996.55
512.87	22600.7
513.072	22670.33
513.274	23079.93
513.477	22825.98
513.679	23157.75
513.881	23669.74
514.084	23763.95
514.286	23604.21
514.488	23995.37
514.69	24716.25
514.893	24560.61
515.095	24667.1
515.297	25060.31
515.499	25340.88
515.701	25623.5
515.904	25775.05
516.106	26131.4
516.308	26018.76
516.51	26684.35
516.712	26565.57
516.914	26883
517.116	27397.04
517.318	27179.96
517.52	27526.07
517.722	28081.06
517.925	28068.78
518.127	28529.57
518.329	28797.85
518.531	28580.77
518.733	29311.89
518.935	29492.12
519.136	29260.69
519.338	30194.57
519.54	30188.42
519.742	30391.17
519.944	30638.98
520.146	31179.64
520.348	31284.09
520.55	31228.79
520.752	31542.13
520.954	31988.59
521.155	31986.54
521.357	31925.1
521.559	32557.92
521.761	32959.33
521.963	33022.81
522.164	33241.95
522.366	33592.15
522.568	33643.35
522.77	34063.18
522.971	34538.31
523.173	33889.1
523.375	34470.73
523.576	34460.49
523.778	34820.93
523.98	35443.51
524.181	35261.24
524.383	35406.65
524.584	35765.04
524.786	36023.09
524.988	35748.66
525.189	36051.76
525.391	36612.9
525.592	36606.76
525.794	36844.32
525.995	36909.86
526.197	36946.72
526.398	37264.16
526.6	37464.86
526.801	37403.42
527.003	37763.86
527.204	37892.88
527.406	37974.8
527.607	37954.32
527.808	38460.17
528.01	37733.14
528.211	38636.3
528.412	39049.99
528.614	38671.11
528.815	38818.57
529.016	39207.68
529.218	39072.51
529.419	39193.34
529.62	39680.76
529.822	39420.67
530.023	39588.6
530.224	39701.24
530.425	39652.09
530.626	39627.51
530.828	39262.97
531.029	40411.88
531.23	39496.44
531.431	39848.69
531.632	40403.69
531.833	40041.2
532.035	40151.79
532.236	40401.64
532.437	40198.9
532.638	40235.76
532.839	40418.03
533.04	40676.07
533.241	40289.01
533.442	41052.9
533.643	40553.19
533.844	40887.01
534.045	40637.16
534.246	40231.66
534.447	41192.16
534.648	40753.9
534.849	40739.56
535.05	40655.59
535.251	40872.68
535.451	40919.78
535.652	41024.23
535.853	40809.19
536.054	40585.96
536.255	40995.56
536.456	40624.87
536.657	41360.09
536.857	40483.56
537.058	40661.74
537.259	41290.46
537.46	41110.24
537.66	40999.65
537.861	41478.88
538.062	41429.73
538.263	40755.94
538.463	41233.12
538.664	40690.41
538.865	41052.9
539.065	41210.59
539.266	40796.9
539.466	41331.42
539.667	40614.63
539.868	41063.14
540.068	41257.7
540.269	41011.94
540.469	41233.12
540.67	41280.22
540.87	41276.13
541.071	40823.53
541.271	40997.6
541.472	41315.04
541.672	40811.24
541.873	41118.43
542.073	40557.29
542.274	41698.01
542.474	40930.02
542.675	41034.47
542.875	41263.84
543.075	40989.41
543.276	40864.49
543.476	41392.86
543.676	40944.36
543.877	41249.5
544.077	40637.16
544.277	41159.39
544.478	40801
544.678	41085.67
544.878	40686.31
545.078	41308.9
545.279	40921.83
545.479	40559.34
545.679	40938.21
545.879	41011.94
546.079	41073.38
546.28	41069.28
546.48	40692.46
546.68	41155.3
546.88	40983.27
547.08	40581.87
547.28	40903.4
547.48	40495.85
547.68	41589.47
547.88	40907.49
548.081	41220.83
548.281	40962.79
548.481	40520.43
548.681	41151.2
548.881	40536.81
549.081	41009.89
549.28	41194.21
549.48	41444.06
549.68	40706.79
549.88	40999.65
550.08	40528.62
550.28	40975.08
550.48	40870.63
550.68	41519.84
550.88	40948.45
551.08	40463.08
551.279	41052.9
551.479	40497.9
551.679	40741.61
551.879	40604.39
552.079	40844.01
552.278	40555.24
552.478	40794.85
552.678	40942.31
552.878	41151.2
553.077	40678.12
553.277	40454.89
553.477	41128.67
553.676	40520.43
553.876	40590.06
554.076	40483.56
554.275	40581.87
554.475	40299.25
554.674	40559.34
554.874	40528.62
555.074	40264.43
555.273	40284.91
555.473	40598.25
555.672	40217.33
555.872	40235.76
556.071	40532.71
556.271	40702.7
556.47	39910.13
556.67	40045.3
556.869	40207.09
557.068	40540.91
557.268	40063.73
557.467	40217.33
557.667	40133.36
557.866	40116.98
558.065	39992.05
558.265	39932.66
558.464	39439.1
558.663	39959.28
558.863	39408.38
559.062	40184.56
559.261	39721.72
559.461	39877.36
559.66	39461.63
559.859	39883.51
560.058	39518.97
560.258	39678.71
560.457	39441.15
560.656	39385.85
560.855	38877.96
561.054	39119.62
561.253	38859.52
561.453	39211.78
561.652	38980.35
561.851	39459.58
562.05	39121.66
562.249	38806.28
562.448	38980.35
562.647	38974.21
562.846	38701.83
563.045	38865.67
563.244	38247.18
563.443	39070.47
563.642	38023.95
563.841	38406.92
564.04	38136.59
564.239	38509.32
564.438	38261.52
564.637	38462.22
564.836	38523.66
565.035	38181.65
565.234	38460.17
565.432	37645.08
565.631	37792.53
565.83	38085.39
566.029	37589.78
566.228	37638.93
566.427	37862.16
566.625	37188.38
566.824	36946.72
567.023	37460.76
567.222	36580.14
567.42	37153.57
567.619	37094.18
567.818	36758.31
568.016	36944.67
568.215	37104.42
568.414	36553.51
568.612	37131.04
568.811	36500.26
569.01	36514.6
569.208	36139.82
569.407	36973.35
569.605	36184.88
569.804	36492.07
570.002	35904.31
570.201	36315.95
570.4	35908.4
570.598	35840.82
570.797	35617.59
570.995	35881.78
571.193	35414.84
571.392	35822.39
571.59	35351.35
571.789	35523.38
571.987	35394.36
572.186	35431.22
572.384	35273.53
572.582	35183.42
572.781	35005.25
572.979	34401.1
573.177	35072.83
573.376	34968.38
573.574	34517.83
573.772	34720.58
573.971	34429.77
574.169	34274.12
574.367	34171.72
574.565	34298.7
574.763	33993.55
574.962	34237.26
575.16	33915.73
575.358	33938.26
575.556	33760.08
575.754	33889.1
575.952	33373.02
576.151	33878.86
576.349	33370.97
576.547	33033.05
576.745	33327.96
576.943	33598.29
577.141	32912.22
577.339	32893.79
577.537	33018.72
577.735	32803.68
577.933	32547.68
578.131	32807.78
578.329	32541.54
578.527	32725.86
578.725	32164.71
578.923	32557.92
579.121	32209.77
579.319	32420.71
579.516	32422.76
579.714	32117.61
579.912	31744.88
580.11	32045.93
580.308	31902.57
580.506	32000.88
580.704	31236.98
580.901	31634.29
581.099	31878
581.297	31062.91
581.495	31064.96
581.692	31447.93
581.89	31148.92
582.088	30780.29
582.285	30870.4
582.483	31130.49
582.681	30821.25
582.878	30888.83
583.076	30770.05
583.274	30872.45
583.471	30260.1
583.669	30249.86
583.866	30266.25
584.064	30548.87
584.262	29791.12
584.459	30321.54
584.657	29870.99
584.854	30002.06
585.052	29561.75
585.249	30079.88
585.447	29660.05
585.644	29584.27
585.841	29389.72
586.039	29725.58
586.236	29094.81
586.434	29750.16
586.631	29146.01
586.828	29227.93
587.026	29234.07
587.223	28885.92
587.42	29004.7
587.618	29168.54
587.815	28605.34
588.012	28390.31
588.21	28396.45
588.407	28740.51
588.604	28234.66
588.801	28093.35
588.999	28212.13
589.196	28160.94
589.393	27874.22
589.59	28169.13
589.787	28091.3
589.984	27728.81
590.182	27861.93
590.379	27855.79
590.576	27653.04
590.773	27495.35
590.97	27464.63
591.167	27493.3
591.364	27354.04
591.561	27370.42
591.758	26956.73
591.955	26926.01
592.152	27128.76
592.349	27280.31
592.546	26524.61
592.743	26776.51
592.94	26590.14
593.137	26602.43
593.334	26598.34
593.531	26352.58
593.727	26391.49
593.924	26285
594.121	26352.58
594.318	26391.49
594.515	25693.13
594.712	26143.69
594.908	25816.01
595.105	26172.36
595.302	25222.1
595.499	26047.43
595.696	25478.1
595.892	25430.99
596.089	25502.67
596.286	25596.88
596.482	25269.2
596.679	25385.94
596.876	25273.3
597.072	25150.42
597.269	25181.14
597.466	24925.14
597.662	24878.04
597.859	25041.88
598.055	24923.1
598.252	24779.74
598.448	24357.86
598.645	24683.48
598.841	24280.03
599.038	24431.58
599.234	24216.55
599.431	24108.01
599.627	24065
599.824	24026.09
600.02	23585.77
600.217	23755.75
600.413	24026.09
600.609	23757.8
600.806	23761.9
601.002	23911.4
601.198	23661.55
601.395	23473.14
601.591	23538.67
601.787	23491.57
601.984	23251.95
602.18	23456.75
602.376	22985.72
602.572	22957.05
602.769	23184.37
602.965	22670.33
603.161	22694.91
603.357	22647.8
603.553	22760.44
603.75	22834.17
603.946	22647.8
604.142	22451.2
604.338	22393.86
604.534	22395.9
604.73	22379.52
604.926	22117.38
605.122	22039.56
605.318	22125.57
605.514	21810.18
605.71	21527.56
605.906	21736.46
606.102	21730.31
606.298	21871.62
606.494	21916.68
606.69	21527.56
606.886	21793.8
607.082	21441.55
607.278	21695.5
607.474	21193.75
607.67	21298.19
607.866	21087.25
608.062	21263.38
608.257	21197.84
608.453	21318.67
608.649	20982.81
608.845	20954.13
609.041	21150.74
609.236	21210.13
609.432	20829.21
609.628	21156.88
609.824	20835.35
610.019	20628.51
610.215	20618.27
610.411	20710.43
610.606	20583.45
610.802	20702.23
610.998	20558.88
611.193	20507.68
611.389	20630.55
611.584	20399.13
611.78	20231.2
611.976	20335.65
612.171	20382.75
612.367	20028.45
612.562	20182.05
612.758	19876.9
612.953	19870.76
613.149	20190.24
613.344	19848.23
613.539	20085.79
613.735	19758.12
613.93	19833.89
614.126	19932.2
614.321	20153.38
614.517	19915.81
614.712	19594.28
614.907	19647.53
615.103	19827.75
615.298	19512.36
615.493	19760.17
615.688	19371.05
615.884	19809.32
616.079	19387.44
616.274	19641.39
616.47	19373.1
616.665	18975.8
616.86	19125.3
617.055	19280.94
617.25	19084.34
617.445	19125.3
617.641	18947.12
617.836	19108.91
618.031	18824.25
618.226	18932.79
618.421	18689.08
618.616	19018.8
618.811	18431.04
619.006	19029.04
619.201	18373.69
619.396	18592.83
619.591	18240.57
619.786	18330.69
619.981	17824.84
620.176	18406.46
620.371	18017.35
620.566	18277.44
620.761	17939.52
620.956	18039.87
621.151	17771.59
621.346	17732.68
621.541	17620.04
621.735	17642.57
621.93	17460.3
622.125	17380.43
622.32	17257.55
622.515	17235.02
622.709	17189.97
622.904	17144.91
623.099	16927.83
623.294	16942.16
623.488	16831.57
623.683	16884.82
623.878	16297.05
624.072	16731.22
624.267	16532.57
624.462	16501.85
624.656	16075.87
624.851	16335.96
625.046	16088.16
625.24	15928.42
625.435	16047.2
625.629	16002.15
625.824	15914.08
626.018	16032.86
626.213	15510.63
626.407	15707.24
626.602	15389.8
626.796	15469.67
626.991	15383.66
627.185	15084.66
627.38	15203.44
627.574	14974.06
627.768	14775.41
627.963	15049.84
628.157	14668.92
628.352	14838.9
628.546	14623.86
628.74	14603.38
628.935	14738.55
629.129	14578.81
629.323	14314.62
629.517	14347.39
629.712	14169.21
629.906	14247.04
630.1	13786.24
630.294	13997.18
630.489	13845.63
630.683	13956.22
630.877	13712.52
631.071	13749.38
631.265	13706.37
631.459	13599.88
631.653	13583.49
631.848	13679.75
632.042	13372.55
632.236	13444.23
632.43	13141.13
632.624	13208.72
632.818	13239.44
633.012	12952.72
633.206	13040.78
633.4	12944.53
633.594	12706.96
633.788	12770.45
633.982	12483.73
634.176	12536.98
634.369	12586.13
634.563	12567.7
634.757	12416.15
634.951	12397.72
635.145	12287.13
635.339	12092.57
635.533	12258.46
635.726	12053.66
635.92	11977.89
636.114	11998.37
636.308	11736.23
636.501	11924.64
636.695	11699.36
636.889	11707.55
637.083	11574.44
637.276	11515.05
637.47	11492.52
637.664	11480.23
637.857	11318.44
638.051	11435.17
638.244	11437.22
638.438	11105.45
638.632	11199.66
638.825	10953.9
639.019	10933.42
639.212	10779.82
639.406	10945.71
639.599	10828.98
639.793	10810.54
639.986	10740.91
640.18	10691.76
640.373	10658.99
640.567	10593.46
640.76	10306.74
640.954	10515.64
641.147	10417.33
641.34	10355.9
641.534	10255.54
641.727	10263.74
641.92	10157.24
642.114	10173.63
642.307	9934.01
642.5	9950.4
642.694	9706.69
642.887	9770.18
643.08	9897.15
643.273	9778.37
643.467	9596.1
643.66	9514.18
643.853	9659.59
644.046	9399.49
644.239	9489.6
644.432	9262.28
644.626	9274.57
644.819	9338.05
645.012	9282.76
645.205	9376.97
645.398	9170.12
645.591	9082.06
645.784	9041.1
645.977	8924.37
646.17	9114.83
646.363	8848.59
646.556	8776.91
646.749	8754.38
646.942	8918.22
647.135	8654.03
647.328	8619.22
647.521	8572.11
647.714	8342.74
647.907	8549.59
648.099	8404.18
648.292	8604.88
648.485	8350.93
648.678	8262.87
648.871	8248.54
649.064	8078.55
649.256	8113.37
649.449	8139.99
649.642	8230.1
649.835	8019.16
650.027	7976.16
650.22	7855.33
650.413	7974.11
650.605	7879.9
650.798	7904.48
650.991	7738.59
651.183	7752.93
651.376	7560.42
651.568	7752.93
651.761	7636.19
651.954	7417.06
652.146	7574.75
652.339	7564.51
652.531	7470.31
652.724	7382.24
652.916	7128.3
653.109	7429.35
653.301	7165.16
653.494	7349.48
653.686	7234.79
653.879	7124.2
654.071	7013.61
654.263	7179.5
654.456	7029.99
654.648	7136.49
654.84	6960.36
655.033	6849.77
655.225	6946.03
655.417	6960.36
655.61	6884.59
655.802	6841.58
655.994	6886.64
656.186	6728.94
656.379	6737.13
656.571	6874.35
656.763	6583.54
656.955	6583.54
657.148	6638.83
657.34	6540.53
657.532	6434.04
657.724	6462.71
657.916	6354.16
658.108	6470.9
658.3	6399.22
658.492	6343.92
658.684	6241.53
658.876	6401.27
659.068	6092.02
659.26	6282.49
659.452	6077.69
659.644	6049.02
659.836	6151.42
660.028	6161.66
660.22	5995.77
660.412	5930.23
660.604	5852.41
660.796	5854.46
660.988	5989.63
661.18	5872.89
661.372	5754.11
661.563	5807.36
661.755	5672.19
661.947	5774.59
662.139	5639.42
662.331	5620.99
662.522	5649.66
662.714	5643.52
662.906	5549.31
663.097	5567.74
663.289	5481.73
663.481	5455.11
663.673	5432.58
663.864	5457.15
664.056	5362.95
664.247	5367.04
664.439	5276.93
664.631	5369.09
664.822	5463.3
665.014	5379.33
665.205	5295.36
665.397	5293.32
665.588	5252.36
665.78	5086.47
665.971	5203.21
666.163	5383.43
666.354	5106.95
666.546	5143.81
666.737	4879.63
666.929	4873.48
667.12	5117.19
667.311	5080.33
667.503	4994.31
667.694	4941.07
667.885	4848.91
668.077	4810
668.268	4812.04
668.459	4900.11
668.651	4785.42
668.842	4855.05
669.033	4734.22
669.224	4810
669.416	4764.94
669.607	4797.71
669.798	4719.89
669.989	4783.37
670.18	4615.44
670.371	4693.26
670.563	4662.54
670.754	4564.24
670.945	4533.52
671.136	4570.38
671.327	4482.32
671.518	4621.58
671.709	4467.99
671.9	4545.81
672.091	4570.38
672.282	4474.13
672.473	4443.41
672.664	4502.8
672.855	4457.75
673.046	4506.9
673.237	4398.35
673.428	4236.56
673.619	4416.79
673.809	4384.02
674	4207.89
674.191	4312.34
674.382	4203.8
674.573	4289.81
674.764	4328.72
674.954	4275.48
675.145	4283.67
675.336	4234.52
675.527	4246.8
675.717	4238.61
675.908	4044.06
676.099	4281.62
676.289	4119.83
676.48	4117.78
676.671	4115.73
676.861	4128.02
677.052	4228.37
677.243	4187.41
677.433	4162.84
677.624	4228.37
677.814	4181.27
678.005	4117.78
678.195	4128.02
678.386	4044.06
678.576	3996.95
678.767	4054.3
678.957	4019.48
679.148	4132.12
679.338	4158.74
679.529	3953.95
679.719	4179.22
679.909	3888.41
680.1	4064.54
680.29	4011.29
680.481	3915.03
680.671	4050.2
680.861	4001.05
681.052	4058.39
681.242	3915.03
681.432	3974.42
681.622	3888.41
681.813	3960.09
682.003	3906.84
682.193	3822.88
682.383	4015.38
682.573	3857.69
682.764	3904.79
682.954	3910.94
683.144	3892.51
683.334	3908.89
683.524	3966.23
683.714	4015.38
683.904	3806.49
684.094	3945.75
684.284	3882.27
684.474	3869.98
684.664	3900.7
684.854	3929.37
685.044	3865.88
685.234	3734.81
685.424	3736.86
685.614	3845.4
685.804	3822.88
685.994	3720.48
686.184	3894.55
686.374	3808.54
686.564	3804.44
686.753	3794.2
686.943	3747.1
687.133	3663.13
687.323	3642.65
687.513	3626.27
687.702	3640.61
687.892	3599.65
688.082	3693.85
688.272	3601.69
688.461	3683.61
688.651	3697.95
688.841	3697.95
689.03	3613.98
689.22	3642.65
689.41	3497.25
689.599	3554.59
689.789	3597.6
689.979	3325.22
690.168	3673.37
690.358	3581.21
690.547	3530.02
690.737	3532.06
690.926	3554.59
691.116	3509.54
691.305	3441.95
691.495	3400.99
691.684	3398.95
691.874	3480.86
692.063	3431.71
692.252	3366.18
692.442	3423.52
692.631	3288.36
692.82	3525.92
693.01	3331.36
693.199	3337.51
693.388	3261.73
693.578	3312.93
693.767	3253.54
693.956	3435.81
694.146	3360.03
694.335	3212.58
694.524	3384.61
694.713	3388.71
694.902	3310.88
695.092	3265.83
695.281	3214.63
695.47	3108.13
695.659	3222.82
695.848	3194.15
696.037	3276.07
696.226	3126.57
696.415	3224.87
696.604	3175.72
696.793	3216.68
696.982	3216.68
697.171	3196.2
697.36	3167.53
697.549	3120.42
697.738	3128.61
697.927	3149.09
698.116	3157.29
698.305	3087.65
698.494	3124.52
698.683	3155.24
698.872	3220.77
699.061	3202.34
699.25	3177.76
699.438	3130.66
699.627	3048.74
699.816	3200.29
700.005	3063.08
700.193	3300.64
700.382	3044.65
700.571	3179.81
700.76	3155.24
700.948	3249.44
701.137	3147.05
701.326	3147.05
701.514	3071.27
701.703	3175.72
701.892	3056.93
702.08	3216.68
702.269	3145
702.457	3056.93
702.646	3136.81
702.834	3026.22
703.023	3085.61
703.212	3028.26
703.4	3181.86
703.589	3093.8
703.777	3054.89
703.965	3052.84
704.154	3024.17
704.342	3003.69
704.531	3130.66
704.719	3038.5
704.907	3181.86
705.096	3093.8
705.284	3009.83
705.472	3056.93
705.661	3044.65
705.849	3063.08
706.037	3030.31
706.226	3061.03
706.414	3030.31
706.602	3077.41
706.79	3042.6
706.979	3036.45
707.167	3048.74
707.355	2993.45
707.543	2972.97
707.731	3118.37
707.919	3104.04
708.107	3001.64
708.296	3056.93
708.484	2893.1
708.672	3063.08
708.86	3015.98
709.048	2956.58
709.236	3087.65
709.424	2991.4
709.612	2948.39
709.8	2972.97
709.988	3013.93
710.176	3040.55
710.364	2952.49
710.551	3038.5
710.739	3038.5
710.927	2989.35
711.115	3026.22
711.303	2983.21
711.491	2968.87
711.679	2903.34
711.866	2950.44
712.054	3034.41
712.242	2921.77
712.43	2882.86
712.617	2905.39
712.805	2948.39
712.993	2899.24
713.181	2858.28
713.368	2938.15
713.556	2989.35
713.744	2901.29
713.931	2968.87
714.119	2995.5
714.306	2966.82
714.494	2946.34
714.682	2977.06
714.869	2942.25
715.057	2993.45
715.244	2932.01
715.432	2919.72
715.619	3159.33
715.807	2942.25
715.994	3030.31
716.182	2942.25
716.369	2735.4
716.556	3061.03
716.744	2880.81
716.931	2927.91
717.119	2886.95
717.306	3018.02
717.493	2870.57
717.681	2901.29
717.868	2972.97
718.055	2878.76
718.242	2999.59
718.43	2919.72
718.617	2905.39
718.804	2970.92
718.991	2886.95
719.179	2864.43
719.366	2796.84
719.553	2944.3
719.74	2889
719.927	2862.38
720.114	2917.67
720.301	2899.24
720.488	2880.81
720.676	2913.58
720.863	2907.43
721.05	2874.67
721.237	2837.8
721.424	2766.12
721.611	2831.66
721.798	2790.7
721.985	2854.19
722.172	2794.79
722.358	2755.88
722.545	2735.4
722.732	2901.29
722.919	2835.75
723.106	2845.99
723.293	2897.19
723.48	2839.85
723.667	2915.62
723.853	2663.72
724.04	2794.79
724.227	2811.18
724.414	2802.99
724.6	2704.68
724.787	2841.9
724.974	2813.23
725.161	2766.12
725.347	2802.99
725.534	2788.65
725.72	2696.49
725.907	2815.27
726.094	2823.47
726.28	2723.12
726.467	2702.64
726.653	2911.53
726.84	2712.88
727.027	2827.56
727.213	2710.83
727.4	2712.88
727.586	2751.79
727.773	2831.66
727.959	2653.48
728.145	2733.36
728.332	2622.77
728.518	2708.78
728.705	2776.36
728.891	2768.17
729.077	2712.88
729.264	2639.15
729.45	2655.53
729.636	2723.12
729.823	2729.26
730.009	2680.11
730.195	2645.29
730.382	2743.6
730.568	2678.06
730.754	2680.11
730.94	2626.86
731.126	2563.37
731.313	2704.68
731.499	2612.53
731.685	2723.12
731.871	2608.43
732.057	2669.87
732.243	2694.44
732.429	2645.29
732.615	2622.77
732.801	2655.53
732.987	2495.79
733.173	2639.15
733.359	2612.53
733.545	2635.05
733.731	2530.61
733.917	2530.61
734.103	2616.62
734.289	2639.15
734.475	2612.53
734.661	2565.42
734.847	2544.94
735.033	2637.1
735.219	2610.48
735.404	2534.7
735.59	2635.05
735.776	2620.72
735.962	2538.8
736.148	2555.18
736.333	2559.28
736.519	2499.89
736.705	2559.28
736.89	2555.18
737.076	2430.26
737.262	2532.65
737.447	2569.52
737.633	2524.46
737.819	2518.32
738.004	2546.99
738.19	2469.17
738.375	2573.61
738.561	2635.05
738.747	2536.75
738.932	2598.19
739.118	2557.23
739.303	2485.55
739.489	2487.6
739.674	2544.94
739.859	2463.02
740.045	2518.32
740.23	2471.22
740.416	2440.5
740.601	2465.07
740.786	2344.24
740.972	2428.21
741.157	2440.5
741.342	2434.35
741.528	2411.82
741.713	2403.63
741.898	2374.96
742.084	2331.95
742.269	2307.38
742.454	2315.57
742.639	2364.72
742.824	2215.22
743.01	2305.33
743.195	2284.85
743.38	2334
743.565	2239.8
743.75	2256.18
743.935	2213.17
744.12	2340.15
744.305	2106.68
744.49	2290.99
744.675	2180.4
744.86	2182.45
745.045	2141.49
745.23	2188.6
745.415	2180.4
745.6	2217.27
745.785	2233.65
745.97	2110.77
746.155	2078.01
746.34	2178.36
746.525	2164.02
746.71	2170.16
746.895	2094.39
747.079	2090.29
747.264	1969.46
747.449	2084.15
747.634	1975.61
747.819	2159.92
748.003	2002.23
748.188	1959.22
748.373	1991.99
748.557	2006.33
748.742	2030.9
748.927	1967.42
749.111	1862.97
749.296	1983.8
749.481	1936.7
749.665	1891.64
749.85	1883.45
750.034	1905.98
750.219	1887.54
750.404	1887.54
750.588	1711.42
750.773	1701.18
750.957	1903.93
751.141	1828.15
751.326	1787.19
751.51	1754.43
751.695	1805.63
751.879	1871.16
752.064	1652.03
752.248	1766.71
752.432	1744.19
752.617	1666.36
752.801	1764.67
752.985	1641.79
753.17	1699.13
753.354	1707.32
753.538	1768.76
753.722	1584.45
753.907	1623.36
754.091	1643.84
754.275	1598.78
754.459	1535.29
754.643	1570.11
754.828	1572.16
755.012	1586.49
755.196	1514.81
755.38	1543.49
755.564	1629.5
755.748	1535.29
755.932	1500.48
756.116	1518.91
756.3	1420.61
756.484	1537.34
756.668	1502.53
756.852	1451.33
757.036	1467.71
757.22	1357.12
757.404	1383.74
757.588	1330.5
757.772	1465.66
757.956	1449.28
758.14	1451.33
758.323	1322.31
758.507	1488.19
758.691	1371.46
758.875	1293.63
759.059	1338.69
759.242	1361.22
759.426	1371.46
759.61	1326.4
759.794	1312.07
759.977	1211.71
760.161	1289.54
760.345	1334.59
760.528	1326.4
760.712	1230.15
760.895	1219.91
761.079	1240.39
761.263	1361.22
761.446	1150.28
761.63	1207.62
761.813	1217.86
761.997	1250.63
762.18	1195.33
762.364	1117.51
762.547	1183.04
762.731	1107.27
762.914	1287.49
763.098	1178.95
763.281	1101.12
763.464	1207.62
763.648	1246.53
763.831	1123.65
764.015	1125.7
764.198	1107.27
764.381	1146.18
764.564	1070.4
764.748	1090.88
764.931	1105.22
765.114	1101.12
765.297	1127.75
765.481	1172.8
765.664	1178.95
765.847	1144.13
766.03	1035.59
766.213	992.58
766.397	1084.74
766.58	1023.3
766.763	1060.17
766.946	1000.77
767.129	1045.83
767.312	1021.25
767.495	1062.21
767.678	1008.97
767.861	1137.99
768.044	1035.59
768.227	1117.51
768.41	1025.35
768.593	974.15
768.776	1109.32
768.959	988.49
769.142	1011.01
769.324	1086.79
769.507	1011.01
769.69	1004.87
769.873	941.38
770.056	951.62
770.239	941.38
770.421	965.96
770.604	941.38
770.787	875.85
770.97	947.53
771.152	822.6
771.335	853.32
771.518	916.81
771.7	902.47
771.883	961.86
772.066	812.36
772.248	820.55
772.431	873.8
772.613	865.61
772.796	953.67
772.978	902.47
773.161	914.76
773.343	898.38
773.526	843.08
773.708	769.35
773.891	812.36
774.073	763.21
774.256	814.41
774.438	838.98
774.621	800.07
774.803	841.03
774.985	779.59
775.168	894.28
775.35	781.64
775.532	857.42
775.715	759.11
775.897	791.88
776.079	804.17
776.261	791.88
776.444	724.3
776.626	709.96
776.808	726.35
776.99	732.49
777.173	787.79
777.355	761.16
777.537	726.35
777.719	779.59
777.901	777.55
778.083	718.15
778.265	744.78
778.447	687.43
778.629	646.48
778.811	744.78
778.993	671.05
779.175	722.25
779.357	697.67
779.539	576.84
779.721	697.67
779.903	750.92
780.085	644.43
780.267	626
780.449	632.14
780.631	650.57
780.812	646.48
780.994	613.71
781.176	646.48
781.358	689.48
781.54	572.75
781.721	677.19
781.903	628.04
782.085	556.36
782.267	685.39
782.448	595.28
782.63	560.46
782.812	585.04
782.993	617.8
783.175	599.37
783.357	552.27
783.538	556.36
783.72	560.46
783.901	576.84
784.083	582.99
784.264	572.75
784.446	554.32
784.627	574.8
784.809	593.23
784.99	482.64
785.172	464.21
785.353	488.78
785.535	607.56
785.716	515.41
785.897	445.77
786.079	554.32
786.26	564.56
786.441	492.88
786.623	456.01
786.804	423.25
786.985	509.26
787.167	431.44
787.348	517.45
787.529	468.3
787.71	527.69
787.891	505.17
788.073	388.43
788.254	421.2
788.435	474.45
788.616	513.36
788.797	421.2
788.978	431.44
789.159	558.41
789.34	419.15
789.522	513.36
789.703	376.14
789.884	419.15
790.065	460.11
790.246	441.68
790.427	415.06
790.607	386.38
790.788	433.49
790.969	312.66
791.15	419.15
791.331	406.86
791.512	404.82
791.693	398.67
791.874	423.25
792.054	392.53
792.235	402.77
792.416	333.14
792.597	447.82
792.778	322.9
792.958	343.38
793.139	341.33
793.32	355.66
793.5	384.34
793.681	324.94
793.862	333.14
794.042	304.46
794.223	359.76
794.404	335.18
794.584	361.81
794.765	382.29
794.945	390.48
795.126	351.57
795.306	353.62
795.487	320.85
795.667	326.99
795.848	324.94
796.028	308.56
796.209	367.95
796.389	326.99
796.57	341.33
796.75	283.99
796.93	302.42
797.111	335.18
797.291	355.66
797.471	249.17
797.652	308.56
797.832	257.36
798.012	339.28
798.192	357.71
798.373	249.17
798.553	234.83
798.733	245.07
798.913	324.94
799.093	331.09
799.274	300.37
799.454	286.03
799.634	273.75
799.814	306.51
799.994	302.42
800.174	314.7
800.354	236.88
800.534	275.79
800.714	320.85
800.894	347.47
801.074	275.79
801.254	290.13
801.434	286.03
801.614	322.9
801.794	316.75
801.974	636.24
802.154	253.27
802.334	271.7
802.514	300.37
802.693	220.5
802.873	189.78
803.053	251.22
803.233	308.56
803.413	185.68
803.592	185.68
803.772	202.07
803.952	292.18
804.131	247.12
804.311	273.75
804.491	314.7
804.67	202.07
804.85	247.12
805.03	195.92
805.209	161.11
805.389	238.93
805.568	216.4
805.748	206.16
805.928	214.35
806.107	286.03
806.287	238.93
806.466	177.49
806.646	148.82
806.825	167.25
807.004	202.07
807.184	228.69
807.363	202.07
807.543	210.26
807.722	247.12
807.901	271.7
808.081	247.12
808.26	189.78
808.439	222.55
808.619	247.12
808.798	220.5
808.977	185.68
809.156	304.46
809.336	163.15
809.515	189.78
809.694	179.54
809.873	183.63
810.052	197.97
810.231	206.16
810.411	206.16
810.59	232.79
810.769	157.01
810.948	214.35
811.127	191.83
811.306	226.64
811.485	165.2
811.664	169.3
811.843	210.26
812.022	240.98
812.201	81.24
812.38	200.02
812.559	177.49
812.737	152.92
812.916	142.68
813.095	234.83
813.274	218.45
813.453	144.72
813.632	214.35
813.811	257.36
813.989	175.44
814.168	142.68
814.347	165.2
814.526	163.15
814.704	216.4
814.883	161.11
815.062	171.35
815.24	220.5
815.419	159.06
815.598	185.68
815.776	224.59
815.955	195.92
816.133	206.16
816.312	183.63
816.49	146.77
816.669	175.44
816.847	148.82
817.026	169.3
817.204	95.57
817.383	138.58
817.561	134.48
817.74	118.1
817.918	167.25
818.097	150.87
818.275	189.78
818.453	91.48
818.632	109.91
818.81	122.2
818.988	68.95
819.167	101.72
819.345	138.58
819.523	124.24
819.701	91.48
819.879	171.35
820.058	204.11
820.236	167.25
820.414	118.1
820.592	157.01
820.77	116.05
820.948	161.11
821.127	191.83
821.305	152.92
821.483	126.29
821.661	114
821.839	146.77
822.017	107.86
822.195	169.3
822.373	212.31
822.551	120.15
822.729	130.39
822.907	191.83
823.085	132.44
823.262	171.35
823.44	152.92
823.618	75.09
823.796	148.82
823.974	132.44
824.152	150.87
824.329	87.38
824.507	148.82
824.685	140.63
824.863	103.76
825.04	173.39
825.218	25.94
825.396	50.52
825.574	89.43
825.751	97.62
825.929	161.11
826.107	105.81
826.284	134.48
826.462	95.57
826.639	124.24
826.817	73.04
826.994	200.02
827.172	89.43
827.349	161.11
827.527	62.8
827.704	134.48
827.882	197.97
828.059	95.57
828.237	111.96
828.414	173.39
828.591	77.14
828.769	154.96
828.946	48.47
829.124	159.06
829.301	130.39
829.478	60.76
829.655	134.48
829.833	142.68
830.01	95.57
830.187	95.57
830.364	118.1
830.542	101.72
830.719	157.01
830.896	187.73
831.073	99.67
831.25	136.53
831.427	97.62
831.604	146.77
831.782	152.92
831.959	150.87
832.136	114
832.313	89.43
832.49	128.34
832.667	159.06
832.844	54.61
833.021	167.25
833.198	126.29
833.374	99.67
833.551	136.53
833.728	165.2
833.905	144.72
834.082	66.9
834.259	107.86
834.436	126.29
834.612	103.76
834.789	95.57
834.966	91.48
835.143	44.37
835.319	46.42
835.496	13.65
835.673	91.48
835.85	52.56
836.026	73.04
836.203	148.82
836.38	25.94
836.556	60.76
836.733	73.04
836.909	159.06
837.086	32.08
837.262	60.76
837.439	107.86
837.616	103.76
837.792	68.95
837.968	154.96
838.145	77.14
838.321	30.04
838.498	71
838.674	152.92
838.851	81.24
839.027	25.94
839.203	132.44
839.38	116.05
839.556	23.89
839.732	101.72
839.909	25.94
840.085	34.13
840.261	52.56
840.437	101.72
840.614	79.19
840.79	136.53
840.966	95.57
841.142	15.7
841.318	21.85
841.494	120.15
841.671	105.81
841.847	50.52
842.023	48.47
842.199	101.72
842.375	124.24
842.551	66.9
842.727	42.32
842.903	46.42
843.079	34.13
843.255	146.77
843.431	62.8
843.607	48.47
843.783	46.42
843.959	91.48
844.134	89.43
844.31	116.05
844.486	52.56
844.662	154.96
844.838	15.7
845.013	30.04
845.189	136.53
845.365	56.66
845.541	124.24
845.716	25.94
845.892	34.13
846.068	19.8
846.244	46.42
846.419	46.42
846.595	-6.83
846.77	62.8
846.946	89.43
847.122	34.13
847.297	46.42
847.473	48.47
847.648	-6.83
847.824	42.32
847.999	93.52
848.175	36.18
848.35	27.99
848.526	111.96
848.701	27.99
848.876	-25.26
849.052	21.85
849.227	62.8
849.403	9.56
849.578	38.23
849.753	77.14
849.929	73.04
850.104	13.65
850.279	154.96
850.454	-0.68
850.63	68.95
850.805	68.95
850.98	56.66
851.155	9.56
851.33	42.32
851.505	32.08
851.681	87.38
851.856	46.42
852.031	134.48
852.206	-6.83
852.381	89.43
852.556	15.7
852.731	-47.79
852.906	56.66
853.081	50.52
853.256	87.38
853.431	77.14
853.606	34.13
853.781	1.37
853.956	73.04
854.131	56.66
854.305	9.56
854.48	105.81
854.655	27.99
854.83	56.66
855.005	52.56
855.18	91.48
855.354	83.28
855.529	30.04
855.704	83.28
855.879	7.51
856.053	107.86
856.228	60.76
856.403	54.61
856.577	44.37
856.752	46.42
856.926	93.52
857.101	58.71
857.276	46.42
857.45	34.13
857.625	42.32
857.799	-33.45
857.974	27.99
858.148	60.76
858.323	66.9
858.497	52.56
858.672	85.33
858.846	83.28
859.02	66.9
859.195	-39.59
859.369	5.46
859.543	50.52
859.718	83.28
859.892	54.61
860.066	77.14
860.241	-35.5
860.415	30.04
860.589	40.28
860.763	101.72
860.938	103.76
861.112	66.9
861.286	64.85
861.46	85.33
861.634	60.76
861.808	60.76
861.982	13.65
862.157	-6.83
862.331	15.7
862.505	-0.68
862.679	56.66
862.853	11.61
863.027	-2.73
863.201	56.66
863.375	64.85
863.549	52.56
863.722	79.19
863.896	140.63
864.07	64.85
864.244	132.44
864.418	34.13
864.592	66.9
864.766	-0.68
864.939	99.67
865.113	-8.87
865.287	103.76
865.461	54.61
865.634	9.56
865.808	68.95
865.982	-31.4
866.156	73.04
866.329	81.24
866.503	54.61
866.676	52.56
866.85	9.56
867.024	38.23
867.197	89.43
867.371	50.52
867.544	77.14
867.718	44.37
867.891	36.18
868.065	52.56
868.238	13.65
868.412	118.1
868.585	103.76
868.759	-2.73
868.932	52.56
869.105	-33.45
869.279	38.23
869.452	-12.97
869.625	101.72
869.799	11.61
869.972	-45.74
870.145	54.61
870.319	30.04
870.492	1.37
870.665	30.04
870.838	66.9
871.011	-37.55
871.185	91.48
871.358	71
871.531	56.66
871.704	-4.78
871.877	25.94
872.05	56.66
872.223	62.8
872.396	71
872.569	30.04
872.742	38.23
872.915	15.7
873.088	-12.97
873.261	-41.64
873.434	71
873.607	3.41
873.78	27.99
873.953	21.85
874.126	73.04
874.299	40.28
874.471	-78.51
874.644	50.52
874.817	3.41
874.99	62.8
875.163	36.18
875.335	89.43
875.508	15.7
875.681	81.24
875.853	62.8
876.026	50.52
876.199	27.99
876.371	89.43
876.544	71
876.717	87.38
876.889	-25.26
877.062	46.42
877.234	17.75
877.407	-0.68
877.579	-0.68
877.752	56.66
877.924	62.8
878.097	56.66
878.269	13.65
878.442	107.86
878.614	-6.83
878.786	-8.87
878.959	97.62
879.131	50.52
879.303	34.13
879.476	48.47
879.648	19.8
879.82	7.51
879.993	40.28
880.165	40.28
880.337	-35.5
880.509	40.28
880.681	48.47
880.854	3.41
881.026	54.61
881.198	21.85
881.37	7.51
881.542	38.23
881.714	111.96
881.886	30.04
882.058	7.51
882.23	-15.02
882.402	19.8
882.574	15.7
882.746	50.52
882.918	13.65
883.09	62.8
883.262	9.56
883.434	-29.35
883.606	62.8
883.778	79.19
883.95	58.71
884.122	50.52
884.293	30.04
884.465	11.61
884.637	73.04
884.809	30.04
884.98	34.13
885.152	52.56
885.324	13.65
885.496	-12.97
885.667	99.67
885.839	-19.11
886.011	83.28
886.182	15.7
886.354	42.32
886.525	48.47
886.697	7.51
886.869	99.67
887.04	-6.83
887.212	17.75
887.383	30.04
887.555	32.08
887.726	27.99
887.897	-25.26
888.069	30.04
888.24	42.32
888.412	34.13
888.583	1.37
888.754	48.47
888.926	34.13
889.097	62.8
889.268	62.8
889.44	60.76
889.611	44.37
889.782	1.37
889.953	44.37
890.125	11.61
890.296	44.37
890.467	-27.31
890.638	66.9
890.809	-15.02
890.98	9.56
891.151	38.23
891.323	-4.78
891.494	-2.73
891.665	-53.93
891.836	25.94
892.007	-41.64
892.178	17.75
892.349	89.43
892.52	71
892.691	21.85
892.862	-25.26
893.032	-58.03
893.203	-17.07
893.374	1.37
893.545	5.46
893.716	34.13
893.887	42.32
894.057	3.41
894.228	64.85
894.399	-19.11
894.57	75.09
894.74	-64.17
894.911	73.04
895.082	66.9
895.253	7.51
895.423	81.24
895.594	77.14
895.764	13.65
895.935	-2.73
896.106	48.47
896.276	9.56
896.447	56.66
896.617	-2.73
896.788	11.61
896.958	-37.55
897.129	-4.78
897.299	-8.87
897.47	-10.92
897.64	42.32
897.81	-70.31
897.981	36.18
898.151	13.65
898.322	109.91
898.492	9.56
898.662	34.13
898.832	34.13
899.003	5.46
899.173	5.46
899.343	62.8
899.513	13.65
