Data from USB4F104151__31__11-51-38-328.txt Node

Date: Fri Mar 14 11:51:38 EDT 2025
User: louis
Spectrometer: USB4F10415
Trigger mode: 4
Integration Time (sec): 2.000000E-2
Scans to average: 1
Electric dark correction enabled: true
Nonlinearity correction enabled: false
Boxcar width: 0
XAxis mode: Wavelengths
Number of Pixels in Spectrum: 3648
>>>>>Begin Spectral Data<<<<<
178.204	-152.06
178.424	-152.06
178.644	-152.06
178.864	-104.96
179.084	-94.72
179.304	11.78
179.524	-70.14
179.744	48.64
179.964	-31.23
180.184	-84.48
180.404	46.59
180.624	-84.48
180.844	-37.38
181.064	83.45
181.283	44.54
181.503	52.74
181.723	19.97
181.943	-27.14
182.163	28.16
182.383	-10.75
182.602	73.21
182.822	13.82
183.042	9.73
183.262	46.59
183.482	19.97
183.701	-16.9
183.921	-6.66
184.141	-16.9
184.361	56.83
184.58	-49.66
184.8	-45.57
185.02	-45.57
185.239	26.11
185.459	46.59
185.679	99.84
185.898	-6.66
186.118	-57.86
186.338	-18.94
186.557	-55.81
186.777	-18.94
186.997	-23.04
187.216	-27.14
187.436	11.78
187.655	7.68
187.875	19.97
188.095	-2.56
188.314	26.11
188.534	56.83
188.753	-12.8
188.973	-14.85
189.192	-0.51
189.412	44.54
189.631	24.06
189.851	-37.38
190.07	52.74
190.29	-41.47
190.509	-0.51
190.729	44.54
190.948	13.82
191.168	105.98
191.387	36.35
191.607	1.54
191.826	36.35
192.045	30.21
192.265	17.92
192.484	34.3
192.704	13.82
192.923	-41.47
193.142	58.88
193.362	5.63
193.581	69.12
193.8	-66.05
194.02	22.02
194.239	-8.7
194.458	24.06
194.678	17.92
194.897	-37.38
195.116	13.82
195.335	60.93
195.555	1.54
195.774	-6.66
195.993	19.97
196.212	-20.99
196.432	-27.14
196.651	62.98
196.87	-8.7
197.089	34.3
197.308	50.69
197.528	5.63
197.747	42.5
197.966	26.11
198.185	34.3
198.404	42.5
198.623	-10.75
198.842	30.21
199.062	-2.56
199.281	36.35
199.5	-27.14
199.719	-31.23
199.938	28.16
200.157	42.5
200.376	-18.94
200.595	15.87
200.814	-27.14
201.033	40.45
201.252	-20.99
201.471	-25.09
201.69	36.35
201.909	7.68
202.128	7.68
202.347	40.45
202.566	-10.75
202.785	40.45
203.004	-25.09
203.223	13.82
203.442	9.73
203.661	36.35
203.879	95.74
204.098	30.21
204.317	3.58
204.536	79.36
204.755	65.02
204.974	-47.62
205.193	32.26
205.411	46.59
205.63	40.45
205.849	79.36
206.068	1.54
206.287	3.58
206.505	26.11
206.724	-6.66
206.943	-4.61
207.162	1.54
207.381	7.68
207.599	-18.94
207.818	19.97
208.037	3.58
208.255	-25.09
208.474	-41.47
208.693	-35.33
208.911	-16.9
209.13	-74.24
209.349	93.69
209.567	1.54
209.786	30.21
210.005	42.5
210.223	-12.8
210.442	-14.85
210.661	5.63
210.879	-10.75
211.098	-35.33
211.316	22.02
211.535	17.92
211.753	60.93
211.972	19.97
212.191	-20.99
212.409	-37.38
212.628	-70.14
212.846	-31.23
213.065	3.58
213.283	1.54
213.502	-4.61
213.72	52.74
213.938	-2.56
214.157	48.64
214.375	-6.66
214.594	-23.04
214.812	-0.51
215.031	60.93
215.249	-4.61
215.467	3.58
215.686	24.06
215.904	-0.51
216.122	9.73
216.341	28.16
216.559	-27.14
216.778	19.97
216.996	62.98
217.214	62.98
217.432	-12.8
217.651	1.54
217.869	15.87
218.087	13.82
218.306	32.26
218.524	1.54
218.742	93.69
218.96	36.35
219.179	-74.24
219.397	-12.8
219.615	44.54
219.833	17.92
220.051	65.02
220.27	69.12
220.488	69.12
220.706	5.63
220.924	-14.85
221.142	56.83
221.36	1.54
221.578	-6.66
221.796	13.82
222.015	-37.38
222.233	28.16
222.451	24.06
222.669	22.02
222.887	65.02
223.105	32.26
223.323	81.41
223.541	15.87
223.759	28.16
223.977	15.87
224.195	48.64
224.413	-27.14
224.631	-6.66
224.849	26.11
225.067	110.08
225.285	-14.85
225.503	-6.66
225.721	34.3
225.939	9.73
226.157	54.78
226.375	1.54
226.592	-14.85
226.81	11.78
227.028	32.26
227.246	3.58
227.464	75.26
227.682	17.92
227.9	56.83
228.117	38.4
228.335	-31.23
228.553	-4.61
228.771	-57.86
228.989	52.74
229.206	-2.56
229.424	5.63
229.642	56.83
229.86	56.83
230.077	-59.9
230.295	-47.62
230.513	36.35
230.731	58.88
230.948	42.5
231.166	-25.09
231.384	28.16
231.601	38.4
231.819	26.11
232.037	-8.7
232.254	-31.23
232.472	-4.61
232.689	28.16
232.907	58.88
233.125	34.3
233.342	42.5
233.56	26.11
233.777	3.58
233.995	54.78
234.213	44.54
234.43	5.63
234.648	28.16
234.865	54.78
235.083	5.63
235.3	28.16
235.518	-33.28
235.735	32.26
235.953	28.16
236.17	11.78
236.388	65.02
236.605	11.78
236.822	28.16
237.04	77.31
237.257	-0.51
237.475	1.54
237.692	34.3
237.909	69.12
238.127	-41.47
238.344	81.41
238.562	-6.66
238.779	48.64
238.996	22.02
239.214	1.54
239.431	7.68
239.648	26.11
239.865	62.98
240.083	-14.85
240.3	-39.42
240.517	-23.04
240.735	-0.51
240.952	-39.42
241.169	9.73
241.386	30.21
241.603	-35.33
241.821	15.87
242.038	-25.09
242.255	-2.56
242.472	-12.8
242.689	-23.04
242.907	42.5
243.124	34.3
243.341	-6.66
243.558	1.54
243.775	-23.04
243.992	-10.75
244.209	-6.66
244.426	48.64
244.643	38.4
244.86	-82.43
245.078	83.45
245.295	48.64
245.512	77.31
245.729	-57.86
245.946	34.3
246.163	-23.04
246.38	67.07
246.597	30.21
246.814	17.92
247.031	3.58
247.248	73.21
247.464	-76.29
247.681	52.74
247.898	34.3
248.115	48.64
248.332	-66.05
248.549	-16.9
248.766	3.58
248.983	38.4
249.2	3.58
249.417	26.11
249.633	3.58
249.85	85.5
250.067	-33.28
250.284	93.69
250.501	-14.85
250.717	-37.38
250.934	-35.33
251.151	-0.51
251.368	7.68
251.585	-20.99
251.801	42.5
252.018	-2.56
252.235	-12.8
252.451	32.26
252.668	-29.18
252.885	5.63
253.102	-18.94
253.318	-20.99
253.535	34.3
253.752	36.35
253.968	13.82
254.185	-12.8
254.401	24.06
254.618	-35.33
254.835	-2.56
255.051	-14.85
255.268	19.97
255.484	69.12
255.701	-41.47
255.917	15.87
256.134	56.83
256.351	-41.47
256.567	95.74
256.784	48.64
257	19.97
257.217	30.21
257.433	24.06
257.65	1.54
257.866	-0.51
258.082	-27.14
258.299	-2.56
258.515	54.78
258.732	36.35
258.948	17.92
259.165	28.16
259.381	-4.61
259.597	-35.33
259.814	50.69
260.03	44.54
260.246	-20.99
260.463	17.92
260.679	28.16
260.895	-23.04
261.112	17.92
261.328	-29.18
261.544	-37.38
261.761	32.26
261.977	-6.66
262.193	-49.66
262.409	-29.18
262.626	40.45
262.842	-0.51
263.058	-8.7
263.274	17.92
263.49	-10.75
263.707	-31.23
263.923	32.26
264.139	9.73
264.355	13.82
264.571	52.74
264.787	3.58
265.004	22.02
265.22	-25.09
265.436	-23.04
265.652	36.35
265.868	-20.99
266.084	34.3
266.3	-10.75
266.516	-0.51
266.732	36.35
266.948	40.45
267.164	-14.85
267.38	85.5
267.596	32.26
267.812	-47.62
268.028	3.58
268.244	-18.94
268.46	44.54
268.676	48.64
268.892	69.12
269.108	11.78
269.324	-78.33
269.54	24.06
269.756	-8.7
269.972	17.92
270.188	13.82
270.403	-14.85
270.619	3.58
270.835	3.58
271.051	36.35
271.267	-45.57
271.483	-18.94
271.698	50.69
271.914	48.64
272.13	101.89
272.346	67.07
272.562	24.06
272.777	1.54
272.993	-35.33
273.209	-10.75
273.425	1.54
273.64	-29.18
273.856	30.21
274.072	32.26
274.287	-70.14
274.503	5.63
274.719	24.06
274.934	17.92
275.15	28.16
275.366	-4.61
275.581	-39.42
275.797	1.54
276.012	15.87
276.228	19.97
276.444	-41.47
276.659	73.21
276.875	24.06
277.09	28.16
277.306	-18.94
277.521	15.87
277.737	19.97
277.952	73.21
278.168	32.26
278.383	42.5
278.599	50.69
278.814	28.16
279.03	-6.66
279.245	83.45
279.461	15.87
279.676	1.54
279.892	-57.86
280.107	-6.66
280.322	-49.66
280.538	60.93
280.753	-51.71
280.969	26.11
281.184	-6.66
281.399	-4.61
281.615	-55.81
281.83	3.58
282.045	-4.61
282.26	-51.71
282.476	-16.9
282.691	-16.9
282.906	-51.71
283.122	15.87
283.337	-37.38
283.552	71.17
283.767	40.45
283.983	-6.66
284.198	22.02
284.413	93.69
284.628	19.97
284.843	7.68
285.058	58.88
285.274	62.98
285.489	11.78
285.704	-2.56
285.919	36.35
286.134	-4.61
286.349	67.07
286.564	-12.8
286.779	108.03
286.995	30.21
287.21	7.68
287.425	-41.47
287.64	24.06
287.855	32.26
288.07	15.87
288.285	81.41
288.5	40.45
288.715	-16.9
288.93	-2.56
289.145	3.58
289.36	24.06
289.575	-16.9
289.79	1.54
290.004	-14.85
290.219	32.26
290.434	30.21
290.649	52.74
290.864	22.02
291.079	28.16
291.294	-4.61
291.509	38.4
291.724	-14.85
291.938	81.41
292.153	-6.66
292.368	28.16
292.583	11.78
292.798	32.26
293.012	26.11
293.227	-39.42
293.442	46.59
293.657	62.98
293.871	95.74
294.086	15.87
294.301	32.26
294.516	32.26
294.73	-2.56
294.945	-35.33
295.16	32.26
295.374	44.54
295.589	32.26
295.804	34.3
296.018	-64
296.233	24.06
296.447	7.68
296.662	-59.9
296.877	-18.94
297.091	44.54
297.306	-4.61
297.52	-43.52
297.735	17.92
297.949	15.87
298.164	-10.75
298.378	-2.56
298.593	83.45
298.807	46.59
299.022	60.93
299.236	-43.52
299.451	60.93
299.665	-12.8
299.88	-20.99
300.094	38.4
300.309	-59.9
300.523	34.3
300.737	9.73
300.952	-82.43
301.166	34.3
301.381	42.5
301.595	32.26
301.809	-2.56
302.024	-41.47
302.238	42.5
302.452	5.63
302.667	-6.66
302.881	40.45
303.095	-31.23
303.309	77.31
303.524	-35.33
303.738	1.54
303.952	-25.09
304.166	77.31
304.381	-61.95
304.595	65.02
304.809	79.36
305.023	15.87
305.237	-8.7
305.452	15.87
305.666	-27.14
305.88	5.63
306.094	22.02
306.308	7.68
306.522	77.31
306.736	24.06
306.95	22.02
307.164	-6.66
307.379	3.58
307.593	-25.09
307.807	24.06
308.021	22.02
308.235	75.26
308.449	77.31
308.663	-57.86
308.877	11.78
309.091	24.06
309.305	-20.99
309.519	-37.38
309.733	89.6
309.947	52.74
310.161	-8.7
310.374	85.5
310.588	38.4
310.802	-57.86
311.016	36.35
311.23	110.08
311.444	26.11
311.658	-27.14
311.872	52.74
312.085	36.35
312.299	3.58
312.513	62.98
312.727	22.02
312.941	24.06
313.154	11.78
313.368	-4.61
313.582	77.31
313.796	62.98
314.009	7.68
314.223	101.89
314.437	13.82
314.651	32.26
314.864	-53.76
315.078	-66.05
315.292	-53.76
315.505	-43.52
315.719	7.68
315.933	38.4
316.146	-66.05
316.36	34.3
316.573	38.4
316.787	22.02
317.001	52.74
317.214	-33.28
317.428	13.82
317.641	-29.18
317.855	42.5
318.068	54.78
318.282	11.78
318.495	17.92
318.709	34.3
318.922	-8.7
319.136	79.36
319.349	62.98
319.563	1.54
319.776	73.21
319.99	-29.18
320.203	19.97
320.417	89.6
320.63	-20.99
320.843	52.74
321.057	24.06
321.27	22.02
321.483	-10.75
321.697	42.5
321.91	30.21
322.124	-86.53
322.337	44.54
322.55	-70.14
322.763	-0.51
322.977	-25.09
323.19	-20.99
323.403	-23.04
323.617	-41.47
323.83	34.3
324.043	28.16
324.256	62.98
324.469	-23.04
324.683	28.16
324.896	19.97
325.109	-27.14
325.322	3.58
325.535	38.4
325.748	28.16
325.962	42.5
326.175	19.97
326.388	26.11
326.601	65.02
326.814	42.5
327.027	19.97
327.24	30.21
327.453	24.06
327.666	46.59
327.879	-0.51
328.092	44.54
328.305	-12.8
328.518	-2.56
328.731	-41.47
328.944	-8.7
329.157	-29.18
329.37	28.16
329.583	5.63
329.796	13.82
330.009	-41.47
330.222	5.63
330.435	32.26
330.648	79.36
330.861	-12.8
331.073	-14.85
331.286	-12.8
331.499	-18.94
331.712	-18.94
331.925	46.59
332.138	30.21
332.35	69.12
332.563	-35.33
332.776	19.97
332.989	-55.81
333.202	19.97
333.414	-16.9
333.627	-29.18
333.84	5.63
334.053	52.74
334.265	32.26
334.478	-16.9
334.691	7.68
334.903	24.06
335.116	19.97
335.329	26.11
335.541	48.64
335.754	71.17
335.966	46.59
336.179	24.06
336.392	46.59
336.604	-2.56
336.817	-16.9
337.029	7.68
337.242	28.16
337.454	9.73
337.667	-2.56
337.88	3.58
338.092	48.64
338.305	-4.61
338.517	-10.75
338.729	65.02
338.942	-20.99
339.154	69.12
339.367	28.16
339.579	1.54
339.792	-51.71
340.004	-2.56
340.217	-29.18
340.429	44.54
340.641	-66.05
340.854	3.58
341.066	-6.66
341.278	44.54
341.491	-33.28
341.703	9.73
341.915	-37.38
342.128	81.41
342.34	42.5
342.552	-12.8
342.764	34.3
342.977	91.65
343.189	-57.86
343.401	77.31
343.613	-53.76
343.826	34.3
344.038	-16.9
344.25	19.97
344.462	38.4
344.674	24.06
344.886	-43.52
345.099	15.87
345.311	48.64
345.523	-20.99
345.735	75.26
345.947	58.88
346.159	-12.8
346.371	-41.47
346.583	-35.33
346.795	30.21
347.007	-6.66
347.219	95.74
347.431	50.69
347.643	22.02
347.855	15.87
348.067	40.45
348.279	97.79
348.491	79.36
348.703	-25.09
348.915	-18.94
349.127	-14.85
349.339	56.83
349.551	-92.67
349.763	34.3
349.975	-20.99
350.187	34.3
350.399	-16.9
350.61	26.11
350.822	79.36
351.034	40.45
351.246	-45.57
351.458	50.69
351.669	-14.85
351.881	-59.9
352.093	56.83
352.305	42.5
352.517	75.26
352.728	52.74
352.94	48.64
353.152	38.4
353.363	13.82
353.575	54.78
353.787	97.79
353.999	101.89
354.21	7.68
354.422	-20.99
354.633	-84.48
354.845	52.74
355.057	48.64
355.268	36.35
355.48	85.5
355.692	34.3
355.903	54.78
356.115	-8.7
356.326	-66.05
356.538	81.41
356.749	-43.52
356.961	-41.47
357.172	60.93
357.384	1.54
357.595	79.36
357.807	112.13
358.018	24.06
358.23	32.26
358.441	60.93
358.653	71.17
358.864	-29.18
359.075	15.87
359.287	44.54
359.498	60.93
359.709	34.3
359.921	44.54
360.132	69.12
360.344	-25.09
360.555	48.64
360.766	-6.66
360.977	24.06
361.189	124.41
361.4	3.58
361.611	-45.57
361.823	52.74
362.034	44.54
362.245	-35.33
362.456	36.35
362.667	-0.51
362.879	26.11
363.09	11.78
363.301	30.21
363.512	101.89
363.723	93.69
363.935	48.64
364.146	3.58
364.357	-10.75
364.568	52.74
364.779	34.3
364.99	28.16
365.201	54.78
365.412	99.84
365.623	19.97
365.834	95.74
366.045	-8.7
366.256	71.17
366.467	38.4
366.678	5.63
366.889	-35.33
367.1	-16.9
367.311	50.69
367.522	58.88
367.733	28.16
367.944	7.68
368.155	9.73
368.366	75.26
368.577	79.36
368.788	40.45
368.999	-8.7
369.209	40.45
369.42	52.74
369.631	52.74
369.842	81.41
370.053	9.73
370.264	93.69
370.474	32.26
370.685	56.83
370.896	67.07
371.107	-0.51
371.317	24.06
371.528	52.74
371.739	69.12
371.95	24.06
372.16	15.87
372.371	5.63
372.582	36.35
372.792	-41.47
373.003	54.78
373.214	50.69
373.424	118.27
373.635	40.45
373.846	42.5
374.056	-10.75
374.267	-20.99
374.477	42.5
374.688	17.92
374.898	67.07
375.109	-18.94
375.319	-20.99
375.53	46.59
375.74	13.82
375.951	34.3
376.161	87.55
376.372	89.6
376.582	-14.85
376.793	9.73
377.003	13.82
377.214	75.26
377.424	24.06
377.635	65.02
377.845	81.41
378.055	58.88
378.266	5.63
378.476	24.06
378.686	69.12
378.897	-2.56
379.107	110.08
379.317	-2.56
379.528	17.92
379.738	-2.56
379.948	103.93
380.158	81.41
380.369	44.54
380.579	32.26
380.789	-10.75
380.999	34.3
381.21	22.02
381.42	62.98
381.63	50.69
381.84	36.35
382.05	44.54
382.261	36.35
382.471	34.3
382.681	46.59
382.891	75.26
383.101	54.78
383.311	-12.8
383.521	-4.61
383.731	7.68
383.941	79.36
384.151	17.92
384.361	89.6
384.571	28.16
384.781	11.78
384.991	85.5
385.201	85.5
385.411	11.78
385.621	-18.94
385.831	-10.75
386.041	83.45
386.251	46.59
386.461	15.87
386.671	60.93
386.881	5.63
387.091	24.06
387.301	89.6
387.511	15.87
387.72	91.65
387.93	132.61
388.14	30.21
388.35	36.35
388.56	83.45
388.769	32.26
388.979	15.87
389.189	-45.57
389.399	30.21
389.609	32.26
389.818	-29.18
390.028	89.6
390.238	101.89
390.447	5.63
390.657	28.16
390.867	36.35
391.076	34.3
391.286	-23.04
391.496	87.55
391.705	22.02
391.915	69.12
392.125	136.7
392.334	89.6
392.544	148.99
392.753	32.26
392.963	58.88
393.172	40.45
393.382	112.13
393.591	130.56
393.801	71.17
394.01	69.12
394.22	62.98
394.429	67.07
394.639	65.02
394.848	60.93
395.058	114.17
395.267	54.78
395.477	153.09
395.686	110.08
395.895	95.74
396.105	124.41
396.314	67.07
396.524	140.8
396.733	50.69
396.942	93.69
397.152	128.51
397.361	46.59
397.57	32.26
397.78	54.78
397.989	97.79
398.198	140.8
398.407	122.37
398.617	130.56
398.826	128.51
399.035	130.56
399.244	71.17
399.453	128.51
399.663	48.64
399.872	134.65
400.081	79.36
400.29	138.75
400.499	62.98
400.708	60.93
400.917	73.21
401.127	73.21
401.336	114.17
401.545	126.46
401.754	138.75
401.963	91.65
402.172	159.23
402.381	124.41
402.59	136.7
402.799	91.65
403.008	122.37
403.217	163.33
403.426	97.79
403.635	95.74
403.844	130.56
404.053	105.98
404.262	69.12
404.471	140.8
404.68	189.95
404.888	112.13
405.097	112.13
405.306	245.24
405.515	187.9
405.724	200.19
405.933	97.79
406.142	224.76
406.35	122.37
406.559	167.42
406.768	89.6
406.977	204.28
407.185	134.65
407.394	179.71
407.603	183.81
407.812	237.05
408.02	187.9
408.229	271.87
408.438	259.58
408.646	192
408.855	200.19
409.064	232.96
409.272	202.24
409.481	292.35
409.69	296.44
409.898	212.48
410.107	302.59
410.315	321.02
410.524	347.64
410.733	300.54
410.941	292.35
411.15	310.78
411.358	361.98
411.567	386.55
411.775	417.27
411.984	384.51
412.192	458.23
412.401	335.35
412.609	505.34
412.818	495.1
413.026	538.1
413.234	579.06
413.443	544.25
413.651	574.97
413.86	497.14
414.068	630.26
414.276	626.17
414.485	570.87
414.693	714.23
414.901	595.45
415.11	663.03
415.318	697.85
415.526	763.38
415.734	706.04
415.943	802.29
416.151	851.44
416.359	830.96
416.567	822.77
416.776	843.25
416.984	904.69
417.192	988.66
417.4	888.31
417.608	908.79
417.817	970.23
418.025	1060.34
418.233	1177.07
418.441	1187.31
418.649	1117.68
418.857	1367.53
419.065	1322.48
419.273	1213.93
419.481	1416.68
419.689	1527.27
419.897	1519.08
420.105	1578.47
420.313	1510.89
420.521	1557.99
420.729	1639.91
420.937	1658.34
421.145	1760.74
421.353	1895.91
421.561	1902.05
421.769	2018.79
421.977	2053.6
422.185	2080.22
422.393	2244.06
422.601	2356.7
422.809	2473.43
423.017	2252.25
423.224	2536.92
423.432	2594.26
423.64	2551.26
423.848	2737.62
424.056	2754.01
424.263	2934.23
424.471	2913.75
424.679	3055.06
424.887	3251.66
425.094	3200.46
425.302	3268.05
425.51	3333.58
425.718	3569.1
425.925	3493.32
426.133	3685.83
426.341	3775.94
426.548	4167.1
426.756	3933.64
426.964	3990.98
427.171	4384.19
427.379	4419
427.586	4488.64
427.794	4773.3
428.001	4982.2
428.209	5027.25
428.417	5045.68
428.624	5375.41
428.832	5393.84
429.039	5477.8
429.247	5295.54
429.454	5805.48
429.662	6315.42
429.869	5633.45
430.076	6198.69
430.284	6088.1
430.491	6112.67
430.699	6751.64
430.906	6669.72
431.114	6626.71
431.321	7073.17
431.528	7128.47
431.736	7638.41
431.943	8002.95
432.15	7751.05
432.358	7884.17
432.565	8293.76
432.772	8017.29
432.979	8535.42
433.187	8750.46
433.394	8703.36
433.601	9432.43
433.808	9401.71
434.016	9452.91
434.223	9796.97
434.43	10530.14
434.637	10134.89
434.844	10835.29
435.052	11152.73
435.259	10888.54
435.466	11240.79
435.673	11038.04
435.88	11547.98
436.087	12227.91
436.294	12189
436.501	11838.8
436.708	12277.06
436.915	12561.73
437.122	13270.33
437.329	13348.15
437.537	13675.82
437.743	13858.09
437.95	13792.56
438.157	14495.01
438.364	15078.68
438.571	15037.72
438.778	14988.57
438.985	16522.5
439.192	15967.5
439.399	16203.02
439.606	16012.56
439.813	16948.48
440.02	17849.58
440.227	17589.49
440.433	17325.3
440.64	18111.72
440.847	17935.6
441.054	18427.11
441.261	19395.8
441.467	19115.23
441.674	20034.77
441.881	20288.71
442.088	20477.13
442.294	20131.02
442.501	20733.12
442.708	21169.34
442.914	21882.03
443.121	22946.98
443.328	22000.82
443.534	23661.72
443.741	23262.37
443.948	22654.12
444.154	24808.58
444.361	24355.98
444.568	24511.63
444.774	24566.92
444.981	25085.06
445.187	25558.14
445.394	26629.23
445.6	26590.31
445.807	28699.72
446.013	27921.49
446.22	27784.28
446.426	29299.78
446.633	29688.89
446.839	30391.34
447.046	28984.39
447.252	30866.47
447.459	30733.36
447.665	31081.51
447.871	32171.03
448.078	33954.81
448.284	31872.03
448.491	32486.42
448.697	34032.63
448.903	34671.6
449.11	34317.3
449.316	33895.42
449.522	34808.81
449.728	35525.6
449.935	35754.97
450.141	35761.12
450.347	36520.91
450.553	35365.86
450.76	35949.53
450.966	36916.17
451.172	36940.75
451.378	37575.62
451.584	36805.58
451.791	37962.68
451.997	38093.75
452.203	38230.97
452.409	38781.87
452.615	38183.87
452.821	36733.9
453.027	36408.28
453.233	38286.26
453.44	37102.54
453.646	37004.24
453.852	37252.04
454.058	38122.43
454.264	36729.81
454.47	37882.81
454.676	36920.27
454.882	37815.23
455.088	34317.3
455.294	35455.97
455.5	35918.81
455.705	36129.75
455.911	34788.33
456.117	33893.37
456.323	33698.81
456.529	31728.67
456.735	33203.21
456.941	32150.55
457.147	32085.01
457.352	30811.18
457.558	30585.9
457.764	30626.86
457.97	29862.97
458.176	29086.79
458.381	29449.28
458.587	27761.75
458.793	27702.36
458.999	26631.27
459.204	28384.33
459.41	27622.49
459.616	25644.15
459.821	25889.91
460.027	25482.36
460.233	25209.98
460.438	24159.38
460.644	24593.54
460.85	23092.38
461.055	22641.83
461.261	22693.03
461.466	21091.52
461.672	20178.12
461.878	22017.2
462.083	20253.9
462.289	19903.7
462.494	19877.07
462.7	19029.21
462.905	18408.68
463.111	18830.56
463.316	19031.26
463.522	18719.97
463.727	18689.25
463.932	18576.61
464.138	18617.57
464.343	18547.94
464.549	18038
464.754	18582.76
464.959	18439.4
465.165	18412.78
465.37	17618.16
465.575	17274.1
465.781	17892.59
465.986	17749.23
466.191	17030.4
466.397	16928
466.602	16213.26
466.807	16588.03
467.012	16790.78
467.218	16426.25
467.423	16170.25
467.628	16416.01
467.833	17065.21
468.038	16274.7
468.244	15893.77
468.449	16864.51
468.654	16030.99
468.859	15881.49
469.064	16024.84
469.269	15267.1
469.474	15508.76
469.679	15957.26
469.885	15121.69
470.09	15684.88
470.295	15349.01
470.5	14847.26
470.705	14945.56
470.91	14847.26
471.115	14726.43
471.32	14970.14
471.525	14695.71
471.73	14423.33
471.935	14435.62
472.139	13995.31
472.344	13913.39
472.549	13876.52
472.754	13735.21
472.959	13407.54
473.164	13219.13
473.369	12938.55
473.574	13401.4
473.778	13471.03
473.983	13221.17
474.188	13305.14
474.393	12461.38
474.598	12700.99
474.802	12604.74
475.007	12401.99
475.212	12363.08
475.417	12184.9
475.621	11969.87
475.826	12141.89
476.031	11912.52
476.235	11588.94
476.44	11844.94
476.645	11476.3
476.849	11588.94
477.054	11500.88
477.259	11148.63
477.463	11081.05
477.668	10790.24
477.872	11205.97
478.077	10900.83
478.282	10358.11
478.486	10593.63
478.691	10538.34
478.895	10405.22
479.1	10265.96
479.304	10440.03
479.509	10104.17
479.713	10351.97
479.918	10093.93
480.122	9805.16
480.326	10108.26
480.531	10194.28
480.735	9928.04
480.94	9807.21
481.144	10192.23
481.348	9770.35
481.553	9796.97
481.757	9674.09
481.961	9860.46
482.166	9897.32
482.37	9792.87
482.574	9614.7
482.778	9784.68
482.983	9749.87
483.187	9471.34
483.391	9641.32
483.595	9508.21
483.8	9567.6
484.004	9497.97
484.208	9823.59
484.412	9629.04
484.616	9588.08
484.821	9561.45
485.025	9373.04
485.229	9670
485.433	9418.1
485.637	9532.78
485.841	9569.65
486.045	9504.11
486.249	9633.13
486.453	9772.39
486.657	9688.43
486.861	9559.41
487.065	9299.31
487.269	9608.56
487.473	9510.25
487.677	9586.03
487.881	9655.66
488.085	9493.87
488.289	9684.33
488.493	9649.52
488.697	9749.87
488.901	9639.28
489.105	9655.66
489.309	9708.91
489.512	9715.05
489.716	9608.56
489.92	9672.04
490.124	9729.39
490.328	9876.84
490.531	9659.76
490.735	9842.03
490.939	9749.87
491.143	9653.61
491.346	9661.8
491.55	10093.93
491.754	10059.11
491.958	10128.74
492.161	9985.38
492.365	9882.99
492.569	10067.3
492.772	10138.98
492.976	10095.97
493.18	10243.43
493.383	10147.17
493.587	10528.1
493.79	10394.98
493.994	10564.96
494.197	10454.37
494.401	10675.55
494.605	10632.54
494.808	10827.1
495.012	10702.17
495.215	10755.42
495.419	10888.54
495.622	10988.89
495.825	11144.53
496.029	11285.84
496.232	11418.96
496.436	11226.45
496.639	11621.71
496.843	11533.65
497.046	11642.19
497.249	11789.64
497.453	11924.81
497.656	11902.28
497.859	12000.58
498.063	11889.99
498.266	12254.53
498.469	12373.32
498.673	12416.32
498.876	12657.98
499.079	12850.49
499.282	12778.81
499.485	12807.48
499.689	12907.84
499.892	13299
500.095	13335.86
500.298	13571.38
500.501	13460.79
500.705	13876.52
500.908	14093.61
501.111	14005.55
501.314	14263.59
501.517	14083.37
501.72	14619.94
501.923	14628.13
502.126	14880.03
502.329	15140.12
502.532	15144.22
502.735	15424.79
502.938	15768.85
503.141	15682.83
503.344	16049.42
503.547	16078.09
503.75	15961.36
503.953	16532.74
504.156	16485.64
504.359	16735.49
504.562	16772.35
504.765	17147.13
504.968	17276.15
505.17	17747.19
505.373	17614.07
505.576	17734.9
505.779	17892.59
505.982	17984.75
506.185	18349.29
506.387	18531.56
506.59	18664.68
506.793	19260.63
506.996	18711.78
507.198	19676.37
507.401	19035.36
507.604	19375.32
507.807	19958.99
508.009	20131.02
508.212	20341.96
508.415	20274.38
508.617	20833.47
508.82	20796.61
509.022	20870.34
509.225	21382.33
509.428	21525.69
509.63	21687.48
509.833	21834.93
510.035	22314.16
510.238	21869.75
510.44	22490.28
510.643	22705.32
510.845	22940.83
511.048	22858.92
511.25	23049.38
511.453	23385.24
511.655	23745.69
511.858	23899.28
512.06	24022.16
512.262	24054.93
512.465	24032.4
512.667	24599.69
512.87	25078.91
513.072	25052.29
513.274	25486.46
513.477	25724.02
513.679	26051.7
513.881	26440.81
514.084	26633.32
514.286	26348.65
514.488	26780.78
514.69	27509.85
514.893	27524.19
515.095	27593.82
515.297	27958.36
515.499	27829.34
515.701	28214.35
515.904	28474.45
516.106	28673.1
516.308	29025.35
516.51	29692.99
516.712	29260.87
516.914	29717.56
517.116	30110.77
517.318	30084.15
517.52	30039.09
517.722	30465.07
517.925	30878.76
518.127	31188
518.329	31589.41
518.531	31261.73
518.733	32259.09
518.935	31945.75
519.136	32289.81
519.338	32881.67
519.54	32746.51
519.742	33080.33
519.944	33399.81
520.146	33887.23
520.348	33829.88
520.55	34112.5
520.752	34251.77
520.954	34665.46
521.155	34401.27
521.357	35122.15
521.559	35433.44
521.761	35654.62
521.963	35425.25
522.164	35652.58
522.366	36117.46
522.568	36336.6
522.77	36363.22
522.971	37145.55
523.173	37000.14
523.375	37309.38
523.576	37221.32
523.778	37331.91
523.98	37966.78
524.181	38077.37
524.383	38163.39
524.584	38226.87
524.786	38589.36
524.988	38212.54
525.189	39044.01
525.391	39228.33
525.592	39519.14
525.794	39676.83
525.995	39621.54
526.197	39469.99
526.398	39891.87
526.6	40338.33
526.801	40334.23
527.003	40477.59
527.204	40604.56
527.406	40747.92
527.607	40510.36
527.808	41366.41
528.01	40471.45
528.211	40797.07
528.412	41997.18
528.614	41587.59
528.815	41386.89
529.016	41978.75
529.218	41468.81
529.419	41646.98
529.62	42107.77
529.822	41952.13
530.023	41804.67
530.224	41999.23
530.425	42109.82
530.626	41735.04
530.828	41665.41
531.029	42959.73
531.23	42646.39
531.431	42210.17
531.632	42472.31
531.833	42666.87
532.035	42640.25
532.236	42457.98
532.437	42656.63
532.638	42492.79
532.839	42791.8
533.04	42724.21
533.241	42386.3
533.442	43311.98
533.643	42947.44
533.844	42701.68
534.045	42947.44
534.246	42607.48
534.447	43656.04
534.648	42707.83
534.849	42738.55
535.05	42828.66
535.251	43051.89
535.451	42845.04
535.652	43162.48
535.853	43291.5
536.054	43193.2
536.255	43414.38
536.456	42752.88
536.657	43688.81
536.857	42935.15
537.058	43221.87
537.259	43201.39
537.46	43291.5
537.66	43117.42
537.861	43002.74
538.062	42752.88
538.263	43017.07
538.463	43373.42
538.664	43064.17
538.865	43219.82
539.065	43248.49
539.266	42804.08
539.466	43424.62
539.667	42634.1
539.868	43447.15
540.068	43156.33
540.269	43152.24
540.469	43428.71
540.67	42871.67
540.87	42861.43
541.071	43027.31
541.271	43238.25
541.472	43174.77
541.672	42761.08
541.873	42922.87
542.073	42658.68
542.274	43555.69
542.474	42953.58
542.675	42791.8
542.875	43156.33
543.075	43094.89
543.276	42554.23
543.476	43328.36
543.676	42574.71
543.877	43119.47
544.077	42865.52
544.277	42791.8
544.478	42830.71
544.678	43037.55
544.878	43144.05
545.078	43041.65
545.279	42861.43
545.479	42857.33
545.679	43262.83
545.879	42775.41
546.079	42574.71
546.28	42515.32
546.48	42511.22
546.68	42935.15
546.88	42775.41
547.08	42828.66
547.28	42750.84
547.48	42240.89
547.68	42584.95
547.88	42326.91
548.081	42816.37
548.281	42720.12
548.481	42314.62
548.681	43039.6
548.881	42931.06
549.081	42959.73
549.28	42810.23
549.48	42734.45
549.68	42435.45
549.88	43035.5
550.08	42685.3
550.28	42994.54
550.48	42623.86
550.68	42767.22
550.88	42554.23
551.08	42593.14
551.279	42691.44
551.479	42601.33
551.679	42791.8
551.879	42505.08
552.079	42623.86
552.278	42222.46
552.478	42517.37
552.678	42623.86
552.878	42269.56
553.077	42525.56
553.277	42167.16
553.477	42417.02
553.676	42226.56
553.876	42115.97
554.076	42064.77
554.275	42062.72
554.475	41821.06
554.674	42038.14
554.874	42392.44
555.074	42130.3
555.273	42648.44
555.473	42359.67
555.672	41491.33
555.872	41943.94
556.071	42007.42
556.271	42124.16
556.47	41671.56
556.67	41710.47
556.869	41462.66
557.068	41843.59
557.268	41624.45
557.467	41337.74
557.667	41837.44
557.866	41667.46
558.065	41321.35
558.265	41556.87
558.464	41485.19
558.663	41567.11
558.863	40940.43
559.062	41761.67
559.261	41204.62
559.461	41550.73
559.66	40805.27
559.859	41184.14
560.058	41302.92
560.258	41341.83
560.457	40520.6
560.656	41128.84
560.855	40590.23
561.054	40883.09
561.253	40491.93
561.453	41237.39
561.652	40797.07
561.851	40922
562.05	40293.27
562.249	40184.73
562.448	40711.06
562.647	40539.03
562.846	39977.89
563.045	40297.37
563.244	39805.86
563.443	40125.34
563.642	39502.76
563.841	39922.59
564.04	39453.61
564.239	40018.85
564.438	39375.78
564.637	39715.75
564.836	39934.88
565.035	39560.1
565.234	39596.96
565.432	39222.19
565.631	39447.46
565.83	39330.73
566.029	39238.57
566.228	39054.25
566.427	38976.43
566.625	38822.83
566.824	38362.04
567.023	38923.18
567.222	38177.72
567.42	38724.53
567.619	38525.88
567.818	38132.67
568.016	38448.05
568.215	38386.61
568.414	38214.58
568.612	38257.59
568.811	37684.16
569.01	38273.98
569.208	37792.7
569.407	37964.73
569.605	37196.74
569.804	38161.34
570.002	37399.49
570.201	37766.08
570.4	37104.59
570.598	37379.01
570.797	37065.67
570.995	37094.35
571.193	36893.65
571.392	37307.33
571.59	37088.2
571.789	37098.44
571.987	36807.63
572.186	36428.76
572.384	36406.23
572.582	36535.25
572.781	36647.89
572.979	35990.49
573.177	36656.08
573.376	36066.27
573.574	35746.78
573.772	36045.79
573.971	35783.65
574.169	35574.75
574.367	35353.57
574.565	35867.61
574.763	35920.86
574.962	35167.21
575.16	35378.15
575.358	35515.36
575.556	34804.72
575.754	35523.55
575.952	34642.93
576.151	35441.64
576.349	34812.91
576.547	35128.3
576.745	34583.54
576.943	34872.3
577.141	34343.92
577.339	34577.39
577.537	34255.86
577.735	34198.52
577.933	33963
578.131	34350.07
578.329	33940.47
578.527	33913.85
578.725	33883.13
578.923	33709.05
579.121	33440.77
579.319	33782.78
579.516	33809.4
579.714	33569.79
579.912	33405.95
580.11	33125.38
580.308	33618.94
580.506	32922.63
580.704	33182.73
580.901	33391.62
581.099	32916.49
581.297	32887.82
581.495	32670.73
581.692	32721.93
581.89	32209.94
582.088	32691.21
582.285	32207.89
582.483	32597.01
582.681	32214.04
582.878	32044.06
583.076	31978.52
583.274	32220.18
583.471	31886.36
583.669	31863.83
583.866	31728.67
584.064	31796.25
584.262	31613.98
584.459	31626.27
584.657	31468.58
584.854	31800.35
585.052	30682.16
585.249	31165.48
585.447	31155.24
585.644	30792.75
585.841	30993.45
586.039	31200.29
586.236	30686.25
586.434	30553.13
586.631	30602.29
586.828	30901.29
587.026	30712.88
587.223	30600.24
587.42	30196.79
587.618	30202.93
587.815	29991.99
588.012	29846.58
588.21	29596.73
588.407	29922.36
588.604	29592.64
588.801	29729.85
588.999	29699.13
589.196	29740.09
589.393	29402.18
589.59	29649.98
589.787	29316.16
589.984	29166.66
590.182	29117.51
590.379	29533.25
590.576	29066.31
590.773	28841.03
590.97	28664.91
591.167	29256.77
591.364	28425.29
591.561	28734.54
591.758	28144.72
591.955	28410.96
592.152	28402.77
592.349	28542.03
592.546	28402.77
592.743	28431.44
592.94	27929.69
593.137	28267.6
593.334	28193.87
593.531	27419.74
593.727	27685.98
593.924	27991.12
594.121	27436.13
594.318	27565.15
594.515	27081.83
594.712	27354.21
594.908	27020.39
595.105	27366.49
595.302	26940.52
595.499	27397.21
595.696	27126.88
595.892	26811.49
596.089	26971.24
596.286	26741.86
596.482	26565.74
596.679	26860.65
596.876	26393.71
597.072	26330.22
597.269	26362.99
597.466	26190.96
597.662	26385.52
597.859	26412.14
598.055	26305.65
598.252	26053.75
598.448	25992.31
598.645	25982.07
598.841	25736.31
599.038	25922.68
599.234	25564.28
599.431	25474.17
599.627	25369.72
599.824	25820.28
600.02	25218.18
600.217	25320.57
600.413	25152.64
600.609	25103.49
600.806	24941.7
601.002	25027.71
601.198	24671.37
601.395	24702.09
601.591	24845.44
601.787	24302.73
601.984	24444.04
602.18	24913.03
602.376	24339.6
602.572	24173.71
602.769	24388.75
602.965	24032.4
603.161	24108.18
603.357	23995.54
603.553	23807.12
603.75	23788.69
603.946	23766.17
604.142	23889.04
604.338	23633.05
604.534	23475.35
604.73	23458.97
604.926	23512.22
605.122	23620.76
605.318	23317.66
605.514	23243.93
605.71	23190.69
605.906	23207.07
606.102	23211.17
606.298	22795.43
606.494	23004.32
606.69	23129.25
606.886	23032.99
607.082	22578.34
607.278	23213.21
607.474	22404.27
607.67	22631.59
607.866	22504.62
608.062	22725.8
608.257	22154.41
608.453	22318.25
608.649	22566.06
608.845	22152.37
609.041	22215.85
609.236	22658.21
609.432	22219.95
609.628	22078.64
609.824	22328.49
610.019	22015.15
610.215	22142.13
610.411	22041.78
610.606	22037.68
610.802	21824.69
610.998	22080.69
611.193	21970.1
611.389	21806.26
611.584	21669.05
611.78	21699.76
611.976	21687.48
612.171	21705.91
612.367	21533.88
612.562	21433.53
612.758	20978.88
612.953	21398.71
613.149	21644.47
613.344	21013.7
613.539	21470.39
613.735	21476.54
613.93	21355.71
614.126	21097.66
614.321	21279.93
614.517	21001.41
614.712	21134.53
614.907	20833.47
615.103	21083.33
615.298	20901.06
615.493	21224.64
615.688	20624.58
615.884	21130.43
616.079	21017.79
616.274	20917.44
616.47	20702.4
616.665	20677.83
616.86	20743.36
617.055	20356.3
617.25	20260.04
617.445	20647.11
617.641	20282.57
617.836	20632.77
618.031	19936.46
618.226	20497.61
618.421	20126.92
618.616	20083.92
618.811	20143.31
619.006	20270.28
619.201	19487.96
619.396	19746
619.591	19401.94
619.786	19897.55
619.981	19528.92
620.176	19416.28
620.371	19340.5
620.566	19500.25
620.761	19496.15
620.956	19350.74
621.151	19014.88
621.346	19268.83
621.541	18695.39
621.735	19000.54
621.93	18599.14
622.125	18687.2
622.32	18279.66
622.515	18621.67
622.709	18535.65
622.904	18267.37
623.099	18293.99
623.294	18179.31
623.488	18081
623.683	18142.44
623.878	17646.83
624.072	17853.68
624.267	17683.7
624.462	17941.74
624.656	17591.54
624.851	17788.14
625.046	17106.17
625.24	17362.17
625.435	17005.82
625.629	17190.14
625.824	16919.81
626.018	16772.35
626.213	16823.55
626.407	16547.08
626.602	16463.11
626.796	16610.56
626.991	16477.44
627.185	16387.33
627.38	16325.89
627.574	16203.02
627.768	15918.35
627.963	15969.55
628.157	15881.49
628.352	15963.4
628.546	15867.15
628.74	15918.35
628.935	15447.32
629.129	15545.62
629.323	15559.95
629.517	15406.36
629.712	15332.63
629.906	15285.53
630.1	15103.26
630.294	15170.84
630.489	14767.39
630.683	14781.73
630.877	14597.41
631.071	14683.42
631.265	14867.74
631.459	14572.83
631.653	14515.49
631.848	14265.64
632.042	13940.01
632.236	14505.25
632.43	14171.43
632.624	14290.21
632.818	13978.92
633.012	13880.62
633.206	14013.74
633.4	13878.57
633.594	13665.58
633.788	13948.2
633.982	13608.24
634.176	13329.72
634.369	13598
634.563	13387.06
634.757	13329.72
634.951	13327.67
635.145	13307.19
635.339	13290.81
635.533	13028.67
635.726	13071.67
635.92	12928.31
636.114	12997.95
636.308	12707.13
636.501	12787
636.695	12707.13
636.889	12709.18
637.083	12590.4
637.276	12614.98
637.47	12524.86
637.664	12172.61
637.857	12537.15
638.051	12227.91
638.244	12096.84
638.438	12098.89
638.632	12076.36
638.825	11816.27
639.019	11863.37
639.212	11818.32
639.406	11722.06
639.599	11588.94
639.793	11564.37
639.986	11580.75
640.18	11418.96
640.373	11482.45
640.567	11320.66
640.76	11291.99
640.954	11337.04
641.147	10929.5
641.34	10964.31
641.534	11310.42
641.727	10974.55
641.92	11109.72
642.114	10872.15
642.307	10921.31
642.5	10818.91
642.694	10581.34
642.887	10700.12
643.08	10642.78
643.273	10599.77
643.467	10706.27
643.66	10388.83
643.853	10337.63
644.046	10306.91
644.239	10268
644.432	10149.22
644.626	10216.8
644.819	10159.46
645.012	9936.23
645.205	10192.23
645.398	9936.23
645.591	9971.05
645.784	10038.63
645.977	9741.68
646.17	9743.72
646.363	9579.89
646.556	9459.06
646.749	9702.76
646.942	9616.75
647.135	9641.32
647.328	9338.23
647.521	9330.03
647.714	9327.99
647.907	9319.79
648.099	9395.57
648.292	9287.03
648.485	9295.22
648.678	9186.68
648.871	9063.8
649.064	8918.39
649.256	9137.52
649.449	8781.18
649.642	8959.35
649.835	8752.51
650.027	8902.01
650.22	8897.91
650.413	8715.64
650.605	8822.14
650.798	8586.62
650.991	8588.67
651.183	8506.75
651.376	8514.94
651.568	8355.2
651.761	8314.24
651.954	8414.59
652.146	8252.8
652.339	8177.03
652.531	8121.73
652.724	8099.2
652.916	7892.36
653.109	8121.73
653.301	8162.69
653.494	8068.48
653.686	7830.92
653.879	7923.08
654.071	7949.7
654.263	7867.78
654.456	7896.46
654.648	7853.45
654.84	7730.57
655.033	7480.72
655.225	7626.12
655.417	7687.56
655.61	7501.2
655.802	7609.74
655.994	7445.9
656.186	7503.25
656.379	7409.04
656.571	7443.85
656.763	7435.66
656.955	7406.99
657.148	7237.01
657.34	7237.01
657.532	7325.07
657.724	7048.6
657.916	7181.71
658.108	6985.11
658.3	6970.77
658.492	7095.7
658.684	6925.72
658.876	6854.04
659.068	6970.77
659.26	6739.35
659.452	6905.24
659.644	6978.97
659.836	6706.59
660.028	6688.15
660.22	6653.34
660.412	6641.05
660.604	6776.22
660.796	6577.56
660.988	6516.12
661.18	6428.06
661.372	6389.15
661.563	6440.35
661.755	6411.68
661.947	6485.41
662.139	6493.6
662.331	6280.61
662.522	6006.18
662.714	6237.6
662.906	6192.55
663.097	6137.25
663.289	6192.55
663.481	6075.81
663.673	6337.95
663.864	6106.53
664.056	6038.95
664.247	6004.13
664.439	5961.13
664.631	6065.57
664.822	5828.01
665.014	5936.55
665.205	5854.63
665.397	5817.77
665.588	5934.5
665.78	5758.38
665.971	5678.51
666.163	5774.76
666.354	5674.41
666.546	5553.58
666.737	5668.27
666.929	5584.3
667.12	5795.24
667.311	5531.05
667.503	5438.89
667.694	5408.17
667.885	5582.25
668.077	5557.68
668.268	5451.18
668.459	5387.69
668.651	5399.98
668.842	5385.65
669.033	5361.07
669.224	5268.91
669.416	5133.75
669.607	5275.06
669.798	5193.14
669.989	5244.34
670.18	5240.24
670.371	5150.13
670.563	5193.14
670.754	5164.47
670.945	5172.66
671.136	5092.79
671.327	5002.68
671.518	5178.8
671.709	5156.27
671.9	4990.39
672.091	4994.48
672.282	5027.25
672.473	4887.99
672.664	4859.32
672.855	4920.76
673.046	4945.33
673.237	4945.33
673.428	4926.9
673.619	4863.41
673.809	4746.68
674	4715.96
674.191	4818.36
674.382	4840.89
674.573	4779.45
674.764	4709.82
674.954	4810.17
675.145	4724.15
675.336	4752.82
675.527	4842.93
675.717	4767.16
675.908	4617.66
676.099	4580.79
676.289	4705.72
676.48	4634.04
676.671	4484.54
676.861	4740.54
677.052	4605.37
677.243	4509.12
677.433	4533.69
677.624	4548.03
677.814	4554.17
678.005	4511.16
678.195	4634.04
678.386	4566.46
678.576	4582.84
678.767	4464.06
678.957	4462.01
679.148	4439.48
679.338	4429.24
679.529	4439.48
679.719	4455.87
679.909	4439.48
680.1	4414.91
680.29	4443.58
680.481	4402.62
680.671	4355.52
680.861	4480.44
681.052	4482.49
681.242	4339.13
681.432	4486.59
681.622	4275.65
681.813	4394.43
682.003	4261.31
682.193	4134.34
682.383	4341.18
682.573	4185.54
682.764	4316.61
682.954	4253.12
683.144	4312.51
683.334	4085.19
683.524	4279.74
683.714	4251.07
683.904	4066.75
684.094	4246.98
684.284	4244.93
684.474	4091.33
684.664	4193.73
684.854	4306.37
685.044	4169.15
685.234	4048.32
685.424	4021.7
685.614	4058.56
685.804	4048.32
685.994	4138.43
686.184	3984.84
686.374	4136.38
686.564	3974.6
686.753	3984.84
686.943	3943.88
687.133	4079.04
687.323	3866.05
687.513	3825.09
687.702	4029.89
687.892	3872.2
688.082	3812.81
688.272	3761.61
688.461	3878.34
688.651	3765.7
688.841	3784.13
689.03	3786.18
689.22	3747.27
689.41	3825.09
689.599	3851.72
689.789	3751.37
689.979	3618.25
690.168	3821
690.358	3569.1
690.547	3786.18
690.737	3675.59
690.926	3651.02
691.116	3651.02
691.305	3589.58
691.495	3626.44
691.684	3386.83
691.874	3540.43
692.063	3542.47
692.252	3403.21
692.442	3395.02
692.631	3478.99
692.82	3374.54
693.01	3356.11
693.199	3438.03
693.388	3444.17
693.578	3425.74
693.767	3487.18
693.956	3468.75
694.146	3288.53
694.335	3229.13
694.524	3290.57
694.713	3313.1
694.902	3345.87
695.092	3253.71
695.281	3407.31
695.47	3331.53
695.659	3261.9
695.848	3249.61
696.037	3184.08
696.226	3206.61
696.415	3165.65
696.604	3257.81
696.793	3268.05
696.982	3194.32
697.171	3120.59
697.36	3149.26
697.549	3214.8
697.738	3179.98
697.927	3050.96
698.116	3190.22
698.305	3139.02
698.494	3122.64
698.683	3198.42
698.872	3192.27
699.061	3200.46
699.25	3087.82
699.438	3194.32
699.627	3194.32
699.816	3087.82
700.005	2971.09
700.193	3108.3
700.382	3053.01
700.571	3055.06
700.76	3053.01
700.948	3073.49
701.137	3024.34
701.326	3091.92
701.514	3124.69
701.703	3134.93
701.892	3028.43
702.08	3034.58
702.269	2917.84
702.457	3055.06
702.646	3065.3
702.834	2862.55
703.023	3050.96
703.212	3014.1
703.4	2876.88
703.589	3020.24
703.777	3020.24
703.965	2956.75
704.154	2946.52
704.342	3059.15
704.531	2985.43
704.719	2944.47
704.907	2952.66
705.096	3057.11
705.284	3093.97
705.472	2946.52
705.661	2985.43
705.849	2936.28
706.037	2975.19
706.226	2973.14
706.414	3055.06
706.602	2926.04
706.79	2899.41
706.979	2934.23
707.167	3014.1
707.355	2993.62
707.543	2997.71
707.731	2901.46
707.919	2868.69
708.107	2883.03
708.296	3014.1
708.484	2911.7
708.672	3059.15
708.86	3044.82
709.048	2964.95
709.236	2964.95
709.424	2921.94
709.612	3077.59
709.8	2923.99
709.988	2895.32
710.176	2854.36
710.364	2958.8
710.551	2946.52
710.739	2874.84
710.927	2874.84
711.115	2911.7
711.303	3079.63
711.491	2823.64
711.679	2915.8
711.866	2954.71
712.054	2850.26
712.242	2995.67
712.43	2979.28
712.617	2954.71
712.805	2883.03
712.993	2934.23
713.181	2954.71
713.368	2977.23
713.556	2946.52
713.744	2874.84
713.931	2977.23
714.119	3001.81
714.306	2923.99
714.494	2923.99
714.682	2932.18
714.869	2852.31
715.057	3022.29
715.244	2794.97
715.432	3046.87
715.619	2971.09
715.807	2975.19
715.994	3026.39
716.182	2936.28
716.369	3014.1
716.556	2940.37
716.744	2880.98
716.931	3022.29
717.119	3022.29
717.306	2975.19
717.493	2837.97
717.681	3079.63
717.868	2903.51
718.055	2868.69
718.242	2944.47
718.43	2928.08
718.617	2887.12
718.804	3007.95
718.991	2878.93
719.179	2942.42
719.366	2966.99
719.553	2969.04
719.74	2960.85
719.927	2901.46
720.114	2944.47
720.301	2991.57
720.488	2813.4
720.676	2852.31
720.863	3018.19
721.05	2885.08
721.237	2971.09
721.424	2936.28
721.611	2960.85
721.798	2942.42
721.985	2878.93
722.172	2803.16
722.358	2837.97
722.545	2760.15
722.732	3022.29
722.919	2878.93
723.106	3016.15
723.293	2803.16
723.48	2958.8
723.667	2899.41
723.853	2858.45
724.04	2837.97
724.227	2936.28
724.414	2907.6
724.6	2997.71
724.787	3001.81
724.974	2821.59
725.161	2928.08
725.347	2872.79
725.534	2966.99
725.72	2880.98
725.907	2977.23
726.094	3007.95
726.28	2905.56
726.467	2858.45
726.653	2821.59
726.84	2852.31
727.027	2926.04
727.213	2893.27
727.4	2938.32
727.586	3003.86
727.773	2893.27
727.959	2928.08
728.145	2821.59
728.332	2823.64
728.518	2840.02
728.705	2891.22
728.891	2799.06
729.077	2809.3
729.264	2926.04
729.45	2880.98
729.636	2866.64
729.823	2770.39
730.009	2891.22
730.195	2899.41
730.382	2901.46
730.568	2921.94
730.754	2901.46
730.94	2870.74
731.126	2905.56
731.313	2811.35
731.499	2876.88
731.685	2919.89
731.871	2905.56
732.057	2891.22
732.243	2868.69
732.429	2932.18
732.615	2803.16
732.801	2899.41
732.987	2880.98
733.173	2901.46
733.359	2842.07
733.545	2819.54
733.731	2758.1
733.917	2846.16
734.103	2852.31
734.289	2926.04
734.475	2737.62
734.661	2919.89
734.847	2711
735.033	2794.97
735.219	2717.14
735.404	2809.3
735.59	2776.53
735.776	2817.49
735.962	2706.9
736.148	2811.35
736.333	2825.68
736.519	2729.43
736.705	2932.18
736.89	2706.9
737.076	2864.6
737.262	2729.43
737.447	2745.81
737.633	2772.44
737.819	2862.55
738.004	2811.35
738.19	2629.08
738.375	2741.72
738.561	2807.25
738.747	2749.91
738.932	2684.38
739.118	2670.04
739.303	2764.25
739.489	2698.71
739.674	2563.54
739.859	2688.47
740.045	2741.72
740.23	2708.95
740.416	2455
740.601	2629.08
740.786	2639.32
740.972	2641.37
741.157	2645.46
741.342	2563.54
741.528	2452.95
741.713	2557.4
741.898	2614.74
742.084	2405.85
742.269	2571.74
742.454	2635.22
742.639	2508.25
742.824	2551.26
743.01	2510.3
743.195	2547.16
743.38	2479.58
743.565	2526.68
743.75	2514.39
743.935	2455
744.12	2483.67
744.305	2371.04
744.49	2473.43
744.675	2366.94
744.86	2371.04
745.045	2448.86
745.23	2332.12
745.415	2409.95
745.6	2418.14
745.785	2395.61
745.97	2352.6
746.155	2239.97
746.34	2387.42
746.525	2250.21
746.71	2305.5
746.895	2231.77
747.079	2368.99
747.264	2299.36
747.449	2282.97
747.634	2301.4
747.819	2254.3
748.003	2162.14
748.188	2164.19
748.373	2274.78
748.557	2231.77
748.742	2059.74
748.927	2186.72
749.111	2100.7
749.296	2127.33
749.481	2035.17
749.665	2170.33
749.85	1975.78
750.034	2112.99
750.219	2055.65
750.404	2086.37
750.588	2006.5
750.773	2026.98
750.957	1969.63
751.141	2035.17
751.326	1986.02
751.51	2035.17
751.695	1977.83
751.879	2045.41
752.064	1961.44
752.248	2029.03
752.432	1947.11
752.617	1877.48
752.801	1861.09
752.985	1857
753.17	1842.66
753.354	1852.9
753.538	1787.36
753.722	1697.25
753.907	1719.78
754.091	1740.26
754.275	1762.79
754.459	1725.93
754.643	1736.17
754.828	1650.15
755.012	1629.67
755.196	1682.92
755.38	1719.78
755.564	1678.82
755.748	1752.55
755.932	1557.99
756.116	1566.18
756.3	1646.05
756.484	1660.39
756.668	1617.38
756.852	1605.1
757.036	1560.04
757.22	1531.37
757.404	1547.75
757.588	1457.64
757.772	1531.37
757.956	1484.27
758.14	1469.93
758.323	1547.75
758.507	1422.83
758.691	1457.64
758.875	1572.33
759.059	1447.4
759.242	1428.97
759.426	1340.91
759.61	1494.51
759.794	1363.44
759.977	1373.68
760.161	1474.03
760.345	1326.57
760.528	1416.68
760.712	1416.68
760.895	1357.29
761.079	1390.06
761.263	1322.48
761.446	1215.98
761.63	1310.19
761.813	1355.24
761.997	1308.14
762.18	1308.14
762.364	1338.86
762.547	1306.09
762.731	1285.61
762.914	1406.44
763.098	1308.14
763.281	1164.78
763.464	1179.12
763.648	1234.41
763.831	1158.64
764.015	1302
764.198	1263.08
764.381	1244.65
764.564	1142.25
764.748	1183.21
764.931	1238.51
765.114	1113.58
765.297	1220.08
765.481	1187.31
765.664	1162.73
765.847	1181.17
766.03	1095.15
766.213	1170.93
766.397	1132.01
766.58	1138.16
766.763	1228.27
766.946	1105.39
767.129	1132.01
767.312	1226.22
767.495	1150.45
767.678	1129.97
767.861	1099.25
768.044	1205.74
768.227	1140.21
768.41	1099.25
768.593	1113.58
768.776	1076.72
768.959	1170.93
769.142	1058.29
769.324	1058.29
769.507	1078.77
769.69	1019.38
769.873	996.85
770.056	1132.01
770.239	1009.14
770.421	1050.1
770.604	1054.19
770.787	1117.68
770.97	894.45
771.152	1005.04
771.335	925.17
771.518	1029.62
771.7	1035.76
771.883	1074.67
772.066	937.46
772.248	996.85
772.431	1035.76
772.613	1060.34
772.796	896.5
772.978	964.08
773.161	912.88
773.343	937.46
773.526	1039.86
773.708	955.89
773.891	886.26
774.073	1002.99
774.256	873.97
774.438	892.4
774.621	851.44
774.803	894.45
774.985	884.21
775.168	869.87
775.35	878.07
775.532	951.79
775.715	898.55
775.897	812.53
776.079	925.17
776.261	867.83
776.444	833.01
776.626	902.64
776.808	908.79
776.99	775.67
777.173	802.29
777.355	794.1
777.537	843.25
777.719	884.21
777.901	751.09
778.083	835.06
778.265	742.9
778.447	763.38
778.629	628.21
778.811	816.63
778.993	732.66
779.175	757.24
779.357	757.24
779.539	761.33
779.721	714.23
779.903	777.72
780.085	620.02
780.267	669.17
780.449	646.65
780.631	732.66
780.812	671.22
780.994	695.8
781.176	632.31
781.358	671.22
781.54	732.66
781.721	613.88
781.903	734.71
782.085	665.08
782.267	660.98
782.448	640.5
782.63	579.06
782.812	609.78
782.993	650.74
783.175	632.31
783.357	583.16
783.538	642.55
783.72	644.6
783.901	620.02
784.083	622.07
784.264	593.4
784.446	587.26
784.627	534.01
784.809	572.92
784.99	562.68
785.172	503.29
785.353	515.58
785.535	579.06
785.716	491
785.897	503.29
786.079	611.83
786.26	531.96
786.441	609.78
786.623	470.52
786.804	470.52
786.985	491
787.167	525.82
787.348	402.94
787.529	499.19
787.71	486.9
787.891	439.8
788.073	482.81
788.254	458.23
788.435	572.92
788.616	435.71
788.797	441.85
788.978	488.95
789.159	398.84
789.34	443.9
789.522	382.46
789.703	394.75
789.884	445.95
790.065	419.32
790.246	435.71
790.427	452.09
790.607	439.8
790.788	411.13
790.969	409.08
791.15	378.36
791.331	339.45
791.512	335.35
791.693	380.41
791.874	441.85
792.054	380.41
792.235	384.51
792.416	357.88
792.597	364.03
792.778	386.55
792.958	429.56
793.139	402.94
793.32	355.83
793.5	384.51
793.681	345.59
793.862	312.83
794.042	370.17
794.223	333.31
794.404	271.87
794.584	273.92
794.765	298.49
794.945	235
795.126	335.35
795.306	364.03
795.487	427.51
795.667	339.45
795.848	361.98
796.028	288.25
796.209	378.36
796.389	349.69
796.57	388.6
796.75	376.31
796.93	286.2
797.111	314.88
797.291	292.35
797.471	351.74
797.652	378.36
797.832	271.87
798.012	294.4
798.192	267.77
798.373	249.34
798.553	351.74
798.733	286.2
798.913	280.06
799.093	296.44
799.274	298.49
799.454	296.44
799.634	278.01
799.814	245.24
799.994	300.54
800.174	271.87
800.354	347.64
800.534	263.68
800.714	361.98
800.894	273.92
801.074	255.48
801.254	312.83
801.434	263.68
801.614	235
801.794	230.91
801.974	626.17
802.154	331.26
802.334	241.15
802.514	263.68
802.693	273.92
802.873	282.11
803.053	159.23
803.233	323.07
803.413	259.58
803.592	226.81
803.772	312.83
803.952	210.43
804.131	237.05
804.311	220.67
804.491	275.96
804.67	247.29
804.85	224.76
805.03	265.72
805.209	261.63
805.389	228.86
805.568	198.14
805.748	257.53
805.928	222.72
806.107	245.24
806.287	275.96
806.466	214.52
806.646	214.52
806.825	251.39
807.004	228.86
807.184	161.28
807.363	216.57
807.543	153.09
807.722	243.2
807.901	200.19
808.081	173.57
808.26	194.05
808.439	226.81
808.619	218.62
808.798	200.19
808.977	116.22
809.156	196.09
809.336	243.2
809.515	247.29
809.694	165.37
809.873	245.24
810.052	253.44
810.231	194.05
810.411	251.39
810.59	243.2
810.769	161.28
810.948	185.85
811.127	126.46
811.306	189.95
811.485	134.65
811.664	226.81
811.843	146.94
812.022	130.56
812.201	159.23
812.38	226.81
812.559	75.26
812.737	130.56
812.916	116.22
813.095	245.24
813.274	148.99
813.453	116.22
813.632	204.28
813.811	194.05
813.989	122.37
814.168	165.37
814.347	144.89
814.526	159.23
814.704	148.99
814.883	239.1
815.062	134.65
815.24	126.46
815.419	171.52
815.598	151.04
815.776	132.61
815.955	194.05
816.133	75.26
816.312	151.04
816.49	112.13
816.669	151.04
816.847	144.89
817.026	144.89
817.204	167.42
817.383	161.28
817.561	134.65
817.74	181.76
817.918	148.99
818.097	118.27
818.275	79.36
818.453	65.02
818.632	132.61
818.81	134.65
818.988	161.28
819.167	144.89
819.345	148.99
819.523	179.71
819.701	95.74
819.879	126.46
820.058	128.51
820.236	173.57
820.414	54.78
820.592	62.98
820.77	73.21
820.948	93.69
821.127	95.74
821.305	187.9
821.483	163.33
821.661	235
821.839	132.61
822.017	142.85
822.195	65.02
822.373	116.22
822.551	136.7
822.729	128.51
822.907	163.33
823.085	142.85
823.262	67.07
823.44	169.47
823.618	89.6
823.796	185.85
823.974	122.37
824.152	142.85
824.329	112.13
824.507	142.85
824.685	122.37
824.863	99.84
825.04	77.31
825.218	112.13
825.396	130.56
825.574	77.31
825.751	122.37
825.929	112.13
826.107	58.88
826.284	116.22
826.462	138.75
826.639	62.98
826.817	114.17
826.994	130.56
827.172	38.4
827.349	89.6
827.527	181.76
827.704	112.13
827.882	22.02
828.059	110.08
828.237	128.51
828.414	134.65
828.591	89.6
828.769	75.26
828.946	81.41
829.124	79.36
829.301	140.8
829.478	95.74
829.655	85.5
829.833	77.31
830.01	52.74
830.187	58.88
830.364	81.41
830.542	60.93
830.719	85.5
830.896	22.02
831.073	42.5
831.25	134.65
831.427	101.89
831.604	81.41
831.782	22.02
831.959	79.36
832.136	3.58
832.313	15.87
832.49	110.08
832.667	30.21
832.844	126.46
833.021	108.03
833.198	79.36
833.374	77.31
833.551	73.21
833.728	-8.7
833.905	122.37
834.082	50.69
834.259	73.21
834.436	108.03
834.612	81.41
834.789	165.37
834.966	58.88
835.143	83.45
835.319	52.74
835.496	114.17
835.673	5.63
835.85	52.74
836.026	71.17
836.203	7.68
836.38	19.97
836.556	32.26
836.733	-18.94
836.909	105.98
837.086	5.63
837.262	38.4
837.439	60.93
837.616	50.69
837.792	85.5
837.968	89.6
838.145	69.12
838.321	19.97
838.498	7.68
838.674	134.65
838.851	130.56
839.027	30.21
839.203	67.07
839.38	112.13
839.556	118.27
839.732	93.69
839.909	42.5
840.085	60.93
840.261	93.69
840.437	36.35
840.614	5.63
840.79	83.45
840.966	-10.75
841.142	101.89
841.318	-20.99
841.494	28.16
841.671	46.59
841.847	62.98
842.023	24.06
842.199	34.3
842.375	36.35
842.551	28.16
842.727	11.78
842.903	71.17
843.079	103.93
843.255	65.02
843.431	28.16
843.607	83.45
843.783	46.59
843.959	91.65
844.134	62.98
844.31	81.41
844.486	75.26
844.662	-33.28
844.838	36.35
845.013	-2.56
845.189	81.41
845.365	44.54
845.541	65.02
845.716	93.69
845.892	40.45
846.068	30.21
846.244	-18.94
846.419	62.98
846.595	-39.42
846.77	-20.99
846.946	67.07
847.122	-4.61
847.297	54.78
847.473	81.41
847.648	-12.8
847.824	42.5
847.999	-35.33
848.175	58.88
848.35	56.83
848.526	28.16
848.701	40.45
848.876	56.83
849.052	58.88
849.227	50.69
849.403	11.78
849.578	7.68
849.753	89.6
849.929	28.16
850.104	48.64
850.279	52.74
850.454	17.92
850.63	-2.56
850.805	-18.94
850.98	58.88
851.155	32.26
851.33	52.74
851.505	-16.9
851.681	17.92
851.856	48.64
852.031	3.58
852.206	40.45
852.381	108.03
852.556	22.02
852.731	89.6
852.906	48.64
853.081	7.68
853.256	50.69
853.431	17.92
853.606	46.59
853.781	54.78
853.956	-8.7
854.131	-27.14
854.305	-10.75
854.48	56.83
854.655	7.68
854.83	9.73
855.005	-25.09
855.18	3.58
855.354	-8.7
855.529	-6.66
855.704	-23.04
855.879	1.54
856.053	7.68
856.228	-12.8
856.403	15.87
856.577	-10.75
856.752	3.58
856.926	85.5
857.101	-23.04
857.276	-18.94
857.45	58.88
857.625	30.21
857.799	-18.94
857.974	-18.94
858.148	19.97
858.323	34.3
858.497	3.58
858.672	44.54
858.846	-0.51
859.02	54.78
859.195	-45.57
859.369	-2.56
859.543	19.97
859.718	38.4
859.892	46.59
860.066	77.31
860.241	56.83
860.415	-2.56
860.589	-35.33
860.763	-23.04
860.938	24.06
861.112	-0.51
861.286	-2.56
861.46	7.68
861.634	-14.85
861.808	42.5
861.982	44.54
862.157	-0.51
862.331	17.92
862.505	-14.85
862.679	-8.7
862.853	36.35
863.027	30.21
863.201	-4.61
863.375	-41.47
863.549	73.21
863.722	7.68
863.896	-6.66
864.07	-45.57
864.244	50.69
864.418	-39.42
864.592	62.98
864.766	22.02
864.939	60.93
865.113	5.63
865.287	24.06
865.461	13.82
865.634	30.21
865.808	-57.86
865.982	83.45
866.156	-16.9
866.329	-2.56
866.503	22.02
866.676	15.87
866.85	11.78
867.024	-12.8
867.197	-6.66
867.371	40.45
867.544	22.02
867.718	-115.2
867.891	13.82
868.065	-57.86
868.238	-16.9
868.412	-16.9
868.585	48.64
868.759	-4.61
868.932	1.54
869.105	-37.38
869.279	-10.75
869.452	-45.57
869.625	24.06
869.799	-2.56
869.972	42.5
870.145	-18.94
870.319	-14.85
870.492	-20.99
870.665	48.64
870.838	44.54
871.011	-82.43
871.185	3.58
871.358	28.16
871.531	60.93
871.704	30.21
871.877	36.35
872.05	50.69
872.223	-41.47
872.396	46.59
872.569	67.07
872.742	-35.33
872.915	13.82
873.088	-49.66
873.261	-6.66
873.434	15.87
873.607	11.78
873.78	30.21
873.953	7.68
874.126	13.82
874.299	79.36
874.471	-8.7
874.644	-35.33
874.817	62.98
874.99	77.31
875.163	-59.9
875.335	5.63
875.508	5.63
875.681	40.45
875.853	36.35
876.026	-45.57
876.199	36.35
876.371	-45.57
876.544	-29.18
876.717	-61.95
876.889	19.97
877.062	32.26
877.234	-23.04
877.407	-10.75
877.579	19.97
877.752	32.26
877.924	17.92
878.097	32.26
878.269	-6.66
878.442	15.87
878.614	15.87
878.786	15.87
878.959	54.78
879.131	32.26
879.303	-25.09
879.476	42.5
879.648	54.78
879.82	-12.8
879.993	28.16
880.165	-29.18
880.337	-33.28
880.509	-18.94
880.681	24.06
880.854	19.97
881.026	-29.18
881.198	50.69
881.37	11.78
881.542	-14.85
881.714	75.26
881.886	-23.04
882.058	36.35
882.23	42.5
882.402	-20.99
882.574	-29.18
882.746	-12.8
882.918	13.82
883.09	28.16
883.262	32.26
883.434	-2.56
883.606	11.78
883.778	-23.04
883.95	34.3
884.122	-41.47
884.293	26.11
884.465	-16.9
884.637	-70.14
884.809	-35.33
884.98	-16.9
885.152	-25.09
885.324	26.11
885.496	-0.51
885.667	28.16
885.839	-55.81
886.011	-10.75
886.182	22.02
886.354	38.4
886.525	62.98
886.697	62.98
886.869	-25.09
887.04	5.63
887.212	-53.76
887.383	89.6
887.555	17.92
887.726	-41.47
887.897	-47.62
888.069	-8.7
888.24	9.73
888.412	-31.23
888.583	-4.61
888.754	-55.81
888.926	-10.75
889.097	-14.85
889.268	-51.71
889.44	-8.7
889.611	3.58
889.782	-18.94
889.953	-53.76
890.125	-14.85
890.296	32.26
890.467	32.26
890.638	-23.04
890.809	-29.18
890.98	-66.05
891.151	1.54
891.323	-2.56
891.494	-0.51
891.665	42.5
891.836	-0.51
892.007	34.3
892.178	-14.85
892.349	-4.61
892.52	58.88
892.691	-25.09
892.862	-14.85
893.032	-39.42
893.203	-47.62
893.374	-20.99
893.545	1.54
893.716	-12.8
893.887	-16.9
894.057	-49.66
894.228	-12.8
894.399	48.64
894.57	46.59
894.74	-31.23
894.911	19.97
895.082	48.64
895.253	-31.23
895.423	34.3
895.594	-8.7
895.764	62.98
895.935	-18.94
896.106	30.21
896.276	-16.9
896.447	-139.77
896.617	36.35
896.788	26.11
896.958	-20.99
897.129	-8.7
897.299	-4.61
897.47	-37.38
897.64	-16.9
897.81	-76.29
897.981	54.78
898.151	-6.66
898.322	13.82
898.492	-51.71
898.662	22.02
898.832	-55.81
899.003	-86.53
899.173	-35.33
899.343	-84.48
899.513	30.21
