Data from USB4F104151__36__11-51-43-348.txt Node

Date: Fri Mar 14 11:51:43 EDT 2025
User: louis
Spectrometer: USB4F10415
Trigger mode: 4
Integration Time (sec): 2.000000E-2
Scans to average: 1
Electric dark correction enabled: true
Nonlinearity correction enabled: false
Boxcar width: 0
XAxis mode: Wavelengths
Number of Pixels in Spectrum: 3648
>>>>>Begin Spectral Data<<<<<
178.204	-105.13
178.424	-105.13
178.644	-105.13
178.864	-70.31
179.084	-23.21
179.304	-0.68
179.524	-19.11
179.744	-39.59
179.964	97.62
180.184	-64.17
180.404	-8.87
180.624	77.14
180.844	58.71
181.064	-96.94
181.283	-0.68
181.503	21.85
181.723	-25.26
181.943	-17.07
182.163	27.99
182.383	-8.87
182.602	56.66
182.822	-19.11
183.042	3.41
183.262	-41.64
183.482	36.18
183.701	-6.83
183.921	-0.68
184.141	-8.87
184.361	34.13
184.58	15.7
184.8	-4.78
185.02	-31.4
185.239	-33.45
185.459	17.75
185.679	-23.21
185.898	-23.21
186.118	-47.79
186.338	19.8
186.557	11.61
186.777	19.8
186.997	-27.31
187.216	-41.64
187.436	142.68
187.655	-78.51
187.875	83.28
188.095	-12.97
188.314	23.89
188.534	1.37
188.753	-10.92
188.973	48.47
189.192	-0.68
189.412	-23.21
189.631	-2.73
189.851	23.89
190.07	-33.45
190.29	-31.4
190.509	85.33
190.729	54.61
190.948	13.65
191.168	15.7
191.387	79.19
191.607	3.41
191.826	19.8
192.045	40.28
192.265	-23.21
192.484	-68.27
192.704	38.23
192.923	-41.64
193.142	38.23
193.362	52.56
193.581	56.66
193.8	-21.16
194.02	23.89
194.239	52.56
194.458	7.51
194.678	23.89
194.897	25.94
195.116	-2.73
195.335	3.41
195.555	52.56
195.774	50.52
195.993	42.32
196.212	62.8
196.432	-10.92
196.651	36.18
196.87	66.9
197.089	21.85
197.308	11.61
197.528	19.8
197.747	-58.03
197.966	30.04
198.185	-53.93
198.404	-33.45
198.623	30.04
198.842	11.61
199.062	-15.02
199.281	48.47
199.5	40.28
199.719	19.8
199.938	50.52
200.157	-6.83
200.376	48.47
200.595	50.52
200.814	25.94
201.033	-37.55
201.252	-27.31
201.471	5.46
201.69	-8.87
201.909	-35.5
202.128	-39.59
202.347	38.23
202.566	-15.02
202.785	9.56
203.004	30.04
203.223	81.24
203.442	15.7
203.661	-45.74
203.879	-62.12
204.098	32.08
204.317	30.04
204.536	-66.22
204.755	34.13
204.974	-29.35
205.193	-43.69
205.411	77.14
205.63	23.89
205.849	-27.31
206.068	32.08
206.287	21.85
206.505	-8.87
206.724	-51.88
206.943	7.51
207.162	-4.78
207.381	-53.93
207.599	56.66
207.818	17.75
208.037	32.08
208.255	-25.26
208.474	23.89
208.693	-17.07
208.911	17.75
209.13	23.89
209.349	27.99
209.567	81.24
209.786	91.48
210.005	7.51
210.223	-41.64
210.442	-27.31
210.661	23.89
210.879	15.7
211.098	38.23
211.316	-29.35
211.535	44.37
211.753	34.13
211.972	42.32
212.191	-39.59
212.409	87.38
212.628	56.66
212.846	-19.11
213.065	-12.97
213.283	64.85
213.502	-78.51
213.72	27.99
213.938	64.85
214.157	48.47
214.375	17.75
214.594	-15.02
214.812	81.24
215.031	83.28
215.249	19.8
215.467	-25.26
215.686	-2.73
215.904	5.46
216.122	21.85
216.341	7.51
216.559	-12.97
216.778	36.18
216.996	-72.36
217.214	-47.79
217.432	30.04
217.651	36.18
217.869	44.37
218.087	-15.02
218.306	25.94
218.524	17.75
218.742	-10.92
218.96	5.46
219.179	-35.5
219.397	9.56
219.615	23.89
219.833	-31.4
220.051	34.13
220.27	-0.68
220.488	19.8
220.706	56.66
220.924	-41.64
221.142	60.76
221.36	-15.02
221.578	21.85
221.796	-0.68
222.015	17.75
222.233	42.32
222.451	27.99
222.669	-76.46
222.887	48.47
223.105	40.28
223.323	48.47
223.541	-2.73
223.759	-8.87
223.977	30.04
224.195	-33.45
224.413	-10.92
224.631	23.89
224.849	-27.31
225.067	19.8
225.285	-4.78
225.503	-17.07
225.721	36.18
225.939	91.48
226.157	-68.27
226.375	44.37
226.592	19.8
226.81	19.8
227.028	64.85
227.246	122.2
227.464	-33.45
227.682	38.23
227.9	56.66
228.117	17.75
228.335	-25.26
228.553	-37.55
228.771	15.7
228.989	36.18
229.206	19.8
229.424	1.37
229.642	9.56
229.86	38.23
230.077	40.28
230.295	-39.59
230.513	15.7
230.731	36.18
230.948	40.28
231.166	132.44
231.384	30.04
231.601	-4.78
231.819	34.13
232.037	97.62
232.254	17.75
232.472	34.13
232.689	5.46
232.907	60.76
233.125	48.47
233.342	-55.98
233.56	11.61
233.777	36.18
233.995	-12.97
234.213	38.23
234.43	44.37
234.648	38.23
234.865	5.46
235.083	68.95
235.3	95.57
235.518	15.7
235.735	-29.35
235.953	23.89
236.17	-4.78
236.388	48.47
236.605	-27.31
236.822	-10.92
237.04	7.51
237.257	97.62
237.475	5.46
237.692	40.28
237.909	77.14
238.127	81.24
238.344	9.56
238.562	71
238.779	-10.92
238.996	-21.16
239.214	17.75
239.431	99.67
239.648	-45.74
239.865	75.09
240.083	-21.16
240.3	-23.21
240.517	-29.35
240.735	15.7
240.952	7.51
241.169	58.71
241.386	91.48
241.603	42.32
241.821	-23.21
242.038	118.1
242.255	42.32
242.472	-19.11
242.689	15.7
242.907	42.32
243.124	-6.83
243.341	9.56
243.558	-2.73
243.775	54.61
243.992	-17.07
244.209	17.75
244.426	30.04
244.643	44.37
244.86	-10.92
245.078	44.37
245.295	42.32
245.512	3.41
245.729	7.51
245.946	-21.16
246.163	-31.4
246.38	3.41
246.597	-39.59
246.814	32.08
247.031	21.85
247.248	-0.68
247.464	3.41
247.681	27.99
247.898	1.37
248.115	19.8
248.332	15.7
248.549	7.51
248.766	62.8
248.983	34.13
249.2	27.99
249.417	-2.73
249.633	-12.97
249.85	23.89
250.067	-8.87
250.284	58.71
250.501	-35.5
250.717	77.14
250.934	-6.83
251.151	66.9
251.368	38.23
251.585	66.9
251.801	42.32
252.018	46.42
252.235	30.04
252.451	30.04
252.668	7.51
252.885	-17.07
253.102	54.61
253.318	-41.64
253.535	44.37
253.752	27.99
253.968	68.95
254.185	-58.03
254.401	-41.64
254.618	-27.31
254.835	-29.35
255.051	79.19
255.268	27.99
255.484	46.42
255.701	52.56
255.917	40.28
256.134	-66.22
256.351	-12.97
256.567	-53.93
256.784	19.8
257	11.61
257.217	38.23
257.433	64.85
257.65	36.18
257.866	13.65
258.082	-6.83
258.299	32.08
258.515	40.28
258.732	-94.89
258.948	44.37
259.165	54.61
259.381	75.09
259.597	93.52
259.814	32.08
260.03	-35.5
260.246	30.04
260.463	46.42
260.679	9.56
260.895	101.72
261.112	30.04
261.328	27.99
261.544	48.47
261.761	44.37
261.977	148.82
262.193	-12.97
262.409	85.33
262.626	-25.26
262.842	56.66
263.058	68.95
263.274	54.61
263.49	30.04
263.707	44.37
263.923	89.43
264.139	36.18
264.355	-39.59
264.571	95.57
264.787	19.8
265.004	42.32
265.22	5.46
265.436	-8.87
265.652	-47.79
265.868	25.94
266.084	38.23
266.3	50.52
266.516	23.89
266.732	36.18
266.948	-8.87
267.164	40.28
267.38	21.85
267.596	58.71
267.812	21.85
268.028	7.51
268.244	-15.02
268.46	-4.78
268.676	25.94
268.892	-86.7
269.108	1.37
269.324	50.52
269.54	-10.92
269.756	9.56
269.972	-17.07
270.188	83.28
270.403	-35.5
270.619	44.37
270.835	32.08
271.051	52.56
271.267	13.65
271.483	5.46
271.698	9.56
271.914	-19.11
272.13	48.47
272.346	19.8
272.562	32.08
272.777	52.56
272.993	36.18
273.209	105.81
273.425	-19.11
273.64	21.85
273.856	-6.83
274.072	-55.98
274.287	27.99
274.503	54.61
274.719	13.65
274.934	99.67
275.15	11.61
275.366	3.41
275.581	54.61
275.797	-6.83
276.012	7.51
276.228	38.23
276.444	27.99
276.659	21.85
276.875	-8.87
277.09	27.99
277.306	-2.73
277.521	-12.97
277.737	11.61
277.952	60.76
278.168	-31.4
278.383	15.7
278.599	62.8
278.814	75.09
279.03	30.04
279.245	54.61
279.461	7.51
279.676	-43.69
279.892	64.85
280.107	23.89
280.322	19.8
280.538	42.32
280.753	21.85
280.969	-33.45
281.184	5.46
281.399	-8.87
281.615	13.65
281.83	27.99
282.045	19.8
282.26	-39.59
282.476	64.85
282.691	68.95
282.906	19.8
283.122	9.56
283.337	-0.68
283.552	93.52
283.767	50.52
283.983	25.94
284.198	40.28
284.413	27.99
284.628	-8.87
284.843	5.46
285.058	50.52
285.274	32.08
285.489	40.28
285.704	38.23
285.919	-8.87
286.134	-23.21
286.349	-58.03
286.564	38.23
286.779	-4.78
286.995	-29.35
287.21	1.37
287.425	3.41
287.64	-35.5
287.855	99.67
288.07	-0.68
288.285	15.7
288.5	-2.73
288.715	40.28
288.93	-74.41
289.145	25.94
289.36	77.14
289.575	19.8
289.79	77.14
290.004	87.38
290.219	56.66
290.434	-4.78
290.649	-27.31
290.864	44.37
291.079	40.28
291.294	1.37
291.509	-45.74
291.724	-12.97
291.938	-12.97
292.153	48.47
292.368	126.29
292.583	19.8
292.798	9.56
293.012	62.8
293.227	23.89
293.442	23.89
293.657	25.94
293.871	3.41
294.086	66.9
294.301	73.04
294.516	79.19
294.73	42.32
294.945	-103.08
295.16	19.8
295.374	52.56
295.589	15.7
295.804	19.8
296.018	-2.73
296.233	73.04
296.447	-8.87
296.662	60.76
296.877	107.86
297.091	46.42
297.306	-8.87
297.52	-27.31
297.735	73.04
297.949	32.08
298.164	-21.16
298.378	-37.55
298.593	9.56
298.807	91.48
299.022	77.14
299.236	-12.97
299.451	40.28
299.665	-47.79
299.88	42.32
300.094	79.19
300.309	13.65
300.523	19.8
300.737	27.99
300.952	50.52
301.166	13.65
301.381	15.7
301.595	89.43
301.809	-8.87
302.024	-12.97
302.238	38.23
302.452	9.56
302.667	-49.83
302.881	38.23
303.095	64.85
303.309	-23.21
303.524	-12.97
303.738	-17.07
303.952	87.38
304.166	71
304.381	19.8
304.595	34.13
304.809	-12.97
305.023	27.99
305.237	42.32
305.452	-15.02
305.666	-19.11
305.88	13.65
306.094	19.8
306.308	-33.45
306.522	23.89
306.736	87.38
306.95	17.75
307.164	19.8
307.379	-47.79
307.593	52.56
307.807	83.28
308.021	68.95
308.235	50.52
308.449	38.23
308.663	-12.97
308.877	-6.83
309.091	40.28
309.305	19.8
309.519	-43.69
309.733	5.46
309.947	-0.68
310.161	50.52
310.374	44.37
310.588	75.09
310.802	48.47
311.016	36.18
311.23	64.85
311.444	11.61
311.658	38.23
311.872	99.67
312.085	52.56
312.299	7.51
312.513	1.37
312.727	5.46
312.941	13.65
313.154	25.94
313.368	-12.97
313.582	-2.73
313.796	44.37
314.009	36.18
314.223	73.04
314.437	27.99
314.651	-21.16
314.864	19.8
315.078	30.04
315.292	-10.92
315.505	-37.55
315.719	66.9
315.933	7.51
316.146	-0.68
316.36	32.08
316.573	105.81
316.787	13.65
317.001	5.46
317.214	-23.21
317.428	-4.78
317.641	-35.5
317.855	-8.87
318.068	40.28
318.282	5.46
318.495	-4.78
318.709	-35.5
318.922	-41.64
319.136	-10.92
319.349	93.52
319.563	7.51
319.776	13.65
319.99	-8.87
320.203	77.14
320.417	56.66
320.63	3.41
320.843	71
321.057	15.7
321.27	71
321.483	-8.87
321.697	75.09
321.91	-2.73
322.124	36.18
322.337	19.8
322.55	-0.68
322.763	81.24
322.977	-12.97
323.19	3.41
323.403	30.04
323.617	27.99
323.83	60.76
324.043	-33.45
324.256	64.85
324.469	-25.26
324.683	140.63
324.896	-35.5
325.109	-10.92
325.322	-0.68
325.535	122.2
325.748	17.75
325.962	54.61
326.175	40.28
326.388	30.04
326.601	-2.73
326.814	38.23
327.027	44.37
327.24	7.51
327.453	-33.45
327.666	40.28
327.879	15.7
328.092	52.56
328.305	36.18
328.518	-29.35
328.731	-19.11
328.944	40.28
329.157	38.23
329.37	15.7
329.583	32.08
329.796	58.71
330.009	-35.5
330.222	56.66
330.435	1.37
330.648	23.89
330.861	30.04
331.073	48.47
331.286	68.95
331.499	64.85
331.712	-66.22
331.925	36.18
332.138	21.85
332.35	107.86
332.563	40.28
332.776	54.61
332.989	25.94
333.202	30.04
333.414	-17.07
333.627	56.66
333.84	40.28
334.053	50.52
334.265	77.14
334.478	79.19
334.691	-8.87
334.903	11.61
335.116	7.51
335.329	52.56
335.541	54.61
335.754	71
335.966	5.46
336.179	38.23
336.392	95.57
336.604	-51.88
336.817	25.94
337.029	87.38
337.242	40.28
337.454	81.24
337.667	-37.55
337.88	-2.73
338.092	42.32
338.305	71
338.517	-43.69
338.729	21.85
338.942	-2.73
339.154	-2.73
339.367	3.41
339.579	9.56
339.792	-4.78
340.004	42.32
340.217	-66.22
340.429	30.04
340.641	-47.79
340.854	66.9
341.066	30.04
341.278	95.57
341.491	-6.83
341.703	-8.87
341.915	-25.26
342.128	54.61
342.34	85.33
342.552	17.75
342.764	32.08
342.977	58.71
343.189	62.8
343.401	1.37
343.613	30.04
343.826	81.24
344.038	-39.59
344.25	-66.22
344.462	5.46
344.674	-37.55
344.886	15.7
345.099	32.08
345.311	13.65
345.523	54.61
345.735	46.42
345.947	58.71
346.159	11.61
346.371	-21.16
346.583	111.96
346.795	30.04
347.007	64.85
347.219	-15.02
347.431	107.86
347.643	-8.87
347.855	-21.16
348.067	15.7
348.279	-35.5
348.491	36.18
348.703	60.76
348.915	89.43
349.127	15.7
349.339	91.48
349.551	44.37
349.763	79.19
349.975	-23.21
350.187	48.47
350.399	44.37
350.61	52.56
350.822	58.71
351.034	-2.73
351.246	30.04
351.458	56.66
351.669	77.14
351.881	23.89
352.093	81.24
352.305	77.14
352.517	23.89
352.728	36.18
352.94	25.94
353.152	85.33
353.363	56.66
353.575	68.95
353.787	38.23
353.999	25.94
354.21	60.76
354.422	25.94
354.633	-27.31
354.845	-37.55
355.057	-4.78
355.268	50.52
355.48	52.56
355.692	-35.5
355.903	9.56
356.115	1.37
356.326	56.66
356.538	58.71
356.749	7.51
356.961	40.28
357.172	-4.78
357.384	83.28
357.595	64.85
357.807	66.9
358.018	64.85
358.23	64.85
358.441	91.48
358.653	7.51
358.864	-43.69
359.075	91.48
359.287	73.04
359.498	40.28
359.709	-37.55
359.921	50.52
360.132	99.67
360.344	50.52
360.555	-41.64
360.766	42.32
360.977	27.99
361.189	81.24
361.4	27.99
361.611	23.89
361.823	101.72
362.034	3.41
362.245	-17.07
362.456	54.61
362.667	15.7
362.879	-17.07
363.09	52.56
363.301	58.71
363.512	56.66
363.723	36.18
363.935	32.08
364.146	58.71
364.357	89.43
364.568	-31.4
364.779	1.37
364.99	3.41
365.201	7.51
365.412	15.7
365.623	5.46
365.834	23.89
366.045	-35.5
366.256	34.13
366.467	15.7
366.678	11.61
366.889	13.65
367.1	30.04
367.311	52.56
367.522	-10.92
367.733	5.46
367.944	40.28
368.155	68.95
368.366	73.04
368.577	44.37
368.788	64.85
368.999	7.51
369.209	34.13
369.42	118.1
369.631	46.42
369.842	114
370.053	-2.73
370.264	-2.73
370.474	40.28
370.685	25.94
370.896	36.18
371.107	48.47
371.317	30.04
371.528	3.41
371.739	46.42
371.95	60.76
372.16	25.94
372.371	-51.88
372.582	62.8
372.792	-25.26
373.003	71
373.214	-27.31
373.424	9.56
373.635	89.43
373.846	93.52
374.056	5.46
374.267	25.94
374.477	81.24
374.688	54.61
374.898	60.76
375.109	15.7
375.319	56.66
375.53	128.34
375.74	89.43
375.951	36.18
376.161	62.8
376.372	48.47
376.582	15.7
376.793	64.85
377.003	25.94
377.214	11.61
377.424	5.46
377.635	25.94
377.845	58.71
378.055	17.75
378.266	15.7
378.476	17.75
378.686	-6.83
378.897	109.91
379.107	46.42
379.317	9.56
379.528	-6.83
379.738	103.76
379.948	-10.92
380.158	89.43
380.369	-2.73
380.579	103.76
380.789	40.28
380.999	89.43
381.21	42.32
381.42	77.14
381.63	44.37
381.84	56.66
382.05	60.76
382.261	99.67
382.471	52.56
382.681	36.18
382.891	42.32
383.101	46.42
383.311	-51.88
383.521	60.76
383.731	-8.87
383.941	62.8
384.151	13.65
384.361	42.32
384.571	64.85
384.781	23.89
384.991	89.43
385.201	60.76
385.411	34.13
385.621	46.42
385.831	54.61
386.041	30.04
386.251	54.61
386.461	32.08
386.671	-0.68
386.881	38.23
387.091	66.9
387.301	83.28
387.511	91.48
387.72	62.8
387.93	23.89
388.14	-29.35
388.35	62.8
388.56	114
388.769	99.67
388.979	103.76
389.189	-19.11
389.399	13.65
389.609	38.23
389.818	83.28
390.028	42.32
390.238	11.61
390.447	-4.78
390.657	62.8
390.867	38.23
391.076	32.08
391.286	64.85
391.496	5.46
391.705	15.7
391.915	105.81
392.125	46.42
392.334	11.61
392.544	58.71
392.753	25.94
392.963	17.75
393.172	60.76
393.382	75.09
393.591	189.78
393.801	25.94
394.01	71
394.22	83.28
394.429	56.66
394.639	54.61
394.848	105.81
395.058	101.72
395.267	17.75
395.477	75.09
395.686	73.04
395.895	42.32
396.105	191.83
396.314	25.94
396.524	40.28
396.733	81.24
396.942	126.29
397.152	38.23
397.361	126.29
397.57	34.13
397.78	140.63
397.989	105.81
398.198	165.2
398.407	56.66
398.617	79.19
398.826	118.1
399.035	52.56
399.244	93.52
399.453	93.52
399.663	99.67
399.872	42.32
400.081	105.81
400.29	73.04
400.499	116.05
400.708	79.19
400.917	62.8
401.127	124.24
401.336	99.67
401.545	93.52
401.754	122.2
401.963	62.8
402.172	38.23
402.381	50.52
402.59	91.48
402.799	154.96
403.008	161.11
403.217	111.96
403.426	134.48
403.635	89.43
403.844	103.76
404.053	126.29
404.262	120.15
404.471	71
404.68	179.54
404.888	95.57
405.097	85.33
405.306	136.53
405.515	165.2
405.724	177.49
405.933	140.63
406.142	154.96
406.35	161.11
406.559	179.54
406.768	138.58
406.977	144.72
407.185	193.87
407.394	204.11
407.603	181.59
407.812	204.11
408.02	202.07
408.229	222.55
408.438	197.97
408.646	228.69
408.855	175.44
409.064	212.31
409.272	179.54
409.481	154.96
409.69	204.11
409.898	255.31
410.107	189.78
410.315	267.6
410.524	245.07
410.733	261.46
410.941	283.99
411.15	324.94
411.358	210.26
411.567	345.42
411.775	345.42
411.984	408.91
412.192	335.18
412.401	415.06
412.609	494.93
412.818	472.4
413.026	443.73
413.234	474.45
413.443	470.35
413.651	456.01
413.86	519.5
414.068	566.6
414.276	562.51
414.485	531.79
414.693	564.56
414.901	662.86
415.11	621.9
415.318	671.05
415.526	712.01
415.734	726.35
415.943	675.15
416.151	742.73
416.359	800.07
416.567	902.47
416.776	785.74
416.984	906.57
417.192	910.66
417.4	857.42
417.608	871.75
417.817	957.77
418.025	1004.87
418.233	1037.64
418.441	1060.17
418.649	1047.88
418.857	1047.88
419.065	1176.9
419.273	1119.56
419.481	1187.14
419.689	1375.55
419.897	1375.55
420.105	1348.93
420.313	1463.62
420.521	1584.45
420.729	1486.14
420.937	1596.73
421.145	1637.69
421.353	1596.73
421.561	1733.95
421.769	1774.91
421.977	1871.16
422.185	1781.05
422.393	1998.13
422.601	2059.57
422.809	2180.4
423.017	1942.84
423.224	2096.44
423.432	2176.31
423.64	2301.23
423.848	2479.41
424.056	2489.65
424.263	2635.05
424.471	2516.27
424.679	2606.38
424.887	2809.13
425.094	2942.25
425.302	2882.86
425.51	2886.95
425.718	3097.89
425.925	3157.29
426.133	3239.2
426.341	3403.04
426.548	3654.94
426.756	3540.26
426.964	3513.63
427.171	3867.93
427.379	3829.02
427.586	4039.96
427.794	4117.78
428.001	4351.25
428.209	4506.9
428.417	4320.53
428.624	4597.01
428.832	4750.6
429.039	4613.39
429.247	4723.98
429.454	5197.06
429.662	5514.5
429.869	5166.34
430.076	5551.36
430.284	5393.67
430.491	5614.85
430.699	5856.51
430.906	5991.67
431.114	5893.37
431.321	6055.16
431.528	6423.8
431.736	6730.99
431.943	6923.5
432.15	6751.47
432.358	6943.98
432.565	7402.72
432.772	7404.77
432.979	7744.74
433.187	7726.3
433.394	7916.76
433.601	8457.43
433.808	8303.83
434.016	8408.28
434.223	8844.49
434.43	9229.51
434.637	8901.84
434.844	9487.56
435.052	9551.04
435.259	9848
435.466	9940.16
435.673	9718.98
435.88	10374.33
436.087	11068.59
436.294	10794.16
436.501	10431.67
436.708	10767.54
436.915	11199.66
437.122	11652.26
437.329	11852.96
437.537	12117.15
437.743	12285.08
437.95	12000.41
438.157	12811.41
438.364	13513.86
438.571	13040.78
438.778	13212.81
438.985	14693.49
439.192	14081.15
439.399	14302.33
439.606	14206.08
439.813	14656.63
440.02	16010.34
440.227	15432.81
440.433	15320.17
440.64	15670.37
440.847	15688.81
441.054	16362.59
441.261	17370.19
441.467	16876.63
441.674	17374.28
441.881	18105.41
442.088	17865.8
442.294	18039.87
442.501	18388.03
442.708	18857.01
442.914	19414.06
443.121	20061.22
443.328	19594.28
443.534	20825.11
443.741	20124.71
443.948	20136.99
444.154	21619.72
444.361	21509.13
444.568	21523.47
444.774	21865.48
444.981	22019.08
445.187	22520.83
445.394	23700.46
445.6	23415.79
445.807	25422.8
446.013	24044.52
446.22	24685.53
446.426	25582.54
446.633	25897.93
446.839	26579.9
447.046	25713.61
447.252	27007.93
447.459	26885.05
447.665	27063.22
447.871	28251.05
448.078	29434.77
448.284	28316.58
448.491	28887.96
448.697	30043.02
448.903	30688.13
449.11	30628.74
449.316	30065.55
449.522	30577.54
449.728	31294.33
449.935	31347.58
450.141	31507.32
450.347	32592.74
450.553	31554.42
450.76	31853.42
450.966	32760.67
451.172	32428.9
451.378	33114.97
451.584	32349.03
451.791	33207.13
451.997	33225.56
452.203	33975.12
452.409	33704.79
452.615	33729.36
452.821	32232.3
453.027	32086.89
453.233	33825.62
453.44	32461.67
453.646	32783.2
453.852	33215.32
454.058	33483.61
454.264	32232.3
454.47	33006.43
454.676	31777.65
454.882	33160.03
455.088	30724.99
455.294	30905.21
455.5	31130.49
455.705	31834.99
455.911	30235.53
456.117	29858.7
456.323	29369.24
456.529	27935.66
456.735	29072.28
456.941	28662.69
457.147	28156.84
457.352	26989.5
457.558	26532.8
457.764	26895.29
457.97	26354.63
458.176	25885.64
458.381	25838.54
458.587	24329.19
458.793	24384.48
458.999	23264.24
459.204	25115.61
459.41	23911.4
459.616	22336.51
459.821	22639.61
460.027	22221.83
460.233	21845
460.438	21077.01
460.644	21120.02
460.85	20274.21
461.055	20032.55
461.261	19883.05
461.466	18414.65
461.672	17779.78
461.878	19074.1
462.083	17783.88
462.289	17534.03
462.494	17390.67
462.7	16340.06
462.905	15963.23
463.111	16591.96
463.316	16600.15
463.522	16082.02
463.727	16323.68
463.932	16362.59
464.138	16409.69
464.343	16401.5
464.549	15516.78
464.754	16102.5
464.959	16221.28
465.165	15914.08
465.37	15350.89
465.575	15236.2
465.781	15682.66
465.986	15766.63
466.191	15250.54
466.397	14736.5
466.602	14199.93
466.807	14361.72
467.012	14652.53
467.218	14630.01
467.423	14453.88
467.628	14451.83
467.833	15023.22
468.038	14427.26
468.244	14105.73
468.449	14611.57
468.654	14054.53
468.859	14226.56
469.064	14220.41
469.269	13573.25
469.474	13511.82
469.679	13696.13
469.885	13474.95
470.09	13628.55
470.295	13659.27
470.5	13227.15
470.705	13491.34
470.91	12901.52
471.115	12897.42
471.32	12940.43
471.525	12944.53
471.73	12754.07
471.935	12639.38
472.139	12154.01
472.344	12364.95
472.549	12016.8
472.754	11918.5
472.959	11865.25
473.164	11488.42
473.369	11500.71
473.574	11752.61
473.778	11844.77
473.983	11807.91
474.188	11650.21
474.393	11068.59
474.598	11052.2
474.802	11011.25
475.007	10955.95
475.212	10986.67
475.417	10579.12
475.621	10501.3
475.826	10697.91
476.031	10253.5
476.235	10265.78
476.44	10349.75
476.645	10122.43
476.849	10087.61
477.054	9958.59
477.259	9704.64
477.463	9878.72
477.668	9495.75
477.872	9632.96
478.077	9686.21
478.282	9462.98
478.486	9219.27
478.691	9151.69
478.895	9344.2
479.1	9350.34
479.304	9088.2
479.509	8901.84
479.713	8969.42
479.918	8684.75
480.122	8547.54
480.326	8858.83
480.531	8783.06
480.735	8709.33
480.94	8672.46
481.144	9004.24
481.348	8559.83
481.553	8572.11
481.757	8348.89
481.961	8723.66
482.166	8535.25
482.37	8580.31
482.574	8455.38
482.778	8490.2
482.983	8563.92
483.187	8367.32
483.391	8582.35
483.595	8465.62
483.8	8432.85
484.004	8443.09
484.208	8543.44
484.412	8398.04
484.616	8563.92
484.821	8611.03
485.025	8457.43
485.229	8580.31
485.433	8412.37
485.637	8367.32
485.841	8527.06
486.045	8590.55
486.249	8430.8
486.453	8551.63
486.657	8430.8
486.861	8457.43
487.065	8215.77
487.269	8395.99
487.473	8117.47
487.677	8387.8
487.881	8443.09
488.085	8350.93
488.289	8604.88
488.493	8430.8
488.697	8496.34
488.901	8512.72
489.105	8443.09
489.309	8527.06
489.512	8477.91
489.716	8768.72
489.92	8252.63
490.124	8494.29
490.328	8678.61
490.531	8688.85
490.735	8809.68
490.939	8742.1
491.143	8527.06
491.346	8709.33
491.55	8797.39
491.754	8946.89
491.958	8793.3
492.161	8879.31
492.365	8895.69
492.569	8955.08
492.772	8920.27
492.976	9002.19
493.18	9280.71
493.383	9137.35
493.587	9327.81
493.79	9387.21
493.994	9381.06
494.197	9409.73
494.401	9448.65
494.605	9497.8
494.808	9637.06
495.012	9596.1
495.215	9524.42
495.419	9764.03
495.622	9616.58
495.825	9862.33
496.029	9845.95
496.232	10190.01
496.436	9837.76
496.639	10210.49
496.843	10015.93
497.046	10513.59
497.249	10499.25
497.453	10763.44
497.656	10632.37
497.859	10613.94
498.063	10847.41
498.266	10931.37
498.469	10874.03
498.673	11148.46
498.876	11261.1
499.079	11392.17
499.282	11195.56
499.485	11504.81
499.689	11723.94
499.892	11930.78
500.095	11869.34
500.298	12057.76
500.501	12037.28
500.705	12217.5
500.908	12623
501.111	12629.14
501.314	12657.81
501.517	12967.06
501.72	12987.54
501.923	12729.49
502.126	13270.15
502.329	13374.6
502.532	13411.46
502.735	13638.79
502.938	13943.94
503.141	13681.8
503.344	14105.73
503.547	14062.72
503.75	14582.9
503.953	14705.78
504.156	14634.1
504.359	14873.71
504.562	14918.77
504.765	15387.75
504.968	15322.22
505.17	15645.8
505.373	15486.06
505.576	15733.86
505.779	15924.32
505.982	16325.72
506.185	16421.98
506.387	16591.96
506.59	16497.75
506.793	16901.2
506.996	16632.92
507.198	17235.02
507.401	17308.75
507.604	17423.44
507.807	17787.97
508.009	17822.79
508.212	17882.18
508.415	18211.9
508.617	18463.8
508.82	18603.07
509.022	18416.7
509.225	18977.84
509.428	19174.45
509.63	19121.2
509.833	19293.23
510.035	19911.72
510.238	19766.31
510.44	19887.14
510.643	20349.98
510.845	20206.62
511.048	20108.32
511.25	20556.83
511.453	20726.81
511.655	21675.02
511.858	20980.76
512.06	21236.75
512.262	21570.57
512.465	21765.13
512.667	22086.66
512.87	22174.72
513.072	22170.63
513.274	22520.83
513.477	22852.6
513.679	23114.74
513.881	23548.91
514.084	23481.33
514.286	23661.55
514.488	23876.58
514.69	24402.91
514.893	24370.15
515.095	24536.03
515.297	25007.06
515.499	24626.14
515.701	25170.9
515.904	25510.86
516.106	25549.78
516.308	25611.21
516.51	26029
516.712	26002.38
516.914	26409.92
517.116	26764.22
517.318	26999.74
517.52	26872.76
517.722	27331.51
517.925	27757.49
518.127	27872.17
518.329	28261.29
518.531	28017.58
518.733	28484.51
518.935	28728.22
519.136	28804
519.338	29256.6
519.54	29068.19
519.742	29780.88
519.944	29576.08
520.146	30528.39
520.348	29903.76
520.55	30094.22
520.752	30661.51
520.954	30958.46
521.155	30999.42
521.357	31277.94
521.559	31148.92
521.761	32269.16
521.963	31724.4
522.164	31984.49
522.366	32246.63
522.568	32586.6
522.77	32629.6
522.971	33377.11
523.173	32953.18
523.375	33432.41
523.576	33176.41
523.778	33547.09
523.98	33739.6
524.181	33999.69
524.383	33891.15
524.584	34523.97
524.786	34653
524.988	34732.87
525.189	34872.13
525.391	35222.33
525.592	35021.63
525.794	35154.75
525.995	35115.84
526.197	35437.37
526.398	35707.7
526.6	36277.04
526.801	36031.28
527.003	36062
527.204	36367.15
527.406	36627.24
527.607	36256.56
527.808	36979.49
528.01	36449.07
528.211	36678.44
528.412	37098.27
528.614	37407.51
528.815	37313.31
529.016	37712.66
529.218	37339.93
529.419	37534.49
529.62	37735.19
529.822	37407.51
530.023	37702.42
530.224	37858.07
530.425	37831.44
530.626	37962.51
530.828	37274.4
531.029	38693.64
531.23	38058.77
531.431	38241.04
531.632	38308.62
531.833	38183.69
532.035	38533.9
532.236	38521.61
532.437	38583.05
532.638	38140.69
532.839	38718.21
533.04	38570.76
533.241	38406.92
533.442	38982.4
533.643	38791.94
533.844	38796.04
534.045	38781.7
534.246	38478.6
534.447	38937.35
534.648	38767.37
534.849	38867.72
535.05	38359.82
535.251	39074.56
535.451	38519.56
535.652	39269.12
535.853	38972.16
536.054	38914.82
536.255	39092.99
536.456	38691.59
536.657	39035.65
536.857	38763.27
537.058	38357.77
537.259	38900.48
537.46	38910.72
537.66	39060.23
537.861	39041.79
538.062	38558.47
538.263	39236.35
538.463	38804.23
538.664	38748.93
538.865	38814.47
539.065	39019.27
539.266	38300.43
539.466	39213.82
539.667	38439.69
539.868	38947.59
540.068	38630.15
540.269	38650.63
540.469	39121.66
540.67	38585.1
540.87	38574.86
541.071	38658.82
541.271	38834.95
541.472	38636.3
541.672	38333.2
541.873	38664.97
542.073	38365.96
542.274	38793.99
542.474	38791.94
542.675	38421.26
542.875	39023.36
543.075	38763.27
543.276	38511.37
543.476	38992.64
543.676	38472.46
543.877	38828.8
544.077	38564.62
544.277	38791.94
544.478	38730.5
544.678	38404.88
544.878	38839.04
545.078	39039.75
545.279	38494.99
545.479	38447.88
545.679	38943.49
545.879	38413.07
546.079	38957.83
546.28	38607.62
546.48	38476.55
546.68	38712.07
546.88	38558.47
547.08	38150.93
547.28	38693.64
547.48	38701.83
547.68	38769.41
547.88	38476.55
548.081	38744.84
548.281	38226.7
548.481	38535.95
548.681	38626.06
548.881	38478.6
549.081	38220.56
549.28	38548.23
549.48	38277.9
549.68	38503.18
549.88	38486.79
550.08	38318.86
550.28	38380.3
550.48	38609.67
550.68	38689.54
550.88	38181.65
551.08	38365.96
551.279	38105.87
551.479	38075.15
551.679	38296.33
551.879	38241.04
552.079	38454.03
552.278	37929.75
552.478	38134.54
552.678	37946.13
552.878	38466.31
553.077	38177.55
553.277	37888.79
553.477	38802.18
553.676	38071.06
553.876	38116.11
554.076	37747.48
554.275	38050.58
554.475	37679.89
554.674	38107.92
554.874	38200.08
555.074	37743.38
555.273	37880.6
555.473	37841.68
555.672	37925.65
555.872	37939.99
556.071	37727
556.271	37647.13
556.47	37659.41
556.67	37401.37
556.869	37380.89
557.068	37645.08
557.268	37325.6
557.467	37190.43
557.667	37206.81
557.866	37319.45
558.065	37403.42
558.265	37270.3
558.464	37165.85
558.663	37573.4
558.863	37245.72
559.062	37778.2
559.261	36844.32
559.461	37045.02
559.66	36840.23
559.859	37067.55
560.058	36805.41
560.258	36862.75
560.457	36387.63
560.656	36995.87
560.855	36776.74
561.054	36565.8
561.253	36387.63
561.453	36657.96
561.652	36764.45
561.851	36352.81
562.05	36430.63
562.249	36320.04
562.448	36610.85
562.647	36285.23
562.846	36279.08
563.045	36330.28
563.244	35849.01
563.443	36541.22
563.642	35894.07
563.841	36016.94
564.04	35703.6
564.239	35984.18
564.438	35896.11
564.637	35812.15
564.836	35801.91
565.035	35576.63
565.234	36143.92
565.432	35486.52
565.631	35251
565.83	35390.27
566.029	35193.66
566.228	35382.07
566.427	35236.67
566.625	34913.09
566.824	34341.71
567.023	34638.66
567.222	34206.54
567.42	35013.44
567.619	34478.92
567.818	34579.27
568.016	34593.61
568.215	34319.18
568.414	34499.4
568.612	34433.86
568.811	34427.72
569.01	34308.94
569.208	33682.26
569.407	34138.96
569.605	33813.33
569.804	34169.68
570.002	33719.12
570.201	33751.89
570.4	33551.19
570.598	33532.76
570.797	33018.72
570.995	33610.58
571.193	33074.01
571.392	33426.26
571.59	33160.03
571.789	33014.62
571.987	32973.66
572.186	33198.94
572.384	32703.33
572.582	32988
572.781	32893.79
572.979	32346.98
573.177	32334.7
573.376	32578.4
573.574	32082.8
573.772	32385.9
573.971	32490.34
574.169	31902.57
574.367	31910.77
574.565	32244.59
574.763	31720.31
574.962	31908.72
575.16	31679.35
575.358	32009.07
575.556	31265.66
575.754	31845.23
575.952	30940.03
576.151	32019.31
576.349	31310.71
576.547	31050.62
576.745	31343.48
576.943	31449.97
577.141	31062.91
577.339	31081.34
577.537	30940.03
577.735	30595.97
577.933	30536.58
578.131	30819.2
578.329	30483.33
578.527	30335.88
578.725	30274.44
578.923	30407.56
579.121	30243.72
579.319	30303.11
579.516	30102.41
579.714	30290.82
579.912	29957
580.11	29772.69
580.308	30176.14
580.506	29625.23
580.704	29303.7
580.901	29684.62
581.099	29750.16
581.297	29371.29
581.495	29383.57
581.692	29621.14
581.89	29074.33
582.088	29178.78
582.285	28834.72
582.483	29369.24
582.681	28808.09
582.878	29027.23
583.076	28640.16
583.274	28582.82
583.471	28779.42
583.669	28619.68
583.866	28177.32
584.064	28789.66
584.262	28380.07
584.459	28406.69
584.657	28234.66
584.854	28566.43
585.052	27818.92
585.249	28089.26
585.447	28093.35
585.644	27694
585.841	27823.02
586.039	28210.09
586.236	27607.98
586.434	27380.66
586.631	27325.36
586.828	27128.76
587.026	27300.79
587.223	27235.25
587.42	27300.79
587.618	27265.97
587.815	26706.88
588.012	26790.84
588.21	26844.09
588.407	27136.95
588.604	26926.01
588.801	26631.1
588.999	26633.15
589.196	26209.22
589.393	26643.39
589.59	26358.72
589.787	26571.71
589.984	26270.66
590.182	25981.9
590.379	26422.21
590.576	25949.13
590.773	25684.94
590.97	25525.2
591.167	25926.6
591.364	25723.85
591.561	25703.37
591.758	25639.89
591.955	25521.1
592.152	25639.89
592.349	25312.21
592.546	24929.24
592.743	25121.75
592.94	24945.62
593.137	25045.98
593.334	25144.28
593.531	24552.41
593.727	25052.12
593.924	24894.43
594.121	24728.54
594.318	24824.79
594.515	24620
594.712	24720.35
594.908	24415.2
595.105	24687.58
595.302	24124.39
595.499	24357.86
595.696	23903.21
595.892	24288.23
596.089	24148.96
596.286	23999.46
596.482	23618.54
596.679	24079.33
596.876	23815.15
597.072	23548.91
597.269	23553.01
597.466	23403.5
597.662	23286.77
597.859	23268.34
598.055	23647.21
598.252	23284.72
598.448	22911.99
598.645	23030.77
598.841	23012.34
599.038	23086.07
599.234	23266.29
599.431	22520.83
599.627	22772.73
599.824	22580.22
600.02	22451.2
600.217	22588.41
600.413	22240.26
600.609	22391.81
600.806	22731.77
601.002	22633.47
601.198	22135.81
601.395	22313.98
601.591	21965.83
601.787	21963.78
601.984	21894.15
602.18	21998.6
602.376	21894.15
602.572	21988.36
602.769	21865.48
602.965	21683.21
603.161	21881.86
603.357	21347.34
603.553	21369.87
603.75	21326.86
603.946	21191.7
604.142	21421.07
604.338	20988.95
604.534	21238.8
604.73	20794.39
604.926	20882.45
605.122	20976.66
605.318	20528.16
605.514	20851.74
605.71	20575.26
605.906	20628.51
606.102	20716.57
606.298	20816.92
606.494	20524.06
606.69	20642.84
606.886	20663.32
607.082	20128.8
607.278	20372.51
607.474	20167.71
607.67	20280.35
607.866	19973.16
608.062	20333.6
608.257	20087.84
608.453	20096.03
608.649	20134.95
608.845	19944.49
609.041	20128.8
609.236	19819.56
609.432	19944.49
609.628	19885.09
609.824	19694.63
610.019	19500.08
610.215	19848.23
610.411	19780.65
610.606	19481.64
610.802	19522.6
610.998	19342.38
611.193	19751.98
611.389	19403.82
611.584	19506.22
611.78	19035.19
611.976	19303.47
612.171	19414.06
612.367	19221.55
612.562	19061.81
612.758	18842.68
612.953	18996.28
613.149	19086.39
613.344	18994.23
613.539	19379.25
613.735	18922.55
613.93	19010.61
614.126	18760.76
614.321	19100.72
614.517	18828.34
614.712	18693.18
614.907	18760.76
615.103	19026.99
615.298	18904.12
615.493	19022.9
615.688	18259.01
615.884	18979.89
616.079	18494.52
616.274	18549.82
616.47	18439.23
616.665	18412.6
616.86	18293.82
617.055	18431.04
617.25	18381.88
617.445	18410.56
617.641	18107.46
617.836	18314.3
618.031	17976.39
618.226	18160.7
618.421	17966.15
618.616	18310.21
618.811	17896.52
619.006	17779.78
619.201	17574.99
619.396	18017.35
619.591	17396.81
619.786	17591.37
619.981	17192.01
620.176	17826.89
620.371	17300.56
620.566	17482.83
620.761	17220.69
620.956	17491.02
621.151	17026.13
621.346	16878.68
621.541	16720.98
621.735	16989.27
621.93	16616.54
622.125	16626.78
622.32	16575.58
622.515	16612.44
622.709	16360.54
622.904	16514.14
623.099	16327.77
623.294	16497.75
623.488	16149.6
623.683	15967.33
623.878	15979.62
624.072	15666.28
624.267	16002.15
624.462	15866.98
624.656	15565.93
624.851	15518.82
625.046	15627.37
625.24	15457.39
625.435	15142
625.629	15271.02
625.824	14978.16
626.018	15051.89
626.213	14988.4
626.407	14867.57
626.602	14488.7
626.796	14838.9
626.991	14670.97
627.185	14374.01
627.38	14476.41
627.574	14326.91
627.768	14214.27
627.963	14236.8
628.157	14191.74
628.352	14290.04
628.546	13612.17
628.74	13911.17
628.935	13939.84
629.129	13802.63
629.323	13587.59
629.517	13810.82
629.712	13812.87
629.906	13638.79
630.1	13237.39
630.294	13565.06
630.489	13202.57
630.683	13239.44
630.877	13063.31
631.071	12950.67
631.265	13057.17
631.459	13206.67
631.653	12786.83
631.848	12838.03
632.042	12887.18
632.236	12946.58
632.43	12614.8
632.624	12549.27
632.818	12383.38
633.012	12430.49
633.206	12424.34
633.4	12233.88
633.594	12180.64
633.788	12289.18
633.982	12170.4
634.176	12223.64
634.369	12061.85
634.563	11920.54
634.757	11775.14
634.951	11805.86
635.145	11740.32
635.339	11820.19
635.533	11560.1
635.726	11408.55
635.92	11480.23
636.114	11445.41
636.308	11422.89
636.501	11459.75
636.695	11207.85
636.889	11050.16
637.083	11070.64
637.276	11011.25
637.47	10945.71
637.664	11009.2
637.857	11070.64
638.051	10861.74
638.244	10716.34
638.438	10656.95
638.632	10661.04
638.825	10669.23
639.019	10458.29
639.212	10525.88
639.406	10505.4
639.599	10521.78
639.793	10513.59
639.986	10200.25
640.18	10230.97
640.373	10290.36
640.567	10263.74
640.76	10194.11
640.954	10042.56
641.147	10017.98
641.34	9860.29
641.534	10046.65
641.727	9981.12
641.92	9800.9
642.114	9776.32
642.307	9786.56
642.5	9870.53
642.694	9641.15
642.887	9446.6
643.08	9655.49
643.273	9454.79
643.467	9385.16
643.66	9354.44
643.853	9280.71
644.046	9145.55
644.239	9264.33
644.432	9051.34
644.626	9110.73
644.819	8969.42
645.012	8969.42
645.205	9037
645.398	8899.79
645.591	8877.26
645.784	8795.34
645.977	8531.16
646.17	8893.65
646.363	8707.28
646.556	8598.74
646.749	8656.08
646.942	8551.63
647.135	8529.11
647.328	8264.92
647.521	8291.54
647.714	8148.19
647.907	8303.83
648.099	8266.97
648.292	8326.36
648.485	8070.36
648.678	8111.32
648.871	8037.59
649.064	8041.69
649.256	8178.9
649.449	7875.81
649.642	7933.15
649.835	7828.7
650.027	7851.23
650.22	7724.26
650.413	7732.45
650.605	7601.38
650.798	7546.08
650.991	7617.76
651.183	7654.62
651.376	7554.27
651.568	7503.07
651.761	7441.64
651.954	7388.39
652.146	7288.04
652.339	7482.6
652.531	7290.09
652.724	7247.08
652.916	7306.47
653.109	7249.13
653.301	7251.17
653.494	7087.34
653.686	7023.85
653.879	7075.05
654.071	7136.49
654.263	7005.42
654.456	6923.5
654.648	7083.24
654.84	6751.47
655.033	6800.62
655.225	6730.99
655.417	6616.3
655.61	6806.77
655.802	6839.53
655.994	6522.1
656.186	6917.36
656.379	6573.3
656.571	6626.54
656.763	6446.32
656.955	6653.17
657.148	6554.87
657.34	6411.51
657.532	6327.54
657.724	6262.01
657.916	6499.57
658.108	6319.35
658.3	6339.83
658.492	6241.53
658.684	6194.42
658.876	6317.3
659.068	6212.85
659.26	6161.66
659.452	6116.6
659.644	5983.48
659.836	5963
660.028	6001.91
660.22	5813.5
660.412	5870.84
660.604	5893.37
660.796	5926.14
660.988	5889.28
661.18	5831.93
661.372	5698.81
661.563	5715.2
661.755	5735.68
661.947	5833.98
662.139	5588.22
662.331	5657.86
662.522	5541.12
662.714	5573.89
662.906	5430.53
663.097	5649.66
663.289	5623.04
663.481	5465.35
663.673	5422.34
663.864	5324.04
664.056	5467.39
664.247	5109
664.439	5369.09
664.631	5311.75
664.822	5469.44
665.014	5526.78
665.205	5342.47
665.397	5283.08
665.588	5203.21
665.78	5172.49
665.971	5100.81
666.163	5207.3
666.354	5121.29
666.546	5033.22
666.737	4996.36
666.929	5096.71
667.12	5186.82
667.311	4986.12
667.503	4855.05
667.694	4779.28
667.885	4930.83
668.077	4959.5
668.268	4916.49
668.459	4785.42
668.651	4728.08
668.842	4709.65
669.033	4769.04
669.224	4744.46
669.416	4824.33
669.607	4689.17
669.798	4547.86
669.989	4652.3
670.18	4701.45
670.371	4707.6
670.563	4662.54
670.754	4578.58
670.945	4517.14
671.136	4560.14
671.327	4523.28
671.518	4476.18
671.709	4467.99
671.9	4572.43
672.091	4459.79
672.282	4441.36
672.473	4502.8
672.664	4437.27
672.855	4418.83
673.046	4392.21
673.237	4420.88
673.428	4281.62
673.619	4328.72
673.809	4400.4
674	4429.07
674.191	4293.91
674.382	4250.9
674.573	4224.28
674.764	4154.65
674.954	4201.75
675.145	4158.74
675.336	4166.93
675.527	4336.92
675.717	4187.41
675.908	4203.8
676.099	4140.31
676.289	4207.89
676.48	4033.82
676.671	4066.58
676.861	4265.24
677.052	4162.84
677.243	4078.87
677.433	4099.35
677.624	4164.89
677.814	4162.84
678.005	4078.87
678.195	4054.3
678.386	4029.72
678.576	3941.66
678.767	4005.14
678.957	4130.07
679.148	3884.31
679.338	4134.17
679.529	3941.66
679.719	4017.43
679.909	4060.44
680.1	3859.74
680.29	3890.46
680.481	3912.99
680.671	3912.99
680.861	3839.26
681.052	3890.46
681.242	3890.46
681.432	3835.16
681.622	3978.52
681.813	3863.83
682.003	3841.31
682.193	3898.65
682.383	3976.47
682.573	3794.2
682.764	3927.32
682.954	3822.88
683.144	3886.36
683.334	3822.88
683.524	3829.02
683.714	3718.43
683.904	3777.82
684.094	3716.38
684.284	3771.68
684.474	3781.92
684.664	3732.76
684.854	3722.52
685.044	3763.48
685.234	3663.13
685.424	3659.04
685.614	3697.95
685.804	3726.62
685.994	3636.51
686.184	3622.17
686.374	3654.94
686.564	3632.41
686.753	3751.2
686.943	3609.89
687.133	3591.45
687.323	3527.97
687.513	3677.47
687.702	3550.5
687.892	3462.43
688.082	3548.45
688.272	3476.77
688.461	3425.57
688.651	3521.82
688.841	3427.62
689.03	3364.13
689.22	3530.02
689.41	3345.7
689.599	3374.37
689.789	3235.11
689.979	3288.36
690.168	3351.84
690.358	3360.03
690.547	3308.83
690.737	3329.31
690.926	3302.69
691.116	3269.92
691.305	3292.45
691.495	3120.42
691.684	3206.44
691.874	3190.05
692.063	3327.27
692.252	3116.33
692.442	3110.18
692.631	3073.32
692.82	3106.09
693.01	3063.08
693.199	3192.1
693.388	3009.83
693.578	3065.13
693.767	3018.02
693.956	2997.54
694.146	2964.78
694.335	3044.65
694.524	2936.1
694.713	3106.09
694.902	2936.1
695.092	3122.47
695.281	3003.69
695.47	3044.65
695.659	2901.29
695.848	2968.87
696.037	3028.26
696.226	2792.75
696.415	2975.02
696.604	2907.43
696.793	3001.64
696.982	2886.95
697.171	2995.5
697.36	3024.17
697.549	2839.85
697.738	2903.34
697.927	2817.32
698.116	2874.67
698.305	2792.75
698.494	2919.72
698.683	2805.03
698.872	2927.91
699.061	2774.32
699.25	2901.29
699.438	2972.97
699.627	2815.27
699.816	2948.39
700.005	2862.38
700.193	2837.8
700.382	2880.81
700.571	2659.63
700.76	2882.86
700.948	2790.7
701.137	2850.09
701.326	2813.23
701.514	2854.19
701.703	2889
701.892	2981.16
702.08	2807.08
702.269	2743.6
702.457	2860.33
702.646	2714.92
702.834	2721.07
703.023	2843.95
703.212	2809.13
703.4	2727.21
703.589	2671.92
703.777	2925.86
703.965	2708.78
704.154	2764.08
704.342	2745.64
704.531	2905.39
704.719	2721.07
704.907	2811.18
705.096	2710.83
705.284	2813.23
705.472	2860.33
705.661	2745.64
705.849	2782.51
706.037	2723.12
706.226	2837.8
706.414	2751.79
706.602	2805.03
706.79	2788.65
706.979	2792.75
707.167	2757.93
707.355	2673.96
707.543	2790.7
707.731	2667.82
707.919	2690.35
708.107	2786.6
708.296	2811.18
708.484	2764.08
708.672	2782.51
708.86	2633.01
709.048	2676.01
709.236	2739.5
709.424	2587.95
709.612	2594.09
709.8	2782.51
709.988	2657.58
710.176	2633.01
710.364	2737.45
710.551	2684.2
710.739	2569.52
710.927	2688.3
711.115	2796.84
711.303	2579.76
711.491	2633.01
711.679	2747.69
711.866	2864.43
712.054	2843.95
712.242	2772.27
712.43	2727.21
712.617	2700.59
712.805	2813.23
712.993	2680.11
713.181	2673.96
713.368	2809.13
713.556	2688.3
713.744	2704.68
713.931	2858.28
714.119	2780.46
714.306	2741.55
714.494	2768.17
714.682	2688.3
714.869	2563.37
715.057	2721.07
715.244	2733.36
715.432	2751.79
715.619	2721.07
715.807	2727.21
715.994	2665.77
716.182	2776.36
716.369	2665.77
716.556	2690.35
716.744	2657.58
716.931	2684.2
717.119	2790.7
717.306	2741.55
717.493	2678.06
717.681	2719.02
717.868	2688.3
718.055	2680.11
718.242	2733.36
718.43	2788.65
718.617	2737.45
718.804	2620.72
718.991	2671.92
719.179	2839.85
719.366	2565.42
719.553	2690.35
719.74	2714.92
719.927	2790.7
720.114	2653.48
720.301	2733.36
720.488	2643.24
720.676	2762.03
720.863	2817.32
721.05	2708.78
721.237	2637.1
721.424	2661.68
721.611	2676.01
721.798	2579.76
721.985	2608.43
722.172	2534.7
722.358	2747.69
722.545	2739.5
722.732	2571.57
722.919	2669.87
723.106	2737.45
723.293	2686.25
723.48	2647.34
723.667	2676.01
723.853	2702.64
724.04	2731.31
724.227	2641.2
724.414	2702.64
724.6	2678.06
724.787	2747.69
724.974	2684.2
725.161	2721.07
725.347	2579.76
725.534	2696.49
725.72	2684.2
725.907	2659.63
726.094	2704.68
726.28	2680.11
726.467	2600.24
726.653	2704.68
726.84	2706.73
727.027	2747.69
727.213	2600.24
727.4	2596.14
727.586	2682.16
727.773	2602.29
727.959	2657.58
728.145	2751.79
728.332	2704.68
728.518	2688.3
728.705	2747.69
728.891	2643.24
729.077	2616.62
729.264	2567.47
729.45	2710.83
729.636	2630.96
729.823	2661.68
730.009	2680.11
730.195	2559.28
730.382	2585.9
730.568	2665.77
730.754	2639.15
730.94	2682.16
731.126	2729.26
731.313	2745.64
731.499	2549.04
731.685	2637.1
731.871	2661.68
732.057	2696.49
732.243	2735.4
732.429	2583.85
732.615	2622.77
732.801	2495.79
732.987	2534.7
733.173	2610.48
733.359	2598.19
733.545	2610.48
733.731	2612.53
733.917	2635.05
734.103	2651.44
734.289	2676.01
734.475	2620.72
734.661	2673.96
734.847	2676.01
735.033	2723.12
735.219	2796.84
735.404	2587.95
735.59	2575.66
735.776	2608.43
735.962	2649.39
736.148	2678.06
736.333	2567.47
736.519	2510.13
736.705	2755.88
736.89	2522.41
737.076	2454.83
737.262	2499.89
737.447	2680.11
737.633	2469.17
737.819	2555.18
738.004	2665.77
738.19	2450.74
738.375	2499.89
738.561	2553.13
738.747	2520.37
738.932	2520.37
739.118	2536.75
739.303	2471.22
739.489	2544.94
739.674	2379.06
739.859	2680.11
740.045	2518.32
740.23	2469.17
740.416	2377.01
740.601	2465.07
740.786	2479.41
740.972	2360.63
741.157	2422.06
741.342	2440.5
741.528	2430.26
741.713	2411.82
741.898	2399.54
742.084	2360.63
742.269	2368.82
742.454	2274.61
742.639	2475.31
742.824	2420.02
743.01	2338.1
743.195	2348.34
743.38	2299.19
743.565	2315.57
743.75	2241.84
743.935	2207.03
744.12	2329.91
744.305	2258.23
744.49	2227.51
744.675	2225.46
744.86	2200.88
745.045	2239.8
745.23	2170.16
745.415	2129.2
745.6	2178.36
745.785	2303.28
745.97	2227.51
746.155	2207.03
746.34	2039.09
746.525	2188.6
746.71	2157.88
746.895	2061.62
747.079	2059.57
747.264	2149.68
747.449	2028.85
747.634	2039.09
747.819	2192.69
748.003	1963.32
748.188	2051.38
748.373	2016.57
748.557	2008.37
748.742	2067.77
748.927	1883.45
749.111	1965.37
749.296	1975.61
749.481	1983.8
749.665	2028.85
749.85	1848.63
750.034	1922.36
750.219	1918.26
750.404	1871.16
750.588	1813.82
750.773	1842.49
750.957	1781.05
751.141	1895.74
751.326	1813.82
751.51	1869.11
751.695	1721.66
751.879	1815.87
752.064	1819.96
752.248	1776.95
752.432	1787.19
752.617	1787.19
752.801	1699.13
752.985	1692.99
753.17	1717.56
753.354	1697.08
753.538	1672.51
753.722	1729.85
753.907	1731.9
754.091	1783.1
754.275	1707.32
754.459	1553.73
754.643	1645.88
754.828	1649.98
755.012	1600.83
755.196	1566.01
755.38	1551.68
755.564	1523.01
755.748	1463.62
755.932	1559.87
756.116	1443.14
756.3	1510.72
756.484	1551.68
756.668	1422.66
756.852	1330.5
757.036	1418.56
757.22	1500.48
757.404	1445.18
757.588	1424.7
757.772	1486.14
757.956	1275.2
758.14	1404.22
758.323	1393.98
758.507	1381.7
758.691	1420.61
758.875	1387.84
759.059	1387.84
759.242	1357.12
759.426	1330.5
759.61	1398.08
759.794	1363.26
759.977	1264.96
760.161	1312.07
760.345	1324.35
760.528	1209.67
760.712	1299.78
760.895	1267.01
761.079	1234.24
761.263	1252.67
761.446	1142.08
761.63	1279.3
761.813	1168.71
761.997	1275.2
762.18	1201.48
762.364	1240.39
762.547	1199.43
762.731	1174.85
762.914	1201.48
763.098	1181
763.281	1072.45
763.464	1219.91
763.648	1119.56
763.831	1185.09
764.015	1105.22
764.198	1121.6
764.381	1117.51
764.564	1123.65
764.748	1183.04
764.931	1080.64
765.114	1146.18
765.297	1119.56
765.481	1092.93
765.664	1111.36
765.847	1097.03
766.03	1176.9
766.213	1131.84
766.397	1086.79
766.58	1066.31
766.763	972.1
766.946	1033.54
767.129	1047.88
767.312	1076.55
767.495	1027.4
767.678	1047.88
767.861	1076.55
768.044	1054.02
768.227	968.01
768.41	957.77
768.593	1033.54
768.776	1088.84
768.959	953.67
769.142	1033.54
769.324	1078.6
769.507	972.1
769.69	982.34
769.873	990.53
770.056	1023.3
770.239	920.9
770.421	941.38
770.604	974.15
770.787	927.05
770.97	937.29
771.152	959.81
771.335	879.94
771.518	922.95
771.7	922.95
771.883	896.33
772.066	886.09
772.248	933.19
772.431	941.38
772.613	798.03
772.796	869.7
772.978	937.29
773.161	830.79
773.343	841.03
773.526	904.52
773.708	855.37
773.891	849.22
774.073	752.97
774.256	906.57
774.438	910.66
774.621	761.16
774.803	802.12
774.985	800.07
775.168	765.26
775.35	843.08
775.532	857.42
775.715	820.55
775.897	830.79
776.079	787.79
776.261	775.5
776.444	777.55
776.626	804.17
776.808	787.79
776.99	746.83
777.173	765.26
777.355	699.72
777.537	824.65
777.719	724.3
777.901	679.24
778.083	638.28
778.265	691.53
778.447	773.45
778.629	679.24
778.811	712.01
778.993	732.49
779.175	611.66
779.357	699.72
779.539	570.7
779.721	697.67
779.903	740.68
780.085	687.43
780.267	712.01
780.449	714.06
780.631	685.39
780.812	595.28
780.994	570.7
781.176	646.48
781.358	621.9
781.54	615.76
781.721	580.94
781.903	654.67
782.085	644.43
782.267	609.61
782.448	589.13
782.63	558.41
782.812	546.12
782.993	603.47
783.175	566.6
783.357	587.08
783.538	548.17
783.72	572.75
783.901	523.6
784.083	525.65
784.264	531.79
784.446	554.32
784.627	419.15
784.809	628.04
784.99	511.31
785.172	458.06
785.353	562.51
785.535	462.16
785.716	560.46
785.897	447.82
786.079	480.59
786.26	537.93
786.441	439.63
786.623	505.17
786.804	398.67
786.985	492.88
787.167	482.64
787.348	462.16
787.529	480.59
787.71	492.88
787.891	427.34
788.073	421.2
788.254	382.29
788.435	564.56
788.616	466.25
788.797	410.96
788.978	376.14
789.159	347.47
789.34	400.72
789.522	374.1
789.703	480.59
789.884	413.01
790.065	374.1
790.246	460.11
790.427	386.38
790.607	390.48
790.788	410.96
790.969	320.85
791.15	384.34
791.331	415.06
791.512	390.48
791.693	335.18
791.874	398.67
792.054	394.58
792.235	337.23
792.416	378.19
792.597	408.91
792.778	298.32
792.958	384.34
793.139	419.15
793.32	337.23
793.5	392.53
793.681	386.38
793.862	425.29
794.042	320.85
794.223	388.43
794.404	398.67
794.584	292.18
794.765	388.43
794.945	392.53
795.126	259.41
795.306	322.9
795.487	292.18
795.667	247.12
795.848	292.18
796.028	304.46
796.209	396.62
796.389	316.75
796.57	298.32
796.75	310.61
796.93	271.7
797.111	290.13
797.291	261.46
797.471	228.69
797.652	273.75
797.832	318.8
798.012	304.46
798.192	267.6
798.373	269.65
798.553	292.18
798.733	271.7
798.913	236.88
799.093	275.79
799.274	251.22
799.454	269.65
799.634	183.63
799.814	269.65
799.994	337.23
800.174	224.59
800.354	310.61
800.534	220.5
800.714	288.08
800.894	298.32
801.074	255.31
801.254	243.03
801.434	300.37
801.614	257.36
801.794	322.9
801.974	646.48
802.154	234.83
802.334	187.73
802.514	310.61
802.693	230.74
802.873	228.69
803.053	222.55
803.233	243.03
803.413	292.18
803.592	236.88
803.772	240.98
803.952	220.5
804.131	228.69
804.311	255.31
804.491	257.36
804.67	214.35
804.85	304.46
805.03	234.83
805.209	281.94
805.389	224.59
805.568	163.15
805.748	220.5
805.928	179.54
806.107	216.4
806.287	138.58
806.466	232.79
806.646	114
806.825	234.83
807.004	167.25
807.184	240.98
807.363	224.59
807.543	204.11
807.722	255.31
807.901	161.11
808.081	214.35
808.26	150.87
808.439	255.31
808.619	150.87
808.798	128.34
808.977	120.15
809.156	181.59
809.336	179.54
809.515	234.83
809.694	187.73
809.873	132.44
810.052	204.11
810.231	218.45
810.411	197.97
810.59	226.64
810.769	218.45
810.948	208.21
811.127	159.06
811.306	163.15
811.485	159.06
811.664	202.07
811.843	226.64
812.022	200.02
812.201	163.15
812.38	195.92
812.559	167.25
812.737	116.05
812.916	103.76
813.095	138.58
813.274	144.72
813.453	212.31
813.632	169.3
813.811	189.78
813.989	222.55
814.168	154.96
814.347	122.2
814.526	122.2
814.704	99.67
814.883	161.11
815.062	81.24
815.24	202.07
815.419	152.92
815.598	157.01
815.776	130.39
815.955	159.06
816.133	161.11
816.312	187.73
816.49	126.29
816.669	171.35
816.847	142.68
817.026	189.78
817.204	130.39
817.383	140.63
817.561	95.57
817.74	109.91
817.918	159.06
818.097	161.11
818.275	109.91
818.453	120.15
818.632	171.35
818.81	146.77
818.988	128.34
819.167	154.96
819.345	77.14
819.523	93.52
819.701	159.06
819.879	124.24
820.058	138.58
820.236	136.53
820.414	107.86
820.592	234.83
820.77	134.48
820.948	148.82
821.127	138.58
821.305	85.33
821.483	138.58
821.661	142.68
821.839	175.44
822.017	157.01
822.195	120.15
822.373	97.62
822.551	105.81
822.729	134.48
822.907	154.96
823.085	175.44
823.262	130.39
823.44	130.39
823.618	144.72
823.796	124.24
823.974	132.44
824.152	111.96
824.329	62.8
824.507	150.87
824.685	144.72
824.863	152.92
825.04	97.62
825.218	146.77
825.396	107.86
825.574	134.48
825.751	109.91
825.929	54.61
826.107	7.51
826.284	120.15
826.462	142.68
826.639	68.95
826.817	68.95
826.994	30.04
827.172	97.62
827.349	132.44
827.527	3.41
827.704	136.53
827.882	159.06
828.059	58.71
828.237	99.67
828.414	144.72
828.591	17.75
828.769	146.77
828.946	95.57
829.124	87.38
829.301	101.72
829.478	32.08
829.655	64.85
829.833	75.09
830.01	73.04
830.187	183.63
830.364	136.53
830.542	81.24
830.719	118.1
830.896	91.48
831.073	99.67
831.25	62.8
831.427	25.94
831.604	60.76
831.782	81.24
831.959	163.15
832.136	91.48
832.313	56.66
832.49	32.08
832.667	89.43
832.844	85.33
833.021	87.38
833.198	40.28
833.374	21.85
833.551	87.38
833.728	60.76
833.905	146.77
834.082	-0.68
834.259	159.06
834.436	68.95
834.612	52.56
834.789	107.86
834.966	103.76
835.143	95.57
835.319	-27.31
835.496	114
835.673	79.19
835.85	27.99
836.026	23.89
836.203	183.63
836.38	56.66
836.556	103.76
836.733	48.47
836.909	36.18
837.086	58.71
837.262	93.52
837.439	85.33
837.616	64.85
837.792	56.66
837.968	107.86
838.145	-2.73
838.321	75.09
838.498	68.95
838.674	101.72
838.851	99.67
839.027	25.94
839.203	105.81
839.38	91.48
839.556	71
839.732	15.7
839.909	75.09
840.085	83.28
840.261	73.04
840.437	89.43
840.614	54.61
840.79	81.24
840.966	107.86
841.142	52.56
841.318	21.85
841.494	32.08
841.671	36.18
841.847	73.04
842.023	-17.07
842.199	58.71
842.375	21.85
842.551	-27.31
842.727	99.67
842.903	13.65
843.079	32.08
843.255	77.14
843.431	25.94
843.607	11.61
843.783	9.56
843.959	89.43
844.134	91.48
844.31	130.39
844.486	97.62
844.662	79.19
844.838	56.66
845.013	60.76
845.189	36.18
845.365	48.47
845.541	32.08
845.716	105.81
845.892	81.24
846.068	58.71
846.244	81.24
846.419	62.8
846.595	3.41
846.77	60.76
846.946	40.28
847.122	62.8
847.297	38.23
847.473	83.28
847.648	15.7
847.824	97.62
847.999	7.51
848.175	34.13
848.35	120.15
848.526	-0.68
848.701	52.56
848.876	81.24
849.052	56.66
849.227	13.65
849.403	-19.11
849.578	34.13
849.753	21.85
849.929	97.62
850.104	-64.17
850.279	103.76
850.454	79.19
850.63	93.52
850.805	-6.83
850.98	60.76
851.155	48.47
851.33	44.37
851.505	15.7
851.681	36.18
851.856	-8.87
852.031	30.04
852.206	71
852.381	97.62
852.556	68.95
852.731	-15.02
852.906	60.76
853.081	9.56
853.256	66.9
853.431	64.85
853.606	27.99
853.781	-8.87
853.956	-68.27
854.131	48.47
854.305	23.89
854.48	44.37
854.655	42.32
854.83	83.28
855.005	42.32
855.18	11.61
855.354	30.04
855.529	38.23
855.704	-15.02
855.879	48.47
856.053	25.94
856.228	64.85
856.403	-25.26
856.577	21.85
856.752	81.24
856.926	122.2
857.101	5.46
857.276	3.41
857.45	-25.26
857.625	-8.87
857.799	25.94
857.974	25.94
858.148	7.51
858.323	50.52
858.497	79.19
858.672	-23.21
858.846	77.14
859.02	52.56
859.195	-8.87
859.369	-0.68
859.543	-33.45
859.718	-2.73
859.892	-10.92
860.066	-72.36
860.241	5.46
860.415	34.13
860.589	42.32
860.763	36.18
860.938	44.37
861.112	32.08
861.286	32.08
861.46	-25.26
861.634	3.41
861.808	71
861.982	-60.07
862.157	25.94
862.331	17.75
862.505	-17.07
862.679	62.8
862.853	19.8
863.027	-31.4
863.201	42.32
863.375	-19.11
863.549	64.85
863.722	-49.83
863.896	9.56
864.07	1.37
864.244	-49.83
864.418	17.75
864.592	-31.4
864.766	5.46
864.939	30.04
865.113	7.51
865.287	38.23
865.461	-35.5
865.634	36.18
865.808	-12.97
865.982	1.37
866.156	-58.03
866.329	1.37
866.503	11.61
866.676	21.85
866.85	36.18
867.024	42.32
867.197	34.13
867.371	105.81
867.544	-51.88
867.718	-25.26
867.891	-31.4
868.065	-35.5
868.238	-15.02
868.412	44.37
868.585	-41.64
868.759	23.89
868.932	-43.69
869.105	-6.83
869.279	15.7
869.452	42.32
869.625	-0.68
869.799	42.32
869.972	-33.45
870.145	30.04
870.319	-19.11
870.492	9.56
870.665	-49.83
870.838	21.85
871.011	1.37
871.185	64.85
871.358	-6.83
871.531	50.52
871.704	-6.83
871.877	15.7
872.05	-58.03
872.223	-15.02
872.396	64.85
872.569	-39.59
872.742	-60.07
872.915	40.28
873.088	-58.03
873.261	1.37
873.434	15.7
873.607	66.9
873.78	48.47
873.953	-4.78
874.126	-0.68
874.299	-23.21
874.471	-55.98
874.644	-45.74
874.817	15.7
874.99	54.61
875.163	5.46
875.335	-0.68
875.508	-4.78
875.681	-45.74
875.853	-27.31
876.026	27.99
876.199	7.51
876.371	13.65
876.544	-19.11
876.717	-21.16
876.889	-31.4
877.062	56.66
877.234	-21.16
877.407	5.46
877.579	-45.74
877.752	-55.98
877.924	-37.55
878.097	-0.68
878.269	-12.97
878.442	-29.35
878.614	19.8
878.786	85.33
878.959	-68.27
879.131	56.66
879.303	-76.46
879.476	-76.46
879.648	77.14
879.82	9.56
879.993	-43.69
880.165	93.52
880.337	-49.83
880.509	-6.83
880.681	60.76
880.854	-6.83
881.026	-60.07
881.198	64.85
881.37	-10.92
881.542	25.94
881.714	21.85
881.886	7.51
882.058	3.41
882.23	1.37
882.402	-35.5
882.574	34.13
882.746	19.8
882.918	11.61
883.09	42.32
883.262	-23.21
883.434	42.32
883.606	19.8
883.778	25.94
883.95	9.56
884.122	-2.73
884.293	15.7
884.465	79.19
884.637	44.37
884.809	-0.68
884.98	-4.78
885.152	15.7
885.324	36.18
885.496	32.08
885.667	-6.83
885.839	40.28
886.011	36.18
886.182	9.56
886.354	-72.36
886.525	38.23
886.697	-49.83
886.869	40.28
887.04	7.51
887.212	101.72
887.383	23.89
887.555	-25.26
887.726	50.52
887.897	-19.11
888.069	15.7
888.24	-41.64
888.412	19.8
888.583	-21.16
888.754	23.89
888.926	-92.84
889.097	7.51
889.268	-37.55
889.44	7.51
889.611	21.85
889.782	21.85
889.953	-45.74
890.125	48.47
890.296	-15.02
890.467	-37.55
890.638	-66.22
890.809	-35.5
890.98	15.7
891.151	21.85
891.323	-15.02
891.494	85.33
891.665	-51.88
891.836	-19.11
892.007	-39.59
892.178	9.56
892.349	-12.97
892.52	21.85
892.691	27.99
892.862	116.05
893.032	-23.21
893.203	-86.7
893.374	-2.73
893.545	-29.35
893.716	-0.68
893.887	-0.68
894.057	-10.92
894.228	-12.97
894.399	-86.7
894.57	83.28
894.74	-45.74
894.911	48.47
895.082	42.32
895.253	9.56
895.423	-53.93
895.594	-15.02
895.764	-29.35
895.935	-37.55
896.106	38.23
896.276	3.41
896.447	-15.02
896.617	-58.03
896.788	-78.51
896.958	-0.68
897.129	-41.64
897.299	-39.59
897.47	38.23
897.64	-8.87
897.81	81.24
897.981	3.41
898.151	1.37
898.322	-23.21
898.492	-25.26
898.662	-4.78
898.832	30.04
899.003	40.28
899.173	-74.41
899.343	46.42
899.513	-39.59
