Data from USB4F104151__26__11-51-32-889.txt Node

Date: Fri Mar 14 11:51:32 EDT 2025
User: louis
Spectrometer: USB4F10415
Trigger mode: 4
Integration Time (sec): 2.000000E-2
Scans to average: 1
Electric dark correction enabled: true
Nonlinearity correction enabled: false
Boxcar width: 0
XAxis mode: Wavelengths
Number of Pixels in Spectrum: 3648
>>>>>Begin Spectral Data<<<<<
178.204	-104.96
178.424	-104.96
178.644	-104.96
178.864	-59.9
179.084	-70.14
179.304	-4.61
179.524	-41.47
179.744	56.83
179.964	46.59
180.184	-43.52
180.404	48.64
180.624	60.93
180.844	24.06
181.064	-57.86
181.283	-0.51
181.503	-64
181.723	-25.09
181.943	-68.09
182.163	56.83
182.383	-14.85
182.602	28.16
182.822	34.3
183.042	26.11
183.262	46.59
183.482	50.69
183.701	48.64
183.921	69.12
184.141	-2.56
184.361	116.22
184.58	28.16
184.8	73.21
185.02	-2.56
185.239	81.41
185.459	13.82
185.679	69.12
185.898	69.12
186.118	79.36
186.338	-10.75
186.557	87.55
186.777	-76.29
186.997	42.5
187.216	36.35
187.436	56.83
187.655	46.59
187.875	136.7
188.095	-10.75
188.314	-14.85
188.534	32.26
188.753	30.21
188.973	42.5
189.192	81.41
189.412	44.54
189.631	65.02
189.851	7.68
190.07	-0.51
190.29	-41.47
190.509	71.17
190.729	17.92
190.948	69.12
191.168	93.69
191.387	75.26
191.607	75.26
191.826	52.74
192.045	22.02
192.265	62.98
192.484	85.5
192.704	-31.23
192.923	-4.61
193.142	56.83
193.362	-18.94
193.581	36.35
193.8	52.74
194.02	124.41
194.239	60.93
194.458	85.5
194.678	87.55
194.897	22.02
195.116	60.93
195.335	122.37
195.555	11.78
195.774	42.5
195.993	44.54
196.212	46.59
196.432	22.02
196.651	-16.9
196.87	15.87
197.089	50.69
197.308	48.64
197.528	22.02
197.747	73.21
197.966	-6.66
198.185	19.97
198.404	26.11
198.623	62.98
198.842	-0.51
199.062	56.83
199.281	83.45
199.5	56.83
199.719	-10.75
199.938	24.06
200.157	-23.04
200.376	22.02
200.595	52.74
200.814	-25.09
201.033	85.5
201.252	-20.99
201.471	-0.51
201.69	36.35
201.909	28.16
202.128	5.63
202.347	28.16
202.566	75.26
202.785	32.26
203.004	-45.57
203.223	108.03
203.442	26.11
203.661	26.11
203.879	28.16
204.098	99.84
204.317	15.87
204.536	13.82
204.755	40.45
204.974	44.54
205.193	46.59
205.411	60.93
205.63	1.54
205.849	24.06
206.068	28.16
206.287	17.92
206.505	54.78
206.724	65.02
206.943	60.93
207.162	13.82
207.381	9.73
207.599	19.97
207.818	42.5
208.037	65.02
208.255	24.06
208.474	34.3
208.693	-53.76
208.911	26.11
209.13	28.16
209.349	-12.8
209.567	1.54
209.786	81.41
210.005	-16.9
210.223	54.78
210.442	-41.47
210.661	-14.85
210.879	105.98
211.098	-4.61
211.316	26.11
211.535	-8.7
211.753	-20.99
211.972	50.69
212.191	36.35
212.409	7.68
212.628	79.36
212.846	19.97
213.065	30.21
213.283	36.35
213.502	65.02
213.72	83.45
213.938	11.78
214.157	79.36
214.375	-6.66
214.594	42.5
214.812	110.08
215.031	5.63
215.249	7.68
215.467	58.88
215.686	103.93
215.904	28.16
216.122	17.92
216.341	71.17
216.559	32.26
216.778	56.83
216.996	54.78
217.214	-12.8
217.432	7.68
217.651	-25.09
217.869	-10.75
218.087	48.64
218.306	75.26
218.524	56.83
218.742	7.68
218.96	-35.33
219.179	1.54
219.397	-2.56
219.615	17.92
219.833	22.02
220.051	17.92
220.27	56.83
220.488	-0.51
220.706	40.45
220.924	32.26
221.142	60.93
221.36	38.4
221.578	52.74
221.796	-16.9
222.015	17.92
222.233	34.3
222.451	26.11
222.669	28.16
222.887	71.17
223.105	-4.61
223.323	48.64
223.541	89.6
223.759	7.68
223.977	30.21
224.195	17.92
224.413	58.88
224.631	50.69
224.849	73.21
225.067	79.36
225.285	-23.04
225.503	30.21
225.721	-0.51
225.939	67.07
226.157	77.31
226.375	91.65
226.592	-20.99
226.81	13.82
227.028	15.87
227.246	91.65
227.464	54.78
227.682	24.06
227.9	81.41
228.117	58.88
228.335	32.26
228.553	-61.95
228.771	15.87
228.989	19.97
229.206	42.5
229.424	13.82
229.642	11.78
229.86	60.93
230.077	-23.04
230.295	-6.66
230.513	118.27
230.731	56.83
230.948	48.64
231.166	22.02
231.384	44.54
231.601	-8.7
231.819	44.54
232.037	58.88
232.254	56.83
232.472	13.82
232.689	-74.24
232.907	73.21
233.125	11.78
233.342	69.12
233.56	50.69
233.777	58.88
233.995	-51.71
234.213	95.74
234.43	40.45
234.648	56.83
234.865	-25.09
235.083	9.73
235.3	3.58
235.518	28.16
235.735	48.64
235.953	77.31
236.17	52.74
236.388	-29.18
236.605	30.21
236.822	91.65
237.04	11.78
237.257	3.58
237.475	-37.38
237.692	-12.8
237.909	42.5
238.127	11.78
238.344	65.02
238.562	46.59
238.779	-33.28
238.996	24.06
239.214	-41.47
239.431	77.31
239.648	19.97
239.865	54.78
240.083	93.69
240.3	19.97
240.517	3.58
240.735	-37.38
240.952	3.58
241.169	9.73
241.386	-45.57
241.603	11.78
241.821	7.68
242.038	116.22
242.255	126.46
242.472	1.54
242.689	99.84
242.907	48.64
243.124	-0.51
243.341	83.45
243.558	-4.61
243.775	-10.75
243.992	-29.18
244.209	13.82
244.426	-12.8
244.643	22.02
244.86	62.98
245.078	85.5
245.295	-4.61
245.512	24.06
245.729	-25.09
245.946	69.12
246.163	44.54
246.38	40.45
246.597	5.63
246.814	114.17
247.031	44.54
247.248	48.64
247.464	44.54
247.681	38.4
247.898	83.45
248.115	60.93
248.332	30.21
248.549	81.41
248.766	44.54
248.983	157.18
249.2	-25.09
249.417	50.69
249.633	9.73
249.85	77.31
250.067	36.35
250.284	67.07
250.501	-12.8
250.717	32.26
250.934	1.54
251.151	52.74
251.368	24.06
251.585	-16.9
251.801	-4.61
252.018	17.92
252.235	30.21
252.451	50.69
252.668	3.58
252.885	40.45
253.102	46.59
253.318	24.06
253.535	69.12
253.752	56.83
253.968	146.94
254.185	69.12
254.401	-20.99
254.618	7.68
254.835	-12.8
255.051	101.89
255.268	7.68
255.484	24.06
255.701	34.3
255.917	22.02
256.134	-39.42
256.351	24.06
256.567	48.64
256.784	26.11
257	-66.05
257.217	99.84
257.433	30.21
257.65	3.58
257.866	19.97
258.082	46.59
258.299	-31.23
258.515	24.06
258.732	38.4
258.948	67.07
259.165	56.83
259.381	-57.86
259.597	67.07
259.814	1.54
260.03	13.82
260.246	71.17
260.463	34.3
260.679	81.41
260.895	89.6
261.112	5.63
261.328	-2.56
261.544	44.54
261.761	58.88
261.977	-0.51
262.193	19.97
262.409	40.45
262.626	58.88
262.842	-25.09
263.058	-4.61
263.274	108.03
263.49	-27.14
263.707	69.12
263.923	-33.28
264.139	48.64
264.355	32.26
264.571	69.12
264.787	46.59
265.004	11.78
265.22	65.02
265.436	52.74
265.652	34.3
265.868	9.73
266.084	-25.09
266.3	9.73
266.516	-31.23
266.732	9.73
266.948	5.63
267.164	103.93
267.38	118.27
267.596	11.78
267.812	83.45
268.028	15.87
268.244	58.88
268.46	30.21
268.676	28.16
268.892	58.88
269.108	1.54
269.324	11.78
269.54	-18.94
269.756	67.07
269.972	-23.04
270.188	22.02
270.403	19.97
270.619	30.21
270.835	7.68
271.051	19.97
271.267	5.63
271.483	83.45
271.698	28.16
271.914	38.4
272.13	-23.04
272.346	-20.99
272.562	24.06
272.777	26.11
272.993	56.83
273.209	24.06
273.425	56.83
273.64	26.11
273.856	58.88
274.072	-31.23
274.287	17.92
274.503	30.21
274.719	-4.61
274.934	-8.7
275.15	36.35
275.366	15.87
275.581	24.06
275.797	38.4
276.012	46.59
276.228	54.78
276.444	-43.52
276.659	83.45
276.875	46.59
277.09	60.93
277.306	118.27
277.521	89.6
277.737	69.12
277.952	87.55
278.168	50.69
278.383	-29.18
278.599	54.78
278.814	138.75
279.03	28.16
279.245	-0.51
279.461	11.78
279.676	58.88
279.892	-57.86
280.107	7.68
280.322	19.97
280.538	34.3
280.753	-4.61
280.969	48.64
281.184	-25.09
281.399	71.17
281.615	-55.81
281.83	60.93
282.045	28.16
282.26	73.21
282.476	148.99
282.691	108.03
282.906	89.6
283.122	75.26
283.337	34.3
283.552	93.69
283.767	5.63
283.983	75.26
284.198	-8.7
284.413	65.02
284.628	-25.09
284.843	81.41
285.058	30.21
285.274	142.85
285.489	-31.23
285.704	-25.09
285.919	-18.94
286.134	46.59
286.349	15.87
286.564	89.6
286.779	15.87
286.995	40.45
287.21	-0.51
287.425	38.4
287.64	7.68
287.855	3.58
288.07	-29.18
288.285	34.3
288.5	54.78
288.715	-10.75
288.93	48.64
289.145	-51.71
289.36	22.02
289.575	89.6
289.79	46.59
290.004	56.83
290.219	69.12
290.434	38.4
290.649	44.54
290.864	-2.56
291.079	62.98
291.294	42.5
291.509	65.02
291.724	15.87
291.938	15.87
292.153	28.16
292.368	81.41
292.583	13.82
292.798	-2.56
293.012	48.64
293.227	89.6
293.442	17.92
293.657	26.11
293.871	3.58
294.086	11.78
294.301	3.58
294.516	97.79
294.73	62.98
294.945	26.11
295.16	79.36
295.374	46.59
295.589	44.54
295.804	9.73
296.018	22.02
296.233	50.69
296.447	75.26
296.662	44.54
296.877	79.36
297.091	60.93
297.306	40.45
297.52	65.02
297.735	32.26
297.949	42.5
298.164	89.6
298.378	40.45
298.593	103.93
298.807	56.83
299.022	-53.76
299.236	-12.8
299.451	15.87
299.665	-2.56
299.88	69.12
300.094	22.02
300.309	95.74
300.523	40.45
300.737	24.06
300.952	32.26
301.166	67.07
301.381	19.97
301.595	24.06
301.809	97.79
302.024	99.84
302.238	-39.42
302.452	91.65
302.667	3.58
302.881	1.54
303.095	13.82
303.309	11.78
303.524	38.4
303.738	62.98
303.952	50.69
304.166	-0.51
304.381	30.21
304.595	54.78
304.809	42.5
305.023	42.5
305.237	24.06
305.452	44.54
305.666	30.21
305.88	99.84
306.094	73.21
306.308	15.87
306.522	-0.51
306.736	71.17
306.95	110.08
307.164	67.07
307.379	26.11
307.593	36.35
307.807	17.92
308.021	-10.75
308.235	79.36
308.449	-47.62
308.663	17.92
308.877	32.26
309.091	144.89
309.305	85.5
309.519	-14.85
309.733	-20.99
309.947	52.74
310.161	91.65
310.374	73.21
310.588	54.78
310.802	75.26
311.016	46.59
311.23	7.68
311.444	19.97
311.658	28.16
311.872	48.64
312.085	73.21
312.299	62.98
312.513	46.59
312.727	22.02
312.941	-35.33
313.154	81.41
313.368	42.5
313.582	48.64
313.796	146.94
314.009	118.27
314.223	73.21
314.437	30.21
314.651	50.69
314.864	-2.56
315.078	-4.61
315.292	60.93
315.505	7.68
315.719	13.82
315.933	34.3
316.146	-49.66
316.36	17.92
316.573	79.36
316.787	81.41
317.001	48.64
317.214	110.08
317.428	34.3
317.641	-14.85
317.855	97.79
318.068	32.26
318.282	24.06
318.495	44.54
318.709	3.58
318.922	40.45
319.136	40.45
319.349	-2.56
319.563	56.83
319.776	87.55
319.99	-0.51
320.203	52.74
320.417	15.87
320.63	42.5
320.843	67.07
321.057	67.07
321.27	95.74
321.483	-14.85
321.697	5.63
321.91	32.26
322.124	99.84
322.337	17.92
322.55	95.74
322.763	-0.51
322.977	7.68
323.19	9.73
323.403	7.68
323.617	128.51
323.83	36.35
324.043	-29.18
324.256	58.88
324.469	28.16
324.683	-41.47
324.896	38.4
325.109	85.5
325.322	-43.52
325.535	40.45
325.748	34.3
325.962	-12.8
326.175	52.74
326.388	50.69
326.601	87.55
326.814	62.98
327.027	60.93
327.24	85.5
327.453	9.73
327.666	112.13
327.879	105.98
328.092	28.16
328.305	19.97
328.518	71.17
328.731	44.54
328.944	67.07
329.157	71.17
329.37	-12.8
329.583	50.69
329.796	62.98
330.009	36.35
330.222	85.5
330.435	75.26
330.648	103.93
330.861	15.87
331.073	-20.99
331.286	52.74
331.499	50.69
331.712	7.68
331.925	52.74
332.138	19.97
332.35	52.74
332.563	40.45
332.776	118.27
332.989	-14.85
333.202	44.54
333.414	77.31
333.627	34.3
333.84	52.74
334.053	101.89
334.265	26.11
334.478	50.69
334.691	85.5
334.903	54.78
335.116	19.97
335.329	87.55
335.541	46.59
335.754	15.87
335.966	5.63
336.179	85.5
336.392	34.3
336.604	79.36
336.817	108.03
337.029	56.83
337.242	-16.9
337.454	67.07
337.667	40.45
337.88	36.35
338.092	24.06
338.305	7.68
338.517	-0.51
338.729	77.31
338.942	22.02
339.154	73.21
339.367	13.82
339.579	46.59
339.792	44.54
340.004	42.5
340.217	7.68
340.429	73.21
340.641	58.88
340.854	15.87
341.066	56.83
341.278	28.16
341.491	34.3
341.703	85.5
341.915	13.82
342.128	24.06
342.34	79.36
342.552	-0.51
342.764	-20.99
342.977	67.07
343.189	105.98
343.401	32.26
343.613	40.45
343.826	30.21
344.038	85.5
344.25	67.07
344.462	-18.94
344.674	97.79
344.886	34.3
345.099	120.32
345.311	54.78
345.523	75.26
345.735	30.21
345.947	138.75
346.159	116.22
346.371	32.26
346.583	46.59
346.795	71.17
347.007	-18.94
347.219	120.32
347.431	-0.51
347.643	34.3
347.855	112.13
348.067	56.83
348.279	17.92
348.491	40.45
348.703	15.87
348.915	-14.85
349.127	3.58
349.339	26.11
349.551	62.98
349.763	101.89
349.975	67.07
350.187	62.98
350.399	77.31
350.61	1.54
350.822	9.73
351.034	69.12
351.246	124.41
351.458	24.06
351.669	17.92
351.881	122.37
352.093	9.73
352.305	73.21
352.517	30.21
352.728	62.98
352.94	38.4
353.152	54.78
353.363	83.45
353.575	83.45
353.787	48.64
353.999	101.89
354.21	17.92
354.422	62.98
354.633	36.35
354.845	5.63
355.057	42.5
355.268	46.59
355.48	73.21
355.692	58.88
355.903	44.54
356.115	97.79
356.326	15.87
356.538	67.07
356.749	38.4
356.961	155.13
357.172	52.74
357.384	54.78
357.595	46.59
357.807	52.74
358.018	32.26
358.23	118.27
358.441	48.64
358.653	101.89
358.864	60.93
359.075	60.93
359.287	17.92
359.498	97.79
359.709	30.21
359.921	42.5
360.132	77.31
360.344	62.98
360.555	44.54
360.766	42.5
360.977	17.92
361.189	132.61
361.4	54.78
361.611	11.78
361.823	32.26
362.034	22.02
362.245	11.78
362.456	62.98
362.667	71.17
362.879	26.11
363.09	11.78
363.301	81.41
363.512	60.93
363.723	50.69
363.935	13.82
364.146	85.5
364.357	34.3
364.568	42.5
364.779	52.74
364.99	79.36
365.201	-16.9
365.412	52.74
365.623	50.69
365.834	87.55
366.045	32.26
366.256	28.16
366.467	101.89
366.678	62.98
366.889	-35.33
367.1	52.74
367.311	11.78
367.522	44.54
367.733	46.59
367.944	69.12
368.155	-29.18
368.366	48.64
368.577	85.5
368.788	19.97
368.999	19.97
369.209	87.55
369.42	79.36
369.631	56.83
369.842	40.45
370.053	40.45
370.264	128.51
370.474	81.41
370.685	62.98
370.896	50.69
371.107	97.79
371.317	81.41
371.528	62.98
371.739	48.64
371.95	73.21
372.16	97.79
372.371	-53.76
372.582	132.61
372.792	42.5
373.003	122.37
373.214	48.64
373.424	67.07
373.635	52.74
373.846	105.98
374.056	32.26
374.267	97.79
374.477	34.3
374.688	65.02
374.898	34.3
375.109	34.3
375.319	93.69
375.53	67.07
375.74	97.79
375.951	87.55
376.161	24.06
376.372	114.17
376.582	85.5
376.793	97.79
377.003	36.35
377.214	83.45
377.424	56.83
377.635	48.64
377.845	38.4
378.055	48.64
378.266	58.88
378.476	108.03
378.686	11.78
378.897	-8.7
379.107	40.45
379.317	91.65
379.528	-23.04
379.738	81.41
379.948	103.93
380.158	42.5
380.369	79.36
380.579	56.83
380.789	28.16
380.999	110.08
381.21	136.7
381.42	58.88
381.63	48.64
381.84	36.35
382.05	81.41
382.261	34.3
382.471	75.26
382.681	3.58
382.891	79.36
383.101	130.56
383.311	5.63
383.521	36.35
383.731	28.16
383.941	69.12
384.151	24.06
384.361	126.46
384.571	85.5
384.781	93.69
384.991	140.8
385.201	79.36
385.411	124.41
385.621	56.83
385.831	105.98
386.041	71.17
386.251	42.5
386.461	52.74
386.671	-78.33
386.881	161.28
387.091	103.93
387.301	95.74
387.511	97.79
387.72	91.65
387.93	99.84
388.14	32.26
388.35	34.3
388.56	71.17
388.769	105.98
388.979	56.83
389.189	85.5
389.399	85.5
389.609	91.65
389.818	126.46
390.028	22.02
390.238	73.21
390.447	46.59
390.657	108.03
390.867	71.17
391.076	56.83
391.286	56.83
391.496	99.84
391.705	54.78
391.915	91.65
392.125	93.69
392.334	5.63
392.544	124.41
392.753	126.46
392.963	48.64
393.172	60.93
393.382	48.64
393.591	108.03
393.801	75.26
394.01	75.26
394.22	110.08
394.429	95.74
394.639	112.13
394.848	114.17
395.058	34.3
395.267	60.93
395.477	103.93
395.686	122.37
395.895	161.28
396.105	32.26
396.314	83.45
396.524	60.93
396.733	36.35
396.942	110.08
397.152	52.74
397.361	126.46
397.57	87.55
397.78	136.7
397.989	42.5
398.198	85.5
398.407	81.41
398.617	108.03
398.826	89.6
399.035	114.17
399.244	148.99
399.453	58.88
399.663	110.08
399.872	122.37
400.081	142.85
400.29	192
400.499	44.54
400.708	103.93
400.917	69.12
401.127	101.89
401.336	116.22
401.545	155.13
401.754	138.75
401.963	58.88
402.172	118.27
402.381	116.22
402.59	110.08
402.799	142.85
403.008	151.04
403.217	163.33
403.426	165.37
403.635	214.52
403.844	161.28
404.053	120.32
404.262	216.57
404.471	155.13
404.68	167.42
404.888	151.04
405.097	181.76
405.306	163.33
405.515	118.27
405.724	169.47
405.933	216.57
406.142	189.95
406.35	179.71
406.559	159.23
406.768	124.41
406.977	253.44
407.185	187.9
407.394	239.1
407.603	284.16
407.812	243.2
408.02	239.1
408.229	212.48
408.438	296.44
408.646	218.62
408.855	212.48
409.064	308.73
409.272	249.34
409.481	269.82
409.69	296.44
409.898	249.34
410.107	290.3
410.315	296.44
410.524	294.4
410.733	347.64
410.941	304.64
411.15	327.16
411.358	347.64
411.567	466.42
411.775	447.99
411.984	325.12
412.192	407.03
412.401	431.61
412.609	439.8
412.818	515.58
413.026	499.19
413.234	538.1
413.443	572.92
413.651	542.2
413.86	509.43
414.068	613.88
414.276	589.3
414.485	574.97
414.693	607.73
414.901	687.61
415.11	644.6
415.318	812.53
415.526	722.42
415.734	755.19
415.943	773.62
416.151	814.58
416.359	790
416.567	785.91
416.776	859.63
416.984	888.31
417.192	906.74
417.4	957.94
417.608	1011.18
417.817	1046
418.025	1080.82
418.233	1211.89
418.441	1129.97
418.649	1187.31
418.857	1371.63
419.065	1230.32
419.273	1345
419.481	1236.46
419.689	1433.07
419.897	1514.98
420.105	1467.88
420.313	1621.48
420.521	1770.98
420.729	1691.11
420.937	1678.82
421.145	1783.27
421.353	1877.48
421.561	1867.24
421.769	1869.28
421.977	2092.51
422.185	1975.78
422.393	2088.42
422.601	2203.1
422.809	2289.12
423.017	2305.5
423.224	2487.77
423.432	2506.2
423.64	2516.44
423.848	2596.31
424.056	2651.61
424.263	2864.6
424.471	2844.12
424.679	2883.03
424.887	3005.91
425.094	3153.36
425.302	3243.47
425.51	3249.61
425.718	3358.16
425.925	3567.05
426.133	3571.15
426.341	3718.6
426.548	3933.64
426.756	3993.03
426.964	4009.41
427.171	4124.1
427.379	4253.12
427.586	4244.93
427.794	4378.05
428.001	4597.18
428.209	4906.42
428.417	4763.06
428.624	5168.56
428.832	5135.79
429.039	4984.24
429.247	5035.44
429.454	5631.4
429.662	6090.15
429.869	5582.25
430.076	6041
430.284	5774.76
430.491	6167.97
430.699	6501.79
430.906	6475.17
431.114	6653.34
431.321	6915.48
431.528	6983.06
431.736	7363.98
431.943	7648.65
432.15	7390.61
432.358	7552.4
432.565	7914.89
432.772	7996.81
432.979	8289.67
433.187	8539.52
433.394	8443.26
433.601	9037.17
433.808	9250.16
434.016	9221.49
434.223	9590.13
434.43	10014.06
434.637	9936.23
434.844	10435.94
435.052	10683.74
435.259	10534.24
435.466	10786.14
435.673	10607.97
435.88	11291.99
436.087	11955.53
436.294	11912.52
436.501	11634
436.708	11851.08
436.915	12072.26
437.122	12531.01
437.329	12823.87
437.537	13045.05
437.743	13438.26
437.95	13387.06
438.157	13993.26
438.364	14564.64
438.571	14386.47
438.778	14628.13
438.985	15947.02
439.192	15244.57
439.399	15764.75
439.606	15193.37
439.813	16168.2
440.02	17298.68
440.227	16897.28
440.433	16758.02
440.64	17325.3
440.847	17093.88
441.054	17564.92
441.261	18785.51
441.467	18492.65
441.674	18838.75
441.881	19438.81
442.088	19637.46
442.294	19465.43
442.501	19948.75
442.708	20804.8
442.914	21187.77
443.121	22391.98
443.328	21443.77
443.534	23293.08
443.741	22279.34
443.948	21898.42
444.154	23714.97
444.361	23663.77
444.568	23784.6
444.774	23659.67
444.981	23921.81
445.187	24851.59
445.394	25756.79
445.6	25568.38
445.807	27636.83
446.013	26920.04
446.22	26934.37
446.426	28206.16
446.633	28187.73
446.839	29248.58
447.046	28212.31
447.252	29598.78
447.459	29844.54
447.665	29672.51
447.871	31044.65
448.078	32082.97
448.284	31097.89
448.491	31581.21
448.697	33170.44
448.903	33426.43
449.11	33522.69
449.316	33065.99
449.522	33645.57
449.728	34343.92
449.935	34571.25
450.141	34774
450.347	35793.89
450.553	34493.43
450.76	35290.09
450.966	36117.46
451.172	35595.23
451.378	36443.09
451.584	35822.56
451.791	37055.43
451.997	36582.35
452.203	37469.12
452.409	37243.85
452.615	36930.51
452.821	35539.94
453.027	35255.27
453.233	37340.1
453.44	36060.12
453.646	36381.65
453.852	36514.77
454.058	36967.37
454.264	35822.56
454.47	36471.76
454.676	35623.9
454.882	37057.48
455.088	33817.6
455.294	34100.22
455.5	34651.12
455.705	34956.27
455.911	33666.05
456.117	33070.09
456.323	32510.99
456.529	30997.54
456.735	32177.17
456.941	31474.72
457.147	31255.59
457.352	30041.14
457.558	29934.65
457.764	29600.83
457.97	28978.25
458.176	28691.53
458.381	28814.41
458.587	27233.38
458.793	27425.89
458.999	25873.53
459.204	27583.58
459.41	26750.06
459.616	25263.23
459.821	25263.23
460.027	25119.87
460.233	24368.27
460.438	23678.1
460.644	23815.32
460.85	22527.14
461.055	22129.84
461.261	21802.16
461.466	20520.13
461.672	19729.62
461.878	21329.08
462.083	19907.79
462.289	19608.79
462.494	19479.77
462.7	18390.25
462.905	17966.32
463.111	18697.44
463.316	18570.47
463.522	18345.19
463.727	18253.03
463.932	18271.47
464.138	18126.06
464.343	18226.41
464.549	17722.61
464.754	18050.28
464.959	17831.15
465.165	17855.73
465.37	17319.16
465.575	16723.2
465.781	17224.95
465.986	17521.91
466.191	17003.77
466.397	16416.01
466.602	15525.14
466.807	16399.62
467.012	16342.28
467.218	16362.76
467.423	16002.32
467.628	16258.31
467.833	16604.42
468.038	16078.09
468.244	15613.2
468.449	16305.42
468.654	15785.23
468.859	15785.23
469.064	15666.45
469.269	15158.55
469.474	15195.42
469.679	15375.64
469.885	14933.28
470.09	15109.4
470.295	14970.14
470.5	14757.15
470.705	14791.97
470.91	14509.35
471.115	14413.09
471.32	14720.29
471.525	14357.8
471.73	14101.8
471.935	13825.33
472.139	13411.64
472.344	13626.67
472.549	13823.28
472.754	13561.14
472.959	13200.69
473.164	12977.47
473.369	12830.01
473.574	13114.68
473.778	13165.88
473.983	13012.28
474.188	13104.44
474.393	12418.37
474.598	12420.42
474.802	12266.82
475.007	12365.12
475.212	12311.88
475.417	11621.71
475.621	11855.18
475.826	11947.34
476.031	11666.77
476.235	11441.49
476.44	11414.87
476.645	11367.76
476.849	11222.36
477.054	11148.63
477.259	11117.91
477.463	10909.02
477.668	10728.8
477.872	10863.96
478.077	10579.29
478.282	10433.89
478.486	10202.47
478.691	10169.7
478.895	10235.24
479.1	10063.21
479.304	10083.69
479.509	10104.17
479.713	10173.8
479.918	9862.51
480.122	9692.52
480.326	9991.53
480.531	9971.05
480.735	9887.08
480.94	9606.51
481.144	9979.24
481.348	9457.01
481.553	9696.62
481.757	9424.24
481.961	9698.67
482.166	9788.78
482.37	9620.85
482.574	9497.97
482.778	9553.26
482.983	9760.11
483.187	9473.39
483.391	9389.42
483.595	9432.43
483.8	9219.44
484.004	9704.81
484.208	9434.48
484.412	9620.85
484.616	9487.73
484.821	9379.18
485.025	9162.1
485.229	9569.65
485.433	9532.78
485.637	9540.97
485.841	9375.09
486.045	9543.02
486.249	9553.26
486.453	9293.17
486.657	9330.03
486.861	9479.54
487.065	9174.39
487.269	9366.9
487.473	9186.68
487.677	9381.23
487.881	9573.74
488.085	9409.9
488.289	9522.54
488.493	9475.44
488.697	9547.12
488.901	9452.91
489.105	9493.87
489.309	9633.13
489.512	9520.49
489.716	9643.37
489.92	9631.09
490.124	9516.4
490.328	9741.68
490.531	9670
490.735	9788.78
490.939	9665.9
491.143	9651.56
491.346	9583.98
491.55	9842.03
491.754	9690.48
491.958	10048.87
492.161	9919.85
492.365	10009.96
492.569	9794.92
492.772	9891.18
492.976	9995.62
493.18	10012.01
493.383	10306.91
493.587	10415.46
493.79	10460.51
493.994	10157.41
494.197	10390.88
494.401	10306.91
494.605	10290.53
494.808	10773.85
495.012	10612.06
495.215	10761.56
495.419	10775.9
495.622	10835.29
495.825	10904.92
496.029	11097.43
496.232	11246.93
496.436	11378
496.639	11490.64
496.843	11443.54
497.046	11439.44
497.249	11693.39
497.453	11742.54
497.656	11799.88
497.859	11896.14
498.063	12133.7
498.266	12242.25
498.469	12070.22
498.673	12430.66
498.876	12838.2
499.079	12948.79
499.282	12580.16
499.485	13055.29
499.689	12873.02
499.892	13083.96
500.095	13182.26
500.298	13856.04
500.501	13454.64
500.705	13763.89
500.908	13985.07
501.111	14187.82
501.314	14454.05
501.517	14636.32
501.72	14560.55
501.923	14771.49
502.126	14785.82
502.329	15164.7
502.532	15097.11
502.735	15160.6
502.938	15848.72
503.141	15787.28
503.344	15684.88
503.547	16073.99
503.75	16362.76
503.953	16395.53
504.156	16590.08
504.359	16868.61
504.562	16899.33
504.765	17358.07
504.968	17616.12
505.17	17609.97
505.373	17487.09
505.576	17917.17
505.779	18142.44
505.982	18203.88
506.185	18803.94
506.387	18443.49
506.59	18658.53
506.793	18912.48
506.996	18867.42
507.198	19526.87
507.401	19551.45
507.604	19762.39
507.807	20036.81
508.009	20030.67
508.212	20298.95
508.415	20759.75
508.617	20800.71
508.82	21105.85
509.022	20915.39
509.225	21638.33
509.428	21712.05
509.63	21759.16
509.833	21667
510.035	22379.69
510.238	22551.72
510.44	22836.39
510.643	22979.75
510.845	23379.1
511.048	23010.46
511.25	23594.14
511.453	23923.86
511.655	24724.61
511.858	24136.85
512.06	24401.04
512.262	24634.5
512.465	24685.7
512.667	25156.74
512.87	25259.13
513.072	25275.52
513.274	25951.35
513.477	26354.8
513.679	26412.14
513.881	26803.3
514.084	27081.83
514.286	26883.17
514.488	27139.17
514.69	28148.82
514.893	27956.31
515.095	28064.85
515.297	28093.52
515.499	28630.09
515.701	28791.88
515.904	29340.74
516.106	29439.04
516.308	29647.93
516.51	30168.12
516.712	29961.27
516.914	30473.26
517.116	30725.16
517.318	30858.28
517.52	31085.61
517.722	31319.07
517.925	31876.12
518.127	31822.87
518.329	32347.15
518.531	32183.32
518.733	32680.97
518.935	33006.6
519.136	33266.69
519.338	33666.05
519.54	33395.71
519.742	34219
519.944	34118.65
520.146	34819.05
520.348	35017.71
520.55	34806.76
520.752	35093.48
520.954	35834.85
521.155	35267.56
521.357	36207.58
521.559	36332.5
521.761	36705.23
521.963	36484.05
522.164	37039.05
522.366	37182.41
522.568	37393.35
522.77	37559.23
522.971	38411.19
523.173	38134.71
523.375	38398.9
523.576	38562.74
523.778	38304.7
523.98	39246.76
524.181	39318.44
524.383	39914.4
524.584	39957.41
524.786	39838.62
524.988	39711.65
525.189	40317.85
525.391	40557.46
525.592	40827.79
525.794	41259.91
525.995	41292.68
526.197	40901.52
526.398	41186.19
526.6	41300.87
526.801	41507.72
527.003	42199.93
527.204	41995.14
527.406	42204.03
527.607	42322.81
527.808	42433.4
528.01	41874.31
528.211	42113.92
528.412	43338.6
528.614	42826.61
528.815	42883.95
529.016	43273.07
529.218	42799.99
529.419	43387.75
529.62	42990.45
529.822	43275.12
530.023	43305.84
530.224	43592.55
530.425	43529.06
530.626	43514.73
530.828	43271.02
531.029	43977.57
531.23	43496.3
531.431	43842.4
531.632	44227.42
531.833	44112.73
532.035	43856.74
532.236	44483.42
532.437	44227.42
532.638	44497.75
532.839	44372.83
533.04	44692.31
533.241	44006.24
533.442	45146.96
533.643	44661.59
533.844	44608.34
534.045	44522.33
534.246	44374.87
534.447	44903.25
534.648	44278.62
534.849	44821.33
535.05	44208.99
535.251	44862.29
535.451	44563.29
535.652	44839.76
535.853	44606.3
536.054	44307.29
536.255	44718.93
536.456	44696.41
536.657	45443.91
536.857	44544.86
537.058	44393.31
537.259	45425.48
537.46	44763.99
537.66	44591.96
537.861	45179.73
538.062	44952.4
538.263	44911.44
538.463	44733.27
538.664	44821.33
538.865	45122.38
539.065	45536.07
539.266	44583.77
539.466	45445.96
539.667	44596.06
539.868	45486.92
540.068	44917.59
540.269	44866.39
540.469	45022.03
540.67	44784.47
540.87	45273.93
541.071	45065.04
541.271	45132.62
541.472	44669.78
541.672	44979.03
541.873	44823.38
542.073	43895.65
542.274	45286.22
542.474	44567.38
542.675	44460.89
542.875	44995.41
543.075	44718.93
543.276	44129.12
543.476	44702.55
543.676	44274.52
543.877	44987.22
544.077	44288.86
544.277	44165.98
544.478	44661.59
544.678	44913.49
544.878	44954.45
545.078	44655.45
545.279	44342.11
545.479	44168.03
545.679	44395.35
545.879	44962.64
546.079	44301.15
546.28	44649.3
546.48	43983.71
546.68	44374.87
546.88	44798.8
547.08	44600.15
547.28	44524.38
547.48	44249.95
547.68	44606.3
547.88	44151.65
548.081	44694.36
548.281	44696.41
548.481	44348.25
548.681	44559.19
548.881	44335.96
549.081	44256.09
549.28	44264.28
549.48	44557.14
549.68	44266.33
549.88	44282.72
550.08	44358.49
550.28	44792.66
550.48	44082.02
550.68	44725.08
550.88	44327.77
551.08	44409.69
551.279	44493.66
551.479	44356.44
551.679	44331.87
551.879	44403.55
552.079	44235.61
552.278	44032.86
552.478	44170.08
552.678	44321.63
552.878	44329.82
553.077	44282.72
553.277	43936.61
553.477	44450.65
553.676	44223.33
553.876	44022.62
554.076	43885.41
554.275	43770.72
554.475	43948.9
554.674	43785.06
554.874	44026.72
555.074	43766.63
555.273	43780.96
555.473	44000.1
555.672	43766.63
555.872	43742.05
556.071	43815.78
556.271	44096.35
556.47	43004.78
556.67	43662.18
556.869	43436.91
557.068	43598.69
557.268	43279.21
557.467	43594.6
557.667	43723.62
557.866	43473.77
558.065	43371.37
558.265	43115.37
558.464	43133.81
558.663	43377.51
558.863	42922.87
559.062	43352.94
559.261	42384.25
559.461	43531.11
559.66	42523.51
559.859	42726.26
560.058	42650.49
560.258	42677.11
560.457	42464.12
560.656	42785.65
560.855	42294.14
561.054	42638.2
561.253	42150.78
561.453	42523.51
561.652	42494.84
561.851	42468.22
562.05	42171.26
562.249	42156.92
562.448	42842.99
562.647	42216.32
562.846	41769.86
563.045	41935.74
563.244	41481.1
563.443	42206.08
563.642	41548.68
563.841	41767.81
564.04	41771.91
564.239	42097.53
564.438	41544.58
564.637	41454.47
564.836	41657.22
565.035	40688.53
565.234	41264.01
565.432	41079.69
565.631	41012.11
565.83	41167.76
566.029	41053.07
566.228	40788.88
566.427	40866.7
566.625	40072.09
566.824	40305.56
567.023	40430.49
567.222	39721.89
567.42	40770.45
567.619	40342.42
567.818	40018.85
568.016	39977.89
568.215	40246.17
568.414	39793.57
568.612	40338.33
568.811	39936.93
569.01	39830.43
569.208	39041.96
569.407	39760.8
569.605	39142.31
569.804	40055.71
570.002	39103.4
570.201	39570.34
570.4	38708.15
570.598	38482.87
570.797	38609.84
570.995	38759.34
571.193	38130.62
571.392	39056.3
571.59	38374.33
571.789	38609.84
571.987	38310.84
572.186	38462.39
572.384	38294.46
572.582	38005.69
572.781	38130.62
572.979	37833.66
573.177	37774.27
573.376	37968.83
573.574	37477.32
573.772	38017.98
573.971	37133.26
574.169	37344.2
574.367	36875.21
574.565	37307.33
574.763	37168.07
574.962	36932.56
575.16	36742.1
575.358	36932.56
575.556	36373.46
575.754	36879.31
575.952	36627.41
576.151	36795.34
576.349	36158.42
576.547	36643.79
576.745	36049.88
576.943	36525.01
577.141	36160.47
577.339	36015.07
577.537	35937.24
577.735	36076.51
577.933	35675.1
578.131	35750.88
578.329	35797.98
578.527	35531.75
578.725	35296.23
578.923	35554.27
579.121	35052.52
579.319	35296.23
579.516	35578.85
579.714	35255.27
579.912	35312.61
580.11	34657.26
580.308	34958.31
580.506	34472.95
580.704	34255.86
580.901	34563.06
581.099	34743.28
581.297	34110.46
581.495	34356.21
581.692	34192.37
581.89	33887.23
582.088	34497.52
582.285	33891.32
582.483	33950.71
582.681	34132.98
582.878	33625.09
583.076	33385.47
583.274	33637.37
583.471	33448.96
583.669	33223.69
583.866	33053.7
584.064	33289.22
584.262	32398.35
584.459	33072.14
584.657	32805.9
584.854	33256.45
585.052	32199.7
585.249	32551.95
585.447	32998.41
585.644	32244.76
585.841	32252.95
586.039	32656.4
586.236	32117.78
586.434	32189.46
586.631	32123.93
586.828	31900.7
587.026	32392.21
587.223	31966.23
587.42	31667.23
587.618	31527.97
587.815	31464.48
588.012	31511.58
588.21	31155.24
588.407	31278.11
588.604	31169.57
588.801	30694.44
588.999	30731.31
589.196	30970.92
589.393	31087.65
589.59	30848.04
589.787	30798.89
589.984	30688.3
590.182	30207.03
590.379	30512.17
590.576	30245.94
590.773	30192.69
590.97	30118.96
591.167	30295.09
591.364	29697.08
591.561	30045.24
591.758	29553.73
591.955	29856.82
592.152	29924.41
592.349	29256.77
592.546	29305.92
592.743	29703.23
592.94	29056.07
593.137	29303.87
593.334	29025.35
593.531	28910.66
593.727	29232.19
593.924	28961.86
594.121	28920.9
594.318	28722.25
594.515	28437.58
594.712	28384.33
594.908	28179.54
595.105	28611.66
595.302	28335.18
595.499	28324.94
595.696	28288.08
595.892	27769.94
596.089	28378.19
596.286	27925.59
596.482	27585.63
596.679	27806.81
596.876	27731.03
597.072	27903.06
597.269	27636.83
597.466	27231.33
597.662	27407.45
597.859	27204.7
598.055	27255.9
598.252	27108.45
598.448	27044.96
598.645	26791.02
598.841	26573.93
599.038	26848.36
599.234	27047.01
599.431	26322.03
599.627	26543.21
599.824	26874.98
600.02	26319.98
600.217	26389.61
600.413	26385.52
600.609	26240.11
600.806	25834.61
601.002	26221.68
601.198	25871.48
601.395	25961.59
601.591	25629.82
601.787	26100.85
601.984	25484.41
602.18	25783.41
602.376	25314.43
602.572	25238.65
602.769	25642.1
602.965	25318.53
603.161	25285.76
603.357	24999.04
603.553	25080.96
603.75	25060.48
603.946	24661.13
604.142	24759.43
604.338	24829.06
604.534	24663.18
604.73	24476.81
604.926	24456.33
605.122	24517.77
605.318	24161.42
605.514	24274.06
605.71	23983.25
605.906	24081.55
606.102	24306.83
606.298	24063.12
606.494	24145.04
606.69	23983.25
606.886	23975.06
607.082	23581.85
607.278	23999.63
607.474	23418.01
607.67	23610.52
607.866	23229.6
608.062	23682.2
608.257	23352.48
608.453	23305.37
608.649	23389.34
608.845	23334.04
609.041	23149.73
609.236	23094.43
609.432	23280.8
609.628	23381.15
609.824	22887.59
610.019	23104.67
610.215	23020.7
610.411	22863.01
610.606	22838.44
610.802	22944.93
610.998	22889.63
611.193	22731.94
611.389	22881.44
611.584	22432.94
611.78	22480.04
611.976	22533.29
612.171	22469.8
612.367	22568.1
612.562	22295.72
612.758	22226.09
612.953	21961.9
613.149	22404.27
613.344	22072.5
613.539	22330.54
613.735	22205.61
613.93	22146.22
614.126	21849.27
614.321	22234.28
614.517	21906.61
614.712	21726.39
614.907	21585.08
615.103	21710
615.298	21482.68
615.493	22123.69
615.688	21402.81
615.884	22158.51
616.079	21243.07
616.274	21597.37
616.47	21626.04
616.665	21521.59
616.86	21116.09
617.055	21294.27
617.25	21318.84
617.445	21353.66
617.641	21099.71
617.836	21470.39
618.031	20831.43
618.226	21193.92
618.421	20819.14
618.616	21402.81
618.811	20761.8
619.006	20901.06
619.201	20647.11
619.396	20741.32
619.591	20249.8
619.786	20690.12
619.981	20405.45
620.176	20575.43
620.371	20317.39
620.566	20241.61
620.761	19889.36
620.956	20124.88
621.151	19793.11
621.346	20045.01
621.541	19444.95
621.735	19799.25
621.93	19369.18
622.125	19442.9
622.32	18994.4
622.515	19301.59
622.709	19057.89
622.904	19059.93
623.099	18990.3
623.294	19188.96
623.488	18722.02
623.683	18779.36
623.878	18562.28
624.072	18420.97
624.267	18451.69
624.462	18392.3
624.656	18005.23
624.851	18429.16
625.046	18099.44
625.24	17951.98
625.435	17544.44
625.629	17925.36
625.824	17652.98
626.018	17532.15
626.213	17261.82
626.407	17372.41
626.602	17202.43
626.796	17085.69
626.991	17161.47
627.185	17179.9
627.38	16841.98
627.574	16712.96
627.768	16706.82
627.963	16338.18
628.157	16375.05
628.352	16569.6
628.546	16325.89
628.74	16547.08
628.935	15975.69
629.129	16231.69
629.323	15828.24
629.517	15936.78
629.712	15854.86
629.906	15672.59
630.1	15371.54
630.294	15787.28
630.489	15426.84
630.683	15420.69
630.877	15138.07
631.071	15082.78
631.265	15263
631.459	15088.92
631.653	15146.26
631.848	14998.81
632.042	14601.51
632.236	14927.13
632.43	14718.24
632.624	14712.1
632.818	14454.05
633.012	14388.52
633.206	14136.62
633.4	14544.16
633.594	14169.38
633.788	14050.6
633.982	14050.6
634.176	14122.28
634.369	13907.24
634.563	14087.47
634.757	13821.23
634.951	13892.91
635.145	13741.36
635.339	13675.82
635.533	13417.78
635.726	13675.82
635.92	13313.33
636.114	13477.17
636.308	13282.61
636.501	13120.82
636.695	13200.69
636.889	12879.16
637.083	12909.88
637.276	12850.49
637.47	12631.36
637.664	12959.03
637.857	12801.34
638.051	12580.16
638.244	12653.89
638.438	12518.72
638.632	12539.2
638.825	12383.56
639.019	12277.06
639.212	12213.57
639.406	12150.09
639.599	12109.13
639.793	11924.81
639.986	11945.29
640.18	11771.21
640.373	11994.44
640.567	11570.51
640.76	11689.29
640.954	11398.48
641.147	11437.39
641.34	11418.96
641.534	11373.91
641.727	11412.82
641.92	11371.86
642.114	11154.77
642.307	11255.12
642.5	11148.63
642.694	11050.33
642.887	11035.99
643.08	11128.15
643.273	10786.14
643.467	10909.02
643.66	10675.55
643.853	10593.63
644.046	10564.96
644.239	10751.32
644.432	10646.88
644.626	10560.86
644.819	10343.78
645.012	10319.2
645.205	10644.83
645.398	10405.22
645.591	10241.38
645.784	10325.35
645.977	10093.93
646.17	9971.05
646.363	9952.62
646.556	9946.47
646.749	9786.73
646.942	9905.51
647.135	9942.38
647.328	9846.12
647.521	9606.51
647.714	9555.31
647.907	9760.11
648.099	9387.38
648.292	9508.21
648.485	9516.4
648.678	9268.59
648.871	9348.47
649.064	9162.1
649.256	9346.42
649.449	9272.69
649.642	9121.14
649.835	9031.03
650.027	8889.72
650.22	8824.19
650.413	8832.38
650.605	8781.18
650.798	8842.62
650.991	8654.2
651.183	8658.3
651.376	8713.6
651.568	8670.59
651.761	8719.74
651.954	8525.18
652.146	8381.82
652.339	8463.74
652.531	8390.02
652.724	8459.65
652.916	8275.33
653.109	8164.74
653.301	8258.95
653.494	8265.09
653.686	7961.99
653.879	8119.68
654.071	8052.1
654.263	7871.88
654.456	8021.38
654.648	8045.96
654.84	7945.61
655.033	7839.11
655.225	7773.58
655.417	7613.84
655.61	7667.08
655.802	7624.08
655.994	7531.92
656.186	7720.33
656.379	7595.4
656.571	7566.73
656.763	7480.72
656.955	7400.85
657.148	7417.23
657.34	7359.89
657.532	7243.15
657.724	7251.35
657.916	7255.44
658.108	7134.61
658.3	7194
658.492	7101.84
658.684	7028.12
658.876	7157.14
659.068	7042.45
659.26	6991.25
659.452	7085.46
659.644	6931.86
659.836	6880.66
660.028	7026.07
660.22	6792.6
660.412	6751.64
660.604	6700.44
660.796	6589.85
660.988	6708.63
661.18	6712.73
661.372	6589.85
661.563	6569.37
661.755	6524.32
661.947	6522.27
662.139	6505.88
662.331	6385.05
662.522	6337.95
662.714	6311.33
662.906	6288.8
663.097	6337.95
663.289	6249.89
663.481	6106.53
663.673	6153.63
663.864	6239.65
664.056	6122.91
664.247	5971.36
664.439	5926.31
664.631	5940.65
664.822	6086.05
665.014	6045.09
665.205	6159.78
665.397	5809.58
665.588	6016.42
665.78	5842.34
665.971	5655.98
666.163	5850.53
666.354	5762.47
666.546	5664.17
666.737	5658.03
666.929	5832.1
667.12	5660.07
667.311	5619.11
667.503	5623.21
667.694	5598.63
667.885	5670.31
668.077	5615.02
668.268	5492.14
668.459	5475.76
668.651	5352.88
668.842	5283.25
669.033	5213.62
669.224	5455.28
669.416	5250.48
669.607	5225.9
669.798	5291.44
669.989	5434.8
670.18	5303.73
670.371	5215.66
670.563	5291.44
670.754	5313.97
670.945	5129.65
671.136	5170.61
671.327	5189.04
671.518	4957.62
671.709	5127.6
671.9	5166.51
672.091	5008.82
672.282	5084.59
672.473	4965.81
672.664	5053.87
672.855	4773.3
673.046	4976.05
673.237	4941.24
673.428	4879.8
673.619	4998.58
673.809	4857.27
674	4963.76
674.191	4726.2
674.382	4752.82
674.573	4824.5
674.764	4734.39
674.954	4754.87
675.145	4640.19
675.336	4722.1
675.527	4677.05
675.717	4783.54
675.908	4769.21
676.099	4761.02
676.289	4795.83
676.48	4634.04
676.671	4566.46
676.861	4720.06
677.052	4593.08
677.243	4597.18
677.433	4642.23
677.624	4691.38
677.814	4564.41
678.005	4533.69
678.195	4648.38
678.386	4455.87
678.576	4474.3
678.767	4519.36
678.957	4490.68
679.148	4670.9
679.338	4603.32
679.529	4535.74
679.719	4402.62
679.909	4591.03
680.1	4384.19
680.29	4484.54
680.481	4322.75
680.671	4488.64
680.861	4437.44
681.052	4507.07
681.242	4357.57
681.432	4556.22
681.622	4392.38
681.813	4310.46
682.003	4337.09
682.193	4367.81
682.383	4242.88
682.573	4369.85
682.764	4279.74
682.954	4384.19
683.144	4285.89
683.334	4285.89
683.524	4373.95
683.714	4197.82
683.904	4224.45
684.094	4220.35
684.284	4222.4
684.474	4220.35
684.664	4351.42
684.854	4306.37
685.044	4048.32
685.234	4167.1
685.424	4113.86
685.614	4171.2
685.804	4167.1
685.994	4093.38
686.184	4165.06
686.374	4171.2
686.564	4220.35
686.753	4167.1
686.943	3874.24
687.133	4224.45
687.323	4099.52
687.513	4148.67
687.702	3939.78
687.892	3943.88
688.082	3825.09
688.272	4054.47
688.461	3947.97
688.651	3835.33
688.841	3808.71
689.03	3980.74
689.22	3798.47
689.41	3952.07
689.599	3925.44
689.789	3937.73
689.979	3890.63
690.168	3829.19
690.358	3749.32
690.547	3827.14
690.737	3800.52
690.926	3593.67
691.116	3626.44
691.305	3708.36
691.495	3790.28
691.684	3558.86
691.874	3747.27
692.063	3728.84
692.252	3640.78
692.442	3694.02
692.631	3597.77
692.82	3528.14
693.01	3464.65
693.199	3540.43
693.388	3534.28
693.578	3536.33
693.767	3628.49
693.956	3442.12
694.146	3442.12
694.335	3591.63
694.524	3532.23
694.713	3519.95
694.902	3472.84
695.092	3444.17
695.281	3378.64
695.47	3306.96
695.659	3349.96
695.848	3386.83
696.037	3552.71
696.226	3483.08
696.415	3421.64
696.604	3481.03
696.793	3294.67
696.982	3388.88
697.171	3397.07
697.36	3313.1
697.549	3372.49
697.738	3294.67
697.927	3417.55
698.116	3335.63
698.305	3294.67
698.494	3317.2
698.683	3278.29
698.872	3360.2
699.061	3460.56
699.25	3204.56
699.438	3263.95
699.627	3317.2
699.816	3272.14
700.005	3417.55
700.193	3356.11
700.382	3306.96
700.571	3233.23
700.76	3225.04
700.948	3315.15
701.137	3208.66
701.326	3292.62
701.514	3222.99
701.703	3296.72
701.892	3126.74
702.08	3210.7
702.269	3186.13
702.457	3139.02
702.646	3098.06
702.834	3147.22
703.023	3126.74
703.212	3290.57
703.4	3231.18
703.589	3143.12
703.777	3222.99
703.965	3192.27
704.154	3186.13
704.342	3087.82
704.531	3096.02
704.719	3136.98
704.907	3239.37
705.096	3190.22
705.284	3186.13
705.472	3102.16
705.661	3112.4
705.849	3194.32
706.037	3093.97
706.226	3050.96
706.414	3108.3
706.602	3010
706.79	3145.17
706.979	3177.94
707.167	3077.59
707.355	3159.5
707.543	3130.83
707.731	3163.6
707.919	3188.18
708.107	3132.88
708.296	3116.5
708.484	3038.67
708.672	3036.63
708.86	3010
709.048	3059.15
709.236	3190.22
709.424	3167.7
709.612	3220.94
709.8	3202.51
709.988	3036.63
710.176	3050.96
710.364	3145.17
710.551	3007.95
710.739	3061.2
710.927	3241.42
711.115	3096.02
711.303	3050.96
711.491	3022.29
711.679	3003.86
711.866	3179.98
712.054	3116.5
712.242	3046.87
712.43	3313.1
712.617	3192.27
712.805	3155.41
712.993	3266
713.181	3126.74
713.368	2917.84
713.556	3134.93
713.744	3073.49
713.931	3106.26
714.119	2962.9
714.306	3108.3
714.494	3055.06
714.682	3153.36
714.869	3188.18
715.057	3110.35
715.244	3061.2
715.432	3206.61
715.619	3108.3
715.807	3030.48
715.994	3102.16
716.182	3100.11
716.369	3055.06
716.556	3083.73
716.744	3124.69
716.931	3040.72
717.119	3112.4
717.306	3038.67
717.493	3061.2
717.681	3026.39
717.868	3040.72
718.055	3171.79
718.242	3053.01
718.43	3067.35
718.617	3059.15
718.804	2981.33
718.991	3163.6
719.179	3130.83
719.366	2995.67
719.553	3040.72
719.74	3044.82
719.927	3143.12
720.114	2997.71
720.301	3073.49
720.488	2934.23
720.676	3067.35
720.863	3102.16
721.05	2962.9
721.237	3007.95
721.424	3100.11
721.611	3034.58
721.798	3081.68
721.985	3132.88
722.172	2874.84
722.358	3071.44
722.545	2983.38
722.732	3077.59
722.919	2932.18
723.106	3036.63
723.293	3020.24
723.48	3128.78
723.667	3100.11
723.853	2956.75
724.04	3057.11
724.227	3048.91
724.414	2999.76
724.6	3057.11
724.787	2944.47
724.974	3024.34
725.161	2977.23
725.347	2899.41
725.534	3104.21
725.72	3022.29
725.907	2950.61
726.094	3083.73
726.28	3102.16
726.467	3085.78
726.653	2923.99
726.84	3036.63
727.027	2997.71
727.213	2915.8
727.4	3005.91
727.586	2985.43
727.773	2973.14
727.959	2989.52
728.145	3042.77
728.332	3046.87
728.518	3014.1
728.705	2926.04
728.891	2948.56
729.077	2971.09
729.264	2905.56
729.45	2940.37
729.636	3007.95
729.823	2883.03
730.009	2995.67
730.195	2942.42
730.382	3083.73
730.568	2928.08
730.754	2989.52
730.94	2932.18
731.126	3096.02
731.313	2956.75
731.499	3016.15
731.685	2883.03
731.871	2936.28
732.057	3016.15
732.243	2981.33
732.429	2977.23
732.615	2743.77
732.801	2962.9
732.987	2809.3
733.173	2973.14
733.359	2878.93
733.545	2969.04
733.731	2989.52
733.917	2962.9
734.103	3044.82
734.289	2936.28
734.475	3018.19
734.661	3016.15
734.847	2854.36
735.033	2942.42
735.219	2901.46
735.404	2938.32
735.59	2870.74
735.776	2864.6
735.962	2923.99
736.148	3001.81
736.333	2887.12
736.519	2936.28
736.705	2862.55
736.89	2944.47
737.076	2797.01
737.262	2833.88
737.447	2885.08
737.633	2831.83
737.819	2946.52
738.004	2807.25
738.19	2809.3
738.375	2711
738.561	2766.29
738.747	2774.49
738.932	2870.74
739.118	2743.77
739.303	2792.92
739.489	2799.06
739.674	2698.71
739.859	2758.1
740.045	2815.45
740.23	2772.44
740.416	2811.35
740.601	2708.95
740.786	2649.56
740.972	2588.12
741.157	2721.24
741.342	2588.12
741.528	2723.29
741.713	2655.7
741.898	2682.33
742.084	2604.5
742.269	2598.36
742.454	2555.35
742.639	2534.87
742.824	2536.92
743.01	2590.17
743.195	2569.69
743.38	2674.14
743.565	2577.88
743.75	2629.08
743.935	2475.48
744.12	2698.71
744.305	2483.67
744.49	2479.58
744.675	2651.61
744.86	2586.07
745.045	2440.67
745.23	2469.34
745.415	2405.85
745.6	2549.21
745.785	2463.19
745.97	2569.69
746.155	2487.77
746.34	2373.08
746.525	2428.38
746.71	2432.47
746.895	2387.42
747.079	2264.54
747.264	2332.12
747.449	2297.31
747.634	2311.64
747.819	2389.47
748.003	2348.51
748.188	2278.88
748.373	2235.87
748.557	2229.73
748.742	2215.39
748.927	2182.62
749.111	2235.87
749.296	2156
749.481	2205.15
749.665	2121.18
749.85	2235.87
750.034	2151.9
750.219	2110.94
750.404	1959.39
750.588	2100.7
750.773	1971.68
750.957	2039.26
751.141	2031.07
751.326	2135.52
751.51	2006.5
751.695	2006.5
751.879	1881.57
752.064	2047.46
752.248	1965.54
752.432	1910.24
752.617	1998.31
752.801	1988.07
752.985	1938.91
753.17	1908.19
753.354	1838.56
753.538	1889.76
753.722	1775.08
753.907	1801.7
754.091	1842.66
754.275	1873.38
754.459	1803.75
754.643	1824.23
754.828	1793.51
755.012	1797.6
755.196	1689.06
755.38	1734.12
755.564	1682.92
755.748	1715.69
755.932	1756.65
756.116	1719.78
756.3	1672.68
756.484	1654.25
756.668	1697.25
756.852	1619.43
757.036	1609.19
757.22	1611.24
757.404	1566.18
757.588	1627.62
757.772	1588.71
757.956	1564.14
758.14	1541.61
758.323	1437.16
758.507	1576.42
758.691	1555.94
758.875	1601
759.059	1476.07
759.242	1476.07
759.426	1480.17
759.61	1410.54
759.794	1390.06
759.977	1478.12
760.161	1519.08
760.345	1510.89
760.528	1422.83
760.712	1426.92
760.895	1482.22
761.079	1373.68
761.263	1293.8
761.446	1404.39
761.63	1428.97
761.813	1336.81
761.997	1420.78
762.18	1283.56
762.364	1347.05
762.547	1302
762.731	1330.67
762.914	1365.48
763.098	1453.55
763.281	1363.44
763.464	1338.86
763.648	1342.96
763.831	1289.71
764.015	1287.66
764.198	1334.76
764.381	1258.99
764.564	1269.23
764.748	1330.67
764.931	1238.51
765.114	1215.98
765.297	1289.71
765.481	1144.3
765.664	1254.89
765.847	1168.88
766.03	1150.45
766.213	1195.5
766.397	1150.45
766.58	1207.79
766.763	1252.84
766.946	1107.44
767.129	1187.31
767.312	1144.3
767.495	1158.64
767.678	1148.4
767.861	1289.71
768.044	1228.27
768.227	1177.07
768.41	1144.3
768.593	1177.07
768.776	1150.45
768.959	1093.1
769.142	1080.82
769.324	1156.59
769.507	1103.34
769.69	1056.24
769.873	1109.49
770.056	1066.48
770.239	1189.36
770.421	1068.53
770.604	1166.83
770.787	1080.82
770.97	1117.68
771.152	996.85
771.335	1011.18
771.518	1107.44
771.7	1046
771.883	1050.1
772.066	1005.04
772.248	1103.34
772.431	1140.21
772.613	986.61
772.796	968.18
772.978	1052.14
773.161	1050.1
773.343	986.61
773.526	937.46
773.708	888.31
773.891	1025.52
774.073	1002.99
774.256	978.42
774.438	1009.14
774.621	966.13
774.803	1050.1
774.985	869.87
775.168	1015.28
775.35	945.65
775.532	992.75
775.715	849.4
775.897	945.65
776.079	876.02
776.261	843.25
776.444	833.01
776.626	814.58
776.808	880.11
776.99	839.16
777.173	880.11
777.355	890.35
777.537	873.97
777.719	816.63
777.901	855.54
778.083	853.49
778.265	749.04
778.447	857.59
778.629	693.75
778.811	785.91
778.993	822.77
779.175	826.87
779.357	847.35
779.539	697.85
779.721	718.33
779.903	796.15
780.085	775.67
780.267	781.81
780.449	708.09
780.631	738.8
780.812	667.13
780.994	701.94
781.176	722.42
781.358	771.57
781.54	681.46
781.721	734.71
781.903	650.74
782.085	599.54
782.267	685.56
782.448	591.35
782.63	656.89
782.812	677.37
782.993	673.27
783.175	660.98
783.357	681.46
783.538	675.32
783.72	589.3
783.901	628.21
784.083	579.06
784.264	568.82
784.446	550.39
784.627	577.02
784.809	568.82
784.99	556.54
785.172	519.67
785.353	527.86
785.535	568.82
785.716	527.86
785.897	523.77
786.079	523.77
786.26	562.68
786.441	607.73
786.623	546.3
786.804	566.78
786.985	585.21
787.167	450.04
787.348	505.34
787.529	538.1
787.71	501.24
787.891	548.34
788.073	499.19
788.254	486.9
788.435	572.92
788.616	544.25
788.797	484.86
788.978	495.1
789.159	525.82
789.34	513.53
789.522	548.34
789.703	427.51
789.884	505.34
790.065	480.76
790.246	548.34
790.427	439.8
790.607	431.61
790.788	460.28
790.969	413.18
791.15	447.99
791.331	374.27
791.512	458.23
791.693	425.47
791.874	450.04
792.054	464.38
792.235	447.99
792.416	282.11
792.597	460.28
792.778	443.9
792.958	415.23
793.139	314.88
793.32	478.71
793.5	458.23
793.681	460.28
793.862	404.99
794.042	388.6
794.223	378.36
794.404	343.55
794.584	333.31
794.765	417.27
794.945	308.73
795.126	308.73
795.306	372.22
795.487	357.88
795.667	335.35
795.848	292.35
796.028	368.12
796.209	374.27
796.389	404.99
796.57	308.73
796.75	402.94
796.93	386.55
797.111	269.82
797.291	286.2
797.471	343.55
797.652	386.55
797.832	308.73
798.012	441.85
798.192	361.98
798.373	271.87
798.553	390.65
798.733	368.12
798.913	273.92
799.093	304.64
799.274	237.05
799.454	349.69
799.634	368.12
799.814	316.92
799.994	304.64
800.174	257.53
800.354	325.12
800.534	247.29
800.714	331.26
800.894	273.92
801.074	280.06
801.254	321.02
801.434	247.29
801.614	271.87
801.794	306.68
801.974	714.23
802.154	267.77
802.334	253.44
802.514	318.97
802.693	298.49
802.873	232.96
803.053	228.86
803.233	253.44
803.413	310.78
803.592	251.39
803.772	314.88
803.952	300.54
804.131	273.92
804.311	273.92
804.491	247.29
804.67	257.53
804.85	296.44
805.03	261.63
805.209	243.2
805.389	249.34
805.568	247.29
805.748	161.28
805.928	249.34
806.107	284.16
806.287	257.53
806.466	202.24
806.646	275.96
806.825	204.28
807.004	230.91
807.184	189.95
807.363	232.96
807.543	253.44
807.722	194.05
807.901	267.77
808.081	259.58
808.26	214.52
808.439	267.77
808.619	280.06
808.798	288.25
808.977	189.95
809.156	265.72
809.336	257.53
809.515	247.29
809.694	187.9
809.873	212.48
810.052	296.44
810.231	255.48
810.411	212.48
810.59	275.96
810.769	228.86
810.948	183.81
811.127	210.43
811.306	198.14
811.485	175.61
811.664	183.81
811.843	167.42
812.022	179.71
812.201	196.09
812.38	196.09
812.559	181.76
812.737	232.96
812.916	194.05
813.095	187.9
813.274	222.72
813.453	220.67
813.632	116.22
813.811	202.24
813.989	181.76
814.168	198.14
814.347	206.33
814.526	181.76
814.704	212.48
814.883	261.63
815.062	247.29
815.24	189.95
815.419	155.13
815.598	261.63
815.776	99.84
815.955	171.52
816.133	126.46
816.312	202.24
816.49	173.57
816.669	212.48
816.847	224.76
817.026	204.28
817.204	105.98
817.383	192
817.561	196.09
817.74	228.86
817.918	171.52
818.097	138.75
818.275	177.66
818.453	130.56
818.632	132.61
818.81	132.61
818.988	118.27
819.167	206.33
819.345	116.22
819.523	155.13
819.701	230.91
819.879	237.05
820.058	183.81
820.236	87.55
820.414	112.13
820.592	171.52
820.77	75.26
820.948	204.28
821.127	153.09
821.305	179.71
821.483	132.61
821.661	232.96
821.839	138.75
822.017	120.32
822.195	134.65
822.373	146.94
822.551	157.18
822.729	77.31
822.907	124.41
823.085	138.75
823.262	83.45
823.44	69.12
823.618	134.65
823.796	85.5
823.974	148.99
824.152	151.04
824.329	142.85
824.507	204.28
824.685	155.13
824.863	161.28
825.04	159.23
825.218	118.27
825.396	169.47
825.574	50.69
825.751	179.71
825.929	165.37
826.107	73.21
826.284	167.42
826.462	91.65
826.639	60.93
826.817	169.47
826.994	95.74
827.172	99.84
827.349	159.23
827.527	99.84
827.704	81.41
827.882	134.65
828.059	159.23
828.237	159.23
828.414	128.51
828.591	93.69
828.769	118.27
828.946	28.16
829.124	87.55
829.301	159.23
829.478	101.89
829.655	112.13
829.833	71.17
830.01	36.35
830.187	161.28
830.364	140.8
830.542	77.31
830.719	126.46
830.896	93.69
831.073	52.74
831.25	155.13
831.427	130.56
831.604	50.69
831.782	161.28
831.959	165.37
832.136	85.5
832.313	126.46
832.49	-12.8
832.667	65.02
832.844	95.74
833.021	126.46
833.198	73.21
833.374	142.85
833.551	128.51
833.728	87.55
833.905	38.4
834.082	62.98
834.259	114.17
834.436	175.61
834.612	103.93
834.789	132.61
834.966	34.3
835.143	54.78
835.319	-0.51
835.496	124.41
835.673	85.5
835.85	151.04
836.026	179.71
836.203	118.27
836.38	136.7
836.556	81.41
836.733	50.69
836.909	75.26
837.086	46.59
837.262	42.5
837.439	105.98
837.616	134.65
837.792	89.6
837.968	54.78
838.145	75.26
838.321	75.26
838.498	126.46
838.674	116.22
838.851	151.04
839.027	42.5
839.203	69.12
839.38	114.17
839.556	130.56
839.732	85.5
839.909	52.74
840.085	54.78
840.261	81.41
840.437	134.65
840.614	75.26
840.79	110.08
840.966	-0.51
841.142	118.27
841.318	-14.85
841.494	95.74
841.671	103.93
841.847	50.69
842.023	30.21
842.199	69.12
842.375	42.5
842.551	56.83
842.727	50.69
842.903	126.46
843.079	-47.62
843.255	105.98
843.431	56.83
843.607	75.26
843.783	48.64
843.959	93.69
844.134	40.45
844.31	140.8
844.486	32.26
844.662	58.88
844.838	1.54
845.013	118.27
845.189	110.08
845.365	71.17
845.541	50.69
845.716	97.79
845.892	138.75
846.068	34.3
846.244	97.79
846.419	52.74
846.595	108.03
846.77	22.02
846.946	48.64
847.122	112.13
847.297	54.78
847.473	87.55
847.648	65.02
847.824	79.36
847.999	118.27
848.175	38.4
848.35	32.26
848.526	40.45
848.701	67.07
848.876	69.12
849.052	126.46
849.227	48.64
849.403	89.6
849.578	132.61
849.753	19.97
849.929	34.3
850.104	42.5
850.279	85.5
850.454	54.78
850.63	5.63
850.805	15.87
850.98	77.31
851.155	85.5
851.33	11.78
851.505	50.69
851.681	97.79
851.856	62.98
852.031	7.68
852.206	114.17
852.381	42.5
852.556	19.97
852.731	114.17
852.906	13.82
853.081	114.17
853.256	36.35
853.431	65.02
853.606	-14.85
853.781	-16.9
853.956	38.4
854.131	7.68
854.305	42.5
854.48	73.21
854.655	19.97
854.83	73.21
855.005	54.78
855.18	17.92
855.354	7.68
855.529	69.12
855.704	136.7
855.879	69.12
856.053	-61.95
856.228	28.16
856.403	42.5
856.577	40.45
856.752	52.74
856.926	79.36
857.101	71.17
857.276	50.69
857.45	99.84
857.625	11.78
857.799	79.36
857.974	11.78
858.148	-16.9
858.323	48.64
858.497	44.54
858.672	-31.23
858.846	24.06
859.02	108.03
859.195	40.45
859.369	50.69
859.543	99.84
859.718	-35.33
859.892	26.11
860.066	28.16
860.241	34.3
860.415	5.63
860.589	69.12
860.763	36.35
860.938	-20.99
861.112	105.98
861.286	93.69
861.46	42.5
861.634	28.16
861.808	-10.75
861.982	110.08
862.157	34.3
862.331	28.16
862.505	-23.04
862.679	-8.7
862.853	-20.99
863.027	54.78
863.201	32.26
863.375	5.63
863.549	26.11
863.722	44.54
863.896	132.61
864.07	13.82
864.244	65.02
864.418	60.93
864.592	5.63
864.766	67.07
864.939	48.64
865.113	-10.75
865.287	89.6
865.461	-53.76
865.634	40.45
865.808	5.63
865.982	26.11
866.156	26.11
866.329	-0.51
866.503	3.58
866.676	81.41
866.85	38.4
867.024	7.68
867.197	11.78
867.371	28.16
867.544	54.78
867.718	-49.66
867.891	11.78
868.065	-2.56
868.238	65.02
868.412	48.64
868.585	-16.9
868.759	32.26
868.932	13.82
869.105	73.21
869.279	67.07
869.452	26.11
869.625	-10.75
869.799	-20.99
869.972	7.68
870.145	65.02
870.319	34.3
870.492	65.02
870.665	58.88
870.838	24.06
871.011	42.5
871.185	32.26
871.358	-20.99
871.531	46.59
871.704	34.3
871.877	73.21
872.05	38.4
872.223	-49.66
872.396	112.13
872.569	15.87
872.742	-14.85
872.915	-41.47
873.088	-10.75
873.261	11.78
873.434	56.83
873.607	28.16
873.78	54.78
873.953	69.12
874.126	34.3
874.299	46.59
874.471	38.4
874.644	38.4
874.817	1.54
874.99	75.26
875.163	7.68
875.335	83.45
875.508	118.27
875.681	17.92
875.853	19.97
876.026	65.02
876.199	-2.56
876.371	11.78
876.544	50.69
876.717	89.6
876.889	62.98
877.062	67.07
877.234	30.21
877.407	-70.14
877.579	22.02
877.752	48.64
877.924	1.54
878.097	65.02
878.269	26.11
878.442	95.74
878.614	17.92
878.786	36.35
878.959	-49.66
879.131	95.74
879.303	-53.76
879.476	77.31
879.648	5.63
879.82	28.16
879.993	9.73
880.165	-2.56
880.337	42.5
880.509	30.21
880.681	-43.52
880.854	7.68
881.026	48.64
881.198	-2.56
881.37	-20.99
881.542	-31.23
881.714	-2.56
881.886	-35.33
882.058	65.02
882.23	30.21
882.402	28.16
882.574	40.45
882.746	-16.9
882.918	19.97
883.09	71.17
883.262	52.74
883.434	52.74
883.606	-31.23
883.778	56.83
883.95	58.88
884.122	42.5
884.293	34.3
884.465	-14.85
884.637	40.45
884.809	52.74
884.98	9.73
885.152	24.06
885.324	-35.33
885.496	-51.71
885.667	60.93
885.839	69.12
886.011	83.45
886.182	-66.05
886.354	-27.14
886.525	-43.52
886.697	13.82
886.869	-8.7
887.04	11.78
887.212	42.5
887.383	58.88
887.555	15.87
887.726	-14.85
887.897	-4.61
888.069	1.54
888.24	24.06
888.412	36.35
888.583	65.02
888.754	19.97
888.926	-41.47
889.097	-10.75
889.268	71.17
889.44	67.07
889.611	-72.19
889.782	11.78
889.953	26.11
890.125	32.26
890.296	-27.14
890.467	-0.51
890.638	-29.18
890.809	73.21
890.98	-12.8
891.151	62.98
891.323	40.45
891.494	99.84
891.665	58.88
891.836	-10.75
892.007	9.73
892.178	22.02
892.349	-37.38
892.52	7.68
892.691	-0.51
892.862	-78.33
893.032	-33.28
893.203	-12.8
893.374	-47.62
893.545	54.78
893.716	-31.23
893.887	9.73
894.057	22.02
894.228	-12.8
894.399	-39.42
894.57	24.06
894.74	60.93
894.911	26.11
895.082	22.02
895.253	36.35
895.423	-45.57
895.594	13.82
895.764	-0.51
895.935	-47.62
896.106	-4.61
896.276	-25.09
896.447	-0.51
896.617	48.64
896.788	71.17
896.958	69.12
897.129	38.4
897.299	40.45
897.47	79.36
897.64	-12.8
897.81	19.97
897.981	-31.23
898.151	-14.85
898.322	9.73
898.492	-6.66
898.662	-47.62
898.832	24.06
899.003	1.54
899.173	42.5
899.343	5.63
899.513	-29.18
