Data from USB4F104151__19__11-51-18-530.txt Node

Date: Fri Mar 14 11:51:18 EDT 2025
User: louis
Spectrometer: USB4F10415
Trigger mode: 4
Integration Time (sec): 2.000000E-2
Scans to average: 1
Electric dark correction enabled: true
Nonlinearity correction enabled: false
Boxcar width: 0
XAxis mode: Wavelengths
Number of Pixels in Spectrum: 3648
>>>>>Begin Spectral Data<<<<<
178.204	-87.72
178.424	-87.72
178.644	-87.72
178.864	-120.49
179.084	-57
179.304	-11.95
179.524	-9.9
179.744	-16.04
179.964	-22.19
180.184	26.96
180.404	-28.33
180.624	-9.9
180.844	49.49
181.064	-20.14
181.283	33.11
181.503	-26.28
181.723	35.16
181.943	8.53
182.163	51.54
182.383	-67.24
182.602	-3.75
182.822	4.44
183.042	45.4
183.262	41.3
183.482	-13.99
183.701	-28.33
183.921	18.77
184.141	-52.91
184.361	12.63
184.58	-5.8
184.8	-81.58
185.02	18.77
185.239	80.21
185.459	12.63
185.679	76.12
185.898	-13.99
186.118	2.39
186.338	61.78
186.557	51.54
186.777	18.77
186.997	-11.95
187.216	20.82
187.436	67.92
187.655	8.53
187.875	63.83
188.095	31.06
188.314	22.87
188.534	-22.19
188.753	53.59
188.973	65.88
189.192	14.68
189.412	41.3
189.631	100.69
189.851	-46.76
190.07	117.08
190.29	-22.19
190.509	16.73
190.729	-11.95
190.948	61.78
191.168	141.65
191.387	37.2
191.607	-38.57
191.826	65.88
192.045	33.11
192.265	104.79
192.484	47.44
192.704	33.11
192.923	-5.8
193.142	24.92
193.362	92.5
193.581	90.45
193.8	45.4
194.02	78.16
194.239	41.3
194.458	74.07
194.678	43.35
194.897	72.02
195.116	-20.14
195.335	65.88
195.555	-61.1
195.774	-9.9
195.993	92.5
196.212	-13.99
196.432	-50.86
196.651	24.92
196.87	47.44
197.089	51.54
197.308	22.87
197.528	22.87
197.747	-52.91
197.966	115.03
198.185	6.49
198.404	43.35
198.623	22.87
198.842	45.4
199.062	29.01
199.281	18.77
199.5	24.92
199.719	72.02
199.938	37.2
200.157	41.3
200.376	-42.67
200.595	59.73
200.814	0.34
201.033	22.87
201.252	76.12
201.471	10.58
201.69	82.26
201.909	31.06
202.128	49.49
202.347	33.11
202.566	78.16
202.785	-11.95
203.004	0.34
203.223	80.21
203.442	43.35
203.661	47.44
203.879	31.06
204.098	100.69
204.317	-13.99
204.536	22.87
204.755	26.96
204.974	59.73
205.193	-9.9
205.411	57.68
205.63	-3.75
205.849	139.6
206.068	47.44
206.287	29.01
206.505	31.06
206.724	45.4
206.943	-20.14
207.162	-34.47
207.381	14.68
207.599	6.49
207.818	4.44
208.037	41.3
208.255	24.92
208.474	33.11
208.693	31.06
208.911	29.01
209.13	80.21
209.349	67.92
209.567	12.63
209.786	78.16
210.005	-59.05
210.223	6.49
210.442	-18.09
210.661	-38.57
210.879	18.77
211.098	-40.62
211.316	-30.38
211.535	69.97
211.753	22.87
211.972	31.06
212.191	47.44
212.409	67.92
212.628	41.3
212.846	35.16
213.065	-16.04
213.283	51.54
213.502	35.16
213.72	43.35
213.938	10.58
214.157	12.63
214.375	121.17
214.594	12.63
214.812	37.2
215.031	10.58
215.249	-75.43
215.467	45.4
215.686	6.49
215.904	63.83
216.122	74.07
216.341	10.58
216.559	-13.99
216.778	53.59
216.996	2.39
217.214	-26.28
217.432	29.01
217.651	47.44
217.869	41.3
218.087	-38.57
218.306	-20.14
218.524	-1.71
218.742	55.64
218.96	67.92
219.179	51.54
219.397	31.06
219.615	84.31
219.833	-20.14
220.051	4.44
220.27	37.2
220.488	39.25
220.706	-5.8
220.924	22.87
221.142	63.83
221.36	102.74
221.578	-16.04
221.796	12.63
222.015	43.35
222.233	47.44
222.451	2.39
222.669	-30.38
222.887	74.07
223.105	-13.99
223.323	-11.95
223.541	-1.71
223.759	18.77
223.977	4.44
224.195	12.63
224.413	41.3
224.631	49.49
224.849	74.07
225.067	88.4
225.285	12.63
225.503	51.54
225.721	-34.47
225.939	-3.75
226.157	39.25
226.375	92.5
226.592	22.87
226.81	-9.9
227.028	-20.14
227.246	65.88
227.464	2.39
227.682	-1.71
227.9	43.35
228.117	49.49
228.335	49.49
228.553	8.53
228.771	41.3
228.989	47.44
229.206	-22.19
229.424	-28.33
229.642	-11.95
229.86	2.39
230.077	-3.75
230.295	26.96
230.513	86.36
230.731	-24.23
230.948	39.25
231.166	108.88
231.384	-65.19
231.601	96.6
231.819	14.68
232.037	26.96
232.254	-13.99
232.472	22.87
232.689	-32.43
232.907	65.88
233.125	-9.9
233.342	16.73
233.56	-38.57
233.777	10.58
233.995	65.88
234.213	108.88
234.43	22.87
234.648	74.07
234.865	82.26
235.083	76.12
235.3	4.44
235.518	51.54
235.735	20.82
235.953	43.35
236.17	51.54
236.388	39.25
236.605	90.45
236.822	14.68
237.04	39.25
237.257	43.35
237.475	55.64
237.692	78.16
237.909	41.3
238.127	41.3
238.344	55.64
238.562	10.58
238.779	8.53
238.996	33.11
239.214	37.2
239.431	43.35
239.648	22.87
239.865	29.01
240.083	49.49
240.3	63.83
240.517	-22.19
240.735	74.07
240.952	86.36
241.169	31.06
241.386	2.39
241.603	18.77
241.821	-16.04
242.038	115.03
242.255	49.49
242.472	-28.33
242.689	4.44
242.907	115.03
243.124	26.96
243.341	49.49
243.558	8.53
243.775	37.2
243.992	-61.1
244.209	-44.71
244.426	4.44
244.643	47.44
244.86	22.87
245.078	-42.67
245.295	47.44
245.512	-7.85
245.729	-1.71
245.946	2.39
246.163	0.34
246.38	41.3
246.597	67.92
246.814	47.44
247.031	-30.38
247.248	45.4
247.464	12.63
247.681	14.68
247.898	84.31
248.115	16.73
248.332	16.73
248.549	76.12
248.766	94.55
248.983	-5.8
249.2	35.16
249.417	14.68
249.633	4.44
249.85	100.69
250.067	-9.9
250.284	63.83
250.501	59.73
250.717	106.84
250.934	16.73
251.151	8.53
251.368	22.87
251.585	78.16
251.801	43.35
252.018	12.63
252.235	43.35
252.451	31.06
252.668	-54.95
252.885	45.4
253.102	-1.71
253.318	24.92
253.535	-24.23
253.752	69.97
253.968	-32.43
254.185	-5.8
254.401	-42.67
254.618	-71.34
254.835	-16.04
255.051	33.11
255.268	22.87
255.484	57.68
255.701	74.07
255.917	-7.85
256.134	6.49
256.351	26.96
256.567	6.49
256.784	127.32
257	-106.15
257.217	49.49
257.433	24.92
257.65	74.07
257.866	82.26
258.082	-20.14
258.299	-13.99
258.515	-5.8
258.732	76.12
258.948	31.06
259.165	-1.71
259.381	-16.04
259.597	2.39
259.814	-3.75
260.03	55.64
260.246	39.25
260.463	57.68
260.679	41.3
260.895	-1.71
261.112	18.77
261.328	-32.43
261.544	16.73
261.761	86.36
261.977	-75.43
262.193	-7.85
262.409	115.03
262.626	8.53
262.842	-7.85
263.058	43.35
263.274	45.4
263.49	18.77
263.707	59.73
263.923	51.54
264.139	45.4
264.355	53.59
264.571	43.35
264.787	35.16
265.004	29.01
265.22	-18.09
265.436	31.06
265.652	29.01
265.868	0.34
266.084	0.34
266.3	-7.85
266.516	-5.8
266.732	-22.19
266.948	14.68
267.164	67.92
267.38	14.68
267.596	67.92
267.812	88.4
268.028	14.68
268.244	2.39
268.46	55.64
268.676	67.92
268.892	49.49
269.108	-9.9
269.324	33.11
269.54	2.39
269.756	24.92
269.972	-50.86
270.188	49.49
270.403	4.44
270.619	88.4
270.835	102.74
271.051	43.35
271.267	6.49
271.483	-16.04
271.698	-32.43
271.914	8.53
272.13	-32.43
272.346	65.88
272.562	-1.71
272.777	43.35
272.993	78.16
273.209	6.49
273.425	57.68
273.64	51.54
273.856	-11.95
274.072	74.07
274.287	26.96
274.503	16.73
274.719	-3.75
274.934	6.49
275.15	-20.14
275.366	37.2
275.581	-1.71
275.797	22.87
276.012	43.35
276.228	88.4
276.444	14.68
276.659	72.02
276.875	26.96
277.09	8.53
277.306	-44.71
277.521	43.35
277.737	20.82
277.952	57.68
278.168	16.73
278.383	-28.33
278.599	35.16
278.814	2.39
279.03	102.74
279.245	47.44
279.461	98.64
279.676	8.53
279.892	84.31
280.107	-44.71
280.322	10.58
280.538	53.59
280.753	8.53
280.969	8.53
281.184	55.64
281.399	41.3
281.615	22.87
281.83	-28.33
282.045	61.78
282.26	82.26
282.476	-18.09
282.691	106.84
282.906	-16.04
283.122	102.74
283.337	14.68
283.552	72.02
283.767	16.73
283.983	63.83
284.198	22.87
284.413	100.69
284.628	12.63
284.843	61.78
285.058	4.44
285.274	24.92
285.489	-48.81
285.704	86.36
285.919	22.87
286.134	-13.99
286.349	53.59
286.564	16.73
286.779	51.54
286.995	12.63
287.21	14.68
287.425	22.87
287.64	49.49
287.855	76.12
288.07	49.49
288.285	14.68
288.5	2.39
288.715	76.12
288.93	26.96
289.145	41.3
289.36	80.21
289.575	29.01
289.79	90.45
290.004	67.92
290.219	31.06
290.434	-24.23
290.649	-11.95
290.864	74.07
291.079	-34.47
291.294	86.36
291.509	31.06
291.724	78.16
291.938	47.44
292.153	4.44
292.368	72.02
292.583	0.34
292.798	-1.71
293.012	76.12
293.227	43.35
293.442	55.64
293.657	108.88
293.871	22.87
294.086	35.16
294.301	53.59
294.516	12.63
294.73	119.12
294.945	4.44
295.16	59.73
295.374	74.07
295.589	4.44
295.804	2.39
296.018	12.63
296.233	112.98
296.447	12.63
296.662	84.31
296.877	26.96
297.091	37.2
297.306	61.78
297.52	-28.33
297.735	14.68
297.949	51.54
298.164	119.12
298.378	72.02
298.593	6.49
298.807	14.68
299.022	-3.75
299.236	57.68
299.451	2.39
299.665	57.68
299.88	-22.19
300.094	55.64
300.309	-3.75
300.523	6.49
300.737	61.78
300.952	6.49
301.166	12.63
301.381	-20.14
301.595	18.77
301.809	55.64
302.024	24.92
302.238	12.63
302.452	86.36
302.667	-9.9
302.881	80.21
303.095	41.3
303.309	16.73
303.524	6.49
303.738	74.07
303.952	-7.85
304.166	2.39
304.381	-30.38
304.595	31.06
304.809	-7.85
305.023	65.88
305.237	57.68
305.452	18.77
305.666	-32.43
305.88	16.73
306.094	45.4
306.308	41.3
306.522	22.87
306.736	29.01
306.95	-9.9
307.164	6.49
307.379	67.92
307.593	26.96
307.807	108.88
308.021	-1.71
308.235	41.3
308.449	43.35
308.663	-11.95
308.877	76.12
309.091	-9.9
309.305	53.59
309.519	-36.52
309.733	31.06
309.947	4.44
310.161	59.73
310.374	43.35
310.588	-20.14
310.802	2.39
311.016	-48.81
311.23	53.59
311.444	-32.43
311.658	61.78
311.872	45.4
312.085	43.35
312.299	45.4
312.513	-26.28
312.727	74.07
312.941	8.53
313.154	47.44
313.368	45.4
313.582	47.44
313.796	102.74
314.009	-9.9
314.223	45.4
314.437	31.06
314.651	20.82
314.864	69.97
315.078	22.87
315.292	74.07
315.505	-26.28
315.719	65.88
315.933	45.4
316.146	86.36
316.36	37.2
316.573	37.2
316.787	29.01
317.001	18.77
317.214	-7.85
317.428	14.68
317.641	8.53
317.855	-26.28
318.068	80.21
318.282	-3.75
318.495	94.55
318.709	31.06
318.922	6.49
319.136	43.35
319.349	65.88
319.563	88.4
319.776	61.78
319.99	31.06
320.203	16.73
320.417	20.82
320.63	39.25
320.843	41.3
321.057	43.35
321.27	63.83
321.483	10.58
321.697	98.64
321.91	-46.76
322.124	-22.19
322.337	41.3
322.55	63.83
322.763	55.64
322.977	39.25
323.19	43.35
323.403	43.35
323.617	20.82
323.83	94.55
324.043	14.68
324.256	-9.9
324.469	57.68
324.683	110.93
324.896	98.64
325.109	43.35
325.322	14.68
325.535	49.49
325.748	35.16
325.962	57.68
326.175	18.77
326.388	59.73
326.601	43.35
326.814	-32.43
327.027	10.58
327.24	53.59
327.453	-7.85
327.666	12.63
327.879	119.12
328.092	-26.28
328.305	74.07
328.518	16.73
328.731	24.92
328.944	92.5
329.157	18.77
329.37	35.16
329.583	69.97
329.796	26.96
330.009	2.39
330.222	-24.23
330.435	24.92
330.648	33.11
330.861	67.92
331.073	-36.52
331.286	88.4
331.499	16.73
331.712	-13.99
331.925	59.73
332.138	-89.77
332.35	61.78
332.563	-34.47
332.776	49.49
332.989	-40.62
333.202	-9.9
333.414	2.39
333.627	98.64
333.84	-16.04
334.053	94.55
334.265	-7.85
334.478	67.92
334.691	90.45
334.903	-1.71
335.116	-13.99
335.329	2.39
335.541	88.4
335.754	65.88
335.966	61.78
336.179	-13.99
336.392	47.44
336.604	51.54
336.817	45.4
337.029	47.44
337.242	-9.9
337.454	67.92
337.667	86.36
337.88	8.53
338.092	-3.75
338.305	53.59
338.517	-20.14
338.729	29.01
338.942	92.5
339.154	-20.14
339.367	63.83
339.579	-61.1
339.792	-7.85
340.004	-20.14
340.217	61.78
340.429	82.26
340.641	0.34
340.854	20.82
341.066	94.55
341.278	65.88
341.491	63.83
341.703	61.78
341.915	-38.57
342.128	31.06
342.34	49.49
342.552	-3.75
342.764	43.35
342.977	-22.19
343.189	4.44
343.401	-20.14
343.613	31.06
343.826	31.06
344.038	74.07
344.25	20.82
344.462	61.78
344.674	39.25
344.886	47.44
345.099	-26.28
345.311	61.78
345.523	57.68
345.735	22.87
345.947	33.11
346.159	55.64
346.371	-30.38
346.583	20.82
346.795	72.02
347.007	49.49
347.219	82.26
347.431	0.34
347.643	158.03
347.855	-20.14
348.067	-24.23
348.279	80.21
348.491	63.83
348.703	24.92
348.915	55.64
349.127	51.54
349.339	26.96
349.551	104.79
349.763	88.4
349.975	33.11
350.187	22.87
350.399	57.68
350.61	-3.75
350.822	37.2
351.034	39.25
351.246	104.79
351.458	74.07
351.669	65.88
351.881	31.06
352.093	82.26
352.305	43.35
352.517	74.07
352.728	131.41
352.94	31.06
353.152	139.6
353.363	53.59
353.575	100.69
353.787	51.54
353.999	29.01
354.21	80.21
354.422	35.16
354.633	131.41
354.845	18.77
355.057	45.4
355.268	-11.95
355.48	131.41
355.692	20.82
355.903	16.73
356.115	63.83
356.326	49.49
356.538	108.88
356.749	45.4
356.961	65.88
357.172	-18.09
357.384	59.73
357.595	155.99
357.807	39.25
358.018	-24.23
358.23	26.96
358.441	2.39
358.653	65.88
358.864	-20.14
359.075	31.06
359.287	67.92
359.498	74.07
359.709	94.55
359.921	37.2
360.132	33.11
360.344	-16.04
360.555	-1.71
360.766	-28.33
360.977	49.49
361.189	33.11
361.4	88.4
361.611	121.17
361.823	67.92
362.034	67.92
362.245	43.35
362.456	84.31
362.667	45.4
362.879	16.73
363.09	100.69
363.301	72.02
363.512	119.12
363.723	-30.38
363.935	37.2
364.146	35.16
364.357	26.96
364.568	78.16
364.779	18.77
364.99	92.5
365.201	12.63
365.412	22.87
365.623	-5.8
365.834	4.44
366.045	-26.28
366.256	84.31
366.467	57.68
366.678	76.12
366.889	45.4
367.1	47.44
367.311	67.92
367.522	63.83
367.733	4.44
367.944	84.31
368.155	37.2
368.366	63.83
368.577	26.96
368.788	72.02
368.999	49.49
369.209	72.02
369.42	67.92
369.631	121.17
369.842	35.16
370.053	57.68
370.264	88.4
370.474	-28.33
370.685	18.77
370.896	104.79
371.107	6.49
371.317	80.21
371.528	127.32
371.739	80.21
371.95	80.21
372.16	121.17
372.371	53.59
372.582	61.78
372.792	47.44
373.003	84.31
373.214	2.39
373.424	49.49
373.635	100.69
373.846	108.88
374.056	10.58
374.267	6.49
374.477	18.77
374.688	47.44
374.898	131.41
375.109	49.49
375.319	-18.09
375.53	35.16
375.74	61.78
375.951	98.64
376.161	20.82
376.372	158.03
376.582	-48.81
376.793	59.73
377.003	37.2
377.214	6.49
377.424	76.12
377.635	43.35
377.845	63.83
378.055	153.94
378.266	-34.47
378.476	6.49
378.686	53.59
378.897	33.11
379.107	141.65
379.317	131.41
379.528	4.44
379.738	119.12
379.948	20.82
380.158	80.21
380.369	-24.23
380.579	35.16
380.789	29.01
380.999	-11.95
381.21	100.69
381.42	100.69
381.63	37.2
381.84	78.16
382.05	78.16
382.261	65.88
382.471	78.16
382.681	67.92
382.891	164.18
383.101	31.06
383.311	37.2
383.521	137.56
383.731	80.21
383.941	76.12
384.151	98.64
384.361	47.44
384.571	78.16
384.781	37.2
384.991	100.69
385.201	63.83
385.411	4.44
385.621	33.11
385.831	26.96
386.041	16.73
386.251	80.21
386.461	65.88
386.671	55.64
386.881	29.01
387.091	94.55
387.301	47.44
387.511	121.17
387.72	16.73
387.93	35.16
388.14	57.68
388.35	92.5
388.56	41.3
388.769	29.01
388.979	104.79
389.189	61.78
389.399	65.88
389.609	41.3
389.818	69.97
390.028	33.11
390.238	86.36
390.447	74.07
390.657	22.87
390.867	86.36
391.076	63.83
391.286	45.4
391.496	-26.28
391.705	72.02
391.915	90.45
392.125	88.4
392.334	22.87
392.544	166.23
392.753	65.88
392.963	-3.75
393.172	94.55
393.382	49.49
393.591	115.03
393.801	121.17
394.01	63.83
394.22	67.92
394.429	121.17
394.639	80.21
394.848	65.88
395.058	53.59
395.267	53.59
395.477	59.73
395.686	160.08
395.895	139.6
396.105	123.22
396.314	45.4
396.524	123.22
396.733	80.21
396.942	121.17
397.152	151.89
397.361	137.56
397.57	104.79
397.78	192.85
397.989	76.12
398.198	96.6
398.407	84.31
398.617	110.93
398.826	74.07
399.035	117.08
399.244	102.74
399.453	74.07
399.663	129.36
399.872	131.41
400.081	59.73
400.29	147.8
400.499	153.94
400.708	125.27
400.917	35.16
401.127	125.27
401.336	115.03
401.545	133.46
401.754	67.92
401.963	115.03
402.172	170.32
402.381	143.7
402.59	63.83
402.799	57.68
403.008	180.56
403.217	133.46
403.426	168.27
403.635	188.75
403.844	127.32
404.053	110.93
404.262	80.21
404.471	252.24
404.68	217.43
404.888	162.13
405.097	145.75
405.306	121.17
405.515	188.75
405.724	196.95
405.933	160.08
406.142	170.32
406.35	180.56
406.559	186.71
406.768	211.28
406.977	151.89
407.185	250.19
407.394	172.37
407.603	137.56
407.812	151.89
408.02	239.95
408.229	295.25
408.438	205.14
408.646	217.43
408.855	211.28
409.064	231.76
409.272	260.43
409.481	289.1
409.69	280.91
409.898	264.53
410.107	315.73
410.315	287.06
410.524	328.02
410.733	301.39
410.941	309.58
411.15	375.12
411.358	381.26
411.567	444.75
411.775	352.59
411.984	395.6
412.192	475.47
412.401	411.98
412.609	512.33
412.818	547.15
413.026	444.75
413.234	473.42
413.443	522.57
413.651	495.95
413.86	684.36
414.068	561.48
414.276	612.68
414.485	659.79
414.693	661.84
414.901	676.17
415.11	749.9
415.318	776.52
415.526	715.08
415.734	655.69
415.943	835.91
416.151	887.11
416.359	831.82
416.567	897.35
416.776	928.07
416.984	956.74
417.192	1014.09
417.4	960.84
417.608	1016.13
417.817	1040.71
418.025	1126.72
418.233	1112.39
418.441	1120.58
418.649	1290.56
418.857	1296.71
419.065	1345.86
419.273	1270.08
419.481	1382.72
419.689	1487.17
419.897	1569.09
420.105	1548.61
420.313	1622.33
420.521	1734.97
420.729	1648.96
420.937	1773.88
421.145	1870.14
421.353	1974.58
421.561	1945.91
421.769	2040.12
421.977	2109.75
422.185	2101.56
422.393	2154.8
422.601	2326.83
422.809	2335.03
423.017	2212.15
423.224	2554.16
423.432	2505.01
423.64	2552.11
423.848	2656.56
424.056	2787.63
424.263	2828.59
424.471	2937.13
424.679	3064.1
424.887	3156.26
425.094	3365.15
425.302	3293.48
425.51	3297.57
425.718	3553.57
425.925	3410.21
426.133	3719.45
426.341	3981.59
426.548	3905.82
426.756	3936.54
426.964	4038.94
427.171	4272.4
427.379	4339.99
427.586	4663.57
427.794	4665.61
428.001	4831.5
428.209	5185.8
428.417	4981
428.624	5316.87
428.832	5325.06
429.039	5406.98
429.247	5271.81
429.454	5837.05
429.662	6347
429.869	5855.48
430.076	6326.52
430.284	5959.93
430.491	6236.41
430.699	6703.34
430.906	6717.68
431.114	6877.42
431.321	6965.48
431.528	7268.58
431.736	7502.05
431.943	7688.42
432.15	7987.42
432.358	7837.92
432.565	8171.74
432.772	8138.97
432.979	8779.98
433.187	8696.02
433.394	8745.17
433.601	9382.09
433.808	9367.75
434.016	9314.5
434.223	9910.46
434.43	10315.96
434.637	10201.27
434.844	10854.58
435.052	11028.65
435.259	10918.06
435.466	10985.65
435.673	11051.18
435.88	11583.65
436.087	12155.04
436.294	12292.25
436.501	12087.45
436.708	12220.57
436.915	12642.45
437.122	13209.74
437.329	13252.75
437.537	13541.51
437.743	13846.66
437.95	13826.18
438.157	14680.18
438.364	14723.19
438.571	15046.77
438.778	14975.09
438.985	16457.82
439.192	15919.2
439.399	16158.81
439.606	15595.62
439.813	16711.77
440.02	17834.05
440.227	17367.12
440.433	17141.84
440.64	17840.2
440.847	17743.94
441.054	18423.87
441.261	19476.52
441.467	19136.56
441.674	19558.44
441.881	20234.27
442.088	20037.67
442.294	19845.16
442.501	20467.74
442.708	20785.18
442.914	21760.01
443.121	22691.84
443.328	21889.03
443.534	23480.3
443.741	22923.26
443.948	22456.32
444.154	24354.79
444.361	24141.8
444.568	24223.72
444.774	24344.55
444.981	24661.98
445.187	25237.46
445.394	26472.39
445.6	26249.16
445.807	28413.86
446.013	27414.45
446.22	27957.16
446.426	29292.44
446.633	29228.95
446.839	30316.42
447.046	28719.01
447.252	30502.79
447.459	30314.37
447.665	30609.28
447.871	31799.15
448.078	32929.63
448.284	31518.58
448.491	32743.27
448.697	33693.52
448.903	34064.21
449.11	34508.61
449.316	33763.15
449.522	34617.16
449.728	35422.01
449.935	35665.72
450.141	35618.61
450.347	36321.07
450.553	35376.95
450.76	35727.16
450.966	37314.33
451.172	36359.98
451.378	37463.83
451.584	36564.78
451.791	37429.02
451.997	37560.09
452.203	38192.91
452.409	38272.78
452.615	38014.74
452.821	36843.3
453.027	36325.16
453.233	37564.18
453.44	36853.54
453.646	36986.66
453.852	36953.89
454.058	37617.43
454.264	36652.84
454.47	37383.96
454.676	36534.06
454.882	37424.92
455.088	34504.52
455.294	34930.5
455.5	35684.15
455.705	35888.95
455.911	34187.08
456.117	33746.77
456.323	33132.38
456.529	31704.95
456.735	32583.52
456.941	31735.67
457.147	31641.46
457.352	30691.2
457.558	30478.21
457.764	30418.82
457.97	29558.67
458.176	29134.74
458.381	29312.92
458.587	27400.12
458.793	27563.95
458.999	26187.72
459.204	28102.57
459.41	27350.96
459.616	25554.9
459.821	25327.57
460.027	25331.67
460.233	24670.17
460.438	23701.48
460.644	23861.23
460.85	23039.99
461.055	22329.34
461.261	22521.85
461.466	21032.98
461.672	20264.99
461.878	21737.48
462.083	19812.39
462.289	19779.62
462.494	19599.4
462.7	18485.31
462.905	18108.48
463.111	18507.83
463.316	18759.74
463.522	18509.88
463.727	18708.54
463.932	18628.67
464.138	18505.79
464.343	18128.96
464.549	17823.81
464.754	18350.14
464.959	18376.76
465.165	17987.65
465.37	17289.29
465.575	17025.11
465.781	17719.37
465.986	17428.56
466.191	17066.06
466.397	16781.4
466.602	16128.1
466.807	16588.89
467.012	16525.4
467.218	16183.39
467.423	16279.64
467.628	16537.69
467.833	17274.96
468.038	16451.67
468.244	15839.33
468.449	16400.48
468.654	15894.63
468.859	15761.51
469.064	15599.72
469.269	15181.93
469.474	15171.69
469.679	15728.74
469.885	15247.47
470.09	15315.05
470.295	14936.18
470.5	15040.62
470.705	14942.32
470.91	14751.86
471.115	14803.06
471.32	14727.28
471.525	14497.91
471.73	14311.55
471.935	14315.64
472.139	13824.13
472.344	13865.09
472.549	13557.89
472.754	13555.85
472.959	13412.49
473.164	12961.94
473.369	12933.26
473.574	13224.08
473.778	13195.4
473.983	13164.68
474.188	13156.49
474.393	12548.25
474.598	12540.05
474.802	12454.04
475.007	12337.31
475.212	12347.54
475.417	11819.17
475.621	12126.36
475.826	12079.26
476.031	11589.8
476.235	11511.97
476.44	11724.96
476.645	11415.72
476.849	11665.57
477.054	11239.59
477.259	11303.08
477.463	11102.38
477.668	10782.9
477.872	10977.45
478.077	10680.5
478.282	10498.23
478.486	10557.62
478.691	10479.8
478.895	10465.46
479.1	10408.12
479.304	10221.75
479.509	10029.24
479.713	10348.73
479.918	9994.43
480.122	9830.59
480.326	9951.42
480.531	10047.68
480.735	9760.96
480.94	9826.5
481.144	10168.51
481.348	9720
481.553	9726.14
481.757	9486.53
481.961	9740.48
482.166	9679.04
482.37	9619.65
482.574	9691.33
482.778	9451.72
482.983	9703.62
483.187	9605.31
483.391	9834.69
483.595	9556.16
483.8	9351.37
484.004	9695.43
484.208	9507.01
484.412	9601.22
484.616	9584.84
484.821	9627.84
485.025	9410.76
485.229	9502.92
485.433	9443.53
485.637	9648.32
485.841	9388.23
486.045	9316.55
486.249	9466.05
486.453	9464
486.657	9455.81
486.861	9418.95
487.065	9361.61
487.269	9394.37
487.473	9337.03
487.677	9769.15
487.881	9578.69
488.085	9668.8
488.289	9758.91
488.493	9543.88
488.697	9531.59
488.901	9464
489.105	9781.44
489.309	9593.03
489.512	9623.75
489.716	9756.86
489.92	9705.67
490.124	9533.64
490.328	9814.21
490.531	9812.16
490.735	9765.06
490.939	9803.97
491.143	9656.51
491.346	9846.98
491.55	9863.36
491.754	10064.06
491.958	10066.11
492.161	10088.64
492.365	10143.93
492.569	9894.08
492.772	10084.54
492.976	10170.55
493.18	10053.82
493.383	10344.63
493.587	10195.13
493.79	10389.69
493.994	10260.66
494.197	10522.8
494.401	10768.56
494.605	10506.42
494.808	10827.95
495.012	10813.62
495.215	10936.49
495.419	10805.42
495.622	10854.58
495.825	11092.14
496.029	11096.24
496.232	11329.7
496.436	11268.27
496.639	11428.01
496.843	11534.5
497.046	11782.31
497.249	11792.55
497.453	11786.4
497.656	11950.24
497.859	11962.53
498.063	12150.94
498.266	12306.59
498.469	12292.25
498.673	12413.08
498.876	12548.25
499.079	13058.19
499.282	12581.01
499.485	13093.01
499.689	13052.05
499.892	13205.64
500.095	13365.39
500.298	13478.02
500.501	13611.14
500.705	13918.34
500.908	14002.3
501.111	14182.52
501.314	14192.76
501.517	14383.23
501.72	14592.12
501.923	14626.93
502.126	15024.24
502.329	15071.34
502.532	15210.61
502.735	15378.54
502.938	15575.14
503.141	15657.06
503.344	16136.29
503.547	15599.72
503.75	16089.18
503.953	16390.24
504.156	16590.94
504.359	16693.33
504.562	16836.69
504.765	16953.43
504.968	17092.69
505.17	17375.31
505.373	17694.79
505.576	17868.87
505.779	18223.17
505.982	18094.15
506.185	18339.9
506.387	18554.94
506.59	18769.97
506.793	18802.74
506.996	18769.97
507.198	19265.58
507.401	19314.73
507.604	19535.92
507.807	19929.13
508.009	20058.15
508.212	19869.73
508.415	20447.26
508.617	20668.44
508.82	20852.76
509.022	20776.98
509.225	21305.36
509.428	21469.2
509.63	21428.24
509.833	21778.44
510.035	22343.68
510.238	22147.08
510.44	22249.47
510.643	22585.34
510.845	22880.25
511.048	22812.67
511.25	23255.03
511.453	23529.45
511.655	23863.27
511.858	24063.97
512.06	24035.3
512.262	24578.01
512.465	24279.01
512.667	24913.88
512.87	25112.53
513.072	24928.22
513.274	25493.46
513.477	25669.58
513.679	25925.58
513.881	26367.94
514.084	26560.45
514.286	26433.47
514.488	26660.8
514.69	27238.33
514.893	27215.8
515.095	27180.98
515.297	27899.82
515.499	27803.57
515.701	28311.46
515.904	28340.13
516.106	28622.75
516.308	29073.31
516.51	29337.49
516.712	29364.12
516.914	29681.55
517.116	30201.74
517.318	30244.74
517.52	30508.93
517.722	30474.12
517.925	30605.19
518.127	31358.84
518.329	31442.81
518.531	31371.13
518.733	32092.01
518.935	32415.59
519.136	32305
519.338	32677.73
519.54	32743.27
519.742	33052.51
519.944	33228.63
520.146	33541.97
520.348	33759.06
520.55	33914.7
520.752	34234.19
520.954	34991.94
521.155	34543.43
521.357	35372.86
521.559	35114.81
521.761	35868.47
521.963	35501.88
522.164	36140.85
522.366	35790.64
522.568	36359.98
522.77	36548.39
522.971	36767.52
523.173	36689.7
523.375	37265.18
523.576	37343
523.778	37359.39
523.98	37881.62
524.181	38059.79
524.383	38395.66
524.584	38741.77
524.786	38756.1
524.988	38653.7
525.189	38930.18
525.391	39091.97
525.592	39196.42
525.794	39427.84
525.995	39722.74
526.197	40148.72
526.398	39583.48
526.6	40238.83
526.801	40220.4
527.003	40603.37
527.204	40496.88
527.406	40673
527.607	40726.25
527.808	41146.08
528.01	40617.71
528.211	41207.52
528.412	41744.09
528.614	41316.06
528.815	41518.81
529.016	41895.64
529.218	41508.57
529.419	41940.69
529.62	42045.14
529.822	41850.58
530.023	42094.29
530.224	42198.74
530.425	42192.59
530.626	42237.65
530.828	41729.75
531.029	42915.53
531.23	42274.51
531.431	42127.06
531.632	43040.45
531.833	42663.63
532.035	42948.29
532.236	42866.38
532.437	43208.39
532.638	42901.19
532.839	42966.73
533.04	42944.2
533.241	42714.83
533.442	43085.51
533.643	43228.87
533.844	43204.29
534.045	43261.63
534.246	42976.97
534.447	43613.88
534.648	43187.91
534.849	43380.42
535.05	42993.35
535.251	43325.12
535.451	43296.45
535.652	43482.81
535.853	42989.25
536.054	43388.61
536.255	43306.69
536.456	42712.78
536.657	44101.3
536.857	43120.32
537.058	43378.37
537.259	43654.84
537.46	43515.58
537.66	42995.4
537.861	43507.39
538.062	43034.31
538.263	43394.75
538.463	42757.83
538.664	43364.03
538.865	43374.27
539.065	43515.58
539.266	43355.84
539.466	43261.63
539.667	42788.55
539.868	43572.92
540.068	43189.95
540.269	43265.73
540.469	43529.92
540.67	43022.02
540.87	43306.69
541.071	43204.29
541.271	43378.37
541.472	43755.19
541.672	43165.38
541.873	43013.83
542.073	43028.16
542.274	43224.77
542.474	43095.75
542.675	43134.66
542.875	43380.42
543.075	43118.28
543.276	42434.25
543.476	43421.37
543.676	43364.03
543.877	42991.3
544.077	43230.91
544.277	42856.14
544.478	43036.36
544.678	43843.26
544.878	42651.34
545.078	43101.89
545.279	42991.3
545.479	42995.4
545.679	43376.32
545.879	42960.58
546.079	42940.1
546.28	43177.67
546.48	42606.28
546.68	43097.8
546.88	42974.92
547.08	43157.19
547.28	42970.82
547.48	42522.32
547.68	43046.6
547.88	42532.56
548.081	42770.12
548.281	42903.24
548.481	42921.67
548.681	43198.15
548.881	42897.09
549.081	43226.82
549.28	42335.95
549.48	43122.37
549.68	42884.81
549.88	43429.57
550.08	42563.28
550.28	42708.68
550.48	42481.36
550.68	43243.2
550.88	42594
551.08	42663.63
551.279	42788.55
551.479	42536.65
551.679	42567.37
551.879	42579.66
552.079	43105.99
552.278	42424.01
552.478	42573.52
552.678	42417.87
552.878	42641.1
553.077	42950.34
553.277	41928.41
553.477	43077.32
553.676	42311.38
553.876	42219.22
554.076	42301.14
554.275	41987.8
554.475	42041.04
554.674	42761.93
554.874	42053.33
555.074	42065.62
555.273	42229.46
555.473	42933.96
555.672	42067.67
555.872	42129.11
556.071	41711.32
556.271	41909.97
556.47	42002.13
556.67	41801.43
556.869	41828.06
557.068	41998.04
557.268	41520.86
557.467	41742.04
557.667	41840.34
557.866	41762.52
558.065	41748.18
558.265	41176.8
558.464	41463.52
558.663	41750.23
558.863	41320.16
559.062	41895.64
559.261	41178.85
559.461	41365.21
559.66	40955.62
559.859	41326.3
560.058	41387.74
560.258	41096.93
560.457	41058.02
560.656	41137.89
560.855	40703.72
561.054	40640.23
561.253	40906.47
561.453	40818.41
561.652	41000.68
561.851	40486.64
562.05	40867.56
562.249	40648.43
562.448	40810.21
562.647	40539.88
562.846	40453.87
563.045	40724.2
563.244	39804.66
563.443	40136.43
563.642	39798.52
563.841	39964.4
564.04	39792.37
564.239	40070.9
564.438	39689.98
564.637	39679.74
564.836	39532.28
565.035	39380.73
565.234	40097.52
565.432	39036.67
565.631	39294.72
565.83	39608.06
566.029	39145.22
566.228	39333.63
566.427	38917.89
566.625	39073.54
566.824	38577.93
567.023	39296.77
567.222	38219.53
567.42	38901.51
567.619	38690.57
567.818	38340.36
568.016	38219.53
568.215	38891.27
568.414	38192.91
568.612	38317.84
568.811	38330.12
569.01	38461.19
569.208	37558.04
569.407	37758.74
569.605	37578.52
569.804	37961.49
570.002	37232.41
570.201	37519.13
570.4	37216.03
570.598	37365.53
570.797	36912.93
570.995	37711.64
571.193	36820.77
571.392	37459.74
571.59	36794.15
571.789	37003.04
571.987	36687.65
572.186	36656.93
572.384	36515.62
572.582	36634.41
572.781	36982.56
572.979	36122.41
573.177	36388.65
573.376	36648.74
573.574	35880.75
573.772	36263.72
573.971	36046.64
574.169	36020.02
574.367	35235.64
574.565	35659.57
574.763	35632.95
574.962	35630.9
575.16	35266.36
575.358	35618.61
575.556	34703.17
575.754	35417.91
575.952	34885.44
576.151	35321.66
576.349	34680.64
576.547	34621.25
576.745	34819.91
576.943	34580.29
577.141	34430.79
577.339	34486.09
577.537	34400.07
577.735	34182.99
577.933	34170.7
578.131	34289.48
578.329	34293.58
578.527	33785.68
578.725	33816.4
578.923	34004.81
579.121	33714
579.319	33640.28
579.516	33630.04
579.714	33513.3
579.912	33533.78
580.11	33460.05
580.308	33316.7
580.506	33740.63
580.704	32773.99
580.901	33099.61
581.099	33154.91
581.297	32948.06
581.495	32855.9
581.692	32786.27
581.89	32077.68
582.088	32827.23
582.285	32554.85
582.483	32784.23
582.681	32145.26
582.878	32067.44
583.076	31954.8
583.274	32182.12
583.471	32180.07
583.669	31891.31
583.866	31684.47
584.064	31760.24
584.262	31580.02
584.459	31879.02
584.657	31555.44
584.854	31399.8
585.052	31059.84
585.249	31401.85
585.447	31240.06
585.644	31178.62
585.841	31131.51
586.039	31307.64
586.236	30791.55
586.434	30660.48
586.631	30785.41
586.828	30500.74
587.026	30535.56
587.223	30556.04
587.42	30412.68
587.618	30277.51
587.815	30048.14
588.012	30039.95
588.21	30017.42
588.407	29886.35
588.604	29697.94
588.801	29863.82
588.999	29398.93
589.196	29679.5
589.393	29478.8
589.59	29378.45
589.787	29235.1
589.984	29278.1
590.182	28964.76
590.379	29284.25
590.576	29087.64
590.773	29192.09
590.97	28796.83
591.167	28669.86
591.364	28696.48
591.561	28589.99
591.758	28325.8
591.955	28030.89
592.152	28649.38
592.349	28305.32
592.546	28336.04
592.743	28399.52
592.94	27729.84
593.137	28323.75
593.334	28100.52
593.531	27543.47
593.727	28061.61
593.924	27525.04
594.121	27314.1
594.318	27537.33
594.515	27166.65
594.712	27854.76
594.908	27021.24
595.105	27398.07
595.302	27008.95
595.499	27021.24
595.696	26886.08
595.892	26564.54
596.089	26902.46
596.286	26712
596.482	26648.51
596.679	26525.63
596.876	26458.05
597.072	26300.36
597.269	26351.56
597.466	26261.44
597.662	26337.22
597.859	26046.41
598.055	26226.63
598.252	26101.7
598.448	26372.03
598.645	25915.34
598.841	25616.33
599.038	25847.75
599.234	25980.87
599.431	25483.22
599.627	25067.48
599.824	25542.61
600.02	25094.1
600.217	25055.19
600.413	25259.99
600.609	24907.74
600.806	24866.78
601.002	25104.34
601.198	24748
601.395	24649.69
601.591	24641.5
601.787	24752.09
601.984	24598.49
602.18	24588.25
602.376	24256.48
602.572	24377.31
602.769	24299.49
602.965	24041.45
603.161	24203.24
603.357	23826.41
603.553	23990.25
603.75	23912.42
603.946	23828.46
604.142	23844.84
604.338	23693.29
604.534	23812.07
604.73	23406.58
604.926	23265.27
605.122	23652.33
605.318	23496.69
605.514	23207.92
605.71	22951.93
605.906	23263.22
606.102	22999.03
606.298	22751.23
606.494	23019.51
606.69	22800.38
606.886	23111.67
607.082	22777.85
607.278	23021.56
607.474	22360.06
607.67	22460.41
607.866	22208.51
608.062	23017.46
608.257	22532.09
608.453	22226.95
608.649	22573.05
608.845	22380.54
609.041	22286.34
609.236	22462.46
609.432	21960.71
609.628	22054.92
609.824	22124.55
610.019	21645.32
610.215	22003.72
610.411	22110.21
610.606	21895.18
610.802	22032.39
610.998	21598.22
611.193	21907.46
611.389	21825.54
611.584	21483.53
611.78	21596.17
611.976	21714.95
612.171	21800.97
612.367	21645.32
612.562	21137.43
612.758	21329.94
612.953	21057.56
613.149	21182.48
613.344	20963.35
613.539	21194.77
613.735	20967.45
613.93	21069.84
614.126	21196.82
614.321	21092.37
614.517	20981.78
614.712	20922.39
614.907	20822.04
615.103	21102.61
615.298	21010.45
615.493	21053.46
615.688	20613.15
615.884	20953.11
616.079	20684.83
616.274	20889.62
616.47	20770.84
616.665	20680.73
616.86	20414.49
617.055	20365.34
617.25	20647.96
617.445	20561.95
617.641	19929.13
617.836	20514.84
618.031	20103.2
618.226	20432.93
618.421	20211.74
618.616	20328.48
618.811	19916.84
619.006	20248.61
619.201	19630.12
619.396	20144.16
619.591	19378.22
619.786	19611.69
619.981	19435.56
620.176	19785.77
620.371	19519.53
620.566	19130.42
620.761	19437.61
620.956	18974.77
621.151	19101.75
621.346	19148.85
621.541	18745.4
621.735	18978.87
621.93	18849.85
622.125	18835.51
622.32	18350.14
622.515	18300.99
622.709	18333.76
622.904	18290.75
623.099	18077.76
623.294	18251.84
623.488	17995.84
623.683	17877.06
623.878	18030.66
624.072	17582.15
624.267	17649.74
624.462	17426.51
624.656	17297.49
624.851	17649.74
625.046	17215.57
625.24	17268.81
625.435	17217.61
625.629	16953.43
625.824	16918.61
626.018	17121.36
626.213	16902.23
626.407	16765.01
626.602	16844.88
626.796	16496.73
626.991	16482.39
627.185	16429.15
627.38	16140.38
627.574	16191.58
627.768	16062.56
627.963	15943.78
628.157	16001.12
628.352	15994.98
628.546	15554.66
628.74	15767.65
628.935	15448.17
629.129	15247.47
629.323	15450.22
629.517	15409.26
629.712	15222.89
629.906	15257.71
630.1	15022.19
630.294	14956.66
630.489	14796.92
630.683	14901.36
630.877	14684.28
631.071	14559.35
631.265	14706.8
631.459	14524.54
631.653	14311.55
631.848	14297.21
632.042	14317.69
632.236	14436.47
632.43	14053.5
632.624	14018.69
632.818	14057.6
633.012	13885.57
633.206	13977.73
633.4	13758.6
633.594	13406.34
633.788	13695.11
633.982	13332.62
634.176	13312.14
634.369	13211.79
634.563	13424.78
634.757	13185.16
634.951	13111.44
635.145	13101.2
635.339	13097.1
635.533	12959.89
635.726	12996.75
635.92	12832.91
636.114	12863.63
636.308	12802.19
636.501	12664.98
636.695	12591.25
636.889	12601.49
637.083	12548.25
637.276	12445.85
637.47	12376.22
637.664	12425.37
637.857	12294.3
638.051	12261.53
638.244	12046.49
638.438	12122.27
638.632	11915.42
638.825	11831.46
639.019	11915.42
639.212	11708.58
639.406	11815.07
639.599	11606.18
639.793	11698.34
639.986	11405.48
640.18	11679.91
640.373	11438.25
640.567	11284.65
640.76	11311.27
640.954	11215.02
641.147	10967.21
641.34	11028.65
641.534	11088.04
641.727	10930.35
641.92	10991.79
642.114	10948.78
642.307	10889.39
642.5	10735.79
642.694	10551.48
642.887	10700.98
643.08	10774.7
643.273	10645.68
643.467	10498.23
643.66	10340.54
643.853	10330.3
644.046	10264.76
644.239	10211.51
644.432	10199.23
644.626	9961.66
644.819	10078.4
645.012	10191.03
645.205	9984.19
645.398	9910.46
645.591	9896.13
645.784	9961.66
645.977	9797.82
646.17	9670.85
646.363	9691.33
646.556	9414.85
646.749	9742.53
646.942	9599.17
647.135	9523.4
647.328	9525.44
647.521	9359.56
647.714	9144.52
647.907	9205.96
648.099	9132.23
648.292	9171.15
648.485	9210.06
648.678	9195.72
648.871	9003.21
649.064	9040.08
649.256	9105.61
649.449	9054.41
649.642	8982.73
649.835	8796.37
650.027	8812.75
650.22	8687.82
650.413	8743.12
650.605	8831.18
650.798	8546.51
650.991	8325.33
651.183	8442.07
651.376	8425.68
651.568	8513.75
651.761	8259.8
651.954	8456.4
652.146	8300.76
652.339	8276.18
652.531	8179.93
652.724	8282.33
652.916	7823.58
653.109	7901.4
653.301	8175.83
653.494	7950.56
653.686	7968.99
653.879	7950.56
654.071	7846.11
654.263	7762.14
654.456	7919.84
654.648	7905.5
654.84	7719.14
655.033	7741.66
655.225	7504.1
655.417	7688.42
655.61	7715.04
655.802	7403.75
655.994	7481.57
656.186	7704.8
656.379	7389.41
656.571	7600.35
656.763	7295.21
656.955	7149.8
657.148	7289.06
657.34	7246.05
657.532	7254.25
657.724	7112.94
657.916	7037.16
658.108	7160.04
658.3	6949.1
658.492	7127.27
658.684	7096.55
658.876	6985.96
659.068	6879.47
659.26	7000.3
659.452	6768.88
659.644	6721.77
659.836	6625.52
660.028	6725.87
660.22	6664.43
660.412	6666.48
660.604	6639.86
660.796	6433.01
660.988	6551.79
661.18	6592.75
661.372	6510.83
661.563	6467.83
661.755	6301.94
661.947	6461.68
662.139	6215.93
662.331	6269.17
662.522	6183.16
662.714	6287.61
662.906	6201.59
663.097	6105.34
663.289	6191.35
663.481	6281.46
663.673	6115.58
663.864	6023.42
664.056	5951.74
664.247	5978.36
664.439	5845.24
664.631	5972.22
664.822	5884.16
665.014	5927.16
665.205	5925.11
665.397	5875.96
665.588	5710.08
665.78	5550.34
665.971	5800.19
666.163	5732.61
666.354	5767.42
666.546	5597.44
666.737	5591.3
666.929	5650.69
667.12	5617.92
667.311	5601.54
667.503	5712.13
667.694	5497.09
667.885	5372.16
668.077	5536
668.268	5218.57
668.459	5554.43
668.651	5466.37
668.842	5343.49
669.033	5370.12
669.224	5306.63
669.416	5349.64
669.607	5212.42
669.798	5198.09
669.989	5325.06
670.18	5361.92
670.371	5163.27
670.563	5138.69
670.754	5343.49
670.945	5189.89
671.136	5163.27
671.327	4964.62
671.518	5259.53
671.709	5042.44
671.9	5159.17
672.091	5046.54
672.282	5120.26
672.473	4856.08
672.664	4950.28
672.855	4997.39
673.046	4964.62
673.237	4987.15
673.428	5026.06
673.619	4827.4
673.809	4880.65
674	4776.2
674.191	4856.08
674.382	4811.02
674.573	4763.92
674.764	4753.68
674.954	4825.36
675.145	4917.51
675.336	4731.15
675.527	4804.88
675.717	4690.19
675.908	4751.63
676.099	4647.18
676.289	4628.75
676.48	4636.94
676.671	4682
676.861	4727.05
677.052	4653.33
677.243	4620.56
677.433	4546.83
677.624	4628.75
677.814	4428.05
678.005	4598.03
678.195	4434.19
678.386	4436.24
678.576	4501.78
678.767	4567.31
678.957	4507.92
679.148	4714.77
679.338	4505.87
679.529	4466.96
679.719	4372.75
679.909	4573.46
680.1	4237.59
680.29	4493.58
680.481	4376.85
680.671	4358.42
680.861	4391.19
681.052	4385.04
681.242	4452.63
681.432	4481.3
681.622	4272.4
681.813	4290.84
682.003	4339.99
682.193	4239.64
682.383	4348.18
682.573	4239.64
682.764	4260.12
682.954	4319.51
683.144	4389.14
683.334	4350.23
683.524	4172.05
683.714	4260.12
683.904	4190.49
684.094	4313.36
684.284	4129.05
684.474	4337.94
684.664	4155.67
684.854	4188.44
685.044	4131.09
685.234	4182.29
685.424	4145.43
685.614	4159.77
685.804	4098.33
685.994	4026.65
686.184	3993.88
686.374	4049.18
686.564	3963.16
686.753	3916.06
686.943	3981.59
687.133	3950.87
687.323	4092.18
687.513	3815.71
687.702	4020.5
687.892	3977.5
688.082	3934.49
688.272	3916.06
688.461	3768.6
688.651	3838.23
688.841	3918.11
689.03	3811.61
689.22	3856.67
689.41	3866.91
689.599	3862.81
689.789	3750.17
689.979	3741.98
690.168	3621.15
690.358	3723.55
690.547	3633.44
690.737	3590.43
690.926	3727.64
691.116	3598.62
691.305	3655.97
691.495	3617.05
691.684	3602.72
691.874	3555.62
692.063	3533.09
692.252	3565.85
692.442	3574.05
692.631	3492.13
692.82	3516.7
693.01	3500.32
693.199	3551.52
693.388	3375.39
693.578	3447.07
693.767	3524.9
693.956	3547.42
694.146	3442.98
694.335	3459.36
694.524	3445.02
694.713	3430.69
694.902	3359.01
695.092	3365.15
695.281	3373.35
695.47	3295.52
695.659	3309.86
695.848	3209.51
696.037	3305.76
696.226	3234.08
696.415	3258.66
696.604	3336.48
696.793	3248.42
696.982	3289.38
697.171	3250.47
697.36	3195.17
697.549	3238.18
697.738	3197.22
697.927	3215.65
698.116	3193.12
698.305	3221.8
698.494	3211.56
698.683	3076.39
698.872	3268.9
699.061	3193.12
699.25	3164.45
699.438	3227.94
699.627	3172.64
699.816	3137.83
700.005	3311.91
700.193	3209.51
700.382	3109.16
700.571	3098.92
700.76	3137.83
700.948	3053.86
701.137	2973.99
701.326	3166.5
701.514	2930.98
701.703	3139.88
701.892	3166.5
702.08	3158.31
702.269	3090.73
702.457	3070.25
702.646	3109.16
702.834	3039.53
703.023	3092.77
703.212	3006.76
703.4	2951.46
703.589	3023.14
703.777	3037.48
703.965	3025.19
704.154	3039.53
704.342	3012.9
704.531	2877.74
704.719	2873.64
704.907	3186.98
705.096	3096.87
705.284	3068.2
705.472	3029.29
705.661	3006.76
705.849	3139.88
706.037	2939.18
706.226	2935.08
706.414	3037.48
706.602	3074.34
706.79	2875.69
706.979	3037.48
707.167	3047.72
707.355	2965.8
707.543	3096.87
707.731	3082.53
707.919	3031.34
708.107	2994.47
708.296	2980.14
708.484	2961.7
708.672	3064.1
708.86	3027.24
709.048	3037.48
709.236	2943.27
709.424	3055.91
709.612	3146.02
709.8	2957.61
709.988	3004.71
710.176	3100.97
710.364	3045.67
710.551	2869.55
710.739	2892.07
710.927	2990.38
711.115	2935.08
711.303	3076.39
711.491	2875.69
711.679	2969.9
711.866	2953.51
712.054	2994.47
712.242	2851.11
712.43	3119.4
712.617	2926.89
712.805	2916.65
712.993	2849.07
713.181	3060.01
713.368	3000.62
713.556	3000.62
713.744	2988.33
713.931	3117.35
714.119	3141.93
714.306	3006.76
714.494	2902.31
714.682	3008.81
714.869	3010.86
715.057	3047.72
715.244	3035.43
715.432	3090.73
715.619	3049.77
715.807	2967.85
715.994	3066.15
716.182	2971.94
716.369	2994.47
716.556	3156.26
716.744	3012.9
716.931	2965.8
717.119	2961.7
717.306	3010.86
717.493	3023.14
717.681	3027.24
717.868	2902.31
718.055	2988.33
718.242	2892.07
718.43	3053.86
718.617	3064.1
718.804	3141.93
718.991	2959.66
719.179	3084.58
719.366	2988.33
719.553	2992.42
719.74	2926.89
719.927	2992.42
720.114	3047.72
720.301	2973.99
720.488	3017
720.676	2978.09
720.863	3064.1
721.05	2924.84
721.237	3037.48
721.424	2998.57
721.611	3002.66
721.798	3000.62
721.985	2922.79
722.172	3033.38
722.358	3023.14
722.545	3098.92
722.732	3043.62
722.919	3041.57
723.106	3002.66
723.293	2961.7
723.48	2947.37
723.667	2879.79
723.853	2887.98
724.04	3021.1
724.227	3074.34
724.414	3078.44
724.6	3082.53
724.787	2883.88
724.974	3129.64
725.161	2967.85
725.347	2918.7
725.534	2887.98
725.72	3025.19
725.907	2894.12
726.094	2971.94
726.28	2945.32
726.467	2836.78
726.653	3002.66
726.84	2922.79
727.027	2963.75
727.213	2963.75
727.4	3017
727.586	2971.94
727.773	3121.45
727.959	2924.84
728.145	3119.4
728.332	3066.15
728.518	2992.42
728.705	3191.08
728.891	3035.43
729.077	3045.67
729.264	2963.75
729.45	2992.42
729.636	3119.4
729.823	3152.17
730.009	2912.55
730.195	3033.38
730.382	3037.48
730.568	2935.08
730.754	2892.07
730.94	3023.14
731.126	3115.3
731.313	3012.9
731.499	2996.52
731.685	3172.64
731.871	2980.14
732.057	3049.77
732.243	2922.79
732.429	3025.19
732.615	2988.33
732.801	2957.61
732.987	2945.32
733.173	2926.89
733.359	2912.55
733.545	2973.99
733.731	2945.32
733.917	2982.18
734.103	3027.24
734.289	2939.18
734.475	2881.83
734.661	2994.47
734.847	3060.01
735.033	2996.52
735.219	2842.92
735.404	2978.09
735.59	2894.12
735.776	2945.32
735.962	2973.99
736.148	2947.37
736.333	3055.91
736.519	2885.93
736.705	2947.37
736.89	2965.8
737.076	2869.55
737.262	3033.38
737.447	2994.47
737.633	2861.35
737.819	2830.63
738.004	2883.88
738.19	2920.74
738.375	2801.96
738.561	2939.18
738.747	2879.79
738.932	2801.96
739.118	2775.34
739.303	2877.74
739.489	2971.94
739.674	2996.52
739.859	2820.39
740.045	2826.54
740.23	2701.61
740.416	2791.72
740.601	2795.82
740.786	2801.96
740.972	2623.79
741.157	2808.11
741.342	2793.77
741.528	2808.11
741.713	2822.44
741.898	2707.76
742.084	2613.55
742.269	2707.76
742.454	2627.89
742.639	2795.82
742.824	2666.8
743.01	2806.06
743.195	2849.07
743.38	2621.74
743.565	2636.08
743.75	2634.03
743.935	2677.04
744.12	2697.52
744.305	2543.92
744.49	2480.43
744.675	2511.15
744.86	2654.51
745.045	2617.65
745.23	2599.21
745.415	2470.19
745.6	2472.24
745.785	2451.76
745.97	2529.58
746.155	2584.88
746.34	2527.53
746.525	2531.63
746.71	2423.09
746.895	2410.8
747.079	2484.53
747.264	2392.37
747.449	2472.24
747.634	2347.31
747.819	2310.45
748.003	2359.6
748.188	2453.81
748.373	2283.83
748.557	2294.07
748.742	2328.88
748.927	2195.76
749.111	2232.63
749.296	2287.92
749.481	2238.77
749.665	2298.16
749.85	2302.26
750.034	2281.78
750.219	2119.99
750.404	2216.24
750.588	2052.41
750.773	1995.06
750.957	2130.23
751.141	2068.79
751.326	2042.17
751.51	2138.42
751.695	2138.42
751.879	2146.61
752.064	2206
752.248	2044.21
752.432	2040.12
752.617	2031.93
752.801	2013.49
752.985	1876.28
753.17	1974.58
753.354	1902.9
753.538	1896.76
753.722	1907
753.907	1982.78
754.091	1775.93
754.275	1861.94
754.459	1825.08
754.643	1792.31
754.828	1886.52
755.012	1784.12
755.196	1820.99
755.38	1767.74
755.564	1796.41
755.748	1814.84
755.932	1749.31
756.116	1720.64
756.3	1593.66
756.484	1718.59
756.668	1712.44
756.852	1689.92
757.036	1640.76
757.22	1636.67
757.404	1624.38
757.588	1599.8
757.772	1667.39
757.956	1628.48
758.14	1573.18
758.323	1579.33
758.507	1530.17
758.691	1567.04
758.875	1552.7
759.059	1438.02
759.242	1644.86
759.426	1548.61
759.61	1472.83
759.794	1442.11
759.977	1468.73
760.161	1513.79
760.345	1530.17
760.528	1497.41
760.712	1454.4
760.895	1476.93
761.079	1493.31
761.263	1511.74
761.446	1390.91
761.63	1456.45
761.813	1386.82
761.997	1343.81
762.18	1401.15
762.364	1448.26
762.547	1290.56
762.731	1386.82
762.914	1442.11
763.098	1378.62
763.281	1405.25
763.464	1423.68
763.648	1321.28
763.831	1399.1
764.015	1296.71
764.198	1456.45
764.381	1241.41
764.564	1374.53
764.748	1259.84
764.931	1290.56
765.114	1308.99
765.297	1378.62
765.481	1237.31
765.664	1218.88
765.847	1225.03
766.03	1302.85
766.213	1278.27
766.397	1300.8
766.58	1186.12
766.763	1339.71
766.946	1253.7
767.129	1210.69
767.312	1233.22
767.495	1147.2
767.678	1106.24
767.861	1251.65
768.044	1112.39
768.227	1179.97
768.41	1196.36
768.593	1280.32
768.776	1161.54
768.959	1239.36
769.142	1165.64
769.324	1165.64
769.507	1169.73
769.69	1132.87
769.873	1210.69
770.056	1247.55
770.239	1063.24
770.421	1155.4
770.604	1200.45
770.787	1190.21
770.97	1063.24
771.152	1016.13
771.335	1087.81
771.518	1061.19
771.7	1087.81
771.883	1042.76
772.066	1067.33
772.248	1034.57
772.431	1116.48
772.613	1042.76
772.796	909.64
772.978	1081.67
773.161	1022.28
773.343	971.08
773.526	1067.33
773.708	948.55
773.891	1026.37
774.073	979.27
774.256	942.41
774.438	1024.33
774.621	907.59
774.803	1083.72
774.985	883.02
775.168	921.93
775.35	805.19
775.532	913.74
775.715	907.59
775.897	913.74
776.079	977.22
776.261	940.36
776.444	813.38
776.626	842.06
776.808	846.15
776.99	831.82
777.173	817.48
777.355	837.96
777.537	921.93
777.719	850.25
777.901	852.3
778.083	885.06
778.265	852.3
778.447	784.71
778.629	829.77
778.811	844.1
778.993	766.28
779.175	817.48
779.357	835.91
779.539	762.19
779.721	831.82
779.903	792.91
780.085	768.33
780.267	774.47
780.449	840.01
780.631	794.95
780.812	790.86
780.994	743.75
781.176	696.65
781.358	743.75
781.54	743.75
781.721	647.5
781.903	747.85
782.085	682.31
782.267	760.14
782.448	649.55
782.63	665.93
782.812	649.55
782.993	655.69
783.175	651.6
783.357	637.26
783.538	649.55
783.72	633.16
783.901	655.69
784.083	569.68
784.264	688.46
784.446	577.87
784.627	635.21
784.809	633.16
784.99	670.03
785.172	581.96
785.353	631.12
785.535	586.06
785.716	588.11
785.897	534.86
786.079	620.88
786.26	592.2
786.441	614.73
786.623	467.28
786.804	479.57
786.985	649.55
787.167	559.44
787.348	444.75
787.529	498
787.71	502.09
787.891	479.57
788.073	508.24
788.254	489.81
788.435	555.34
788.616	541.01
788.797	459.09
788.978	487.76
789.159	477.52
789.34	512.33
789.522	452.94
789.703	485.71
789.884	538.96
790.065	489.81
790.246	473.42
790.427	495.95
790.607	426.32
790.788	518.48
790.969	381.26
791.15	414.03
791.331	461.13
791.512	442.7
791.693	420.17
791.874	368.98
792.054	467.28
792.235	350.54
792.416	403.79
792.597	336.21
792.778	448.85
792.958	495.95
793.139	432.46
793.32	434.51
793.5	422.22
793.681	391.5
793.862	399.7
794.042	461.13
794.223	473.42
794.404	303.44
794.584	383.31
794.765	328.02
794.945	334.16
795.126	395.6
795.306	321.87
795.487	303.44
795.667	366.93
795.848	360.78
796.028	350.54
796.209	332.11
796.389	383.31
796.57	383.31
796.75	375.12
796.93	305.49
797.111	389.46
797.291	330.06
797.471	381.26
797.652	409.94
797.832	303.44
798.012	432.46
798.192	258.39
798.373	323.92
798.553	325.97
798.733	414.03
798.913	295.25
799.093	332.11
799.274	248.15
799.454	360.78
799.634	346.45
799.814	381.26
799.994	323.92
800.174	350.54
800.354	350.54
800.534	328.02
800.714	317.78
800.894	352.59
801.074	239.95
801.254	293.2
801.434	272.72
801.614	309.58
801.794	309.58
801.974	717.13
802.154	274.77
802.334	319.82
802.514	287.06
802.693	258.39
802.873	250.19
803.053	315.73
803.233	342.35
803.413	342.35
803.592	186.71
803.772	258.39
803.952	289.1
804.131	285.01
804.311	328.02
804.491	364.88
804.67	256.34
804.85	297.3
805.03	209.23
805.209	233.81
805.389	248.15
805.568	297.3
805.748	272.72
805.928	299.34
806.107	313.68
806.287	252.24
806.466	280.91
806.646	219.47
806.825	250.19
807.004	258.39
807.184	301.39
807.363	256.34
807.543	188.75
807.722	182.61
807.901	278.87
808.081	254.29
808.26	198.99
808.439	256.34
808.619	266.58
808.798	153.94
808.977	211.28
809.156	293.2
809.336	217.43
809.515	229.71
809.694	192.85
809.873	239.95
810.052	258.39
810.231	258.39
810.411	252.24
810.59	248.15
810.769	258.39
810.948	213.33
811.127	201.04
811.306	219.47
811.485	194.9
811.664	223.57
811.843	198.99
812.022	201.04
812.201	196.95
812.38	235.86
812.559	201.04
812.737	239.95
812.916	164.18
813.095	256.34
813.274	160.08
813.453	272.72
813.632	205.14
813.811	203.09
813.989	172.37
814.168	248.15
814.347	145.75
814.526	246.1
814.704	221.52
814.883	227.67
815.062	141.65
815.24	201.04
815.419	158.03
815.598	233.81
815.776	133.46
815.955	123.22
816.133	235.86
816.312	211.28
816.49	213.33
816.669	135.51
816.847	141.65
817.026	129.36
817.204	112.98
817.383	188.75
817.561	145.75
817.74	198.99
817.918	94.55
818.097	131.41
818.275	155.99
818.453	149.84
818.632	164.18
818.81	131.41
818.988	153.94
819.167	180.56
819.345	164.18
819.523	153.94
819.701	168.27
819.879	233.81
820.058	211.28
820.236	141.65
820.414	67.92
820.592	125.27
820.77	166.23
820.948	192.85
821.127	41.3
821.305	149.84
821.483	129.36
821.661	225.62
821.839	100.69
822.017	129.36
822.195	125.27
822.373	110.93
822.551	72.02
822.729	84.31
822.907	145.75
823.085	155.99
823.262	96.6
823.44	125.27
823.618	72.02
823.796	147.8
823.974	135.51
824.152	96.6
824.329	172.37
824.507	182.61
824.685	78.16
824.863	186.71
825.04	117.08
825.218	96.6
825.396	135.51
825.574	133.46
825.751	125.27
825.929	74.07
826.107	205.14
826.284	141.65
826.462	131.41
826.639	135.51
826.817	129.36
826.994	129.36
827.172	104.79
827.349	164.18
827.527	145.75
827.704	110.93
827.882	127.32
828.059	96.6
828.237	94.55
828.414	63.83
828.591	33.11
828.769	115.03
828.946	72.02
829.124	147.8
829.301	80.21
829.478	108.88
829.655	119.12
829.833	149.84
830.01	45.4
830.187	133.46
830.364	149.84
830.542	108.88
830.719	117.08
830.896	110.93
831.073	147.8
831.25	108.88
831.427	104.79
831.604	100.69
831.782	96.6
831.959	145.75
832.136	149.84
832.313	88.4
832.49	55.64
832.667	100.69
832.844	82.26
833.021	125.27
833.198	160.08
833.374	51.54
833.551	51.54
833.728	110.93
833.905	166.23
834.082	69.97
834.259	102.74
834.436	86.36
834.612	37.2
834.789	151.89
834.966	100.69
835.143	106.84
835.319	78.16
835.496	39.25
835.673	106.84
835.85	115.03
836.026	147.8
836.203	151.89
836.38	51.54
836.556	72.02
836.733	41.3
836.909	69.97
837.086	90.45
837.262	67.92
837.439	98.64
837.616	49.49
837.792	104.79
837.968	135.51
838.145	35.16
838.321	121.17
838.498	155.99
838.674	92.5
838.851	117.08
839.027	35.16
839.203	67.92
839.38	117.08
839.556	84.31
839.732	24.92
839.909	63.83
840.085	63.83
840.261	69.97
840.437	80.21
840.614	43.35
840.79	24.92
840.966	112.98
841.142	59.73
841.318	35.16
841.494	82.26
841.671	53.59
841.847	18.77
842.023	63.83
842.199	90.45
842.375	125.27
842.551	133.46
842.727	74.07
842.903	184.66
843.079	104.79
843.255	65.88
843.431	78.16
843.607	6.49
843.783	16.73
843.959	100.69
844.134	90.45
844.31	59.73
844.486	6.49
844.662	55.64
844.838	24.92
845.013	98.64
845.189	100.69
845.365	22.87
845.541	22.87
845.716	84.31
845.892	108.88
846.068	74.07
846.244	43.35
846.419	45.4
846.595	63.83
846.77	76.12
846.946	72.02
847.122	76.12
847.297	20.82
847.473	53.59
847.648	0.34
847.824	112.98
847.999	-9.9
848.175	69.97
848.35	41.3
848.526	106.84
848.701	80.21
848.876	31.06
849.052	112.98
849.227	65.88
849.403	61.78
849.578	24.92
849.753	74.07
849.929	61.78
850.104	39.25
850.279	61.78
850.454	33.11
850.63	117.08
850.805	41.3
850.98	12.63
851.155	45.4
851.33	6.49
851.505	57.68
851.681	35.16
851.856	112.98
852.031	18.77
852.206	-18.09
852.381	14.68
852.556	55.64
852.731	43.35
852.906	22.87
853.081	67.92
853.256	80.21
853.431	29.01
853.606	47.44
853.781	45.4
853.956	41.3
854.131	22.87
854.305	45.4
854.48	24.92
854.655	37.2
854.83	-7.85
855.005	35.16
855.18	12.63
855.354	82.26
855.529	61.78
855.704	35.16
855.879	53.59
856.053	24.92
856.228	131.41
856.403	8.53
856.577	55.64
856.752	26.96
856.926	24.92
857.101	45.4
857.276	67.92
857.45	117.08
857.625	67.92
857.799	22.87
857.974	102.74
858.148	14.68
858.323	94.55
858.497	26.96
858.672	-13.99
858.846	-3.75
859.02	8.53
859.195	-9.9
859.369	127.32
859.543	20.82
859.718	18.77
859.892	10.58
860.066	37.2
860.241	69.97
860.415	18.77
860.589	82.26
860.763	90.45
860.938	-13.99
861.112	2.39
861.286	22.87
861.46	33.11
861.634	53.59
861.808	49.49
861.982	-11.95
862.157	72.02
862.331	4.44
862.505	35.16
862.679	18.77
862.853	45.4
863.027	55.64
863.201	69.97
863.375	20.82
863.549	43.35
863.722	37.2
863.896	-28.33
864.07	-11.95
864.244	12.63
864.418	51.54
864.592	-48.81
864.766	119.12
864.939	-13.99
865.113	-9.9
865.287	24.92
865.461	94.55
865.634	26.96
865.808	-26.28
865.982	51.54
866.156	-7.85
866.329	-16.04
866.503	55.64
866.676	55.64
866.85	2.39
867.024	4.44
867.197	31.06
867.371	8.53
867.544	49.49
867.718	14.68
867.891	-16.04
868.065	24.92
868.238	0.34
868.412	-11.95
868.585	65.88
868.759	-5.8
868.932	-36.52
869.105	-54.95
869.279	65.88
869.452	0.34
869.625	35.16
869.799	4.44
869.972	6.49
870.145	18.77
870.319	49.49
870.492	76.12
870.665	-57
870.838	57.68
871.011	43.35
871.185	-95.91
871.358	-73.39
871.531	22.87
871.704	6.49
871.877	76.12
872.05	-67.24
872.223	53.59
872.396	43.35
872.569	12.63
872.742	22.87
872.915	43.35
873.088	24.92
873.261	-13.99
873.434	94.55
873.607	14.68
873.78	65.88
873.953	6.49
874.126	55.64
874.299	39.25
874.471	4.44
874.644	41.3
874.817	82.26
874.99	63.83
875.163	61.78
875.335	8.53
875.508	26.96
875.681	72.02
875.853	57.68
876.026	59.73
876.199	51.54
876.371	65.88
876.544	-40.62
876.717	37.2
876.889	31.06
877.062	72.02
877.234	26.96
877.407	35.16
877.579	-1.71
877.752	63.83
877.924	-3.75
878.097	49.49
878.269	12.63
878.442	59.73
878.614	18.77
878.786	10.58
878.959	4.44
879.131	65.88
879.303	-106.15
879.476	-3.75
879.648	-5.8
879.82	47.44
879.993	8.53
880.165	47.44
880.337	43.35
880.509	72.02
880.681	-13.99
880.854	8.53
881.026	12.63
881.198	59.73
881.37	0.34
881.542	55.64
881.714	-22.19
881.886	16.73
882.058	12.63
882.23	47.44
882.402	0.34
882.574	-1.71
882.746	39.25
882.918	47.44
883.09	31.06
883.262	69.97
883.434	31.06
883.606	24.92
883.778	22.87
883.95	63.83
884.122	20.82
884.293	57.68
884.465	-61.1
884.637	57.68
884.809	-59.05
884.98	-9.9
885.152	-46.76
885.324	22.87
885.496	59.73
885.667	-1.71
885.839	-30.38
886.011	51.54
886.182	16.73
886.354	59.73
886.525	-34.47
886.697	65.88
886.869	8.53
887.04	2.39
887.212	-40.62
887.383	-9.9
887.555	78.16
887.726	-3.75
887.897	-46.76
888.069	63.83
888.24	18.77
888.412	24.92
888.583	-5.8
888.754	6.49
888.926	-7.85
889.097	39.25
889.268	29.01
889.44	76.12
889.611	-50.86
889.782	16.73
889.953	-32.43
890.125	119.12
890.296	2.39
890.467	26.96
890.638	-1.71
890.809	-13.99
890.98	-34.47
891.151	29.01
891.323	12.63
891.494	4.44
891.665	-24.23
891.836	76.12
892.007	-30.38
892.178	-11.95
892.349	92.5
892.52	-9.9
892.691	33.11
892.862	-77.48
893.032	35.16
893.203	37.2
893.374	20.82
893.545	31.06
893.716	24.92
893.887	55.64
894.057	0.34
894.228	-32.43
894.399	-26.28
894.57	45.4
894.74	-1.71
894.911	86.36
895.082	4.44
895.253	24.92
895.423	0.34
895.594	49.49
895.764	8.53
895.935	26.96
896.106	4.44
896.276	88.4
896.447	14.68
896.617	-24.23
896.788	-38.57
896.958	10.58
897.129	-9.9
897.299	-18.09
897.47	57.68
897.64	57.68
897.81	-7.85
897.981	39.25
898.151	-1.71
898.322	35.16
898.492	-20.14
898.662	-36.52
898.832	-1.71
899.003	-16.04
899.173	76.12
899.343	41.3
899.513	-11.95
