Data from USB4F104151__56__11-52-26-303.txt Node

Date: Fri Mar 14 11:52:26 EDT 2025
User: louis
Spectrometer: USB4F10415
Trigger mode: 4
Integration Time (sec): 2.000000E-2
Scans to average: 1
Electric dark correction enabled: true
Nonlinearity correction enabled: false
Boxcar width: 0
XAxis mode: Wavelengths
Number of Pixels in Spectrum: 3648
>>>>>Begin Spectral Data<<<<<
178.204	-101.89
178.424	-101.89
178.644	-101.89
178.864	-24.06
179.084	-62.98
179.304	-42.5
179.524	-124.41
179.744	-7.68
179.964	37.38
180.184	12.8
180.404	14.85
180.624	-26.11
180.844	4.61
181.064	29.18
181.283	43.52
181.503	10.75
181.723	47.62
181.943	-110.08
182.163	31.23
182.383	25.09
182.602	25.09
182.822	55.81
183.042	27.14
183.262	53.76
183.482	41.47
183.701	59.9
183.921	14.85
184.141	-52.74
184.361	86.53
184.58	92.67
184.8	51.71
185.02	66.05
185.239	49.66
185.459	31.23
185.679	64
185.898	-28.16
186.118	2.56
186.338	14.85
186.557	31.23
186.777	27.14
186.997	12.8
187.216	64
187.436	53.76
187.655	43.52
187.875	94.72
188.095	90.62
188.314	82.43
188.534	57.86
188.753	55.81
188.973	96.77
189.192	45.57
189.412	41.47
189.631	41.47
189.851	14.85
190.07	37.38
190.29	53.76
190.509	16.9
190.729	43.52
190.948	90.62
191.168	45.57
191.387	14.85
191.607	90.62
191.826	39.42
192.045	31.23
192.265	59.9
192.484	8.7
192.704	51.71
192.923	-11.78
193.142	47.62
193.362	43.52
193.581	94.72
193.8	18.94
194.02	64
194.239	70.14
194.458	18.94
194.678	10.75
194.897	70.14
195.116	18.94
195.335	61.95
195.555	33.28
195.774	57.86
195.993	68.09
196.212	55.81
196.432	-1.54
196.651	-50.69
196.87	12.8
197.089	82.43
197.308	86.53
197.528	37.38
197.747	2.56
197.966	49.66
198.185	12.8
198.404	8.7
198.623	35.33
198.842	82.43
199.062	53.76
199.281	35.33
199.5	109.05
199.719	31.23
199.938	20.99
200.157	35.33
200.376	80.38
200.595	76.29
200.814	113.15
201.033	59.9
201.252	107.01
201.471	76.29
201.69	72.19
201.909	25.09
202.128	33.28
202.347	41.47
202.566	-73.21
202.785	86.53
203.004	25.09
203.223	158.21
203.442	8.7
203.661	41.47
203.879	31.23
204.098	53.76
204.317	43.52
204.536	-28.16
204.755	74.24
204.974	18.94
205.193	74.24
205.411	156.16
205.63	0.51
205.849	111.1
206.068	47.62
206.287	23.04
206.505	64
206.724	51.71
206.943	45.57
207.162	70.14
207.381	47.62
207.599	27.14
207.818	82.43
208.037	51.71
208.255	23.04
208.474	51.71
208.693	35.33
208.911	64
209.13	10.75
209.349	35.33
209.567	86.53
209.786	76.29
210.005	90.62
210.223	74.24
210.442	31.23
210.661	8.7
210.879	64
211.098	51.71
211.316	37.38
211.535	57.86
211.753	16.9
211.972	86.53
212.191	51.71
212.409	121.34
212.628	12.8
212.846	12.8
213.065	86.53
213.283	59.9
213.502	68.09
213.72	-56.83
213.938	8.7
214.157	0.51
214.375	135.68
214.594	-7.68
214.812	-40.45
215.031	2.56
215.249	4.61
215.467	68.09
215.686	14.85
215.904	98.81
216.122	66.05
216.341	68.09
216.559	20.99
216.778	-50.69
216.996	-32.26
217.214	64
217.432	25.09
217.651	6.66
217.869	86.53
218.087	70.14
218.306	51.71
218.524	102.91
218.742	41.47
218.96	68.09
219.179	23.04
219.397	-1.54
219.615	35.33
219.833	6.66
220.051	8.7
220.27	23.04
220.488	70.14
220.706	27.14
220.924	37.38
221.142	59.9
221.36	14.85
221.578	66.05
221.796	53.76
222.015	33.28
222.233	-19.97
222.451	39.42
222.669	33.28
222.887	86.53
223.105	-73.21
223.323	61.95
223.541	0.51
223.759	72.19
223.977	6.66
224.195	53.76
224.413	27.14
224.631	39.42
224.849	78.33
225.067	76.29
225.285	31.23
225.503	57.86
225.721	6.66
225.939	64
226.157	23.04
226.375	64
226.592	43.52
226.81	27.14
227.028	-42.5
227.246	86.53
227.464	29.18
227.682	49.66
227.9	82.43
228.117	-42.5
228.335	55.81
228.553	55.81
228.771	59.9
228.989	74.24
229.206	23.04
229.424	2.56
229.642	96.77
229.86	-9.73
230.077	154.11
230.295	41.47
230.513	14.85
230.731	57.86
230.948	20.99
231.166	96.77
231.384	-77.31
231.601	-24.06
231.819	43.52
232.037	74.24
232.254	41.47
232.472	-58.88
232.689	-19.97
232.907	104.96
233.125	37.38
233.342	119.29
233.56	45.57
233.777	43.52
233.995	41.47
234.213	57.86
234.43	4.61
234.648	88.57
234.865	27.14
235.083	47.62
235.3	16.9
235.518	33.28
235.735	-15.87
235.953	127.49
236.17	59.9
236.388	37.38
236.605	33.28
236.822	104.96
237.04	66.05
237.257	57.86
237.475	33.28
237.692	0.51
237.909	37.38
238.127	2.56
238.344	-36.35
238.562	113.15
238.779	53.76
238.996	53.76
239.214	111.1
239.431	72.19
239.648	10.75
239.865	10.75
240.083	53.76
240.3	53.76
240.517	-19.97
240.735	0.51
240.952	66.05
241.169	102.91
241.386	27.14
241.603	59.9
241.821	25.09
242.038	90.62
242.255	4.61
242.472	78.33
242.689	25.09
242.907	127.49
243.124	39.42
243.341	-54.78
243.558	-1.54
243.775	23.04
243.992	16.9
244.209	86.53
244.426	16.9
244.643	57.86
244.86	10.75
245.078	27.14
245.295	-3.58
245.512	-3.58
245.729	-1.54
245.946	8.7
246.163	61.95
246.38	61.95
246.597	20.99
246.814	14.85
247.031	64
247.248	61.95
247.464	104.96
247.681	29.18
247.898	-34.3
248.115	96.77
248.332	-13.82
248.549	29.18
248.766	115.2
248.983	72.19
249.2	80.38
249.417	-3.58
249.633	78.33
249.85	39.42
250.067	2.56
250.284	80.38
250.501	27.14
250.717	-1.54
250.934	-9.73
251.151	-19.97
251.368	90.62
251.585	115.2
251.801	107.01
252.018	59.9
252.235	96.77
252.451	6.66
252.668	2.56
252.885	-11.78
253.102	117.25
253.318	53.76
253.535	25.09
253.752	64
253.968	74.24
254.185	-5.63
254.401	64
254.618	18.94
254.835	92.67
255.051	4.61
255.268	64
255.484	37.38
255.701	-34.3
255.917	59.9
256.134	55.81
256.351	53.76
256.567	8.7
256.784	51.71
257	41.47
257.217	29.18
257.433	78.33
257.65	18.94
257.866	31.23
258.082	31.23
258.299	-7.68
258.515	70.14
258.732	45.57
258.948	131.58
259.165	-3.58
259.381	47.62
259.597	-38.4
259.814	80.38
260.03	70.14
260.246	57.86
260.463	74.24
260.679	84.48
260.895	39.42
261.112	27.14
261.328	49.66
261.544	16.9
261.761	70.14
261.977	20.99
262.193	33.28
262.409	31.23
262.626	39.42
262.842	88.57
263.058	39.42
263.274	18.94
263.49	88.57
263.707	51.71
263.923	33.28
264.139	51.71
264.355	82.43
264.571	78.33
264.787	82.43
265.004	31.23
265.22	-13.82
265.436	37.38
265.652	41.47
265.868	117.25
266.084	86.53
266.3	133.63
266.516	25.09
266.732	37.38
266.948	8.7
267.164	80.38
267.38	41.47
267.596	74.24
267.812	78.33
268.028	53.76
268.244	37.38
268.46	39.42
268.676	104.96
268.892	66.05
269.108	4.61
269.324	98.81
269.54	23.04
269.756	107.01
269.972	16.9
270.188	16.9
270.403	0.51
270.619	55.81
270.835	20.99
271.051	23.04
271.267	6.66
271.483	20.99
271.698	23.04
271.914	49.66
272.13	20.99
272.346	4.61
272.562	47.62
272.777	33.28
272.993	-1.54
273.209	59.9
273.425	-7.68
273.64	-13.82
273.856	90.62
274.072	23.04
274.287	6.66
274.503	39.42
274.719	88.57
274.934	100.86
275.15	82.43
275.366	47.62
275.581	8.7
275.797	-24.06
276.012	-28.16
276.228	47.62
276.444	33.28
276.659	43.52
276.875	76.29
277.09	80.38
277.306	14.85
277.521	25.09
277.737	70.14
277.952	119.29
278.168	2.56
278.383	6.66
278.599	41.47
278.814	31.23
279.03	8.7
279.245	41.47
279.461	33.28
279.676	33.28
279.892	66.05
280.107	57.86
280.322	41.47
280.538	20.99
280.753	20.99
280.969	59.9
281.184	59.9
281.399	14.85
281.615	90.62
281.83	117.25
282.045	20.99
282.26	61.95
282.476	16.9
282.691	86.53
282.906	14.85
283.122	-5.63
283.337	51.71
283.552	47.62
283.767	78.33
283.983	55.81
284.198	80.38
284.413	107.01
284.628	47.62
284.843	23.04
285.058	35.33
285.274	84.48
285.489	31.23
285.704	-7.68
285.919	41.47
286.134	70.14
286.349	72.19
286.564	64
286.779	86.53
286.995	61.95
287.21	16.9
287.425	100.86
287.64	6.66
287.855	2.56
288.07	66.05
288.285	117.25
288.5	61.95
288.715	35.33
288.93	25.09
289.145	80.38
289.36	113.15
289.575	90.62
289.79	31.23
290.004	96.77
290.219	104.96
290.434	57.86
290.649	61.95
290.864	-28.16
291.079	47.62
291.294	84.48
291.509	31.23
291.724	72.19
291.938	45.57
292.153	64
292.368	51.71
292.583	47.62
292.798	102.91
293.012	135.68
293.227	84.48
293.442	53.76
293.657	55.81
293.871	64
294.086	39.42
294.301	86.53
294.516	6.66
294.73	-5.63
294.945	70.14
295.16	41.47
295.374	6.66
295.589	74.24
295.804	10.75
296.018	84.48
296.233	53.76
296.447	111.1
296.662	20.99
296.877	109.05
297.091	31.23
297.306	-15.87
297.52	55.81
297.735	70.14
297.949	10.75
298.164	47.62
298.378	-34.3
298.593	70.14
298.807	-34.3
299.022	90.62
299.236	104.96
299.451	29.18
299.665	74.24
299.88	80.38
300.094	20.99
300.309	-42.5
300.523	76.29
300.737	84.48
300.952	33.28
301.166	78.33
301.381	37.38
301.595	29.18
301.809	25.09
302.024	-9.73
302.238	27.14
302.452	96.77
302.667	68.09
302.881	96.77
303.095	41.47
303.309	43.52
303.524	43.52
303.738	57.86
303.952	31.23
304.166	70.14
304.381	37.38
304.595	94.72
304.809	29.18
305.023	88.57
305.237	80.38
305.452	29.18
305.666	57.86
305.88	18.94
306.094	104.96
306.308	31.23
306.522	23.04
306.736	117.25
306.95	82.43
307.164	59.9
307.379	-5.63
307.593	55.81
307.807	20.99
308.021	45.57
308.235	127.49
308.449	-32.26
308.663	39.42
308.877	100.86
309.091	51.71
309.305	104.96
309.519	27.14
309.733	115.2
309.947	53.76
310.161	100.86
310.374	53.76
310.588	51.71
310.802	-62.98
311.016	27.14
311.23	-17.92
311.444	2.56
311.658	84.48
311.872	4.61
312.085	104.96
312.299	59.9
312.513	57.86
312.727	2.56
312.941	14.85
313.154	43.52
313.368	35.33
313.582	76.29
313.796	39.42
314.009	53.76
314.223	61.95
314.437	16.9
314.651	43.52
314.864	70.14
315.078	41.47
315.292	49.66
315.505	25.09
315.719	123.39
315.933	76.29
316.146	2.56
316.36	53.76
316.573	55.81
316.787	-3.58
317.001	141.82
317.214	8.7
317.428	25.09
317.641	47.62
317.855	107.01
318.068	45.57
318.282	86.53
318.495	31.23
318.709	53.76
318.922	96.77
319.136	66.05
319.349	33.28
319.563	51.71
319.776	4.61
319.99	33.28
320.203	14.85
320.417	90.62
320.63	0.51
320.843	84.48
321.057	88.57
321.27	-11.78
321.483	0.51
321.697	168.45
321.91	45.57
322.124	25.09
322.337	86.53
322.55	47.62
322.763	41.47
322.977	76.29
323.19	16.9
323.403	109.05
323.617	90.62
323.83	121.34
324.043	-7.68
324.256	64
324.469	27.14
324.683	94.72
324.896	47.62
325.109	20.99
325.322	70.14
325.535	33.28
325.748	55.81
325.962	57.86
326.175	57.86
326.388	86.53
326.601	74.24
326.814	68.09
327.027	-5.63
327.24	74.24
327.453	137.73
327.666	109.05
327.879	125.44
328.092	18.94
328.305	37.38
328.518	51.71
328.731	0.51
328.944	127.49
329.157	31.23
329.37	47.62
329.583	107.01
329.796	84.48
330.009	23.04
330.222	57.86
330.435	20.99
330.648	70.14
330.861	18.94
331.073	61.95
331.286	31.23
331.499	27.14
331.712	86.53
331.925	96.77
332.138	25.09
332.35	84.48
332.563	64
332.776	41.47
332.989	86.53
333.202	66.05
333.414	53.76
333.627	31.23
333.84	107.01
334.053	27.14
334.265	80.38
334.478	37.38
334.691	100.86
334.903	72.19
335.116	82.43
335.329	82.43
335.541	61.95
335.754	115.2
335.966	57.86
336.179	18.94
336.392	37.38
336.604	27.14
336.817	131.58
337.029	43.52
337.242	90.62
337.454	14.85
337.667	27.14
337.88	176.64
338.092	72.19
338.305	72.19
338.517	59.9
338.729	51.71
338.942	47.62
339.154	68.09
339.367	12.8
339.579	51.71
339.792	80.38
340.004	88.57
340.217	29.18
340.429	16.9
340.641	59.9
340.854	76.29
341.066	49.66
341.278	107.01
341.491	27.14
341.703	66.05
341.915	61.95
342.128	72.19
342.34	-11.78
342.552	55.81
342.764	59.9
342.977	90.62
343.189	143.87
343.401	82.43
343.613	-22.02
343.826	-42.5
344.038	70.14
344.25	121.34
344.462	47.62
344.674	2.56
344.886	64
345.099	90.62
345.311	125.44
345.523	45.57
345.735	-17.92
345.947	156.16
346.159	107.01
346.371	29.18
346.583	41.47
346.795	80.38
347.007	70.14
347.219	68.09
347.431	23.04
347.643	68.09
347.855	14.85
348.067	96.77
348.279	8.7
348.491	37.38
348.703	66.05
348.915	41.47
349.127	-3.58
349.339	-34.3
349.551	16.9
349.763	12.8
349.975	74.24
350.187	72.19
350.399	37.38
350.61	70.14
350.822	49.66
351.034	45.57
351.246	37.38
351.458	68.09
351.669	78.33
351.881	20.99
352.093	57.86
352.305	104.96
352.517	20.99
352.728	84.48
352.94	33.28
353.152	47.62
353.363	-5.63
353.575	64
353.787	72.19
353.999	20.99
354.21	123.39
354.422	10.75
354.633	51.71
354.845	80.38
355.057	68.09
355.268	49.66
355.48	64
355.692	78.33
355.903	111.1
356.115	18.94
356.326	74.24
356.538	131.58
356.749	164.35
356.961	117.25
357.172	86.53
357.384	25.09
357.595	168.45
357.807	107.01
358.018	20.99
358.23	68.09
358.441	131.58
358.653	92.67
358.864	78.33
359.075	31.23
359.287	70.14
359.498	-5.63
359.709	20.99
359.921	92.67
360.132	61.95
360.344	78.33
360.555	0.51
360.766	96.77
360.977	6.66
361.189	96.77
361.4	4.61
361.611	61.95
361.823	4.61
362.034	49.66
362.245	14.85
362.456	129.53
362.667	20.99
362.879	25.09
363.09	35.33
363.301	125.44
363.512	61.95
363.723	29.18
363.935	94.72
364.146	94.72
364.357	41.47
364.568	-11.78
364.779	78.33
364.99	94.72
365.201	53.76
365.412	86.53
365.623	18.94
365.834	61.95
366.045	-30.21
366.256	-22.02
366.467	51.71
366.678	98.81
366.889	68.09
367.1	80.38
367.311	104.96
367.522	70.14
367.733	51.71
367.944	49.66
368.155	102.91
368.366	98.81
368.577	61.95
368.788	76.29
368.999	31.23
369.209	66.05
369.42	135.68
369.631	176.64
369.842	61.95
370.053	-3.58
370.264	43.52
370.474	-15.87
370.685	18.94
370.896	59.9
371.107	61.95
371.317	39.42
371.528	41.47
371.739	96.77
371.95	102.91
372.16	12.8
372.371	29.18
372.582	94.72
372.792	107.01
373.003	35.33
373.214	33.28
373.424	150.01
373.635	41.47
373.846	68.09
374.056	107.01
374.267	115.2
374.477	47.62
374.688	-24.06
374.898	27.14
375.109	39.42
375.319	107.01
375.53	98.81
375.74	-7.68
375.951	86.53
376.161	33.28
376.372	45.57
376.582	41.47
376.793	47.62
377.003	31.23
377.214	27.14
377.424	16.9
377.635	59.9
377.845	8.7
378.055	174.59
378.266	12.8
378.476	29.18
378.686	80.38
378.897	121.34
379.107	82.43
379.317	57.86
379.528	123.39
379.738	37.38
379.948	35.33
380.158	119.29
380.369	70.14
380.579	96.77
380.789	92.67
380.999	59.9
381.21	31.23
381.42	47.62
381.63	55.81
381.84	90.62
382.05	27.14
382.261	107.01
382.471	18.94
382.681	68.09
382.891	135.68
383.101	2.56
383.311	14.85
383.521	-60.93
383.731	80.38
383.941	41.47
384.151	47.62
384.361	133.63
384.571	25.09
384.781	74.24
384.991	92.67
385.201	27.14
385.411	107.01
385.621	39.42
385.831	113.15
386.041	74.24
386.251	96.77
386.461	127.49
386.671	31.23
386.881	135.68
387.091	14.85
387.301	94.72
387.511	66.05
387.72	64
387.93	186.88
388.14	70.14
388.35	100.86
388.56	96.77
388.769	96.77
388.979	96.77
389.189	98.81
389.399	86.53
389.609	92.67
389.818	43.52
390.028	33.28
390.238	76.29
390.447	96.77
390.657	96.77
390.867	78.33
391.076	127.49
391.286	35.33
391.496	119.29
391.705	115.2
391.915	47.62
392.125	55.81
392.334	76.29
392.544	104.96
392.753	53.76
392.963	84.48
393.172	53.76
393.382	59.9
393.591	125.44
393.801	45.57
394.01	92.67
394.22	64
394.429	47.62
394.639	86.53
394.848	96.77
395.058	92.67
395.267	137.73
395.477	90.62
395.686	107.01
395.895	209.4
396.105	115.2
396.314	125.44
396.524	143.87
396.733	88.57
396.942	113.15
397.152	98.81
397.361	10.75
397.57	104.96
397.78	172.54
397.989	129.53
398.198	78.33
398.407	109.05
398.617	170.49
398.826	139.77
399.035	147.97
399.244	82.43
399.453	139.77
399.663	86.53
399.872	88.57
400.081	45.57
400.29	111.1
400.499	74.24
400.708	113.15
400.917	133.63
401.127	145.92
401.336	133.63
401.545	168.45
401.754	188.93
401.963	127.49
402.172	109.05
402.381	133.63
402.59	168.45
402.799	98.81
403.008	109.05
403.217	143.87
403.426	147.97
403.635	193.02
403.844	172.54
404.053	176.64
404.262	131.58
404.471	248.32
404.68	107.01
404.888	102.91
405.097	115.2
405.306	100.86
405.515	123.39
405.724	168.45
405.933	145.92
406.142	227.84
406.35	203.26
406.559	172.54
406.768	180.73
406.977	186.88
407.185	256.51
407.394	236.03
407.603	164.35
407.812	285.18
408.02	240.12
408.229	137.73
408.438	250.36
408.646	289.28
408.855	262.65
409.064	242.17
409.272	299.52
409.481	342.52
409.69	336.38
409.898	258.56
410.107	322.04
410.315	363
410.524	330.23
410.733	330.23
410.941	336.38
411.15	344.57
411.358	406.01
411.567	414.2
411.775	270.84
411.984	334.33
412.192	385.53
412.401	385.53
412.609	436.73
412.818	510.46
413.026	559.61
413.234	479.74
413.443	498.17
413.651	475.64
413.86	481.78
414.068	582.14
414.276	608.76
414.485	567.8
414.693	565.75
414.901	686.58
415.11	674.29
415.318	694.77
415.526	690.68
415.734	680.44
415.943	727.54
416.151	844.28
416.359	754.16
416.567	856.56
416.776	797.17
416.984	848.37
417.192	877.04
417.4	893.43
417.608	918
417.817	936.43
418.025	932.34
418.233	1067.5
418.441	1085.94
418.649	1169.9
418.857	1171.95
419.065	1190.38
419.273	1139.18
419.481	1298.92
419.689	1296.88
419.897	1290.73
420.105	1348.08
420.313	1409.51
420.521	1532.39
420.729	1544.68
420.937	1468.91
421.145	1542.63
421.353	1655.27
421.561	1708.52
421.769	1784.29
421.977	1837.54
422.185	1761.77
422.393	1968.61
422.601	2089.44
422.809	2019.81
423.017	2097.63
423.224	2109.92
423.432	2269.66
423.64	2337.24
423.848	2453.98
424.056	2509.27
424.263	2564.57
424.471	2509.27
424.679	2570.71
424.887	2826.71
425.094	2896.34
425.302	2998.74
425.51	2900.44
425.718	3023.31
425.925	3238.35
426.133	3260.88
426.341	3486.15
426.548	3584.46
426.756	3516.87
426.964	3623.37
427.171	3762.63
427.379	3916.23
427.586	3928.52
427.794	4106.69
428.001	4096.45
428.209	4381.12
428.417	4477.37
428.624	4643.26
428.832	4665.78
429.039	4688.31
429.247	4850.1
429.454	5124.53
429.662	5556.65
429.869	4985.27
430.076	5439.92
430.284	5185.97
430.491	5519.79
430.699	5816.74
430.906	5890.47
431.114	6035.88
431.321	6115.75
431.528	6457.76
431.736	6644.12
431.943	6855.06
432.15	6896.02
432.358	6728.09
432.565	7293.33
432.772	7049.62
432.979	7526.8
433.187	7737.74
433.394	7657.87
433.601	8184.2
433.808	8296.83
434.016	8352.13
434.223	8661.37
434.43	9152.88
434.637	8964.47
434.844	9640.3
435.052	9738.6
435.259	9501.04
435.466	9611.63
435.673	9605.49
435.88	10348.9
436.087	10772.83
436.294	10768.73
436.501	10617.18
436.708	10674.53
436.915	11202.9
437.122	11592.02
437.329	11686.22
437.537	12138.82
437.743	12308.8
437.95	12030.28
438.157	12751.17
438.364	13025.59
438.571	13115.7
438.778	12939.58
438.985	14254.37
439.192	13762.86
439.399	14248.23
439.606	13842.73
439.813	14805.28
440.02	15687.95
440.227	15362.33
440.433	14973.21
440.64	15847.69
440.847	15569.17
441.054	15800.59
441.261	16883.97
441.467	16697.6
441.674	17144.06
441.881	17674.48
442.088	17582.32
442.294	17617.14
442.501	17897.71
442.708	18243.82
442.914	18960.61
443.121	19921.1
443.328	19132.64
443.534	20709.57
443.741	20252.87
443.948	20017.36
444.154	21551.29
444.361	21145.79
444.568	21436.6
444.774	21471.42
444.981	21747.89
445.187	22231.21
445.394	23191.71
445.6	22716.58
445.807	25112.7
446.013	24285.33
446.22	24412.3
446.426	25448.57
446.633	25346.17
446.839	26648.68
447.046	25546.87
447.252	26472.56
447.459	26548.33
447.665	26818.66
447.871	27844.7
448.078	29069.38
448.284	27971.67
448.491	28438.61
448.697	29233.22
448.903	30210.1
449.11	30318.64
449.316	29620.28
449.522	29921.34
449.728	30951.46
449.935	31238.18
450.141	31238.18
450.347	31760.41
450.553	30806.06
450.76	31117.35
450.966	32485.39
451.172	31850.52
451.378	32786.44
451.584	32104.47
451.791	33001.48
451.997	32937.99
452.203	33202.18
452.409	33173.51
452.615	33015.82
452.821	32036.89
453.027	31846.43
453.233	33368.07
453.44	31969.3
453.646	32303.12
453.852	32436.24
454.058	33243.14
454.264	31979.54
454.47	32690.19
454.676	31463.46
454.882	32931.85
455.088	29982.77
455.294	30816.3
455.5	30859.31
455.705	31395.87
455.911	30150.71
456.117	29360.19
456.323	29325.38
456.529	27918.42
456.735	28868.68
456.941	28135.51
457.147	27670.62
457.352	26761.32
457.558	26239.09
457.764	26458.22
457.97	25731.19
458.176	25491.58
458.381	25501.82
458.587	24074.38
458.793	24309.9
458.999	23077.02
459.204	24531.08
459.41	23986.32
459.616	22433.96
459.821	22132.91
460.027	22448.3
460.233	21952.69
460.438	20818.11
460.644	20760.77
460.85	19888.34
461.055	19441.88
461.261	19763.41
461.466	18125.04
461.672	17600.76
461.878	18931.94
462.083	17334.52
462.289	17260.79
462.494	16974.08
462.7	16288.01
462.905	15862.03
463.111	16486.66
463.316	16670.98
463.522	16148.75
463.727	16242.95
463.932	16185.61
464.138	16042.25
464.343	16136.46
464.549	15474.96
464.754	16161.03
464.959	15847.69
465.165	15880.46
465.37	15173.91
465.575	14706.98
465.781	15266.07
465.986	15528.21
466.191	15110.43
466.397	14590.24
466.602	13904.17
466.807	14580
467.012	14412.07
467.218	14532.9
467.423	14264.61
467.628	14299.43
467.833	14848.29
468.038	14235.94
468.244	14217.51
468.449	14483.75
468.654	13885.74
468.859	13957.42
469.064	13916.46
469.269	13318.45
469.474	13338.93
469.679	13558.07
469.885	13332.79
470.09	13533.49
470.295	13410.61
470.5	13064.5
470.705	13035.83
470.91	12790.08
471.115	12843.32
471.32	12839.23
471.525	12648.77
471.73	12595.52
471.935	12570.94
472.139	12183.88
472.344	12214.6
472.549	12024.14
472.754	11940.17
472.959	11716.94
473.164	11485.52
473.369	11362.64
473.574	11743.56
473.778	11735.37
473.983	11610.45
474.188	11266.39
474.393	10905.95
474.598	11116.89
474.802	10936.67
475.007	10934.62
475.212	10887.51
475.417	10348.9
475.621	10580.32
475.826	10549.6
476.031	10340.71
476.235	9990.5
476.44	10117.48
476.645	10082.66
476.849	10099.05
477.054	9582.96
477.259	9808.23
477.463	9855.34
477.668	9449.84
477.872	9714.03
478.077	9427.31
478.282	9105.78
478.486	9140.6
478.691	9140.6
478.895	9185.65
479.1	9077.11
479.304	9175.41
479.509	8757.63
479.713	9130.36
479.918	8894.84
480.122	8696.19
480.326	8825.21
480.531	8628.6
480.735	8475.01
480.94	8589.69
481.144	8837.5
481.348	8331.65
481.553	8524.16
481.757	8532.35
481.961	8581.5
482.166	8505.73
482.37	8571.26
482.574	8329.6
482.778	8530.3
482.983	8616.32
483.187	8300.93
483.391	8374.66
483.595	8399.23
483.8	8434.05
484.004	8284.55
484.208	8563.07
484.412	8384.9
484.616	8356.22
484.821	8464.77
485.025	8436.1
485.229	8528.25
485.433	8282.5
485.637	8358.27
485.841	8403.33
486.045	8421.76
486.249	8421.76
486.453	8182.15
486.657	8276.35
486.861	8417.66
487.065	8147.33
487.269	8360.32
487.473	8274.31
487.677	8388.99
487.881	8589.69
488.085	8294.79
488.289	8376.7
488.493	8413.57
488.697	8438.14
488.901	8487.29
489.105	8458.62
489.309	8417.66
489.512	8436.1
489.716	8460.67
489.92	8335.74
490.124	8544.64
490.328	8665.47
490.531	8497.53
490.735	8620.41
490.939	8593.79
491.143	8628.6
491.346	8538.49
491.55	8567.17
491.754	8728.95
491.958	8751.48
492.161	8802.68
492.365	8747.39
492.569	8780.15
492.772	8790.39
492.976	8984.95
493.18	9195.89
493.383	9005.43
493.587	8968.57
493.79	9242.99
493.994	9101.69
494.197	9099.64
494.401	9349.49
494.605	9302.39
494.808	9398.64
495.012	9496.94
495.215	9408.88
495.419	9615.73
495.622	9621.87
495.825	9746.8
496.029	9765.23
496.232	9970.02
496.436	10004.84
496.639	10340.71
496.843	10127.72
497.046	10236.26
497.249	10449.25
497.453	10289.51
497.656	10551.65
497.859	10459.49
498.063	10639.71
498.266	10826.07
498.469	10938.71
498.673	11092.31
498.876	11131.22
499.079	11118.93
499.282	11147.61
499.485	11413.84
499.689	11446.61
499.892	11581.78
500.095	11723.09
500.298	11938.12
500.501	11919.69
500.705	12218.69
500.908	12310.85
501.111	12364.1
501.314	12642.62
501.517	12765.5
501.72	12796.22
501.923	12910.91
502.126	13084.98
502.329	13318.45
502.532	13474.1
502.735	13388.08
502.938	13660.46
503.141	13756.72
503.344	13998.38
503.547	14037.29
503.75	14231.85
503.953	14479.65
504.156	14508.32
504.359	14719.26
504.562	14960.92
504.765	15042.84
504.968	15239.45
505.17	15460.63
505.373	15145.24
505.576	15733.01
505.779	15784.21
505.982	15923.47
506.185	16122.12
506.387	16165.13
506.59	16515.33
506.793	16877.82
506.996	16822.53
507.198	17164.54
507.401	16836.86
507.604	17355
507.807	17555.7
508.009	17514.74
508.212	17801.46
508.415	18000.11
508.617	18544.87
508.82	18405.61
509.022	18280.68
509.225	18807.01
509.428	19028.19
509.63	18886.88
509.833	19040.48
510.035	19742.93
510.238	19661.01
510.44	19730.64
510.643	20132.04
510.845	20342.99
511.048	20123.85
511.25	20582.6
511.453	20834.5
511.655	21211.32
511.858	21006.53
512.06	21323.96
512.262	21446.84
512.465	21596.34
512.667	21805.24
512.87	22210.73
513.072	22104.24
513.274	22614.18
513.477	22904.99
513.679	22780.07
513.881	23150.75
514.084	23255.2
514.286	23201.95
514.488	23462.04
514.69	24328.33
514.893	24359.05
515.095	24019.09
515.297	24588.42
515.499	24658.06
515.701	24752.26
515.904	25163.9
516.106	25055.36
516.308	25624.7
516.51	25860.21
516.712	25829.49
516.914	26230.9
517.116	26937.44
517.318	26534
517.52	26816.61
517.722	26945.64
517.925	27340.89
518.127	27734.1
518.329	27674.71
518.531	27863.13
518.733	28358.74
518.935	28409.93
519.136	28710.99
519.338	29098.05
519.54	28907.59
519.742	29501.5
519.944	29423.68
520.146	29859.9
520.348	30124.08
520.55	30140.47
520.752	30310.45
520.954	31031.33
521.155	30777.39
521.357	31256.61
521.559	31424.54
521.761	31950.87
521.963	32014.36
522.164	32069.65
522.366	32112.66
522.568	32370.71
522.77	32561.17
522.971	33128.45
523.173	33007.62
523.375	33220.61
523.576	32937.99
523.778	33357.83
523.98	33742.85
524.181	33794.04
524.383	33947.64
524.584	34170.87
524.786	34465.78
524.988	34267.13
525.189	35014.63
525.391	35008.49
525.592	35121.13
525.794	35381.22
525.995	35149.8
526.197	35289.06
526.398	35332.07
526.6	35762.14
526.801	35985.37
527.003	36311
527.204	36208.6
527.406	36435.92
527.607	36354.01
527.808	36700.11
528.01	36501.46
528.211	36698.06
528.412	37203.91
528.614	36966.35
528.815	37351.37
529.016	37728.19
529.218	37300.17
529.419	37158.86
529.62	37431.24
529.822	37486.53
530.023	37556.16
530.224	37732.29
530.425	37509.06
530.626	37619.65
530.828	37531.59
531.029	38051.77
531.23	37787.58
531.431	37928.89
531.632	38174.65
531.833	38471.6
532.035	37803.97
532.236	38414.26
532.437	38672.31
532.638	38195.13
532.839	38342.58
533.04	38240.18
533.241	37943.23
533.442	38627.25
533.643	38657.97
533.844	38270.9
534.045	38463.41
534.246	38309.82
534.447	38477.75
534.648	38401.97
534.849	38547.38
535.05	38571.96
535.251	38279.1
535.451	38483.89
535.652	38576.05
535.853	38854.58
536.054	38959.02
536.255	38629.3
536.456	38588.34
536.657	38610.87
536.857	38533.04
537.058	38786.99
537.259	39102.38
537.46	38709.17
537.66	38391.73
537.861	38885.29
538.062	38557.62
538.263	38817.71
538.463	38528.95
538.664	38727.6
538.865	38700.98
539.065	38926.25
539.266	38475.7
539.466	39049.13
539.667	38561.72
539.868	38911.92
540.068	38932.4
540.269	38236.09
540.469	39116.72
540.67	38819.76
540.87	38639.54
541.071	38649.78
541.271	38983.6
541.472	38735.79
541.672	38426.55
541.873	38330.3
542.073	37865.41
542.274	39137.19
542.474	38594.48
542.675	38191.03
542.875	38733.74
543.075	39088.04
543.276	38612.91
543.476	38766.51
543.676	38363.06
543.877	38416.31
544.077	38483.89
544.277	38610.87
544.478	38315.96
544.678	38786.99
544.878	38881.2
545.078	38338.49
545.279	38115.26
545.479	38133.69
545.679	38465.46
545.879	38778.8
546.079	38588.34
546.28	38617.01
546.48	38113.21
546.68	38318.01
546.88	38367.16
547.08	38465.46
547.28	38430.65
547.48	37722.05
547.68	38526.9
547.88	38115.26
548.081	38455.22
548.281	38621.11
548.481	38422.45
548.681	38533.04
548.881	38676.4
549.081	38217.66
549.28	38209.46
549.48	38457.27
549.68	38014.91
549.88	38938.54
550.08	38156.22
550.28	38184.89
550.48	38064.06
550.68	38535.09
550.88	38088.63
551.08	38012.86
551.279	38266.81
551.479	37750.72
551.679	38328.25
551.879	37910.46
552.079	38412.21
552.278	37955.52
552.478	38324.15
552.678	38229.94
552.878	38076.35
553.077	38088.63
553.277	37832.64
553.477	38442.93
553.676	38027.2
553.876	38244.28
554.076	37889.98
554.275	37760.96
554.475	37646.27
554.674	37896.13
554.874	38039.48
555.074	37531.59
555.273	37746.62
555.473	38047.68
555.672	37570.5
555.872	37492.68
556.071	37724.1
556.271	37640.13
556.47	37707.71
556.67	36894.67
556.869	37681.09
557.068	37844.93
557.268	37050.31
557.467	36986.83
557.667	37322.69
557.866	37339.08
558.065	37251.02
558.265	37089.23
558.464	36786.13
558.663	37599.17
558.863	36988.88
559.062	37828.54
559.261	36628.43
559.461	37251.02
559.66	36493.27
559.859	37038.03
560.058	36663.25
560.258	36927.44
560.457	36356.05
560.656	37136.33
560.855	36548.56
561.054	36415.44
561.253	36480.98
561.453	36349.91
561.652	36194.26
561.851	36462.55
562.05	35876.83
562.249	36112.34
562.448	36687.82
562.647	36278.23
562.846	36204.5
563.045	35764.19
563.244	35833.82
563.443	36255.7
563.642	35440.61
563.841	35850.2
564.04	35516.39
564.239	35932.12
564.438	35313.64
564.637	35399.65
564.836	35563.49
565.035	35114.98
565.234	35483.62
565.432	35112.94
565.631	35055.59
565.83	35500
566.029	34664.43
566.228	35047.4
566.427	34869.23
566.625	34777.07
566.824	34357.24
567.023	35219.43
567.222	34031.61
567.42	34707.44
567.619	34686.96
567.818	34336.76
568.016	34076.66
568.215	34621.42
568.414	34142.2
568.612	34140.15
568.811	33884.15
569.01	34121.72
569.208	33437.7
569.407	34099.19
569.605	33318.92
569.804	34062.33
570.002	33550.34
570.201	33564.67
570.4	33097.73
570.598	33486.85
570.797	33261.57
570.995	33331.2
571.193	32864.27
571.392	32987.14
571.59	33112.07
571.789	32950.28
571.987	32372.75
572.186	32839.69
572.384	32448.53
572.582	32694.29
572.781	32350.23
572.979	32288.79
573.177	32051.22
573.376	32251.92
573.574	32200.72
573.772	32258.07
573.971	31823.9
574.169	31471.65
574.367	31696.92
574.565	31932.44
574.763	31758.36
574.962	31569.95
575.16	31352.87
575.358	31512.61
575.556	31184.93
575.754	31516.7
575.952	30918.7
576.151	31420.45
576.349	30910.5
576.547	30982.18
576.745	30668.84
576.943	31014.95
577.141	30496.81
577.339	30730.28
577.537	30507.05
577.735	30636.08
577.933	30437.42
578.131	30201.91
578.329	30279.73
578.527	30038.07
578.725	30150.71
578.923	30359.6
579.121	29673.53
579.319	29771.83
579.516	29915.19
579.714	30025.78
579.912	29698.11
580.11	29618.24
580.308	29837.37
580.506	29675.58
580.704	29110.34
580.901	29179.97
581.099	29452.35
581.297	29069.38
581.495	28844.1
581.692	28956.74
581.89	28905.54
582.088	29292.61
582.285	28780.62
582.483	28663.88
582.681	28336.21
582.878	28510.28
583.076	28586.06
583.274	28647.5
583.471	28069.97
583.669	28354.64
583.866	28102.74
584.064	28219.47
584.262	27820.12
584.459	28278.86
584.657	27920.47
584.854	28215.38
585.052	27986
585.249	27582.56
585.447	27734.1
585.644	27027.56
585.841	27611.23
586.039	27684.95
586.236	26978.4
586.434	27068.51
586.631	27086.95
586.828	26908.77
587.026	26865.77
587.223	26843.24
587.42	26839.14
587.618	26902.63
587.815	26372.21
588.012	26570.86
588.21	26433.64
588.407	26851.43
588.604	26482.8
588.801	26329.2
588.999	26243.18
589.196	26404.97
589.393	26275.95
589.59	25886.84
589.787	25651.32
589.984	25905.27
590.182	25473.15
590.379	26165.36
590.576	25659.51
590.773	25944.18
590.97	25634.94
591.167	25421.95
591.364	25241.73
591.561	25198.72
591.758	25127.04
591.955	24989.83
592.152	25354.37
592.349	24793.22
592.546	25137.28
592.743	25084.03
592.94	24631.43
593.137	24969.35
593.334	25038.98
593.531	24592.52
593.727	24903.81
593.924	24483.98
594.121	24412.3
594.318	24520.84
594.515	23744.66
594.712	24316.04
594.908	23947.41
595.105	24348.81
595.302	23945.36
595.499	23873.68
595.696	23775.38
595.892	23787.67
596.089	23859.35
596.286	23777.43
596.482	23492.76
596.679	23701.65
596.876	23572.63
597.072	23277.72
597.269	23574.68
597.466	23134.37
597.662	23007.39
597.859	23253.15
598.055	23253.15
598.252	23126.18
598.448	23191.71
598.645	22814.88
598.841	22603.94
599.038	22780.07
599.234	22687.91
599.431	22565.03
599.627	22499.5
599.824	22227.12
600.02	22366.38
600.217	22534.31
600.413	22165.68
600.609	22393
600.806	21991.6
601.002	21840.05
601.198	21801.14
601.395	21762.23
601.591	21948.59
601.787	21967.02
601.984	21696.69
602.18	21698.74
602.376	21358.78
602.572	21706.93
602.769	21706.93
602.965	20895.94
603.161	21172.41
603.357	21207.23
603.553	21082.3
603.75	21235.9
603.946	21227.71
604.142	21115.07
604.338	20545.73
604.534	21061.82
604.73	20703.43
604.926	20496.58
605.122	20900.03
605.318	20453.58
605.514	20644.04
605.71	20422.86
605.906	20433.1
606.102	20521.16
606.298	20334.79
606.494	20414.66
606.69	19990.73
606.886	20062.41
607.082	20037.84
607.278	20144.33
607.474	19794.13
607.67	19861.71
607.866	19912.91
608.062	19953.87
608.257	19806.42
608.453	19861.71
608.649	19884.24
608.845	19519.7
609.041	19622.1
609.236	19708.12
609.432	19652.82
609.628	19497.17
609.824	19507.41
610.019	19298.52
610.215	19077.34
610.411	19398.87
610.606	19458.26
610.802	19362.01
610.998	18960.61
611.193	19144.92
611.389	19011.81
611.584	19155.16
611.78	19017.95
611.976	19161.31
612.171	18991.33
612.367	18938.08
612.562	18821.34
612.758	18807.01
612.953	18544.87
613.149	18938.08
613.344	18555.11
613.539	19038.43
613.735	18692.32
613.93	18686.18
614.126	18528.49
614.321	18567.4
614.517	18583.78
614.712	18491.62
614.907	18221.29
615.103	18776.29
615.298	18090.22
615.493	18473.19
615.688	18165.99
615.884	18356.46
616.079	17975.53
616.274	18430.18
616.47	18133.23
616.665	18055.4
616.86	18018.54
617.055	17930.48
617.25	17774.83
617.445	18049.26
617.641	17805.55
617.836	17977.58
618.031	17645.81
618.226	17918.19
618.421	17592.56
618.616	17590.52
618.811	17580.28
619.006	17871.09
619.201	17113.34
619.396	17426.68
619.591	17258.74
619.786	17522.93
619.981	17266.94
620.176	17309.94
620.371	17201.4
620.566	16920.83
620.761	16769.28
620.956	17264.89
621.151	16634.11
621.346	16685.31
621.541	16564.48
621.735	16560.39
621.93	16216.33
622.125	16265.48
622.32	16113.93
622.515	16161.03
622.709	16019.72
622.904	16101.64
623.099	15718.67
623.294	16058.63
623.488	15753.49
623.683	15640.85
623.878	15718.67
624.072	15356.18
624.267	15511.83
624.462	15309.08
624.656	15120.67
624.851	15282.45
625.046	15077.66
625.24	15073.56
625.435	14879
625.629	15008.03
625.824	14846.24
626.018	14856.48
626.213	14553.38
626.407	14717.22
626.602	14555.43
626.796	14532.9
626.991	14479.65
627.185	14319.91
627.38	14428.45
627.574	14141.74
627.768	13830.44
627.963	14084.39
628.157	13918.51
628.352	13861.16
628.546	13656.37
628.74	13934.89
628.935	13586.74
629.129	13621.55
629.323	13463.86
629.517	13207.86
629.712	13623.6
629.906	13291.83
630.1	13201.72
630.294	13072.7
630.489	12923.19
630.683	13074.74
630.877	12994.87
631.071	12779.84
631.265	13152.57
631.459	12714.3
631.653	12874.04
631.848	12728.64
632.042	12511.55
632.236	12613.95
632.43	12429.63
632.624	12466.5
632.818	12464.45
633.012	12106.06
633.206	12368.2
633.4	12124.49
633.594	12116.3
633.788	12001.61
633.982	12005.7
634.176	11948.36
634.369	11901.26
634.563	11663.69
634.757	11678.03
634.951	11680.08
635.145	11456.85
635.339	11657.55
635.533	11446.61
635.726	11555.15
635.92	11108.69
636.114	11102.55
636.308	11127.13
636.501	11223.38
636.695	11399.51
636.889	11278.68
637.083	10844.51
637.276	10768.73
637.47	10901.85
637.664	10670.43
637.857	10719.58
638.051	10858.84
638.244	10508.64
638.438	10711.39
638.632	10465.63
638.825	10461.54
639.019	10443.1
639.212	10371.43
639.406	10344.8
639.599	10350.95
639.793	10232.16
639.986	10021.22
640.18	10160.48
640.373	10074.47
640.567	10150.25
640.76	9982.31
640.954	9781.61
641.147	9900.39
641.34	9752.94
641.534	9789.8
641.727	9726.32
641.92	9591.15
642.114	9691.5
642.307	9548.14
642.5	9554.29
642.694	9306.48
642.887	9130.36
643.08	9419.12
643.273	9355.63
643.467	9435.5
643.66	9331.06
643.853	9232.76
644.046	8956.28
644.239	9064.82
644.432	8956.28
644.626	8956.28
644.819	8843.64
645.012	8874.36
645.205	8905.08
645.398	8788.35
645.591	8743.29
645.784	8638.84
645.977	8720.76
646.17	8733.05
646.363	8472.96
646.556	8399.23
646.749	8436.1
646.942	8475.01
647.135	8341.89
647.328	8167.81
647.521	8118.66
647.714	8188.29
647.907	8323.46
648.099	8139.14
648.292	8016.26
648.485	7948.68
648.678	7907.72
648.871	8079.75
649.064	7952.77
649.256	7897.48
649.449	7954.82
649.642	7795.08
649.835	7739.79
650.027	7707.02
650.22	7725.45
650.413	7592.33
650.605	7750.03
650.798	7801.22
650.991	7397.78
651.183	7373.2
651.376	7467.41
651.568	7565.71
651.761	7256.47
651.954	7383.44
652.146	7319.95
652.339	7182.74
652.531	7313.81
652.724	7268.75
652.916	6990.23
653.109	7199.12
653.301	7195.03
653.494	7158.16
653.686	6994.33
653.879	7090.58
654.071	6914.45
654.263	6801.82
654.456	6969.75
654.648	6756.76
654.84	6736.28
655.033	6605.21
655.225	6635.93
655.417	6732.19
655.61	6568.35
655.802	6777.24
655.994	6568.35
656.186	6646.17
656.379	6422.94
656.571	6601.12
656.763	6322.59
656.955	6377.89
657.148	6406.56
657.34	6513.05
657.532	6179.23
657.724	6369.69
657.916	6287.78
658.108	6168.99
658.3	6185.38
658.492	6074.79
658.684	6044.07
658.876	5980.58
659.068	6123.94
659.26	6101.41
659.452	5962.15
659.644	6072.74
659.836	5878.18
660.028	5947.81
660.22	5884.33
660.412	5859.75
660.604	5800.36
660.796	5839.27
660.988	5869.99
661.18	5730.73
661.372	5673.39
661.563	5597.61
661.755	5642.67
661.947	5648.81
662.139	5560.75
662.331	5482.92
662.522	5579.18
662.714	5601.71
662.906	5624.23
663.097	5562.8
663.289	5386.67
663.481	5360.05
663.673	5304.75
663.864	5314.99
664.056	5284.27
664.247	5349.81
664.439	5188.02
664.631	5290.42
664.822	5337.52
665.014	5108.15
665.205	5181.87
665.397	5218.74
665.588	5204.4
665.78	5071.28
665.971	4936.12
666.163	5134.77
666.354	4999.6
666.546	4991.41
666.737	4923.83
666.929	4999.6
667.12	4907.45
667.311	4889.01
667.503	4870.58
667.694	4878.77
667.885	4776.38
668.077	4805.05
668.268	4854.2
668.459	4727.22
668.651	4897.21
668.842	4870.58
669.033	4729.27
669.224	4614.59
669.416	4733.37
669.607	4655.54
669.798	4700.6
669.989	4590.01
670.18	4651.45
670.371	4641.21
670.563	4630.97
670.754	4549.05
670.945	4540.86
671.136	4487.61
671.327	4458.94
671.518	4387.26
671.709	4497.85
671.9	4469.18
672.091	4479.42
672.282	4504
672.473	4401.6
672.664	4321.73
672.855	4313.53
673.046	4366.78
673.237	4354.49
673.428	4356.54
673.619	4317.63
673.809	4417.98
674	4321.73
674.191	4227.52
674.382	4270.53
674.573	4264.38
674.764	4192.7
674.954	4350.4
675.145	4307.39
675.336	4211.14
675.527	4188.61
675.717	4237.76
675.908	4098.5
676.099	4108.74
676.289	4223.42
676.48	4114.88
676.671	3967.43
676.861	4065.73
677.052	4143.55
677.243	4000.19
677.433	4000.19
677.624	4137.41
677.814	4207.04
678.005	4055.49
678.195	3930.56
678.386	4045.25
678.576	4110.79
678.767	3924.42
678.957	3875.27
679.148	3957.19
679.338	3967.43
679.529	3992
679.719	3815.88
679.909	4098.5
680.1	3961.28
680.29	3799.49
680.481	3953.09
680.671	3946.95
680.861	3850.69
681.052	3889.6
681.242	3750.34
681.432	3867.08
681.622	3725.77
681.813	3819.97
682.003	3795.4
682.193	3789.25
682.383	3819.97
682.573	3766.73
682.764	3649.99
682.954	3865.03
683.144	3803.59
683.334	3842.5
683.524	3772.87
683.714	3709.38
683.904	3828.17
684.094	3799.49
684.284	3580.36
684.474	3744.2
684.664	3725.77
684.854	3602.89
685.044	3621.32
685.234	3563.98
685.424	3695.05
685.614	3688.9
685.804	3609.03
685.994	3629.51
686.184	3697.1
686.374	3525.07
686.564	3602.89
686.753	3672.52
686.943	3590.6
687.133	3615.18
687.323	3621.32
687.513	3555.79
687.702	3361.23
687.892	3453.39
688.082	3400.14
688.272	3525.07
688.461	3492.3
688.651	3424.72
688.841	3500.49
689.03	3496.39
689.22	3430.86
689.41	3197.39
689.599	3324.37
689.789	3443.15
689.979	3281.36
690.168	3250.64
690.358	3277.26
690.547	3201.49
690.737	3275.21
690.926	3310.03
691.116	3217.87
691.305	3217.87
691.495	3058.13
691.684	3201.49
691.874	3295.69
692.063	3209.68
692.252	3264.97
692.442	3219.92
692.631	3148.24
692.82	3117.52
693.01	2994.64
693.199	3045.84
693.388	3037.65
693.578	3043.79
693.767	3125.71
693.956	3060.18
694.146	3074.51
694.335	2988.5
694.524	3006.93
694.713	3066.32
694.902	3105.23
695.092	3148.24
695.281	2906.58
695.47	2988.5
695.659	2914.77
695.848	2824.66
696.037	3068.37
696.226	3021.27
696.415	2902.48
696.604	2976.21
696.793	2904.53
696.982	2738.65
697.171	2873.81
697.36	2822.61
697.549	2990.55
697.738	2875.86
697.927	2783.7
698.116	2849.24
698.305	2867.67
698.494	2787.8
698.683	2961.87
698.872	2812.37
699.061	2849.24
699.25	2855.38
699.438	2943.44
699.627	2793.94
699.816	2800.09
700.005	2791.89
700.193	2843.09
700.382	2851.28
700.571	2781.65
700.76	2798.04
700.948	2781.65
701.137	2775.51
701.326	2795.99
701.514	2785.75
701.703	2910.68
701.892	2757.08
702.08	2800.09
702.269	2822.61
702.457	2841.04
702.646	2861.52
702.834	2769.37
703.023	2724.31
703.212	2816.47
703.4	2734.55
703.589	2703.83
703.777	2851.28
703.965	2740.69
704.154	2785.75
704.342	2740.69
704.531	2734.55
704.719	2761.17
704.907	2789.85
705.096	2734.55
705.284	2795.99
705.472	2804.18
705.661	2773.46
705.849	2884.05
706.037	2775.51
706.226	2701.78
706.414	2755.03
706.602	2761.17
706.79	2724.31
706.979	2677.21
707.167	2789.85
707.355	2789.85
707.543	2699.73
707.731	2722.26
707.919	2730.45
708.107	2691.54
708.296	2623.96
708.484	2644.44
708.672	2681.3
708.86	2750.93
709.048	2652.63
709.236	2709.97
709.424	2859.48
709.612	2783.7
709.8	2697.69
709.988	2685.4
710.176	2742.74
710.364	2677.21
710.551	2626.01
710.739	2699.73
710.927	2746.84
711.115	2591.19
711.303	2752.98
711.491	2718.17
711.679	2767.32
711.866	2687.45
712.054	2722.26
712.242	2681.3
712.43	2662.87
712.617	2806.23
712.805	2771.41
712.993	2802.13
713.181	2744.79
713.368	2626.01
713.556	2738.65
713.744	2755.03
713.931	2798.04
714.119	2722.26
714.306	2836.95
714.494	2800.09
714.682	2736.6
714.869	2681.3
715.057	2781.65
715.244	2734.55
715.432	2765.27
715.619	2757.08
715.807	2689.49
715.994	2677.21
716.182	2795.99
716.369	2810.33
716.556	2769.37
716.744	2757.08
716.931	2830.8
717.119	2617.82
717.306	2787.8
717.493	2730.45
717.681	2728.41
717.868	2693.59
718.055	2734.55
718.242	2724.31
718.43	2722.26
718.617	2648.54
718.804	2830.8
718.991	2707.93
719.179	2648.54
719.366	2722.26
719.553	2695.64
719.74	2593.24
719.927	2675.16
720.114	2679.26
720.301	2742.74
720.488	2722.26
720.676	2777.56
720.863	2791.89
721.05	2810.33
721.237	2781.65
721.424	2806.23
721.611	2765.27
721.798	2546.14
721.985	2656.73
722.172	2732.5
722.358	2763.22
722.545	2660.82
722.732	2671.06
722.919	2763.22
723.106	2662.87
723.293	2642.39
723.48	2671.06
723.667	2685.4
723.853	2630.1
724.04	2685.4
724.227	2697.69
724.414	2804.18
724.6	2701.78
724.787	2769.37
724.974	2658.78
725.161	2718.17
725.347	2744.79
725.534	2677.21
725.72	2779.61
725.907	2804.18
726.094	2656.73
726.28	2699.73
726.467	2783.7
726.653	2712.02
726.84	2861.52
727.027	2841.04
727.213	2761.17
727.4	2759.13
727.586	2763.22
727.773	2740.69
727.959	2562.52
728.145	2839
728.332	2591.19
728.518	2785.75
728.705	2646.49
728.891	2695.64
729.077	2744.79
729.264	2724.31
729.45	2691.54
729.636	2832.85
729.823	2673.11
730.009	2732.5
730.195	2810.33
730.382	2742.74
730.568	2662.87
730.754	2634.2
730.94	2755.03
731.126	2863.57
731.313	2673.11
731.499	2752.98
731.685	2701.78
731.871	2718.17
732.057	2830.8
732.243	2644.44
732.429	2783.7
732.615	2771.41
732.801	2771.41
732.987	2617.82
733.173	2650.58
733.359	2687.45
733.545	2601.43
733.731	2648.54
733.917	2783.7
734.103	2740.69
734.289	2644.44
734.475	2609.62
734.661	2646.49
734.847	2724.31
735.033	2638.3
735.219	2662.87
735.404	2724.31
735.59	2683.35
735.776	2556.38
735.962	2583
736.148	2572.76
736.333	2673.11
736.519	2630.1
736.705	2521.56
736.89	2603.48
737.076	2691.54
737.262	2503.13
737.447	2634.2
737.633	2585.05
737.819	2644.44
738.004	2544.09
738.19	2628.06
738.375	2574.81
738.561	2576.86
738.747	2580.95
738.932	2560.47
739.118	2626.01
739.303	2589.14
739.489	2533.85
739.674	2560.47
739.859	2576.86
740.045	2509.27
740.23	2460.12
740.416	2421.21
740.601	2597.34
740.786	2546.14
740.972	2509.27
741.157	2587.1
741.342	2441.69
741.528	2503.13
741.713	2462.17
741.898	2376.16
742.084	2445.79
742.269	2591.19
742.454	2474.46
742.639	2488.79
742.824	2376.16
743.01	2365.92
743.195	2474.46
743.38	2482.65
743.565	2361.82
743.75	2413.02
743.935	2437.59
744.12	2390.49
744.305	2372.06
744.49	2230.75
744.675	2351.58
744.86	2275.81
745.045	2380.25
745.23	2226.65
745.415	2392.54
745.6	2310.62
745.785	2236.89
745.97	2269.66
746.155	2249.18
746.34	2257.37
746.525	2265.57
746.71	2279.9
746.895	2232.8
747.079	2079.2
747.264	2118.11
747.449	2197.98
747.634	2148.83
747.819	2183.65
748.003	2071.01
748.188	2144.74
748.373	2068.96
748.557	1970.66
748.742	2046.43
748.927	2105.82
749.111	2124.26
749.296	2060.77
749.481	2048.48
749.665	1958.37
749.85	1997.28
750.034	1980.9
750.219	1923.55
750.404	1972.71
750.588	1960.42
750.773	1872.36
750.957	1858.02
751.141	1884.64
751.326	1941.99
751.51	2040.29
751.695	1886.69
751.879	1970.66
752.064	1888.74
752.248	1829.35
752.432	1790.44
752.617	1855.97
752.801	1815.01
752.985	1794.53
753.17	1808.87
753.354	1763.81
753.538	1708.52
753.722	1661.41
753.907	1653.22
754.091	1663.46
754.275	1618.41
754.459	1626.6
754.643	1694.18
754.828	1667.56
755.012	1620.46
755.196	1647.08
755.38	1552.87
755.564	1458.67
755.748	1573.35
755.932	1530.34
756.116	1647.08
756.3	1475.05
756.484	1499.63
756.668	1628.65
756.852	1421.8
757.036	1481.19
757.22	1548.78
757.404	1503.72
757.588	1491.43
757.772	1460.71
757.956	1468.91
758.14	1473
758.323	1423.85
758.507	1516.01
758.691	1440.23
758.875	1407.47
759.059	1477.1
759.242	1421.8
759.426	1446.38
759.61	1327.6
759.794	1409.51
759.977	1341.93
760.161	1434.09
760.345	1178.09
760.528	1417.71
760.712	1298.92
760.895	1249.77
761.079	1358.32
761.263	1284.59
761.446	1268.2
761.63	1303.02
761.813	1241.58
761.997	1315.31
762.18	1294.83
762.364	1264.11
762.547	1223.15
762.731	1274.35
762.914	1276.4
763.098	1145.33
763.281	1305.07
763.464	1233.39
763.648	1235.44
763.831	1180.14
764.015	1176.05
764.198	1208.81
764.381	1233.39
764.564	1163.76
764.748	1141.23
764.931	1174
765.114	1155.57
765.297	1225.2
765.481	1149.42
765.664	1112.56
765.847	1090.03
766.03	1243.63
766.213	1184.24
766.397	1047.02
766.58	1184.24
766.763	1147.37
766.946	1151.47
767.129	1120.75
767.312	954.87
767.495	1102.32
767.678	1071.6
767.861	1100.27
768.044	1102.32
768.227	1108.46
768.41	1190.38
768.593	1092.08
768.776	995.82
768.959	1022.45
769.142	1141.23
769.324	993.78
769.507	1036.78
769.69	1036.78
769.873	1065.46
770.056	1155.57
770.239	991.73
770.421	1044.98
770.604	1006.06
770.787	948.72
770.97	985.58
771.152	985.58
771.335	991.73
771.518	967.15
771.7	1008.11
771.883	1053.17
772.066	1012.21
772.248	983.54
772.431	952.82
772.613	963.06
772.796	862.71
772.978	958.96
773.161	944.63
773.343	854.51
773.526	883.19
773.708	858.61
773.891	915.95
774.073	948.72
774.256	842.23
774.438	829.94
774.621	856.56
774.803	887.28
774.985	891.38
775.168	850.42
775.35	825.84
775.532	903.67
775.715	836.08
775.897	805.36
776.079	872.95
776.261	743.92
776.444	791.03
776.626	782.84
776.808	784.88
776.99	772.6
777.173	786.93
777.355	795.12
777.537	745.97
777.719	770.55
777.901	737.78
778.083	709.11
778.265	760.31
778.447	811.51
778.629	717.3
778.811	711.16
778.993	702.97
779.175	758.26
779.357	682.49
779.539	729.59
779.721	717.3
779.903	735.73
780.085	627.19
780.267	684.53
780.449	711.16
780.631	815.6
780.812	668.15
780.994	621.05
781.176	698.87
781.358	641.53
781.54	643.57
781.721	670.2
781.903	614.9
782.085	604.66
782.267	584.18
782.448	664.05
782.63	610.81
782.812	649.72
782.993	629.24
783.175	610.81
783.357	606.71
783.538	700.92
783.72	489.98
783.901	676.34
784.083	631.29
784.264	655.86
784.446	512.5
784.627	586.23
784.809	598.52
784.99	633.33
785.172	594.42
785.353	465.4
785.535	582.14
785.716	543.22
785.897	563.7
786.079	524.79
786.26	524.79
786.441	526.84
786.623	479.74
786.804	520.7
786.985	510.46
787.167	555.51
787.348	555.51
787.529	483.83
787.71	502.26
787.891	504.31
788.073	438.78
788.254	440.83
788.435	563.7
788.616	389.63
788.797	471.54
788.978	471.54
789.159	461.3
789.34	451.07
789.522	459.26
789.703	418.3
789.884	428.54
790.065	467.45
790.246	438.78
790.427	416.25
790.607	414.2
790.788	469.5
790.969	451.07
791.15	483.83
791.331	428.54
791.512	408.06
791.693	426.49
791.874	381.43
792.054	340.47
792.235	461.3
792.416	465.4
792.597	436.73
792.778	418.3
792.958	422.39
793.139	270.84
793.32	332.28
793.5	379.39
793.681	381.43
793.862	410.11
794.042	367.1
794.223	313.85
794.404	350.71
794.584	291.32
794.765	381.43
794.945	399.87
795.126	336.38
795.306	334.33
795.487	428.54
795.667	391.67
795.848	422.39
796.028	418.3
796.209	393.72
796.389	258.56
796.57	410.11
796.75	320
796.93	412.15
797.111	291.32
797.291	315.9
797.471	367.1
797.652	379.39
797.832	272.89
798.012	332.28
798.192	213.5
798.373	365.05
798.553	287.23
798.733	360.95
798.913	295.42
799.093	326.14
799.274	317.95
799.454	274.94
799.634	313.85
799.814	295.42
799.994	352.76
800.174	350.71
800.354	285.18
800.534	338.43
800.714	252.41
800.894	295.42
801.074	250.36
801.254	236.03
801.434	307.71
801.614	233.98
801.794	217.6
801.974	657.91
802.154	215.55
802.334	240.12
802.514	254.46
802.693	213.5
802.873	256.51
803.053	205.31
803.233	281.08
803.413	262.65
803.592	276.99
803.772	254.46
803.952	256.51
804.131	246.27
804.311	301.56
804.491	258.56
804.67	256.51
804.85	240.12
805.03	250.36
805.209	266.75
805.389	260.6
805.568	236.03
805.748	272.89
805.928	270.84
806.107	193.02
806.287	199.16
806.466	313.85
806.646	262.65
806.825	244.22
807.004	231.93
807.184	244.22
807.363	215.55
807.543	199.16
807.722	213.5
807.901	260.6
808.081	276.99
808.26	154.11
808.439	244.22
808.619	250.36
808.798	291.32
808.977	213.5
809.156	258.56
809.336	150.01
809.515	266.75
809.694	223.74
809.873	190.97
810.052	205.31
810.231	270.84
810.411	174.59
810.59	229.88
810.769	197.12
810.948	221.69
811.127	180.73
811.306	162.3
811.485	219.64
811.664	291.32
811.843	135.68
812.022	223.74
812.201	141.82
812.38	168.45
812.559	201.21
812.737	266.75
812.916	209.4
813.095	213.5
813.274	156.16
813.453	160.25
813.632	158.21
813.811	217.6
813.989	139.77
814.168	178.69
814.347	145.92
814.526	190.97
814.704	217.6
814.883	221.69
815.062	127.49
815.24	190.97
815.419	143.87
815.598	209.4
815.776	150.01
815.955	213.5
816.133	78.33
816.312	219.64
816.49	82.43
816.669	154.11
816.847	135.68
817.026	170.49
817.204	170.49
817.383	174.59
817.561	156.16
817.74	121.34
817.918	188.93
818.097	154.11
818.275	168.45
818.453	213.5
818.632	152.06
818.81	174.59
818.988	176.64
819.167	209.4
819.345	141.82
819.523	129.53
819.701	139.77
819.879	117.25
820.058	164.35
820.236	174.59
820.414	147.97
820.592	178.69
820.77	205.31
820.948	166.4
821.127	104.96
821.305	195.07
821.483	92.67
821.661	176.64
821.839	158.21
822.017	209.4
822.195	125.44
822.373	176.64
822.551	131.58
822.729	199.16
822.907	47.62
823.085	188.93
823.262	129.53
823.44	123.39
823.618	188.93
823.796	117.25
823.974	180.73
824.152	133.63
824.329	47.62
824.507	152.06
824.685	160.25
824.863	104.96
825.04	176.64
825.218	182.78
825.396	184.83
825.574	170.49
825.751	188.93
825.929	164.35
826.107	129.53
826.284	115.2
826.462	137.73
826.639	84.48
826.817	45.57
826.994	70.14
827.172	92.67
827.349	84.48
827.527	139.77
827.704	100.86
827.882	119.29
828.059	164.35
828.237	86.53
828.414	211.45
828.591	57.86
828.769	141.82
828.946	51.71
829.124	125.44
829.301	88.57
829.478	92.67
829.655	72.19
829.833	119.29
830.01	-15.87
830.187	70.14
830.364	98.81
830.542	156.16
830.719	150.01
830.896	70.14
831.073	129.53
831.25	94.72
831.427	143.87
831.604	94.72
831.782	160.25
831.959	94.72
832.136	115.2
832.313	92.67
832.49	82.43
832.667	90.62
832.844	16.9
833.021	61.95
833.198	90.62
833.374	135.68
833.551	141.82
833.728	135.68
833.905	164.35
834.082	111.1
834.259	197.12
834.436	96.77
834.612	84.48
834.789	74.24
834.966	188.93
835.143	100.86
835.319	-28.16
835.496	80.38
835.673	100.86
835.85	154.11
836.026	86.53
836.203	127.49
836.38	123.39
836.556	127.49
836.733	123.39
836.909	113.15
837.086	82.43
837.262	127.49
837.439	86.53
837.616	68.09
837.792	53.76
837.968	150.01
838.145	92.67
838.321	123.39
838.498	135.68
838.674	100.86
838.851	20.99
839.027	88.57
839.203	82.43
839.38	82.43
839.556	88.57
839.732	135.68
839.909	150.01
840.085	168.45
840.261	45.57
840.437	94.72
840.614	100.86
840.79	119.29
840.966	86.53
841.142	125.44
841.318	45.57
841.494	90.62
841.671	76.29
841.847	43.52
842.023	45.57
842.199	68.09
842.375	96.77
842.551	74.24
842.727	41.47
842.903	119.29
843.079	74.24
843.255	168.45
843.431	72.19
843.607	72.19
843.783	-3.58
843.959	131.58
844.134	49.66
844.31	49.66
844.486	115.2
844.662	82.43
844.838	64
845.013	129.53
845.189	141.82
845.365	4.61
845.541	104.96
845.716	80.38
845.892	41.47
846.068	18.94
846.244	29.18
846.419	125.44
846.595	119.29
846.77	154.11
846.946	78.33
847.122	66.05
847.297	70.14
847.473	168.45
847.648	20.99
847.824	115.2
847.999	102.91
848.175	70.14
848.35	64
848.526	90.62
848.701	16.9
848.876	76.29
849.052	125.44
849.227	27.14
849.403	107.01
849.578	12.8
849.753	135.68
849.929	107.01
850.104	29.18
850.279	51.71
850.454	82.43
850.63	20.99
850.805	12.8
850.98	96.77
851.155	57.86
851.33	45.57
851.505	47.62
851.681	66.05
851.856	14.85
852.031	82.43
852.206	49.66
852.381	61.95
852.556	16.9
852.731	37.38
852.906	98.81
853.081	45.57
853.256	66.05
853.431	74.24
853.606	23.04
853.781	16.9
853.956	6.66
854.131	37.38
854.305	57.86
854.48	43.52
854.655	76.29
854.83	2.56
855.005	10.75
855.18	53.76
855.354	43.52
855.529	35.33
855.704	33.28
855.879	55.81
856.053	33.28
856.228	23.04
856.403	82.43
856.577	109.05
856.752	37.38
856.926	84.48
857.101	-15.87
857.276	27.14
857.45	64
857.625	123.39
857.799	-13.82
857.974	141.82
858.148	18.94
858.323	-22.02
858.497	55.81
858.672	82.43
858.846	53.76
859.02	47.62
859.195	82.43
859.369	76.29
859.543	80.38
859.718	-15.87
859.892	33.28
860.066	31.23
860.241	29.18
860.415	-9.73
860.589	133.63
860.763	41.47
860.938	8.7
861.112	35.33
861.286	41.47
861.46	43.52
861.634	76.29
861.808	80.38
861.982	16.9
862.157	35.33
862.331	80.38
862.505	102.91
862.679	-7.68
862.853	96.77
863.027	4.61
863.201	150.01
863.375	23.04
863.549	55.81
863.722	-28.16
863.896	35.33
864.07	39.42
864.244	29.18
864.418	27.14
864.592	33.28
864.766	61.95
864.939	100.86
865.113	51.71
865.287	29.18
865.461	-26.11
865.634	43.52
865.808	27.14
865.982	37.38
866.156	31.23
866.329	-15.87
866.503	55.81
866.676	12.8
866.85	53.76
867.024	12.8
867.197	88.57
867.371	68.09
867.544	-24.06
867.718	-32.26
867.891	80.38
868.065	20.99
868.238	29.18
868.412	61.95
868.585	88.57
868.759	70.14
868.932	102.91
869.105	-44.54
869.279	70.14
869.452	78.33
869.625	-46.59
869.799	113.15
869.972	-26.11
870.145	29.18
870.319	100.86
870.492	29.18
870.665	82.43
870.838	14.85
871.011	6.66
871.185	121.34
871.358	16.9
871.531	102.91
871.704	8.7
871.877	41.47
872.05	23.04
872.223	43.52
872.396	59.9
872.569	55.81
872.742	4.61
872.915	55.81
873.088	25.09
873.261	-15.87
873.434	39.42
873.607	-5.63
873.78	-19.97
873.953	39.42
874.126	80.38
874.299	70.14
874.471	33.28
874.644	41.47
874.817	-22.02
874.99	27.14
875.163	64
875.335	41.47
875.508	20.99
875.681	29.18
875.853	-15.87
876.026	86.53
876.199	70.14
876.371	78.33
876.544	29.18
876.717	45.57
876.889	12.8
877.062	-46.59
877.234	14.85
877.407	68.09
877.579	23.04
877.752	2.56
877.924	-1.54
878.097	80.38
878.269	-26.11
878.442	41.47
878.614	4.61
878.786	12.8
878.959	16.9
879.131	57.86
879.303	-5.63
879.476	31.23
879.648	123.39
879.82	23.04
879.993	-13.82
880.165	72.19
880.337	0.51
880.509	80.38
880.681	66.05
880.854	8.7
881.026	66.05
881.198	49.66
881.37	12.8
881.542	23.04
881.714	64
881.886	53.76
882.058	2.56
882.23	-13.82
882.402	39.42
882.574	55.81
882.746	41.47
882.918	53.76
883.09	-24.06
883.262	10.75
883.434	-15.87
883.606	16.9
883.778	-17.92
883.95	100.86
884.122	25.09
884.293	66.05
884.465	39.42
884.637	57.86
884.809	14.85
884.98	14.85
885.152	0.51
885.324	100.86
885.496	18.94
885.667	33.28
885.839	57.86
886.011	47.62
886.182	45.57
886.354	14.85
886.525	20.99
886.697	121.34
886.869	131.58
887.04	27.14
887.212	-15.87
887.383	78.33
887.555	41.47
887.726	41.47
887.897	-9.73
888.069	82.43
888.24	37.38
888.412	82.43
888.583	39.42
888.754	4.61
888.926	45.57
889.097	8.7
889.268	23.04
889.44	53.76
889.611	-30.21
889.782	33.28
889.953	2.56
890.125	86.53
890.296	-15.87
890.467	-24.06
890.638	70.14
890.809	107.01
890.98	29.18
891.151	51.71
891.323	16.9
891.494	23.04
891.665	-24.06
891.836	29.18
892.007	12.8
892.178	0.51
892.349	0.51
892.52	31.23
892.691	100.86
892.862	-54.78
893.032	16.9
893.203	18.94
893.374	35.33
893.545	107.01
893.716	70.14
893.887	27.14
894.057	-1.54
894.228	123.39
894.399	-24.06
894.57	59.9
894.74	55.81
894.911	-9.73
895.082	2.56
895.253	-19.97
895.423	80.38
895.594	10.75
895.764	68.09
895.935	59.9
896.106	107.01
896.276	8.7
896.447	27.14
896.617	14.85
896.788	4.61
896.958	8.7
897.129	-48.64
897.299	53.76
897.47	4.61
897.64	4.61
897.81	10.75
897.981	51.71
898.151	12.8
898.322	2.56
898.492	43.52
898.662	29.18
898.832	12.8
899.003	6.66
899.173	16.9
899.343	64
899.513	0.51
