Data from USB4F104151__89__11-52-55-819.txt Node

Date: Fri Mar 14 11:52:55 EDT 2025
User: louis
Spectrometer: USB4F10415
Trigger mode: 4
Integration Time (sec): 2.000000E-2
Scans to average: 1
Electric dark correction enabled: true
Nonlinearity correction enabled: false
Boxcar width: 0
XAxis mode: Wavelengths
Number of Pixels in Spectrum: 3648
>>>>>Begin Spectral Data<<<<<
178.204	-77.31
178.424	-77.31
178.644	-77.31
178.864	-73.21
179.084	-44.54
179.304	-17.92
179.524	-30.21
179.744	-15.87
179.964	-3.58
180.184	72.19
180.404	37.38
180.624	-48.64
180.844	-44.54
181.064	-17.92
181.283	37.38
181.503	35.33
181.723	-3.58
181.943	-24.06
182.163	27.14
182.383	20.99
182.602	-30.21
182.822	39.42
183.042	10.75
183.262	45.57
183.482	27.14
183.701	20.99
183.921	37.38
184.141	-13.82
184.361	6.66
184.58	29.18
184.8	-5.63
185.02	-13.82
185.239	117.25
185.459	-19.97
185.679	25.09
185.898	-7.68
186.118	6.66
186.338	57.86
186.557	43.52
186.777	-5.63
186.997	29.18
187.216	6.66
187.436	-11.78
187.655	47.62
187.875	29.18
188.095	35.33
188.314	27.14
188.534	16.9
188.753	64
188.973	64
189.192	86.53
189.412	66.05
189.631	117.25
189.851	-15.87
190.07	33.28
190.29	-17.92
190.509	16.9
190.729	-36.35
190.948	96.77
191.168	135.68
191.387	57.86
191.607	37.38
191.826	10.75
192.045	0.51
192.265	33.28
192.484	41.47
192.704	18.94
192.923	0.51
193.142	100.86
193.362	72.19
193.581	174.59
193.8	90.62
194.02	72.19
194.239	29.18
194.458	4.61
194.678	45.57
194.897	20.99
195.116	51.71
195.335	-7.68
195.555	-3.58
195.774	68.09
195.993	10.75
196.212	-9.73
196.432	0.51
196.651	55.81
196.87	31.23
197.089	121.34
197.308	33.28
197.528	45.57
197.747	12.8
197.966	39.42
198.185	70.14
198.404	10.75
198.623	33.28
198.842	133.63
199.062	27.14
199.281	27.14
199.5	109.05
199.719	-5.63
199.938	-34.3
200.157	74.24
200.376	25.09
200.595	35.33
200.814	41.47
201.033	53.76
201.252	0.51
201.471	53.76
201.69	29.18
201.909	64
202.128	66.05
202.347	66.05
202.566	72.19
202.785	86.53
203.004	-17.92
203.223	33.28
203.442	-11.78
203.661	41.47
203.879	-50.69
204.098	61.95
204.317	57.86
204.536	145.92
204.755	66.05
204.974	66.05
205.193	39.42
205.411	92.67
205.63	37.38
205.849	78.33
206.068	-54.78
206.287	-17.92
206.505	-11.78
206.724	35.33
206.943	-9.73
207.162	82.43
207.381	-3.58
207.599	-32.26
207.818	2.56
208.037	35.33
208.255	-54.78
208.474	27.14
208.693	82.43
208.911	-19.97
209.13	-19.97
209.349	66.05
209.567	80.38
209.786	16.9
210.005	33.28
210.223	82.43
210.442	84.48
210.661	25.09
210.879	-65.02
211.098	-38.4
211.316	6.66
211.535	23.04
211.753	72.19
211.972	14.85
212.191	-15.87
212.409	27.14
212.628	68.09
212.846	51.71
213.065	-3.58
213.283	96.77
213.502	23.04
213.72	33.28
213.938	68.09
214.157	61.95
214.375	35.33
214.594	98.81
214.812	4.61
215.031	47.62
215.249	23.04
215.467	45.57
215.686	-3.58
215.904	117.25
216.122	98.81
216.341	59.9
216.559	18.94
216.778	-15.87
216.996	41.47
217.214	29.18
217.432	66.05
217.651	10.75
217.869	12.8
218.087	53.76
218.306	27.14
218.524	20.99
218.742	61.95
218.96	45.57
219.179	45.57
219.397	20.99
219.615	53.76
219.833	-62.98
220.051	-17.92
220.27	47.62
220.488	27.14
220.706	57.86
220.924	10.75
221.142	29.18
221.36	8.7
221.578	8.7
221.796	-42.5
222.015	25.09
222.233	20.99
222.451	55.81
222.669	51.71
222.887	43.52
223.105	-19.97
223.323	20.99
223.541	20.99
223.759	18.94
223.977	68.09
224.195	55.81
224.413	64
224.631	113.15
224.849	-1.54
225.067	72.19
225.285	49.66
225.503	92.67
225.721	-26.11
225.939	-3.58
226.157	10.75
226.375	64
226.592	-9.73
226.81	4.61
227.028	37.38
227.246	23.04
227.464	43.52
227.682	53.76
227.9	18.94
228.117	-9.73
228.335	76.29
228.553	35.33
228.771	35.33
228.989	18.94
229.206	72.19
229.424	23.04
229.642	2.56
229.86	-3.58
230.077	129.53
230.295	104.96
230.513	70.14
230.731	68.09
230.948	78.33
231.166	47.62
231.384	-32.26
231.601	55.81
231.819	94.72
232.037	31.23
232.254	-15.87
232.472	23.04
232.689	-7.68
232.907	90.62
233.125	45.57
233.342	6.66
233.56	-13.82
233.777	107.01
233.995	29.18
234.213	31.23
234.43	14.85
234.648	-19.97
234.865	27.14
235.083	6.66
235.3	64
235.518	68.09
235.735	88.57
235.953	115.2
236.17	-22.02
236.388	-17.92
236.605	25.09
236.822	102.91
237.04	33.28
237.257	20.99
237.475	66.05
237.692	6.66
237.909	25.09
238.127	43.52
238.344	39.42
238.562	39.42
238.779	-7.68
238.996	-19.97
239.214	8.7
239.431	4.61
239.648	66.05
239.865	41.47
240.083	37.38
240.3	14.85
240.517	-48.64
240.735	76.29
240.952	20.99
241.169	16.9
241.386	-24.06
241.603	84.48
241.821	6.66
242.038	66.05
242.255	37.38
242.472	-22.02
242.689	41.47
242.907	37.38
243.124	14.85
243.341	20.99
243.558	-3.58
243.775	-22.02
243.992	31.23
244.209	-24.06
244.426	33.28
244.643	-9.73
244.86	39.42
245.078	80.38
245.295	47.62
245.512	29.18
245.729	90.62
245.946	35.33
246.163	25.09
246.38	45.57
246.597	-11.78
246.814	8.7
247.031	14.85
247.248	59.9
247.464	27.14
247.681	78.33
247.898	0.51
248.115	84.48
248.332	12.8
248.549	74.24
248.766	16.9
248.983	137.73
249.2	16.9
249.417	55.81
249.633	70.14
249.85	49.66
250.067	80.38
250.284	68.09
250.501	92.67
250.717	74.24
250.934	70.14
251.151	37.38
251.368	64
251.585	29.18
251.801	12.8
252.018	45.57
252.235	-13.82
252.451	90.62
252.668	-38.4
252.885	78.33
253.102	16.9
253.318	-11.78
253.535	64
253.752	104.96
253.968	66.05
254.185	64
254.401	49.66
254.618	104.96
254.835	-7.68
255.051	27.14
255.268	64
255.484	70.14
255.701	35.33
255.917	39.42
256.134	-19.97
256.351	12.8
256.567	2.56
256.784	37.38
257	18.94
257.217	57.86
257.433	37.38
257.65	53.76
257.866	12.8
258.082	35.33
258.299	88.57
258.515	90.62
258.732	66.05
258.948	-42.5
259.165	20.99
259.381	53.76
259.597	27.14
259.814	123.39
260.03	59.9
260.246	-3.58
260.463	27.14
260.679	-32.26
260.895	20.99
261.112	51.71
261.328	53.76
261.544	-24.06
261.761	4.61
261.977	25.09
262.193	43.52
262.409	-9.73
262.626	-24.06
262.842	23.04
263.058	-13.82
263.274	41.47
263.49	-54.78
263.707	125.44
263.923	-30.21
264.139	55.81
264.355	49.66
264.571	94.72
264.787	18.94
265.004	33.28
265.22	51.71
265.436	4.61
265.652	0.51
265.868	59.9
266.084	-26.11
266.3	4.61
266.516	59.9
266.732	-17.92
266.948	51.71
267.164	72.19
267.38	10.75
267.596	66.05
267.812	10.75
268.028	57.86
268.244	53.76
268.46	16.9
268.676	39.42
268.892	-32.26
269.108	-34.3
269.324	-7.68
269.54	-26.11
269.756	109.05
269.972	0.51
270.188	59.9
270.403	8.7
270.619	47.62
270.835	-26.11
271.051	33.28
271.267	-42.5
271.483	27.14
271.698	0.51
271.914	98.81
272.13	29.18
272.346	-9.73
272.562	18.94
272.777	35.33
272.993	39.42
273.209	29.18
273.425	66.05
273.64	51.71
273.856	82.43
274.072	-15.87
274.287	41.47
274.503	23.04
274.719	-30.21
274.934	45.57
275.15	2.56
275.366	43.52
275.581	45.57
275.797	53.76
276.012	39.42
276.228	59.9
276.444	20.99
276.659	125.44
276.875	-15.87
277.09	127.49
277.306	-17.92
277.521	49.66
277.737	0.51
277.952	59.9
278.168	45.57
278.383	51.71
278.599	23.04
278.814	4.61
279.03	16.9
279.245	86.53
279.461	84.48
279.676	102.91
279.892	0.51
280.107	18.94
280.322	72.19
280.538	35.33
280.753	29.18
280.969	70.14
281.184	-17.92
281.399	92.67
281.615	37.38
281.83	111.1
282.045	29.18
282.26	72.19
282.476	59.9
282.691	64
282.906	27.14
283.122	41.47
283.337	43.52
283.552	39.42
283.767	64
283.983	80.38
284.198	18.94
284.413	-13.82
284.628	-73.21
284.843	72.19
285.058	8.7
285.274	-3.58
285.489	23.04
285.704	0.51
285.919	-22.02
286.134	70.14
286.349	20.99
286.564	35.33
286.779	88.57
286.995	33.28
287.21	-32.26
287.425	31.23
287.64	-30.21
287.855	-13.82
288.07	2.56
288.285	20.99
288.5	84.48
288.715	55.81
288.93	4.61
289.145	92.67
289.36	4.61
289.575	111.1
289.79	39.42
290.004	-1.54
290.219	61.95
290.434	37.38
290.649	59.9
290.864	53.76
291.079	-73.21
291.294	113.15
291.509	41.47
291.724	86.53
291.938	31.23
292.153	-22.02
292.368	-34.3
292.583	104.96
292.798	59.9
293.012	-17.92
293.227	86.53
293.442	-7.68
293.657	31.23
293.871	37.38
294.086	66.05
294.301	92.67
294.516	61.95
294.73	90.62
294.945	-17.92
295.16	6.66
295.374	59.9
295.589	29.18
295.804	-11.78
296.018	59.9
296.233	23.04
296.447	74.24
296.662	-56.83
296.877	37.38
297.091	76.29
297.306	41.47
297.52	78.33
297.735	59.9
297.949	39.42
298.164	-5.63
298.378	61.95
298.593	51.71
298.807	39.42
299.022	41.47
299.236	51.71
299.451	6.66
299.665	18.94
299.88	70.14
300.094	0.51
300.309	41.47
300.523	12.8
300.737	12.8
300.952	86.53
301.166	51.71
301.381	-52.74
301.595	23.04
301.809	84.48
302.024	10.75
302.238	-9.73
302.452	-5.63
302.667	12.8
302.881	131.58
303.095	76.29
303.309	20.99
303.524	14.85
303.738	0.51
303.952	43.52
304.166	10.75
304.381	4.61
304.595	61.95
304.809	12.8
305.023	-13.82
305.237	27.14
305.452	72.19
305.666	-9.73
305.88	-7.68
306.094	39.42
306.308	-1.54
306.522	61.95
306.736	64
306.95	49.66
307.164	6.66
307.379	-15.87
307.593	80.38
307.807	-3.58
308.021	47.62
308.235	2.56
308.449	33.28
308.663	43.52
308.877	76.29
309.091	96.77
309.305	70.14
309.519	-17.92
309.733	41.47
309.947	102.91
310.161	23.04
310.374	-30.21
310.588	55.81
310.802	29.18
311.016	45.57
311.23	23.04
311.444	25.09
311.658	74.24
311.872	78.33
312.085	162.3
312.299	35.33
312.513	64
312.727	66.05
312.941	18.94
313.154	-5.63
313.368	2.56
313.582	37.38
313.796	-11.78
314.009	8.7
314.223	53.76
314.437	88.57
314.651	84.48
314.864	16.9
315.078	-44.54
315.292	33.28
315.505	-7.68
315.719	49.66
315.933	53.76
316.146	70.14
316.36	51.71
316.573	33.28
316.787	82.43
317.001	119.29
317.214	31.23
317.428	0.51
317.641	4.61
317.855	12.8
318.068	88.57
318.282	10.75
318.495	55.81
318.709	29.18
318.922	-58.88
319.136	57.86
319.349	33.28
319.563	8.7
319.776	127.49
319.99	-28.16
320.203	51.71
320.417	16.9
320.63	107.01
320.843	96.77
321.057	31.23
321.27	84.48
321.483	92.67
321.697	82.43
321.91	78.33
322.124	16.9
322.337	53.76
322.55	-26.11
322.763	96.77
322.977	115.2
323.19	-1.54
323.403	-26.11
323.617	8.7
323.83	129.53
324.043	49.66
324.256	55.81
324.469	2.56
324.683	107.01
324.896	12.8
325.109	39.42
325.322	8.7
325.535	104.96
325.748	29.18
325.962	41.47
326.175	45.57
326.388	61.95
326.601	64
326.814	35.33
327.027	-28.16
327.24	127.49
327.453	102.91
327.666	29.18
327.879	-9.73
328.092	53.76
328.305	76.29
328.518	37.38
328.731	57.86
328.944	23.04
329.157	-3.58
329.37	41.47
329.583	8.7
329.796	111.1
330.009	27.14
330.222	80.38
330.435	51.71
330.648	35.33
330.861	57.86
331.073	59.9
331.286	68.09
331.499	43.52
331.712	51.71
331.925	2.56
332.138	27.14
332.35	66.05
332.563	47.62
332.776	33.28
332.989	68.09
333.202	74.24
333.414	70.14
333.627	57.86
333.84	55.81
334.053	66.05
334.265	-62.98
334.478	33.28
334.691	45.57
334.903	129.53
335.116	-36.35
335.329	12.8
335.541	98.81
335.754	59.9
335.966	6.66
336.179	14.85
336.392	74.24
336.604	-13.82
336.817	-15.87
337.029	119.29
337.242	94.72
337.454	39.42
337.667	-3.58
337.88	68.09
338.092	-69.12
338.305	51.71
338.517	39.42
338.729	-24.06
338.942	68.09
339.154	45.57
339.367	57.86
339.579	84.48
339.792	10.75
340.004	74.24
340.217	70.14
340.429	113.15
340.641	82.43
340.854	59.9
341.066	-7.68
341.278	4.61
341.491	86.53
341.703	12.8
341.915	53.76
342.128	72.19
342.34	16.9
342.552	47.62
342.764	88.57
342.977	88.57
343.189	-11.78
343.401	39.42
343.613	-34.3
343.826	37.38
344.038	-3.58
344.25	23.04
344.462	-5.63
344.674	-11.78
344.886	27.14
345.099	86.53
345.311	18.94
345.523	70.14
345.735	8.7
345.947	59.9
346.159	10.75
346.371	18.94
346.583	55.81
346.795	72.19
347.007	39.42
347.219	2.56
347.431	27.14
347.643	64
347.855	41.47
348.067	39.42
348.279	51.71
348.491	0.51
348.703	59.9
348.915	12.8
349.127	10.75
349.339	-13.82
349.551	27.14
349.763	96.77
349.975	74.24
350.187	78.33
350.399	49.66
350.61	59.9
350.822	41.47
351.034	39.42
351.246	-9.73
351.458	31.23
351.669	10.75
351.881	25.09
352.093	27.14
352.305	18.94
352.517	45.57
352.728	51.71
352.94	113.15
353.152	6.66
353.363	57.86
353.575	90.62
353.787	-7.68
353.999	59.9
354.21	29.18
354.422	55.81
354.633	25.09
354.845	-17.92
355.057	39.42
355.268	68.09
355.48	35.33
355.692	41.47
355.903	70.14
356.115	-42.5
356.326	-11.78
356.538	64
356.749	90.62
356.961	12.8
357.172	96.77
357.384	23.04
357.595	59.9
357.807	131.58
358.018	72.19
358.23	29.18
358.441	125.44
358.653	41.47
358.864	23.04
359.075	-19.97
359.287	70.14
359.498	4.61
359.709	53.76
359.921	68.09
360.132	23.04
360.344	88.57
360.555	0.51
360.766	55.81
360.977	64
361.189	39.42
361.4	18.94
361.611	174.59
361.823	76.29
362.034	68.09
362.245	-15.87
362.456	25.09
362.667	64
362.879	35.33
363.09	25.09
363.301	115.2
363.512	23.04
363.723	16.9
363.935	49.66
364.146	8.7
364.357	2.56
364.568	86.53
364.779	-9.73
364.99	68.09
365.201	90.62
365.412	12.8
365.623	14.85
365.834	-9.73
366.045	41.47
366.256	51.71
366.467	74.24
366.678	104.96
366.889	47.62
367.1	68.09
367.311	10.75
367.522	49.66
367.733	98.81
367.944	41.47
368.155	70.14
368.366	49.66
368.577	162.3
368.788	55.81
368.999	68.09
369.209	39.42
369.42	51.71
369.631	113.15
369.842	88.57
370.053	45.57
370.264	43.52
370.474	70.14
370.685	31.23
370.896	-75.26
371.107	41.47
371.317	70.14
371.528	43.52
371.739	96.77
371.95	59.9
372.16	25.09
372.371	41.47
372.582	12.8
372.792	53.76
373.003	61.95
373.214	61.95
373.424	55.81
373.635	41.47
373.846	82.43
374.056	68.09
374.267	80.38
374.477	64
374.688	66.05
374.898	80.38
375.109	12.8
375.319	113.15
375.53	90.62
375.74	27.14
375.951	47.62
376.161	2.56
376.372	-32.26
376.582	72.19
376.793	150.01
377.003	18.94
377.214	12.8
377.424	33.28
377.635	92.67
377.845	8.7
378.055	104.96
378.266	4.61
378.476	57.86
378.686	39.42
378.897	59.9
379.107	100.86
379.317	72.19
379.528	-44.54
379.738	10.75
379.948	35.33
380.158	12.8
380.369	94.72
380.579	182.78
380.789	-9.73
380.999	70.14
381.21	64
381.42	109.05
381.63	61.95
381.84	39.42
382.05	90.62
382.261	104.96
382.471	10.75
382.681	23.04
382.891	47.62
383.101	70.14
383.311	90.62
383.521	57.86
383.731	51.71
383.941	59.9
384.151	-5.63
384.361	86.53
384.571	59.9
384.781	86.53
384.991	18.94
385.201	29.18
385.411	111.1
385.621	109.05
385.831	25.09
386.041	84.48
386.251	-3.58
386.461	80.38
386.671	74.24
386.881	37.38
387.091	57.86
387.301	94.72
387.511	-36.35
387.72	25.09
387.93	-15.87
388.14	68.09
388.35	18.94
388.56	53.76
388.769	96.77
388.979	20.99
389.189	94.72
389.399	90.62
389.609	-5.63
389.818	51.71
390.028	6.66
390.238	78.33
390.447	55.81
390.657	102.91
390.867	98.81
391.076	49.66
391.286	70.14
391.496	59.9
391.705	12.8
391.915	100.86
392.125	43.52
392.334	70.14
392.544	57.86
392.753	86.53
392.963	16.9
393.172	86.53
393.382	162.3
393.591	12.8
393.801	55.81
394.01	102.91
394.22	96.77
394.429	72.19
394.639	41.47
394.848	86.53
395.058	104.96
395.267	96.77
395.477	137.73
395.686	64
395.895	100.86
396.105	137.73
396.314	154.11
396.524	113.15
396.733	100.86
396.942	39.42
397.152	72.19
397.361	133.63
397.57	123.39
397.78	125.44
397.989	147.97
398.198	94.72
398.407	55.81
398.617	45.57
398.826	86.53
399.035	104.96
399.244	160.25
399.453	131.58
399.663	168.45
399.872	61.95
400.081	86.53
400.29	203.26
400.499	35.33
400.708	94.72
400.917	160.25
401.127	129.53
401.336	98.81
401.545	88.57
401.754	100.86
401.963	141.82
402.172	154.11
402.381	64
402.59	125.44
402.799	172.54
403.008	141.82
403.217	145.92
403.426	172.54
403.635	94.72
403.844	188.93
404.053	117.25
404.262	129.53
404.471	139.77
404.68	229.88
404.888	178.69
405.097	160.25
405.306	133.63
405.515	98.81
405.724	94.72
405.933	172.54
406.142	141.82
406.35	221.69
406.559	129.53
406.768	96.77
406.977	195.07
407.185	205.31
407.394	141.82
407.603	219.64
407.812	240.12
408.02	223.74
408.229	207.36
408.438	240.12
408.646	225.79
408.855	207.36
409.064	211.45
409.272	250.36
409.481	217.6
409.69	238.08
409.898	213.5
410.107	242.17
410.315	328.19
410.524	221.69
410.733	350.71
410.941	297.47
411.15	281.08
411.358	438.78
411.567	328.19
411.775	350.71
411.984	330.23
412.192	426.49
412.401	453.11
412.609	389.63
412.818	438.78
413.026	397.82
413.234	397.82
413.443	387.58
413.651	467.45
413.86	455.16
414.068	483.83
414.276	565.75
414.485	569.85
414.693	522.74
414.901	584.18
415.11	655.86
415.318	487.93
415.526	688.63
415.734	641.53
415.943	662.01
416.151	729.59
416.359	705.01
416.567	678.39
416.776	733.68
416.984	881.14
417.192	883.19
417.4	858.61
417.608	819.7
417.817	834.04
418.025	848.37
418.233	1001.97
418.441	901.62
418.649	967.15
418.857	1169.9
419.065	1079.79
419.273	1176.05
419.481	1153.52
419.689	1235.44
419.897	1243.63
420.105	1268.2
420.313	1380.84
420.521	1384.94
420.729	1473
420.937	1362.41
421.145	1395.18
421.353	1679.85
421.561	1632.74
421.769	1665.51
421.977	1640.93
422.185	1675.75
422.393	1792.48
422.601	1800.68
422.809	1858.02
423.017	1956.32
423.224	2073.06
423.432	2109.92
423.64	2087.39
423.848	2288.09
424.056	2286.05
424.263	2492.89
424.471	2451.93
424.679	2621.91
424.887	2683.35
425.094	2669.02
425.302	2742.74
425.51	2703.83
425.718	2879.96
425.925	2871.76
426.133	3029.46
426.341	3207.63
426.548	3299.79
426.756	3394
426.964	3344.84
427.171	3461.58
427.379	3598.79
427.586	3695.05
427.794	3836.36
428.001	3920.32
428.209	4182.46
428.417	4198.85
428.624	4311.49
428.832	4473.28
429.039	4291.01
429.247	4407.74
429.454	4762.04
429.662	5079.47
429.869	4757.94
430.076	4929.97
430.284	5007.8
430.491	5243.31
430.699	5394.86
430.906	5444.01
431.114	5542.32
431.321	5808.55
431.528	5849.51
431.736	6078.88
431.943	6416.8
432.15	6261.15
432.358	6384.03
432.565	6605.21
432.772	6777.24
432.979	6967.7
433.187	7340.43
433.394	7104.92
433.601	7836.04
433.808	7653.77
434.016	7725.45
434.223	7940.49
434.43	8575.36
434.637	8223.11
434.844	8927.61
435.052	8915.32
435.259	8941.94
435.466	9058.68
435.673	8989.05
435.88	9623.92
436.087	10029.41
436.294	10053.99
436.501	9898.34
436.708	10115.43
436.915	10559.84
437.122	10795.36
437.329	10824.03
437.537	11131.22
437.743	11217.24
437.95	11338.07
438.157	11878.73
438.364	12099.91
438.571	12204.36
438.778	12239.17
438.985	13754.67
439.192	13074.74
439.399	13127.99
439.606	13068.6
439.813	13574.45
440.02	14580
440.227	14229.8
440.433	14143.78
440.64	14672.16
440.847	14762.27
441.054	14903.58
441.261	16089.35
441.467	15743.25
441.674	15995.15
441.881	16750.85
442.088	16445.7
442.294	16503.04
442.501	16859.39
442.708	17209.59
442.914	17973.49
443.121	18923.74
443.328	18288.87
443.534	19607.76
443.741	18917.6
443.948	18868.45
444.154	20287.69
444.361	19783.89
444.568	20187.34
444.774	20363.47
444.981	20531.4
445.187	20873.41
445.394	21932.21
445.6	21569.72
445.807	23259.29
446.013	22792.36
446.22	22851.75
446.426	24012.95
446.633	24393.87
446.839	24817.8
447.046	24041.62
447.252	25335.93
447.459	25118.85
447.665	25016.45
447.871	26243.18
448.078	27482.2
448.284	26130.55
448.491	26806.37
448.697	27738.2
448.903	28375.12
449.11	28598.35
449.316	28115.03
449.522	28872.78
449.728	29761.59
449.935	29767.74
450.141	29386.82
450.347	30279.73
450.553	29706.3
450.76	29403.2
450.966	30484.53
451.172	30611.5
451.378	31135.78
451.584	30597.17
451.791	31424.54
451.997	31346.72
452.203	31760.41
452.409	31590.43
452.615	31883.29
452.821	30373.94
453.027	30472.24
453.233	31717.4
453.44	30402.61
453.646	31127.59
453.852	31141.92
454.058	31563.81
454.264	30306.35
454.47	31301.67
454.676	30730.28
454.882	31477.79
455.088	28760.14
455.294	29716.54
455.5	29603.9
455.705	30228.53
455.911	28975.17
456.117	28655.69
456.323	27801.69
456.529	26372.21
456.735	27770.97
456.941	26933.35
457.147	26632.3
457.352	25886.84
457.558	25606.27
457.764	25809.01
457.97	25106.56
458.176	24234.13
458.381	24223.89
458.587	23189.66
458.793	23566.49
458.999	21749.94
459.204	23761.05
459.41	23052.45
459.616	21483.7
459.821	21723.32
460.027	21385.4
460.233	21045.44
460.438	20119.76
460.644	20250.83
460.85	19157.21
461.055	18983.13
461.261	19001.57
461.466	17508.6
461.672	17017.08
461.878	18176.23
462.083	17195.26
462.289	16744.7
462.494	16587.01
462.7	15714.58
462.905	15339.8
463.111	15829.26
463.316	16228.62
463.522	15773.97
463.727	15565.07
463.932	15520.02
464.138	15632.66
464.343	15391
464.549	14897.44
464.754	15497.49
464.959	15534.35
465.165	15296.79
465.37	14508.32
465.575	14309.67
465.781	15014.17
465.986	14844.19
466.191	14479.65
466.397	14045.48
466.602	13439.28
466.807	13953.32
467.012	14043.43
467.218	14000.43
467.423	13775.15
467.628	13709.61
467.833	14586.15
468.038	13717.81
468.244	13261.11
468.449	13918.51
468.654	13599.02
468.859	13400.37
469.064	13261.11
469.269	12937.53
469.474	12671.29
469.679	13269.3
469.885	12835.13
470.09	13117.75
470.295	12757.31
470.5	12603.71
470.705	12652.86
470.91	12192.07
471.115	12222.79
471.32	12659.01
471.525	12304.71
471.73	12194.12
471.935	11991.37
472.139	11510.1
472.344	11852.11
472.549	11735.37
472.754	11458.9
472.959	11460.95
473.164	10981.72
473.369	10975.58
473.574	11452.75
473.778	11252.05
473.983	11022.68
474.188	10989.91
474.393	10627.42
474.598	10594.65
474.802	10584.41
475.007	10406.24
475.212	10555.74
475.417	10045.8
475.621	10152.29
475.826	10043.75
476.031	9920.87
476.235	9816.43
476.44	9892.2
476.645	9601.39
476.849	9763.18
477.054	9601.39
477.259	9228.66
477.463	9374.06
477.668	9378.16
477.872	9312.63
478.077	9259.38
478.282	9025.91
478.486	8872.31
478.691	8855.93
478.895	8835.45
479.1	8679.8
479.304	8821.11
479.509	8671.61
479.713	8569.21
479.918	8495.49
480.122	8286.59
480.326	8503.68
480.531	8264.07
480.735	8343.94
480.94	8171.91
481.144	8524.16
481.348	8061.32
481.553	8257.92
481.757	8118.66
481.961	8206.72
482.166	8331.65
482.37	8200.58
482.574	8046.98
482.778	8112.52
482.983	8182.15
483.187	8010.12
483.391	8255.87
483.595	8157.57
483.8	7889.29
484.004	8116.61
484.208	8161.67
484.412	7926.15
484.616	8196.48
484.821	8157.57
485.025	7954.82
485.229	8139.14
485.433	8087.94
485.637	8089.99
485.841	8069.51
486.045	8038.79
486.249	8126.85
486.453	8087.94
486.657	8124.8
486.861	8176
487.065	8135.04
487.269	8167.81
487.473	7983.49
487.677	8067.46
487.881	8411.52
488.085	8057.22
488.289	8163.72
488.493	8114.56
488.697	8100.23
488.901	8307.07
489.105	8288.64
489.309	8204.67
489.512	8296.83
489.716	8128.9
489.92	8305.03
490.124	8280.45
490.328	8495.49
490.531	8180.1
490.735	8249.73
490.939	8466.81
491.143	8311.17
491.346	8423.81
491.55	8368.51
491.754	8384.9
491.958	8524.16
492.161	8597.88
492.365	8628.6
492.569	8561.02
492.772	8540.54
492.976	8753.53
493.18	8812.92
493.383	9009.53
493.587	8921.46
493.79	9179.51
493.994	8833.4
494.197	8853.88
494.401	9251.19
494.605	9073.01
494.808	9079.16
495.012	9265.52
495.215	9247.09
495.419	9630.06
495.622	9249.14
495.825	9367.92
496.029	9474.42
496.232	9558.38
496.436	9462.13
496.639	9929.06
496.843	9953.64
497.046	10150.25
497.249	9976.17
497.453	10150.25
497.656	10379.62
497.859	10209.64
498.063	10443.1
498.266	10617.18
498.469	10418.53
498.673	10723.68
498.876	10893.66
499.079	11084.12
499.282	10961.24
499.485	11438.42
499.689	11188.57
499.892	11481.42
500.095	11426.13
500.298	11751.76
500.501	11434.32
500.705	11938.12
500.908	12126.53
501.111	12144.97
501.314	12581.18
501.517	12448.07
501.72	12828.99
501.923	12579.14
502.126	13023.55
502.329	13150.52
502.532	13377.84
502.735	13226.29
502.938	13472.05
503.141	13570.35
503.344	13863.21
503.547	13848.88
503.75	14221.61
503.953	14154.02
504.156	14455.08
504.359	14405.92
504.562	14391.59
504.765	14836
504.968	15008.03
505.17	15135
505.373	15139.1
505.576	15739.15
505.779	15808.78
505.982	15958.28
506.185	16154.89
506.387	16013.58
506.59	16357.64
506.793	16582.91
506.996	16732.42
507.198	17019.13
507.401	17015.04
507.604	17176.83
507.807	17582.32
508.009	17821.94
508.212	17830.13
508.415	17852.66
508.617	18254.06
508.82	18284.78
509.022	18491.62
509.225	18632.93
509.428	18792.67
509.63	19087.58
509.833	19374.3
510.035	19579.09
510.238	19384.54
510.44	19923.15
510.643	20099.28
510.845	20449.48
511.048	20304.07
511.25	20838.59
511.453	20744.39
511.655	21498.04
511.858	20904.13
512.06	21754.04
512.262	21708.98
512.465	21876.91
512.667	22182.06
512.87	22812.84
513.072	22321.32
513.274	22808.74
513.477	23179.42
513.679	23249.05
513.881	23488.67
514.084	23840.92
514.286	23894.16
514.488	23894.16
514.69	24656.01
514.893	24602.76
515.095	24535.18
515.297	24932.48
515.499	25397.37
515.701	25411.71
515.904	25804.92
516.106	25733.24
516.308	26275.95
516.51	26712.17
516.712	26501.23
516.914	26873.96
517.116	27631.71
517.318	27127.91
517.52	27289.7
517.722	27924.57
517.925	28219.47
518.127	28594.25
518.329	28803.14
518.531	28522.57
518.733	29454.4
518.935	29335.62
519.136	29583.42
519.338	29978.68
519.54	29716.54
519.742	30187.57
519.944	30685.23
520.146	30986.28
520.348	31332.39
520.55	30978.09
520.752	31221.8
520.954	32079.89
521.155	31821.85
521.357	32352.27
521.559	32741.39
521.761	33142.79
521.963	32774.16
522.164	33017.86
522.366	33273.86
522.568	33460.23
522.77	33628.16
522.971	34195.45
523.173	34095.1
523.375	34723.82
523.576	34514.93
523.778	34559.98
523.98	35139.56
524.181	35127.27
524.383	35422.18
524.584	35467.23
524.786	35876.83
524.988	35803.1
525.189	36161.5
525.391	36425.68
525.592	36192.22
525.794	37052.36
525.995	36812.75
526.197	36992.97
526.398	37193.67
526.6	37359.56
526.801	37380.04
527.003	37771.2
527.204	37662.66
527.406	38158.27
527.607	38119.35
527.808	38279.1
528.01	37732.29
528.211	38346.68
528.412	38801.33
528.614	38924.21
528.815	38623.15
529.016	38942.64
529.218	38531
529.419	39071.66
529.62	39008.17
529.822	39518.12
530.023	39341.99
530.224	39509.93
530.425	39468.97
530.626	39178.15
530.828	39202.73
531.029	40093.6
531.23	39815.07
531.431	39841.7
531.632	39991.2
531.833	39950.24
532.035	40345.5
532.236	40126.36
532.437	40443.8
532.638	40112.03
532.839	40538.01
533.04	40392.6
533.241	39972.77
533.442	40783.76
533.643	40570.77
533.844	40476.57
534.045	40875.92
534.246	40333.21
534.447	40875.92
534.648	40806.29
534.849	40587.16
535.05	40533.91
535.251	40691.6
535.451	40849.3
535.652	40595.35
535.853	40816.53
536.054	41006.99
536.255	41230.22
536.456	40538.01
536.657	41285.51
536.857	41070.48
537.058	40325.02
537.259	41140.11
537.46	41351.05
537.66	40775.57
537.861	41123.72
538.062	41181.07
538.263	40920.98
538.463	40947.6
538.664	40750.99
538.865	41273.23
539.065	41269.13
539.266	40783.76
539.466	41250.7
539.667	40834.96
539.868	41516.93
540.068	40837.01
540.269	40877.97
540.469	41275.27
540.67	40800.15
540.87	41318.28
541.071	40812.43
541.271	41062.29
541.472	41105.29
541.672	40765.33
541.873	40765.33
542.073	40454.04
542.274	40865.68
542.474	41050
542.675	40949.65
542.875	41244.55
543.075	41140.11
543.276	40439.7
543.476	41340.81
543.676	41015.18
543.877	41181.07
544.077	41076.62
544.277	41045.9
544.478	40937.36
544.678	40935.31
544.878	40886.16
545.078	41277.32
545.279	40568.72
545.479	41148.3
545.679	41107.34
545.879	40869.78
546.079	40808.34
546.28	40869.78
546.48	40628.12
546.68	40986.51
546.88	40640.4
547.08	40806.29
547.28	40890.26
547.48	40400.79
547.68	41097.1
547.88	40736.66
548.081	40798.1
548.281	40777.62
548.481	40540.05
548.681	40877.97
548.881	40679.32
549.081	40707.99
549.28	40521.62
549.48	40630.16
549.68	40849.3
549.88	41301.9
550.08	40245.15
550.28	41072.53
550.48	40628.12
550.68	40886.16
550.88	40777.62
551.08	40472.47
551.279	41064.33
551.479	40204.19
551.679	40687.51
551.879	40796.05
552.079	41136.01
552.278	40570.77
552.478	40562.58
552.678	40667.03
552.878	40275.87
553.077	40517.53
553.277	40333.21
553.477	40808.34
553.676	40380.31
553.876	40187.8
554.076	40441.75
554.275	40343.45
554.475	40349.59
554.674	40195.99
554.874	40349.59
555.074	40417.18
555.273	40308.63
555.473	40583.06
555.672	39905.18
555.872	40372.12
556.071	40040.35
556.271	40443.8
556.47	40087.45
556.67	39808.93
556.869	39919.52
557.068	39874.46
557.268	40075.16
557.467	40212.38
557.667	39690.15
557.866	39710.63
558.065	39727.01
558.265	39337.9
558.464	39575.46
558.663	40236.95
558.863	39473.06
559.062	40062.88
559.261	39264.17
559.461	39839.65
559.66	39243.69
559.859	39663.52
560.058	39131.05
560.258	39440.29
560.457	39145.39
560.656	39411.62
560.855	39182.25
561.054	39372.71
561.253	39030.7
561.453	39024.56
561.652	39088.04
561.851	39284.65
562.05	39004.08
562.249	38621.11
562.448	38784.94
562.647	39010.22
562.846	38508.47
563.045	38627.25
563.244	38117.31
563.443	38899.63
563.642	38215.61
563.841	38182.84
564.04	38016.96
564.239	38281.14
564.438	37654.47
564.637	38125.5
564.836	38150.07
565.035	37468.1
565.234	37896.13
565.432	37674.95
565.631	37824.45
565.83	37941.18
566.029	37590.98
566.228	37652.42
566.427	37410.76
566.625	36915.15
566.824	36458.45
567.023	37310.41
567.222	36354.01
567.42	37527.49
567.619	36845.52
567.818	36958.16
568.016	36743.12
568.215	37070.79
568.414	36767.69
568.612	37019.6
568.811	36526.03
569.01	36554.71
569.208	36134.87
569.407	36349.91
569.605	35790.81
569.804	36708.3
570.002	36311
570.201	36255.7
570.4	35473.38
570.598	35428.32
570.797	35557.35
570.995	36169.69
571.193	35282.92
571.392	35508.19
571.59	35155.94
571.789	35629.02
571.987	35272.68
572.186	35033.07
572.384	35278.82
572.582	35229.67
572.781	35069.93
572.979	34463.73
573.177	34863.08
573.376	34891.76
573.574	34514.93
573.772	34703.34
573.971	34211.83
574.169	34295.8
574.367	34211.83
574.565	34406.39
574.763	33824.76
574.962	33851.39
575.16	33673.21
575.358	34045.94
575.556	33368.07
575.754	33984.51
575.952	33796.09
576.151	33906.68
576.349	32966.66
576.547	33241.09
576.745	33556.48
576.943	33153.03
577.141	32993.29
577.339	33157.13
577.537	32940.04
577.735	32894.99
577.933	32325.65
578.131	32768.01
578.329	32608.27
578.527	32301.08
578.725	32493.58
578.923	32729.1
579.121	32198.68
579.319	32108.57
579.516	32020.5
579.714	32051.22
579.912	31961.11
580.11	31879.19
580.308	31735.84
580.506	31805.47
580.704	31225.89
580.901	31463.46
581.099	31440.93
581.297	31297.57
581.495	31510.56
581.692	31500.32
581.89	30847.02
582.088	30969.9
582.285	30906.41
582.483	31203.36
582.681	30887.98
582.878	30560.3
583.076	30586.93
583.274	30840.87
583.471	30345.26
583.669	30251.06
583.866	29921.34
584.064	30388.27
584.262	29796.41
584.459	30275.63
584.657	29966.39
584.854	30056.5
585.052	29497.41
585.249	29843.51
585.447	29866.04
585.644	29413.44
585.841	29255.75
586.039	29618.24
586.236	29175.87
586.434	29100.1
586.631	29046.85
586.828	29329.47
587.026	28956.74
587.223	28913.73
587.42	28895.3
587.618	28645.45
587.815	28590.16
588.012	28731.47
588.21	28758.09
588.407	28942.41
588.604	28682.31
588.801	28160.08
588.999	28078.16
589.196	28102.74
589.393	27846.74
589.59	27609.18
589.787	28149.84
589.984	27422.81
590.182	27332.7
590.379	27889.75
590.576	27684.95
590.773	27615.32
590.97	27297.89
591.167	27125.86
591.364	26845.29
591.561	27324.51
591.758	26990.69
591.955	27129.95
592.152	27148.39
592.349	26898.53
592.546	26833
592.743	26691.69
592.94	26241.14
593.137	27082.85
593.334	26556.52
593.531	26341.49
593.727	26314.86
593.924	26048.63
594.121	25964.66
594.318	26263.66
594.515	25872.5
594.712	26009.72
594.908	25804.92
595.105	25700.47
595.302	25657.46
595.499	25665.66
595.696	25657.46
595.892	25354.37
596.089	25309.31
596.286	25294.97
596.482	25133.18
596.679	25051.27
596.876	25573.5
597.072	24789.13
597.269	25014.4
597.466	25057.41
597.662	24709.25
597.859	24678.54
598.055	24782.98
598.252	24600.71
598.448	24230.03
598.645	24189.07
598.841	24391.82
599.038	24121.49
599.234	24408.2
599.431	24221.84
599.627	24326.28
599.824	23965.84
600.02	23789.72
600.217	23847.06
600.413	23865.49
600.609	23562.39
600.806	23619.74
601.002	23572.63
601.198	23562.39
601.395	23335.07
601.591	23113.89
601.787	23511.19
601.984	23064.74
602.18	23326.88
602.376	23148.7
602.572	23011.49
602.769	23093.41
602.965	22864.04
603.161	22859.94
603.357	22814.88
603.553	22892.71
603.75	22620.33
603.946	22319.28
604.142	22581.42
604.338	22329.52
604.534	22532.26
604.73	22132.91
604.926	22151.34
605.122	22081.71
605.318	22339.76
605.514	21911.73
605.71	22116.53
605.906	21895.35
606.102	21926.07
606.298	21696.69
606.494	21717.17
606.69	21549.24
606.886	21778.61
607.082	21397.69
607.278	21721.27
607.474	21051.58
607.67	21319.87
607.866	21018.82
608.062	21225.66
608.257	21024.96
608.453	21229.76
608.649	21192.89
608.845	20986.05
609.041	20674.76
609.236	21041.34
609.432	20814.02
609.628	21176.51
609.824	20883.65
610.019	20758.72
610.215	20578.5
610.411	20936.9
610.606	20517.06
610.802	20771.01
610.998	20429
611.193	20670.66
611.389	20273.35
611.584	20453.58
611.78	20248.78
611.976	20291.79
612.171	20459.72
612.367	20316.36
612.562	19849.43
612.758	19998.93
612.953	19794.13
613.149	20181.2
613.344	19714.26
613.539	20127.95
613.735	19738.83
613.93	19736.79
614.126	19609.81
614.321	19785.94
614.517	19622.1
614.712	19531.99
614.907	19529.94
615.103	19525.85
615.298	19542.23
615.493	19513.56
615.688	19226.84
615.884	19697.88
616.079	19331.29
616.274	19368.15
616.47	19149.02
616.665	19220.7
616.86	19179.74
617.055	18899.17
617.25	19271.9
617.445	19239.13
617.641	18524.39
617.836	19073.24
618.031	18862.3
618.226	19093.72
618.421	18614.5
618.616	18819.3
618.811	18143.47
619.006	18698.47
619.201	18249.96
619.396	18499.81
619.591	18168.04
619.786	18235.63
619.981	18002.16
620.176	18329.83
620.371	17961.2
620.566	18036.97
620.761	17729.78
620.956	18082.03
621.151	17553.65
621.346	17776.88
621.541	17436.92
621.735	17735.92
621.93	17654
622.125	17385.72
622.32	17185.02
622.515	17182.97
622.709	16822.53
622.904	17072.38
623.099	17008.89
623.294	16969.98
623.488	16658.69
623.683	16888.06
623.878	16490.76
624.072	16640.26
624.267	16451.84
624.462	16294.15
624.656	16281.86
624.851	16341.25
625.046	16101.64
625.24	16060.68
625.435	15952.14
625.629	15816.97
625.824	15638.8
626.018	15794.45
626.213	15440.15
626.407	15425.81
626.602	15243.54
626.796	15522.07
626.991	15096.09
627.185	15274.26
627.38	14915.87
627.574	15010.07
627.768	14993.69
627.963	14749.98
628.157	14743.84
628.352	14539.04
628.546	14496.03
628.74	14612.77
628.935	14536.99
629.129	14498.08
629.323	14063.91
629.517	14217.51
629.712	14244.13
629.906	13979.95
630.1	13871.4
630.294	13818.16
630.489	13924.65
630.683	13895.98
630.877	13623.6
631.071	13658.42
631.265	13801.77
631.459	13439.28
631.653	13664.56
631.848	13553.97
632.042	13295.93
632.236	13142.33
632.43	13087.03
632.624	13017.4
632.818	12949.82
633.012	12822.84
633.206	12863.8
633.4	12810.56
633.594	12695.87
633.788	12730.69
633.982	12818.75
634.176	12687.68
634.369	12378.44
634.563	12435.78
634.757	12491.07
634.951	12374.34
635.145	12370.24
635.339	12214.6
635.533	12007.75
635.726	12044.62
635.92	11749.71
636.114	11831.63
636.308	11825.48
636.501	11919.69
636.695	11798.86
636.889	11778.38
637.083	11551.06
637.276	11592.02
637.47	11436.37
637.664	11344.21
637.857	11379.03
638.051	11338.07
638.244	11262.29
638.438	11260.24
638.632	11223.38
638.825	11082.07
639.019	11209.04
639.212	10889.56
639.406	10887.51
639.599	10721.63
639.793	10836.31
639.986	10565.98
640.18	10647.9
640.373	10168.68
640.567	10502.5
640.76	10359.14
640.954	10183.01
641.147	10330.47
641.34	10266.98
641.534	10221.92
641.727	10142.05
641.92	10232.16
642.114	9931.11
642.307	10197.35
642.5	9884.01
642.694	9830.76
642.887	9918.82
643.08	9632.11
643.273	9492.85
643.467	9617.77
643.66	9707.88
643.853	9578.86
644.046	9283.95
644.239	9333.11
644.432	9425.26
644.626	9277.81
644.819	9302.39
645.012	9257.33
645.205	9169.27
645.398	9277.81
645.591	8915.32
645.784	9091.45
645.977	8876.41
646.17	8984.95
646.363	8704.38
646.556	8778.11
646.749	9050.49
646.942	8696.19
647.135	8642.94
647.328	8587.64
647.521	8432
647.714	8513.92
647.907	8507.77
648.099	8366.46
648.292	8337.79
648.485	8477.05
648.678	8472.96
648.871	8151.43
649.064	8307.07
649.256	8282.5
649.449	8051.08
649.642	7901.58
649.835	7760.27
650.027	7952.77
650.22	7831.94
650.413	7803.27
650.605	7905.67
650.798	7569.8
650.991	7711.11
651.183	7555.47
651.376	7561.61
651.568	7664.01
651.761	7631.24
651.954	7496.08
652.146	7606.67
652.339	7446.93
652.531	7352.72
652.724	7522.7
652.916	7281.04
653.109	7305.62
653.301	7192.98
653.494	7201.17
653.686	6973.85
653.879	7350.67
654.071	7027.09
654.263	7035.28
654.456	7149.97
654.648	7162.26
654.84	6977.94
655.033	6912.41
655.225	6986.13
655.417	6844.82
655.61	6746.52
655.802	6773.14
655.994	6693.27
656.186	6769.05
656.379	6666.65
656.571	6758.81
656.763	6394.27
656.955	6470.05
657.148	6578.59
657.34	6427.04
657.532	6353.31
657.724	6461.85
657.916	6519.2
658.108	6318.5
658.3	6381.98
658.492	6238.62
658.684	6183.33
658.876	6261.15
659.068	6209.95
659.26	6091.17
659.452	6263.2
659.644	6076.84
659.836	6214.05
660.028	6154.66
660.22	5935.53
660.412	5986.72
660.604	5982.63
660.796	5886.37
660.988	5826.98
661.18	5824.94
661.372	5747.11
661.563	5865.89
661.755	5740.97
661.947	5695.91
662.139	5693.87
662.331	5452.2
662.522	5556.65
662.714	5548.46
662.906	5519.79
663.097	5448.11
663.289	5484.97
663.481	5382.57
663.673	5446.06
663.864	5347.76
664.056	5323.18
664.247	5374.38
664.439	5245.36
664.631	5233.07
664.822	5466.54
665.014	5247.41
665.205	5171.63
665.397	5300.66
665.588	5075.38
665.78	5132.72
665.971	5173.68
666.163	5194.16
666.354	5018.04
666.546	5001.65
666.737	4989.36
666.929	5087.67
667.12	5038.52
667.311	4913.59
667.503	4876.73
667.694	4940.21
667.885	4854.2
668.077	4899.25
668.268	4897.21
668.459	4774.33
668.651	4733.37
668.842	4690.36
669.033	4673.98
669.224	4637.11
669.416	4766.14
669.607	4829.62
669.798	4798.9
669.989	4805.05
670.18	4786.61
670.371	4653.5
670.563	4540.86
670.754	4590.01
670.945	4538.81
671.136	4352.45
671.327	4653.5
671.518	4379.07
671.709	4542.91
671.9	4395.45
672.091	4348.35
672.282	4276.67
672.473	4352.45
672.664	4401.6
672.855	4358.59
673.046	4397.5
673.237	4448.7
673.428	4272.57
673.619	4415.93
673.809	4325.82
674	4344.25
674.191	4303.29
674.382	4202.94
674.573	4284.86
674.764	4178.37
674.954	4239.81
675.145	4182.46
675.336	4241.86
675.527	4170.18
675.717	4280.77
675.908	4278.72
676.099	4350.4
676.289	4202.94
676.48	4182.46
676.671	4002.24
676.861	4082.11
677.052	3994.05
677.243	4114.88
677.433	4116.93
677.624	4161.98
677.814	4141.5
678.005	4028.87
678.195	4106.69
678.386	3989.96
678.576	3969.48
678.767	3951.04
678.957	3914.18
679.148	3949
679.338	3996.1
679.529	4123.07
679.719	4030.91
679.909	3936.71
680.1	3922.37
680.29	4002.24
680.481	3983.81
680.671	3932.61
680.861	4012.48
681.052	3961.28
681.242	4020.67
681.432	4057.54
681.622	3895.75
681.813	3832.26
682.003	3819.97
682.193	3797.45
682.383	3856.84
682.573	3867.08
682.764	3869.12
682.954	3944.9
683.144	3973.57
683.334	3905.99
683.524	3942.85
683.714	3963.33
683.904	3768.77
684.094	3750.34
684.284	3883.46
684.474	3969.48
684.664	3779.01
684.854	3895.75
685.044	3787.21
685.234	3711.43
685.424	3785.16
685.614	3764.68
685.804	3631.56
685.994	3750.34
686.184	3762.63
686.374	3586.51
686.564	3656.14
686.753	3633.61
686.943	3744.2
687.133	3768.77
687.323	3701.19
687.513	3617.22
687.702	3641.8
687.892	3686.86
688.082	3639.75
688.272	3750.34
688.461	3602.89
688.651	3760.58
688.841	3523.02
689.03	3598.79
689.22	3574.22
689.41	3566.03
689.599	3471.82
689.789	3547.59
689.979	3578.31
690.168	3441.1
690.358	3512.78
690.547	3473.87
690.737	3447.24
690.926	3451.34
691.116	3437
691.305	3465.68
691.495	3529.16
691.684	3412.43
691.874	3389.9
692.063	3324.37
692.252	3408.33
692.442	3258.83
692.631	3250.64
692.82	3432.91
693.01	3336.65
693.199	3291.6
693.388	3271.12
693.578	3359.18
693.767	3445.2
693.956	3365.32
694.146	3307.98
694.335	3338.7
694.524	3230.16
694.713	3305.93
694.902	3256.78
695.092	3242.45
695.281	3072.47
695.47	3293.65
695.659	3236.3
695.848	3279.31
696.037	3314.13
696.226	3230.16
696.415	3256.78
696.604	3172.82
696.793	3236.3
696.982	3221.97
697.171	3121.62
697.36	3199.44
697.549	3205.58
697.738	3232.21
697.927	3119.57
698.116	3213.77
698.305	3267.02
698.494	3140.05
698.683	3217.87
698.872	3256.78
699.061	3088.85
699.25	3058.13
699.438	3119.57
699.627	3312.08
699.816	3217.87
700.005	3109.33
700.193	3121.62
700.382	3148.24
700.571	3154.38
700.76	3070.42
700.948	3174.86
701.137	3121.62
701.326	3170.77
701.514	3140.05
701.703	3060.18
701.892	3183.06
702.08	3154.38
702.269	3041.75
702.457	3000.79
702.646	3033.55
702.834	3152.34
703.023	3054.03
703.212	3084.75
703.4	3123.66
703.589	3094.99
703.777	3072.47
703.965	3074.51
704.154	3023.31
704.342	3054.03
704.531	3189.2
704.719	2912.72
704.907	3097.04
705.096	3103.18
705.284	3035.6
705.472	3105.23
705.661	2984.4
705.849	2959.83
706.037	3039.7
706.226	3021.27
706.414	3049.94
706.602	3002.83
706.79	3000.79
706.979	3062.23
707.167	2984.4
707.355	3131.86
707.543	2935.25
707.731	3021.27
707.919	2992.59
708.107	2951.63
708.296	3064.27
708.484	2898.39
708.672	3103.18
708.86	2920.92
709.048	3033.55
709.236	2986.45
709.424	2943.44
709.612	3135.95
709.8	2957.78
709.988	2851.28
710.176	3023.31
710.364	2998.74
710.551	2976.21
710.739	2931.16
710.927	2937.3
711.115	2949.59
711.303	3097.04
711.491	3006.93
711.679	2978.26
711.866	3058.13
712.054	2992.59
712.242	2896.34
712.43	3041.75
712.617	2982.35
712.805	2869.72
712.993	3017.17
713.181	2845.14
713.368	2974.16
713.556	2980.31
713.744	2925.01
713.931	2935.25
714.119	2892.24
714.306	3066.32
714.494	3092.94
714.682	2941.4
714.869	2859.48
715.057	2961.87
715.244	2937.3
715.432	2959.83
715.619	2910.68
715.807	2871.76
715.994	2906.58
716.182	2927.06
716.369	2988.5
716.556	2882
716.744	2892.24
716.931	2900.44
717.119	2841.04
717.306	3000.79
717.493	2982.35
717.681	2980.31
717.868	2867.67
718.055	2902.48
718.242	2986.45
718.43	2896.34
718.617	2869.72
718.804	2871.76
718.991	2898.39
719.179	3031.51
719.366	2935.25
719.553	2793.94
719.74	2771.41
719.927	2818.52
720.114	2787.8
720.301	2804.18
720.488	2744.79
720.676	2785.75
720.863	2865.62
721.05	2847.19
721.237	2869.72
721.424	2818.52
721.611	2898.39
721.798	2669.02
721.985	2761.17
722.172	2847.19
722.358	2789.85
722.545	2841.04
722.732	2789.85
722.919	2849.24
723.106	2908.63
723.293	2781.65
723.48	2839
723.667	2812.37
723.853	2730.45
724.04	2763.22
724.227	2752.98
724.414	2802.13
724.6	2650.58
724.787	2826.71
724.974	2808.28
725.161	2771.41
725.347	2798.04
725.534	2736.6
725.72	2695.64
725.907	2802.13
726.094	2933.2
726.28	2777.56
726.467	2724.31
726.653	2677.21
726.84	2738.65
727.027	2746.84
727.213	2646.49
727.4	2775.51
727.586	2839
727.773	2726.36
727.959	2632.15
728.145	2662.87
728.332	2740.69
728.518	2630.1
728.705	2675.16
728.891	2640.34
729.077	2718.17
729.264	2707.93
729.45	2750.93
729.636	2812.37
729.823	2677.21
730.009	2664.92
730.195	2658.78
730.382	2685.4
730.568	2673.11
730.754	2671.06
730.94	2652.63
731.126	2695.64
731.313	2677.21
731.499	2599.38
731.685	2679.26
731.871	2746.84
732.057	2730.45
732.243	2705.88
732.429	2689.49
732.615	2687.45
732.801	2755.03
732.987	2626.01
733.173	2580.95
733.359	2648.54
733.545	2628.06
733.731	2552.28
733.917	2574.81
734.103	2548.19
734.289	2564.57
734.475	2486.75
734.661	2501.08
734.847	2632.15
735.033	2619.86
735.219	2564.57
735.404	2519.51
735.59	2527.71
735.776	2468.31
735.962	2626.01
736.148	2587.1
736.333	2554.33
736.519	2585.05
736.705	2626.01
736.89	2568.66
737.076	2630.1
737.262	2650.58
737.447	2591.19
737.633	2529.75
737.819	2572.76
738.004	2480.6
738.19	2470.36
738.375	2425.31
738.561	2449.88
738.747	2482.65
738.932	2515.42
739.118	2527.71
739.303	2529.75
739.489	2521.56
739.674	2445.79
739.859	2537.95
740.045	2521.56
740.23	2484.7
740.416	2322.91
740.601	2421.21
740.786	2494.94
740.972	2238.94
741.157	2449.88
741.342	2404.83
741.528	2329.05
741.713	2441.69
741.898	2425.31
742.084	2400.73
742.269	2386.4
742.454	2359.77
742.639	2421.21
742.824	2367.96
743.01	2222.56
743.195	2318.81
743.38	2382.3
743.565	2195.93
743.75	2267.61
743.935	2218.46
744.12	2320.86
744.305	2214.37
744.49	2167.26
744.675	2218.46
744.86	2107.87
745.045	2361.82
745.23	2185.69
745.415	2243.04
745.6	2097.63
745.785	2187.74
745.97	2195.93
746.155	2152.93
746.34	2181.6
746.525	2021.86
746.71	2089.44
746.895	2089.44
747.079	1929.7
747.264	2120.16
747.449	2015.71
747.634	2095.58
747.819	1978.85
748.003	2124.26
748.188	2003.43
748.373	1972.71
748.557	1913.31
748.742	1956.32
748.927	1956.32
749.111	1978.85
749.296	1808.87
749.481	1980.9
749.665	1882.6
749.85	1937.89
750.034	1997.28
750.219	1933.79
750.404	1802.72
750.588	1896.93
750.773	1937.89
750.957	1864.16
751.141	1815.01
751.326	1941.99
751.51	1808.87
751.695	1731.05
751.879	1616.36
752.064	1757.67
752.248	1665.51
752.432	1798.63
752.617	1575.4
752.801	1743.33
752.985	1694.18
753.17	1763.81
753.354	1649.13
753.538	1669.61
753.722	1495.53
753.907	1577.45
754.091	1610.22
754.275	1667.56
754.459	1583.59
754.643	1501.67
754.828	1513.96
755.012	1497.58
755.196	1559.02
755.38	1460.71
755.564	1446.38
755.748	1462.76
755.932	1513.96
756.116	1532.39
756.3	1468.91
756.484	1458.67
756.668	1436.14
756.852	1368.56
757.036	1434.09
757.22	1389.03
757.404	1452.52
757.588	1423.85
757.772	1493.48
757.956	1382.89
758.14	1284.59
758.323	1364.46
758.507	1341.93
758.691	1237.49
758.875	1305.07
759.059	1292.78
759.242	1372.65
759.426	1229.29
759.61	1321.45
759.794	1210.86
759.977	1278.44
760.161	1333.74
760.345	1274.35
760.528	1346.03
760.712	1323.5
760.895	1219.05
761.079	1350.12
761.263	1153.52
761.446	1241.58
761.63	1264.11
761.813	1186.29
761.997	1235.44
762.18	1206.77
762.364	1350.12
762.547	1153.52
762.731	1180.14
762.914	1206.77
763.098	1192.43
763.281	1264.11
763.464	1194.48
763.648	1149.42
763.831	1149.42
764.015	1106.42
764.198	1147.37
764.381	1098.22
764.564	1110.51
764.748	1096.18
764.931	1139.18
765.114	1130.99
765.297	1133.04
765.481	1040.88
765.664	1094.13
765.847	993.78
766.03	1065.46
766.213	997.87
766.397	1077.74
766.58	1100.27
766.763	1169.9
766.946	975.35
767.129	985.58
767.312	1051.12
767.495	1012.21
767.678	1022.45
767.861	1008.11
768.044	969.2
768.227	1106.42
768.41	1008.11
768.593	993.78
768.776	1018.35
768.959	1024.5
769.142	965.11
769.324	1047.02
769.507	991.73
769.69	965.11
769.873	936.43
770.056	926.19
770.239	977.39
770.421	946.67
770.604	971.25
770.787	934.39
770.97	995.82
771.152	975.35
771.335	993.78
771.518	950.77
771.7	993.78
771.883	879.09
772.066	952.82
772.248	915.95
772.431	918
772.613	891.38
772.796	958.96
772.978	860.66
773.161	969.2
773.343	823.8
773.526	809.46
773.708	817.65
773.891	799.22
774.073	868.85
774.256	926.19
774.438	883.19
774.621	911.86
774.803	895.47
774.985	836.08
775.168	791.03
775.35	809.46
775.532	852.47
775.715	668.15
775.897	795.12
776.079	766.45
776.261	786.93
776.444	760.31
776.626	825.84
776.808	668.15
776.99	803.32
777.173	784.88
777.355	819.7
777.537	786.93
777.719	764.4
777.901	752.12
778.083	659.96
778.265	801.27
778.447	655.86
778.629	616.95
778.811	653.81
778.993	672.25
779.175	688.63
779.357	639.48
779.539	729.59
779.721	694.77
779.903	655.86
780.085	580.09
780.267	678.39
780.449	641.53
780.631	631.29
780.812	582.14
780.994	647.67
781.176	616.95
781.358	635.38
781.54	588.28
781.721	721.4
781.903	678.39
782.085	602.61
782.267	657.91
782.448	637.43
782.63	684.53
782.812	565.75
782.993	616.95
783.175	674.29
783.357	582.14
783.538	573.94
783.72	590.33
783.901	410.11
784.083	541.18
784.264	590.33
784.446	451.07
784.627	565.75
784.809	539.13
784.99	485.88
785.172	475.64
785.353	500.22
785.535	565.75
785.716	477.69
785.897	537.08
786.079	504.31
786.26	473.59
786.441	481.78
786.623	453.11
786.804	518.65
786.985	455.16
787.167	471.54
787.348	471.54
787.529	498.17
787.71	506.36
787.891	514.55
788.073	485.88
788.254	363
788.435	489.98
788.616	416.25
788.797	412.15
788.978	473.59
789.159	401.91
789.34	397.82
789.522	455.16
789.703	434.68
789.884	358.91
790.065	481.78
790.246	399.87
790.427	395.77
790.607	428.54
790.788	461.3
790.969	383.48
791.15	352.76
791.331	371.19
791.512	393.72
791.693	340.47
791.874	371.19
792.054	426.49
792.235	350.71
792.416	406.01
792.597	393.72
792.778	403.96
792.958	385.53
793.139	360.95
793.32	356.86
793.5	363
793.681	377.34
793.862	363
794.042	311.8
794.223	330.23
794.404	315.9
794.584	266.75
794.765	305.66
794.945	301.56
795.126	330.23
795.306	326.14
795.487	395.77
795.667	276.99
795.848	326.14
796.028	336.38
796.209	348.67
796.389	332.28
796.57	320
796.75	279.04
796.93	348.67
797.111	291.32
797.291	322.04
797.471	344.57
797.652	311.8
797.832	287.23
798.012	274.94
798.192	209.4
798.373	291.32
798.553	281.08
798.733	320
798.913	356.86
799.093	305.66
799.274	322.04
799.454	295.42
799.634	260.6
799.814	281.08
799.994	326.14
800.174	305.66
800.354	283.13
800.534	240.12
800.714	244.22
800.894	240.12
801.074	242.17
801.254	254.46
801.434	274.94
801.614	268.8
801.794	180.73
801.974	676.34
802.154	225.79
802.334	250.36
802.514	197.12
802.693	281.08
802.873	283.13
803.053	248.32
803.233	289.28
803.413	225.79
803.592	240.12
803.772	256.51
803.952	188.93
804.131	197.12
804.311	246.27
804.491	264.7
804.67	205.31
804.85	334.33
805.03	231.93
805.209	233.98
805.389	227.84
805.568	211.45
805.748	115.2
805.928	238.08
806.107	305.66
806.287	176.64
806.466	193.02
806.646	266.75
806.825	264.7
807.004	276.99
807.184	182.78
807.363	266.75
807.543	225.79
807.722	162.3
807.901	221.69
808.081	217.6
808.26	186.88
808.439	205.31
808.619	129.53
808.798	133.63
808.977	150.01
809.156	166.4
809.336	168.45
809.515	276.99
809.694	207.36
809.873	240.12
810.052	244.22
810.231	236.03
810.411	289.28
810.59	264.7
810.769	199.16
810.948	262.65
811.127	137.73
811.306	176.64
811.485	229.88
811.664	209.4
811.843	121.34
812.022	244.22
812.201	123.39
812.38	156.16
812.559	135.68
812.737	156.16
812.916	186.88
813.095	102.91
813.274	184.83
813.453	219.64
813.632	133.63
813.811	166.4
813.989	131.58
814.168	186.88
814.347	154.11
814.526	131.58
814.704	195.07
814.883	178.69
815.062	133.63
815.24	203.26
815.419	160.25
815.598	154.11
815.776	158.21
815.955	160.25
816.133	145.92
816.312	176.64
816.49	133.63
816.669	154.11
816.847	178.69
817.026	82.43
817.204	166.4
817.383	139.77
817.561	147.97
817.74	246.27
817.918	127.49
818.097	195.07
818.275	176.64
818.453	133.63
818.632	170.49
818.81	135.68
818.988	152.06
819.167	137.73
819.345	170.49
819.523	84.48
819.701	150.01
819.879	168.45
820.058	107.01
820.236	225.79
820.414	107.01
820.592	113.15
820.77	115.2
820.948	117.25
821.127	195.07
821.305	102.91
821.483	59.9
821.661	137.73
821.839	92.67
822.017	121.34
822.195	141.82
822.373	68.09
822.551	123.39
822.729	82.43
822.907	94.72
823.085	174.59
823.262	147.97
823.44	51.71
823.618	64
823.796	164.35
823.974	109.05
824.152	39.42
824.329	64
824.507	145.92
824.685	111.1
824.863	137.73
825.04	90.62
825.218	96.77
825.396	131.58
825.574	84.48
825.751	121.34
825.929	156.16
826.107	68.09
826.284	70.14
826.462	70.14
826.639	96.77
826.817	98.81
826.994	145.92
827.172	131.58
827.349	139.77
827.527	115.2
827.704	117.25
827.882	49.66
828.059	113.15
828.237	104.96
828.414	104.96
828.591	51.71
828.769	145.92
828.946	39.42
829.124	145.92
829.301	102.91
829.478	23.04
829.655	123.39
829.833	137.73
830.01	80.38
830.187	121.34
830.364	102.91
830.542	131.58
830.719	113.15
830.896	152.06
831.073	92.67
831.25	125.44
831.427	76.29
831.604	150.01
831.782	94.72
831.959	150.01
832.136	150.01
832.313	117.25
832.49	64
832.667	8.7
832.844	57.86
833.021	94.72
833.198	125.44
833.374	154.11
833.551	90.62
833.728	117.25
833.905	86.53
834.082	20.99
834.259	117.25
834.436	74.24
834.612	102.91
834.789	111.1
834.966	113.15
835.143	55.81
835.319	70.14
835.496	84.48
835.673	57.86
835.85	104.96
836.026	41.47
836.203	78.33
836.38	37.38
836.556	33.28
836.733	70.14
836.909	94.72
837.086	92.67
837.262	82.43
837.439	88.57
837.616	68.09
837.792	53.76
837.968	98.81
838.145	57.86
838.321	137.73
838.498	98.81
838.674	61.95
838.851	166.4
839.027	53.76
839.203	121.34
839.38	86.53
839.556	102.91
839.732	137.73
839.909	55.81
840.085	25.09
840.261	70.14
840.437	82.43
840.614	51.71
840.79	98.81
840.966	115.2
841.142	150.01
841.318	29.18
841.494	86.53
841.671	145.92
841.847	43.52
842.023	20.99
842.199	78.33
842.375	129.53
842.551	66.05
842.727	57.86
842.903	76.29
843.079	16.9
843.255	59.9
843.431	61.95
843.607	82.43
843.783	18.94
843.959	66.05
844.134	61.95
844.31	115.2
844.486	68.09
844.662	39.42
844.838	74.24
845.013	76.29
845.189	31.23
845.365	41.47
845.541	10.75
845.716	121.34
845.892	100.86
846.068	35.33
846.244	-24.06
846.419	111.1
846.595	145.92
846.77	45.57
846.946	66.05
847.122	125.44
847.297	88.57
847.473	78.33
847.648	82.43
847.824	6.66
847.999	35.33
848.175	14.85
848.35	70.14
848.526	45.57
848.701	57.86
848.876	2.56
849.052	51.71
849.227	31.23
849.403	92.67
849.578	70.14
849.753	90.62
849.929	86.53
850.104	6.66
850.279	104.96
850.454	90.62
850.63	35.33
850.805	10.75
850.98	78.33
851.155	86.53
851.33	47.62
851.505	41.47
851.681	74.24
851.856	0.51
852.031	125.44
852.206	53.76
852.381	8.7
852.556	-24.06
852.731	51.71
852.906	35.33
853.081	53.76
853.256	78.33
853.431	51.71
853.606	-54.78
853.781	111.1
853.956	61.95
854.131	10.75
854.305	35.33
854.48	25.09
854.655	51.71
854.83	-11.78
855.005	72.19
855.18	53.76
855.354	2.56
855.529	57.86
855.704	68.09
855.879	12.8
856.053	12.8
856.228	43.52
856.403	14.85
856.577	55.81
856.752	10.75
856.926	37.38
857.101	31.23
857.276	59.9
857.45	57.86
857.625	43.52
857.799	64
857.974	84.48
858.148	14.85
858.323	31.23
858.497	-36.35
858.672	6.66
858.846	70.14
859.02	16.9
859.195	49.66
859.369	49.66
859.543	66.05
859.718	18.94
859.892	92.67
860.066	-50.69
860.241	53.76
860.415	53.76
860.589	16.9
860.763	121.34
860.938	10.75
861.112	-13.82
861.286	-11.78
861.46	14.85
861.634	29.18
861.808	61.95
861.982	-22.02
862.157	70.14
862.331	-5.63
862.505	6.66
862.679	-50.69
862.853	45.57
863.027	37.38
863.201	23.04
863.375	45.57
863.549	-11.78
863.722	104.96
863.896	6.66
864.07	-9.73
864.244	20.99
864.418	0.51
864.592	8.7
864.766	82.43
864.939	41.47
865.113	61.95
865.287	55.81
865.461	31.23
865.634	68.09
865.808	20.99
865.982	-15.87
866.156	43.52
866.329	66.05
866.503	-79.36
866.676	82.43
866.85	20.99
867.024	-9.73
867.197	35.33
867.371	150.01
867.544	82.43
867.718	43.52
867.891	16.9
868.065	2.56
868.238	41.47
868.412	18.94
868.585	-44.54
868.759	-28.16
868.932	-19.97
869.105	27.14
869.279	-46.59
869.452	-17.92
869.625	102.91
869.799	-1.54
869.972	20.99
870.145	10.75
870.319	12.8
870.492	33.28
870.665	-22.02
870.838	74.24
871.011	41.47
871.185	88.57
871.358	-5.63
871.531	16.9
871.704	-24.06
871.877	43.52
872.05	4.61
872.223	88.57
872.396	27.14
872.569	125.44
872.742	-26.11
872.915	-9.73
873.088	-5.63
873.261	-9.73
873.434	43.52
873.607	2.56
873.78	96.77
873.953	-1.54
874.126	43.52
874.299	4.61
874.471	-1.54
874.644	61.95
874.817	16.9
874.99	111.1
875.163	41.47
875.335	72.19
875.508	18.94
875.681	76.29
875.853	-13.82
876.026	82.43
876.199	-46.59
876.371	55.81
876.544	-28.16
876.717	129.53
876.889	29.18
877.062	41.47
877.234	2.56
877.407	-26.11
877.579	57.86
877.752	25.09
877.924	-9.73
878.097	20.99
878.269	-15.87
878.442	12.8
878.614	-32.26
878.786	111.1
878.959	23.04
879.131	33.28
879.303	90.62
879.476	-34.3
879.648	14.85
879.82	23.04
879.993	-48.64
880.165	-32.26
880.337	-38.4
880.509	6.66
880.681	2.56
880.854	4.61
881.026	43.52
881.198	90.62
881.37	-44.54
881.542	72.19
881.714	0.51
881.886	23.04
882.058	-30.21
882.23	66.05
882.402	16.9
882.574	8.7
882.746	10.75
882.918	14.85
883.09	-26.11
883.262	55.81
883.434	2.56
883.606	16.9
883.778	-22.02
883.95	59.9
884.122	0.51
884.293	-44.54
884.465	12.8
884.637	61.95
884.809	-24.06
884.98	37.38
885.152	4.61
885.324	45.57
885.496	59.9
885.667	4.61
885.839	68.09
886.011	10.75
886.182	27.14
886.354	14.85
886.525	41.47
886.697	6.66
886.869	51.71
887.04	70.14
887.212	-62.98
887.383	41.47
887.555	6.66
887.726	41.47
887.897	10.75
888.069	-7.68
888.24	86.53
888.412	-9.73
888.583	41.47
888.754	16.9
888.926	14.85
889.097	51.71
889.268	10.75
889.44	8.7
889.611	2.56
889.782	37.38
889.953	18.94
890.125	-15.87
890.296	20.99
890.467	0.51
890.638	-9.73
890.809	45.57
890.98	4.61
891.151	94.72
891.323	6.66
891.494	43.52
891.665	43.52
891.836	25.09
892.007	-11.78
892.178	20.99
892.349	88.57
892.52	47.62
892.691	-17.92
892.862	-17.92
893.032	-69.12
893.203	-15.87
893.374	39.42
893.545	121.34
893.716	-5.63
893.887	47.62
894.057	12.8
894.228	61.95
894.399	10.75
894.57	43.52
894.74	55.81
894.911	41.47
895.082	2.56
895.253	35.33
895.423	-48.64
895.594	10.75
895.764	78.33
895.935	66.05
896.106	-73.21
896.276	25.09
896.447	8.7
896.617	-22.02
896.788	-24.06
896.958	-11.78
897.129	0.51
897.299	-24.06
897.47	61.95
897.64	25.09
897.81	45.57
897.981	29.18
898.151	4.61
898.322	78.33
898.492	37.38
898.662	-1.54
898.832	-77.31
899.003	2.56
899.173	12.8
899.343	-1.54
899.513	8.7
