Data from USB4F104151__68__11-52-36-601.txt Node

Date: Fri Mar 14 11:52:36 EDT 2025
User: louis
Spectrometer: USB4F10415
Trigger mode: 4
Integration Time (sec): 2.000000E-2
Scans to average: 1
Electric dark correction enabled: true
Nonlinearity correction enabled: false
Boxcar width: 0
XAxis mode: Wavelengths
Number of Pixels in Spectrum: 3648
>>>>>Begin Spectral Data<<<<<
178.204	-70.14
178.424	-70.14
178.644	-70.14
178.864	-72.19
179.084	-156.16
179.304	7.68
179.524	1.54
179.744	-39.42
179.964	56.83
180.184	-6.66
180.404	17.92
180.624	-45.57
180.844	-18.94
181.064	-35.33
181.283	28.16
181.503	-4.61
181.723	38.4
181.943	-23.04
182.163	120.32
182.383	34.3
182.602	44.54
182.822	114.17
183.042	50.69
183.262	28.16
183.482	52.74
183.701	97.79
183.921	-37.38
184.141	36.35
184.361	-43.52
184.58	13.82
184.8	-31.23
185.02	-23.04
185.239	-35.33
185.459	-6.66
185.679	54.78
185.898	26.11
186.118	-0.51
186.338	58.88
186.557	48.64
186.777	9.73
186.997	56.83
187.216	-66.05
187.436	101.89
187.655	28.16
187.875	44.54
188.095	36.35
188.314	62.98
188.534	50.69
188.753	28.16
188.973	19.97
189.192	50.69
189.412	-10.75
189.631	52.74
189.851	-25.09
190.07	56.83
190.29	34.3
190.509	-16.9
190.729	48.64
190.948	17.92
191.168	89.6
191.387	7.68
191.607	-25.09
191.826	42.5
192.045	30.21
192.265	-4.61
192.484	44.54
192.704	-4.61
192.923	36.35
193.142	65.02
193.362	-37.38
193.581	138.75
193.8	22.02
194.02	71.17
194.239	52.74
194.458	79.36
194.678	44.54
194.897	11.78
195.116	19.97
195.335	-12.8
195.555	19.97
195.774	22.02
195.993	40.45
196.212	-4.61
196.432	-12.8
196.651	-23.04
196.87	48.64
197.089	87.55
197.308	15.87
197.528	-8.7
197.747	30.21
197.966	67.07
198.185	85.5
198.404	44.54
198.623	-8.7
198.842	56.83
199.062	71.17
199.281	71.17
199.5	58.88
199.719	105.98
199.938	83.45
200.157	50.69
200.376	36.35
200.595	44.54
200.814	54.78
201.033	34.3
201.252	-37.38
201.471	1.54
201.69	-4.61
201.909	1.54
202.128	-4.61
202.347	36.35
202.566	-2.56
202.785	67.07
203.004	15.87
203.223	65.02
203.442	-18.94
203.661	7.68
203.879	99.84
204.098	17.92
204.317	-2.56
204.536	52.74
204.755	56.83
204.974	110.08
205.193	67.07
205.411	67.07
205.63	48.64
205.849	40.45
206.068	-6.66
206.287	62.98
206.505	56.83
206.724	-41.47
206.943	34.3
207.162	65.02
207.381	3.58
207.599	9.73
207.818	-10.75
208.037	7.68
208.255	9.73
208.474	-12.8
208.693	52.74
208.911	48.64
209.13	3.58
209.349	34.3
209.567	-0.51
209.786	46.59
210.005	-18.94
210.223	52.74
210.442	-12.8
210.661	22.02
210.879	-29.18
211.098	46.59
211.316	60.93
211.535	7.68
211.753	50.69
211.972	17.92
212.191	30.21
212.409	48.64
212.628	38.4
212.846	-0.51
213.065	112.13
213.283	97.79
213.502	67.07
213.72	58.88
213.938	17.92
214.157	73.21
214.375	52.74
214.594	-53.76
214.812	17.92
215.031	-14.85
215.249	24.06
215.467	-2.56
215.686	58.88
215.904	-18.94
216.122	-10.75
216.341	9.73
216.559	54.78
216.778	87.55
216.996	48.64
217.214	36.35
217.432	36.35
217.651	46.59
217.869	7.68
218.087	24.06
218.306	-27.14
218.524	11.78
218.742	-0.51
218.96	11.78
219.179	32.26
219.397	24.06
219.615	108.03
219.833	19.97
220.051	40.45
220.27	81.41
220.488	56.83
220.706	60.93
220.924	5.63
221.142	-18.94
221.36	13.82
221.578	75.26
221.796	15.87
222.015	77.31
222.233	17.92
222.451	52.74
222.669	-25.09
222.887	85.5
223.105	65.02
223.323	50.69
223.541	-25.09
223.759	48.64
223.977	-10.75
224.195	103.93
224.413	54.78
224.631	13.82
224.849	85.5
225.067	44.54
225.285	81.41
225.503	91.65
225.721	-4.61
225.939	-2.56
226.157	54.78
226.375	42.5
226.592	28.16
226.81	26.11
227.028	91.65
227.246	52.74
227.464	81.41
227.682	44.54
227.9	87.55
228.117	26.11
228.335	40.45
228.553	11.78
228.771	-53.76
228.989	58.88
229.206	50.69
229.424	7.68
229.642	56.83
229.86	62.98
230.077	5.63
230.295	22.02
230.513	50.69
230.731	79.36
230.948	58.88
231.166	65.02
231.384	30.21
231.601	-20.99
231.819	11.78
232.037	26.11
232.254	7.68
232.472	44.54
232.689	118.27
232.907	24.06
233.125	83.45
233.342	91.65
233.56	34.3
233.777	-27.14
233.995	13.82
234.213	134.65
234.43	1.54
234.648	105.98
234.865	11.78
235.083	13.82
235.3	-47.62
235.518	83.45
235.735	85.5
235.953	38.4
236.17	42.5
236.388	-12.8
236.605	40.45
236.822	69.12
237.04	-0.51
237.257	48.64
237.475	11.78
237.692	30.21
237.909	-27.14
238.127	81.41
238.344	32.26
238.562	-12.8
238.779	40.45
238.996	7.68
239.214	-16.9
239.431	34.3
239.648	56.83
239.865	99.84
240.083	38.4
240.3	15.87
240.517	17.92
240.735	-25.09
240.952	50.69
241.169	91.65
241.386	-10.75
241.603	-8.7
241.821	15.87
242.038	26.11
242.255	71.17
242.472	60.93
242.689	42.5
242.907	99.84
243.124	62.98
243.341	1.54
243.558	19.97
243.775	-29.18
243.992	-47.62
244.209	69.12
244.426	134.65
244.643	34.3
244.86	-6.66
245.078	-2.56
245.295	-6.66
245.512	60.93
245.729	5.63
245.946	11.78
246.163	15.87
246.38	-49.66
246.597	44.54
246.814	62.98
247.031	73.21
247.248	28.16
247.464	110.08
247.681	52.74
247.898	44.54
248.115	93.69
248.332	26.11
248.549	38.4
248.766	65.02
248.983	30.21
249.2	28.16
249.417	15.87
249.633	-41.47
249.85	62.98
250.067	46.59
250.284	69.12
250.501	79.36
250.717	62.98
250.934	-18.94
251.151	-10.75
251.368	42.5
251.585	81.41
251.801	50.69
252.018	19.97
252.235	65.02
252.451	19.97
252.668	36.35
252.885	-2.56
253.102	52.74
253.318	108.03
253.535	54.78
253.752	-6.66
253.968	15.87
254.185	-25.09
254.401	17.92
254.618	19.97
254.835	-12.8
255.051	73.21
255.268	24.06
255.484	-29.18
255.701	44.54
255.917	50.69
256.134	-33.28
256.351	71.17
256.567	52.74
256.784	-12.8
257	17.92
257.217	-12.8
257.433	93.69
257.65	28.16
257.866	54.78
258.082	3.58
258.299	22.02
258.515	30.21
258.732	-14.85
258.948	-12.8
259.165	32.26
259.381	65.02
259.597	32.26
259.814	124.41
260.03	19.97
260.246	-29.18
260.463	128.51
260.679	32.26
260.895	54.78
261.112	91.65
261.328	-8.7
261.544	30.21
261.761	97.79
261.977	-18.94
262.193	32.26
262.409	52.74
262.626	79.36
262.842	56.83
263.058	1.54
263.274	28.16
263.49	99.84
263.707	40.45
263.923	30.21
264.139	-43.52
264.355	19.97
264.571	81.41
264.787	108.03
265.004	42.5
265.22	38.4
265.436	-12.8
265.652	7.68
265.868	89.6
266.084	65.02
266.3	42.5
266.516	26.11
266.732	65.02
266.948	42.5
267.164	60.93
267.38	-8.7
267.596	58.88
267.812	73.21
268.028	-4.61
268.244	-6.66
268.46	-6.66
268.676	56.83
268.892	40.45
269.108	32.26
269.324	5.63
269.54	-20.99
269.756	46.59
269.972	22.02
270.188	81.41
270.403	7.68
270.619	28.16
270.835	122.37
271.051	56.83
271.267	22.02
271.483	-20.99
271.698	19.97
271.914	38.4
272.13	13.82
272.346	15.87
272.562	46.59
272.777	60.93
272.993	-33.28
273.209	13.82
273.425	58.88
273.64	30.21
273.856	-18.94
274.072	40.45
274.287	-43.52
274.503	36.35
274.719	5.63
274.934	-2.56
275.15	-0.51
275.366	-18.94
275.581	13.82
275.797	56.83
276.012	13.82
276.228	62.98
276.444	9.73
276.659	5.63
276.875	-66.05
277.09	67.07
277.306	-18.94
277.521	69.12
277.737	1.54
277.952	56.83
278.168	3.58
278.383	19.97
278.599	65.02
278.814	38.4
279.03	60.93
279.245	44.54
279.461	-0.51
279.676	40.45
279.892	11.78
280.107	-31.23
280.322	19.97
280.538	67.07
280.753	22.02
280.969	73.21
281.184	36.35
281.399	44.54
281.615	58.88
281.83	48.64
282.045	-0.51
282.26	-68.09
282.476	9.73
282.691	79.36
282.906	71.17
283.122	65.02
283.337	17.92
283.552	24.06
283.767	19.97
283.983	36.35
284.198	-43.52
284.413	52.74
284.628	15.87
284.843	50.69
285.058	69.12
285.274	-12.8
285.489	3.58
285.704	-53.76
285.919	46.59
286.134	17.92
286.349	-23.04
286.564	7.68
286.779	62.98
286.995	60.93
287.21	36.35
287.425	60.93
287.64	22.02
287.855	75.26
288.07	34.3
288.285	60.93
288.5	38.4
288.715	69.12
288.93	97.79
289.145	32.26
289.36	75.26
289.575	85.5
289.79	-43.52
290.004	30.21
290.219	-20.99
290.434	38.4
290.649	65.02
290.864	24.06
291.079	1.54
291.294	42.5
291.509	32.26
291.724	-6.66
291.938	7.68
292.153	38.4
292.368	-41.47
292.583	75.26
292.798	36.35
293.012	101.89
293.227	44.54
293.442	54.78
293.657	120.32
293.871	38.4
294.086	75.26
294.301	126.46
294.516	83.45
294.73	-8.7
294.945	3.58
295.16	30.21
295.374	85.5
295.589	60.93
295.804	3.58
296.018	32.26
296.233	48.64
296.447	7.68
296.662	-35.33
296.877	62.98
297.091	-8.7
297.306	42.5
297.52	30.21
297.735	40.45
297.949	71.17
298.164	73.21
298.378	122.37
298.593	58.88
298.807	44.54
299.022	46.59
299.236	50.69
299.451	28.16
299.665	56.83
299.88	-6.66
300.094	54.78
300.309	9.73
300.523	19.97
300.737	24.06
300.952	52.74
301.166	42.5
301.381	-23.04
301.595	44.54
301.809	52.74
302.024	28.16
302.238	13.82
302.452	99.84
302.667	-72.19
302.881	24.06
303.095	73.21
303.309	38.4
303.524	42.5
303.738	26.11
303.952	44.54
304.166	71.17
304.381	-27.14
304.595	50.69
304.809	44.54
305.023	-4.61
305.237	44.54
305.452	103.93
305.666	65.02
305.88	60.93
306.094	52.74
306.308	48.64
306.522	140.8
306.736	46.59
306.95	62.98
307.164	77.31
307.379	-8.7
307.593	9.73
307.807	71.17
308.021	95.74
308.235	42.5
308.449	-14.85
308.663	44.54
308.877	56.83
309.091	52.74
309.305	-55.81
309.519	7.68
309.733	69.12
309.947	36.35
310.161	83.45
310.374	42.5
310.588	73.21
310.802	-37.38
311.016	34.3
311.23	77.31
311.444	-20.99
311.658	93.69
311.872	48.64
312.085	77.31
312.299	56.83
312.513	17.92
312.727	30.21
312.941	7.68
313.154	126.46
313.368	26.11
313.582	65.02
313.796	71.17
314.009	93.69
314.223	38.4
314.437	87.55
314.651	-0.51
314.864	54.78
315.078	38.4
315.292	58.88
315.505	46.59
315.719	65.02
315.933	87.55
316.146	40.45
316.36	42.5
316.573	103.93
316.787	24.06
317.001	62.98
317.214	28.16
317.428	75.26
317.641	42.5
317.855	38.4
318.068	9.73
318.282	-18.94
318.495	103.93
318.709	11.78
318.922	52.74
319.136	42.5
319.349	71.17
319.563	101.89
319.776	95.74
319.99	-25.09
320.203	-20.99
320.417	75.26
320.63	62.98
320.843	19.97
321.057	89.6
321.27	99.84
321.483	73.21
321.697	40.45
321.91	-0.51
322.124	71.17
322.337	99.84
322.55	-45.57
322.763	60.93
322.977	124.41
323.19	-76.29
323.403	60.93
323.617	112.13
323.83	87.55
324.043	-14.85
324.256	9.73
324.469	38.4
324.683	60.93
324.896	17.92
325.109	58.88
325.322	3.58
325.535	85.5
325.748	44.54
325.962	24.06
326.175	-10.75
326.388	69.12
326.601	-25.09
326.814	48.64
327.027	28.16
327.24	140.8
327.453	99.84
327.666	56.83
327.879	24.06
328.092	83.45
328.305	19.97
328.518	26.11
328.731	-8.7
328.944	101.89
329.157	52.74
329.37	44.54
329.583	87.55
329.796	93.69
330.009	-12.8
330.222	30.21
330.435	50.69
330.648	52.74
330.861	-16.9
331.073	58.88
331.286	24.06
331.499	52.74
331.712	-20.99
331.925	32.26
332.138	-0.51
332.35	50.69
332.563	40.45
332.776	44.54
332.989	30.21
333.202	40.45
333.414	60.93
333.627	15.87
333.84	60.93
334.053	46.59
334.265	79.36
334.478	19.97
334.691	7.68
334.903	52.74
335.116	-23.04
335.329	32.26
335.541	44.54
335.754	1.54
335.966	-0.51
336.179	15.87
336.392	30.21
336.604	32.26
336.817	60.93
337.029	46.59
337.242	124.41
337.454	114.17
337.667	36.35
337.88	112.13
338.092	103.93
338.305	44.54
338.517	-12.8
338.729	50.69
338.942	73.21
339.154	-0.51
339.367	40.45
339.579	56.83
339.792	60.93
340.004	60.93
340.217	110.08
340.429	30.21
340.641	42.5
340.854	48.64
341.066	26.11
341.278	15.87
341.491	124.41
341.703	75.26
341.915	105.98
342.128	34.3
342.34	44.54
342.552	114.17
342.764	-45.57
342.977	-39.42
343.189	44.54
343.401	38.4
343.613	-16.9
343.826	73.21
344.038	83.45
344.25	28.16
344.462	1.54
344.674	-4.61
344.886	-8.7
345.099	46.59
345.311	52.74
345.523	17.92
345.735	-27.14
345.947	69.12
346.159	-4.61
346.371	71.17
346.583	-0.51
346.795	56.83
347.007	48.64
347.219	48.64
347.431	38.4
347.643	112.13
347.855	56.83
348.067	116.22
348.279	85.5
348.491	50.69
348.703	65.02
348.915	56.83
349.127	7.68
349.339	71.17
349.551	-39.42
349.763	24.06
349.975	67.07
350.187	118.27
350.399	58.88
350.61	110.08
350.822	19.97
351.034	30.21
351.246	42.5
351.458	56.83
351.669	56.83
351.881	69.12
352.093	19.97
352.305	114.17
352.517	1.54
352.728	38.4
352.94	54.78
353.152	81.41
353.363	17.92
353.575	52.74
353.787	62.98
353.999	26.11
354.21	91.65
354.422	15.87
354.633	26.11
354.845	32.26
355.057	44.54
355.268	40.45
355.48	93.69
355.692	32.26
355.903	87.55
356.115	30.21
356.326	1.54
356.538	79.36
356.749	-4.61
356.961	89.6
357.172	32.26
357.384	93.69
357.595	77.31
357.807	52.74
358.018	28.16
358.23	44.54
358.441	77.31
358.653	132.61
358.864	30.21
359.075	38.4
359.287	5.63
359.498	60.93
359.709	32.26
359.921	67.07
360.132	65.02
360.344	-37.38
360.555	77.31
360.766	69.12
360.977	50.69
361.189	103.93
361.4	52.74
361.611	-14.85
361.823	24.06
362.034	24.06
362.245	-33.28
362.456	126.46
362.667	48.64
362.879	1.54
363.09	50.69
363.301	77.31
363.512	19.97
363.723	95.74
363.935	54.78
364.146	79.36
364.357	32.26
364.568	50.69
364.779	-18.94
364.99	93.69
365.201	67.07
365.412	126.46
365.623	28.16
365.834	36.35
366.045	36.35
366.256	87.55
366.467	83.45
366.678	50.69
366.889	95.74
367.1	19.97
367.311	124.41
367.522	77.31
367.733	77.31
367.944	36.35
368.155	69.12
368.366	50.69
368.577	40.45
368.788	79.36
368.999	-57.86
369.209	93.69
369.42	105.98
369.631	99.84
369.842	32.26
370.053	42.5
370.264	60.93
370.474	87.55
370.685	67.07
370.896	15.87
371.107	65.02
371.317	62.98
371.528	46.59
371.739	79.36
371.95	97.79
372.16	65.02
372.371	32.26
372.582	50.69
372.792	93.69
373.003	65.02
373.214	87.55
373.424	-8.7
373.635	48.64
373.846	71.17
374.056	91.65
374.267	54.78
374.477	32.26
374.688	38.4
374.898	103.93
375.109	67.07
375.319	73.21
375.53	95.74
375.74	26.11
375.951	11.78
376.161	67.07
376.372	91.65
376.582	-23.04
376.793	81.41
377.003	34.3
377.214	83.45
377.424	52.74
377.635	79.36
377.845	11.78
378.055	108.03
378.266	26.11
378.476	81.41
378.686	-12.8
378.897	67.07
379.107	62.98
379.317	48.64
379.528	69.12
379.738	93.69
379.948	34.3
380.158	62.98
380.369	-4.61
380.579	77.31
380.789	73.21
380.999	97.79
381.21	19.97
381.42	62.98
381.63	83.45
381.84	46.59
382.05	65.02
382.261	44.54
382.471	77.31
382.681	-2.56
382.891	79.36
383.101	3.58
383.311	24.06
383.521	44.54
383.731	38.4
383.941	83.45
384.151	48.64
384.361	-6.66
384.571	5.63
384.781	15.87
384.991	87.55
385.201	95.74
385.411	126.46
385.621	71.17
385.831	73.21
386.041	28.16
386.251	128.51
386.461	62.98
386.671	11.78
386.881	89.6
387.091	95.74
387.301	56.83
387.511	103.93
387.72	67.07
387.93	87.55
388.14	112.13
388.35	11.78
388.56	108.03
388.769	79.36
388.979	114.17
389.189	22.02
389.399	36.35
389.609	19.97
389.818	108.03
390.028	50.69
390.238	19.97
390.447	-25.09
390.657	89.6
390.867	89.6
391.076	93.69
391.286	34.3
391.496	62.98
391.705	95.74
391.915	200.19
392.125	71.17
392.334	48.64
392.544	73.21
392.753	95.74
392.963	69.12
393.172	42.5
393.382	65.02
393.591	67.07
393.801	114.17
394.01	116.22
394.22	146.94
394.429	122.37
394.639	130.56
394.848	101.89
395.058	124.41
395.267	126.46
395.477	108.03
395.686	144.89
395.895	138.75
396.105	122.37
396.314	62.98
396.524	136.7
396.733	65.02
396.942	108.03
397.152	101.89
397.361	34.3
397.57	116.22
397.78	118.27
397.989	19.97
398.198	116.22
398.407	112.13
398.617	122.37
398.826	120.32
399.035	69.12
399.244	103.93
399.453	112.13
399.663	130.56
399.872	83.45
400.081	134.65
400.29	93.69
400.499	105.98
400.708	122.37
400.917	99.84
401.127	169.47
401.336	126.46
401.545	222.72
401.754	163.33
401.963	91.65
402.172	165.37
402.381	79.36
402.59	97.79
402.799	89.6
403.008	140.8
403.217	146.94
403.426	120.32
403.635	165.37
403.844	206.33
404.053	157.18
404.262	206.33
404.471	120.32
404.68	161.28
404.888	175.61
405.097	120.32
405.306	161.28
405.515	212.48
405.724	118.27
405.933	222.72
406.142	259.58
406.35	138.75
406.559	235
406.768	159.23
406.977	249.34
407.185	187.9
407.394	257.53
407.603	210.43
407.812	192
408.02	237.05
408.229	224.76
408.438	290.3
408.646	239.1
408.855	196.09
409.064	318.97
409.272	333.31
409.481	316.92
409.69	321.02
409.898	345.59
410.107	437.75
410.315	402.94
410.524	443.9
410.733	357.88
410.941	366.07
411.15	394.75
411.358	441.85
411.567	423.42
411.775	443.9
411.984	427.51
412.192	429.56
412.401	493.05
412.609	536.06
412.818	546.3
413.026	491
413.234	460.28
413.443	634.36
413.651	548.34
413.86	617.97
414.068	685.56
414.276	622.07
414.485	654.84
414.693	730.61
414.901	816.63
415.11	777.72
415.318	757.24
415.526	689.65
415.734	816.63
415.943	804.34
416.151	910.83
416.359	943.6
416.567	947.7
416.776	1009.14
416.984	1086.96
417.192	1134.06
417.4	1168.88
417.608	1068.53
417.817	1267.18
418.025	1224.17
418.233	1281.52
418.441	1295.85
418.649	1367.53
418.857	1351.15
419.065	1402.35
419.273	1433.07
419.481	1496.55
419.689	1625.58
419.897	1664.49
420.105	1736.17
420.313	1646.05
420.521	1801.7
420.729	1848.8
420.937	1863.14
421.145	2063.84
421.353	1947.11
421.561	2047.46
421.769	2246.11
421.977	2229.73
422.185	2235.87
422.393	2323.93
422.601	2438.62
422.809	2491.87
423.017	2536.92
423.224	2768.34
423.432	2854.36
423.64	2721.24
423.848	3165.65
424.056	2930.13
424.263	2997.71
424.471	3188.18
424.679	3241.42
424.887	3337.68
425.094	3515.85
425.302	3579.34
425.51	3638.73
425.718	3796.42
425.925	3870.15
426.133	3847.62
426.341	3962.31
426.548	4259.26
426.756	4390.33
426.964	4478.4
427.171	4736.44
427.379	4816.31
427.586	4818.36
427.794	5035.44
428.001	5264.82
428.209	5457.32
428.417	5432.75
428.624	5860.77
428.832	5807.53
429.039	5858.73
429.247	5741.99
429.454	6133.15
429.662	6788.5
429.869	6423.97
430.076	6712.73
430.284	6536.6
430.491	6722.97
430.699	7331.22
430.906	7226.77
431.114	7224.72
431.321	7626.12
431.528	7839.11
431.736	8301.95
431.943	8658.3
432.15	8281.47
432.358	8629.63
432.565	8955.26
432.772	8865.14
432.979	9229.68
433.187	9350.51
433.394	9577.84
433.601	10165.6
433.808	10030.44
434.016	10167.65
434.223	10677.6
434.43	11335
434.637	10941.79
434.844	11681.1
435.052	11846.99
435.259	11832.65
435.466	11838.8
435.673	11726.16
435.88	12664.13
436.087	13260.09
436.294	13186.36
436.501	12897.6
436.708	13112.63
436.915	13544.75
437.122	14282.02
437.329	14284.07
437.537	14871.84
437.743	14845.21
437.95	14732.58
438.157	15697.17
438.364	16004.36
438.571	16164.11
438.778	16194.82
438.985	17593.59
439.192	16989.44
439.399	17466.61
439.606	17288.44
439.813	17970.41
440.02	19281.11
440.227	19074.27
440.433	18732.26
440.64	19518.68
440.847	19399.9
441.054	19700.95
441.261	20714.69
441.467	20505.8
441.674	21179.58
441.881	21994.67
442.088	21931.19
442.294	21599.41
442.501	22351.02
442.708	22779.04
442.914	23407.77
443.121	24239.25
443.328	24241.29
443.534	25777.27
443.741	24775.81
443.948	24511.63
444.154	26446.96
444.361	26059.89
444.568	26207.34
444.774	26498.16
444.981	26756.2
445.187	27374.69
445.394	28582.99
445.6	28177.49
445.807	30903.34
446.013	29469.76
446.22	29994.04
446.426	31525.92
446.633	31396.9
446.839	32523.28
447.046	31452.19
447.252	32910.35
447.459	32885.77
447.665	32949.26
447.871	34178.04
448.078	35818.46
448.284	33766.4
448.491	35126.25
448.697	36473.81
448.903	37200.84
449.11	37047.24
449.316	36420.56
449.522	37153.74
449.728	38398.9
449.935	38513.59
450.141	38364.09
450.347	39140.27
450.553	37968.83
450.76	38448.05
450.966	39676.83
451.172	39631.78
451.378	40178.59
451.584	39648.16
451.791	40565.65
451.997	40428.44
452.203	41044.88
452.409	40686.48
452.615	40756.11
452.821	39187.37
453.027	38949.81
453.233	41077.65
453.44	39531.43
453.646	40043.42
453.852	40416.15
454.058	40960.91
454.264	39537.57
454.47	40737.68
454.676	39533.48
454.882	40723.35
455.088	37168.07
455.294	37938.11
455.5	38417.33
455.705	38792.11
455.911	37170.12
456.117	36369.37
456.323	36006.87
456.529	33940.47
456.735	35724.25
456.941	34878.44
457.147	34268.15
457.352	33313.8
457.558	32562.19
457.764	32789.52
457.97	31835.16
458.176	31728.67
458.381	31376.42
458.587	29948.98
458.793	30317.62
458.999	28183.63
459.204	30528.56
459.41	29580.35
459.616	27771.99
459.821	27878.49
460.027	27659.35
460.233	26807.4
460.438	25631.86
460.644	26133.62
460.85	24749.19
461.055	24769.67
461.261	24405.13
461.466	22340.78
461.672	22123.69
461.878	23501.98
462.083	21994.67
462.289	21636.28
462.494	21443.77
462.7	20006.09
462.905	19756.24
463.111	20499.66
463.316	20706.5
463.522	19885.26
463.727	20188.36
463.932	20118.73
464.138	19829.97
464.343	19551.45
464.549	19059.93
464.754	20012.24
464.959	19862.74
465.165	19633.36
465.37	18545.89
465.575	18515.17
465.781	19262.68
465.986	18912.48
466.191	18627.81
466.397	18035.95
466.602	17231.1
466.807	17988.85
467.012	17810.67
467.218	18013.42
467.423	17747.19
467.628	17702.13
467.833	18474.21
468.038	17880.3
468.244	17138.94
468.449	18169.07
468.654	17341.69
468.859	17190.14
469.064	16954.62
469.269	16373
469.474	16698.63
469.679	16772.35
469.885	16256.26
470.09	16436.49
470.295	16581.89
470.5	16274.7
470.705	16110.86
470.91	15873.29
471.115	15629.59
471.32	15834.38
471.525	15799.57
471.73	15549.71
471.935	15355.16
472.139	14966.04
472.344	15052.06
472.549	14814.49
472.754	14595.36
472.959	14484.77
473.164	14421.28
473.369	14048.55
473.574	14427.43
473.778	14290.21
473.983	13976.87
474.188	14132.52
474.393	13573.42
474.598	13534.51
474.802	13215.03
475.007	13499.7
475.212	13366.58
475.417	12938.55
475.621	13022.52
475.826	12819.77
476.031	12557.63
476.235	12520.77
476.44	12787
476.645	12404.03
476.849	12520.77
477.054	12197.19
477.259	12117.32
477.463	11842.89
477.668	11593.04
477.872	11900.23
478.077	11613.52
478.282	11079
478.486	11447.63
478.691	11300.18
478.895	11228.5
479.1	10931.55
479.304	11109.72
479.509	10882.39
479.713	10999.13
479.918	10831.19
480.122	10413.41
480.326	10780
480.531	10718.56
480.735	10579.29
480.94	10476.9
481.144	10859.87
481.348	10313.06
481.553	10483.04
481.757	10335.59
481.961	10476.9
482.166	10454.37
482.37	10386.79
482.574	10378.59
482.778	10339.68
482.983	10440.03
483.187	10423.65
483.391	10311.01
483.595	10106.21
483.8	10231.14
484.004	10401.12
484.208	10177.89
484.412	10349.92
484.616	10257.76
484.821	10247.52
485.025	10079.59
485.229	10335.59
485.433	10167.65
485.637	10026.34
485.841	10362.21
486.045	10120.55
486.249	10413.41
486.453	10167.65
486.657	10337.63
486.861	10542.43
487.065	9983.34
487.269	10194.28
487.473	10093.93
487.677	10489.18
487.881	10380.64
488.085	10280.29
488.289	10347.87
488.493	10268
488.697	10259.81
488.901	10231.14
489.105	10276.2
489.309	10407.27
489.512	10276.2
489.716	10157.41
489.92	10419.55
490.124	10454.37
490.328	10661.21
490.531	10558.81
490.735	10532.19
490.939	10648.93
491.143	10548.58
491.346	10446.18
491.55	10470.75
491.754	10704.22
491.958	10777.95
492.161	10407.27
492.365	10945.88
492.569	10581.34
492.772	10786.14
492.976	10990.94
493.18	10984.79
493.383	10976.6
493.587	11183.45
493.79	11101.53
493.994	11124.05
494.197	11199.83
494.401	11365.71
494.605	11490.64
494.808	11672.91
495.012	11490.64
495.215	11416.91
495.419	11732.3
495.622	11701.58
495.825	11728.21
496.029	11767.12
496.232	11853.13
496.436	12074.31
496.639	12369.22
496.843	12119.37
497.046	12420.42
497.249	12633.41
497.453	12799.29
497.656	12860.73
497.859	12778.81
498.063	12930.36
498.266	13086.01
498.469	13016.38
498.673	13229.37
498.876	13792.56
499.079	13655.34
499.282	13700.4
499.485	14267.69
499.689	14077.23
499.892	14161.19
500.095	14279.97
500.298	14798.11
500.501	14677.28
500.705	14896.41
500.908	14781.73
501.111	15219.99
501.314	15412.5
501.517	15529.24
501.72	15576.34
501.923	15432.98
502.126	16047.37
502.329	16336.13
502.532	16368.9
502.735	16125.19
502.938	16719.1
503.141	16762.11
503.344	16940.29
503.547	16983.29
503.75	17415.41
503.953	17556.72
504.156	17931.5
504.359	17913.07
504.562	17710.32
504.765	18529.51
504.968	18576.61
505.17	18511.08
505.373	18586.85
505.576	19010.78
505.779	18941.15
505.982	19217.63
506.185	19764.43
506.387	19889.36
506.59	19881.17
506.793	20415.69
506.996	20395.21
507.198	20833.47
507.401	20743.36
507.604	20905.15
507.807	21423.29
508.009	21333.18
508.212	21478.58
508.415	21744.82
508.617	22013.1
508.82	22338.73
509.022	22457.51
509.225	22777
509.428	23112.86
509.63	23002.27
509.833	22922.4
510.035	23622.81
510.238	23651.48
510.44	23884.95
510.643	24476.81
510.845	24167.57
511.048	24519.82
511.25	24745.09
511.453	24640.65
511.655	26012.79
511.858	25267.33
512.06	25558.14
512.262	26258.54
512.465	25767.03
512.667	26676.33
512.87	27071.59
513.072	26545.26
513.274	27173.99
513.477	27395.17
513.679	27634.78
513.881	27806.81
514.084	28408.91
514.286	28066.9
514.488	28365.9
514.69	29303.87
514.893	29213.76
515.095	28968.01
515.297	29905.98
515.499	29701.18
515.701	30456.88
515.904	30127.16
516.106	30303.28
516.308	31132.71
516.51	31317.03
516.712	31595.55
516.914	31577.12
517.116	31835.16
517.318	31908.89
517.52	32439.31
517.722	32619.53
517.925	32730.12
518.127	33317.89
518.329	33534.98
518.531	33629.18
518.733	33899.51
518.935	34255.86
519.136	33907.71
519.338	34612.21
519.54	34591.73
519.742	35275.75
519.944	35173.35
520.146	36189.14
520.348	35541.99
520.55	35941.34
520.752	36320.21
520.954	36635.6
521.155	36502.48
521.357	37168.07
521.559	37434.31
521.761	37796.8
521.963	37977.02
522.164	37852.09
522.366	38140.86
522.568	38521.78
522.77	38441.91
522.971	39605.16
523.173	39011.24
523.375	39199.66
523.576	39797.66
523.778	39611.3
523.98	39689.12
524.181	40393.62
524.383	40012.7
524.584	40950.67
524.786	40889.23
524.988	40680.34
525.189	41032.59
525.391	41503.62
525.592	41708.42
525.794	41753.47
525.995	41866.11
526.197	41771.91
526.398	41601.93
526.6	42361.72
526.801	42355.58
527.003	42955.63
527.204	42634.1
527.406	43105.13
527.607	43154.29
527.808	43410.28
528.01	42752.88
528.211	42972.02
528.412	44211.04
528.614	43979.62
528.815	43723.62
529.016	44188.51
529.218	43803.49
529.419	44245.85
529.62	44161.89
529.822	44467.03
530.023	44417.88
530.224	44487.51
530.425	44311.39
530.626	44272.48
530.828	43844.45
531.029	44925.78
531.23	44682.07
531.431	44647.25
531.632	44974.93
531.833	45345.61
532.035	44868.44
532.236	44397.4
532.437	44876.63
532.638	44911.44
532.839	45120.34
533.04	45163.34
533.241	44667.73
533.442	46039.87
533.643	45450.06
533.844	44850
534.045	45327.18
534.246	45167.44
534.447	45497.16
534.648	45273.93
534.849	45378.38
535.05	44974.93
535.251	45486.92
535.451	45167.44
535.652	45996.87
535.853	45179.73
536.054	45466.44
536.255	46009.15
536.456	45368.14
536.657	45681.48
536.857	45622.09
537.058	44956.5
537.259	45452.11
537.46	45769.54
537.66	45310.8
537.861	45589.32
538.062	45546.31
538.263	45472.59
538.463	45130.58
538.664	45427.53
538.865	45617.99
539.065	45462.35
539.266	44825.43
539.466	46031.68
539.667	44999.51
539.868	45306.7
540.068	45466.44
540.269	45228.88
540.469	45900.61
540.67	45405
540.87	45269.84
541.071	44927.83
541.271	45544.27
541.472	45321.04
541.672	45056.85
541.873	45128.53
542.073	44624.73
542.274	45398.86
542.474	45400.91
542.675	44815.19
542.875	45560.65
543.075	45427.53
543.276	44968.79
543.476	45466.44
543.676	44905.3
543.877	45433.67
544.077	45181.77
544.277	45048.66
544.478	45167.44
544.678	45312.84
544.878	44938.07
545.078	45142.86
545.279	45067.09
545.479	44696.41
545.679	45206.35
545.879	45022.03
546.079	44895.06
546.28	44847.96
546.48	44565.34
546.68	44804.95
546.88	45126.48
547.08	45116.24
547.28	44938.07
547.48	44774.23
547.68	45130.58
547.88	44581.72
548.081	44886.87
548.281	44913.49
548.481	44440.41
548.681	44927.83
548.881	44901.2
549.081	44829.52
549.28	44731.22
549.48	45149.01
549.68	44407.64
549.88	45042.51
550.08	44417.88
550.28	44933.97
550.48	44401.5
550.68	44585.82
550.88	44727.13
551.08	44790.61
551.279	44917.59
551.479	44581.72
551.679	44329.82
551.879	44659.54
552.079	44680.02
552.278	44360.54
552.478	44444.51
552.678	44602.2
552.878	44915.54
553.077	44563.29
553.277	44333.92
553.477	44839.76
553.676	44200.8
553.876	44411.74
554.076	44319.58
554.275	44450.65
554.475	44030.82
554.674	44155.74
554.874	44739.41
555.074	44092.26
555.273	44122.97
555.473	44299.1
555.672	43901.79
555.872	44153.69
556.071	43797.35
556.271	44133.21
556.47	43946.85
556.67	43492.2
556.869	43539.3
557.068	43879.27
557.268	43176.81
557.467	43922.27
557.667	43344.75
557.866	43811.68
558.065	43121.52
558.265	43344.75
558.464	43426.67
558.663	43658.09
558.863	42836.85
559.062	43838.31
559.261	43156.33
559.461	43752.29
559.66	42933.1
559.859	43512.68
560.058	42836.85
560.258	43162.48
560.457	42787.7
560.656	43066.22
560.855	43080.56
561.054	43074.41
561.253	42976.11
561.453	42726.26
561.652	42611.57
561.851	42742.64
562.05	42572.66
562.249	42353.53
562.448	42697.59
562.647	42140.54
562.846	42396.54
563.045	42187.64
563.244	41788.29
563.443	42677.11
563.642	41796.48
563.841	41964.42
564.04	41659.27
564.239	42144.64
564.438	41395.08
564.637	42046.33
564.836	41352.07
565.035	41436.04
565.234	41470.86
565.432	41409.42
565.631	41235.34
565.83	41259.91
566.029	40854.42
566.228	40989.58
566.427	41071.5
566.625	40893.33
566.824	40584.08
567.023	40811.41
567.222	40139.68
567.42	40623
567.619	40625.04
567.818	40362.9
568.016	40573.84
568.215	40381.34
568.414	40498.07
568.612	40657.81
568.811	40035.23
569.01	39918.49
569.208	39650.21
569.407	39914.4
569.605	39656.35
569.804	39904.16
570.002	39588.77
570.201	39728.03
570.4	39130.03
570.598	38943.66
570.797	38914.99
570.995	39117.74
571.193	38728.63
571.392	38925.23
571.59	38951.85
571.789	38724.53
571.987	38454.2
572.186	38204.35
572.384	38671.28
572.582	38673.33
572.781	38423.48
572.979	37618.63
573.177	38032.32
573.376	38036.41
573.574	37921.73
573.772	38194.11
573.971	37780.42
574.169	37854.14
574.367	37399.49
574.565	37798.85
574.763	37174.22
574.962	37286.86
575.16	36981.71
575.358	37538.76
575.556	36668.37
575.754	37245.9
575.952	36332.5
576.151	37524.42
576.349	36449.24
576.547	36664.27
576.745	36506.58
576.943	36651.98
577.141	36213.72
577.339	36355.03
577.537	36197.34
577.735	36459.48
577.933	35898.33
578.131	36414.42
578.329	35652.58
578.527	35797.98
578.725	35820.51
578.923	35877.85
579.121	35705.82
579.319	35365.86
579.516	35527.65
579.714	35372
579.912	35353.57
580.11	35294.18
580.308	34984.94
580.506	35136.49
580.704	34735.09
580.901	34796.53
581.099	35228.65
581.297	34561.01
581.495	34601.97
581.692	34821.1
581.89	34311.16
582.088	34733.04
582.285	33913.85
582.483	34278.39
582.681	33922.04
582.878	34071.54
583.076	33471.49
583.274	34110.46
583.471	33375.23
583.669	33651.71
583.866	33418.24
584.064	33498.11
584.262	33238.02
584.459	33682.43
584.657	33162.25
584.854	33451.01
585.052	32865.29
585.249	32914.44
585.447	32932.87
585.644	32367.63
585.841	32683.02
586.039	32848.91
586.236	32527.38
586.434	32396.31
586.631	32148.5
586.828	32031.77
587.026	32451.6
587.223	32547.86
587.42	32119.83
587.618	31884.31
587.815	31513.63
588.012	31753.24
588.21	31822.87
588.407	31704.09
588.604	31220.77
588.801	31458.34
588.999	31679.52
589.196	31204.39
589.393	31208.48
589.59	31130.66
589.787	30858.28
589.984	30559.28
590.182	30802.99
590.379	30802.99
590.576	30524.46
590.773	30641.2
590.97	30139.44
591.167	30352.43
591.364	29887.54
591.561	30299.19
591.758	29996.09
591.955	30055.48
592.152	30018.61
592.349	29494.33
592.546	29854.78
592.743	29873.21
592.94	29166.66
593.137	29781.05
593.334	29830.2
593.531	29074.5
593.727	29649.98
593.924	29377.6
594.121	29101.12
594.318	29150.28
594.515	28699.72
594.712	29125.7
594.908	28482.64
595.105	29238.34
595.302	28347.47
595.499	28693.58
595.696	28109.91
595.892	28122.19
596.089	28445.77
596.286	28527.69
596.482	28640.33
596.679	28529.74
596.876	27978.84
597.072	27769.94
597.269	27888.73
597.466	27665.5
597.662	27944.02
597.859	27706.46
598.055	27679.83
598.252	27141.22
598.448	27313.25
598.645	27200.61
598.841	27288.67
599.038	27167.84
599.234	27151.46
599.431	26678.38
599.627	26813.54
599.824	26883.17
600.02	26475.63
600.217	26842.21
600.413	26553.45
600.609	26356.85
600.806	26248.3
601.002	26539.12
601.198	25934.96
601.395	25871.48
601.591	25945.2
601.787	25721.98
601.984	25689.21
602.18	25918.58
602.376	25676.92
602.572	25500.79
602.769	25529.47
602.965	25355.39
603.161	25484.41
603.357	25420.92
603.553	25111.68
603.75	25486.46
603.946	25017.47
604.142	25001.09
604.338	24767.62
604.534	25083.01
604.73	24781.96
604.926	24652.94
605.122	24677.51
605.318	24904.84
605.514	24298.64
605.71	24513.67
605.906	24292.49
606.102	24261.77
606.298	24398.99
606.494	24423.56
606.69	24134.8
606.886	24257.68
607.082	23772.31
607.278	24263.82
607.474	23561.37
607.67	23880.85
607.866	23596.18
608.062	23901.33
608.257	23639.19
608.453	23860.37
608.649	23817.36
608.845	23549.08
609.041	23504.03
609.236	23411.87
609.432	23491.74
609.628	23454.87
609.824	23493.79
610.019	23260.32
610.215	23094.43
610.411	23307.42
610.606	22817.96
610.802	23166.11
610.998	23016.61
611.193	23071.9
611.389	22695.08
611.584	22875.3
611.78	22721.7
611.976	22936.74
612.171	22854.82
612.367	22699.17
612.562	22545.58
612.758	22150.32
612.953	22086.83
613.149	22428.84
613.344	22451.37
613.539	22516.9
613.735	22467.75
613.93	22377.64
614.126	21804.21
614.321	22426.79
614.517	22142.13
614.712	22174.89
614.907	21992.62
615.103	22017.2
615.298	21910.71
615.493	22238.38
615.688	21855.41
615.884	22412.46
616.079	21804.21
616.274	21746.87
616.47	21513.4
616.665	21716.15
616.86	21535.93
617.055	21556.41
617.25	21404.86
617.445	21638.33
617.641	21124.29
617.836	21562.55
618.031	20968.64
618.226	21503.16
618.421	21181.63
618.616	21257.4
618.811	20812.99
619.006	21112
619.201	20432.07
619.396	20927.68
619.591	20595.91
619.786	20645.06
619.981	20624.58
620.176	20743.36
620.371	20329.67
620.566	20653.25
620.761	20200.65
620.956	20319.43
621.151	19901.65
621.346	20282.57
621.541	19768.53
621.735	19653.84
621.93	19346.65
622.125	19590.36
622.32	19326.17
622.515	19565.78
622.709	19383.51
622.904	19320.03
623.099	18926.82
623.294	19025.12
623.488	18978.01
623.683	18830.56
623.878	18593
624.072	19006.69
624.267	18623.72
624.462	18502.89
624.656	18126.06
624.851	18330.86
625.046	18152.68
625.24	17964.27
625.435	17898.73
625.629	17927.41
625.824	17587.44
626.018	17890.54
626.213	17257.72
626.407	17538.29
626.602	17419.51
626.796	17415.41
626.991	17149.18
627.185	17200.38
627.38	16919.81
627.574	17011.96
627.768	16796.93
627.963	16995.58
628.157	16606.47
628.352	16637.19
628.546	16327.94
628.74	16616.71
628.935	16493.83
629.129	16291.08
629.323	15975.69
629.517	16260.36
629.712	15897.87
629.906	15914.25
630.1	15897.87
630.294	15805.71
630.489	15582.48
630.683	15781.14
630.877	15293.72
631.071	15369.49
631.265	15449.36
631.459	15361.3
631.653	15344.92
631.848	15189.27
632.042	14810.4
632.236	14992.67
632.43	14650.66
632.624	14894.36
632.818	14859.55
633.012	14595.36
633.206	14712.1
633.4	14935.32
633.594	14535.97
633.788	14742.82
633.982	14392.61
634.176	14365.99
634.369	14144.81
634.563	14249.25
634.757	14060.84
634.951	14177.58
635.145	14191.91
635.339	13901.1
635.533	13767.98
635.726	13841.71
635.92	13620.53
636.114	13389.11
636.308	13651.25
636.501	13403.44
636.695	13428.02
636.889	13288.76
637.083	13264.18
637.276	13110.58
637.47	13081.91
637.664	13192.5
637.857	13145.4
638.051	12885.31
638.244	12696.89
638.438	12868.92
638.632	12483.91
638.825	12717.37
639.019	12434.75
639.212	12555.58
639.406	12436.8
639.599	12266.82
639.793	12442.95
639.986	12236.1
640.18	12176.71
640.373	12086.6
640.567	11963.72
640.76	11875.66
640.954	11832.65
641.147	11775.31
641.34	11660.62
641.534	11775.31
641.727	11640.14
641.92	11767.12
642.114	11470.16
642.307	11445.59
642.5	11402.58
642.694	11498.83
642.887	11167.06
643.08	11195.73
643.273	11451.73
643.467	11294.04
643.66	11222.36
643.853	11046.23
644.046	10941.79
644.239	10997.08
644.432	10624.35
644.626	10569.05
644.819	10610.01
645.012	10820.95
645.205	10661.21
645.398	10640.73
645.591	10427.74
645.784	10388.83
645.977	10382.69
646.17	10157.41
646.363	10212.71
646.556	10206.56
646.749	10032.49
646.942	10181.99
647.135	10028.39
647.328	10081.64
647.521	10098.02
647.714	9907.56
647.907	9776.49
648.099	9743.72
648.292	9813.35
648.485	9741.68
648.678	9522.54
648.871	9485.68
649.064	9452.91
649.256	9667.95
649.449	9391.47
649.642	9387.38
649.835	9270.64
650.027	9428.34
650.22	9170.29
650.413	9049.46
650.605	8973.69
650.798	9280.88
650.991	8897.91
651.183	9020.79
651.376	8772.99
651.568	9039.22
651.761	8906.1
651.954	8697.21
652.146	8957.3
652.339	8772.99
652.531	8670.59
652.724	8516.99
652.916	8406.4
653.109	8453.5
653.301	8670.59
653.494	8412.54
653.686	8478.08
653.879	8351.1
654.071	8320.39
654.263	8215.94
654.456	8281.47
654.648	8197.51
654.84	8301.95
655.033	8168.84
655.225	7982.47
655.417	7996.81
655.61	7972.23
655.802	8000.9
655.994	7959.94
656.186	7943.56
656.379	7859.59
656.571	7798.15
656.763	7712.14
656.955	7695.75
657.148	7708.04
657.34	7579.02
657.532	7513.49
657.724	7736.71
657.916	7499.15
658.108	7542.16
658.3	7576.97
658.492	7529.87
658.684	7415.18
658.876	7208.34
659.068	7286.16
659.26	7263.63
659.452	7325.07
659.644	7171.47
659.836	7286.16
660.028	7097.75
660.22	7048.6
660.412	7046.55
660.604	6938.01
660.796	6882.71
660.988	6981.01
661.18	6866.33
661.372	6780.31
661.563	6696.35
661.755	6765.98
661.947	6743.45
662.139	6725.02
662.331	6704.54
662.522	6593.95
662.714	6555.04
662.906	6520.22
663.097	6614.43
663.289	6604.19
663.481	6524.32
663.673	6444.45
663.864	6430.11
664.056	6311.33
664.247	6303.14
664.439	6342.05
664.631	6270.37
664.822	6278.56
665.014	6286.75
665.205	6192.55
665.397	6075.81
665.588	6131.11
665.78	6245.79
665.971	6215.07
666.163	6131.11
666.354	6028.71
666.546	5961.13
666.737	5830.06
666.929	5975.46
667.12	5971.36
667.311	5862.82
667.503	5768.62
667.694	5850.53
667.885	5733.8
668.077	5821.86
668.268	5698.99
668.459	5690.79
668.651	5746.09
668.842	5664.17
669.033	5598.63
669.224	5604.78
669.416	5541.29
669.607	5502.38
669.798	5678.51
669.989	5504.43
670.18	5416.37
670.371	5479.85
670.563	5367.21
670.754	5506.48
670.945	5311.92
671.136	5266.86
671.327	5367.21
671.518	5303.73
671.709	5365.17
671.9	5367.21
672.091	5252.53
672.282	5234.1
672.473	5152.18
672.664	5348.78
672.855	5211.57
673.046	5170.61
673.237	5201.33
673.428	5143.99
673.619	5193.14
673.809	4992.44
674	5131.7
674.191	4959.67
674.382	5014.96
674.573	4976.05
674.764	5027.25
674.954	5148.08
675.145	5012.92
675.336	4853.17
675.527	4974
675.717	5053.87
675.908	4902.33
676.099	4847.03
676.289	4914.61
676.48	4855.22
676.671	4859.32
676.861	4855.22
677.052	4830.65
677.243	4783.54
677.433	4742.58
677.624	4767.16
677.814	4736.44
678.005	4783.54
678.195	4900.28
678.386	4908.47
678.576	4574.65
678.767	4611.51
678.957	4629.95
679.148	4709.82
679.338	4662.71
679.529	4677.05
679.719	4607.42
679.909	4711.86
680.1	4642.23
680.29	4634.04
680.481	4650.43
680.671	4511.16
680.861	4511.16
681.052	4554.17
681.242	4478.4
681.432	4595.13
681.622	4402.62
681.813	4478.4
682.003	4357.57
682.193	4531.64
682.383	4492.73
682.573	4414.91
682.764	4419
682.954	4447.68
683.144	4382.14
683.334	4373.95
683.524	4449.72
683.714	4386.24
683.904	4294.08
684.094	4449.72
684.284	4234.69
684.474	4324.8
684.664	4380.09
684.854	4199.87
685.044	4312.51
685.234	4318.65
685.424	4189.63
685.614	4337.09
685.804	4158.91
685.994	4191.68
686.184	4171.2
686.374	4115.91
686.564	4158.91
686.753	4267.45
686.943	3999.17
687.133	4013.51
687.323	4113.86
687.513	4017.6
687.702	4009.41
687.892	4009.41
688.082	4011.46
688.272	4083.14
688.461	3929.54
688.651	3909.06
688.841	3745.22
689.03	3939.78
689.22	3753.41
689.41	3890.63
689.599	3823.05
689.789	3780.04
689.979	3890.63
690.168	3767.75
690.358	3749.32
690.547	3767.75
690.737	3718.6
690.926	3837.38
691.116	3610.06
691.305	3694.02
691.495	3737.03
691.684	3593.67
691.874	3702.22
692.063	3857.86
692.252	3583.43
692.442	3614.15
692.631	3556.81
692.82	3591.63
693.01	3636.68
693.199	3446.22
693.388	3562.95
693.578	3454.41
693.767	3569.1
693.956	3532.23
694.146	3327.44
694.335	3458.51
694.524	3390.92
694.713	3452.36
694.902	3317.2
695.092	3374.54
695.281	3382.73
695.47	3390.92
695.659	3288.53
695.848	3397.07
696.037	3358.16
696.226	3403.21
696.415	3440.08
696.604	3278.29
696.793	3286.48
696.982	3352.01
697.171	3251.66
697.36	3364.3
697.549	3204.56
697.738	3179.98
697.927	3147.22
698.116	3196.37
698.305	3335.63
698.494	3120.59
698.683	3171.79
698.872	3222.99
699.061	3292.62
699.25	3302.86
699.438	3206.61
699.627	3169.74
699.816	3139.02
700.005	3061.2
700.193	3143.12
700.382	3071.44
700.571	3098.06
700.76	3108.3
700.948	3208.66
701.137	3261.9
701.326	3100.11
701.514	3073.49
701.703	2997.71
701.892	3055.06
702.08	3179.98
702.269	3128.78
702.457	3141.07
702.646	3147.22
702.834	2983.38
703.023	3077.59
703.212	3069.39
703.4	3106.26
703.589	3098.06
703.777	3083.73
703.965	3108.3
704.154	2999.76
704.342	3026.39
704.531	3053.01
704.719	3005.91
704.907	3073.49
705.096	2944.47
705.284	2993.62
705.472	3034.58
705.661	2987.47
705.849	3026.39
706.037	3093.97
706.226	3050.96
706.414	2946.52
706.602	3136.98
706.79	2938.32
706.979	3087.82
707.167	3022.29
707.355	3081.68
707.543	3007.95
707.731	2977.23
707.919	2883.03
708.107	2983.38
708.296	2985.43
708.484	2923.99
708.672	3022.29
708.86	3028.43
709.048	2977.23
709.236	2977.23
709.424	2973.14
709.612	2938.32
709.8	3053.01
709.988	2860.5
710.176	2987.47
710.364	3065.3
710.551	2864.6
710.739	2928.08
710.927	3069.39
711.115	3005.91
711.303	2954.71
711.491	2885.08
711.679	2987.47
711.866	2854.36
712.054	2989.52
712.242	2797.01
712.43	3034.58
712.617	2934.23
712.805	2932.18
712.993	3069.39
713.181	2846.16
713.368	2991.57
713.556	2989.52
713.744	3030.48
713.931	2952.66
714.119	2964.95
714.306	3040.72
714.494	3061.2
714.682	2928.08
714.869	3024.34
715.057	2964.95
715.244	2848.21
715.432	3032.53
715.619	2807.25
715.807	2840.02
715.994	2907.6
716.182	2993.62
716.369	2928.08
716.556	2907.6
716.744	2942.42
716.931	2821.59
717.119	2950.61
717.306	2776.53
717.493	2797.01
717.681	2962.9
717.868	2870.74
718.055	2995.67
718.242	3012.05
718.43	2846.16
718.617	3010
718.804	2987.47
718.991	2880.98
719.179	2778.58
719.366	2862.55
719.553	2964.95
719.74	2860.5
719.927	2868.69
720.114	2958.8
720.301	3001.81
720.488	2829.78
720.676	2942.42
720.863	2932.18
721.05	2962.9
721.237	2876.88
721.424	2956.75
721.611	2950.61
721.798	2864.6
721.985	2846.16
722.172	2852.31
722.358	2971.09
722.545	2790.87
722.732	2858.45
722.919	2899.41
723.106	2878.93
723.293	2921.94
723.48	2874.84
723.667	2958.8
723.853	2860.5
724.04	2887.12
724.227	2915.8
724.414	2874.84
724.6	2790.87
724.787	2809.3
724.974	2885.08
725.161	2813.4
725.347	2739.67
725.534	2856.4
725.72	2907.6
725.907	2790.87
726.094	2711
726.28	2739.67
726.467	2917.84
726.653	2887.12
726.84	2809.3
727.027	2874.84
727.213	2825.68
727.4	2899.41
727.586	2907.6
727.773	2878.93
727.959	2811.35
728.145	2817.49
728.332	2876.88
728.518	2854.36
728.705	2825.68
728.891	2835.92
729.077	2774.49
729.264	2846.16
729.45	2817.49
729.636	2878.93
729.823	2758.1
730.009	2706.9
730.195	2823.64
730.382	2885.08
730.568	2833.88
730.754	2825.68
730.94	2774.49
731.126	2684.38
731.313	2880.98
731.499	2790.87
731.685	2858.45
731.871	2788.82
732.057	2887.12
732.243	2739.67
732.429	2878.93
732.615	2809.3
732.801	2889.17
732.987	2842.07
733.173	2792.92
733.359	2928.08
733.545	2762.2
733.731	2790.87
733.917	2792.92
734.103	2711
734.289	2864.6
734.475	2735.57
734.661	2805.21
734.847	2889.17
735.033	2801.11
735.219	2737.62
735.404	2723.29
735.59	2727.38
735.776	2754.01
735.962	2743.77
736.148	2686.42
736.333	2698.71
736.519	2661.85
736.705	2762.2
736.89	2706.9
737.076	2637.27
737.262	2760.15
737.447	2831.83
737.633	2762.2
737.819	2672.09
738.004	2749.91
738.19	2766.29
738.375	2680.28
738.561	2704.85
738.747	2661.85
738.932	2702.81
739.118	2733.53
739.303	2618.84
739.489	2608.6
739.674	2590.17
739.859	2690.52
740.045	2637.27
740.23	2573.78
740.416	2655.7
740.601	2467.29
740.786	2569.69
740.972	2592.22
741.157	2667.99
741.342	2590.17
741.528	2592.22
741.713	2545.11
741.898	2592.22
742.084	2504.15
742.269	2522.59
742.454	2510.3
742.639	2502.11
742.824	2600.41
743.01	2524.63
743.195	2461.15
743.38	2510.3
743.565	2432.47
743.75	2379.23
743.935	2444.76
744.12	2477.53
744.305	2518.49
744.49	2364.89
744.675	2377.18
744.86	2444.76
745.045	2432.47
745.23	2387.42
745.415	2262.49
745.6	2375.13
745.785	2299.36
745.97	2375.13
746.155	2389.47
746.34	2342.36
746.525	2264.54
746.71	2428.38
746.895	2213.34
747.079	2213.34
747.264	2196.96
747.449	2213.34
747.634	2239.97
747.819	2100.7
748.003	2203.1
748.188	2098.66
748.373	2246.11
748.557	2131.42
748.742	1947.11
748.927	2145.76
749.111	2067.94
749.296	2088.42
749.481	1910.24
749.665	2002.4
749.85	1967.59
750.034	1951.2
750.219	1971.68
750.404	2006.5
750.588	1988.07
750.773	1975.78
750.957	2029.03
751.141	2045.41
751.326	1973.73
751.51	1906.15
751.695	1914.34
751.879	1895.91
752.064	1891.81
752.248	1902.05
752.432	1893.86
752.617	1836.52
752.801	1902.05
752.985	1736.17
753.17	1875.43
753.354	1699.3
753.538	1750.5
753.722	1779.17
753.907	1807.84
754.091	1678.82
754.275	1713.64
754.459	1730.02
754.643	1670.63
754.828	1613.29
755.012	1795.56
755.196	1744.36
755.38	1633.77
755.564	1705.45
755.748	1613.29
755.932	1596.9
756.116	1578.47
756.3	1574.38
756.484	1572.33
756.668	1547.75
756.852	1517.03
757.036	1535.46
757.22	1566.18
757.404	1547.75
757.588	1557.99
757.772	1494.51
757.956	1562.09
758.14	1498.6
758.323	1523.18
758.507	1588.71
758.691	1467.88
758.875	1422.83
759.059	1330.67
759.242	1443.31
759.426	1394.15
759.61	1441.26
759.794	1457.64
759.977	1406.44
760.161	1402.35
760.345	1351.15
760.528	1367.53
760.712	1363.44
760.895	1441.26
761.079	1338.86
761.263	1220.08
761.446	1377.77
761.63	1328.62
761.813	1273.32
761.997	1330.67
762.18	1351.15
762.364	1304.04
762.547	1351.15
762.731	1328.62
762.914	1314.28
763.098	1158.64
763.281	1254.89
763.464	1226.22
763.648	1164.78
763.831	1215.98
764.015	1297.9
764.198	1189.36
764.381	1265.13
764.564	1209.84
764.748	1226.22
764.931	1076.72
765.114	1205.74
765.297	1177.07
765.481	1121.77
765.664	1160.69
765.847	1222.13
766.03	1138.16
766.213	1256.94
766.397	1179.12
766.58	1127.92
766.763	1136.11
766.946	1170.93
767.129	1070.58
767.312	1060.34
767.495	1086.96
767.678	1041.9
767.861	1109.49
768.044	1080.82
768.227	1238.51
768.41	1181.17
768.593	1084.91
768.776	1056.24
768.959	998.9
769.142	1097.2
769.324	1082.86
769.507	1058.29
769.69	1119.73
769.873	1080.82
770.056	1076.72
770.239	947.7
770.421	1111.54
770.604	1064.43
770.787	1011.18
770.97	1009.14
771.152	962.03
771.335	984.56
771.518	998.9
771.7	1056.24
771.883	959.99
772.066	998.9
772.248	966.13
772.431	1021.42
772.613	1005.04
772.796	892.4
772.978	1025.52
773.161	886.26
773.343	957.94
773.526	902.64
773.708	859.63
773.891	894.45
774.073	925.17
774.256	828.92
774.438	949.75
774.621	882.16
774.803	951.79
774.985	890.35
775.168	824.82
775.35	843.25
775.532	837.11
775.715	898.55
775.897	910.83
776.079	855.54
776.261	798.2
776.444	861.68
776.626	853.49
776.808	806.39
776.99	757.24
777.173	828.92
777.355	714.23
777.537	904.69
777.719	855.54
777.901	826.87
778.083	790
778.265	720.37
778.447	790
778.629	761.33
778.811	714.23
778.993	724.47
779.175	824.82
779.357	792.05
779.539	646.65
779.721	589.3
779.903	683.51
780.085	695.8
780.267	761.33
780.449	744.95
780.631	650.74
780.812	693.75
780.994	669.17
781.176	613.88
781.358	691.7
781.54	697.85
781.721	658.93
781.903	701.94
782.085	630.26
782.267	615.93
782.448	597.49
782.63	605.69
782.812	577.02
782.993	611.83
783.175	534.01
783.357	613.88
783.538	593.4
783.72	574.97
783.901	529.91
784.083	650.74
784.264	519.67
784.446	572.92
784.627	595.45
784.809	593.4
784.99	568.82
785.172	591.35
785.353	550.39
785.535	525.82
785.716	617.97
785.897	525.82
786.079	497.14
786.26	572.92
786.441	538.1
786.623	570.87
786.804	462.33
786.985	511.48
787.167	509.43
787.348	495.1
787.529	472.57
787.71	540.15
787.891	515.58
788.073	488.95
788.254	488.95
788.435	509.43
788.616	441.85
788.797	468.47
788.978	466.42
789.159	464.38
789.34	437.75
789.522	447.99
789.703	415.23
789.884	458.23
790.065	447.99
790.246	427.51
790.427	474.62
790.607	474.62
790.788	472.57
790.969	339.45
791.15	325.12
791.331	431.61
791.512	425.47
791.693	361.98
791.874	429.56
792.054	460.28
792.235	433.66
792.416	404.99
792.597	439.8
792.778	347.64
792.958	368.12
793.139	366.07
793.32	384.51
793.5	335.35
793.681	386.55
793.862	411.13
794.042	331.26
794.223	265.72
794.404	400.89
794.584	284.16
794.765	308.73
794.945	335.35
795.126	458.23
795.306	417.27
795.487	361.98
795.667	351.74
795.848	380.41
796.028	366.07
796.209	300.54
796.389	382.46
796.57	308.73
796.75	290.3
796.93	361.98
797.111	337.4
797.291	224.76
797.471	308.73
797.652	351.74
797.832	300.54
798.012	249.34
798.192	245.24
798.373	343.55
798.553	306.68
798.733	286.2
798.913	247.29
799.093	284.16
799.274	280.06
799.454	386.55
799.634	335.35
799.814	337.4
799.994	286.2
800.174	318.97
800.354	302.59
800.534	294.4
800.714	351.74
800.894	202.24
801.074	247.29
801.254	232.96
801.434	298.49
801.614	261.63
801.794	273.92
801.974	701.94
802.154	216.57
802.334	257.53
802.514	247.29
802.693	325.12
802.873	310.78
803.053	267.77
803.233	294.4
803.413	312.83
803.592	237.05
803.772	241.15
803.952	232.96
804.131	179.71
804.311	204.28
804.491	327.16
804.67	202.24
804.85	210.43
805.03	278.01
805.209	361.98
805.389	267.77
805.568	259.58
805.748	325.12
805.928	220.67
806.107	243.2
806.287	278.01
806.466	271.87
806.646	222.72
806.825	284.16
807.004	269.82
807.184	261.63
807.363	275.96
807.543	212.48
807.722	204.28
807.901	212.48
808.081	228.86
808.26	177.66
808.439	286.2
808.619	257.53
808.798	208.38
808.977	243.2
809.156	226.81
809.336	220.67
809.515	269.82
809.694	99.84
809.873	200.19
810.052	114.17
810.231	212.48
810.411	200.19
810.59	177.66
810.769	214.52
810.948	179.71
811.127	200.19
811.306	273.92
811.485	200.19
811.664	148.99
811.843	153.09
812.022	161.28
812.201	235
812.38	235
812.559	220.67
812.737	230.91
812.916	171.52
813.095	206.33
813.274	155.13
813.453	173.57
813.632	122.37
813.811	237.05
813.989	169.47
814.168	253.44
814.347	157.18
814.526	136.7
814.704	153.09
814.883	144.89
815.062	175.61
815.24	87.55
815.419	208.38
815.598	194.05
815.776	163.33
815.955	243.2
816.133	77.31
816.312	210.43
816.49	132.61
816.669	142.85
816.847	192
817.026	142.85
817.204	173.57
817.383	181.76
817.561	171.52
817.74	159.23
817.918	142.85
818.097	198.14
818.275	116.22
818.453	171.52
818.632	65.02
818.81	212.48
818.988	157.18
819.167	167.42
819.345	110.08
819.523	124.41
819.701	99.84
819.879	144.89
820.058	192
820.236	202.24
820.414	226.81
820.592	75.26
820.77	95.74
820.948	91.65
821.127	153.09
821.305	120.32
821.483	67.07
821.661	153.09
821.839	169.47
822.017	95.74
822.195	89.6
822.373	132.61
822.551	153.09
822.729	210.43
822.907	110.08
823.085	114.17
823.262	138.75
823.44	126.46
823.618	173.57
823.796	169.47
823.974	67.07
824.152	105.98
824.329	171.52
824.507	173.57
824.685	161.28
824.863	122.37
825.04	103.93
825.218	108.03
825.396	108.03
825.574	142.85
825.751	17.92
825.929	153.09
826.107	79.36
826.284	161.28
826.462	97.79
826.639	196.09
826.817	116.22
826.994	116.22
827.172	71.17
827.349	146.94
827.527	65.02
827.704	175.61
827.882	128.51
828.059	130.56
828.237	153.09
828.414	138.75
828.591	71.17
828.769	179.71
828.946	93.69
829.124	79.36
829.301	69.12
829.478	146.94
829.655	85.5
829.833	144.89
830.01	48.64
830.187	126.46
830.364	95.74
830.542	87.55
830.719	124.41
830.896	114.17
831.073	114.17
831.25	101.89
831.427	134.65
831.604	167.42
831.782	112.13
831.959	151.04
832.136	112.13
832.313	48.64
832.49	69.12
832.667	167.42
832.844	69.12
833.021	87.55
833.198	44.54
833.374	163.33
833.551	91.65
833.728	87.55
833.905	60.93
834.082	110.08
834.259	142.85
834.436	108.03
834.612	30.21
834.789	81.41
834.966	118.27
835.143	114.17
835.319	83.45
835.496	38.4
835.673	95.74
835.85	99.84
836.026	79.36
836.203	116.22
836.38	48.64
836.556	67.07
836.733	24.06
836.909	173.57
837.086	44.54
837.262	67.07
837.439	157.18
837.616	40.45
837.792	73.21
837.968	-2.56
838.145	83.45
838.321	28.16
838.498	44.54
838.674	112.13
838.851	26.11
839.027	62.98
839.203	126.46
839.38	93.69
839.556	118.27
839.732	95.74
839.909	50.69
840.085	99.84
840.261	3.58
840.437	93.69
840.614	116.22
840.79	136.7
840.966	83.45
841.142	50.69
841.318	91.65
841.494	26.11
841.671	116.22
841.847	26.11
842.023	67.07
842.199	89.6
842.375	65.02
842.551	-2.56
842.727	48.64
842.903	101.89
843.079	75.26
843.255	40.45
843.431	69.12
843.607	75.26
843.783	38.4
843.959	79.36
844.134	15.87
844.31	124.41
844.486	28.16
844.662	77.31
844.838	40.45
845.013	116.22
845.189	85.5
845.365	7.68
845.541	85.5
845.716	101.89
845.892	34.3
846.068	30.21
846.244	24.06
846.419	52.74
846.595	15.87
846.77	34.3
846.946	19.97
847.122	-23.04
847.297	-4.61
847.473	83.45
847.648	32.26
847.824	-27.14
847.999	54.78
848.175	79.36
848.35	73.21
848.526	89.6
848.701	134.65
848.876	77.31
849.052	77.31
849.227	36.35
849.403	40.45
849.578	28.16
849.753	77.31
849.929	89.6
850.104	73.21
850.279	87.55
850.454	52.74
850.63	-35.33
850.805	89.6
850.98	65.02
851.155	56.83
851.33	24.06
851.505	42.5
851.681	79.36
851.856	93.69
852.031	15.87
852.206	67.07
852.381	22.02
852.556	83.45
852.731	46.59
852.906	48.64
853.081	42.5
853.256	65.02
853.431	-16.9
853.606	-8.7
853.781	-20.99
853.956	54.78
854.131	-10.75
854.305	5.63
854.48	65.02
854.655	40.45
854.83	-39.42
855.005	91.65
855.18	40.45
855.354	5.63
855.529	38.4
855.704	40.45
855.879	54.78
856.053	48.64
856.228	67.07
856.403	-51.71
856.577	22.02
856.752	73.21
856.926	73.21
857.101	1.54
857.276	24.06
857.45	89.6
857.625	-0.51
857.799	48.64
857.974	-8.7
858.148	15.87
858.323	13.82
858.497	28.16
858.672	38.4
858.846	75.26
859.02	71.17
859.195	17.92
859.369	58.88
859.543	1.54
859.718	34.3
859.892	7.68
860.066	56.83
860.241	-33.28
860.415	-0.51
860.589	30.21
860.763	-23.04
860.938	34.3
861.112	71.17
861.286	24.06
861.46	-27.14
861.634	13.82
861.808	69.12
861.982	65.02
862.157	-10.75
862.331	22.02
862.505	7.68
862.679	-12.8
862.853	62.98
863.027	40.45
863.201	28.16
863.375	101.89
863.549	17.92
863.722	62.98
863.896	128.51
864.07	19.97
864.244	67.07
864.418	-20.99
864.592	-6.66
864.766	3.58
864.939	58.88
865.113	17.92
865.287	87.55
865.461	1.54
865.634	32.26
865.808	-0.51
865.982	58.88
866.156	9.73
866.329	54.78
866.503	40.45
866.676	11.78
866.85	-10.75
867.024	28.16
867.197	-2.56
867.371	-8.7
867.544	13.82
867.718	62.98
867.891	56.83
868.065	-27.14
868.238	81.41
868.412	-12.8
868.585	65.02
868.759	-8.7
868.932	13.82
869.105	19.97
869.279	-8.7
869.452	24.06
869.625	28.16
869.799	60.93
869.972	1.54
870.145	56.83
870.319	9.73
870.492	-23.04
870.665	65.02
870.838	13.82
871.011	-59.9
871.185	19.97
871.358	-16.9
871.531	36.35
871.704	-45.57
871.877	38.4
872.05	5.63
872.223	19.97
872.396	17.92
872.569	58.88
872.742	44.54
872.915	-31.23
873.088	-35.33
873.261	-82.43
873.434	32.26
873.607	85.5
873.78	-4.61
873.953	32.26
874.126	34.3
874.299	65.02
874.471	-23.04
874.644	50.69
874.817	73.21
874.99	58.88
875.163	73.21
875.335	91.65
875.508	44.54
875.681	11.78
875.853	-45.57
876.026	32.26
876.199	13.82
876.371	50.69
876.544	17.92
876.717	-2.56
876.889	28.16
877.062	13.82
877.234	-16.9
877.407	54.78
877.579	87.55
877.752	13.82
877.924	11.78
878.097	52.74
878.269	13.82
878.442	22.02
878.614	-41.47
878.786	58.88
878.959	42.5
879.131	22.02
879.303	46.59
879.476	-35.33
879.648	42.5
879.82	7.68
879.993	9.73
880.165	-14.85
880.337	11.78
880.509	-14.85
880.681	24.06
880.854	24.06
881.026	32.26
881.198	46.59
881.37	-39.42
881.542	-31.23
881.714	-35.33
881.886	-72.19
882.058	-2.56
882.23	-0.51
882.402	24.06
882.574	-23.04
882.746	-59.9
882.918	48.64
883.09	46.59
883.262	3.58
883.434	13.82
883.606	13.82
883.778	-31.23
883.95	38.4
884.122	26.11
884.293	36.35
884.465	-41.47
884.637	7.68
884.809	1.54
884.98	24.06
885.152	-23.04
885.324	-72.19
885.496	-4.61
885.667	-16.9
885.839	-20.99
886.011	48.64
886.182	36.35
886.354	-25.09
886.525	-16.9
886.697	24.06
886.869	-8.7
887.04	42.5
887.212	-35.33
887.383	-4.61
887.555	-25.09
887.726	-18.94
887.897	-53.76
888.069	-18.94
888.24	42.5
888.412	69.12
888.583	-2.56
888.754	-14.85
888.926	19.97
889.097	-45.57
889.268	-6.66
889.44	19.97
889.611	-49.66
889.782	-33.28
889.953	-12.8
890.125	9.73
890.296	-6.66
890.467	-20.99
890.638	28.16
890.809	-0.51
890.98	26.11
891.151	32.26
891.323	-39.42
891.494	-2.56
891.665	17.92
891.836	-61.95
892.007	15.87
892.178	-31.23
892.349	13.82
892.52	-33.28
892.691	3.58
892.862	79.36
893.032	13.82
893.203	30.21
893.374	-2.56
893.545	73.21
893.716	26.11
893.887	-37.38
894.057	32.26
894.228	-8.7
894.399	7.68
894.57	44.54
894.74	15.87
894.911	-10.75
895.082	62.98
895.253	13.82
895.423	-49.66
895.594	103.93
895.764	73.21
895.935	-25.09
896.106	93.69
896.276	65.02
896.447	-53.76
896.617	40.45
896.788	13.82
896.958	-45.57
897.129	65.02
897.299	9.73
897.47	11.78
897.64	22.02
897.81	-31.23
897.981	73.21
898.151	-35.33
898.322	11.78
898.492	44.54
898.662	-10.75
898.832	-35.33
899.003	-2.56
899.173	13.82
899.343	-18.94
899.513	-29.18
