Data from USB4F104151__96__11-53-01-618.txt Node

Date: Fri Mar 14 11:53:01 EDT 2025
User: louis
Spectrometer: USB4F10415
Trigger mode: 4
Integration Time (sec): 2.000000E-2
Scans to average: 1
Electric dark correction enabled: true
Nonlinearity correction enabled: false
Boxcar width: 0
XAxis mode: Wavelengths
Number of Pixels in Spectrum: 3648
>>>>>Begin Spectral Data<<<<<
178.204	-57
178.424	-57
178.644	-57
178.864	-50.86
179.084	-108.2
179.304	57.68
179.524	10.58
179.744	33.11
179.964	4.44
180.184	37.2
180.404	-22.19
180.624	-11.95
180.844	-3.75
181.064	-69.29
181.283	-13.99
181.503	-38.57
181.723	16.73
181.943	-34.47
182.163	94.55
182.383	26.96
182.602	59.73
182.822	53.59
183.042	37.2
183.262	20.82
183.482	20.82
183.701	22.87
183.921	-24.23
184.141	10.58
184.361	22.87
184.58	-3.75
184.8	-20.14
185.02	57.68
185.239	45.4
185.459	16.73
185.679	47.44
185.898	-1.71
186.118	65.88
186.338	39.25
186.557	31.06
186.777	-36.52
186.997	0.34
187.216	-16.04
187.436	31.06
187.655	49.49
187.875	74.07
188.095	2.39
188.314	69.97
188.534	26.96
188.753	26.96
188.973	45.4
189.192	61.78
189.412	72.02
189.631	55.64
189.851	24.92
190.07	39.25
190.29	37.2
190.509	55.64
190.729	104.79
190.948	63.83
191.168	29.01
191.387	43.35
191.607	-46.76
191.826	-50.86
192.045	18.77
192.265	-40.62
192.484	8.53
192.704	-26.28
192.923	-46.76
193.142	92.5
193.362	-13.99
193.581	65.88
193.8	35.16
194.02	18.77
194.239	65.88
194.458	-9.9
194.678	31.06
194.897	16.73
195.116	51.54
195.335	-67.24
195.555	8.53
195.774	53.59
195.993	47.44
196.212	-5.8
196.432	-40.62
196.651	41.3
196.87	-3.75
197.089	39.25
197.308	61.78
197.528	24.92
197.747	-30.38
197.966	22.87
198.185	98.64
198.404	14.68
198.623	16.73
198.842	18.77
199.062	10.58
199.281	115.03
199.5	-38.57
199.719	49.49
199.938	2.39
200.157	43.35
200.376	6.49
200.595	74.07
200.814	-9.9
201.033	-11.95
201.252	88.4
201.471	18.77
201.69	45.4
201.909	37.2
202.128	16.73
202.347	-1.71
202.566	-13.99
202.785	-11.95
203.004	-32.43
203.223	76.12
203.442	-20.14
203.661	-9.9
203.879	37.2
204.098	10.58
204.317	22.87
204.536	45.4
204.755	14.68
204.974	-9.9
205.193	10.58
205.411	43.35
205.63	-42.67
205.849	29.01
206.068	24.92
206.287	6.49
206.505	39.25
206.724	31.06
206.943	61.78
207.162	18.77
207.381	72.02
207.599	-38.57
207.818	-28.33
208.037	63.83
208.255	31.06
208.474	41.3
208.693	61.78
208.911	14.68
209.13	2.39
209.349	53.59
209.567	53.59
209.786	-24.23
210.005	35.16
210.223	-3.75
210.442	-22.19
210.661	-42.67
210.879	-22.19
211.098	0.34
211.316	61.78
211.535	16.73
211.753	-1.71
211.972	26.96
212.191	69.97
212.409	-18.09
212.628	-3.75
212.846	12.63
213.065	-1.71
213.283	20.82
213.502	-38.57
213.72	-16.04
213.938	18.77
214.157	78.16
214.375	-1.71
214.594	47.44
214.812	16.73
215.031	-22.19
215.249	-32.43
215.467	41.3
215.686	57.68
215.904	20.82
216.122	29.01
216.341	131.41
216.559	53.59
216.778	29.01
216.996	26.96
217.214	0.34
217.432	76.12
217.651	72.02
217.869	29.01
218.087	-3.75
218.306	-7.85
218.524	-20.14
218.742	29.01
218.96	12.63
219.179	65.88
219.397	24.92
219.615	29.01
219.833	43.35
220.051	-3.75
220.27	72.02
220.488	-16.04
220.706	45.4
220.924	-24.23
221.142	0.34
221.36	61.78
221.578	29.01
221.796	-24.23
222.015	14.68
222.233	37.2
222.451	47.44
222.669	-11.95
222.887	-26.28
223.105	-22.19
223.323	-30.38
223.541	61.78
223.759	110.93
223.977	33.11
224.195	88.4
224.413	49.49
224.631	14.68
224.849	-20.14
225.067	33.11
225.285	12.63
225.503	0.34
225.721	-120.49
225.939	-13.99
226.157	59.73
226.375	65.88
226.592	12.63
226.81	26.96
227.028	29.01
227.246	45.4
227.464	33.11
227.682	18.77
227.9	33.11
228.117	41.3
228.335	12.63
228.553	65.88
228.771	8.53
228.989	102.74
229.206	24.92
229.424	-20.14
229.642	-54.95
229.86	47.44
230.077	6.49
230.295	61.78
230.513	-7.85
230.731	65.88
230.948	20.82
231.166	16.73
231.384	-7.85
231.601	16.73
231.819	18.77
232.037	43.35
232.254	-26.28
232.472	39.25
232.689	-5.8
232.907	82.26
233.125	14.68
233.342	14.68
233.56	51.54
233.777	43.35
233.995	20.82
234.213	131.41
234.43	24.92
234.648	18.77
234.865	51.54
235.083	92.5
235.3	69.97
235.518	-9.9
235.735	94.55
235.953	92.5
236.17	-22.19
236.388	43.35
236.605	76.12
236.822	22.87
237.04	-7.85
237.257	41.3
237.475	55.64
237.692	10.58
237.909	-20.14
238.127	57.68
238.344	51.54
238.562	2.39
238.779	-7.85
238.996	22.87
239.214	-1.71
239.431	35.16
239.648	20.82
239.865	33.11
240.083	67.92
240.3	16.73
240.517	29.01
240.735	82.26
240.952	24.92
241.169	-9.9
241.386	72.02
241.603	4.44
241.821	67.92
242.038	65.88
242.255	-1.71
242.472	49.49
242.689	12.63
242.907	41.3
243.124	88.4
243.341	10.58
243.558	-11.95
243.775	4.44
243.992	-1.71
244.209	-16.04
244.426	49.49
244.643	51.54
244.86	43.35
245.078	74.07
245.295	29.01
245.512	0.34
245.729	10.58
245.946	4.44
246.163	115.03
246.38	53.59
246.597	16.73
246.814	20.82
247.031	55.64
247.248	-1.71
247.464	-36.52
247.681	-11.95
247.898	43.35
248.115	51.54
248.332	12.63
248.549	121.17
248.766	6.49
248.983	49.49
249.2	-7.85
249.417	18.77
249.633	0.34
249.85	-13.99
250.067	35.16
250.284	14.68
250.501	-73.39
250.717	29.01
250.934	-20.14
251.151	37.2
251.368	69.97
251.585	-46.76
251.801	10.58
252.018	-18.09
252.235	98.64
252.451	18.77
252.668	4.44
252.885	63.83
253.102	65.88
253.318	96.6
253.535	72.02
253.752	29.01
253.968	-20.14
254.185	-22.19
254.401	-16.04
254.618	-3.75
254.835	-3.75
255.051	49.49
255.268	8.53
255.484	-1.71
255.701	-22.19
255.917	26.96
256.134	20.82
256.351	78.16
256.567	-3.75
256.784	-50.86
257	43.35
257.217	20.82
257.433	-34.47
257.65	-1.71
257.866	-20.14
258.082	-32.43
258.299	-22.19
258.515	0.34
258.732	49.49
258.948	-9.9
259.165	16.73
259.381	37.2
259.597	24.92
259.814	115.03
260.03	-11.95
260.246	-32.43
260.463	22.87
260.679	24.92
260.895	-36.52
261.112	16.73
261.328	76.12
261.544	45.4
261.761	39.25
261.977	20.82
262.193	31.06
262.409	14.68
262.626	43.35
262.842	63.83
263.058	63.83
263.274	-20.14
263.49	24.92
263.707	29.01
263.923	133.46
264.139	0.34
264.355	-20.14
264.571	33.11
264.787	4.44
265.004	31.06
265.22	14.68
265.436	-24.23
265.652	-61.1
265.868	63.83
266.084	14.68
266.3	-20.14
266.516	-77.48
266.732	57.68
266.948	-20.14
267.164	24.92
267.38	14.68
267.596	80.21
267.812	121.17
268.028	33.11
268.244	47.44
268.46	-24.23
268.676	0.34
268.892	-85.67
269.108	14.68
269.324	-16.04
269.54	-24.23
269.756	-7.85
269.972	51.54
270.188	6.49
270.403	-3.75
270.619	12.63
270.835	65.88
271.051	65.88
271.267	29.01
271.483	14.68
271.698	24.92
271.914	39.25
272.13	-7.85
272.346	6.49
272.562	-11.95
272.777	94.55
272.993	43.35
273.209	-18.09
273.425	-16.04
273.64	16.73
273.856	76.12
274.072	10.58
274.287	8.53
274.503	29.01
274.719	49.49
274.934	16.73
275.15	29.01
275.366	-28.33
275.581	61.78
275.797	6.49
276.012	-16.04
276.228	26.96
276.444	-11.95
276.659	39.25
276.875	72.02
277.09	29.01
277.306	35.16
277.521	0.34
277.737	35.16
277.952	43.35
278.168	67.92
278.383	12.63
278.599	14.68
278.814	16.73
279.03	-7.85
279.245	31.06
279.461	41.3
279.676	6.49
279.892	14.68
280.107	41.3
280.322	35.16
280.538	31.06
280.753	-16.04
280.969	57.68
281.184	10.58
281.399	47.44
281.615	-1.71
281.83	-9.9
282.045	-50.86
282.26	41.3
282.476	-1.71
282.691	29.01
282.906	-48.81
283.122	24.92
283.337	35.16
283.552	14.68
283.767	43.35
283.983	20.82
284.198	20.82
284.413	4.44
284.628	-22.19
284.843	49.49
285.058	49.49
285.274	55.64
285.489	4.44
285.704	6.49
285.919	18.77
286.134	14.68
286.349	74.07
286.564	-67.24
286.779	51.54
286.995	82.26
287.21	26.96
287.425	39.25
287.64	10.58
287.855	18.77
288.07	-3.75
288.285	29.01
288.5	0.34
288.715	67.92
288.93	55.64
289.145	2.39
289.36	72.02
289.575	6.49
289.79	-1.71
290.004	69.97
290.219	39.25
290.434	24.92
290.649	33.11
290.864	37.2
291.079	69.97
291.294	-32.43
291.509	61.78
291.724	67.92
291.938	0.34
292.153	31.06
292.368	147.8
292.583	-38.57
292.798	33.11
293.012	49.49
293.227	24.92
293.442	-36.52
293.657	-11.95
293.871	74.07
294.086	31.06
294.301	102.74
294.516	84.31
294.73	84.31
294.945	-38.57
295.16	65.88
295.374	-30.38
295.589	59.73
295.804	-63.15
296.018	59.73
296.233	45.4
296.447	74.07
296.662	-38.57
296.877	0.34
297.091	31.06
297.306	51.54
297.52	-52.91
297.735	65.88
297.949	-18.09
298.164	-71.34
298.378	16.73
298.593	41.3
298.807	22.87
299.022	72.02
299.236	57.68
299.451	33.11
299.665	33.11
299.88	-5.8
300.094	8.53
300.309	6.49
300.523	4.44
300.737	4.44
300.952	31.06
301.166	57.68
301.381	16.73
301.595	45.4
301.809	84.31
302.024	-24.23
302.238	22.87
302.452	-1.71
302.667	-3.75
302.881	29.01
303.095	41.3
303.309	10.58
303.524	8.53
303.738	0.34
303.952	-20.14
304.166	26.96
304.381	-26.28
304.595	45.4
304.809	14.68
305.023	53.59
305.237	137.56
305.452	-1.71
305.666	16.73
305.88	80.21
306.094	29.01
306.308	88.4
306.522	-26.28
306.736	39.25
306.95	35.16
307.164	74.07
307.379	24.92
307.593	20.82
307.807	47.44
308.021	61.78
308.235	20.82
308.449	-11.95
308.663	63.83
308.877	96.6
309.091	-42.67
309.305	-26.28
309.519	72.02
309.733	61.78
309.947	-7.85
310.161	65.88
310.374	12.63
310.588	-26.28
310.802	-13.99
311.016	45.4
311.23	61.78
311.444	-11.95
311.658	49.49
311.872	53.59
312.085	41.3
312.299	78.16
312.513	8.53
312.727	-7.85
312.941	6.49
313.154	-18.09
313.368	29.01
313.582	84.31
313.796	47.44
314.009	112.98
314.223	102.74
314.437	20.82
314.651	43.35
314.864	-52.91
315.078	24.92
315.292	-18.09
315.505	26.96
315.719	74.07
315.933	35.16
316.146	35.16
316.36	-1.71
316.573	33.11
316.787	-38.57
317.001	26.96
317.214	-5.8
317.428	51.54
317.641	26.96
317.855	51.54
318.068	53.59
318.282	31.06
318.495	102.74
318.709	106.84
318.922	12.63
319.136	51.54
319.349	-36.52
319.563	14.68
319.776	-13.99
319.99	65.88
320.203	47.44
320.417	6.49
320.63	35.16
320.843	67.92
321.057	-46.76
321.27	8.53
321.483	94.55
321.697	112.98
321.91	51.54
322.124	-50.86
322.337	-24.23
322.55	-30.38
322.763	12.63
322.977	37.2
323.19	10.58
323.403	26.96
323.617	63.83
323.83	47.44
324.043	0.34
324.256	49.49
324.469	-5.8
324.683	84.31
324.896	45.4
325.109	65.88
325.322	-11.95
325.535	26.96
325.748	-1.71
325.962	33.11
326.175	-7.85
326.388	69.97
326.601	10.58
326.814	102.74
327.027	-5.8
327.24	10.58
327.453	12.63
327.666	33.11
327.879	24.92
328.092	43.35
328.305	26.96
328.518	24.92
328.731	-11.95
328.944	-34.47
329.157	22.87
329.37	4.44
329.583	104.79
329.796	59.73
330.009	108.88
330.222	37.2
330.435	29.01
330.648	14.68
330.861	12.63
331.073	43.35
331.286	-32.43
331.499	57.68
331.712	26.96
331.925	57.68
332.138	6.49
332.35	84.31
332.563	10.58
332.776	98.64
332.989	12.63
333.202	61.78
333.414	6.49
333.627	4.44
333.84	-28.33
334.053	-28.33
334.265	41.3
334.478	26.96
334.691	35.16
334.903	72.02
335.116	-13.99
335.329	14.68
335.541	10.58
335.754	26.96
335.966	45.4
336.179	49.49
336.392	37.2
336.604	22.87
336.817	18.77
337.029	10.58
337.242	0.34
337.454	8.53
337.667	117.08
337.88	18.77
338.092	35.16
338.305	24.92
338.517	4.44
338.729	82.26
338.942	57.68
339.154	67.92
339.367	35.16
339.579	10.58
339.792	-9.9
340.004	135.51
340.217	-18.09
340.429	29.01
340.641	39.25
340.854	39.25
341.066	61.78
341.278	72.02
341.491	39.25
341.703	127.32
341.915	8.53
342.128	-1.71
342.34	65.88
342.552	10.58
342.764	-32.43
342.977	59.73
343.189	-5.8
343.401	82.26
343.613	67.92
343.826	49.49
344.038	35.16
344.25	59.73
344.462	-26.28
344.674	100.69
344.886	-9.9
345.099	72.02
345.311	22.87
345.523	80.21
345.735	-3.75
345.947	35.16
346.159	-13.99
346.371	61.78
346.583	22.87
346.795	106.84
347.007	4.44
347.219	41.3
347.431	22.87
347.643	129.36
347.855	-69.29
348.067	-24.23
348.279	22.87
348.491	92.5
348.703	-87.72
348.915	61.78
349.127	6.49
349.339	96.6
349.551	47.44
349.763	-13.99
349.975	29.01
350.187	41.3
350.399	45.4
350.61	-11.95
350.822	2.39
351.034	35.16
351.246	-26.28
351.458	92.5
351.669	43.35
351.881	59.73
352.093	35.16
352.305	61.78
352.517	18.77
352.728	12.63
352.94	98.64
353.152	108.88
353.363	-18.09
353.575	-5.8
353.787	-5.8
353.999	53.59
354.21	53.59
354.422	0.34
354.633	39.25
354.845	47.44
355.057	55.64
355.268	37.2
355.48	-13.99
355.692	35.16
355.903	10.58
356.115	112.98
356.326	-20.14
356.538	49.49
356.749	74.07
356.961	18.77
357.172	65.88
357.384	84.31
357.595	0.34
357.807	76.12
358.018	41.3
358.23	12.63
358.441	39.25
358.653	-3.75
358.864	-13.99
359.075	59.73
359.287	49.49
359.498	76.12
359.709	-11.95
359.921	-32.43
360.132	16.73
360.344	33.11
360.555	-5.8
360.766	57.68
360.977	22.87
361.189	47.44
361.4	53.59
361.611	80.21
361.823	78.16
362.034	49.49
362.245	-20.14
362.456	47.44
362.667	51.54
362.879	112.98
363.09	57.68
363.301	51.54
363.512	59.73
363.723	26.96
363.935	39.25
364.146	51.54
364.357	61.78
364.568	26.96
364.779	69.97
364.99	20.82
365.201	35.16
365.412	45.4
365.623	112.98
365.834	-18.09
366.045	41.3
366.256	35.16
366.467	-9.9
366.678	29.01
366.889	14.68
367.1	117.08
367.311	57.68
367.522	76.12
367.733	43.35
367.944	35.16
368.155	61.78
368.366	24.92
368.577	53.59
368.788	6.49
368.999	-32.43
369.209	24.92
369.42	16.73
369.631	80.21
369.842	61.78
370.053	29.01
370.264	18.77
370.474	10.58
370.685	61.78
370.896	92.5
371.107	2.39
371.317	-50.86
371.528	39.25
371.739	55.64
371.95	-9.9
372.16	90.45
372.371	78.16
372.582	39.25
372.792	-18.09
373.003	16.73
373.214	-28.33
373.424	41.3
373.635	-20.14
373.846	20.82
374.056	65.88
374.267	94.55
374.477	18.77
374.688	24.92
374.898	16.73
375.109	45.4
375.319	-77.48
375.53	84.31
375.74	35.16
375.951	72.02
376.161	104.79
376.372	37.2
376.582	51.54
376.793	80.21
377.003	67.92
377.214	14.68
377.424	-16.04
377.635	10.58
377.845	33.11
378.055	0.34
378.266	39.25
378.476	49.49
378.686	6.49
378.897	39.25
379.107	84.31
379.317	45.4
379.528	-20.14
379.738	26.96
379.948	-11.95
380.158	123.22
380.369	53.59
380.579	26.96
380.789	16.73
380.999	69.97
381.21	115.03
381.42	80.21
381.63	-20.14
381.84	57.68
382.05	63.83
382.261	26.96
382.471	45.4
382.681	29.01
382.891	16.73
383.101	78.16
383.311	-24.23
383.521	22.87
383.731	39.25
383.941	69.97
384.151	86.36
384.361	2.39
384.571	86.36
384.781	72.02
384.991	45.4
385.201	125.27
385.411	22.87
385.621	-30.38
385.831	121.17
386.041	90.45
386.251	57.68
386.461	33.11
386.671	49.49
386.881	57.68
387.091	43.35
387.301	51.54
387.511	41.3
387.72	84.31
387.93	14.68
388.14	61.78
388.35	-3.75
388.56	20.82
388.769	78.16
388.979	108.88
389.189	-69.29
389.399	-18.09
389.609	63.83
389.818	88.4
390.028	53.59
390.238	65.88
390.447	61.78
390.657	35.16
390.867	33.11
391.076	106.84
391.286	55.64
391.496	47.44
391.705	29.01
391.915	121.17
392.125	94.55
392.334	59.73
392.544	18.77
392.753	33.11
392.963	65.88
393.172	43.35
393.382	31.06
393.591	10.58
393.801	-16.04
394.01	18.77
394.22	12.63
394.429	86.36
394.639	86.36
394.848	108.88
395.058	20.82
395.267	72.02
395.477	47.44
395.686	49.49
395.895	-5.8
396.105	106.84
396.314	53.59
396.524	35.16
396.733	8.53
396.942	72.02
397.152	18.77
397.361	63.83
397.57	86.36
397.78	45.4
397.989	18.77
398.198	129.36
398.407	98.64
398.617	160.08
398.826	47.44
399.035	98.64
399.244	69.97
399.453	90.45
399.663	49.49
399.872	57.68
400.081	86.36
400.29	41.3
400.499	94.55
400.708	112.98
400.917	82.26
401.127	82.26
401.336	86.36
401.545	84.31
401.754	121.17
401.963	98.64
402.172	90.45
402.381	84.31
402.59	92.5
402.799	47.44
403.008	63.83
403.217	84.31
403.426	151.89
403.635	108.88
403.844	84.31
404.053	37.2
404.262	57.68
404.471	35.16
404.68	162.13
404.888	92.5
405.097	168.27
405.306	86.36
405.515	164.18
405.724	115.03
405.933	108.88
406.142	26.96
406.35	127.32
406.559	76.12
406.768	184.66
406.977	141.65
407.185	145.75
407.394	176.47
407.603	90.45
407.812	176.47
408.02	215.38
408.229	215.38
408.438	94.55
408.646	164.18
408.855	143.7
409.064	192.85
409.272	192.85
409.481	244.05
409.69	133.46
409.898	246.1
410.107	242
410.315	264.53
410.524	201.04
410.733	252.24
410.941	217.43
411.15	336.21
411.358	287.06
411.567	244.05
411.775	280.91
411.984	348.5
412.192	295.25
412.401	340.3
412.609	350.54
412.818	328.02
413.026	321.87
413.234	328.02
413.443	340.3
413.651	397.65
413.86	463.18
414.068	440.65
414.276	520.53
414.485	381.26
414.693	547.15
414.901	491.85
415.11	403.79
415.318	536.91
415.526	432.46
415.734	512.33
415.943	575.82
416.151	610.64
416.359	545.1
416.567	575.82
416.776	713.03
416.984	590.16
417.192	733.51
417.4	655.69
417.608	651.6
417.817	667.98
418.025	643.4
418.233	741.71
418.441	819.53
418.649	837.96
418.857	860.49
419.065	897.35
419.273	928.07
419.481	983.37
419.689	948.55
419.897	1044.81
420.105	915.78
420.313	1091.91
420.521	1116.48
420.729	1040.71
420.937	1147.2
421.145	1089.86
421.353	1229.12
421.561	1442.11
421.769	1403.2
421.977	1517.89
422.185	1360.19
422.393	1466.69
422.601	1630.52
422.809	1569.09
423.017	1630.52
423.224	1517.89
423.432	1741.11
423.64	1759.55
423.848	1900.86
424.056	1812.79
424.263	1986.87
424.471	1988.92
424.679	1935.67
424.887	2103.61
425.094	2191.67
425.302	2232.63
425.51	2249.01
425.718	2330.93
425.925	2335.03
426.133	2462
426.341	2541.87
426.548	2732.33
426.756	2687.28
426.964	2744.62
427.171	2836.78
427.379	3019.05
427.586	2982.18
427.794	3027.24
428.001	3227.94
428.209	3279.14
428.417	3166.5
428.624	3510.56
428.832	3381.54
429.039	3539.23
429.247	3551.52
429.454	3858.71
429.662	4110.61
429.869	3909.91
430.076	4096.28
430.284	4051.22
430.491	4194.58
430.699	4409.62
430.906	4483.34
431.114	4542.74
431.321	4555.02
431.528	4815.12
431.736	5110.02
431.943	5288.2
432.15	5261.57
432.358	5288.2
432.565	5425.41
432.772	5443.84
432.979	5789.95
433.187	5939.45
433.394	5914.88
433.601	6252.79
433.808	6197.49
434.016	6332.66
434.223	6400.24
434.43	6914.28
434.637	6820.08
434.844	7069.93
435.052	7383.27
435.259	7282.92
435.466	7426.28
435.673	7213.29
435.88	7786.72
436.087	8102.11
436.294	8325.33
436.501	8028.38
436.708	8134.87
436.915	8425.68
437.122	8921.29
437.329	8845.52
437.537	9257.16
437.743	9332.93
437.95	9126.09
438.157	9715.91
438.364	9797.82
438.571	9838.78
438.778	9996.48
438.985	11051.18
439.192	10524.85
439.399	10811.57
439.606	10647.73
439.813	10942.64
440.02	11919.52
440.227	11733.15
440.433	11391.14
440.64	11790.5
440.847	11684
441.054	12259.48
441.261	12998.8
441.467	12687.51
441.674	13203.6
441.881	13437.06
442.088	13502.6
442.294	13328.52
442.501	13631.62
442.708	14162.05
442.914	14569.59
443.121	15183.98
443.328	14751.86
443.534	15487.08
443.741	15341.68
443.948	14979.18
444.154	16183.39
444.361	16107.62
444.568	16037.98
444.774	16126.05
444.981	16412.76
445.187	16898.13
445.394	17549.39
445.6	17303.63
445.807	19316.78
446.013	18235.46
446.22	18671.67
446.426	19116.08
446.633	19634.22
446.839	20041.76
447.046	19204.14
447.252	20549.66
447.459	20445.21
447.665	20254.75
447.871	21516.3
448.078	22267.91
448.284	21073.94
448.491	21555.21
448.697	22441.98
448.903	22790.14
449.11	22931.45
449.316	22566.91
449.522	23228.4
449.728	23801.83
449.935	24088.55
450.141	23719.92
450.347	24688.6
450.553	23646.19
450.76	23795.69
450.966	24909.79
451.172	24405.98
451.378	25200.6
451.584	24600.54
451.791	25081.81
451.997	25315.28
452.203	25921.48
452.409	25655.25
452.615	25612.24
452.821	24612.83
453.027	24485.86
453.233	25786.32
453.44	24461.28
453.646	25221.08
453.852	25225.17
454.058	25624.53
454.264	24780.76
454.47	25204.69
454.676	24803.29
454.882	25409.49
455.088	23447.54
455.294	23560.17
455.5	23930.86
455.705	24465.38
455.911	23271.41
456.117	22923.26
456.323	22136.84
456.529	21440.53
456.735	22444.03
456.941	21932.04
457.147	21403.66
457.352	20555.8
457.558	20441.12
457.764	20527.13
457.97	20174.88
458.176	19808.3
458.381	19468.33
458.587	18643
458.793	18825.27
458.999	17942.6
459.204	19087.41
459.41	18442.3
459.616	17119.31
459.821	17315.92
460.027	17270.86
460.233	17143.89
460.438	16189.53
460.644	16244.83
460.85	15380.59
461.055	15323.24
461.261	14893.17
461.466	14215.29
461.672	13596.81
461.878	14690.42
462.083	13588.61
462.289	13326.47
462.494	13084.81
462.7	12753.04
462.905	12499.09
463.111	12914.83
463.316	12810.39
463.522	12490.9
463.727	12423.32
463.932	12456.09
464.138	12368.02
464.343	12355.74
464.549	11995.29
464.754	12392.6
464.959	12255.39
465.165	12183.71
465.37	11616.42
465.575	11485.35
465.781	12030.11
465.986	11890.85
466.191	11276.46
466.397	11301.03
466.602	10885.3
466.807	11348.14
467.012	11057.32
467.218	11129
467.423	10930.35
467.628	11006.13
467.833	11511.97
468.038	11055.28
468.244	10768.56
468.449	11131.05
468.654	10903.73
468.859	10954.93
469.064	10807.47
469.269	10240.19
469.474	10320.06
469.679	10813.62
469.885	10201.27
470.09	10442.93
470.295	10309.82
470.5	10031.29
470.705	10162.36
470.91	9851.07
471.115	9683.14
471.32	9990.33
471.525	9959.61
471.73	9636.03
471.935	9674.95
472.139	9328.84
472.344	9441.48
472.549	9371.85
472.754	9445.57
472.959	9132.23
473.164	8952.01
473.369	8763.6
473.574	9126.09
473.778	8952.01
473.983	8939.72
474.188	8876.24
474.393	8319.19
474.598	8388.82
474.802	8362.2
475.007	8483.03
475.212	8319.19
475.417	8175.83
475.621	8222.94
475.826	7997.66
476.031	8093.91
476.235	7772.38
476.44	7925.98
476.645	7618.79
476.849	7907.55
477.054	7643.36
477.259	7413.99
477.463	7606.5
477.668	7475.43
477.872	7207.14
478.077	7143.66
478.282	7244.01
478.486	7196.9
478.691	6985.96
478.895	7047.4
479.1	6904.04
479.304	6912.24
479.509	6781.17
479.713	6922.48
479.918	6789.36
480.122	6719.73
480.326	6869.23
480.531	6820.08
480.735	6646
480.94	6734.06
481.144	6809.84
481.348	6486.26
481.553	6686.96
481.757	6406.39
481.961	6629.62
482.166	6602.99
482.37	6596.85
482.574	6441.2
482.778	6549.75
482.983	6361.33
483.187	6273.27
483.391	6508.79
483.595	6451.44
483.8	6240.5
484.004	6373.62
484.208	6611.18
484.412	6473.97
484.616	6478.07
484.821	6543.6
485.025	6543.6
485.229	6609.14
485.433	6553.84
485.637	6621.42
485.841	6555.89
486.045	6435.06
486.249	6635.76
486.453	6406.39
486.657	6482.16
486.861	6402.29
487.065	6381.81
487.269	6537.46
487.473	6336.76
487.677	6490.35
487.881	6541.55
488.085	6326.52
488.289	6455.54
488.493	6473.97
488.697	6584.56
488.901	6463.73
489.105	6576.37
489.309	6781.17
489.512	6463.73
489.716	6596.85
489.92	6451.44
490.124	6605.04
490.328	6582.51
490.531	6428.92
490.735	6602.99
490.939	6482.16
491.143	6607.09
491.346	6469.87
491.55	6641.9
491.754	6742.25
491.958	6738.16
492.161	6676.72
492.365	6914.28
492.569	6650.1
492.772	6793.45
492.976	6826.22
493.18	6922.48
493.383	7059.69
493.587	6973.67
493.79	6951.15
493.994	6914.28
494.197	6961.39
494.401	7225.58
494.605	7076.07
494.808	7235.81
495.012	7266.53
495.215	7377.12
495.419	7383.27
495.622	7289.06
495.825	7583.97
496.029	7370.98
496.232	7708.9
496.436	7608.55
496.639	7690.46
496.843	7715.04
497.046	7938.27
497.249	7925.98
497.453	7989.47
497.656	8040.67
497.859	7979.23
498.063	8272.09
498.266	8370.39
498.469	8474.84
498.673	8370.39
498.876	8601.81
499.079	8478.93
499.282	8526.04
499.485	8646.87
499.689	8802.51
499.892	9025.74
500.095	9054.41
500.298	9304.26
500.501	9205.96
500.705	9310.41
500.908	9359.56
501.111	9556.16
501.314	9535.68
501.517	9754.82
501.72	9654.47
501.923	9695.43
502.126	9963.71
502.329	10137.79
502.532	10352.82
502.735	10270.9
502.938	10487.99
503.141	10657.97
503.344	10672.31
503.547	10786.99
503.75	10797.23
503.953	10993.84
504.156	11081.9
504.359	11204.78
504.562	11229.35
504.765	11497.64
504.968	11514.02
505.17	11862.18
505.373	11886.75
505.576	11958.43
505.779	12157.08
505.982	12193.95
506.185	12501.14
506.387	12189.85
506.59	12585.11
506.793	12896.4
506.996	12822.67
507.198	13027.47
507.401	13133.96
507.604	13097.1
507.807	13441.16
508.009	13396.1
508.212	13602.95
508.415	13695.11
508.617	13992.06
508.82	13926.53
509.022	13838.47
509.225	14309.5
509.428	14565.5
509.63	14495.86
509.833	14583.93
510.035	14876.79
510.238	15091.82
510.44	15093.87
510.643	15491.18
510.845	15575.14
511.048	15183.98
511.25	15691.88
511.453	15788.13
511.655	16175.2
511.858	15986.79
512.06	16220.25
512.262	16488.54
512.465	16681.05
512.667	16566.36
512.87	16973.91
513.072	16611.42
513.274	17340.49
513.477	17422.41
513.679	17500.23
513.881	18065.47
514.084	17856.58
514.286	17875.01
514.488	18139.2
514.69	18761.78
514.893	18708.54
515.095	18696.25
515.297	18757.69
515.499	18864.18
515.701	19083.31
515.904	19365.93
516.106	19306.54
516.308	19349.55
516.51	19877.93
516.712	19978.28
516.914	19984.42
517.116	20414.49
517.318	20516.89
517.52	20570.14
517.722	20969.49
517.925	20903.96
518.127	21215.25
518.329	21254.16
518.531	21162
518.733	21698.57
518.935	22044.68
519.136	21805.06
519.338	21919.75
519.54	22044.68
519.742	22667.26
519.944	22534.14
520.146	23136.24
520.348	23121.91
520.55	22964.21
520.752	23336.95
520.954	23846.89
521.155	23549.93
521.357	23719.92
521.559	23871.47
521.761	24381.41
521.963	24346.59
522.164	24485.86
522.366	24555.49
522.568	24805.34
522.77	24715.23
522.971	25499.6
523.173	24944.6
523.375	25618.38
523.576	25458.64
523.778	25421.78
523.98	25835.47
524.181	26191.81
524.383	25905.1
524.584	26609.6
524.786	26353.6
524.988	26456
525.189	26650.56
525.391	26810.3
525.592	26906.55
525.794	27248.57
525.995	27144.12
526.197	27219.89
526.398	27379.64
526.6	27629.49
526.801	27690.93
527.003	27944.87
527.204	27695.02
527.406	27994.03
527.607	28049.32
527.808	28346.28
528.01	27932.59
528.211	28166.06
528.412	28495.78
528.614	28772.25
528.815	28452.77
529.016	28901.28
529.218	28350.37
529.419	28493.73
529.62	28952.48
529.822	28872.6
530.023	29013.91
530.224	28852.13
530.425	29249.43
530.626	28841.89
530.828	28766.11
531.029	29458.32
531.23	29187.99
531.431	29038.49
531.632	29392.79
531.833	29566.87
532.035	29370.26
532.236	29300.63
532.437	29781.9
532.638	29470.61
532.839	29796.24
533.04	29810.57
533.241	29263.77
533.442	29984.65
533.643	29489.04
533.844	29880.21
534.045	29935.5
534.246	29786
534.447	29818.77
534.648	29706.13
534.849	29792.14
535.05	29747.09
535.251	29788.05
535.451	29767.57
535.652	30220.17
535.853	30136.2
536.054	29949.84
536.255	29998.99
536.456	29974.41
536.657	30336.9
536.857	30035.85
537.058	29800.33
537.259	30193.54
537.46	30216.07
537.66	29763.47
537.861	30039.95
538.062	29884.3
538.263	29888.4
538.463	29755.28
538.664	29771.66
538.865	29886.35
539.065	30232.46
539.266	29849.49
539.466	30363.53
539.667	29929.36
539.868	30238.6
540.068	30115.72
540.269	29953.93
540.469	30185.35
540.67	29992.84
540.87	29706.13
541.071	29923.21
541.271	30347.14
541.472	30085
541.672	29996.94
541.873	29968.27
542.073	29724.56
542.274	30115.72
542.474	30023.56
542.675	29624.21
542.875	30273.42
543.075	29996.94
543.276	29355.93
543.476	29984.65
543.676	29892.49
543.877	30054.28
544.077	29808.53
544.277	29968.27
544.478	29611.92
544.678	30146.44
544.878	29998.99
545.078	29659.02
545.279	30007.18
545.479	29663.12
545.679	30027.66
545.879	29937.55
546.079	29837.2
546.28	29884.3
546.48	29403.03
546.68	29953.93
546.88	29712.27
547.08	29951.88
547.28	29747.09
547.48	29497.24
547.68	29708.18
547.88	29487
548.081	29902.73
548.281	29800.33
548.481	29767.57
548.681	29923.21
548.881	30105.48
549.081	29962.12
549.28	29955.98
549.48	29691.79
549.68	29562.77
549.88	29968.27
550.08	29523.86
550.28	29648.78
550.48	29919.12
550.68	30015.37
550.88	29570.96
551.08	29599.63
551.279	29792.14
551.479	29429.65
551.679	29591.44
551.879	29763.47
552.079	29745.04
552.278	29648.78
552.478	29417.36
552.678	29517.71
552.878	29765.52
553.077	29407.12
553.277	29239.19
553.477	29570.96
553.676	29312.92
553.876	29626.26
554.076	29325.21
554.275	29722.51
554.475	29034.39
554.674	29065.11
554.874	29220.76
555.074	29294.49
555.273	29575.06
555.473	29530
555.672	29259.67
555.872	29280.15
556.071	29368.21
556.271	29218.71
556.47	29075.35
556.67	28845.98
556.869	29226.9
557.068	29419.41
557.268	28958.62
557.467	29200.28
557.667	28880.8
557.866	29087.64
558.065	28854.17
558.265	28532.64
558.464	28432.29
558.663	29140.89
558.863	28493.73
559.062	28637.09
559.261	28719.01
559.461	28735.39
559.66	28231.59
559.859	28817.31
560.058	28540.83
560.258	28895.13
560.457	28118.95
560.656	28567.46
560.855	28190.63
561.054	28372.9
561.253	28073.9
561.453	28293.03
561.652	28346.28
561.851	28348.32
562.05	28204.97
562.249	28366.76
562.448	28409.76
562.647	27967.4
562.846	28057.51
563.045	27887.53
563.244	27701.17
563.443	27813.8
563.642	27621.3
563.841	27660.21
564.04	27856.81
564.239	27944.87
564.438	27592.62
564.637	27654.06
564.836	27609.01
565.035	27434.93
565.234	27389.88
565.432	27195.32
565.631	27240.37
565.83	27486.13
566.029	26957.75
566.228	27025.34
566.427	27158.45
566.625	27336.63
566.824	26515.39
567.023	26871.74
567.222	26417.09
567.42	26912.7
567.619	26959.8
567.818	26732.48
568.016	26521.54
568.215	26933.18
568.414	26189.77
568.612	26728.38
568.811	26533.82
569.01	26290.12
569.208	26044.36
569.407	26406.85
569.605	26113.99
569.804	26333.12
570.002	25802.7
570.201	25970.63
570.4	25905.1
570.598	25755.6
570.797	25591.76
570.995	25823.18
571.193	25290.71
571.392	26089.42
571.59	25558.99
571.789	25499.6
571.987	25477.07
572.186	25294.8
572.384	25247.7
572.582	25249.75
572.781	25292.76
572.979	24680.41
573.177	25130.97
573.376	25147.35
573.574	24758.24
573.772	25104.34
573.971	24719.32
574.169	24645.6
574.367	24524.77
574.565	24795.1
574.763	24481.76
574.962	24485.86
575.16	24127.46
575.358	24686.56
575.556	24133.61
575.754	24508.38
575.952	24063.97
576.151	24123.37
576.349	23889.9
576.547	23988.2
576.745	23693.29
576.943	23787.5
577.141	23861.23
577.339	23810.03
577.537	23617.52
577.735	23562.22
577.933	23320.56
578.131	23658.48
578.329	23562.22
578.527	23441.39
578.725	23623.66
578.923	23449.58
579.121	23023.61
579.319	23132.15
579.516	23269.36
579.714	23023.61
579.912	22941.69
580.11	22857.72
580.308	22716.41
580.506	22800.38
580.704	22622.2
580.901	22519.81
581.099	22945.78
581.297	22556.67
581.495	22478.85
581.692	22712.31
581.89	22319.1
582.088	22456.32
582.285	22491.13
582.483	22427.65
582.681	22267.91
582.878	22435.84
583.076	21929.99
583.274	22220.8
583.471	21659.66
583.669	22198.27
583.866	22167.56
584.064	22280.19
584.262	21592.08
584.459	21622.8
584.657	21501.97
584.854	22005.77
585.052	21248.02
585.249	21403.66
585.447	21778.44
585.644	21538.83
585.841	21624.84
586.039	21428.24
586.236	21323.79
586.434	21110.8
586.631	20963.35
586.828	20924.44
587.026	21180.43
587.223	21055.51
587.42	20719.64
587.618	20838.42
587.815	20684.83
588.012	20830.23
588.21	20572.19
588.407	20574.24
588.604	20465.69
588.801	20375.58
588.999	20469.79
589.196	20279.33
589.393	20416.54
589.59	20369.44
589.787	19910.69
589.984	19986.47
590.182	19957.8
590.379	20043.81
590.576	19806.25
590.773	20336.67
590.97	19769.38
591.167	19965.99
591.364	19292.21
591.561	19546.16
591.758	19494.96
591.955	19666.99
592.152	19691.56
592.349	19456.04
592.546	19382.32
592.743	19226.67
592.94	19189.81
593.137	19183.66
593.334	19267.63
593.531	18913.33
593.727	19126.32
593.924	19169.33
594.121	18735.16
594.318	18987.06
594.515	18700.34
594.712	19036.21
594.908	18690.1
595.105	18921.52
595.302	18706.49
595.499	18757.69
595.696	18499.64
595.892	18229.31
596.089	18397.24
596.286	18292.8
596.482	18450.49
596.679	18321.47
596.876	18323.52
597.072	18108.48
597.269	18403.39
597.466	17782.85
597.662	17922.12
597.859	18061.38
598.055	17909.83
598.252	17705.03
598.448	17741.89
598.645	17711.18
598.841	17408.08
599.038	17682.5
599.234	17524.81
599.431	17352.78
599.627	17363.02
599.824	17309.77
600.02	17356.88
600.217	17154.13
600.413	17248.33
600.609	16953.43
600.806	17305.68
601.002	16961.62
601.198	16826.45
601.395	16965.71
601.591	16955.47
601.787	16969.81
601.984	16961.62
602.18	16937.04
602.376	16629.85
602.572	16486.49
602.769	16511.07
602.965	16246.88
603.161	16560.22
603.357	16359.52
603.553	16365.66
603.75	16304.22
603.946	16291.93
604.142	16425.05
604.338	16085.09
604.534	16384.09
604.73	16144.48
604.926	16117.86
605.122	16023.65
605.318	15847.52
605.514	16091.23
605.71	15712.36
605.906	15771.75
606.102	15790.18
606.298	15683.69
606.494	15669.35
606.69	15743.08
606.886	15808.61
607.082	15073.39
607.278	15646.82
607.474	15321.2
607.67	15566.95
607.866	15132.78
608.062	15736.93
608.257	15267.95
608.453	15458.41
608.649	15403.11
608.845	15214.7
609.041	15042.67
609.236	15315.05
609.432	15343.72
609.628	15319.15
609.824	15100.01
610.019	15130.73
610.215	15116.4
610.411	14997.62
610.606	14946.42
610.802	14678.13
610.998	14844.02
611.193	14659.7
611.389	14774.39
611.584	14717.04
611.78	14553.21
611.976	14725.24
612.171	14772.34
612.367	14667.89
612.562	14504.06
612.758	14325.88
612.953	14604.41
613.149	14555.26
613.344	14452.86
613.539	14680.18
613.735	14485.62
613.93	14661.75
614.126	14409.85
614.321	14465.14
614.517	14456.95
614.712	14491.77
614.907	14149.76
615.103	14395.51
615.298	14252.16
615.493	14563.45
615.688	14233.72
615.884	14321.79
616.079	13938.82
616.274	14065.79
616.47	14252.16
616.665	13824.13
616.86	13842.56
617.055	13836.42
617.25	14024.83
617.445	13932.67
617.641	13590.66
617.836	13971.58
618.031	13711.49
618.226	13877.38
618.421	13682.82
618.616	13795.46
618.811	13592.71
619.006	13664.39
619.201	13351.05
619.396	13463.69
619.591	13367.43
619.786	13643.91
619.981	13301.9
620.176	13385.87
620.371	12959.89
620.566	13166.73
620.761	12978.32
620.956	12990.61
621.151	12935.31
621.346	12996.75
621.541	12753.04
621.735	12843.15
621.93	12785.81
622.125	12908.69
622.32	12312.73
622.515	12538.01
622.709	12425.37
622.904	12355.74
623.099	12658.84
623.294	12355.74
623.488	12245.15
623.683	12312.73
623.878	11993.25
624.072	12204.19
624.267	12075.17
624.462	12042.4
624.656	11899.04
624.851	11907.23
625.046	11776.16
625.24	11917.47
625.435	11561.12
625.629	11536.55
625.824	11522.21
626.018	11415.72
626.213	11337.9
626.407	11260.07
626.602	11036.84
626.796	11473.06
626.991	11135.15
627.185	11047.08
627.38	11100.33
627.574	11034.8
627.768	11036.84
627.963	11090.09
628.157	10651.83
628.352	10940.59
628.546	10752.18
628.74	10776.75
628.935	10576.05
629.129	10748.08
629.323	10418.36
629.517	10549.43
629.712	10391.73
629.906	10256.57
630.1	10047.68
630.294	10121.4
630.489	10184.89
630.683	10154.17
630.877	10068.16
631.071	9937.09
631.265	9912.51
631.459	9982.14
631.653	9877.69
631.848	9898.17
632.042	9554.12
632.236	9816.26
632.43	9515.2
632.624	9547.97
632.818	9507.01
633.012	9584.84
633.206	9402.57
633.4	9502.92
633.594	9453.77
633.788	9373.89
633.982	9334.98
634.176	9306.31
634.369	9246.92
634.563	9240.78
634.757	9165
634.951	9121.99
635.145	9140.43
635.339	8847.57
635.533	8884.43
635.726	8833.23
635.92	8710.35
636.114	8556.75
636.308	8718.54
636.501	8671.44
636.695	8831.18
636.889	8542.42
637.083	8644.82
637.276	8364.25
637.47	8386.77
637.664	8583.38
637.857	8421.59
638.051	8272.09
638.244	8392.92
638.438	8243.42
638.632	8192.22
638.825	8083.67
639.019	8122.59
639.212	8087.77
639.406	8075.48
639.599	8093.91
639.793	8079.58
639.986	7844.06
640.18	7839.97
640.373	7725.28
640.567	7743.71
640.76	7803.1
640.954	7674.08
641.147	7698.66
641.34	7553.25
641.534	7719.14
641.727	7481.57
641.92	7667.94
642.114	7409.89
642.307	7332.07
642.5	7385.32
642.694	7180.52
642.887	7278.82
643.08	7362.79
643.273	7117.03
643.467	7299.3
643.66	7098.6
643.853	7061.74
644.046	6885.61
644.239	7106.79
644.432	7043.31
644.626	6832.37
644.819	6928.62
645.012	7043.31
645.205	6928.62
645.398	6781.17
645.591	6936.81
645.784	6729.97
645.977	6785.26
646.17	6662.38
646.363	6650.1
646.556	6449.39
646.749	6514.93
646.942	6510.83
647.135	6506.74
647.328	6525.17
647.521	6682.86
647.714	6318.32
647.907	6355.19
648.099	6340.85
648.292	6254.84
648.485	6146.3
648.678	6099.19
648.871	6187.25
649.064	6101.24
649.256	6207.73
649.449	6215.93
649.642	6078.71
649.835	5937.4
650.027	5978.36
650.22	6056.18
650.413	6025.47
650.605	6007.03
650.798	5951.74
650.991	5863.68
651.183	5882.11
651.376	5933.31
651.568	5759.23
651.761	5771.52
651.954	5568.77
652.146	5710.08
652.339	5701.89
652.531	5685.5
652.724	5699.84
652.916	5538.05
653.109	5484.8
653.301	5339.4
653.494	5607.68
653.686	5392.64
653.879	5509.38
654.071	5415.17
654.263	5472.51
654.456	5411.07
654.648	5454.08
654.84	5157.13
655.033	5310.72
655.225	5380.36
655.417	5193.99
655.61	5265.67
655.802	5296.39
655.994	5251.33
656.186	5140.74
656.379	5134.6
656.571	5095.69
656.763	4968.71
656.955	4888.84
657.148	4897.03
657.34	5011.72
657.532	4929.8
657.724	5052.68
657.916	4907.27
658.108	4860.17
658.3	4823.31
658.492	4735.25
658.684	4790.54
658.876	4698.38
659.068	4772.11
659.26	4579.6
659.452	4718.86
659.644	4626.7
659.836	4679.95
660.028	4677.9
660.22	4487.44
660.412	4604.18
660.604	4528.4
660.796	4585.74
660.988	4507.92
661.18	4430.1
661.372	4499.73
661.563	4389.14
661.755	4434.19
661.947	4501.78
662.139	4477.2
662.331	4374.8
662.522	4352.27
662.714	4276.5
662.906	4217.11
663.097	4299.03
663.289	4270.36
663.481	4210.97
663.673	4288.79
663.864	4159.77
664.056	4108.57
664.247	4081.94
664.439	4079.9
664.631	4137.24
664.822	4059.42
665.014	4090.13
665.205	4075.8
665.397	4135.19
665.588	3952.92
665.78	3938.59
665.971	3877.15
666.163	4094.23
666.354	3961.11
666.546	4040.98
666.737	3877.15
666.929	3911.96
667.12	3868.95
667.311	3813.66
667.503	3784.99
667.694	3963.16
667.885	3905.82
668.077	3760.41
668.268	3778.84
668.459	3715.36
668.651	3737.88
668.842	3684.64
669.033	3561.76
669.224	3701.02
669.416	3725.6
669.607	3690.78
669.798	3627.29
669.989	3692.83
670.18	3594.53
670.371	3608.86
670.563	3547.42
670.754	3612.96
670.945	3682.59
671.136	3590.43
671.327	3516.7
671.518	3461.41
671.709	3664.16
671.9	3518.75
672.091	3494.18
672.282	3578.14
672.473	3449.12
672.664	3371.3
672.855	3488.03
673.046	3422.5
673.237	3485.98
673.428	3324.19
673.619	3336.48
673.809	3250.47
674	3365.15
674.191	3473.7
674.382	3385.63
674.573	3328.29
674.764	3369.25
674.954	3406.11
675.145	3293.48
675.336	3324.19
675.527	3168.55
675.717	3410.21
675.908	3344.67
676.099	3180.84
676.289	3279.14
676.48	3303.71
676.671	3133.73
676.861	3260.71
677.052	3076.39
677.243	3234.08
677.433	3129.64
677.624	3225.89
677.814	3146.02
678.005	3180.84
678.195	3131.69
678.386	3162.41
678.576	3168.55
678.767	3121.45
678.957	3186.98
679.148	3154.21
679.338	3205.41
679.529	3111.21
679.719	3047.72
679.909	3160.36
680.1	3172.64
680.29	3072.29
680.481	3014.95
680.671	2973.99
680.861	3086.63
681.052	3248.42
681.242	3123.49
681.432	3125.54
681.622	3125.54
681.813	2992.42
682.003	3057.96
682.193	3107.11
682.383	3072.29
682.573	3000.62
682.764	2943.27
682.954	3062.05
683.144	3072.29
683.334	3041.57
683.524	3074.34
683.714	3039.53
683.904	2943.27
684.094	3006.76
684.284	3008.81
684.474	3090.73
684.664	2920.74
684.854	3010.86
685.044	3047.72
685.234	2914.6
685.424	2828.59
685.614	2838.83
685.804	2980.14
685.994	2910.5
686.184	2980.14
686.374	2842.92
686.564	2799.91
686.753	2918.7
686.943	2801.96
687.133	2918.7
687.323	2816.3
687.513	2904.36
687.702	2795.82
687.892	2769.2
688.082	2783.53
688.272	2744.62
688.461	2734.38
688.651	2730.28
688.841	2697.52
689.03	2677.04
689.22	2746.67
689.41	2662.7
689.599	2658.6
689.789	2795.82
689.979	2543.92
690.168	2593.07
690.358	2486.58
690.547	2652.46
690.737	2609.45
690.926	2623.79
691.116	2572.59
691.305	2576.69
691.495	2455.86
691.684	2582.83
691.874	2445.62
692.063	2535.73
692.252	2400.56
692.442	2541.87
692.631	2535.73
692.82	2453.81
693.01	2386.22
693.199	2443.57
693.388	2353.46
693.578	2382.13
693.767	2437.42
693.956	2343.22
694.146	2357.55
694.335	2447.66
694.524	2341.17
694.713	2388.27
694.902	2322.74
695.092	2236.72
695.281	2314.55
695.47	2355.51
695.659	2343.22
695.848	2308.4
696.037	2359.6
696.226	2359.6
696.415	2289.97
696.604	2441.52
696.793	2400.56
696.982	2388.27
697.171	2302.26
697.36	2398.51
697.549	2357.55
697.738	2351.41
697.927	2281.78
698.116	2269.49
698.305	2343.22
698.494	2244.92
698.683	2330.93
698.872	2259.25
699.061	2386.22
699.25	2187.57
699.438	2132.28
699.627	2255.15
699.816	2220.34
700.005	2181.43
700.193	2244.92
700.382	2214.2
700.571	2230.58
700.76	2234.68
700.948	2220.34
701.137	2208.05
701.326	2218.29
701.514	2283.83
701.703	2185.52
701.892	2160.95
702.08	2238.77
702.269	2259.25
702.457	2173.24
702.646	2189.62
702.834	2212.15
703.023	2163
703.212	2177.33
703.4	2195.76
703.589	2330.93
703.777	2140.47
703.965	2144.56
704.154	2093.37
704.342	2167.09
704.531	2103.61
704.719	2146.61
704.907	2191.67
705.096	2249.01
705.284	2265.39
705.472	2101.56
705.661	2253.11
705.849	2285.87
706.037	2187.57
706.226	2195.76
706.414	2160.95
706.602	2246.96
706.79	2246.96
706.979	2119.99
707.167	2208.05
707.355	2255.15
707.543	2177.33
707.731	2236.72
707.919	2122.04
708.107	2203.96
708.296	2117.94
708.484	2294.07
708.672	2214.2
708.86	2203.96
709.048	2179.38
709.236	2236.72
709.424	2292.02
709.612	2257.2
709.8	2228.53
709.988	2222.39
710.176	2150.71
710.364	2158.9
710.551	2179.38
710.739	2128.18
710.927	2146.61
711.115	2242.87
711.303	2199.86
711.491	2148.66
711.679	2097.46
711.866	2232.63
712.054	2074.93
712.242	2093.37
712.43	2236.72
712.617	2142.52
712.805	2115.89
712.993	2126.13
713.181	2173.24
713.368	2156.85
713.556	2214.2
713.744	2132.28
713.931	2279.73
714.119	2193.72
714.306	2234.68
714.494	2335.03
714.682	2109.75
714.869	2146.61
715.057	2214.2
715.244	2160.95
715.432	2242.87
715.619	2050.36
715.807	2158.9
715.994	2226.48
716.182	2240.82
716.369	2152.76
716.556	2249.01
716.744	2013.49
716.931	2167.09
717.119	2222.39
717.306	2214.2
717.493	2193.72
717.681	2281.78
717.868	2154.8
718.055	2242.87
718.242	2154.8
718.43	2265.39
718.617	2167.09
718.804	2175.28
718.991	2224.44
719.179	2244.92
719.366	2283.83
719.553	2259.25
719.74	2126.13
719.927	2230.58
720.114	2066.74
720.301	2122.04
720.488	2148.66
720.676	2224.44
720.863	2226.48
721.05	2105.65
721.237	2232.63
721.424	2195.76
721.611	2185.52
721.798	2183.48
721.985	2255.15
722.172	2044.21
722.358	2263.35
722.545	2150.71
722.732	2212.15
722.919	2208.05
723.106	2277.68
723.293	2148.66
723.48	2187.57
723.667	2132.28
723.853	2122.04
724.04	2224.44
724.227	2197.81
724.414	2158.9
724.6	2097.46
724.787	2148.66
724.974	2177.33
725.161	2124.08
725.347	2259.25
725.534	2152.76
725.72	2136.37
725.907	2126.13
726.094	2199.86
726.28	2175.28
726.467	2117.94
726.653	2312.5
726.84	2183.48
727.027	2201.91
727.213	2249.01
727.4	2232.63
727.586	2179.38
727.773	2144.56
727.959	2304.31
728.145	2285.87
728.332	2234.68
728.518	2089.27
728.705	2150.71
728.891	2240.82
729.077	2189.62
729.264	2044.21
729.45	2097.46
729.636	2144.56
729.823	2177.33
730.009	2179.38
730.195	2173.24
730.382	2216.24
730.568	2281.78
730.754	2238.77
730.94	2158.9
731.126	2130.23
731.313	2259.25
731.499	2201.91
731.685	2179.38
731.871	2191.67
732.057	2199.86
732.243	2152.76
732.429	2214.2
732.615	2230.58
732.801	2300.21
732.987	2335.03
733.173	2189.62
733.359	2302.26
733.545	2171.19
733.731	2238.77
733.917	2154.8
734.103	2173.24
734.289	2218.29
734.475	2107.7
734.661	2224.44
734.847	2083.13
735.033	2156.85
735.219	2218.29
735.404	2138.42
735.59	2101.56
735.776	2197.81
735.962	2066.74
736.148	2173.24
736.333	2140.47
736.519	2140.47
736.705	2095.41
736.89	2171.19
737.076	2150.71
737.262	2171.19
737.447	2076.98
737.633	2173.24
737.819	2113.85
738.004	2089.27
738.19	2058.55
738.375	2076.98
738.561	1993.01
738.747	2060.6
738.932	1941.82
739.118	2113.85
739.303	2074.93
739.489	2093.37
739.674	2033.97
739.859	1956.15
740.045	2027.83
740.23	2079.03
740.416	2064.69
740.601	2046.26
740.786	2093.37
740.972	2062.65
741.157	2060.6
741.342	2101.56
741.528	1943.86
741.713	2011.45
741.898	2036.02
742.084	1950.01
742.269	2019.64
742.454	1894.71
742.639	1861.94
742.824	2068.79
743.01	1958.2
743.195	2066.74
743.38	1984.82
743.565	1927.48
743.75	1917.24
743.935	1872.18
744.12	1882.42
744.305	1970.49
744.49	1886.52
744.675	1855.8
744.86	1943.86
745.045	1896.76
745.23	1861.94
745.415	1861.94
745.6	1759.55
745.785	1868.09
745.97	1706.3
746.155	1745.21
746.34	1839.42
746.525	1802.55
746.71	1800.51
746.895	1761.59
747.079	1923.38
747.264	1757.5
747.449	1714.49
747.634	1782.07
747.819	1765.69
748.003	1642.81
748.188	1632.57
748.373	1757.5
748.557	1747.26
748.742	1653.05
748.927	1675.58
749.111	1737.02
749.296	1556.8
749.481	1663.29
749.665	1556.8
749.85	1556.8
750.034	1526.08
750.219	1540.41
750.404	1435.97
750.588	1464.64
750.773	1524.03
750.957	1526.08
751.141	1579.33
751.326	1442.11
751.51	1524.03
751.695	1474.88
751.879	1605.95
752.064	1499.45
752.248	1481.02
752.432	1507.65
752.617	1485.12
752.801	1474.88
752.985	1464.64
753.17	1327.43
753.354	1409.34
753.538	1421.63
753.722	1329.47
753.907	1331.52
754.091	1284.42
754.275	1329.47
754.459	1233.22
754.643	1339.71
754.828	1302.85
755.012	1308.99
755.196	1284.42
755.38	1286.47
755.564	1296.71
755.748	1347.9
755.932	1311.04
756.116	1286.47
756.3	1175.88
756.484	1239.36
756.668	1257.79
756.852	1206.59
757.036	1249.6
757.22	1190.21
757.404	1294.66
757.588	1210.69
757.772	1216.83
757.956	1212.74
758.14	1206.59
758.323	1151.3
758.507	1149.25
758.691	1141.06
758.875	1218.88
759.059	1157.44
759.242	1120.58
759.426	1151.3
759.61	1126.72
759.794	1143.11
759.977	1126.72
760.161	1098.05
760.345	1108.29
760.528	1192.26
760.712	1014.09
760.895	969.03
761.079	1098.05
761.263	983.37
761.446	1091.91
761.63	1012.04
761.813	1044.81
761.997	921.93
762.18	1075.52
762.364	993.61
762.547	1005.89
762.731	1079.62
762.914	1075.52
763.098	952.65
763.281	1034.57
763.464	1005.89
763.648	958.79
763.831	987.46
764.015	960.84
764.198	1014.09
764.381	969.03
764.564	1001.8
764.748	1001.8
764.931	1050.95
765.114	926.02
765.297	985.41
765.481	891.21
765.664	962.89
765.847	788.81
766.03	938.31
766.213	958.79
766.397	860.49
766.58	883.02
766.763	958.79
766.946	895.3
767.129	829.77
767.312	891.21
767.495	866.63
767.678	872.78
767.861	944.45
768.044	915.78
768.227	809.29
768.41	819.53
768.593	960.84
768.776	872.78
768.959	823.62
769.142	921.93
769.324	778.57
769.507	817.48
769.69	698.7
769.873	717.13
770.056	840.01
770.239	741.71
770.421	897.35
770.604	860.49
770.787	799.05
770.97	823.62
771.152	819.53
771.335	811.34
771.518	790.86
771.7	880.97
771.883	874.82
772.066	751.95
772.248	819.53
772.431	760.14
772.613	876.87
772.796	749.9
772.978	735.56
773.161	803.15
773.343	768.33
773.526	715.08
773.708	715.08
773.891	743.75
774.073	751.95
774.256	717.13
774.438	786.76
774.621	633.16
774.803	762.19
774.985	731.47
775.168	751.95
775.35	624.97
775.532	641.36
775.715	692.55
775.897	659.79
776.079	635.21
776.261	598.35
776.444	581.96
776.626	657.74
776.808	631.12
776.99	665.93
777.173	581.96
777.355	588.11
777.537	627.02
777.719	649.55
777.901	661.84
778.083	663.88
778.265	594.25
778.447	624.97
778.629	575.82
778.811	635.21
778.993	637.26
779.175	612.68
779.357	493.9
779.539	637.26
779.721	498
779.903	569.68
780.085	543.05
780.267	483.66
780.449	528.72
780.631	508.24
780.812	612.68
780.994	534.86
781.176	571.72
781.358	541.01
781.54	465.23
781.721	516.43
781.903	518.48
782.085	508.24
782.267	483.66
782.448	479.57
782.63	479.57
782.812	522.57
782.993	469.33
783.175	403.79
783.357	504.14
783.538	508.24
783.72	450.89
783.901	506.19
784.083	377.17
784.264	381.26
784.446	434.51
784.627	446.8
784.809	498
784.99	434.51
785.172	436.56
785.353	416.08
785.535	450.89
785.716	454.99
785.897	405.84
786.079	401.74
786.26	405.84
786.441	479.57
786.623	338.26
786.804	424.27
786.985	354.64
787.167	371.02
787.348	401.74
787.529	364.88
787.71	416.08
787.891	411.98
788.073	303.44
788.254	420.17
788.435	383.31
788.616	303.44
788.797	315.73
788.978	368.98
789.159	409.94
789.34	315.73
789.522	297.3
789.703	291.15
789.884	274.77
790.065	418.13
790.246	340.3
790.427	383.31
790.607	313.68
790.788	377.17
790.969	375.12
791.15	295.25
791.331	319.82
791.512	364.88
791.693	323.92
791.874	237.91
792.054	389.46
792.235	311.63
792.416	282.96
792.597	309.58
792.778	239.95
792.958	268.63
793.139	235.86
793.32	385.36
793.5	260.43
793.681	278.87
793.862	285.01
794.042	309.58
794.223	256.34
794.404	285.01
794.584	346.45
794.765	280.91
794.945	315.73
795.126	393.55
795.306	272.72
795.487	293.2
795.667	280.91
795.848	233.81
796.028	268.63
796.209	325.97
796.389	237.91
796.57	242
796.75	301.39
796.93	233.81
797.111	176.47
797.291	244.05
797.471	223.57
797.652	233.81
797.832	168.27
798.012	301.39
798.192	213.33
798.373	198.99
798.553	213.33
798.733	235.86
798.913	274.77
799.093	227.67
799.274	227.67
799.454	221.52
799.634	268.63
799.814	201.04
799.994	211.28
800.174	256.34
800.354	264.53
800.534	233.81
800.714	211.28
800.894	201.04
801.074	235.86
801.254	198.99
801.434	233.81
801.614	266.58
801.794	248.15
801.974	543.05
802.154	237.91
802.334	190.8
802.514	147.8
802.693	205.14
802.873	266.58
803.053	196.95
803.233	272.72
803.413	262.48
803.592	162.13
803.772	207.19
803.952	299.34
804.131	211.28
804.311	225.62
804.491	151.89
804.67	207.19
804.85	141.65
805.03	170.32
805.209	266.58
805.389	217.43
805.568	180.56
805.748	123.22
805.928	215.38
806.107	231.76
806.287	141.65
806.466	196.95
806.646	201.04
806.825	194.9
807.004	153.94
807.184	168.27
807.363	237.91
807.543	198.99
807.722	131.41
807.901	145.75
808.081	239.95
808.26	96.6
808.439	182.61
808.619	166.23
808.798	188.75
808.977	178.51
809.156	151.89
809.336	186.71
809.515	170.32
809.694	123.22
809.873	198.99
810.052	147.8
810.231	176.47
810.411	182.61
810.59	168.27
810.769	233.81
810.948	129.36
811.127	205.14
811.306	143.7
811.485	127.32
811.664	231.76
811.843	158.03
812.022	108.88
812.201	166.23
812.38	196.95
812.559	80.21
812.737	184.66
812.916	162.13
813.095	78.16
813.274	96.6
813.453	186.71
813.632	112.98
813.811	143.7
813.989	125.27
814.168	231.76
814.347	188.75
814.526	160.08
814.704	174.42
814.883	160.08
815.062	112.98
815.24	186.71
815.419	74.07
815.598	149.84
815.776	198.99
815.955	119.12
816.133	49.49
816.312	172.37
816.49	119.12
816.669	145.75
816.847	94.55
817.026	51.54
817.204	117.08
817.383	41.3
817.561	104.79
817.74	74.07
817.918	90.45
818.097	143.7
818.275	108.88
818.453	139.6
818.632	96.6
818.81	76.12
818.988	106.84
819.167	98.64
819.345	86.36
819.523	117.08
819.701	90.45
819.879	104.79
820.058	133.46
820.236	135.51
820.414	76.12
820.592	78.16
820.77	4.44
820.948	65.88
821.127	76.12
821.305	39.25
821.483	88.4
821.661	151.89
821.839	80.21
822.017	63.83
822.195	53.59
822.373	106.84
822.551	119.12
822.729	180.56
822.907	119.12
823.085	69.97
823.262	106.84
823.44	133.46
823.618	143.7
823.796	135.51
823.974	43.35
824.152	178.51
824.329	26.96
824.507	90.45
824.685	98.64
824.863	158.03
825.04	127.32
825.218	106.84
825.396	98.64
825.574	115.03
825.751	20.82
825.929	102.74
826.107	98.64
826.284	115.03
826.462	141.65
826.639	137.56
826.817	96.6
826.994	10.58
827.172	102.74
827.349	153.94
827.527	76.12
827.704	88.4
827.882	115.03
828.059	98.64
828.237	65.88
828.414	92.5
828.591	106.84
828.769	123.22
828.946	8.53
829.124	69.97
829.301	47.44
829.478	76.12
829.655	35.16
829.833	86.36
830.01	74.07
830.187	43.35
830.364	96.6
830.542	72.02
830.719	153.94
830.896	115.03
831.073	18.77
831.25	94.55
831.427	-3.75
831.604	131.41
831.782	92.5
831.959	57.68
832.136	69.97
832.313	117.08
832.49	-16.04
832.667	112.98
832.844	26.96
833.021	115.03
833.198	37.2
833.374	129.36
833.551	35.16
833.728	149.84
833.905	72.02
834.082	47.44
834.259	37.2
834.436	129.36
834.612	16.73
834.789	72.02
834.966	4.44
835.143	59.73
835.319	67.92
835.496	57.68
835.673	117.08
835.85	86.36
836.026	0.34
836.203	88.4
836.38	22.87
836.556	16.73
836.733	53.59
836.909	162.13
837.086	24.92
837.262	119.12
837.439	74.07
837.616	69.97
837.792	67.92
837.968	80.21
838.145	4.44
838.321	43.35
838.498	6.49
838.674	139.6
838.851	39.25
839.027	47.44
839.203	-32.43
839.38	65.88
839.556	80.21
839.732	115.03
839.909	94.55
840.085	115.03
840.261	-63.15
840.437	-7.85
840.614	67.92
840.79	57.68
840.966	12.63
841.142	61.78
841.318	67.92
841.494	115.03
841.671	20.82
841.847	29.01
842.023	47.44
842.199	57.68
842.375	80.21
842.551	12.63
842.727	29.01
842.903	41.3
843.079	86.36
843.255	53.59
843.431	72.02
843.607	24.92
843.783	33.11
843.959	51.54
844.134	33.11
844.31	92.5
844.486	90.45
844.662	-34.47
844.838	41.3
845.013	151.89
845.189	100.69
845.365	90.45
845.541	35.16
845.716	57.68
845.892	49.49
846.068	74.07
846.244	-9.9
846.419	65.88
846.595	57.68
846.77	35.16
846.946	35.16
847.122	45.4
847.297	53.59
847.473	72.02
847.648	45.4
847.824	67.92
847.999	12.63
848.175	69.97
848.35	35.16
848.526	72.02
848.701	82.26
848.876	121.17
849.052	80.21
849.227	-11.95
849.403	31.06
849.578	94.55
849.753	24.92
849.929	86.36
850.104	-40.62
850.279	61.78
850.454	45.4
850.63	18.77
850.805	37.2
850.98	39.25
851.155	84.31
851.33	24.92
851.505	12.63
851.681	37.2
851.856	-11.95
852.031	63.83
852.206	90.45
852.381	57.68
852.556	45.4
852.731	53.59
852.906	-7.85
853.081	-1.71
853.256	61.78
853.431	-7.85
853.606	45.4
853.781	98.64
853.956	-3.75
854.131	51.54
854.305	18.77
854.48	6.49
854.655	-28.33
854.83	49.49
855.005	-7.85
855.18	63.83
855.354	41.3
855.529	29.01
855.704	-44.71
855.879	22.87
856.053	-11.95
856.228	49.49
856.403	43.35
856.577	51.54
856.752	-13.99
856.926	76.12
857.101	-42.67
857.276	41.3
857.45	35.16
857.625	102.74
857.799	29.01
857.974	33.11
858.148	84.31
858.323	-59.05
858.497	22.87
858.672	-9.9
858.846	31.06
859.02	59.73
859.195	8.53
859.369	-65.19
859.543	-13.99
859.718	4.44
859.892	-11.95
860.066	-30.38
860.241	-28.33
860.415	26.96
860.589	18.77
860.763	6.49
860.938	37.2
861.112	65.88
861.286	37.2
861.46	49.49
861.634	51.54
861.808	-1.71
861.982	16.73
862.157	72.02
862.331	-9.9
862.505	29.01
862.679	29.01
862.853	29.01
863.027	-34.47
863.201	63.83
863.375	35.16
863.549	76.12
863.722	35.16
863.896	78.16
864.07	14.68
864.244	2.39
864.418	-28.33
864.592	45.4
864.766	-16.04
864.939	22.87
865.113	41.3
865.287	31.06
865.461	-54.95
865.634	63.83
865.808	-52.91
865.982	39.25
866.156	-42.67
866.329	12.63
866.503	4.44
866.676	59.73
866.85	33.11
867.024	18.77
867.197	-42.67
867.371	16.73
867.544	35.16
867.718	55.64
867.891	-44.71
868.065	31.06
868.238	29.01
868.412	37.2
868.585	-7.85
868.759	108.88
868.932	-61.1
869.105	4.44
869.279	-26.28
869.452	35.16
869.625	-26.28
869.799	94.55
869.972	-54.95
870.145	-13.99
870.319	61.78
870.492	43.35
870.665	20.82
870.838	33.11
871.011	0.34
871.185	51.54
871.358	110.93
871.531	20.82
871.704	-13.99
871.877	8.53
872.05	-5.8
872.223	-16.04
872.396	-13.99
872.569	-3.75
872.742	-9.9
872.915	67.92
873.088	96.6
873.261	41.3
873.434	47.44
873.607	26.96
873.78	65.88
873.953	-18.09
874.126	65.88
874.299	10.58
874.471	26.96
874.644	-5.8
874.817	117.08
874.99	16.73
875.163	18.77
875.335	-9.9
875.508	-20.14
875.681	4.44
875.853	-3.75
876.026	106.84
876.199	16.73
876.371	-20.14
876.544	-18.09
876.717	53.59
876.889	55.64
877.062	39.25
877.234	18.77
877.407	-1.71
877.579	-7.85
877.752	47.44
877.924	37.2
878.097	26.96
878.269	-50.86
878.442	47.44
878.614	59.73
878.786	37.2
878.959	61.78
879.131	4.44
879.303	2.39
879.476	31.06
879.648	0.34
879.82	-40.62
879.993	0.34
880.165	-5.8
880.337	49.49
880.509	-9.9
880.681	-126.63
880.854	20.82
881.026	98.64
881.198	57.68
881.37	-38.57
881.542	-28.33
881.714	43.35
881.886	6.49
882.058	131.41
882.23	-9.9
882.402	57.68
882.574	-24.23
882.746	55.64
882.918	8.53
883.09	20.82
883.262	20.82
883.434	2.39
883.606	-34.47
883.778	-38.57
883.95	67.92
884.122	16.73
884.293	47.44
884.465	47.44
884.637	84.31
884.809	-32.43
884.98	-16.04
885.152	-11.95
885.324	35.16
885.496	-38.57
885.667	-57
885.839	-1.71
886.011	92.5
886.182	2.39
886.354	6.49
886.525	69.97
886.697	14.68
886.869	-40.62
887.04	-20.14
887.212	35.16
887.383	53.59
887.555	-13.99
887.726	-13.99
887.897	-26.28
888.069	-7.85
888.24	-38.57
888.412	-5.8
888.583	10.58
888.754	80.21
888.926	8.53
889.097	-26.28
889.268	51.54
889.44	2.39
889.611	-24.23
889.782	49.49
889.953	55.64
890.125	-26.28
890.296	-34.47
890.467	37.2
890.638	-7.85
890.809	72.02
890.98	-32.43
891.151	47.44
891.323	53.59
891.494	-30.38
891.665	0.34
891.836	6.49
892.007	-16.04
892.178	43.35
892.349	-5.8
892.52	-5.8
892.691	33.11
892.862	-5.8
893.032	-93.87
893.203	-3.75
893.374	2.39
893.545	16.73
893.716	-16.04
893.887	51.54
894.057	-20.14
894.228	57.68
894.399	-79.53
894.57	-16.04
894.74	43.35
894.911	72.02
895.082	6.49
895.253	6.49
895.423	-18.09
895.594	76.12
895.764	-32.43
895.935	6.49
896.106	22.87
896.276	31.06
896.447	-48.81
896.617	-50.86
896.788	35.16
896.958	72.02
897.129	2.39
897.299	-7.85
897.47	63.83
897.64	10.58
897.81	-24.23
897.981	-13.99
898.151	-44.71
898.322	2.39
898.492	35.16
898.662	-65.19
898.832	-3.75
899.003	16.73
899.173	0.34
899.343	-22.19
899.513	-42.67
