Data from USB4F104151__39__11-51-44-727.txt Node

Date: Fri Mar 14 11:51:44 EDT 2025
User: louis
Spectrometer: USB4F10415
Trigger mode: 4
Integration Time (sec): 2.000000E-2
Scans to average: 1
Electric dark correction enabled: true
Nonlinearity correction enabled: false
Boxcar width: 0
XAxis mode: Wavelengths
Number of Pixels in Spectrum: 3648
>>>>>Begin Spectral Data<<<<<
178.204	-102.4
178.424	-102.4
178.644	-102.4
178.864	-167.93
179.084	-139.26
179.304	26.62
179.524	-6.14
179.744	45.06
179.964	49.15
180.184	32.77
180.404	-77.82
180.624	40.96
180.844	18.43
181.064	-75.77
181.283	14.34
181.503	-57.34
181.723	-10.24
181.943	-26.62
182.163	-45.06
182.383	24.58
182.602	-71.68
182.822	18.43
183.042	12.29
183.262	-4.1
183.482	30.72
183.701	-26.62
183.921	-2.05
184.141	-2.05
184.361	49.15
184.58	-14.34
184.8	-98.3
185.02	-53.25
185.239	-10.24
185.459	-65.53
185.679	-2.05
185.898	-43.01
186.118	2.05
186.338	34.82
186.557	4.1
186.777	-30.72
186.997	-63.49
187.216	-26.62
187.436	67.58
187.655	12.29
187.875	20.48
188.095	0
188.314	106.49
188.534	-10.24
188.753	-49.15
188.973	22.53
189.192	18.43
189.412	57.34
189.631	-65.53
189.851	-20.48
190.07	-4.1
190.29	-36.86
190.509	-40.96
190.729	61.44
190.948	16.38
191.168	47.1
191.387	59.39
191.607	14.34
191.826	49.15
192.045	-2.05
192.265	10.24
192.484	2.05
192.704	86.01
192.923	-26.62
193.142	45.06
193.362	-22.53
193.581	22.53
193.8	24.58
194.02	24.58
194.239	20.48
194.458	43.01
194.678	10.24
194.897	22.53
195.116	12.29
195.335	-32.77
195.555	-26.62
195.774	-49.15
195.993	-16.38
196.212	18.43
196.432	-38.91
196.651	-47.1
196.87	-49.15
197.089	4.1
197.308	10.24
197.528	-4.1
197.747	-28.67
197.966	0
198.185	94.21
198.404	32.77
198.623	63.49
198.842	2.05
199.062	-2.05
199.281	-26.62
199.5	16.38
199.719	2.05
199.938	-22.53
200.157	-18.43
200.376	45.06
200.595	-4.1
200.814	-32.77
201.033	38.91
201.252	67.58
201.471	4.1
201.69	-14.34
201.909	90.11
202.128	63.49
202.347	-16.38
202.566	-12.29
202.785	-59.39
203.004	-40.96
203.223	-36.86
203.442	-59.39
203.661	-16.38
203.879	-30.72
204.098	-32.77
204.317	28.67
204.536	-12.29
204.755	49.15
204.974	49.15
205.193	-26.62
205.411	40.96
205.63	22.53
205.849	-34.82
206.068	4.1
206.287	-16.38
206.505	20.48
206.724	8.19
206.943	-77.82
207.162	-65.53
207.381	49.15
207.599	-6.14
207.818	-16.38
208.037	-47.1
208.255	-20.48
208.474	-14.34
208.693	6.14
208.911	38.91
209.13	18.43
209.349	-53.25
209.567	10.24
209.786	0
210.005	-10.24
210.223	6.14
210.442	-47.1
210.661	32.77
210.879	8.19
211.098	0
211.316	-81.92
211.535	30.72
211.753	14.34
211.972	-16.38
212.191	-69.63
212.409	6.14
212.628	-18.43
212.846	-14.34
213.065	-90.11
213.283	-2.05
213.502	-16.38
213.72	10.24
213.938	20.48
214.157	24.58
214.375	16.38
214.594	53.25
214.812	26.62
215.031	38.91
215.249	6.14
215.467	38.91
215.686	83.97
215.904	0
216.122	-45.06
216.341	18.43
216.559	12.29
216.778	0
216.996	22.53
217.214	32.77
217.432	32.77
217.651	-47.1
217.869	-14.34
218.087	-12.29
218.306	-28.67
218.524	-45.06
218.742	-38.91
218.96	10.24
219.179	6.14
219.397	12.29
219.615	30.72
219.833	-53.25
220.051	-59.39
220.27	69.63
220.488	14.34
220.706	77.82
220.924	88.06
221.142	47.1
221.36	-28.67
221.578	-8.19
221.796	-65.53
222.015	-2.05
222.233	-63.49
222.451	8.19
222.669	4.1
222.887	-24.58
223.105	-67.58
223.323	28.67
223.541	-38.91
223.759	-2.05
223.977	40.96
224.195	28.67
224.413	49.15
224.631	-6.14
224.849	-22.53
225.067	32.77
225.285	-12.29
225.503	28.67
225.721	24.58
225.939	28.67
226.157	8.19
226.375	86.01
226.592	-24.58
226.81	0
227.028	63.49
227.246	-10.24
227.464	10.24
227.682	24.58
227.9	-34.82
228.117	-61.44
228.335	18.43
228.553	47.1
228.771	-59.39
228.989	6.14
229.206	-22.53
229.424	28.67
229.642	-12.29
229.86	-22.53
230.077	8.19
230.295	-65.53
230.513	14.34
230.731	20.48
230.948	-22.53
231.166	26.62
231.384	0
231.601	0
231.819	36.86
232.037	-71.68
232.254	-20.48
232.472	34.82
232.689	-4.1
232.907	4.1
233.125	-49.15
233.342	-61.44
233.56	30.72
233.777	-20.48
233.995	16.38
234.213	8.19
234.43	-59.39
234.648	-61.44
234.865	-102.4
235.083	-34.82
235.3	-2.05
235.518	14.34
235.735	22.53
235.953	67.58
236.17	-28.67
236.388	-73.73
236.605	6.14
236.822	-10.24
237.04	24.58
237.257	34.82
237.475	36.86
237.692	-45.06
237.909	-24.58
238.127	8.19
238.344	2.05
238.562	0
238.779	-36.86
238.996	10.24
239.214	10.24
239.431	38.91
239.648	-4.1
239.865	30.72
240.083	30.72
240.3	8.19
240.517	-36.86
240.735	-43.01
240.952	45.06
241.169	34.82
241.386	18.43
241.603	-43.01
241.821	-20.48
242.038	26.62
242.255	6.14
242.472	-2.05
242.689	43.01
242.907	55.3
243.124	-38.91
243.341	-4.1
243.558	-57.34
243.775	-18.43
243.992	-45.06
244.209	6.14
244.426	24.58
244.643	38.91
244.86	-18.43
245.078	-6.14
245.295	-18.43
245.512	83.97
245.729	4.1
245.946	63.49
246.163	-16.38
246.38	-38.91
246.597	-45.06
246.814	-16.38
247.031	2.05
247.248	53.25
247.464	43.01
247.681	8.19
247.898	-16.38
248.115	30.72
248.332	-22.53
248.549	0
248.766	75.77
248.983	47.1
249.2	22.53
249.417	-24.58
249.633	38.91
249.85	18.43
250.067	47.1
250.284	14.34
250.501	12.29
250.717	-45.06
250.934	-16.38
251.151	16.38
251.368	6.14
251.585	92.16
251.801	-18.43
252.018	-55.3
252.235	28.67
252.451	-43.01
252.668	67.58
252.885	92.16
253.102	-6.14
253.318	-55.3
253.535	-2.05
253.752	65.54
253.968	-18.43
254.185	28.67
254.401	83.97
254.618	-57.34
254.835	6.14
255.051	32.77
255.268	43.01
255.484	51.2
255.701	-4.1
255.917	-38.91
256.134	-57.34
256.351	34.82
256.567	-2.05
256.784	-8.19
257	53.25
257.217	65.54
257.433	6.14
257.65	-4.1
257.866	-59.39
258.082	-22.53
258.299	57.34
258.515	26.62
258.732	36.86
258.948	18.43
259.165	6.14
259.381	-28.67
259.597	-38.91
259.814	6.14
260.03	-20.48
260.246	0
260.463	-26.62
260.679	22.53
260.895	-22.53
261.112	-10.24
261.328	14.34
261.544	-61.44
261.761	83.97
261.977	30.72
262.193	26.62
262.409	-24.58
262.626	-61.44
262.842	-51.2
263.058	14.34
263.274	4.1
263.49	81.92
263.707	26.62
263.923	-2.05
264.139	-32.77
264.355	63.49
264.571	-18.43
264.787	92.16
265.004	83.97
265.22	8.19
265.436	51.2
265.652	30.72
265.868	-4.1
266.084	30.72
266.3	12.29
266.516	-6.14
266.732	-14.34
266.948	-47.1
267.164	-51.2
267.38	-2.05
267.596	32.77
267.812	10.24
268.028	77.82
268.244	-40.96
268.46	-14.34
268.676	-16.38
268.892	-22.53
269.108	-61.44
269.324	-59.39
269.54	-71.68
269.756	61.44
269.972	2.05
270.188	-12.29
270.403	-2.05
270.619	10.24
270.835	16.38
271.051	-18.43
271.267	-26.62
271.483	77.82
271.698	-18.43
271.914	36.86
272.13	24.58
272.346	-63.49
272.562	34.82
272.777	59.39
272.993	-10.24
273.209	-32.77
273.425	22.53
273.64	-106.49
273.856	28.67
274.072	-63.49
274.287	-67.58
274.503	40.96
274.719	-2.05
274.934	43.01
275.15	-53.25
275.366	18.43
275.581	-16.38
275.797	51.2
276.012	-24.58
276.228	-12.29
276.444	2.05
276.659	43.01
276.875	-14.34
277.09	6.14
277.306	-8.19
277.521	43.01
277.737	-12.29
277.952	45.06
278.168	40.96
278.383	36.86
278.599	32.77
278.814	-34.82
279.03	-12.29
279.245	32.77
279.461	32.77
279.676	-18.43
279.892	34.82
280.107	-20.48
280.322	-22.53
280.538	4.1
280.753	-6.14
280.969	22.53
281.184	-32.77
281.399	34.82
281.615	120.83
281.83	-30.72
282.045	-30.72
282.26	-20.48
282.476	96.25
282.691	0
282.906	53.25
283.122	-16.38
283.337	63.49
283.552	75.77
283.767	-61.44
283.983	-28.67
284.198	4.1
284.413	30.72
284.628	-10.24
284.843	16.38
285.058	-61.44
285.274	-67.58
285.489	-45.06
285.704	47.1
285.919	-106.49
286.134	-43.01
286.349	2.05
286.564	57.34
286.779	2.05
286.995	-12.29
287.21	-26.62
287.425	14.34
287.64	-16.38
287.855	12.29
288.07	-47.1
288.285	-18.43
288.5	14.34
288.715	67.58
288.93	92.16
289.145	-20.48
289.36	36.86
289.575	-47.1
289.79	14.34
290.004	-22.53
290.219	-22.53
290.434	32.77
290.649	-69.63
290.864	45.06
291.079	65.54
291.294	-55.3
291.509	-4.1
291.724	0
291.938	10.24
292.153	81.92
292.368	10.24
292.583	20.48
292.798	43.01
293.012	88.06
293.227	-22.53
293.442	-38.91
293.657	-57.34
293.871	38.91
294.086	-10.24
294.301	47.1
294.516	100.35
294.73	24.58
294.945	0
295.16	-24.58
295.374	-20.48
295.589	-45.06
295.804	-30.72
296.018	53.25
296.233	-4.1
296.447	10.24
296.662	-26.62
296.877	18.43
297.091	-8.19
297.306	-110.59
297.52	-36.86
297.735	40.96
297.949	8.19
298.164	8.19
298.378	-30.72
298.593	-12.29
298.807	-32.77
299.022	32.77
299.236	20.48
299.451	32.77
299.665	38.91
299.88	24.58
300.094	30.72
300.309	40.96
300.523	28.67
300.737	-53.25
300.952	36.86
301.166	57.34
301.381	-38.91
301.595	6.14
301.809	-8.19
302.024	-14.34
302.238	-63.49
302.452	-6.14
302.667	8.19
302.881	2.05
303.095	-65.53
303.309	22.53
303.524	-100.35
303.738	-22.53
303.952	-32.77
304.166	26.62
304.381	-51.2
304.595	77.82
304.809	-86.01
305.023	67.58
305.237	-6.14
305.452	-30.72
305.666	14.34
305.88	12.29
306.094	36.86
306.308	6.14
306.522	10.24
306.736	0
306.95	-40.96
307.164	16.38
307.379	-43.01
307.593	94.21
307.807	-38.91
308.021	-20.48
308.235	30.72
308.449	18.43
308.663	-40.96
308.877	118.78
309.091	6.14
309.305	8.19
309.519	-53.25
309.733	-6.14
309.947	67.58
310.161	-59.39
310.374	-18.43
310.588	61.44
310.802	14.34
311.016	67.58
311.23	32.77
311.444	83.97
311.658	-28.67
311.872	-16.38
312.085	45.06
312.299	36.86
312.513	75.77
312.727	-18.43
312.941	-22.53
313.154	90.11
313.368	-45.06
313.582	73.73
313.796	16.38
314.009	49.15
314.223	-2.05
314.437	22.53
314.651	-6.14
314.864	-18.43
315.078	12.29
315.292	-110.59
315.505	-4.1
315.719	18.43
315.933	-47.1
316.146	-6.14
316.36	4.1
316.573	0
316.787	30.72
317.001	-71.68
317.214	49.15
317.428	2.05
317.641	6.14
317.855	10.24
318.068	20.48
318.282	-4.1
318.495	98.3
318.709	-45.06
318.922	26.62
319.136	-100.35
319.349	-8.19
319.563	12.29
319.776	-30.72
319.99	-22.53
320.203	16.38
320.417	-12.29
320.63	-2.05
320.843	30.72
321.057	47.1
321.27	14.34
321.483	4.1
321.697	34.82
321.91	57.34
322.124	22.53
322.337	12.29
322.55	-24.58
322.763	-10.24
322.977	-16.38
323.19	-57.34
323.403	-12.29
323.617	-36.86
323.83	67.58
324.043	75.77
324.256	-36.86
324.469	-49.15
324.683	49.15
324.896	-59.39
325.109	73.73
325.322	-34.82
325.535	26.62
325.748	-75.77
325.962	18.43
326.175	69.63
326.388	26.62
326.601	30.72
326.814	32.77
327.027	32.77
327.24	67.58
327.453	2.05
327.666	0
327.879	18.43
328.092	14.34
328.305	36.86
328.518	30.72
328.731	-47.1
328.944	-6.14
329.157	30.72
329.37	-18.43
329.583	75.77
329.796	53.25
330.009	20.48
330.222	-18.43
330.435	4.1
330.648	69.63
330.861	12.29
331.073	20.48
331.286	-8.19
331.499	-2.05
331.712	16.38
331.925	-59.39
332.138	-14.34
332.35	55.3
332.563	8.19
332.776	6.14
332.989	-2.05
333.202	14.34
333.414	38.91
333.627	4.1
333.84	45.06
334.053	16.38
334.265	-32.77
334.478	-79.87
334.691	49.15
334.903	-14.34
335.116	24.58
335.329	22.53
335.541	-12.29
335.754	12.29
335.966	-49.15
336.179	28.67
336.392	-96.25
336.604	-8.19
336.817	49.15
337.029	34.82
337.242	6.14
337.454	0
337.667	-2.05
337.88	4.1
338.092	-22.53
338.305	36.86
338.517	-2.05
338.729	10.24
338.942	86.01
339.154	22.53
339.367	-34.82
339.579	-51.2
339.792	22.53
340.004	34.82
340.217	14.34
340.429	83.97
340.641	-18.43
340.854	-14.34
341.066	2.05
341.278	34.82
341.491	73.73
341.703	83.97
341.915	6.14
342.128	63.49
342.34	-34.82
342.552	-38.91
342.764	6.14
342.977	18.43
343.189	6.14
343.401	88.06
343.613	-51.2
343.826	-2.05
344.038	34.82
344.25	30.72
344.462	-45.06
344.674	45.06
344.886	22.53
345.099	61.44
345.311	-40.96
345.523	-28.67
345.735	6.14
345.947	-6.14
346.159	-22.53
346.371	-8.19
346.583	47.1
346.795	77.82
347.007	18.43
347.219	20.48
347.431	-36.86
347.643	24.58
347.855	-6.14
348.067	28.67
348.279	-38.91
348.491	73.73
348.703	22.53
348.915	4.1
349.127	2.05
349.339	63.49
349.551	55.3
349.763	-20.48
349.975	96.25
350.187	49.15
350.399	47.1
350.61	14.34
350.822	0
351.034	67.58
351.246	-8.19
351.458	51.2
351.669	36.86
351.881	-24.58
352.093	8.19
352.305	83.97
352.517	26.62
352.728	47.1
352.94	34.82
353.152	59.39
353.363	14.34
353.575	47.1
353.787	67.58
353.999	16.38
354.21	22.53
354.422	-16.38
354.633	-6.14
354.845	24.58
355.057	34.82
355.268	-6.14
355.48	-8.19
355.692	-81.92
355.903	-30.72
356.115	51.2
356.326	0
356.538	24.58
356.749	51.2
356.961	114.69
357.172	49.15
357.384	-28.67
357.595	98.3
357.807	-4.1
358.018	10.24
358.23	10.24
358.441	22.53
358.653	4.1
358.864	-18.43
359.075	16.38
359.287	20.48
359.498	-22.53
359.709	-4.1
359.921	32.77
360.132	40.96
360.344	69.63
360.555	-20.48
360.766	36.86
360.977	-43.01
361.189	45.06
361.4	-16.38
361.611	6.14
361.823	73.73
362.034	18.43
362.245	-18.43
362.456	69.63
362.667	16.38
362.879	28.67
363.09	28.67
363.301	-16.38
363.512	34.82
363.723	24.58
363.935	55.3
364.146	92.16
364.357	-26.62
364.568	16.38
364.779	55.3
364.99	24.58
365.201	-86.01
365.412	16.38
365.623	4.1
365.834	-20.48
366.045	-32.77
366.256	40.96
366.467	-28.67
366.678	14.34
366.889	32.77
367.1	-6.14
367.311	63.49
367.522	8.19
367.733	67.58
367.944	8.19
368.155	45.06
368.366	110.59
368.577	-40.96
368.788	47.1
368.999	-24.58
369.209	-49.15
369.42	178.17
369.631	47.1
369.842	88.06
370.053	-20.48
370.264	63.49
370.474	65.54
370.685	53.25
370.896	-2.05
371.107	2.05
371.317	-22.53
371.528	6.14
371.739	-45.06
371.95	0
372.16	28.67
372.371	81.92
372.582	75.77
372.792	0
373.003	36.86
373.214	26.62
373.424	90.11
373.635	51.2
373.846	34.82
374.056	-28.67
374.267	71.68
374.477	-90.11
374.688	24.58
374.898	34.82
375.109	-14.34
375.319	73.73
375.53	55.3
375.74	6.14
375.951	14.34
376.161	55.3
376.372	59.39
376.582	32.77
376.793	-20.48
377.003	-20.48
377.214	-12.29
377.424	38.91
377.635	20.48
377.845	75.77
378.055	40.96
378.266	-20.48
378.476	-22.53
378.686	4.1
378.897	24.58
379.107	22.53
379.317	4.1
379.528	-49.15
379.738	12.29
379.948	45.06
380.158	32.77
380.369	24.58
380.579	22.53
380.789	86.01
380.999	75.77
381.21	-26.62
381.42	67.58
381.63	75.77
381.84	2.05
382.05	12.29
382.261	-4.1
382.471	77.82
382.681	-88.06
382.891	34.82
383.101	28.67
383.311	-10.24
383.521	2.05
383.731	-10.24
383.941	59.39
384.151	40.96
384.361	79.87
384.571	81.92
384.781	92.16
384.991	75.77
385.201	12.29
385.411	30.72
385.621	73.73
385.831	14.34
386.041	55.3
386.251	-34.82
386.461	40.96
386.671	26.62
386.881	-10.24
387.091	14.34
387.301	-22.53
387.511	38.91
387.72	36.86
387.93	61.44
388.14	4.1
388.35	10.24
388.56	8.19
388.769	-73.73
388.979	90.11
389.189	-53.25
389.399	-36.86
389.609	-4.1
389.818	94.21
390.028	-34.82
390.238	10.24
390.447	-24.58
390.657	69.63
390.867	24.58
391.076	90.11
391.286	73.73
391.496	118.78
391.705	69.63
391.915	69.63
392.125	65.54
392.334	-36.86
392.544	75.77
392.753	6.14
392.963	-12.29
393.172	79.87
393.382	45.06
393.591	-6.14
393.801	53.25
394.01	67.58
394.22	81.92
394.429	59.39
394.639	10.24
394.848	34.82
395.058	77.82
395.267	51.2
395.477	59.39
395.686	77.82
395.895	40.96
396.105	69.63
396.314	108.54
396.524	98.3
396.733	47.1
396.942	45.06
397.152	61.44
397.361	96.25
397.57	40.96
397.78	102.4
397.989	124.93
398.198	12.29
398.407	-6.14
398.617	88.06
398.826	65.54
399.035	108.54
399.244	28.67
399.453	51.2
399.663	67.58
399.872	104.45
400.081	102.4
400.29	167.93
400.499	104.45
400.708	77.82
400.917	79.87
401.127	131.07
401.336	65.54
401.545	118.78
401.754	22.53
401.963	116.73
402.172	83.97
402.381	92.16
402.59	63.49
402.799	108.54
403.008	59.39
403.217	163.84
403.426	120.83
403.635	51.2
403.844	63.49
404.053	102.4
404.262	169.98
404.471	108.54
404.68	137.21
404.888	180.22
405.097	88.06
405.306	124.93
405.515	157.69
405.724	65.54
405.933	217.08
406.142	143.36
406.35	137.21
406.559	151.55
406.768	188.41
406.977	178.17
407.185	137.21
407.394	163.84
407.603	131.07
407.812	172.03
408.02	190.46
408.229	143.36
408.438	137.21
408.646	182.27
408.855	145.41
409.064	249.85
409.272	247.8
409.481	233.47
409.69	231.42
409.898	219.13
410.107	268.28
410.315	307.2
410.524	227.32
410.733	284.67
410.941	348.15
411.15	315.39
411.358	382.97
411.567	325.63
411.775	333.82
411.984	305.15
412.192	417.79
412.401	368.63
412.609	425.98
412.818	428.03
413.026	452.6
413.234	475.13
413.443	458.75
413.651	411.64
413.86	491.51
414.068	528.38
414.276	522.23
414.485	567.29
414.693	636.92
414.901	634.87
415.11	610.29
415.318	595.96
415.526	643.06
415.734	641.01
415.943	673.78
416.151	827.38
416.359	722.93
416.567	706.55
416.776	737.27
416.984	831.48
417.192	978.93
417.4	845.81
417.608	854
417.817	946.16
418.025	960.5
418.233	950.26
418.441	993.26
418.649	1091.57
418.857	1105.9
419.065	1183.73
419.273	1183.73
419.481	1122.29
419.689	1271.79
419.897	1388.52
420.105	1322.99
420.313	1441.77
420.521	1406.95
420.729	1486.83
420.937	1538.02
421.145	1589.22
421.353	1691.62
421.561	1705.96
421.769	1693.67
421.977	1951.71
422.185	1810.4
422.393	2007.01
422.601	1986.53
422.809	2119.65
423.017	2117.6
423.224	2140.13
423.432	2222.05
423.64	2299.87
423.848	2461.66
424.056	2336.73
424.263	2516.95
424.471	2648.02
424.679	2547.67
424.887	2719.7
425.094	2856.92
425.302	2977.75
425.51	3063.76
425.718	3114.96
425.925	3186.64
426.133	3164.11
426.341	3469.26
426.548	3583.95
426.756	3590.09
426.964	3651.53
427.171	3760.07
427.379	3966.92
427.586	3928
427.794	3975.11
428.001	4315.07
428.209	4323.26
428.417	4351.93
428.624	4739
428.832	4786.1
429.039	4745.14
429.247	4630.46
429.454	5101.49
429.662	5478.32
429.869	5115.83
430.076	5496.75
430.284	5357.49
430.491	5576.62
430.699	5877.67
430.906	6018.98
431.114	5869.48
431.321	6287.26
431.528	6277.02
431.736	6571.93
431.943	7018.39
432.15	6725.53
432.358	7008.15
432.565	7157.65
432.772	7268.24
432.979	7587.72
433.187	7663.5
433.394	7649.16
433.601	8392.58
433.808	8460.16
434.016	8230.79
434.223	8531.84
434.43	9152.37
434.637	9035.64
434.844	9434.99
435.052	9482.1
435.259	9553.77
435.466	9789.29
435.673	9680.75
435.88	10329.95
436.087	10936.15
436.294	10856.28
436.501	10579.81
436.708	10921.82
436.915	11267.92
437.122	11845.45
437.329	11452.24
437.537	12136.26
437.743	12238.66
437.95	12302.15
438.157	12805.95
438.364	13174.58
438.571	13451.06
438.778	13406
438.985	14444.32
439.192	13934.38
439.399	14495.52
439.606	14038.83
439.813	15114.01
440.02	15841.04
440.227	15427.35
440.433	15324.95
440.64	15927.05
440.847	15851.28
441.054	16084.75
441.261	17090.3
441.467	17055.48
441.674	17299.19
441.881	18181.87
442.088	17954.54
442.294	17704.69
442.501	18314.98
442.708	18695.91
442.914	19255
443.121	20264.65
443.328	19920.59
443.534	21102.27
443.741	20405.96
443.948	20188.88
444.154	21630.65
444.361	21491.38
444.568	21851.83
444.774	21630.65
444.981	21739.19
445.187	22881.95
445.394	23465.63
445.6	23031.46
445.807	25419.39
446.013	24217.23
446.22	24848
446.426	25685.62
446.633	26093.17
446.839	26904.17
447.046	25738.87
447.252	27225.7
447.459	27102.82
447.665	27031.14
447.871	28460.62
448.078	29609.53
448.284	27919.96
448.491	28870.22
448.697	30172.72
448.903	30477.87
449.11	30443.06
449.316	30459.44
449.522	30729.77
449.728	31475.23
449.935	31419.94
450.141	31854.11
450.347	32318.99
450.553	31608.35
450.76	31686.17
450.966	33142.28
451.172	32433.68
451.378	33220.1
451.584	32198.16
451.791	33254.92
451.997	33127.94
452.203	33826.3
452.409	34033.14
452.615	33783.29
452.821	32456.21
453.027	32044.57
453.233	33895.93
453.44	32247.32
453.646	32763.4
453.852	32919.05
454.058	33578.5
454.264	32718.35
454.47	33228.29
454.676	32308.75
454.882	33375.75
455.088	29982.26
455.294	31014.44
455.5	31276.58
455.705	31811.1
455.911	30494.25
456.117	29734.46
456.323	29441.6
456.529	28190.29
456.735	29011.53
456.941	28462.67
457.147	28157.52
457.352	27084.39
457.558	26625.64
457.764	27051.62
457.97	26134.13
458.176	25757.3
458.381	25718.39
458.587	24344.2
458.793	24481.42
458.999	23092.9
459.204	24891.01
459.41	24080.02
459.616	22394.54
459.821	22650.53
460.027	22814.37
460.233	22169.26
460.438	21102.27
460.644	21257.92
460.85	20012.75
461.055	19885.78
461.261	19723.99
461.466	18409.19
461.672	17790.7
461.878	19066.59
462.083	17786.61
462.289	17436.41
462.494	17362.68
462.7	16566.02
462.905	15929.1
463.111	16801.54
463.316	17035
463.522	16185.1
463.727	16604.93
463.932	16396.04
464.138	16318.21
464.343	16230.15
464.549	15789.84
464.754	16283.4
464.959	16117.51
465.165	16400.13
465.37	15345.43
465.575	14878.49
465.781	15642.39
465.986	15752.98
466.191	15367.96
466.397	14802.72
466.602	14026.54
466.807	14755.61
467.012	14429.99
467.218	14296.87
467.423	14423.84
467.628	14417.7
467.833	15027.99
468.038	14378.79
468.244	13885.23
468.449	14645.02
468.654	14161.7
468.859	14012.2
469.064	13975.34
469.269	13487.92
469.474	13674.29
469.679	13848.36
469.885	13313.84
470.09	13743.92
470.295	13584.18
470.5	13113.14
470.705	13164.34
470.91	13154.1
471.115	13035.32
471.32	13037.37
471.525	13004.6
471.73	12795.71
471.935	12564.29
472.139	12185.41
472.344	12287.81
472.549	12056.39
472.754	12140.36
472.959	11953.99
473.164	11607.89
473.369	11454.29
473.574	11818.83
473.778	11650.89
473.983	11585.36
474.188	11654.99
474.393	11267.92
474.598	10981.21
474.802	10745.69
475.007	10962.78
475.212	10977.11
475.417	10530.66
475.621	10469.22
475.826	10317.67
476.031	10164.07
476.235	10377.06
476.44	10346.34
476.645	10092.39
476.849	10198.88
477.054	10090.34
477.259	9908.07
477.463	9787.24
477.668	9549.68
477.872	9764.72
478.077	9678.7
478.282	9269.11
478.486	9430.9
478.691	9135.99
478.895	9254.77
479.1	9105.27
479.304	9090.93
479.509	8943.48
479.713	9035.64
479.918	8697.72
480.122	8689.53
480.326	8923
480.531	8851.32
480.735	8566.65
480.94	8679.29
481.144	8845.18
481.348	8652.67
481.553	8753.02
481.757	8394.62
481.961	8566.65
482.166	8683.39
482.37	8570.75
482.574	8353.66
482.778	8540.03
482.983	8671.1
483.187	8456.06
483.391	8515.45
483.595	8298.37
483.8	8382.34
484.004	8501.12
484.208	8476.54
484.412	8396.67
484.616	8435.58
484.821	8376.19
485.025	8259.46
485.229	8632.19
485.433	8523.65
485.637	8402.82
485.841	8345.47
486.045	8335.23
486.249	8562.56
486.453	8384.38
486.657	8474.49
486.861	8595.32
487.065	8148.87
487.269	8480.64
487.473	8286.08
487.677	8486.78
487.881	8449.92
488.085	8558.46
488.289	8568.7
488.493	8349.57
488.697	8595.32
488.901	8689.53
489.105	8474.49
489.309	8667
489.512	8537.98
489.716	8626.04
489.92	8642.43
490.124	8646.52
490.328	8652.67
490.531	8505.21
490.735	8595.32
490.939	8750.97
491.143	8574.85
491.346	8757.11
491.55	8836.99
491.754	8707.96
491.958	8845.18
492.161	8669.05
492.365	8836.99
492.569	9078.65
492.772	8697.72
492.976	8882.04
493.18	9133.94
493.383	9205.62
493.587	9187.19
493.79	9260.91
493.994	9240.43
494.197	9303.92
494.401	9439.09
494.605	9381.74
494.808	9426.8
495.012	9635.69
495.215	9682.8
495.419	9643.88
495.622	9555.82
495.825	9867.11
496.029	9674.6
496.232	9967.46
496.436	9873.26
496.639	10256.23
496.843	10057.57
497.046	10477.41
497.249	10598.24
497.453	10497.89
497.656	10565.47
497.859	10678.11
498.063	10876.76
498.266	10903.39
498.469	11186.01
498.673	11261.78
498.876	11194.2
499.079	11560.78
499.282	11493.2
499.485	11654.99
499.689	11816.78
499.892	11724.62
500.095	11833.16
500.298	12119.88
500.501	12040.01
500.705	12330.82
500.908	12504.9
501.111	12595.01
501.314	12562.24
501.517	12873.53
501.72	12885.82
501.923	12855.1
502.126	13406
502.329	13557.55
502.532	13563.7
502.735	13545.27
502.938	13934.38
503.141	13934.38
503.344	14137.13
503.547	14280.49
503.75	14491.43
503.953	14675.74
504.156	14765.85
504.359	14782.24
504.562	14829.34
504.765	15161.11
504.968	15591.19
505.17	15550.23
505.373	15697.68
505.576	15736.59
505.779	16047.88
505.982	15951.63
506.185	16224.01
506.387	16475.91
506.59	16338.69
506.793	16875.26
506.996	16688.9
507.198	17270.52
507.401	17297.14
507.604	17442.55
507.807	17747.7
508.009	17854.19
508.212	17975.02
508.415	18249.45
508.617	18314.98
508.82	18398.95
509.022	18634.47
509.225	19013.34
509.428	19142.36
509.63	19109.6
509.833	19160.8
510.035	19502.81
510.238	19660.5
510.44	19996.37
510.643	20066
510.845	20221.64
511.048	20375.24
511.25	20508.36
511.453	20842.18
511.655	21364.41
511.858	21094.08
512.06	21462.71
512.262	21685.94
512.465	21583.54
512.667	22187.69
512.87	22466.22
513.072	22220.46
513.274	22550.18
513.477	22898.34
513.679	23195.29
513.881	23174.81
514.084	23668.37
514.286	23424.67
514.488	23701.14
514.69	24151.7
514.893	24372.88
515.095	24467.08
515.297	24825.48
515.499	24757.89
515.701	25448.06
515.904	25515.64
516.106	25611.9
516.308	25720.44
516.51	26173.04
516.712	26097.27
516.914	26355.31
517.116	26590.83
517.318	26963.56
517.52	27025
517.722	27311.71
517.925	27352.67
518.127	27735.64
518.329	27879
518.531	27766.36
518.733	28640.84
518.935	28692.04
519.136	28741.19
519.338	29189.7
519.54	29427.26
519.742	29812.28
519.944	29679.16
520.146	30182.96
520.348	30150.2
520.55	30332.47
520.752	30533.17
520.954	31010.34
521.155	30531.12
521.357	31145.51
521.559	31544.86
521.761	32022.04
521.963	31981.08
522.164	31794.71
522.366	32149.01
522.568	32671.25
522.77	32857.61
522.971	33443.33
523.173	33279.49
523.375	33017.35
523.576	33005.06
523.778	33365.51
523.98	33652.22
524.181	34057.72
524.383	34239.99
524.584	34375.16
524.786	34921.96
524.988	34348.53
525.189	34987.5
525.391	35454.43
525.592	35466.72
525.794	35497.44
525.995	35362.28
526.197	35780.06
526.398	35372.52
526.6	35681.76
526.801	36279.77
527.003	35968.48
527.204	36138.46
527.406	36900.3
527.607	36513.23
527.808	36881.87
528.01	36353.49
528.211	36738.51
528.412	37592.51
528.614	37338.57
528.815	37395.91
529.016	37815.74
529.218	37338.57
529.419	37406.15
529.62	37389.77
529.822	37500.36
530.023	37375.43
530.224	37922.24
530.425	37903.81
530.626	37774.78
530.828	37647.81
531.029	38493.62
531.23	37899.71
531.431	38045.12
531.632	38079.93
531.833	38661.55
532.035	38192.57
532.236	38653.36
532.437	38645.17
532.638	38190.52
532.839	38491.57
533.04	39159.21
533.241	38102.46
533.442	39216.55
533.643	38856.11
533.844	38553.01
534.045	38835.63
534.246	38462.9
534.447	39071.15
534.648	38700.47
534.849	38749.62
535.05	38751.66
535.251	38815.15
535.451	38616.5
535.652	38940.08
535.853	38794.67
536.054	39218.6
536.255	39341.48
536.456	38704.56
536.657	39277.99
536.857	39046.57
537.058	38628.79
537.259	39204.27
537.46	38712.75
537.66	38538.68
537.861	39153.07
538.062	39034.28
538.263	39425.45
538.463	38895.02
538.664	38921.65
538.865	38878.64
539.065	38841.78
539.266	38819.25
539.466	39079.34
539.667	38491.57
539.868	39214.51
540.068	38823.34
540.269	38567.35
540.469	39161.26
540.67	38929.84
540.87	38569.4
541.071	39054.76
541.271	39134.63
541.472	38735.28
541.672	38720.95
541.873	38591.92
542.073	38278.58
542.274	39046.57
542.474	39038.38
542.675	38403.51
542.875	39026.09
543.075	38749.62
543.276	38366.65
543.476	39056.81
543.676	38489.52
543.877	39099.82
544.077	38761.9
544.277	38798.77
544.478	38839.73
544.678	38704.56
544.878	39005.61
545.078	38469.04
545.279	38514.1
545.479	38665.65
545.679	38542.77
545.879	38761.9
546.079	38856.11
546.28	38534.58
546.48	38376.89
546.68	38487.48
546.88	38399.41
547.08	38864.3
547.28	38352.31
547.48	38419.89
547.68	38227.38
547.88	38098.36
548.081	38604.21
548.281	38528.44
548.481	38401.46
548.681	38833.58
548.881	38348.21
549.081	38495.67
549.28	38329.78
549.48	38456.76
549.68	38430.13
549.88	38915.5
550.08	38116.79
550.28	38583.73
550.48	38088.12
550.68	38618.55
550.88	38149.56
551.08	38301.11
551.279	38766
551.479	38251.96
551.679	38337.97
551.879	38530.48
552.079	38821.3
552.278	38202.81
552.478	38299.06
552.678	38440.37
552.878	38456.76
553.077	38145.47
553.277	37838.27
553.477	38491.57
553.676	38059.45
553.876	38071.74
554.076	38397.37
554.275	38190.52
554.475	37903.81
554.674	38262.2
554.874	37844.41
555.074	37727.68
555.273	38145.47
555.473	38366.65
555.672	38024.64
555.872	37660.1
556.071	38278.58
556.271	38090.17
556.47	37713.34
556.67	37400.01
556.869	37428.68
557.068	37283.27
557.268	37350.85
557.467	37883.33
557.667	37699.01
557.866	37649.86
558.065	37330.37
558.265	37141.96
558.464	37217.74
558.663	37541.32
558.863	36804.05
559.062	37785.02
559.261	36928.97
559.461	37019.08
559.66	36527.57
559.859	37207.5
560.058	36734.42
560.258	36986.32
560.457	36726.22
560.656	37039.56
560.855	36496.85
561.054	36715.98
561.253	36222.42
561.453	36677.07
561.652	36548.05
561.851	36546
562.05	36531.67
562.249	36470.23
562.448	36771.28
562.647	36478.42
562.846	36400.6
563.045	36388.31
563.244	35960.28
563.443	36842.96
563.642	35718.62
563.841	36005.34
564.04	35624.42
564.239	36224.47
564.438	35356.13
564.637	35513.83
564.836	35669.47
565.035	35315.17
565.234	35532.26
565.432	35098.09
565.631	35266.02
565.83	35311.08
566.029	35425.76
566.228	35253.73
566.427	35085.8
566.625	34823.66
566.824	34754.03
567.023	35020.27
567.222	34053.62
567.42	34905.58
567.619	34688.49
567.818	34588.14
568.016	34659.82
568.215	34680.3
568.414	34516.47
568.612	34508.27
568.811	34334.2
569.01	34360.82
569.208	33891.83
569.407	33996.28
569.605	33517.06
569.804	34113.02
570.002	33627.65
570.201	34008.57
570.4	33443.33
570.598	33195.53
570.797	33242.63
570.995	33375.75
571.193	33150.47
571.392	33320.45
571.59	33209.86
571.789	33195.53
571.987	32822.8
572.186	33248.77
572.384	32822.8
572.582	32919.05
572.781	32697.87
572.979	32271.89
573.177	32540.18
573.376	32667.15
573.574	32294.42
573.772	32331.28
573.971	32071.19
574.169	32026.14
574.367	31667.74
574.565	32087.57
574.763	31950.36
574.962	31714.84
575.16	31626.78
575.358	31694.36
575.556	31163.94
575.754	31704.6
575.952	31264.29
576.151	31700.51
576.349	31161.89
576.547	30912.04
576.745	31485.47
576.943	31104.55
577.141	31092.26
577.339	30744.11
577.537	30998.05
577.735	30750.25
577.933	30697
578.131	30715.44
578.329	30385.71
578.527	30223.92
578.725	30242.35
578.923	30656.04
579.121	30465.58
579.319	30187.06
579.516	30131.76
579.714	30324.27
579.912	30127.67
580.11	29922.87
580.308	29744.7
580.506	29771.32
580.704	29623.87
580.901	29648.44
581.099	29826.62
581.297	29326.91
581.495	29427.26
581.692	29556.28
581.89	29105.73
582.088	29283.91
582.285	28868.17
582.483	29130.31
582.681	29003.33
582.878	28794.44
583.076	28462.67
583.274	29158.98
583.471	28307.02
583.669	28372.56
583.866	28569.16
584.064	28651.08
584.262	27973.21
584.459	28300.88
584.657	27954.77
584.854	28350.03
585.052	27999.83
585.249	27975.25
585.447	27860.57
585.644	27733.59
585.841	27893.33
586.039	28026.45
586.236	27471.45
586.434	27348.57
586.631	27223.65
586.828	27313.76
587.026	27414.11
587.223	27364.96
587.42	27006.56
587.618	27313.76
587.815	27074.15
588.012	26938.98
588.21	26687.08
588.407	26990.18
588.604	26672.74
588.801	26259.06
588.999	26273.39
589.196	26328.69
589.393	26547.82
589.59	26080.88
589.787	26037.87
589.984	26052.21
590.182	25978.48
590.379	26025.59
590.576	26183.28
590.773	25896.56
590.97	25734.78
591.167	25988.72
591.364	25675.38
591.561	25806.45
591.758	25536.12
591.955	25357.95
592.152	25618.04
592.349	25194.11
592.546	25536.12
592.743	25296.51
592.94	24925.83
593.137	25296.51
593.334	24985.22
593.531	24776.33
593.727	25108.1
593.924	24741.51
594.121	24641.16
594.318	24630.92
594.515	24258.19
594.712	24360.59
594.908	24260.24
595.105	24653.45
595.302	24340.11
595.499	24618.63
595.696	23940.75
595.892	23899.8
596.089	23950.99
596.286	24024.72
596.482	23957.14
596.679	24141.46
596.876	23903.89
597.072	23748.25
597.269	23633.56
597.466	23160.48
597.662	23582.36
597.859	23314.08
598.055	23336.6
598.252	23279.26
598.448	23111.33
598.645	22777.51
598.841	23099.04
599.038	23072.42
599.234	22824.61
599.431	22873.76
599.627	22873.76
599.824	22668.97
600.02	22773.41
600.217	22591.14
600.413	22331.05
600.609	22173.36
600.806	21941.94
601.002	22181.55
601.198	22075.06
601.395	21919.41
601.591	21974.7
601.787	22329
601.984	22105.77
602.18	22058.67
602.376	21925.55
602.572	21632.69
602.769	21771.96
602.965	21499.58
603.161	21274.3
603.357	21266.11
603.553	21331.64
603.75	21366.46
603.946	21255.87
604.142	21296.83
604.338	21012.16
604.534	21438.14
604.73	21059.26
604.926	20735.68
605.122	20942.53
605.318	20604.61
605.514	20618.95
605.71	20836.03
605.906	20463.3
606.102	20496.07
606.298	20735.68
606.494	20483.78
606.69	20602.57
606.886	20539.08
607.082	20268.75
607.278	20305.61
607.474	20006.61
607.67	20354.76
607.866	19949.26
608.062	20393.67
608.257	20190.92
608.453	20074.19
608.649	19988.17
608.845	19785.43
609.041	20025.04
609.236	20045.52
609.432	19875.54
609.628	19740.37
609.824	19556.05
610.019	19740.37
610.215	19445.46
610.411	19861.2
610.606	19556.05
610.802	19607.25
610.998	19375.83
611.193	19457.75
611.389	19285.72
611.584	19447.51
611.78	19146.46
611.976	19599.06
612.171	19472.09
612.367	19255
612.562	19220.19
612.758	19052.25
612.953	19072.73
613.149	19042.01
613.344	18839.26
613.539	19300.06
613.735	19134.17
613.93	18835.17
614.126	19087.07
614.321	18910.94
614.517	18751.2
614.712	19125.98
614.907	18771.68
615.103	18994.91
615.298	18820.83
615.493	18863.84
615.688	18570.98
615.884	19013.34
616.079	18464.49
616.274	18593.51
616.47	18454.25
616.665	18792.16
616.86	18360.04
617.055	18599.65
617.25	18458.34
617.445	18616.04
617.641	18005.74
617.836	18427.62
618.031	17966.83
618.226	18380.52
618.421	17886.96
618.616	18149.1
618.811	17905.39
619.006	17979.12
619.201	17557.24
619.396	17895.15
619.591	17331.96
619.786	17729.27
619.981	17344.25
620.176	17456.89
620.371	17037.05
620.566	17401.59
620.761	17319.67
620.956	17256.18
621.151	17151.74
621.346	17114.87
621.541	16754.43
621.735	16973.56
621.93	16621.31
622.125	16664.32
622.32	16193.29
622.515	16480
622.709	16592.64
622.904	16363.27
623.099	16269.06
623.294	16228.1
623.488	15980.3
623.683	16148.23
623.878	15630.1
624.072	15886.09
624.267	15787.79
624.462	15828.75
624.656	15353.62
624.851	15628.05
625.046	15535.89
625.24	15202.07
625.435	15339.29
625.629	15388.44
625.824	14909.21
626.018	15300.37
626.213	14780.19
626.407	14909.21
626.602	14419.75
626.796	14608.16
626.991	14817.05
627.185	14720.8
627.38	14614.31
627.574	14532.39
627.768	14315.3
627.963	14241.57
628.157	14133.03
628.352	14247.72
628.546	13784.88
628.74	14167.85
628.935	13809.45
629.129	13741.87
629.323	13745.97
629.517	13608.75
629.712	13592.37
629.906	13686.58
630.1	13410.1
630.294	13365.04
630.489	13074.23
630.683	13348.66
630.877	13061.94
631.071	13012.79
631.265	13010.75
631.459	12906.3
631.653	12855.1
631.848	12748.61
632.042	12904.25
632.236	12803.9
632.43	12494.66
632.624	12525.38
632.818	12478.27
633.012	12398.4
633.206	12447.55
633.4	12328.77
633.594	12312.39
633.788	12308.29
633.982	12189.51
634.176	12029.77
634.369	12019.53
634.563	11870.03
634.757	12025.67
634.951	11710.29
635.145	11855.69
635.339	11960.14
635.533	11568.98
635.726	11708.24
635.92	11497.3
636.114	11564.88
636.308	11372.37
636.501	11220.82
636.695	11120.47
636.889	11304.79
637.083	10803.04
637.276	11120.47
637.47	10948.44
637.664	10891.1
637.857	10741.6
638.051	11110.23
638.244	10753.88
638.438	11016.02
638.632	10542.94
638.825	10639.2
639.019	10499.94
639.212	10467.17
639.406	10461.02
639.599	10323.81
639.793	10340.19
639.986	10168.16
640.18	10307.43
640.373	10168.16
640.567	9971.56
640.76	10139.49
640.954	10078.05
641.147	10155.88
641.34	9989.99
641.534	9842.54
641.727	9750.38
641.92	9770.86
642.114	9721.71
642.307	9615.21
642.5	9533.29
642.694	9365.36
642.887	9363.31
643.08	9578.35
643.273	9328.5
643.467	9434.99
643.66	9234.29
643.853	9197.43
644.046	9336.69
644.239	9326.45
644.432	8994.68
644.626	9068.41
644.819	9047.93
645.012	9043.83
645.205	8900.47
645.398	8767.35
645.591	8839.03
645.784	8757.11
645.977	8806.27
646.17	8923
646.363	8636.28
646.556	8480.64
646.749	8583.04
646.942	8628.09
647.135	8423.3
647.328	8437.63
647.521	8662.91
647.714	8224.64
647.907	8322.94
648.099	8333.18
648.292	8216.45
648.485	8118.15
648.678	8122.24
648.871	7982.98
649.064	7958.41
649.256	8015.75
649.449	7958.41
649.642	8001.41
649.835	7929.74
650.027	7950.21
650.22	7794.57
650.413	7767.95
650.605	7753.61
650.798	7630.73
650.991	7448.46
651.183	7657.36
651.376	7522.19
651.568	7561.1
651.761	7360.4
651.954	7399.31
652.146	7280.53
652.339	7241.62
652.531	7417.74
652.724	7239.57
652.916	7094.16
653.109	7143.32
653.301	7151.51
653.494	7272.34
653.686	7141.27
653.879	7126.93
654.071	6905.75
654.263	6784.92
654.456	7147.41
654.648	6995.86
654.84	6930.33
655.033	6727.58
655.225	6645.66
655.417	6647.71
655.61	6666.14
655.802	6860.7
655.994	6580.12
656.186	6619.03
656.379	6563.74
656.571	6530.97
656.763	6621.08
656.955	6514.59
657.148	6365.09
657.34	6543.26
657.532	6416.29
657.724	6178.72
657.916	6330.27
658.108	6277.02
658.3	6227.87
658.492	6350.75
658.684	6186.91
658.876	6211.49
659.068	6264.74
659.26	5867.43
659.452	6045.6
659.644	6178.72
659.836	6049.7
660.028	5947.3
660.22	5885.86
660.412	5869.48
660.604	5742.5
660.796	5902.25
660.988	5795.75
661.18	5916.58
661.372	5693.35
661.563	5783.46
661.755	5658.54
661.947	5760.94
662.139	5619.63
662.331	5633.96
662.522	5539.76
662.714	5547.95
662.906	5496.75
663.097	5484.46
663.289	5506.99
663.481	5351.34
663.673	5386.16
663.864	5320.62
664.056	5466.03
664.247	5341.1
664.439	5162.93
664.631	5263.28
664.822	5265.33
665.014	5234.61
665.205	5285.81
665.397	5048.24
665.588	5132.21
665.78	5244.85
665.971	5171.12
666.163	5138.35
666.354	5099.44
666.546	5017.52
666.737	5052.34
666.929	5128.11
667.12	5001.14
667.311	4947.89
667.503	4843.45
667.694	5005.24
667.885	4954.04
668.077	4937.65
668.268	4859.83
668.459	4753.34
668.651	4788.15
668.842	4833.21
669.033	4728.76
669.224	4609.98
669.416	4859.83
669.607	4769.72
669.798	4734.9
669.989	4745.14
670.18	4542.39
670.371	4472.76
670.563	4542.39
670.754	4675.51
670.945	4566.97
671.136	4550.59
671.327	4634.55
671.518	4450.24
671.709	4609.98
671.9	4495.29
672.091	4431.8
672.282	4513.72
672.473	4429.76
672.664	4396.99
672.855	4372.41
673.046	4294.59
673.237	4429.76
673.428	4245.44
673.619	4325.31
673.809	4331.45
674	4284.35
674.191	4220.86
674.382	4245.44
674.573	4310.97
674.764	4313.02
674.954	4216.77
675.145	4300.73
675.336	4110.27
675.527	4310.97
675.717	4278.21
675.908	4181.95
676.099	4259.77
676.289	4153.28
676.48	4245.44
676.671	4108.23
676.861	4280.25
677.052	4048.83
677.243	4106.18
677.433	4106.18
677.624	4077.51
677.814	4149.18
678.005	3977.16
678.195	4077.51
678.386	4212.67
678.576	4151.23
678.767	3946.44
678.957	4050.88
679.148	4054.98
679.338	3987.4
679.529	4046.79
679.719	4036.55
679.909	4034.5
680.1	4020.16
680.29	3981.25
680.481	4044.74
680.671	4038.59
680.861	4001.73
681.052	3960.77
681.242	3811.27
681.432	3889.09
681.622	3811.27
681.813	3940.29
682.003	3962.82
682.193	3868.61
682.383	3940.29
682.573	3934.15
682.764	3725.26
682.954	3964.87
683.144	3837.89
683.334	3815.37
683.524	3872.71
683.714	3821.51
683.904	3848.13
684.094	3782.6
684.284	3817.41
684.474	3715.02
684.664	3735.49
684.854	3645.38
685.044	3751.88
685.234	3684.3
685.424	3596.23
685.614	3762.12
685.804	3690.44
685.994	3696.58
686.184	3592.14
686.374	3612.62
686.564	3614.66
686.753	3643.34
686.943	3573.71
687.133	3577.8
687.323	3549.13
687.513	3538.89
687.702	3633.1
687.892	3487.69
688.082	3475.4
688.272	3622.86
688.461	3352.52
688.651	3430.35
688.841	3317.71
689.03	3383.24
689.22	3282.89
689.41	3321.81
689.599	3405.77
689.789	3254.22
689.979	3364.81
690.168	3297.23
690.358	3309.52
690.547	3274.7
690.737	3395.53
690.926	3264.46
691.116	3174.35
691.305	3309.52
691.495	3151.82
691.684	3235.79
691.874	3272.65
692.063	3286.99
692.252	3151.82
692.442	3233.74
692.631	3172.3
692.82	3284.94
693.01	3119.06
693.199	3024.85
693.388	3104.72
693.578	3139.54
693.767	2967.51
693.956	3106.77
694.146	3035.09
694.335	3043.28
694.524	3045.33
694.713	2961.36
694.902	2928.6
695.092	2981.84
695.281	2891.73
695.47	2953.17
695.659	3049.43
695.848	2928.6
696.037	3037.14
696.226	2953.17
696.415	2990.03
696.604	2967.51
696.793	2926.55
696.982	2944.98
697.171	2809.81
697.36	2895.83
697.549	2895.83
697.738	2889.68
697.927	2840.53
698.116	2705.37
698.305	2793.43
698.494	2869.2
698.683	3049.43
698.872	2854.87
699.061	2822.1
699.25	2873.3
699.438	2766.81
699.627	2754.52
699.816	2901.97
700.005	2801.62
700.193	2861.01
700.382	2848.72
700.571	2863.06
700.76	2912.21
700.948	2887.64
701.137	2754.52
701.326	2770.9
701.514	2779.09
701.703	2760.66
701.892	2770.9
702.08	2797.53
702.269	2838.48
702.457	2852.82
702.646	2678.74
702.834	2772.95
703.023	2785.24
703.212	2836.44
703.4	2631.64
703.589	2645.98
703.777	2746.33
703.965	2822.1
704.154	2748.37
704.342	2742.23
704.531	2674.65
704.719	2703.32
704.907	2791.38
705.096	2750.42
705.284	2746.33
705.472	2705.37
705.661	2701.27
705.849	2820.05
706.037	2783.19
706.226	2795.48
706.414	2721.75
706.602	2701.27
706.79	2670.55
706.979	2891.73
707.167	2586.58
707.355	2637.78
707.543	2656.22
707.731	2801.62
707.919	2756.57
708.107	2668.5
708.296	2568.15
708.484	2676.7
708.672	2670.55
708.86	2615.26
709.048	2680.79
709.236	2695.13
709.424	2762.71
709.612	2670.55
709.8	2621.4
709.988	2654.17
710.176	2748.37
710.364	2650.07
710.551	2652.12
710.739	2631.64
710.927	2750.42
711.115	2752.47
711.303	2863.06
711.491	2740.18
711.679	2672.6
711.866	2727.89
712.054	2828.24
712.242	2621.4
712.43	2742.23
712.617	2789.33
712.805	2627.54
712.993	2713.56
713.181	2678.74
713.368	2674.65
713.556	2779.09
713.744	2789.33
713.931	2906.07
714.119	2820.05
714.306	2711.51
714.494	2740.18
714.682	2738.13
714.869	2672.6
715.057	2838.48
715.244	2609.11
715.432	2813.91
715.619	2633.69
715.807	2643.93
715.994	2688.98
716.182	2721.75
716.369	2758.61
716.556	2768.85
716.744	2754.52
716.931	2691.03
717.119	2705.37
717.306	2803.67
717.493	2723.8
717.681	2639.83
717.868	2713.56
718.055	2762.71
718.242	2766.81
718.43	2623.45
718.617	2758.61
718.804	2697.17
718.991	2881.49
719.179	2818.01
719.366	2658.26
719.553	2748.37
719.74	2748.37
719.927	2750.42
720.114	2631.64
720.301	2711.51
720.488	2766.81
720.676	2662.36
720.863	2709.46
721.05	2709.46
721.237	2627.54
721.424	2650.07
721.611	2699.22
721.798	2684.89
721.985	2709.46
722.172	2803.67
722.358	2691.03
722.545	2815.96
722.732	2617.3
722.919	2779.09
723.106	2791.38
723.293	2715.61
723.48	2752.47
723.667	2727.89
723.853	2629.59
724.04	2729.94
724.227	2605.02
724.414	2617.3
724.6	2723.8
724.787	2682.84
724.974	2861.01
725.161	2643.93
725.347	2574.3
725.534	2719.7
725.72	2645.98
725.907	2639.83
726.094	2783.19
726.28	2643.93
726.467	2762.71
726.653	2783.19
726.84	2637.78
727.027	2762.71
727.213	2537.43
727.4	2688.98
727.586	2664.41
727.773	2697.17
727.959	2693.08
728.145	2670.55
728.332	2607.06
728.518	2691.03
728.705	2627.54
728.891	2650.07
729.077	2668.5
729.264	2678.74
729.45	2721.75
729.636	2740.18
729.823	2586.58
730.009	2654.17
730.195	2617.3
730.382	2736.09
730.568	2654.17
730.754	2754.52
730.94	2596.82
731.126	2768.85
731.313	2693.08
731.499	2615.26
731.685	2541.53
731.871	2693.08
732.057	2729.94
732.243	2738.13
732.429	2674.65
732.615	2559.96
732.801	2713.56
732.987	2746.33
733.173	2639.83
733.359	2701.27
733.545	2588.63
733.731	2533.34
733.917	2686.94
734.103	2529.24
734.289	2598.87
734.475	2496.47
734.661	2684.89
734.847	2580.44
735.033	2691.03
735.219	2637.78
735.404	2617.3
735.59	2555.86
735.776	2607.06
735.962	2623.45
736.148	2688.98
736.333	2639.83
736.519	2598.87
736.705	2678.74
736.89	2443.23
737.076	2568.15
737.262	2578.39
737.447	2502.62
737.633	2557.91
737.819	2527.19
738.004	2564.06
738.19	2508.76
738.375	2693.08
738.561	2625.5
738.747	2553.82
738.932	2484.19
739.118	2570.2
739.303	2566.1
739.489	2516.95
739.674	2535.39
739.859	2506.71
740.045	2461.66
740.23	2508.76
740.416	2549.72
740.601	2428.89
740.786	2367.45
740.972	2412.51
741.157	2336.73
741.342	2453.47
741.528	2379.74
741.713	2484.19
741.898	2367.45
742.084	2217.95
742.269	2408.41
742.454	2267.1
742.639	2361.31
742.824	2271.2
743.01	2377.69
743.195	2289.63
743.38	2283.49
743.565	2238.43
743.75	2289.63
743.935	2250.72
744.12	2295.77
744.305	2336.73
744.49	2226.14
744.675	2287.58
744.86	2258.91
745.045	2209.76
745.23	2312.16
745.415	2306.01
745.6	2228.19
745.785	2209.76
745.97	2146.27
746.155	2054.11
746.34	2129.89
746.525	2117.6
746.71	2138.08
746.895	2131.94
747.079	2095.07
747.264	2160.61
747.449	2035.68
747.634	2064.35
747.819	2136.03
748.003	1994.72
748.188	1968.1
748.373	1988.58
748.557	2062.3
748.742	1990.63
748.927	1947.62
749.111	2029.54
749.296	1990.63
749.481	2011.11
749.665	1875.94
749.85	1834.98
750.034	2039.78
750.219	1970.15
750.404	1869.8
750.588	1769.44
750.773	1781.73
750.957	1931.23
751.141	1832.93
751.326	1708.01
751.51	1808.36
751.695	1839.08
751.879	1818.6
752.064	1769.44
752.248	1800.16
752.432	1855.46
752.617	1712.1
752.801	1742.82
752.985	1650.66
753.17	1712.1
753.354	1728.49
753.538	1783.78
753.722	1683.43
753.907	1642.47
754.091	1667.05
754.275	1492.97
754.459	1556.46
754.643	1523.69
754.828	1593.32
755.012	1611.75
755.196	1505.26
755.38	1527.78
755.564	1484.78
755.748	1517.54
755.932	1527.78
756.116	1468.39
756.3	1560.55
756.484	1531.88
756.668	1527.78
756.852	1447.91
757.036	1439.72
757.22	1386.47
757.404	1382.38
757.588	1384.43
757.772	1376.23
757.956	1423.34
758.14	1413.1
758.323	1308.65
758.507	1357.8
758.691	1357.8
758.875	1212.4
759.059	1284.08
759.242	1349.61
759.426	1271.79
759.61	1259.5
759.794	1316.84
759.977	1247.21
760.161	1329.13
760.345	1370.09
760.528	1255.4
760.712	1267.69
760.895	1253.36
761.079	1308.65
761.263	1265.64
761.446	1210.35
761.63	1218.54
761.813	1236.97
761.997	1228.78
762.18	1171.44
762.364	1243.12
762.547	1153.01
762.731	1167.34
762.914	1224.69
763.098	1112.05
763.281	1140.72
763.464	1103.86
763.648	1134.57
763.831	976.88
764.015	1064.94
764.198	1099.76
764.381	1126.38
764.564	1157.1
764.748	1097.71
764.931	1140.72
765.114	993.26
765.297	1048.56
765.481	1069.04
765.664	1069.04
765.847	1093.62
766.03	1075.18
766.213	1095.66
766.397	1089.52
766.58	1071.09
766.763	1054.7
766.946	1015.79
767.129	1052.66
767.312	985.07
767.495	1130.48
767.678	962.55
767.861	1009.65
768.044	1005.55
768.227	1091.57
768.41	1026.03
768.593	1064.94
768.776	970.74
768.959	929.78
769.142	1013.74
769.324	946.16
769.507	1069.04
769.69	931.83
769.873	1042.42
770.056	907.25
770.239	935.92
770.421	956.4
770.604	915.44
770.787	972.79
770.97	946.16
771.152	913.39
771.335	915.44
771.518	872.43
771.7	974.83
771.883	899.06
772.066	819.19
772.248	954.35
772.431	909.3
772.613	929.78
772.796	858.1
772.978	882.67
773.161	909.3
773.343	903.15
773.526	780.28
773.708	841.72
773.891	790.52
774.073	841.72
774.256	819.19
774.438	833.52
774.621	815.09
774.803	780.28
774.985	811
775.168	743.41
775.35	755.7
775.532	823.28
775.715	825.33
775.897	694.26
776.079	802.8
776.261	759.8
776.444	790.52
776.626	770.04
776.808	686.07
776.99	739.32
777.173	716.79
777.355	821.24
777.537	737.27
777.719	684.02
777.901	776.18
778.083	626.68
778.265	751.6
778.447	700.41
778.629	739.32
778.811	700.41
778.993	706.55
779.175	643.06
779.357	616.44
779.539	690.17
779.721	669.69
779.903	704.5
780.085	647.16
780.267	626.68
780.449	598.01
780.631	684.02
780.812	679.93
780.994	638.97
781.176	565.24
781.358	575.48
781.54	610.29
781.721	542.71
781.903	595.96
782.085	587.77
782.267	552.95
782.448	686.07
782.63	563.19
782.812	579.58
782.993	581.62
783.175	573.43
783.357	505.85
783.538	604.15
783.72	548.86
783.901	518.14
784.083	575.48
784.264	536.57
784.446	544.76
784.627	575.48
784.809	434.17
784.99	473.08
785.172	507.9
785.353	518.14
785.535	471.03
785.716	483.32
785.897	503.8
786.079	526.33
786.26	477.18
786.441	516.09
786.623	440.31
786.804	450.55
786.985	505.85
787.167	458.75
787.348	438.27
787.529	466.94
787.71	438.27
787.891	495.61
788.073	434.17
788.254	440.31
788.435	385.02
788.616	413.69
788.797	460.79
788.978	438.27
789.159	399.35
789.34	493.56
789.522	391.16
789.703	436.22
789.884	366.59
790.065	405.5
790.246	380.92
790.427	434.17
790.607	409.59
790.788	380.92
790.969	342.01
791.15	335.87
791.331	342.01
791.512	370.68
791.693	356.35
791.874	372.73
792.054	329.72
792.235	376.83
792.416	376.83
792.597	362.49
792.778	362.49
792.958	397.31
793.139	380.92
793.32	325.63
793.5	309.24
793.681	356.35
793.862	319.48
794.042	378.87
794.223	321.53
794.404	337.91
794.584	294.91
794.765	303.1
794.945	323.58
795.126	397.31
795.306	299
795.487	294.91
795.667	313.34
795.848	233.47
796.028	282.62
796.209	270.33
796.389	370.68
796.57	329.72
796.75	235.52
796.93	313.34
797.111	276.48
797.291	239.61
797.471	284.67
797.652	337.91
797.832	155.65
798.012	249.85
798.192	262.14
798.373	229.37
798.553	243.71
798.733	229.37
798.913	239.61
799.093	233.47
799.274	229.37
799.454	251.9
799.634	315.39
799.814	313.34
799.994	256
800.174	227.32
800.354	278.52
800.534	227.32
800.714	210.94
800.894	264.19
801.074	321.53
801.254	282.62
801.434	272.38
801.614	239.61
801.794	268.28
801.974	665.59
802.154	301.05
802.334	284.67
802.514	145.41
802.693	290.81
802.873	192.51
803.053	217.08
803.233	303.1
803.413	235.52
803.592	182.27
803.772	215.04
803.952	186.37
804.131	190.46
804.311	190.46
804.491	200.7
804.67	329.72
804.85	262.14
805.03	190.46
805.209	301.05
805.389	192.51
805.568	151.55
805.748	212.99
805.928	172.03
806.107	266.24
806.287	208.89
806.466	278.52
806.646	243.71
806.825	147.45
807.004	174.08
807.184	151.55
807.363	122.88
807.543	208.89
807.722	135.17
807.901	155.65
808.081	161.79
808.26	110.59
808.439	178.17
808.619	210.94
808.798	161.79
808.977	157.69
809.156	157.69
809.336	155.65
809.515	180.22
809.694	182.27
809.873	172.03
810.052	163.84
810.231	223.23
810.411	172.03
810.59	112.64
810.769	151.55
810.948	165.89
811.127	69.63
811.306	186.37
811.485	151.55
811.664	157.69
811.843	163.84
812.022	135.17
812.201	122.88
812.38	155.65
812.559	83.97
812.737	131.07
812.916	194.56
813.095	143.36
813.274	194.56
813.453	163.84
813.632	100.35
813.811	165.89
813.989	63.49
814.168	206.84
814.347	176.13
814.526	198.65
814.704	88.06
814.883	90.11
815.062	100.35
815.24	155.65
815.419	129.02
815.598	192.51
815.776	139.26
815.955	96.25
816.133	184.32
816.312	108.54
816.49	118.78
816.669	161.79
816.847	79.87
817.026	143.36
817.204	83.97
817.383	92.16
817.561	57.34
817.74	196.61
817.918	194.56
818.097	114.69
818.275	151.55
818.453	120.83
818.632	114.69
818.81	16.38
818.988	59.39
819.167	161.79
819.345	165.89
819.523	149.5
819.701	153.6
819.879	102.4
820.058	73.73
820.236	65.54
820.414	28.67
820.592	104.45
820.77	96.25
820.948	67.58
821.127	86.01
821.305	92.16
821.483	94.21
821.661	149.5
821.839	100.35
822.017	79.87
822.195	110.59
822.373	106.49
822.551	90.11
822.729	96.25
822.907	135.17
823.085	118.78
823.262	129.02
823.44	104.45
823.618	81.92
823.796	131.07
823.974	94.21
824.152	124.93
824.329	120.83
824.507	206.84
824.685	43.01
824.863	100.35
825.04	110.59
825.218	145.41
825.396	73.73
825.574	49.15
825.751	49.15
825.929	36.86
826.107	-10.24
826.284	124.93
826.462	43.01
826.639	106.49
826.817	71.68
826.994	6.14
827.172	59.39
827.349	172.03
827.527	49.15
827.704	73.73
827.882	2.05
828.059	26.62
828.237	22.53
828.414	94.21
828.591	45.06
828.769	43.01
828.946	73.73
829.124	40.96
829.301	126.97
829.478	49.15
829.655	141.31
829.833	102.4
830.01	55.3
830.187	96.25
830.364	26.62
830.542	131.07
830.719	57.34
830.896	83.97
831.073	10.24
831.25	131.07
831.427	65.54
831.604	20.48
831.782	22.53
831.959	61.44
832.136	137.21
832.313	32.77
832.49	102.4
832.667	75.77
832.844	-12.29
833.021	51.2
833.198	24.58
833.374	63.49
833.551	26.62
833.728	61.44
833.905	81.92
834.082	32.77
834.259	-4.1
834.436	34.82
834.612	6.14
834.789	75.77
834.966	69.63
835.143	77.82
835.319	47.1
835.496	6.14
835.673	77.82
835.85	94.21
836.026	106.49
836.203	81.92
836.38	14.34
836.556	45.06
836.733	18.43
836.909	28.67
837.086	30.72
837.262	-28.67
837.439	65.54
837.616	28.67
837.792	59.39
837.968	63.49
838.145	-43.01
838.321	86.01
838.498	73.73
838.674	63.49
838.851	59.39
839.027	69.63
839.203	26.62
839.38	61.44
839.556	30.72
839.732	30.72
839.909	61.44
840.085	43.01
840.261	36.86
840.437	34.82
840.614	2.05
840.79	65.54
840.966	108.54
841.142	51.2
841.318	38.91
841.494	90.11
841.671	24.58
841.847	59.39
842.023	2.05
842.199	69.63
842.375	108.54
842.551	55.3
842.727	36.86
842.903	104.45
843.079	-28.67
843.255	57.34
843.431	40.96
843.607	49.15
843.783	-2.05
843.959	43.01
844.134	49.15
844.31	57.34
844.486	-8.19
844.662	55.3
844.838	8.19
845.013	67.58
845.189	-4.1
845.365	-28.67
845.541	26.62
845.716	4.1
845.892	61.44
846.068	43.01
846.244	34.82
846.419	129.02
846.595	14.34
846.77	36.86
846.946	28.67
847.122	75.77
847.297	-34.82
847.473	22.53
847.648	8.19
847.824	47.1
847.999	-18.43
848.175	26.62
848.35	16.38
848.526	92.16
848.701	24.58
848.876	65.54
849.052	38.91
849.227	-22.53
849.403	-14.34
849.578	8.19
849.753	-63.49
849.929	-30.72
850.104	-22.53
850.279	32.77
850.454	34.82
850.63	14.34
850.805	79.87
850.98	12.29
851.155	14.34
851.33	-8.19
851.505	14.34
851.681	-2.05
851.856	0
852.031	81.92
852.206	36.86
852.381	22.53
852.556	-96.25
852.731	32.77
852.906	53.25
853.081	-32.77
853.256	-90.11
853.431	-26.62
853.606	-45.06
853.781	2.05
853.956	-18.43
854.131	6.14
854.305	12.29
854.48	63.49
854.655	10.24
854.83	-28.67
855.005	-18.43
855.18	-30.72
855.354	-55.3
855.529	-32.77
855.704	53.25
855.879	32.77
856.053	4.1
856.228	6.14
856.403	8.19
856.577	-81.92
856.752	-2.05
856.926	-6.14
857.101	53.25
857.276	-14.34
857.45	69.63
857.625	-28.67
857.799	14.34
857.974	59.39
858.148	-22.53
858.323	55.3
858.497	-2.05
858.672	-26.62
858.846	-2.05
859.02	22.53
859.195	-2.05
859.369	34.82
859.543	14.34
859.718	-4.1
859.892	-22.53
860.066	30.72
860.241	18.43
860.415	-4.1
860.589	-51.2
860.763	-12.29
860.938	26.62
861.112	67.58
861.286	-12.29
861.46	4.1
861.634	-69.63
861.808	-59.39
861.982	-55.3
862.157	-2.05
862.331	45.06
862.505	32.77
862.679	-24.58
862.853	-38.91
863.027	-55.3
863.201	2.05
863.375	14.34
863.549	-10.24
863.722	69.63
863.896	-4.1
864.07	-73.73
864.244	2.05
864.418	40.96
864.592	-2.05
864.766	-83.97
864.939	86.01
865.113	-6.14
865.287	10.24
865.461	-4.1
865.634	-8.19
865.808	-8.19
865.982	-2.05
866.156	-2.05
866.329	2.05
866.503	51.2
866.676	8.19
866.85	38.91
867.024	12.29
867.197	22.53
867.371	53.25
867.544	2.05
867.718	-57.34
867.891	-16.38
868.065	-38.91
868.238	8.19
868.412	38.91
868.585	-24.58
868.759	-18.43
868.932	22.53
869.105	-67.58
869.279	-75.77
869.452	-47.1
869.625	-32.77
869.799	-20.48
869.972	-2.05
870.145	65.54
870.319	-24.58
870.492	-57.34
870.665	-59.39
870.838	8.19
871.011	-6.14
871.185	-12.29
871.358	38.91
871.531	14.34
871.704	-116.73
871.877	2.05
872.05	40.96
872.223	12.29
872.396	28.67
872.569	16.38
872.742	-26.62
872.915	-36.86
873.088	-36.86
873.261	-126.97
873.434	32.77
873.607	86.01
873.78	57.34
873.953	14.34
874.126	-88.06
874.299	-36.86
874.471	-94.21
874.644	14.34
874.817	-18.43
874.99	16.38
875.163	0
875.335	-22.53
875.508	-43.01
875.681	-12.29
875.853	-14.34
876.026	-24.58
876.199	-34.82
876.371	14.34
876.544	-45.06
876.717	10.24
876.889	-22.53
877.062	-53.25
877.234	8.19
877.407	6.14
877.579	2.05
877.752	-12.29
877.924	-38.91
878.097	4.1
878.269	0
878.442	-12.29
878.614	-61.44
878.786	49.15
878.959	-22.53
879.131	43.01
879.303	-57.34
879.476	-36.86
879.648	-43.01
879.82	-14.34
879.993	-22.53
880.165	-22.53
880.337	-12.29
880.509	-2.05
880.681	24.58
880.854	-20.48
881.026	6.14
881.198	26.62
881.37	30.72
881.542	32.77
881.714	26.62
881.886	-43.01
882.058	-38.91
882.23	20.48
882.402	-30.72
882.574	-65.53
882.746	-16.38
882.918	0
883.09	24.58
883.262	-8.19
883.434	8.19
883.606	-102.4
883.778	-79.87
883.95	2.05
884.122	-10.24
884.293	20.48
884.465	20.48
884.637	8.19
884.809	-71.68
884.98	59.39
885.152	-69.63
885.324	-12.29
885.496	-16.38
885.667	-49.15
885.839	-14.34
886.011	10.24
886.182	-4.1
886.354	-6.14
886.525	-49.15
886.697	28.67
886.869	-55.3
887.04	-30.72
887.212	-14.34
887.383	-26.62
887.555	-63.49
887.726	-14.34
887.897	-32.77
888.069	102.4
888.24	16.38
888.412	20.48
888.583	-59.39
888.754	-53.25
888.926	18.43
889.097	16.38
889.268	2.05
889.44	-28.67
889.611	-22.53
889.782	-38.91
889.953	-2.05
890.125	-22.53
890.296	112.64
890.467	-28.67
890.638	-26.62
890.809	22.53
890.98	14.34
891.151	-45.06
891.323	-45.06
891.494	-51.2
891.665	-4.1
891.836	-47.1
892.007	12.29
892.178	20.48
892.349	-59.39
892.52	-43.01
892.691	16.38
892.862	26.62
893.032	-22.53
893.203	49.15
893.374	-30.72
893.545	0
893.716	4.1
893.887	4.1
894.057	-30.72
894.228	-12.29
894.399	-18.43
894.57	-38.91
894.74	-32.77
894.911	-2.05
895.082	-45.06
895.253	26.62
895.423	34.82
895.594	18.43
895.764	-55.3
895.935	26.62
896.106	47.1
896.276	-67.58
896.447	-30.72
896.617	-43.01
896.788	-83.97
896.958	63.49
897.129	-47.1
897.299	10.24
897.47	-94.21
897.64	6.14
897.81	45.06
897.981	-4.1
898.151	-22.53
898.322	-106.49
898.492	-53.25
898.662	49.15
898.832	49.15
899.003	18.43
899.173	-28.67
899.343	-24.58
899.513	43.01
