Data from USB4F104151__95__11-53-01-147.txt Node

Date: Fri Mar 14 11:53:01 EDT 2025
User: louis
Spectrometer: USB4F10415
Trigger mode: 4
Integration Time (sec): 2.000000E-2
Scans to average: 1
Electric dark correction enabled: true
Nonlinearity correction enabled: false
Boxcar width: 0
XAxis mode: Wavelengths
Number of Pixels in Spectrum: 3648
>>>>>Begin Spectral Data<<<<<
178.204	-43.35
178.424	-43.35
178.644	-43.35
178.864	-106.84
179.084	-69.97
179.304	9.9
179.524	34.47
179.744	-18.77
179.964	38.57
180.184	9.9
180.404	24.23
180.624	22.19
180.844	-98.64
181.064	3.75
181.283	-6.49
181.503	24.23
181.723	-43.35
181.943	-26.96
182.163	16.04
182.383	18.09
182.602	40.62
182.822	57
183.042	38.57
183.262	13.99
183.482	5.8
183.701	26.28
183.921	32.43
184.141	1.71
184.361	81.58
184.58	-22.87
184.8	-18.77
185.02	-24.92
185.239	61.1
185.459	3.75
185.679	48.81
185.898	28.33
186.118	30.38
186.338	-37.2
186.557	24.23
186.777	-29.01
186.997	-12.63
187.216	-22.87
187.436	11.95
187.655	-37.2
187.875	65.19
188.095	-33.11
188.314	16.04
188.534	-10.58
188.753	24.23
188.973	18.09
189.192	67.24
189.412	-4.44
189.631	-2.39
189.851	28.33
190.07	63.15
190.29	-43.35
190.509	16.04
190.729	-49.49
190.948	61.1
191.168	151.21
191.387	-2.39
191.607	-18.77
191.826	59.05
192.045	-2.39
192.265	22.19
192.484	-24.92
192.704	16.04
192.923	-37.2
193.142	57
193.362	-45.4
193.581	63.15
193.8	52.91
194.02	36.52
194.239	-47.44
194.458	83.63
194.678	-41.3
194.897	44.71
195.116	69.29
195.335	-14.68
195.555	54.95
195.774	54.95
195.993	57
196.212	-4.44
196.432	20.14
196.651	42.67
196.87	9.9
197.089	13.99
197.308	18.09
197.528	-10.58
197.747	34.47
197.966	3.75
198.185	73.39
198.404	-10.58
198.623	36.52
198.842	61.1
199.062	-31.06
199.281	-31.06
199.5	67.24
199.719	-18.77
199.938	36.52
200.157	11.95
200.376	50.86
200.595	59.05
200.814	-53.59
201.033	65.19
201.252	42.67
201.471	-37.2
201.69	87.72
201.909	42.67
202.128	20.14
202.347	69.29
202.566	28.33
202.785	46.76
203.004	1.71
203.223	48.81
203.442	-22.87
203.661	20.14
203.879	-35.16
204.098	5.8
204.317	-16.73
204.536	32.43
204.755	-0.34
204.974	-6.49
205.193	-2.39
205.411	65.19
205.63	34.47
205.849	63.15
206.068	-31.06
206.287	1.71
206.505	16.04
206.724	22.19
206.943	26.28
207.162	-6.49
207.381	-2.39
207.599	-49.49
207.818	40.62
208.037	-78.16
208.255	28.33
208.474	11.95
208.693	5.8
208.911	44.71
209.13	67.24
209.349	13.99
209.567	24.23
209.786	81.58
210.005	-18.77
210.223	3.75
210.442	20.14
210.661	22.19
210.879	-53.59
211.098	61.1
211.316	-4.44
211.535	73.39
211.753	50.86
211.972	57
212.191	-12.63
212.409	1.71
212.628	-22.87
212.846	-33.11
213.065	-26.96
213.283	52.91
213.502	32.43
213.72	5.8
213.938	26.28
214.157	9.9
214.375	16.04
214.594	26.28
214.812	46.76
215.031	61.1
215.249	13.99
215.467	-31.06
215.686	34.47
215.904	46.76
216.122	-37.2
216.341	143.02
216.559	24.23
216.778	-8.53
216.996	22.19
217.214	-14.68
217.432	63.15
217.651	67.24
217.869	85.67
218.087	3.75
218.306	-20.82
218.524	67.24
218.742	-16.73
218.96	85.67
219.179	-37.2
219.397	69.29
219.615	30.38
219.833	-35.16
220.051	59.05
220.27	52.91
220.488	32.43
220.706	75.43
220.924	42.67
221.142	-86.36
221.36	-10.58
221.578	-29.01
221.796	-29.01
222.015	22.19
222.233	7.85
222.451	71.34
222.669	7.85
222.887	61.1
223.105	-65.88
223.323	59.05
223.541	3.75
223.759	-24.92
223.977	5.8
224.195	-8.53
224.413	46.76
224.631	73.39
224.849	61.1
225.067	69.29
225.285	-33.11
225.503	-16.73
225.721	-22.87
225.939	36.52
226.157	34.47
226.375	36.52
226.592	5.8
226.81	40.62
227.028	18.09
227.246	9.9
227.464	-53.59
227.682	18.09
227.9	42.67
228.117	-2.39
228.335	3.75
228.553	65.19
228.771	44.71
228.989	28.33
229.206	32.43
229.424	22.19
229.642	-6.49
229.86	11.95
230.077	20.14
230.295	-20.82
230.513	-2.39
230.731	61.1
230.948	38.57
231.166	24.23
231.384	67.24
231.601	18.09
231.819	28.33
232.037	-63.83
232.254	24.23
232.472	5.8
232.689	-24.92
232.907	38.57
233.125	-6.49
233.342	34.47
233.56	16.04
233.777	13.99
233.995	16.04
234.213	32.43
234.43	-2.39
234.648	-31.06
234.865	-45.4
235.083	22.19
235.3	52.91
235.518	5.8
235.735	85.67
235.953	36.52
236.17	-4.44
236.388	-10.58
236.605	61.1
236.822	52.91
237.04	7.85
237.257	18.09
237.475	-18.77
237.692	-18.77
237.909	-78.16
238.127	-26.96
238.344	40.62
238.562	110.25
238.779	52.91
238.996	71.34
239.214	-41.3
239.431	59.05
239.648	52.91
239.865	-29.01
240.083	13.99
240.3	-2.39
240.517	11.95
240.735	54.95
240.952	71.34
241.169	97.96
241.386	-26.96
241.603	-55.64
241.821	-47.44
242.038	40.62
242.255	71.34
242.472	20.14
242.689	28.33
242.907	-8.53
243.124	83.63
243.341	18.09
243.558	-67.92
243.775	-20.82
243.992	1.71
244.209	108.2
244.426	7.85
244.643	-22.87
244.86	32.43
245.078	13.99
245.295	-12.63
245.512	18.09
245.729	-33.11
245.946	32.43
246.163	-4.44
246.38	40.62
246.597	24.23
246.814	71.34
247.031	-53.59
247.248	-2.39
247.464	-12.63
247.681	-4.44
247.898	73.39
248.115	32.43
248.332	-49.49
248.549	65.19
248.766	5.8
248.983	38.57
249.2	73.39
249.417	9.9
249.633	38.57
249.85	77.48
250.067	-18.77
250.284	61.1
250.501	83.63
250.717	20.14
250.934	106.15
251.151	40.62
251.368	81.58
251.585	-24.92
251.801	28.33
252.018	-6.49
252.235	-4.44
252.451	20.14
252.668	-8.53
252.885	46.76
253.102	87.72
253.318	36.52
253.535	38.57
253.752	-16.73
253.968	1.71
254.185	18.09
254.401	22.19
254.618	-22.87
254.835	-0.34
255.051	20.14
255.268	36.52
255.484	-6.49
255.701	100.01
255.917	11.95
256.134	-10.58
256.351	87.72
256.567	38.57
256.784	61.1
257	-31.06
257.217	20.14
257.433	32.43
257.65	97.96
257.866	104.11
258.082	-26.96
258.299	-16.73
258.515	3.75
258.732	-65.88
258.948	36.52
259.165	-24.92
259.381	-69.97
259.597	52.91
259.814	7.85
260.03	79.53
260.246	32.43
260.463	42.67
260.679	130.73
260.895	32.43
261.112	32.43
261.328	13.99
261.544	16.04
261.761	91.82
261.977	30.38
262.193	24.23
262.409	-20.82
262.626	32.43
262.842	77.48
263.058	69.29
263.274	30.38
263.49	73.39
263.707	44.71
263.923	18.09
264.139	-49.49
264.355	61.1
264.571	38.57
264.787	34.47
265.004	1.71
265.22	-0.34
265.436	61.1
265.652	-4.44
265.868	71.34
266.084	46.76
266.3	13.99
266.516	-22.87
266.732	5.8
266.948	9.9
267.164	-61.78
267.38	151.21
267.596	-6.49
267.812	-24.92
268.028	5.8
268.244	20.14
268.46	67.24
268.676	40.62
268.892	71.34
269.108	20.14
269.324	46.76
269.54	7.85
269.756	28.33
269.972	7.85
270.188	63.15
270.403	-12.63
270.619	102.06
270.835	28.33
271.051	34.47
271.267	73.39
271.483	20.14
271.698	34.47
271.914	42.67
272.13	46.76
272.346	-2.39
272.562	59.05
272.777	-18.77
272.993	38.57
273.209	-49.49
273.425	-4.44
273.64	18.09
273.856	11.95
274.072	7.85
274.287	-41.3
274.503	63.15
274.719	-4.44
274.934	28.33
275.15	-20.82
275.366	46.76
275.581	22.19
275.797	-24.92
276.012	26.28
276.228	112.3
276.444	36.52
276.659	-4.44
276.875	-8.53
277.09	5.8
277.306	16.04
277.521	48.81
277.737	13.99
277.952	73.39
278.168	26.28
278.383	32.43
278.599	18.09
278.814	61.1
279.03	18.09
279.245	30.38
279.461	-12.63
279.676	-0.34
279.892	36.52
280.107	32.43
280.322	20.14
280.538	57
280.753	40.62
280.969	42.67
281.184	59.05
281.399	9.9
281.615	48.81
281.83	81.58
282.045	-33.11
282.26	36.52
282.476	5.8
282.691	44.71
282.906	30.38
283.122	34.47
283.337	38.57
283.552	3.75
283.767	-14.68
283.983	65.19
284.198	32.43
284.413	54.95
284.628	-0.34
284.843	11.95
285.058	65.19
285.274	5.8
285.489	-31.06
285.704	54.95
285.919	102.06
286.134	42.67
286.349	3.75
286.564	-6.49
286.779	-0.34
286.995	-12.63
287.21	-4.44
287.425	13.99
287.64	77.48
287.855	7.85
288.07	9.9
288.285	46.76
288.5	1.71
288.715	38.57
288.93	-43.35
289.145	-8.53
289.36	67.24
289.575	75.43
289.79	75.43
290.004	16.04
290.219	3.75
290.434	26.28
290.649	1.71
290.864	13.99
291.079	44.71
291.294	-0.34
291.509	75.43
291.724	9.9
291.938	48.81
292.153	-18.77
292.368	-41.3
292.583	-41.3
292.798	57
293.012	75.43
293.227	13.99
293.442	-6.49
293.657	59.05
293.871	-10.58
294.086	-4.44
294.301	73.39
294.516	26.28
294.73	18.09
294.945	-31.06
295.16	36.52
295.374	71.34
295.589	24.23
295.804	-57.68
296.018	16.04
296.233	97.96
296.447	130.73
296.662	102.06
296.877	18.09
297.091	67.24
297.306	30.38
297.52	-10.58
297.735	26.28
297.949	20.14
298.164	20.14
298.378	11.95
298.593	16.04
298.807	30.38
299.022	-39.25
299.236	57
299.451	3.75
299.665	46.76
299.88	46.76
300.094	30.38
300.309	20.14
300.523	61.1
300.737	-59.73
300.952	-49.49
301.166	52.91
301.381	77.48
301.595	26.28
301.809	-4.44
302.024	71.34
302.238	28.33
302.452	77.48
302.667	65.19
302.881	1.71
303.095	-22.87
303.309	-31.06
303.524	-61.78
303.738	-14.68
303.952	-4.44
304.166	83.63
304.381	36.52
304.595	77.48
304.809	-4.44
305.023	42.67
305.237	-57.68
305.452	-6.49
305.666	-18.77
305.88	3.75
306.094	110.25
306.308	28.33
306.522	87.72
306.736	69.29
306.95	54.95
307.164	-0.34
307.379	34.47
307.593	54.95
307.807	69.29
308.021	32.43
308.235	38.57
308.449	18.09
308.663	13.99
308.877	57
309.091	104.11
309.305	126.63
309.519	75.43
309.733	-20.82
309.947	-16.73
310.161	65.19
310.374	79.53
310.588	32.43
310.802	61.1
311.016	22.19
311.23	9.9
311.444	11.95
311.658	24.23
311.872	44.71
312.085	28.33
312.299	-24.92
312.513	95.91
312.727	48.81
312.941	-8.53
313.154	18.09
313.368	16.04
313.582	50.86
313.796	38.57
314.009	-20.82
314.223	-20.82
314.437	69.29
314.651	57
314.864	11.95
315.078	-24.92
315.292	20.14
315.505	32.43
315.719	28.33
315.933	42.67
316.146	13.99
316.36	-14.68
316.573	9.9
316.787	61.1
317.001	-10.58
317.214	-10.58
317.428	-35.16
317.641	46.76
317.855	-20.82
318.068	16.04
318.282	5.8
318.495	3.75
318.709	65.19
318.922	7.85
319.136	71.34
319.349	73.39
319.563	-4.44
319.776	30.38
319.99	38.57
320.203	32.43
320.417	46.76
320.63	-10.58
320.843	-16.73
321.057	87.72
321.27	-45.4
321.483	-37.2
321.697	-6.49
321.91	-2.39
322.124	36.52
322.337	13.99
322.55	40.62
322.763	46.76
322.977	-10.58
323.19	36.52
323.403	26.28
323.617	63.15
323.83	40.62
324.043	-33.11
324.256	61.1
324.469	52.91
324.683	42.67
324.896	-4.44
325.109	-14.68
325.322	5.8
325.535	85.67
325.748	20.14
325.962	-31.06
326.175	85.67
326.388	69.29
326.601	167.59
326.814	-12.63
327.027	40.62
327.24	-24.92
327.453	26.28
327.666	-16.73
327.879	52.91
328.092	32.43
328.305	-8.53
328.518	34.47
328.731	40.62
328.944	42.67
329.157	-8.53
329.37	48.81
329.583	73.39
329.796	44.71
330.009	-37.2
330.222	-0.34
330.435	40.62
330.648	97.96
330.861	32.43
331.073	67.24
331.286	-18.77
331.499	22.19
331.712	-0.34
331.925	-31.06
332.138	16.04
332.35	46.76
332.563	18.09
332.776	52.91
332.989	24.23
333.202	61.1
333.414	7.85
333.627	48.81
333.84	65.19
334.053	42.67
334.265	73.39
334.478	-43.35
334.691	9.9
334.903	81.58
335.116	30.38
335.329	40.62
335.541	42.67
335.754	75.43
335.966	-10.58
336.179	11.95
336.392	3.75
336.604	-6.49
336.817	-6.49
337.029	28.33
337.242	34.47
337.454	95.91
337.667	-18.77
337.88	9.9
338.092	75.43
338.305	38.57
338.517	9.9
338.729	77.48
338.942	100.01
339.154	1.71
339.367	16.04
339.579	38.57
339.792	28.33
340.004	151.21
340.217	-26.96
340.429	30.38
340.641	24.23
340.854	22.19
341.066	95.91
341.278	36.52
341.491	120.49
341.703	-10.58
341.915	54.95
342.128	75.43
342.34	22.19
342.552	20.14
342.764	38.57
342.977	79.53
343.189	30.38
343.401	3.75
343.613	20.14
343.826	13.99
344.038	-72.02
344.25	32.43
344.462	63.15
344.674	-24.92
344.886	48.81
345.099	54.95
345.311	20.14
345.523	54.95
345.735	-2.39
345.947	32.43
346.159	61.1
346.371	-18.77
346.583	89.77
346.795	59.05
347.007	93.87
347.219	73.39
347.431	-35.16
347.643	75.43
347.855	-53.59
348.067	32.43
348.279	13.99
348.491	-104.79
348.703	-8.53
348.915	-4.44
349.127	-100.69
349.339	85.67
349.551	69.29
349.763	24.23
349.975	42.67
350.187	34.47
350.399	9.9
350.61	44.71
350.822	50.86
351.034	20.14
351.246	85.67
351.458	93.87
351.669	38.57
351.881	32.43
352.093	91.82
352.305	44.71
352.517	38.57
352.728	134.82
352.94	36.52
353.152	1.71
353.363	22.19
353.575	67.24
353.787	87.72
353.999	40.62
354.21	61.1
354.422	52.91
354.633	1.71
354.845	46.76
355.057	34.47
355.268	67.24
355.48	52.91
355.692	-24.92
355.903	40.62
356.115	-24.92
356.326	-0.34
356.538	50.86
356.749	36.52
356.961	61.1
357.172	100.01
357.384	46.76
357.595	65.19
357.807	16.04
358.018	18.09
358.23	130.73
358.441	63.15
358.653	28.33
358.864	20.14
359.075	-4.44
359.287	-37.2
359.498	61.1
359.709	89.77
359.921	112.3
360.132	50.86
360.344	50.86
360.555	-33.11
360.766	16.04
360.977	24.23
361.189	-29.01
361.4	28.33
361.611	73.39
361.823	-6.49
362.034	75.43
362.245	42.67
362.456	11.95
362.667	100.01
362.879	32.43
363.09	-8.53
363.301	20.14
363.512	-22.87
363.723	-24.92
363.935	1.71
364.146	3.75
364.357	13.99
364.568	13.99
364.779	85.67
364.99	32.43
365.201	22.19
365.412	61.1
365.623	77.48
365.834	85.67
366.045	34.47
366.256	59.05
366.467	24.23
366.678	16.04
366.889	7.85
367.1	38.57
367.311	3.75
367.522	16.04
367.733	-4.44
367.944	59.05
368.155	38.57
368.366	102.06
368.577	46.76
368.788	26.28
368.999	65.19
369.209	-14.68
369.42	81.58
369.631	104.11
369.842	-0.34
370.053	71.34
370.264	81.58
370.474	32.43
370.685	-10.58
370.896	50.86
371.107	124.58
371.317	59.05
371.528	95.91
371.739	63.15
371.95	28.33
372.16	3.75
372.371	50.86
372.582	71.34
372.792	-0.34
373.003	52.91
373.214	26.28
373.424	104.11
373.635	54.95
373.846	102.06
374.056	-31.06
374.267	61.1
374.477	-22.87
374.688	13.99
374.898	-6.49
375.109	85.67
375.319	69.29
375.53	79.53
375.74	18.09
375.951	40.62
376.161	61.1
376.372	5.8
376.582	28.33
376.793	63.15
377.003	-26.96
377.214	61.1
377.424	26.28
377.635	71.34
377.845	9.9
378.055	95.91
378.266	40.62
378.476	85.67
378.686	11.95
378.897	79.53
379.107	52.91
379.317	87.72
379.528	11.95
379.738	69.29
379.948	-43.35
380.158	93.87
380.369	54.95
380.579	26.28
380.789	26.28
380.999	93.87
381.21	40.62
381.42	73.39
381.63	32.43
381.84	87.72
382.05	-31.06
382.261	46.76
382.471	32.43
382.681	44.71
382.891	48.81
383.101	106.15
383.311	9.9
383.521	38.57
383.731	38.57
383.941	65.19
384.151	16.04
384.361	-16.73
384.571	44.71
384.781	40.62
384.991	81.58
385.201	26.28
385.411	71.34
385.621	18.09
385.831	16.04
386.041	71.34
386.251	44.71
386.461	83.63
386.671	24.23
386.881	91.82
387.091	77.48
387.301	108.2
387.511	-31.06
387.72	-0.34
387.93	118.44
388.14	7.85
388.35	20.14
388.56	-63.83
388.769	34.47
388.979	26.28
389.189	42.67
389.399	102.06
389.609	-8.53
389.818	28.33
390.028	77.48
390.238	40.62
390.447	24.23
390.657	69.29
390.867	75.43
391.076	13.99
391.286	-6.49
391.496	36.52
391.705	13.99
391.915	120.49
392.125	5.8
392.334	11.95
392.544	69.29
392.753	40.62
392.963	-37.2
393.172	73.39
393.382	-55.64
393.591	69.29
393.801	32.43
394.01	50.86
394.22	52.91
394.429	36.52
394.639	11.95
394.848	65.19
395.058	38.57
395.267	5.8
395.477	93.87
395.686	79.53
395.895	87.72
396.105	112.3
396.314	-6.49
396.524	50.86
396.733	13.99
396.942	73.39
397.152	106.15
397.361	87.72
397.57	44.71
397.78	130.73
397.989	67.24
398.198	89.77
398.407	67.24
398.617	28.33
398.826	112.3
399.035	50.86
399.244	73.39
399.453	32.43
399.663	83.63
399.872	81.58
400.081	104.11
400.29	65.19
400.499	71.34
400.708	38.57
400.917	50.86
401.127	18.09
401.336	69.29
401.545	132.78
401.754	73.39
401.963	124.58
402.172	110.25
402.381	87.72
402.59	114.34
402.799	63.15
403.008	75.43
403.217	112.3
403.426	46.76
403.635	57
403.844	116.39
404.053	77.48
404.262	89.77
404.471	151.21
404.68	128.68
404.888	75.43
405.097	106.15
405.306	132.78
405.515	83.63
405.724	104.11
405.933	134.82
406.142	192.17
406.35	61.1
406.559	130.73
406.768	229.03
406.977	155.3
407.185	85.67
407.394	126.63
407.603	132.78
407.812	143.02
408.02	186.02
408.229	28.33
408.438	130.73
408.646	104.11
408.855	173.74
409.064	231.08
409.272	196.26
409.481	153.26
409.69	157.35
409.898	104.11
410.107	202.41
410.315	229.03
410.524	265.89
410.733	163.5
410.941	212.65
411.15	196.26
411.358	239.27
411.567	224.94
411.775	253.61
411.984	243.37
412.192	261.8
412.401	304.81
412.609	380.58
412.818	300.71
413.026	345.77
413.234	347.81
413.443	300.71
413.651	411.3
413.86	310.95
414.068	460.45
414.276	401.06
414.485	411.3
414.693	460.45
414.901	470.69
415.11	497.32
415.318	442.02
415.526	501.41
415.734	558.75
415.943	581.28
416.151	616.1
416.359	544.42
416.567	607.91
416.776	595.62
416.984	679.58
417.192	730.78
417.4	714.4
417.608	609.95
417.817	720.54
418.025	777.89
418.233	808.61
418.441	861.85
418.649	851.61
418.857	898.72
419.065	894.62
419.273	898.72
419.481	999.07
419.689	1021.6
419.897	984.73
420.105	1070.75
420.313	1103.51
420.521	1146.52
420.729	1187.48
420.937	1214.1
421.145	1242.78
421.353	1306.26
421.561	1398.42
421.769	1308.31
421.977	1379.99
422.185	1363.61
422.393	1517.2
422.601	1543.83
422.809	1554.07
423.017	1586.83
423.224	1668.75
423.432	1754.77
423.64	1689.23
423.848	1912.46
424.056	1810.06
424.263	1863.31
424.471	1912.46
424.679	1908.37
424.887	2119.31
425.094	2193.03
425.302	2299.53
425.51	2188.94
425.718	2375.3
425.925	2383.49
426.133	2477.7
426.341	2610.82
426.548	2610.82
426.756	2666.11
426.964	2686.59
427.171	2922.11
427.379	2895.49
427.586	3032.7
427.794	3034.75
428.001	3180.15
428.209	3460.73
428.417	3292.79
428.624	3583.6
428.832	3542.64
429.039	3595.89
429.247	3538.55
429.454	3761.78
429.662	4175.47
429.869	3808.88
430.076	4038.25
430.284	3989.1
430.491	4202.09
430.699	4419.18
430.906	4402.79
431.114	4499.05
431.321	4556.39
431.528	4865.63
431.736	5107.29
431.943	5158.49
432.15	5049.95
432.358	5305.95
432.565	5537.37
432.772	5504.6
432.979	5627.48
433.187	5949.01
433.394	5772.88
433.601	6227.53
433.808	6172.24
434.016	6180.43
434.223	6413.9
434.43	7011.9
434.637	6645.32
434.844	7409.21
435.052	7315
435.259	7114.3
435.466	7374.39
435.673	7300.67
435.88	7720.5
436.087	8044.08
436.294	8334.89
436.501	8101.42
436.708	8132.14
436.915	8351.28
437.122	8771.11
437.329	8664.61
437.537	9059.87
437.743	9137.7
437.95	9070.11
438.157	9664.02
438.364	10053.14
438.571	9807.38
438.778	9754.13
438.985	11003.39
439.192	10587.66
439.399	10841.61
439.606	10513.93
439.813	11218.43
440.02	11693.56
440.227	11476.48
440.433	11345.41
440.64	11634.17
440.847	11789.81
441.054	11828.73
441.261	13030.88
441.467	12815.85
441.674	13272.54
441.881	13313.5
442.088	13530.59
442.294	13256.16
442.501	13682.14
442.708	14007.76
442.914	14583.24
443.121	15029.7
443.328	14530
443.534	15738.3
443.741	15293.89
443.948	15246.79
444.154	16225.72
444.361	16047.54
444.568	16223.67
444.774	16045.49
444.981	16571.82
445.187	16999.85
445.394	17786.27
445.6	17055.14
445.807	18779.53
446.013	18255.25
446.22	18560.4
446.426	19502.47
446.633	19488.13
446.839	20190.58
447.046	19262.85
447.252	20204.92
447.459	20426.1
447.665	20204.92
447.871	21206.38
448.078	22308.18
448.284	20841.84
448.491	21630.3
448.697	22627.67
448.903	22785.36
449.11	23180.62
449.316	22836.56
449.522	23313.73
449.728	23545.16
449.935	23696.71
450.141	24020.28
450.347	24565.04
450.553	23696.71
450.76	24077.63
450.966	24892.72
451.172	24319.29
451.378	25201.96
451.584	24630.58
451.791	25328.94
451.997	25457.96
452.203	25863.46
452.409	25623.84
452.615	25654.56
452.821	24513.84
453.027	24200.51
453.233	25582.88
453.44	24528.18
453.646	24868.14
453.852	25097.52
454.058	25384.23
454.264	24442.17
454.47	24972.59
454.676	24677.68
454.882	25591.08
455.088	23237.96
455.294	23661.89
455.5	24036.67
455.705	24331.58
455.911	23455.04
456.117	22981.96
456.323	22383.96
456.529	21470.56
456.735	22467.92
456.941	21742.94
457.147	21237.09
457.352	20706.67
457.558	20487.54
457.764	20086.14
457.97	20192.63
458.176	19574.14
458.381	19899.77
458.587	18591.12
458.793	18705.81
458.999	17841.56
459.204	19015.05
459.41	18664.85
459.616	17403.3
459.821	17309.09
460.027	17196.45
460.233	17096.1
460.438	16432.56
460.644	16416.18
460.85	15521.21
461.055	15275.46
461.261	15087.04
461.466	14204.37
461.672	13592.03
461.878	14816.71
462.083	13698.52
462.289	13417.95
462.494	13358.56
462.7	12428.78
462.905	12332.53
463.111	12742.12
463.316	12772.84
463.522	12525.04
463.727	12727.78
463.932	12400.11
464.138	12355.05
464.343	12361.2
464.549	12090.87
464.754	12396.01
464.959	12314.09
465.165	12355.05
465.37	11658.74
465.575	11421.18
465.781	11783.67
465.986	11888.12
466.191	11562.49
466.397	11318.78
466.602	10571.27
466.807	11136.51
467.012	11214.34
467.218	10901
467.423	10765.83
467.628	10788.36
467.833	11609.59
468.038	11185.66
468.244	10786.31
468.449	11359.74
468.654	10864.13
468.859	10819.08
469.064	10540.55
469.269	10249.74
469.474	10229.26
469.679	10612.23
469.885	10196.5
470.09	10337.8
470.295	10327.57
470.5	9819.67
470.705	10360.33
470.91	9854.48
471.115	9702.93
471.32	9817.62
471.525	9936.4
471.73	9649.69
471.935	9680.41
472.139	9289.24
472.344	9537.05
472.549	9315.87
472.754	9092.64
472.959	9006.63
473.164	8910.37
473.369	8857.12
473.574	8980
473.778	8869.41
473.983	8889.89
474.188	8619.56
474.393	8484.39
474.598	8492.59
474.802	8371.75
475.007	8439.34
475.212	8427.05
475.417	7933.49
475.621	8033.84
475.826	8076.85
476.031	7878.19
476.235	7874.1
476.44	7843.38
476.645	7601.72
476.849	7626.29
477.054	7689.78
477.259	7554.62
477.463	7800.37
477.668	7396.92
477.872	7415.35
478.077	7312.96
478.282	7276.09
478.486	7112.25
478.691	6788.68
478.895	6989.38
479.1	7005.76
479.304	6923.84
479.509	6809.15
479.713	6850.11
479.918	6796.87
480.122	6669.89
480.326	6645.32
480.531	6860.35
480.735	6616.65
480.94	6673.99
481.144	6813.25
481.348	6467.14
481.553	6690.37
481.757	6391.37
481.961	6549.06
482.166	6606.41
482.37	6440.52
482.574	6372.94
482.778	6501.96
482.983	6501.96
483.187	6477.38
483.391	6528.58
483.595	6385.23
483.8	6405.7
484.004	6612.55
484.208	6571.59
484.412	6602.31
484.616	6182.48
484.821	6374.99
485.025	6200.91
485.229	6465.1
485.433	6514.25
485.637	6280.78
485.841	6389.32
486.045	6272.59
486.249	6518.34
486.453	6307.4
486.657	6463.05
486.861	6409.8
487.065	6254.16
487.269	6532.68
487.473	6198.86
487.677	6458.95
487.881	6489.67
488.085	6536.77
488.289	6565.45
488.493	6475.34
488.697	6475.34
488.901	6413.9
489.105	6409.8
489.309	6549.06
489.512	6442.57
489.716	6530.63
489.92	6622.79
490.124	6594.12
490.328	6657.61
490.531	6485.58
490.735	6717
490.939	6620.74
491.143	6637.13
491.346	6475.34
491.55	6563.4
491.754	6698.56
491.958	6688.32
492.161	6686.28
492.365	6698.56
492.569	6784.58
492.772	6897.22
492.976	6870.59
493.18	6866.5
493.383	6993.47
493.587	7040.58
493.79	7016
493.994	6979.14
494.197	7099.97
494.401	7138.88
494.605	7145.02
494.808	7251.52
495.012	7181.89
495.215	7163.45
495.419	7239.23
495.622	7603.77
495.825	7509.56
496.029	7396.92
496.232	7558.71
496.436	7611.96
496.639	7917.11
496.843	7581.24
497.046	7859.76
497.249	7984.69
497.453	7949.87
497.656	8107.57
497.859	8062.51
498.063	8082.99
498.266	8238.64
498.469	8255.02
498.673	8500.78
498.876	8504.87
499.079	8730.15
499.282	8707.62
499.485	8949.28
499.689	8785.44
499.892	8865.32
500.095	8764.96
500.298	9313.82
500.501	9164.32
500.705	9414.17
500.908	9479.71
501.111	9543.19
501.314	9694.74
501.517	9731.61
501.72	9956.88
501.923	9950.74
502.126	10012.18
502.329	10389
502.532	10190.35
502.735	10280.46
502.938	10440.2
503.141	10448.4
503.344	10763.78
503.547	10753.54
503.75	10888.71
503.953	11101.7
504.156	11070.98
504.359	11277.82
504.562	11380.22
504.765	11537.91
504.968	11525.63
505.17	11828.73
505.373	11734.52
505.576	11990.52
505.779	12320.24
505.982	12127.73
506.185	12285.42
506.387	12375.53
506.59	12627.43
506.793	12781.03
506.996	12758.5
507.198	13032.93
507.401	13039.08
507.604	13233.63
507.807	13290.98
508.009	13524.44
508.212	13735.39
508.415	14013.91
508.617	14075.35
508.82	14306.77
509.022	14128.6
509.225	14296.53
509.428	14366.16
509.63	14749.13
509.833	14542.28
510.035	14923.21
510.238	14892.49
510.44	15242.69
510.643	15486.4
510.845	15578.56
511.048	15474.11
511.25	15463.87
511.453	15607.23
511.655	16450.99
511.858	16209.33
512.06	16104.88
512.262	16530.86
512.465	16530.86
512.667	16768.43
512.87	16704.94
513.072	17003.94
513.274	17235.36
513.477	17403.3
513.679	17642.91
513.881	17413.54
514.084	17823.13
514.286	17759.64
514.488	17984.92
514.69	18556.3
514.893	18423.19
515.095	18865.55
515.297	18808.2
515.499	18701.71
515.701	19508.61
515.904	19127.69
516.106	19447.17
516.308	19490.18
516.51	19672.45
516.712	19858.81
516.914	20233.59
517.116	20243.83
517.318	20514.16
517.52	20581.74
517.722	20882.8
517.925	20788.59
518.127	21040.49
518.329	21294.44
518.531	21245.29
518.733	21704.03
518.935	21656.93
519.136	21812.57
519.338	22121.82
519.54	21929.31
519.742	22650.19
519.944	22699.34
520.146	23209.29
520.348	23010.64
520.55	22895.95
520.752	23244.1
520.954	23647.55
521.155	23401.8
521.357	24038.72
521.559	23954.75
521.761	24444.21
521.963	24038.72
522.164	24470.84
522.366	24653.11
522.568	24913.2
522.77	24835.38
522.971	25345.32
523.173	25310.5
523.375	25460.01
523.576	25204.01
523.778	25294.12
523.98	25726.24
524.181	25965.85
524.383	26127.64
524.584	26254.62
524.786	26109.21
524.988	26174.75
525.189	26623.25
525.391	27008.27
525.592	26995.98
525.794	27141.39
525.995	26715.41
526.197	27163.92
526.398	27141.39
526.6	27309.32
526.801	27550.98
527.003	27995.39
527.204	27444.49
527.406	28302.59
527.607	27704.58
527.808	28083.45
528.01	27747.59
528.211	28034.3
528.412	28816.63
528.614	28341.5
528.815	28464.38
529.016	28640.5
529.218	28517.62
529.419	28423.42
529.62	28740.85
529.822	28906.74
530.023	28509.43
530.224	28855.54
530.425	29205.74
530.626	28654.84
530.828	29168.88
531.029	29338.86
531.23	28849.39
531.431	29154.54
531.632	29234.41
531.833	29383.91
532.035	29336.81
532.236	29551.85
532.437	29334.76
532.638	29095.15
532.839	29576.42
533.04	29895.91
533.241	29482.22
533.442	29752.55
533.643	29900
533.844	29349.1
534.045	29533.42
534.246	29566.18
534.447	29744.36
534.648	29617.38
534.849	29676.77
535.05	29551.85
535.251	29990.11
535.451	29871.33
535.652	29947.11
535.853	29840.61
536.054	29789.41
536.255	30287.07
536.456	29605.09
536.657	30231.77
536.857	30010.59
537.058	29613.29
537.259	29979.87
537.46	30473.43
537.66	29965.54
537.861	29975.78
538.062	30125.28
538.263	29881.57
538.463	29887.71
538.664	29902.05
538.865	30178.53
539.065	30274.78
539.266	29566.18
539.466	30285.02
539.667	29740.26
539.868	30215.39
540.068	29863.14
540.269	30119.14
540.469	30016.74
540.67	29777.12
540.87	30194.91
541.071	30051.55
541.271	30215.39
541.472	30035.17
541.672	29564.14
541.873	29701.35
542.073	29437.16
542.274	30080.22
542.474	29967.59
542.675	29844.71
542.875	30072.03
543.075	29809.89
543.276	29813.99
543.476	29627.62
543.676	29555.94
543.877	29865.19
544.077	29908.19
544.277	29816.04
544.478	29703.4
544.678	29914.34
544.878	29805.8
545.078	29533.42
545.279	29764.84
545.479	29738.21
545.679	30227.68
545.879	29758.69
546.079	29779.17
546.28	29813.99
546.48	29781.22
546.68	30098.66
546.88	29820.13
547.08	29988.07
547.28	29791.46
547.48	29377.77
547.68	29902.05
547.88	29570.28
548.081	29793.51
548.281	29697.25
548.481	29760.74
548.681	29906.15
548.881	29811.94
549.081	29713.64
549.28	29627.62
549.48	29824.23
549.68	29578.47
549.88	30020.83
550.08	29494.5
550.28	29996.26
550.48	29517.03
550.68	29906.15
550.88	29580.52
551.08	29611.24
551.279	29721.83
551.479	29299.95
551.679	29740.26
551.879	29342.95
552.079	29648.1
552.278	29506.79
552.478	29498.6
552.678	29689.06
552.878	29699.3
553.077	29486.31
553.277	29220.08
553.477	29588.71
553.676	29463.79
553.876	29410.54
554.076	28867.83
554.275	29258.99
554.475	29189.36
554.674	29504.74
554.874	29492.46
555.074	29338.86
555.273	29097.2
555.473	29347.05
555.672	29367.53
555.872	29025.52
556.071	29508.84
556.271	29236.46
556.47	29089.01
556.67	29146.35
556.869	29265.13
557.068	29332.72
557.268	28673.27
557.467	29046
557.667	28665.08
557.866	28906.74
558.065	28620.02
558.265	28742.9
558.464	28620.02
558.663	29072.62
558.863	28370.17
559.062	28984.56
559.261	28613.88
559.461	28873.97
559.66	28409.08
559.859	28865.78
560.058	28454.14
560.258	28280.06
560.457	28257.53
560.656	28503.29
560.855	28294.39
561.054	28378.36
561.253	27800.83
561.453	28099.84
561.652	28316.92
561.851	28464.38
562.05	28032.25
562.249	28202.24
562.448	28323.07
562.647	28044.54
562.846	27999.49
563.045	28142.85
563.244	27862.27
563.443	27989.25
563.642	27510.02
563.841	27901.18
564.04	27575.56
564.239	27796.74
564.438	27495.69
564.637	27344.14
564.836	27528.45
565.035	27190.54
565.234	27487.5
565.432	27120.91
565.631	27120.91
565.83	27286.79
566.029	27045.13
566.228	27141.39
566.427	26799.38
566.625	27041.04
566.824	26821.91
567.023	27065.61
567.222	26518.81
567.42	26789.14
567.619	26631.44
567.818	26768.66
568.016	26492.18
568.215	26582.29
568.414	26397.98
568.612	26621.2
568.811	26158.36
569.01	26451.22
569.208	25888.03
569.407	26686.74
569.605	26238.23
569.804	26055.97
570.002	25767.2
570.201	26158.36
570.4	25982.24
570.598	25748.77
570.797	25756.96
570.995	25623.84
571.193	25576.74
571.392	25689.38
571.59	25478.44
571.789	25232.68
571.987	25466.15
572.186	25373.99
572.384	24925.49
572.582	25144.62
572.781	25394.47
572.979	24923.44
573.177	24984.88
573.376	25132.33
573.574	24526.13
573.772	25040.17
573.971	24958.25
574.169	24540.47
574.367	24397.11
574.565	24724.79
574.763	24409.4
574.962	24319.29
575.16	24403.25
575.358	24329.53
575.556	23956.8
575.754	24036.67
575.952	24112.44
576.151	24229.18
576.349	23729.47
576.547	23901.5
576.745	23782.72
576.943	24319.29
577.141	23952.7
577.339	23991.61
577.537	23446.85
577.735	23774.53
577.933	23354.69
578.131	23532.87
578.329	23293.26
578.527	23240.01
578.725	23205.19
578.923	23604.55
579.121	23076.17
579.319	23096.65
579.516	23147.85
579.714	22967.63
579.912	22996.3
580.11	23082.31
580.308	23153.99
580.506	22973.77
580.704	22580.56
580.901	22904.14
581.099	22961.48
581.297	22580.56
581.495	22250.84
581.692	22523.22
581.89	22332.76
582.088	22611.28
582.285	22302.04
582.483	22476.12
582.681	22304.09
582.878	21984.6
583.076	22189.4
583.274	22140.25
583.471	21935.45
583.669	21949.79
583.866	21714.27
584.064	22084.95
584.262	21675.36
584.459	21507.43
584.657	21554.53
584.854	21577.06
585.052	21314.92
585.249	21292.39
585.447	21665.12
585.644	21224.81
585.841	21427.56
586.039	21151.08
586.236	21149.03
586.434	20911.47
586.631	20876.65
586.828	21120.36
587.026	21013.87
587.223	20931.95
587.42	20690.29
587.618	20682.1
587.815	20684.14
588.012	20663.66
588.21	20499.83
588.407	20749.68
588.604	20532.59
588.801	20422
588.999	20198.77
589.196	20440.43
589.393	20422
589.59	20270.45
589.787	20094.33
589.984	20002.17
590.182	20145.53
590.379	19867
590.576	19789.18
590.773	20047.22
590.97	19506.56
591.167	19744.13
591.364	19416.45
591.561	19811.71
591.758	19330.44
591.955	19283.33
592.152	19789.18
592.349	19043.72
592.546	19205.51
592.743	19236.23
592.94	19103.11
593.137	19328.39
593.334	19250.56
593.531	19076.49
593.727	19152.26
593.924	19137.93
594.121	18746.76
594.318	18767.24
594.515	18974.09
594.712	18955.66
594.908	18611.6
595.105	18707.85
595.302	18384.27
595.499	18486.67
595.696	18412.95
595.892	18595.21
596.089	18498.96
596.286	18509.2
596.482	17952.15
596.679	18161.05
596.876	18007.45
597.072	17968.54
597.269	17997.21
597.466	17847.71
597.662	17608.09
597.859	17898.91
598.055	17964.44
598.252	17690.01
598.448	17667.49
598.645	17442.21
598.841	17393.06
599.038	17378.72
599.234	17604
599.431	17587.61
599.627	17132.97
599.824	17825.18
600.02	17251.75
600.217	17294.75
600.413	17282.47
600.609	17159.59
600.806	17345.95
601.002	17055.14
601.198	17038.76
601.395	16922.02
601.591	16606.64
601.787	16909.74
601.984	16692.65
602.18	17147.3
602.376	16655.79
602.572	16872.87
602.769	16553.39
602.965	16315.83
603.161	16696.75
603.357	16356.79
603.553	16623.02
603.75	16418.22
603.946	16233.91
604.142	16487.86
604.338	16027.06
604.534	16084.41
604.73	15984.05
604.926	16192.95
605.122	16151.99
605.318	16012.73
605.514	15900.09
605.71	15855.03
605.906	15744.44
606.102	15674.81
606.298	15971.77
606.494	15697.34
606.69	15676.86
606.886	15955.38
607.082	15394.24
607.278	15637.95
607.474	15304.13
607.67	15482.3
607.866	15326.66
608.062	15492.54
608.257	15340.99
608.453	15242.69
608.649	15465.92
608.845	15142.34
609.041	15306.18
609.236	15191.49
609.432	15023.56
609.628	15146.44
609.824	15074.76
610.019	14970.31
610.215	15093.19
610.411	15150.53
610.606	14994.89
610.802	14804.42
610.998	14869.96
611.193	14906.82
611.389	14859.72
611.584	14560.72
611.78	14718.41
611.976	14573
612.171	14820.81
612.367	14790.09
612.562	14587.34
612.758	14468.56
612.953	14433.74
613.149	14644.68
613.344	14261.71
613.539	14691.79
613.735	14603.72
613.93	14486.99
614.126	14271.95
614.321	14357.97
614.517	14378.45
614.712	14179.79
614.907	14155.22
615.103	14351.82
615.298	13905.37
615.493	14134.74
615.688	14187.99
615.884	14415.31
616.079	14038.48
616.274	13981.14
616.47	14015.96
616.665	13983.19
616.86	14073.3
617.055	14024.15
617.25	14026.2
617.445	14040.53
617.641	13669.85
617.836	13868.5
618.031	13579.74
618.226	13931.99
618.421	13567.45
618.616	13831.64
618.811	13546.97
619.006	13725.15
619.201	13278.69
619.396	13651.42
619.591	13274.59
619.786	13366.75
619.981	13071.84
620.176	13170.15
620.371	12832.23
620.566	13301.22
620.761	13157.86
620.956	13180.39
621.151	12930.53
621.346	13075.94
621.541	12834.28
621.735	12742.12
621.93	12733.93
622.125	12690.92
622.32	12588.52
622.515	12490.22
622.709	12494.32
622.904	12449.26
623.099	12338.67
623.294	12213.74
623.488	12260.85
623.683	12281.33
623.878	11847.16
624.072	12230.13
624.267	12113.39
624.462	12023.28
624.656	11980.28
624.851	12064.24
625.046	11730.42
625.24	11789.81
625.435	11755
625.629	11574.78
625.824	11552.25
626.018	11458.04
626.213	11238.91
626.407	11339.26
626.602	11085.31
626.796	11402.75
626.991	11113.99
627.185	11083.27
627.38	10837.51
627.574	10741.25
627.768	11013.63
627.963	10706.44
628.157	10675.72
628.352	10857.99
628.546	10483.21
628.74	10946.05
628.935	10692.1
629.129	10470.92
629.323	10487.31
629.517	10677.77
629.712	10391.05
629.906	10278.41
630.1	10202.64
630.294	10327.57
630.489	10219.02
630.683	10288.65
630.877	9895.44
631.071	10014.23
631.265	10141.2
631.459	9981.46
631.653	9856.53
631.848	9788.95
632.042	9831.96
632.236	9842.2
632.43	9803.29
632.624	9764.37
632.818	9604.63
633.012	9467.42
633.206	9506.33
633.4	9192.99
633.594	9301.53
633.788	9324.06
633.982	9217.57
634.176	9092.64
634.369	9197.09
634.563	9111.07
634.757	9211.42
634.951	9109.02
635.145	9139.74
635.339	8986.15
635.533	8947.23
635.726	8902.18
635.92	8902.18
636.114	8726.05
636.308	8789.54
636.501	8697.38
636.695	8623.66
636.889	8648.23
637.083	8425
637.276	8531.5
637.47	8461.87
637.664	8476.2
637.857	8306.22
638.051	8347.18
638.244	8087.09
638.438	8359.47
638.632	8228.4
638.825	8224.3
639.019	8033.84
639.212	8011.31
639.406	7931.44
639.599	8035.89
639.793	7906.87
639.986	7970.35
640.18	7863.86
640.373	7863.86
640.567	7935.54
640.76	8039.98
640.954	7687.73
641.147	7536.18
641.34	7581.24
641.534	7521.85
641.727	7585.33
641.92	7507.51
642.114	7323.19
642.307	7319.1
642.5	7282.24
642.694	7214.65
642.887	7206.46
643.08	7181.89
643.273	7239.23
643.467	7140.93
643.66	7175.74
643.853	7059.01
644.046	6997.57
644.239	7112.25
644.432	6970.94
644.626	6905.41
644.819	6903.36
645.012	6743.62
645.205	6868.55
645.398	6917.7
645.591	6698.56
645.784	6909.51
645.977	6782.53
646.17	6848.07
646.363	6526.54
646.556	6637.13
646.749	6553.16
646.942	6694.47
647.135	6506.06
647.328	6575.69
647.521	6383.18
647.714	6393.42
647.907	6411.85
648.099	6356.55
648.292	6563.4
648.485	6327.88
648.678	6162
648.871	6151.76
649.064	6114.89
649.256	6157.9
649.449	6241.87
649.642	6108.75
649.835	6069.84
650.027	5969.49
650.22	6047.31
650.413	5977.68
650.605	5924.43
650.798	5963.34
650.991	5889.62
651.183	5797.46
651.376	5635.67
651.568	5715.54
651.761	5793.36
651.954	5854.8
652.146	5686.87
652.339	5752.4
652.531	5623.38
652.724	5520.98
652.916	5512.79
653.109	5391.96
653.301	5461.59
653.494	5482.07
653.686	5504.6
653.879	5449.3
654.071	5402.2
654.263	5324.38
654.456	5404.25
654.648	5600.85
654.84	5434.97
655.033	5219.93
655.225	5246.55
655.417	5312.09
655.61	5111.39
655.802	5127.77
655.994	5303.9
656.186	5232.22
656.379	5138.01
656.571	5072.48
656.763	5011.04
656.955	5129.82
657.148	5011.04
657.34	4949.6
657.532	4931.17
657.724	4884.06
657.916	4910.69
658.108	4822.63
658.3	4859.49
658.492	4939.36
658.684	4834.91
658.876	4621.92
659.068	4752.99
659.26	4718.18
659.452	4619.88
659.644	4689.51
659.836	4716.13
660.028	4587.11
660.22	4615.78
660.412	4587.11
660.604	4574.82
660.796	4458.09
660.988	4552.29
661.18	4513.38
661.372	4394.6
661.563	4388.46
661.755	4359.78
661.947	4415.08
662.139	4437.61
662.331	4267.63
662.522	4300.39
662.714	4316.78
662.906	4337.26
663.097	4404.84
663.289	4175.47
663.481	4167.28
663.673	4353.64
663.864	4087.4
664.056	4187.75
664.247	4193.9
664.439	4046.44
664.631	4187.75
664.822	4058.73
665.014	4062.83
665.205	3991.15
665.397	4019.82
665.588	4124.27
665.78	4128.36
665.971	4064.88
666.163	4001.39
666.354	3911.28
666.546	3743.35
666.737	3974.77
666.929	3942
667.12	3882.61
667.311	3796.59
667.503	3939.95
667.694	3759.73
667.885	3800.69
668.077	3794.54
668.268	3620.47
668.459	3925.61
668.651	3763.83
668.842	3692.15
669.033	3595.89
669.224	3571.32
669.416	3763.83
669.607	3694.19
669.798	3520.12
669.989	3712.63
670.18	3614.32
670.371	3597.94
670.563	3716.72
670.754	3657.33
670.945	3595.89
671.136	3325.56
671.327	3548.79
671.518	3550.84
671.709	3513.97
671.9	3554.93
672.091	3536.5
672.282	3460.73
672.473	3477.11
672.664	3387
672.855	3411.57
673.046	3460.73
673.237	3444.34
673.428	3419.77
673.619	3311.22
673.809	3442.29
674	3579.51
674.191	3534.45
674.382	3481.21
674.573	3499.64
674.764	3278.46
674.954	3321.46
675.145	3247.74
675.336	3286.65
675.527	3329.66
675.717	3294.84
675.908	3223.16
676.099	3329.66
676.289	3346.04
676.48	3235.45
676.671	3104.38
676.861	3323.51
677.052	3208.83
677.243	3217.02
677.433	3251.83
677.624	3184.25
677.814	3178.11
678.005	3163.77
678.195	3192.44
678.386	3083.9
678.576	3141.24
678.767	3077.76
678.957	3061.37
679.148	2958.97
679.338	3122.81
679.529	3061.37
679.719	3143.29
679.909	3137.15
680.1	3143.29
680.29	3118.72
680.481	3030.65
680.671	3155.58
680.861	3038.84
681.052	3102.33
681.242	3012.22
681.432	3063.42
681.622	3044.99
681.813	3047.04
682.003	3069.56
682.193	3012.22
682.383	2922.11
682.573	2942.59
682.764	2975.36
682.954	2932.35
683.144	2973.31
683.334	2948.73
683.524	3008.12
683.714	3059.32
683.904	2975.36
684.094	2973.31
684.284	2936.45
684.474	3036.8
684.664	2989.69
684.854	3004.03
685.044	2918.01
685.234	2854.53
685.424	2840.19
685.614	2967.17
685.804	2889.34
685.994	2883.2
686.184	2891.39
686.374	2934.4
686.564	2870.91
686.753	2950.78
686.943	2834.05
687.133	2942.59
687.323	2748.03
687.513	2901.63
687.702	2782.85
687.892	2864.77
688.082	2756.22
688.272	2778.75
688.461	2846.34
688.651	2686.59
688.841	2610.82
689.03	2627.2
689.22	2694.79
689.41	2635.39
689.599	2651.78
689.789	2600.58
689.979	2569.86
690.168	2676.35
690.358	2571.91
690.547	2543.24
690.737	2561.67
690.926	2526.85
691.116	2616.96
691.305	2610.82
691.495	2627.2
691.684	2541.19
691.874	2576
692.063	2547.33
692.252	2436.74
692.442	2485.89
692.631	2446.98
692.82	2586.24
693.01	2430.6
693.199	2512.52
693.388	2434.69
693.578	2436.74
693.767	2397.83
693.956	2369.16
694.146	2408.07
694.335	2303.62
694.524	2307.72
694.713	2502.28
694.902	2424.45
695.092	2313.86
695.281	2379.4
695.47	2305.67
695.659	2293.38
695.848	2324.1
696.037	2236.04
696.226	2344.58
696.415	2303.62
696.604	2227.85
696.793	2260.62
696.982	2250.38
697.171	2340.49
697.36	2277
697.549	2211.46
697.738	2252.42
697.927	2332.3
698.116	2215.56
698.305	2219.66
698.494	2309.77
698.683	2170.51
698.872	2315.91
699.061	2215.56
699.25	2217.61
699.438	2227.85
699.627	2193.03
699.816	2115.21
700.005	2301.58
700.193	2182.79
700.382	2225.8
700.571	2236.04
700.76	2268.81
700.948	2199.18
701.137	2272.9
701.326	2203.27
701.514	2188.94
701.703	2152.07
701.892	2121.35
702.08	2270.86
702.269	2195.08
702.457	2131.59
702.646	2250.38
702.834	2170.51
703.023	2121.35
703.212	2238.09
703.4	2299.53
703.589	2240.14
703.777	2223.75
703.965	2121.35
704.154	2186.89
704.342	2199.18
704.531	2248.33
704.719	2233.99
704.907	2162.31
705.096	2107.02
705.284	2242.18
705.472	2250.38
705.661	2152.07
705.849	2121.35
706.037	2154.12
706.226	2221.7
706.414	2199.18
706.602	2248.33
706.79	2143.88
706.979	2098.83
707.167	2190.99
707.355	2207.37
707.543	2088.59
707.731	2168.46
707.919	2184.84
708.107	2188.94
708.296	2057.87
708.484	2066.06
708.672	2168.46
708.86	2164.36
709.048	2123.4
709.236	2141.83
709.424	2211.46
709.612	2129.55
709.8	2100.87
709.988	2145.93
710.176	2166.41
710.364	2240.14
710.551	2197.13
710.739	2111.11
710.927	2145.93
711.115	2170.51
711.303	2152.07
711.491	2178.7
711.679	2098.83
711.866	2178.7
712.054	2178.7
712.242	2057.87
712.43	2229.9
712.617	2160.27
712.805	2088.59
712.993	2219.66
713.181	2045.58
713.368	2121.35
713.556	2213.51
713.744	2084.49
713.931	2207.37
714.119	2131.59
714.306	2109.07
714.494	2217.61
714.682	2158.22
714.869	2109.07
715.057	2156.17
715.244	2123.4
715.432	2096.78
715.619	2180.75
715.807	2258.57
715.994	2193.03
716.182	2129.55
716.369	2238.09
716.556	2274.95
716.744	2164.36
716.931	2195.08
717.119	2315.91
717.306	2197.13
717.493	2266.76
717.681	2094.73
717.868	2211.46
718.055	2252.42
718.242	2299.53
718.43	2244.23
718.617	2145.93
718.804	2176.65
718.991	2215.56
719.179	2295.43
719.366	2178.7
719.553	2244.23
719.74	2166.41
719.927	2174.6
720.114	2129.55
720.301	2240.14
720.488	2207.37
720.676	2082.44
720.863	2174.6
721.05	2186.89
721.237	2199.18
721.424	2209.42
721.611	2205.32
721.798	2186.89
721.985	2195.08
722.172	2102.92
722.358	2238.09
722.545	2178.7
722.732	2143.88
722.919	2109.07
723.106	2166.41
723.293	2197.13
723.48	2160.27
723.667	2238.09
723.853	2104.97
724.04	2227.85
724.227	2168.46
724.414	2129.55
724.6	2172.55
724.787	2174.6
724.974	2172.55
725.161	2176.65
725.347	2141.83
725.534	2162.31
725.72	2201.23
725.907	2193.03
726.094	2129.55
726.28	2121.35
726.467	2150.03
726.653	2223.75
726.84	2141.83
727.027	2117.26
727.213	2143.88
727.4	2182.79
727.586	2168.46
727.773	2274.95
727.959	2111.11
728.145	2209.42
728.332	2131.59
728.518	2211.46
728.705	2168.46
728.891	2117.26
729.077	2193.03
729.264	2115.21
729.45	2166.41
729.636	2213.51
729.823	2195.08
730.009	2111.11
730.195	2260.62
730.382	2162.31
730.568	2139.79
730.754	2203.27
730.94	2190.99
731.126	2233.99
731.313	2178.7
731.499	2219.66
731.685	2186.89
731.871	2182.79
732.057	2180.75
732.243	2242.18
732.429	2190.99
732.615	2197.13
732.801	2168.46
732.987	2145.93
733.173	2201.23
733.359	2160.27
733.545	2133.64
733.731	2195.08
733.917	2207.37
734.103	2080.39
734.289	2160.27
734.475	2168.46
734.661	2113.16
734.847	2133.64
735.033	2166.41
735.219	2137.74
735.404	2055.82
735.59	2186.89
735.776	2141.83
735.962	2096.78
736.148	2207.37
736.333	2131.59
736.519	2154.12
736.705	2160.27
736.89	2143.88
737.076	2092.68
737.262	2137.74
737.447	2129.55
737.633	2070.16
737.819	2215.56
738.004	2188.94
738.19	2137.74
738.375	2152.07
738.561	2074.25
738.747	2049.68
738.932	2141.83
739.118	2107.02
739.303	2027.15
739.489	2162.31
739.674	1998.48
739.859	1963.66
740.045	2115.21
740.23	2018.96
740.416	1910.41
740.601	2016.91
740.786	2059.92
740.972	2041.48
741.157	2133.64
741.342	2045.58
741.528	2045.58
741.713	2039.44
741.898	1934.99
742.084	1898.13
742.269	2027.15
742.454	1971.85
742.639	1971.85
742.824	1920.65
743.01	1953.42
743.195	1980.04
743.38	1932.94
743.565	1949.32
743.75	1961.61
743.935	1803.92
744.12	1949.32
744.305	2002.57
744.49	1898.13
744.675	1920.65
744.86	1818.25
745.045	1785.49
745.23	1799.82
745.415	1842.83
745.6	1779.34
745.785	1736.34
745.97	1838.73
746.155	1783.44
746.34	1818.25
746.525	1744.53
746.71	1740.43
746.895	1689.23
747.079	1728.14
747.264	1687.18
747.449	1633.94
747.634	1803.92
747.819	1699.47
748.003	1642.13
748.188	1781.39
748.373	1652.37
748.557	1617.55
748.742	1709.71
748.927	1668.75
749.111	1713.81
749.296	1625.75
749.481	1627.79
749.665	1568.4
749.85	1482.39
750.034	1654.42
750.219	1535.64
750.404	1584.79
750.588	1455.76
750.773	1631.89
750.957	1476.24
751.141	1463.96
751.326	1554.07
751.51	1535.64
751.695	1498.77
751.879	1552.02
752.064	1521.3
752.248	1461.91
752.432	1457.81
752.617	1586.83
752.801	1488.53
752.985	1453.72
753.17	1355.41
753.354	1373.85
753.538	1519.25
753.722	1334.93
753.907	1355.41
754.091	1285.78
754.275	1355.41
754.459	1302.17
754.643	1324.69
754.828	1281.69
755.012	1322.65
755.196	1271.45
755.38	1402.52
755.564	1234.58
755.748	1255.06
755.932	1248.92
756.116	1212.06
756.3	1289.88
756.484	1263.26
756.668	1187.48
756.852	1220.25
757.036	1187.48
757.22	1193.62
757.404	1226.39
757.588	1193.62
757.772	1150.62
757.956	1218.2
758.14	1187.48
758.323	1167
758.507	1183.38
758.691	1183.38
758.875	1195.67
759.059	1181.34
759.242	1195.67
759.426	1146.52
759.61	1130.14
759.794	1107.61
759.977	1060.51
760.161	1123.99
760.345	1148.57
760.528	1109.66
760.712	1123.99
760.895	1097.37
761.079	1027.74
761.263	1033.88
761.446	949.92
761.63	949.92
761.813	1031.83
761.997	997.02
762.18	1093.27
762.364	972.44
762.547	988.83
762.731	1001.12
762.914	927.39
763.098	976.54
763.281	949.92
763.464	968.35
763.648	1029.79
763.831	962.2
764.015	929.44
764.198	935.58
764.381	1062.55
764.564	917.15
764.748	904.86
764.931	962.2
765.114	906.91
765.297	935.58
765.481	917.15
765.664	872.09
765.847	945.82
766.03	843.42
766.213	868
766.397	939.68
766.58	876.19
766.763	841.37
766.946	824.99
767.129	888.48
767.312	913.05
767.495	886.43
767.678	736.93
767.861	824.99
768.044	902.81
768.227	855.71
768.41	890.53
768.593	874.14
768.776	845.47
768.959	790.17
769.142	781.98
769.324	741.02
769.507	806.56
769.69	843.42
769.873	888.48
770.056	900.76
770.239	808.61
770.421	884.38
770.604	808.61
770.787	790.17
770.97	851.61
771.152	704.16
771.335	851.61
771.518	773.79
771.7	788.13
771.883	775.84
772.066	777.89
772.248	763.55
772.431	781.98
772.613	808.61
772.796	839.33
772.978	777.89
773.161	718.5
773.343	706.21
773.526	728.74
773.708	704.16
773.891	669.34
774.073	749.22
774.256	716.45
774.438	693.92
774.621	609.95
774.803	628.39
774.985	671.39
775.168	728.74
775.35	657.06
775.532	683.68
775.715	620.19
775.897	622.24
776.079	734.88
776.261	628.39
776.444	726.69
776.626	636.58
776.808	675.49
776.99	644.77
777.173	616.1
777.355	632.48
777.537	630.43
777.719	667.3
777.901	528.03
778.083	630.43
778.265	562.85
778.447	603.81
778.629	546.47
778.811	595.62
778.993	605.86
779.175	560.8
779.357	560.8
779.539	550.56
779.721	472.74
779.903	577.19
780.085	556.71
780.267	536.23
780.449	581.28
780.631	597.67
780.812	585.38
780.994	601.76
781.176	579.23
781.358	517.79
781.54	511.65
781.721	417.44
781.903	511.65
782.085	419.49
782.267	530.08
782.448	519.84
782.63	528.03
782.812	472.74
782.993	530.08
783.175	472.74
783.357	392.87
783.538	413.35
783.72	470.69
783.901	485.03
784.083	421.54
784.264	417.44
784.446	474.79
784.627	401.06
784.809	458.4
784.99	425.64
785.172	466.6
785.353	458.4
785.535	411.3
785.716	413.35
785.897	356.01
786.079	431.78
786.26	421.54
786.441	370.34
786.623	413.35
786.804	405.16
786.985	462.5
787.167	446.12
787.348	476.84
787.529	390.82
787.71	413.35
787.891	437.92
788.073	386.72
788.254	306.85
788.435	394.92
788.616	439.97
788.797	360.1
788.978	419.49
789.159	335.53
789.34	292.52
789.522	300.71
789.703	358.05
789.884	306.85
790.065	349.86
790.246	364.2
790.427	278.18
790.607	335.53
790.788	415.4
790.969	327.33
791.15	351.91
791.331	286.37
791.512	364.2
791.693	272.04
791.874	292.52
792.054	370.34
792.235	302.76
792.416	358.05
792.597	257.7
792.778	310.95
792.958	288.42
793.139	257.7
793.32	317.09
793.5	288.42
793.681	313
793.862	290.47
794.042	323.24
794.223	245.41
794.404	272.04
794.584	188.07
794.765	294.57
794.945	257.7
795.126	313
795.306	233.13
795.487	360.1
795.667	272.04
795.848	237.22
796.028	261.8
796.209	315.05
796.389	319.14
796.57	296.61
796.75	196.26
796.93	218.79
797.111	278.18
797.291	196.26
797.471	335.53
797.652	364.2
797.832	235.18
798.012	212.65
798.192	249.51
798.373	110.25
798.553	302.76
798.733	274.09
798.913	231.08
799.093	241.32
799.274	272.04
799.454	263.85
799.634	200.36
799.814	214.7
799.994	255.65
800.174	306.85
800.354	249.51
800.534	233.13
800.714	212.65
800.894	249.51
801.074	245.41
801.254	179.88
801.434	200.36
801.614	245.41
801.794	196.26
801.974	620.19
802.154	198.31
802.334	257.7
802.514	206.5
802.693	267.94
802.873	196.26
803.053	210.6
803.233	245.41
803.413	169.64
803.592	249.51
803.772	222.89
803.952	220.84
804.131	138.92
804.311	208.55
804.491	269.99
804.67	216.74
804.85	204.46
805.03	183.98
805.209	186.02
805.389	194.22
805.568	183.98
805.748	161.45
805.928	143.02
806.107	171.69
806.287	233.13
806.466	138.92
806.646	155.3
806.825	97.96
807.004	163.5
807.184	134.82
807.363	196.26
807.543	200.36
807.722	204.46
807.901	229.03
808.081	132.78
808.26	132.78
808.439	138.92
808.619	153.26
808.798	161.45
808.977	77.48
809.156	190.12
809.336	192.17
809.515	167.59
809.694	177.83
809.873	173.74
810.052	87.72
810.231	153.26
810.411	165.54
810.59	147.11
810.769	206.5
810.948	212.65
811.127	134.82
811.306	149.16
811.485	200.36
811.664	132.78
811.843	106.15
812.022	175.78
812.201	128.68
812.38	179.88
812.559	132.78
812.737	173.74
812.916	91.82
813.095	155.3
813.274	116.39
813.453	212.65
813.632	134.82
813.811	132.78
813.989	108.2
814.168	136.87
814.347	155.3
814.526	89.77
814.704	153.26
814.883	212.65
815.062	145.06
815.24	155.3
815.419	85.67
815.598	134.82
815.776	106.15
815.955	122.54
816.133	104.11
816.312	106.15
816.49	120.49
816.669	165.54
816.847	100.01
817.026	91.82
817.204	118.44
817.383	151.21
817.561	120.49
817.74	165.54
817.918	114.34
818.097	73.39
818.275	50.86
818.453	102.06
818.632	145.06
818.81	11.95
818.988	114.34
819.167	91.82
819.345	177.83
819.523	61.1
819.701	147.11
819.879	153.26
820.058	153.26
820.236	104.11
820.414	95.91
820.592	67.24
820.77	93.87
820.948	161.45
821.127	130.73
821.305	93.87
821.483	163.5
821.661	106.15
821.839	85.67
822.017	106.15
822.195	132.78
822.373	75.43
822.551	18.09
822.729	145.06
822.907	57
823.085	145.06
823.262	122.54
823.44	87.72
823.618	132.78
823.796	54.95
823.974	46.76
824.152	124.58
824.329	46.76
824.507	93.87
824.685	114.34
824.863	20.14
825.04	54.95
825.218	186.02
825.396	73.39
825.574	188.07
825.751	112.3
825.929	122.54
826.107	40.62
826.284	126.63
826.462	69.29
826.639	143.02
826.817	106.15
826.994	206.5
827.172	34.47
827.349	167.59
827.527	102.06
827.704	34.47
827.882	120.49
828.059	73.39
828.237	73.39
828.414	20.14
828.591	54.95
828.769	106.15
828.946	73.39
829.124	186.02
829.301	42.67
829.478	128.68
829.655	120.49
829.833	65.19
830.01	75.43
830.187	136.87
830.364	59.05
830.542	87.72
830.719	81.58
830.896	124.58
831.073	108.2
831.25	132.78
831.427	102.06
831.604	106.15
831.782	44.71
831.959	89.77
832.136	-10.58
832.313	106.15
832.49	87.72
832.667	57
832.844	81.58
833.021	95.91
833.198	46.76
833.374	26.28
833.551	48.81
833.728	73.39
833.905	81.58
834.082	52.91
834.259	54.95
834.436	138.92
834.612	61.1
834.789	93.87
834.966	122.54
835.143	89.77
835.319	1.71
835.496	69.29
835.673	67.24
835.85	54.95
836.026	59.05
836.203	75.43
836.38	32.43
836.556	106.15
836.733	11.95
836.909	132.78
837.086	42.67
837.262	-12.63
837.439	106.15
837.616	50.86
837.792	124.58
837.968	59.05
838.145	-35.16
838.321	54.95
838.498	89.77
838.674	122.54
838.851	93.87
839.027	63.15
839.203	40.62
839.38	124.58
839.556	13.99
839.732	124.58
839.909	89.77
840.085	40.62
840.261	-8.53
840.437	57
840.614	63.15
840.79	44.71
840.966	48.81
841.142	52.91
841.318	61.1
841.494	38.57
841.671	7.85
841.847	32.43
842.023	100.01
842.199	48.81
842.375	73.39
842.551	79.53
842.727	54.95
842.903	50.86
843.079	50.86
843.255	108.2
843.431	40.62
843.607	42.67
843.783	22.19
843.959	120.49
844.134	63.15
844.31	71.34
844.486	5.8
844.662	11.95
844.838	-2.39
845.013	24.23
845.189	93.87
845.365	48.81
845.541	34.47
845.716	69.29
845.892	77.48
846.068	28.33
846.244	38.57
846.419	118.44
846.595	83.63
846.77	20.14
846.946	7.85
847.122	61.1
847.297	-76.12
847.473	102.06
847.648	-4.44
847.824	38.57
847.999	22.19
848.175	-2.39
848.35	59.05
848.526	97.96
848.701	44.71
848.876	16.04
849.052	46.76
849.227	-22.87
849.403	155.3
849.578	11.95
849.753	16.04
849.929	20.14
850.104	-2.39
850.279	-20.82
850.454	40.62
850.63	54.95
850.805	-6.49
850.98	7.85
851.155	16.04
851.33	1.71
851.505	20.14
851.681	52.91
851.856	28.33
852.031	52.91
852.206	75.43
852.381	11.95
852.556	36.52
852.731	120.49
852.906	32.43
853.081	22.19
853.256	52.91
853.431	24.23
853.606	-6.49
853.781	-41.3
853.956	67.24
854.131	69.29
854.305	-98.64
854.48	83.63
854.655	30.38
854.83	40.62
855.005	7.85
855.18	7.85
855.354	-26.96
855.529	95.91
855.704	-4.44
855.879	75.43
856.053	-14.68
856.228	-45.4
856.403	-4.44
856.577	28.33
856.752	48.81
856.926	106.15
857.101	13.99
857.276	-2.39
857.45	85.67
857.625	54.95
857.799	24.23
857.974	71.34
858.148	9.9
858.323	54.95
858.497	-14.68
858.672	69.29
858.846	106.15
859.02	-16.73
859.195	16.04
859.369	85.67
859.543	22.19
859.718	65.19
859.892	81.58
860.066	3.75
860.241	40.62
860.415	-31.06
860.589	-69.97
860.763	46.76
860.938	16.04
861.112	95.91
861.286	22.19
861.46	38.57
861.634	13.99
861.808	59.05
861.982	18.09
862.157	44.71
862.331	-2.39
862.505	-22.87
862.679	-51.54
862.853	46.76
863.027	-53.59
863.201	-0.34
863.375	26.28
863.549	85.67
863.722	75.43
863.896	61.1
864.07	-12.63
864.244	-31.06
864.418	20.14
864.592	95.91
864.766	3.75
864.939	36.52
865.113	-63.83
865.287	79.53
865.461	-82.26
865.634	38.57
865.808	44.71
865.982	67.24
866.156	32.43
866.329	20.14
866.503	36.52
866.676	69.29
866.85	38.57
867.024	-0.34
867.197	50.86
867.371	-51.54
867.544	20.14
867.718	-24.92
867.891	57
868.065	-76.12
868.238	71.34
868.412	65.19
868.585	85.67
868.759	-22.87
868.932	71.34
869.105	16.04
869.279	20.14
869.452	11.95
869.625	13.99
869.799	28.33
869.972	-39.25
870.145	-26.96
870.319	1.71
870.492	-51.54
870.665	-8.53
870.838	77.48
871.011	-2.39
871.185	52.91
871.358	-6.49
871.531	30.38
871.704	71.34
871.877	18.09
872.05	-47.44
872.223	28.33
872.396	65.19
872.569	18.09
872.742	3.75
872.915	30.38
873.088	-20.82
873.261	-49.49
873.434	-20.82
873.607	81.58
873.78	42.67
873.953	11.95
874.126	7.85
874.299	30.38
874.471	77.48
874.644	-26.96
874.817	-24.92
874.99	79.53
875.163	-37.2
875.335	18.09
875.508	-69.97
875.681	20.14
875.853	-39.25
876.026	-8.53
876.199	-14.68
876.371	-2.39
876.544	3.75
876.717	71.34
876.889	-41.3
877.062	-39.25
877.234	-82.26
877.407	48.81
877.579	30.38
877.752	-18.77
877.924	26.28
878.097	40.62
878.269	16.04
878.442	79.53
878.614	20.14
878.786	26.28
878.959	-6.49
879.131	38.57
879.303	1.71
879.476	69.29
879.648	13.99
879.82	16.04
879.993	-102.74
880.165	-33.11
880.337	-18.77
880.509	38.57
880.681	-26.96
880.854	-31.06
881.026	57
881.198	50.86
881.37	-47.44
881.542	30.38
881.714	36.52
881.886	3.75
882.058	-26.96
882.23	-35.16
882.402	11.95
882.574	46.76
882.746	-31.06
882.918	-4.44
883.09	-16.73
883.262	38.57
883.434	-43.35
883.606	-55.64
883.778	63.15
883.95	85.67
884.122	-31.06
884.293	-18.77
884.465	-0.34
884.637	48.81
884.809	-8.53
884.98	26.28
885.152	-2.39
885.324	-12.63
885.496	61.1
885.667	61.1
885.839	26.28
886.011	16.04
886.182	34.47
886.354	34.47
886.525	-31.06
886.697	-8.53
886.869	24.23
887.04	-35.16
887.212	-6.49
887.383	61.1
887.555	7.85
887.726	-31.06
887.897	-39.25
888.069	65.19
888.24	11.95
888.412	87.72
888.583	16.04
888.754	-12.63
888.926	-45.4
889.097	95.91
889.268	-96.6
889.44	59.05
889.611	-10.58
889.782	-41.3
889.953	-67.92
890.125	57
890.296	-2.39
890.467	-24.92
890.638	-0.34
890.809	-4.44
890.98	30.38
891.151	67.24
891.323	-33.11
891.494	11.95
891.665	42.67
891.836	-39.25
892.007	30.38
892.178	-82.26
892.349	44.71
892.52	-18.77
892.691	32.43
892.862	28.33
893.032	-26.96
893.203	36.52
893.374	-43.35
893.545	11.95
893.716	-22.87
893.887	-41.3
894.057	-53.59
894.228	-2.39
894.399	30.38
894.57	61.1
894.74	13.99
894.911	38.57
895.082	-61.78
895.253	61.1
895.423	-12.63
895.594	-2.39
895.764	-39.25
895.935	-57.68
896.106	40.62
896.276	83.63
896.447	-26.96
896.617	50.86
896.788	52.91
896.958	18.09
897.129	16.04
897.299	7.85
897.47	-65.88
897.64	18.09
897.81	-31.06
897.981	-8.53
898.151	-37.2
898.322	20.14
898.492	-63.83
898.662	-51.54
898.832	5.8
899.003	-33.11
899.173	71.34
899.343	-37.2
899.513	-80.21
