Data from USB4F104151__41__11-51-47-667.txt Node

Date: Fri Mar 14 11:51:47 EDT 2025
User: louis
Spectrometer: USB4F10415
Trigger mode: 4
Integration Time (sec): 2.000000E-2
Scans to average: 1
Electric dark correction enabled: true
Nonlinearity correction enabled: false
Boxcar width: 0
XAxis mode: Wavelengths
Number of Pixels in Spectrum: 3648
>>>>>Begin Spectral Data<<<<<
178.204	-76.29
178.424	-76.29
178.644	-76.29
178.864	-127.49
179.084	-53.76
179.304	24.06
179.524	17.92
179.744	-23.04
179.964	-29.18
180.184	-4.61
180.404	34.3
180.624	-37.38
180.844	19.97
181.064	5.63
181.283	19.97
181.503	-49.66
181.723	22.02
181.943	5.63
182.163	30.21
182.383	-20.99
182.602	22.02
182.822	7.68
183.042	7.68
183.262	-78.33
183.482	-43.52
183.701	-57.86
183.921	-0.51
184.141	-33.28
184.361	85.5
184.58	-33.28
184.8	-43.52
185.02	11.78
185.239	81.41
185.459	48.64
185.679	89.6
185.898	-31.23
186.118	36.35
186.338	50.69
186.557	-51.71
186.777	1.54
186.997	-18.94
187.216	-16.9
187.436	36.35
187.655	7.68
187.875	48.64
188.095	3.58
188.314	11.78
188.534	-12.8
188.753	65.02
188.973	30.21
189.192	-4.61
189.412	48.64
189.631	-20.99
189.851	11.78
190.07	91.65
190.29	-49.66
190.509	83.45
190.729	-70.14
190.948	38.4
191.168	62.98
191.387	65.02
191.607	-23.04
191.826	-16.9
192.045	60.93
192.265	-2.56
192.484	-29.18
192.704	38.4
192.923	-14.85
193.142	56.83
193.362	34.3
193.581	75.26
193.8	44.54
194.02	22.02
194.239	15.87
194.458	-33.28
194.678	-45.57
194.897	-4.61
195.116	67.07
195.335	69.12
195.555	-35.33
195.774	-2.56
195.993	38.4
196.212	65.02
196.432	-10.75
196.651	50.69
196.87	-16.9
197.089	1.54
197.308	65.02
197.528	71.17
197.747	32.26
197.966	-55.81
198.185	77.31
198.404	-55.81
198.623	36.35
198.842	46.59
199.062	75.26
199.281	81.41
199.5	17.92
199.719	34.3
199.938	-27.14
200.157	46.59
200.376	48.64
200.595	26.11
200.814	-6.66
201.033	32.26
201.252	15.87
201.471	7.68
201.69	-4.61
201.909	-41.47
202.128	69.12
202.347	17.92
202.566	58.88
202.785	13.82
203.004	19.97
203.223	65.02
203.442	-4.61
203.661	-23.04
203.879	15.87
204.098	-35.33
204.317	5.63
204.536	40.45
204.755	17.92
204.974	81.41
205.193	34.3
205.411	103.93
205.63	67.07
205.849	48.64
206.068	48.64
206.287	-27.14
206.505	3.58
206.724	-23.04
206.943	-6.66
207.162	26.11
207.381	-8.7
207.599	-51.71
207.818	-16.9
208.037	54.78
208.255	-43.52
208.474	-25.09
208.693	67.07
208.911	-29.18
209.13	-47.62
209.349	-29.18
209.567	26.11
209.786	11.78
210.005	50.69
210.223	52.74
210.442	-49.66
210.661	1.54
210.879	-45.57
211.098	-4.61
211.316	-12.8
211.535	19.97
211.753	-10.75
211.972	67.07
212.191	56.83
212.409	-14.85
212.628	-20.99
212.846	-33.28
213.065	3.58
213.283	28.16
213.502	69.12
213.72	40.45
213.938	-18.94
214.157	-47.62
214.375	3.58
214.594	-12.8
214.812	71.17
215.031	34.3
215.249	-8.7
215.467	15.87
215.686	69.12
215.904	48.64
216.122	-18.94
216.341	85.5
216.559	-4.61
216.778	26.11
216.996	44.54
217.214	52.74
217.432	-16.9
217.651	46.59
217.869	-47.62
218.087	9.73
218.306	-31.23
218.524	-61.95
218.742	-2.56
218.96	32.26
219.179	11.78
219.397	5.63
219.615	9.73
219.833	-25.09
220.051	19.97
220.27	73.21
220.488	28.16
220.706	-10.75
220.924	36.35
221.142	-53.76
221.36	-64
221.578	60.93
221.796	-4.61
222.015	-27.14
222.233	-14.85
222.451	60.93
222.669	-2.56
222.887	85.5
223.105	-8.7
223.323	-16.9
223.541	-18.94
223.759	1.54
223.977	-25.09
224.195	13.82
224.413	34.3
224.631	-49.66
224.849	1.54
225.067	65.02
225.285	-61.95
225.503	11.78
225.721	32.26
225.939	44.54
226.157	-35.33
226.375	24.06
226.592	-27.14
226.81	3.58
227.028	62.98
227.246	-8.7
227.464	38.4
227.682	11.78
227.9	-70.14
228.117	3.58
228.335	-31.23
228.553	48.64
228.771	5.63
228.989	-27.14
229.206	24.06
229.424	-14.85
229.642	-49.66
229.86	-25.09
230.077	15.87
230.295	22.02
230.513	73.21
230.731	48.64
230.948	52.74
231.166	79.36
231.384	79.36
231.601	1.54
231.819	46.59
232.037	-45.57
232.254	-8.7
232.472	9.73
232.689	24.06
232.907	19.97
233.125	-4.61
233.342	24.06
233.56	13.82
233.777	-29.18
233.995	36.35
234.213	97.79
234.43	-115.2
234.648	-33.28
234.865	36.35
235.083	73.21
235.3	9.73
235.518	46.59
235.735	97.79
235.953	1.54
236.17	50.69
236.388	-25.09
236.605	3.58
236.822	-41.47
237.04	19.97
237.257	-37.38
237.475	-8.7
237.692	38.4
237.909	-0.51
238.127	77.31
238.344	-2.56
238.562	11.78
238.779	-41.47
238.996	48.64
239.214	34.3
239.431	15.87
239.648	1.54
239.865	-64
240.083	32.26
240.3	30.21
240.517	-2.56
240.735	17.92
240.952	62.98
241.169	93.69
241.386	38.4
241.603	-0.51
241.821	48.64
242.038	46.59
242.255	50.69
242.472	17.92
242.689	-25.09
242.907	15.87
243.124	28.16
243.341	40.45
243.558	-72.19
243.775	-6.66
243.992	24.06
244.209	17.92
244.426	40.45
244.643	32.26
244.86	28.16
245.078	-31.23
245.295	7.68
245.512	-12.8
245.729	-12.8
245.946	-18.94
246.163	11.78
246.38	3.58
246.597	11.78
246.814	13.82
247.031	-6.66
247.248	-37.38
247.464	40.45
247.681	48.64
247.898	26.11
248.115	19.97
248.332	-0.51
248.549	75.26
248.766	89.6
248.983	46.59
249.2	1.54
249.417	-20.99
249.633	22.02
249.85	28.16
250.067	60.93
250.284	1.54
250.501	-2.56
250.717	15.87
250.934	-82.43
251.151	-57.86
251.368	32.26
251.585	56.83
251.801	71.17
252.018	40.45
252.235	28.16
252.451	-39.42
252.668	-0.51
252.885	22.02
253.102	-37.38
253.318	-12.8
253.535	-55.81
253.752	13.82
253.968	-16.9
254.185	79.36
254.401	7.68
254.618	40.45
254.835	99.84
255.051	87.55
255.268	38.4
255.484	56.83
255.701	36.35
255.917	50.69
256.134	42.5
256.351	15.87
256.567	-18.94
256.784	-31.23
257	15.87
257.217	26.11
257.433	-2.56
257.65	-16.9
257.866	140.8
258.082	-49.66
258.299	-45.57
258.515	32.26
258.732	-14.85
258.948	-2.56
259.165	11.78
259.381	77.31
259.597	-51.71
259.814	-18.94
260.03	50.69
260.246	83.45
260.463	22.02
260.679	-18.94
260.895	-47.62
261.112	89.6
261.328	-2.56
261.544	17.92
261.761	132.61
261.977	32.26
262.193	50.69
262.409	-78.33
262.626	24.06
262.842	17.92
263.058	-66.05
263.274	19.97
263.49	28.16
263.707	-25.09
263.923	50.69
264.139	-29.18
264.355	-4.61
264.571	67.07
264.787	9.73
265.004	19.97
265.22	32.26
265.436	-25.09
265.652	71.17
265.868	11.78
266.084	7.68
266.3	1.54
266.516	24.06
266.732	46.59
266.948	-49.66
267.164	38.4
267.38	50.69
267.596	56.83
267.812	77.31
268.028	54.78
268.244	-25.09
268.46	44.54
268.676	-33.28
268.892	54.78
269.108	-2.56
269.324	7.68
269.54	-8.7
269.756	30.21
269.972	-41.47
270.188	11.78
270.403	52.74
270.619	11.78
270.835	-55.81
271.051	7.68
271.267	28.16
271.483	-41.47
271.698	17.92
271.914	87.55
272.13	62.98
272.346	24.06
272.562	-0.51
272.777	46.59
272.993	50.69
273.209	-37.38
273.425	50.69
273.64	-0.51
273.856	-6.66
274.072	-0.51
274.287	-6.66
274.503	50.69
274.719	97.79
274.934	5.63
275.15	-29.18
275.366	89.6
275.581	-51.71
275.797	-14.85
276.012	3.58
276.228	50.69
276.444	36.35
276.659	36.35
276.875	3.58
277.09	52.74
277.306	-8.7
277.521	-53.76
277.737	-59.9
277.952	-18.94
278.168	22.02
278.383	67.07
278.599	-8.7
278.814	-2.56
279.03	60.93
279.245	30.21
279.461	-8.7
279.676	60.93
279.892	-41.47
280.107	87.55
280.322	-2.56
280.538	15.87
280.753	15.87
280.969	52.74
281.184	19.97
281.399	144.89
281.615	-0.51
281.83	-55.81
282.045	-29.18
282.26	40.45
282.476	-53.76
282.691	67.07
282.906	65.02
283.122	-49.66
283.337	-18.94
283.552	-70.14
283.767	-59.9
283.983	40.45
284.198	-29.18
284.413	124.41
284.628	34.3
284.843	7.68
285.058	83.45
285.274	28.16
285.489	28.16
285.704	93.69
285.919	-8.7
286.134	15.87
286.349	19.97
286.564	50.69
286.779	67.07
286.995	-20.99
287.21	-47.62
287.425	99.84
287.64	-12.8
287.855	26.11
288.07	42.5
288.285	-39.42
288.5	44.54
288.715	40.45
288.93	1.54
289.145	52.74
289.36	38.4
289.575	5.63
289.79	-20.99
290.004	-6.66
290.219	-55.81
290.434	56.83
290.649	9.73
290.864	83.45
291.079	50.69
291.294	28.16
291.509	50.69
291.724	40.45
291.938	19.97
292.153	19.97
292.368	103.93
292.583	73.21
292.798	7.68
293.012	-12.8
293.227	58.88
293.442	-0.51
293.657	22.02
293.871	17.92
294.086	-64
294.301	69.12
294.516	-8.7
294.73	112.13
294.945	-23.04
295.16	-49.66
295.374	38.4
295.589	85.5
295.804	28.16
296.018	7.68
296.233	17.92
296.447	85.5
296.662	42.5
296.877	87.55
297.091	9.73
297.306	22.02
297.52	9.73
297.735	9.73
297.949	-41.47
298.164	19.97
298.378	-0.51
298.593	58.88
298.807	-37.38
299.022	22.02
299.236	-4.61
299.451	60.93
299.665	24.06
299.88	19.97
300.094	-43.52
300.309	-31.23
300.523	-14.85
300.737	-66.05
300.952	46.59
301.166	7.68
301.381	-80.38
301.595	26.11
301.809	71.17
302.024	26.11
302.238	15.87
302.452	34.3
302.667	-31.23
302.881	-31.23
303.095	11.78
303.309	24.06
303.524	-55.81
303.738	-20.99
303.952	-20.99
304.166	13.82
304.381	-8.7
304.595	67.07
304.809	-29.18
305.023	1.54
305.237	-12.8
305.452	32.26
305.666	-33.28
305.88	28.16
306.094	3.58
306.308	36.35
306.522	15.87
306.736	17.92
306.95	13.82
307.164	5.63
307.379	-33.28
307.593	5.63
307.807	87.55
308.021	48.64
308.235	85.5
308.449	-18.94
308.663	65.02
308.877	89.6
309.091	-45.57
309.305	13.82
309.519	-16.9
309.733	32.26
309.947	-8.7
310.161	-27.14
310.374	-4.61
310.588	60.93
310.802	-39.42
311.016	-43.52
311.23	24.06
311.444	-33.28
311.658	-41.47
311.872	36.35
312.085	-64
312.299	13.82
312.513	15.87
312.727	-23.04
312.941	-0.51
313.154	69.12
313.368	34.3
313.582	40.45
313.796	-2.56
314.009	7.68
314.223	91.65
314.437	17.92
314.651	7.68
314.864	52.74
315.078	79.36
315.292	-10.75
315.505	65.02
315.719	36.35
315.933	52.74
316.146	28.16
316.36	-31.23
316.573	108.03
316.787	15.87
317.001	5.63
317.214	-6.66
317.428	69.12
317.641	-18.94
317.855	11.78
318.068	-6.66
318.282	28.16
318.495	9.73
318.709	34.3
318.922	44.54
319.136	17.92
319.349	48.64
319.563	-35.33
319.776	-96.77
319.99	3.58
320.203	13.82
320.417	28.16
320.63	44.54
320.843	38.4
321.057	-33.28
321.27	60.93
321.483	-70.14
321.697	67.07
321.91	19.97
322.124	24.06
322.337	-4.61
322.55	-18.94
322.763	67.07
322.977	7.68
323.19	19.97
323.403	9.73
323.617	-33.28
323.83	101.89
324.043	58.88
324.256	-8.7
324.469	110.08
324.683	54.78
324.896	9.73
325.109	48.64
325.322	-10.75
325.535	58.88
325.748	34.3
325.962	-43.52
326.175	5.63
326.388	81.41
326.601	85.5
326.814	-23.04
327.027	69.12
327.24	56.83
327.453	50.69
327.666	44.54
327.879	58.88
328.092	50.69
328.305	30.21
328.518	-14.85
328.731	40.45
328.944	52.74
329.157	75.26
329.37	-0.51
329.583	32.26
329.796	34.3
330.009	-12.8
330.222	17.92
330.435	-90.62
330.648	7.68
330.861	-10.75
331.073	7.68
331.286	56.83
331.499	-49.66
331.712	-8.7
331.925	36.35
332.138	13.82
332.35	40.45
332.563	7.68
332.776	38.4
332.989	58.88
333.202	-41.47
333.414	54.78
333.627	-47.62
333.84	-53.76
334.053	77.31
334.265	9.73
334.478	5.63
334.691	85.5
334.903	-8.7
335.116	-37.38
335.329	11.78
335.541	34.3
335.754	-23.04
335.966	50.69
336.179	-25.09
336.392	-25.09
336.604	5.63
336.817	38.4
337.029	15.87
337.242	13.82
337.454	116.22
337.667	34.3
337.88	101.89
338.092	56.83
338.305	32.26
338.517	50.69
338.729	32.26
338.942	9.73
339.154	1.54
339.367	1.54
339.579	36.35
339.792	95.74
340.004	-23.04
340.217	34.3
340.429	54.78
340.641	5.63
340.854	-25.09
341.066	5.63
341.278	60.93
341.491	65.02
341.703	11.78
341.915	-31.23
342.128	38.4
342.34	-10.75
342.552	56.83
342.764	30.21
342.977	26.11
343.189	-57.86
343.401	40.45
343.613	1.54
343.826	28.16
344.038	-14.85
344.25	62.98
344.462	-29.18
344.674	79.36
344.886	85.5
345.099	93.69
345.311	67.07
345.523	-8.7
345.735	3.58
345.947	-12.8
346.159	36.35
346.371	83.45
346.583	-23.04
346.795	19.97
347.007	38.4
347.219	77.31
347.431	22.02
347.643	17.92
347.855	24.06
348.067	48.64
348.279	52.74
348.491	3.58
348.703	69.12
348.915	-4.61
349.127	7.68
349.339	138.75
349.551	11.78
349.763	26.11
349.975	11.78
350.187	36.35
350.399	46.59
350.61	13.82
350.822	52.74
351.034	13.82
351.246	62.98
351.458	34.3
351.669	13.82
351.881	40.45
352.093	58.88
352.305	48.64
352.517	-8.7
352.728	108.03
352.94	24.06
353.152	26.11
353.363	-23.04
353.575	50.69
353.787	-12.8
353.999	5.63
354.21	54.78
354.422	40.45
354.633	40.45
354.845	34.3
355.057	15.87
355.268	17.92
355.48	93.69
355.692	-2.56
355.903	52.74
356.115	46.59
356.326	13.82
356.538	108.03
356.749	11.78
356.961	93.69
357.172	56.83
357.384	-6.66
357.595	75.26
357.807	-12.8
358.018	69.12
358.23	26.11
358.441	38.4
358.653	67.07
358.864	-4.61
359.075	34.3
359.287	44.54
359.498	69.12
359.709	13.82
359.921	42.5
360.132	17.92
360.344	24.06
360.555	17.92
360.766	-39.42
360.977	-10.75
361.189	28.16
361.4	50.69
361.611	15.87
361.823	5.63
362.034	40.45
362.245	-55.81
362.456	38.4
362.667	-10.75
362.879	-27.14
363.09	-10.75
363.301	13.82
363.512	15.87
363.723	-31.23
363.935	28.16
364.146	108.03
364.357	42.5
364.568	42.5
364.779	-2.56
364.99	52.74
365.201	30.21
365.412	126.46
365.623	67.07
365.834	99.84
366.045	11.78
366.256	120.32
366.467	-41.47
366.678	22.02
366.889	-18.94
367.1	-23.04
367.311	5.63
367.522	87.55
367.733	65.02
367.944	42.5
368.155	3.58
368.366	83.45
368.577	-20.99
368.788	46.59
368.999	83.45
369.209	44.54
369.42	52.74
369.631	52.74
369.842	42.5
370.053	48.64
370.264	48.64
370.474	87.55
370.685	112.13
370.896	85.5
371.107	93.69
371.317	3.58
371.528	-6.66
371.739	26.11
371.95	75.26
372.16	60.93
372.371	40.45
372.582	85.5
372.792	101.89
373.003	58.88
373.214	93.69
373.424	-20.99
373.635	62.98
373.846	56.83
374.056	-31.23
374.267	69.12
374.477	69.12
374.688	36.35
374.898	36.35
375.109	110.08
375.319	19.97
375.53	128.51
375.74	28.16
375.951	1.54
376.161	89.6
376.372	58.88
376.582	-12.8
376.793	19.97
377.003	7.68
377.214	34.3
377.424	69.12
377.635	32.26
377.845	-29.18
378.055	28.16
378.266	36.35
378.476	19.97
378.686	34.3
378.897	-29.18
379.107	-8.7
379.317	19.97
379.528	24.06
379.738	85.5
379.948	50.69
380.158	85.5
380.369	13.82
380.579	32.26
380.789	105.98
380.999	32.26
381.21	56.83
381.42	75.26
381.63	-0.51
381.84	62.98
382.05	52.74
382.261	67.07
382.471	-20.99
382.681	34.3
382.891	13.82
383.101	71.17
383.311	9.73
383.521	17.92
383.731	28.16
383.941	89.6
384.151	-25.09
384.361	26.11
384.571	83.45
384.781	34.3
384.991	42.5
385.201	71.17
385.411	85.5
385.621	-76.29
385.831	118.27
386.041	30.21
386.251	-4.61
386.461	7.68
386.671	67.07
386.881	30.21
387.091	1.54
387.301	22.02
387.511	38.4
387.72	67.07
387.93	56.83
388.14	28.16
388.35	62.98
388.56	-39.42
388.769	69.12
388.979	60.93
389.189	60.93
389.399	67.07
389.609	71.17
389.818	81.41
390.028	83.45
390.238	-37.38
390.447	13.82
390.657	87.55
390.867	19.97
391.076	-82.43
391.286	112.13
391.496	38.4
391.705	24.06
391.915	75.26
392.125	26.11
392.334	77.31
392.544	65.02
392.753	30.21
392.963	58.88
393.172	58.88
393.382	15.87
393.591	112.13
393.801	67.07
394.01	101.89
394.22	34.3
394.429	34.3
394.639	89.6
394.848	36.35
395.058	101.89
395.267	40.45
395.477	81.41
395.686	24.06
395.895	40.45
396.105	108.03
396.314	50.69
396.524	-12.8
396.733	30.21
396.942	142.85
397.152	101.89
397.361	140.8
397.57	85.5
397.78	62.98
397.989	85.5
398.198	114.17
398.407	161.28
398.617	62.98
398.826	81.41
399.035	91.65
399.244	19.97
399.453	30.21
399.663	77.31
399.872	144.89
400.081	101.89
400.29	97.79
400.499	58.88
400.708	114.17
400.917	30.21
401.127	93.69
401.336	11.78
401.545	75.26
401.754	44.54
401.963	97.79
402.172	52.74
402.381	146.94
402.59	81.41
402.799	87.55
403.008	118.27
403.217	171.52
403.426	95.74
403.635	71.17
403.844	175.61
404.053	177.66
404.262	83.45
404.471	95.74
404.68	67.07
404.888	134.65
405.097	73.21
405.306	81.41
405.515	79.36
405.724	73.21
405.933	108.03
406.142	91.65
406.35	196.09
406.559	161.28
406.768	155.13
406.977	181.76
407.185	167.42
407.394	151.04
407.603	97.79
407.812	179.71
408.02	257.53
408.229	179.71
408.438	194.05
408.646	218.62
408.855	208.38
409.064	179.71
409.272	175.61
409.481	220.67
409.69	196.09
409.898	196.09
410.107	218.62
410.315	280.06
410.524	148.99
410.733	249.34
410.941	245.24
411.15	314.88
411.358	271.87
411.567	339.45
411.775	294.4
411.984	302.59
412.192	361.98
412.401	327.16
412.609	390.65
412.818	361.98
413.026	333.31
413.234	460.28
413.443	364.03
413.651	402.94
413.86	407.03
414.068	478.71
414.276	488.95
414.485	486.9
414.693	509.43
414.901	527.86
415.11	611.83
415.318	538.1
415.526	546.3
415.734	587.26
415.943	626.17
416.151	591.35
416.359	607.73
416.567	654.84
416.776	632.31
416.984	706.04
417.192	775.67
417.4	867.83
417.608	779.76
417.817	824.82
418.025	828.92
418.233	900.59
418.441	949.75
418.649	867.83
418.857	1015.28
419.065	998.9
419.273	888.31
419.481	1015.28
419.689	1132.01
419.897	1168.88
420.105	1230.32
420.313	1314.28
420.521	1220.08
420.729	1349.1
420.937	1308.14
421.145	1367.53
421.353	1437.16
421.561	1537.51
421.769	1461.74
421.977	1664.49
422.185	1490.41
422.393	1670.63
422.601	1732.07
422.809	1785.32
423.017	1809.89
423.224	1936.87
423.432	1955.3
423.64	1863.14
423.848	2061.79
424.056	2076.13
424.263	2186.72
424.471	2282.97
424.679	2303.45
424.887	2455
425.094	2518.49
425.302	2534.87
425.51	2661.85
425.718	2831.83
425.925	2643.42
426.133	2713.05
426.341	2883.03
426.548	3046.87
426.756	3020.24
426.964	3073.49
427.171	3368.4
427.379	3347.92
427.586	3448.27
427.794	3544.52
428.001	3696.07
428.209	3937.73
428.417	3825.09
428.624	4107.71
428.832	4058.56
429.039	4076.99
429.247	4081.09
429.454	4548.03
429.662	4625.85
429.869	4406.72
430.076	4777.4
430.284	4574.65
430.491	4681.14
430.699	4986.29
430.906	5062.07
431.114	5352.88
431.321	5385.65
431.528	5447.08
431.736	5805.48
431.943	6045.09
432.15	5834.15
432.358	5887.4
432.565	6407.58
432.772	6079.91
432.979	6698.39
433.187	6763.93
433.394	6745.5
433.601	7050.64
433.808	7200.15
434.016	7067.03
434.223	7538.06
434.43	8013.19
434.637	7900.55
434.844	8277.38
435.052	8553.85
435.259	8592.76
435.466	8543.61
435.673	8428.93
435.88	9137.52
436.087	9610.61
436.294	9495.92
436.501	9217.4
436.708	9317.75
436.915	9581.93
437.122	10155.37
437.329	10278.24
437.537	10427.74
437.743	10591.58
437.95	10562.91
438.157	11165.01
438.364	11517.26
438.571	11416.91
438.778	11488.59
438.985	12793.15
439.192	12127.56
439.399	12469.57
439.606	12293.44
439.813	13088.06
440.02	13837.61
440.227	13313.33
440.433	13409.59
440.64	13831.47
440.847	13819.18
441.054	13714.73
441.261	15043.87
441.467	14894.36
441.674	15029.53
441.881	15684.88
442.088	15404.31
442.294	15441.17
442.501	15707.41
442.708	16131.34
442.914	16850.17
443.121	17569.01
443.328	17181.95
443.534	18453.73
443.741	17911.02
443.948	17566.96
444.154	18963.68
444.361	18744.55
444.568	18642.15
444.774	18830.56
444.981	19238.11
445.187	19584.21
445.394	20569.29
445.6	20045.01
445.807	22258.86
446.013	21556.41
446.22	22185.13
446.426	22629.54
446.633	22703.27
446.839	23825.56
447.046	22791.33
447.252	23792.79
447.459	23633.05
447.665	24196.24
447.871	24718.47
448.078	25746.55
448.284	24517.77
448.491	25371.77
448.697	26522.73
448.903	26684.52
449.11	27212.9
449.316	26907.75
449.522	26909.8
449.728	28101.72
449.935	27858.01
450.141	28124.24
450.347	28603.47
450.553	27839.58
450.76	28079.19
450.966	28945.48
451.172	28714.06
451.378	29453.37
451.584	28718.15
451.791	29901.88
451.997	29715.51
452.203	30295.09
452.409	29797.43
452.615	30155.83
452.821	28734.54
453.027	28707.91
453.233	30155.83
453.44	29023.3
453.646	29357.12
453.852	29301.82
454.058	29834.3
454.264	28937.29
454.47	29516.86
454.676	29074.5
454.882	29666.36
455.088	27487.32
455.294	27868.25
455.5	27970.65
455.705	28230.74
455.911	27004
456.117	26477.68
456.323	26381.42
456.529	25099.39
456.735	26207.34
456.941	25451.64
457.147	25105.54
457.352	24470.67
457.558	24112.27
457.764	23964.82
457.97	23682.2
458.176	22914.21
458.381	23307.42
458.587	21855.41
458.793	22111.41
458.999	20782.27
459.204	22353.07
459.41	21619.89
459.616	20094.16
459.821	20059.34
460.027	20169.93
460.233	19789.01
460.438	19016.93
460.644	19143.9
460.85	18017.52
461.055	17890.54
461.261	18089.2
461.466	16526.6
461.672	16053.52
461.878	17138.94
462.083	16127.24
462.289	15838.48
462.494	15312.15
462.7	14810.4
462.905	14454.05
463.111	15166.74
463.316	15009.05
463.522	14648.61
463.727	14755.1
463.932	14726.43
464.138	14714.14
464.343	14708
464.549	14386.47
464.754	14695.71
464.959	14384.42
465.165	14443.81
465.37	13907.24
465.575	13204.79
465.781	14222.63
465.986	13968.68
466.191	13720.88
466.397	13335.86
466.602	12846.4
466.807	13016.38
467.012	13147.45
467.218	13245.75
467.423	12801.34
467.628	12852.54
467.833	13483.31
468.038	13081.91
468.244	12678.46
468.449	13169.98
468.654	12703.04
468.859	12813.63
469.064	12639.55
469.269	12100.94
469.474	12436.8
469.679	12545.34
469.885	12109.13
470.09	12139.85
470.295	12080.46
470.5	11988.3
470.705	12000.58
470.91	11853.13
471.115	11638.09
471.32	11859.28
471.525	11773.26
471.73	11332.95
471.935	11410.77
472.139	10890.59
472.344	10849.63
472.549	11228.5
472.754	10868.06
472.959	10597.73
473.164	10411.36
473.369	10354.02
473.574	10552.67
473.778	10765.66
473.983	10528.1
474.188	10335.59
474.393	10044.77
474.598	10061.16
474.802	9915.75
475.007	9909.61
475.212	10030.44
475.417	9565.55
475.621	9692.52
475.826	9571.69
476.031	9547.12
476.235	9131.38
476.44	9284.98
476.645	9350.51
476.849	9340.27
477.054	9192.82
477.259	8985.97
477.463	8850.81
477.668	8818.04
477.872	8777.08
478.077	8711.55
478.282	8437.12
478.486	8547.71
478.691	8369.54
478.895	8351.1
479.1	8461.69
479.304	8385.92
479.509	8078.72
479.713	8281.47
479.918	8050.05
480.122	7908.74
480.326	8072.58
480.531	7855.5
480.735	7988.61
480.94	7961.99
481.144	8045.96
481.348	7875.98
481.553	7738.76
481.757	7450
481.961	7800.2
482.166	7806.34
482.37	7785.87
482.574	7550.35
482.778	7687.56
482.983	7927.18
483.187	7869.83
483.391	7642.51
483.595	7681.42
483.8	7785.87
484.004	7888.26
484.208	7761.29
484.412	7720.33
484.616	7730.57
484.821	7742.86
485.025	7624.08
485.229	7646.6
485.433	7832.97
485.637	7818.63
485.841	7722.38
486.045	7634.32
486.249	7814.54
486.453	7732.62
486.657	7751.05
486.861	7769.48
487.065	7589.26
487.269	7695.75
487.473	7601.55
487.677	7949.7
487.881	7882.12
488.085	7740.81
488.289	7906.7
488.493	7714.19
488.697	7783.82
488.901	7769.48
489.105	7744.91
489.309	7990.66
489.512	7871.88
489.716	7931.27
489.92	7820.68
490.124	8031.62
490.328	7968.13
490.531	8027.53
490.735	8041.86
490.939	8060.29
491.143	8027.53
491.346	8052.1
491.55	8254.85
491.754	8189.32
491.958	8195.46
492.161	8189.32
492.365	8263.04
492.569	8424.83
492.772	8013.19
492.976	8416.64
493.18	8383.87
493.383	8312.19
493.587	8516.99
493.79	8576.38
493.994	8422.78
494.197	8652.16
494.401	8834.43
494.605	8793.47
494.808	8797.56
495.012	8756.6
495.215	8830.33
495.419	9067.89
495.622	8981.88
495.825	8971.64
496.029	9289.07
496.232	9258.35
496.436	9336.18
496.639	9526.64
496.843	9461.1
497.046	9545.07
497.249	9618.8
497.453	9825.64
497.656	9903.46
497.859	9794.92
498.063	10044.77
498.266	10257.76
498.469	10186.08
498.673	10448.22
498.876	10493.28
499.079	10640.73
499.282	10757.47
499.485	10806.62
499.689	11064.66
499.892	11195.73
500.095	11173.21
500.298	11634
500.501	11324.76
500.705	11515.22
500.908	11803.98
501.111	11916.62
501.314	12035.4
501.517	12102.98
501.72	12338.5
501.923	12432.71
502.126	12569.92
502.329	12868.92
502.532	12889.4
502.735	12963.13
502.938	13282.61
503.141	13233.46
503.344	13684.02
503.547	13573.42
503.75	13794.61
503.953	13954.35
504.156	14120.23
504.359	14202.15
504.562	14286.12
504.765	14642.46
504.968	14613.79
505.17	14877.98
505.373	15033.63
505.576	15265.05
505.779	15521.04
505.982	15707.41
506.185	15777.04
506.387	15867.15
506.59	16248.07
506.793	16373
506.996	16479.49
507.198	16825.6
507.401	16887.04
507.604	17108.22
507.807	17380.6
508.009	17612.02
508.212	17540.34
508.415	17755.38
508.617	18023.66
508.82	18248.94
509.022	18201.83
509.225	18656.48
509.428	18681.06
509.63	19135.71
509.833	19012.83
510.035	19459.29
510.238	19403.99
510.44	19725.52
510.643	20032.72
510.845	20194.51
511.048	20167.88
511.25	20536.52
511.453	20929.73
511.655	21419.19
511.858	21195.96
512.06	21591.22
512.262	21820.6
512.465	21910.71
512.667	22121.65
512.87	22439.08
513.072	22693.03
513.274	22924.45
513.477	22910.11
513.679	23526.55
513.881	23549.08
514.084	24118.42
514.286	24179.86
514.488	24382.6
514.69	25035.91
514.893	25029.76
515.095	24962.18
515.297	25379.96
515.499	25658.49
515.701	25918.58
515.904	26150
516.106	26487.92
516.308	26649.71
516.51	27038.82
516.712	26934.37
516.914	27366.49
517.116	27823.19
517.318	27665.5
517.52	28066.9
517.722	28361.81
517.925	28898.38
518.127	29113.41
518.329	29099.08
518.531	29088.84
518.733	30155.83
518.935	29930.55
519.136	30190.64
519.338	30567.47
519.54	30835.75
519.742	31239.2
519.944	31341.6
520.146	31837.21
520.348	32078.87
520.55	32345.11
520.752	32384.02
520.954	33043.46
521.155	32670.73
521.357	33448.96
521.559	33485.83
521.761	34194.42
521.963	33977.34
522.164	34309.11
522.366	34495.47
522.568	34995.18
522.77	35103.72
522.971	35791.84
523.173	35423.2
523.375	35697.63
523.576	35939.29
523.778	35693.54
523.98	36631.51
524.181	36838.35
524.383	36772.81
524.584	37303.24
524.786	37424.07
524.988	37176.26
525.189	37833.66
525.391	38134.71
525.592	38169.53
525.794	38241.21
525.995	38370.23
526.197	38476.72
526.398	38585.27
526.6	38941.61
526.801	39285.67
527.003	39164.84
527.204	39531.43
527.406	39803.81
527.607	39701.41
527.808	40059.8
528.01	39639.97
528.211	39873.44
528.412	40827.79
528.614	40567.7
528.815	40899.47
529.016	41180.04
529.218	40819.6
529.419	40887.18
529.62	40590.23
529.822	41091.98
530.023	41300.87
530.224	41268.11
530.425	41829.25
530.626	41296.78
530.828	41300.87
531.029	42126.21
531.23	41599.88
531.431	42058.62
531.632	41988.99
531.833	42038.14
532.035	42142.59
532.236	42331
532.437	42529.66
532.638	42296.19
532.839	42498.94
533.04	42560.37
533.241	41722.76
533.442	43148.14
533.643	42959.73
533.844	42410.87
534.045	42642.29
534.246	42754.93
534.447	43221.87
534.648	42785.65
534.849	42720.12
535.05	42728.31
535.251	43389.8
535.451	42974.06
535.652	43377.51
535.853	43139.95
536.054	43268.97
536.255	43203.44
536.456	43354.99
536.657	43385.71
536.857	43185.01
537.058	43051.89
537.259	43627.37
537.46	43461.48
537.66	43422.57
537.861	43516.78
538.062	43053.94
538.263	43559.78
538.463	42994.54
538.664	43072.37
538.865	43840.36
539.065	43610.98
539.266	42916.72
539.466	43606.89
539.667	43203.44
539.868	44004.19
540.068	42808.18
540.269	43524.97
540.469	43666.28
540.67	43459.43
540.87	42963.82
541.071	43373.42
541.271	43594.6
541.472	43545.45
541.672	43268.97
541.873	43256.68
542.073	42830.71
542.274	43418.47
542.474	43604.84
542.675	43359.08
542.875	43621.22
543.075	43363.18
543.276	43111.28
543.476	43551.59
543.676	43250.54
543.877	43705.19
544.077	43610.98
544.277	43574.12
544.478	43432.81
544.678	43950.95
544.878	43819.88
545.078	43866.98
545.279	43547.5
545.479	43639.65
545.679	43588.45
545.879	43625.32
546.079	43273.07
546.28	43252.59
546.48	42996.59
546.68	43717.48
546.88	43436.91
547.08	43500.39
547.28	43424.62
547.48	43277.16
547.68	43869.03
547.88	43166.57
548.081	43285.36
548.281	43510.63
548.481	43283.31
548.681	43391.85
548.881	43770.72
549.081	43150.19
549.28	43299.69
549.48	44335.96
549.68	43418.47
549.88	43883.36
550.08	43230.06
550.28	43367.27
550.48	43275.12
550.68	43744.1
550.88	43092.85
551.08	43580.26
551.279	43449.19
551.479	43447.15
551.679	43635.56
551.879	43555.69
552.079	43721.57
552.278	42857.33
552.478	43363.18
552.678	43633.51
552.878	43707.24
553.077	43090.8
553.277	43844.45
553.477	43641.7
553.676	43633.51
553.876	43236.2
554.076	43410.28
554.275	43082.61
554.475	42754.93
554.674	43467.62
554.874	43332.46
555.074	42951.54
555.273	43156.33
555.473	43281.26
555.672	43023.22
555.872	43158.38
556.071	43176.81
556.271	43137.9
556.47	42826.61
556.67	42740.6
556.869	42673.01
557.068	42744.69
557.268	42546.04
557.467	43031.41
557.667	42744.69
557.866	42351.48
558.065	42779.51
558.265	42574.71
558.464	42279.8
558.663	42931.06
558.863	41950.08
559.062	42718.07
559.261	41939.84
559.461	42402.68
559.66	41851.78
559.859	42255.23
560.058	41843.59
560.258	42679.16
560.457	41862.02
560.656	42062.72
560.855	41753.47
561.054	42025.85
561.253	41407.37
561.453	41837.44
561.652	42001.28
561.851	41620.36
562.05	41853.83
562.249	41399.18
562.448	41669.51
562.647	41474.95
562.846	41986.94
563.045	42072.96
563.244	41051.02
563.443	41651.08
563.642	40709.01
563.841	40858.51
564.04	40942.48
564.239	41010.06
564.438	40801.17
564.637	40614.8
564.836	40952.72
565.035	40493.97
565.234	40932.24
565.432	40309.66
565.631	40301.47
565.83	40534.93
566.029	39793.57
566.228	40074.14
566.427	40293.27
566.625	40125.34
566.824	39545.76
567.023	40815.51
567.222	39515.05
567.42	40252.31
567.619	39433.13
567.818	39388.07
568.016	39080.88
568.215	39879.58
568.414	39306.15
568.612	39721.89
568.811	39365.54
569.01	39547.81
569.208	38667.19
569.407	39304.1
569.605	38697.91
569.804	38728.63
570.002	38464.44
570.201	39068.59
570.4	37985.21
570.598	38138.81
570.797	37823.42
570.995	38382.52
571.193	37780.42
571.392	38235.06
571.59	37968.83
571.789	37686.21
571.987	37675.97
572.186	37288.9
572.384	37368.77
572.582	37577.67
572.781	37620.67
572.979	37239.75
573.177	36953.04
573.376	37276.62
573.574	37194.7
573.772	37157.83
573.971	36738
574.169	36625.36
574.367	36504.53
574.565	36807.63
574.763	36439
574.962	36187.1
575.16	36246.49
575.358	36363.22
575.556	35992.54
575.754	36019.16
575.952	35818.46
576.151	36139.99
576.349	35531.75
576.547	35615.71
576.745	35333.09
576.943	35714.02
577.141	35451.88
577.339	35208.17
577.537	35236.84
577.735	35099.62
577.933	34817
578.131	35044.33
578.329	35046.38
578.527	34655.22
578.725	34817
578.923	34710.51
579.121	34247.67
579.319	34358.26
579.516	34628.59
579.714	34124.79
579.912	34132.98
580.11	34073.59
580.308	34178.04
580.506	34249.72
580.704	33250.31
580.901	34034.68
581.099	33960.95
581.297	33481.73
581.495	33516.54
581.692	33676.29
581.89	33174.53
582.088	33377.28
582.285	33063.94
582.483	33211.4
582.681	33117.19
582.878	32875.53
583.076	32416.79
583.274	32697.36
583.471	32654.35
583.669	32711.69
583.866	31958.04
584.064	32220.18
584.262	32003.1
584.459	32506.9
584.657	32214.04
584.854	32052.25
585.052	31611.93
585.249	31724.57
585.447	31794.2
585.644	31286.31
585.841	31474.72
586.039	31794.2
586.236	30911.53
586.434	31073.32
586.631	30690.35
586.828	31036.45
587.026	30919.72
587.223	31286.31
587.42	30749.74
587.618	31013.93
587.815	30590
588.012	30475.31
588.21	30325.81
588.407	30454.83
588.604	30278.71
588.801	30207.03
588.999	30080.05
589.196	29928.5
589.393	29955.13
589.59	29338.69
589.787	29729.85
589.984	29547.58
590.182	29336.64
590.379	29799.48
590.576	29234.24
590.773	29641.79
590.97	29172.8
591.167	29037.64
591.364	28802.12
591.561	29254.72
591.758	28556.36
591.955	28898.38
592.152	28814.41
592.349	28501.07
592.546	28554.32
592.743	28740.68
592.94	28091.48
593.137	28556.36
593.334	28320.85
593.531	27647.07
593.727	27880.53
593.924	28474.45
594.121	27968.6
594.318	28050.52
594.515	27774.04
594.712	27898.97
594.908	27489.37
595.105	27235.42
595.302	27378.78
595.499	27145.31
595.696	27231.33
595.892	27151.46
596.089	27282.53
596.286	27327.58
596.482	27272.29
596.679	27262.05
596.876	27241.57
597.072	26698.86
597.269	26825.83
597.466	26459.24
597.662	26588.27
597.859	26645.61
598.055	26365.04
598.252	26129.52
598.448	26293.36
598.645	26100.85
598.841	25584.76
599.038	25451.64
599.234	26145.91
599.431	25529.47
599.627	25549.95
599.824	25820.28
600.02	25439.36
600.217	25443.45
600.413	25316.48
600.609	25363.58
600.806	25123.97
601.002	25461.88
601.198	25240.7
601.395	24941.7
601.591	24765.57
601.787	25003.14
601.984	24804.49
602.18	24816.77
602.376	24630.41
602.572	24478.86
602.769	24646.79
602.965	24327.31
603.161	24378.51
603.357	24388.75
603.553	24056.98
603.75	23981.2
603.946	24206.48
604.142	24288.4
604.338	23911.57
604.534	24016.02
604.73	23575.7
604.926	23706.77
605.122	23684.25
605.318	23639.19
605.514	23340.19
605.71	23352.48
605.906	23452.83
606.102	23250.08
606.298	23471.26
606.494	23284.89
606.69	23334.04
606.886	23127.2
607.082	22709.41
607.278	23170.21
607.474	22293.68
607.67	22830.24
607.866	22744.23
608.062	23047.33
608.257	22613.16
608.453	22670.5
608.649	22736.04
608.845	22334.64
609.041	22199.47
609.236	22346.92
609.432	22318.25
609.628	22222
609.824	22111.41
610.019	21931.19
610.215	22201.52
610.411	22058.16
610.606	21853.36
610.802	22082.74
610.998	21927.09
611.193	21636.28
611.389	21865.65
611.584	21675.19
611.78	21468.34
611.976	21535.93
612.171	21550.26
612.367	21484.73
612.562	21560.5
612.758	21146.81
612.953	21255.36
613.149	21580.98
613.344	21036.22
613.539	21370.04
613.735	21361.85
613.93	21404.86
614.126	21288.12
614.321	21126.33
614.517	21050.56
614.712	20991.17
614.907	20958.4
615.103	21013.7
615.298	20829.38
615.493	20884.67
615.688	20696.26
615.884	21032.13
616.079	20542.66
616.274	21005.5
616.47	20808.9
616.665	20845.76
616.86	20536.52
617.055	20624.58
617.25	20442.31
617.445	20372.68
617.641	19987.66
617.836	20376.78
618.031	19707.09
618.226	19938.51
618.421	20067.53
618.616	20147.4
618.811	19770.58
619.006	20059.34
619.201	19530.97
619.396	19684.56
619.591	19471.57
619.786	19801.3
619.981	19367.13
620.176	19520.73
620.371	19279.07
620.566	19207.39
620.761	18953.44
620.956	19158.24
621.151	18922.72
621.346	18851.04
621.541	18687.2
621.735	18824.42
621.93	18275.56
622.125	18296.04
622.32	18367.72
622.515	18658.53
622.709	17992.94
622.904	18140.4
623.099	18007.28
623.294	17917.17
623.488	17845.49
623.683	17841.39
623.878	17349.88
624.072	17638.64
624.267	17382.65
624.462	17360.12
624.656	17067.26
624.851	17310.97
625.046	17204.47
625.24	16971.01
625.435	16997.63
625.629	16891.13
625.824	16678.15
626.018	16827.65
626.213	16383.24
626.407	16610.56
626.602	16299.27
626.796	16348.42
626.991	16373
627.185	16258.31
627.38	15910.16
627.574	15932.68
627.768	15848.72
627.963	15844.62
628.157	15770.9
628.352	15615.25
628.546	15398.17
628.74	15396.12
628.935	15443.22
629.129	15258.9
629.323	14722.34
629.517	14996.76
629.712	15015.19
629.906	14970.14
630.1	14972.19
630.294	14759.2
630.489	14748.96
630.683	14794.01
630.877	14398.76
631.071	14583.07
631.265	14396.71
631.459	14236.97
631.653	14087.47
631.848	14212.39
632.042	14144.81
632.236	14087.47
632.43	13911.34
632.624	13794.61
632.818	13860.14
633.012	13782.32
633.206	13479.22
633.4	13698.35
633.594	13368.63
633.788	13360.44
633.982	13282.61
634.176	13217.08
634.369	13217.08
634.563	13249.85
634.757	13200.69
634.951	13112.63
635.145	12660.03
635.339	12956.99
635.533	12887.36
635.726	12600.64
635.92	12651.84
636.114	12754.24
636.308	12627.26
636.501	12420.42
636.695	12492.1
636.889	12016.97
637.083	12350.79
637.276	12019.02
637.47	12229.96
637.664	11982.15
637.857	11859.28
638.051	11953.48
638.244	11889.99
638.438	11720.01
638.632	11629.9
638.825	11642.19
639.019	11459.92
639.212	11496.78
639.406	11668.81
639.599	11335
639.793	11306.32
639.986	11029.85
640.18	11160.92
640.373	11208.02
640.567	10773.85
640.76	10845.53
640.954	10749.28
641.147	10829.15
641.34	10820.95
641.534	10763.61
641.727	10767.71
641.92	10581.34
642.114	10689.88
642.307	10532.19
642.5	10487.14
642.694	10245.48
642.887	10231.14
643.08	10349.92
643.273	10171.75
643.467	10081.64
643.66	9979.24
643.853	9882.99
644.046	9655.66
644.239	9887.08
644.432	9905.51
644.626	9719.15
644.819	9713
645.012	9526.64
645.205	9403.76
645.398	9586.03
645.591	9325.94
645.784	9309.55
645.977	9207.16
646.17	9358.71
646.363	9014.65
646.556	8916.34
646.749	9028.98
646.942	9100.66
647.135	8967.54
647.328	8787.32
647.521	8891.77
647.714	8580.48
647.907	8727.93
648.099	8617.34
648.292	8744.31
648.485	8633.72
648.678	8633.72
648.871	8584.57
649.064	8437.12
649.256	8537.47
649.449	8322.43
649.642	8338.82
649.835	8144.26
650.027	8086.92
650.22	8084.87
650.413	8086.92
650.605	7994.76
650.798	8166.79
650.991	7880.07
651.183	7951.75
651.376	7861.64
651.568	7589.26
651.761	7904.65
651.954	7837.06
652.146	7767.43
652.339	7832.97
652.531	7531.92
652.724	7464.33
652.916	7376.27
653.109	7734.67
653.301	7564.68
653.494	7468.43
653.686	7353.74
653.879	7470.48
654.071	7390.61
654.263	7353.74
654.456	7132.56
654.648	7146.9
654.84	7101.84
655.033	7136.66
655.225	7026.07
655.417	7095.7
655.61	7105.94
655.802	7071.12
655.994	6866.33
656.186	7077.27
656.379	6843.8
656.571	6774.17
656.763	6821.27
656.955	6675.87
657.148	6806.94
657.34	6704.54
657.532	6471.07
657.724	6524.32
657.916	6526.36
658.108	6671.77
658.3	6362.53
658.492	6436.25
658.684	6481.31
658.876	6249.89
659.068	6325.66
659.26	6491.55
659.452	6258.08
659.644	6235.55
659.836	6120.87
660.028	6129.06
660.22	6051.24
660.412	6030.76
660.604	6112.67
660.796	5946.79
660.988	5975.46
661.18	5920.17
661.372	5850.53
661.563	5803.43
661.755	5766.57
661.947	5809.58
662.139	5807.53
662.331	5617.07
662.522	5768.62
662.714	5606.83
662.906	5719.46
663.097	5592.49
663.289	5510.57
663.481	5516.72
663.673	5492.14
663.864	5481.9
664.056	5449.13
664.247	5340.59
664.439	5195.18
664.631	5330.35
664.822	5293.49
665.014	5451.18
665.205	5234.1
665.397	5246.38
665.588	5293.49
665.78	5125.55
665.971	5080.5
666.163	5180.85
666.354	5203.38
666.546	5103.03
666.737	4887.99
666.929	4969.91
667.12	5033.4
667.311	4861.37
667.503	4861.37
667.694	4996.53
667.885	4871.61
668.077	4935.09
668.268	4785.59
668.459	4928.95
668.651	4662.71
668.842	4697.53
669.033	4767.16
669.224	4554.17
669.416	4670.9
669.607	4689.34
669.798	4781.5
669.989	4644.28
670.18	4697.53
670.371	4617.66
670.563	4623.8
670.754	4486.59
670.945	4646.33
671.136	4502.97
671.327	4554.17
671.518	4591.03
671.709	4441.53
671.9	4453.82
672.091	4511.16
672.282	4423.1
672.473	4457.92
672.664	4486.59
672.855	4441.53
673.046	4330.94
673.237	4324.8
673.428	4330.94
673.619	4259.26
673.809	4373.95
674	4185.54
674.191	4269.5
674.382	4316.61
674.573	4353.47
674.764	4249.02
674.954	4230.59
675.145	4330.94
675.336	4134.34
675.527	4185.54
675.717	4289.98
675.908	4240.83
676.099	4206.02
676.289	4171.2
676.48	4296.13
676.671	4120
676.861	4298.17
677.052	4146.62
677.243	4259.26
677.433	4111.81
677.624	4124.1
677.814	4242.88
678.005	4253.12
678.195	4179.39
678.386	4140.48
678.576	4167.1
678.767	4044.23
678.957	4156.86
679.148	4165.06
679.338	4109.76
679.529	4019.65
679.719	4066.75
679.909	4054.47
680.1	4027.84
680.29	4064.71
680.481	4015.55
680.671	4249.02
680.861	3995.08
681.052	4046.27
681.242	3984.84
681.432	4177.34
681.622	4079.04
681.813	4011.46
682.003	3974.6
682.193	4005.31
682.383	4136.38
682.573	4115.91
682.764	3982.79
682.954	3950.02
683.144	3933.64
683.334	3993.03
683.524	3956.16
683.714	4103.62
683.904	4042.18
684.094	4105.67
684.284	3945.92
684.474	3960.26
684.664	3956.16
684.854	3993.03
685.044	3855.81
685.234	3915.2
685.424	3995.08
685.614	3978.69
685.804	3937.73
685.994	3941.83
686.184	4029.89
686.374	3958.21
686.564	3872.2
686.753	3923.4
686.943	3771.85
687.133	3843.53
687.323	3890.63
687.513	3802.57
687.702	3839.43
687.892	3755.46
688.082	3915.2
688.272	3829.19
688.461	3841.48
688.651	3689.93
688.841	3855.81
689.03	3788.23
689.22	3743.17
689.41	3777.99
689.599	3722.7
689.789	3718.6
689.979	3694.02
690.168	3806.66
690.358	3706.31
690.547	3661.26
690.737	3591.63
690.926	3728.84
691.116	3587.53
691.305	3706.31
691.495	3618.25
691.684	3679.69
691.874	3569.1
692.063	3622.34
692.252	3614.15
692.442	3605.96
692.631	3673.54
692.82	3519.95
693.01	3710.41
693.199	3546.57
693.388	3579.34
693.578	3530.19
693.767	3665.35
693.956	3532.23
694.146	3581.39
694.335	3454.41
694.524	3530.19
694.713	3644.87
694.902	3368.4
695.092	3442.12
695.281	3593.67
695.47	3464.65
695.659	3524.04
695.848	3589.58
696.037	3534.28
696.226	3444.17
696.415	3575.24
696.604	3378.64
696.793	3399.12
696.982	3349.96
697.171	3425.74
697.36	3583.43
697.549	3358.16
697.738	3401.16
697.927	3329.49
698.116	3569.1
698.305	3388.88
698.494	3329.49
698.683	3354.06
698.872	3513.8
699.061	3372.49
699.25	3390.92
699.438	3532.23
699.627	3370.44
699.816	3487.18
700.005	3456.46
700.193	3354.06
700.382	3448.27
700.571	3427.79
700.76	3442.12
700.948	3519.95
701.137	3259.85
701.326	3425.74
701.514	3386.83
701.703	3456.46
701.892	3249.61
702.08	3419.6
702.269	3452.36
702.457	3321.29
702.646	3521.99
702.834	3397.07
703.023	3300.81
703.212	3519.95
703.4	3311.05
703.589	3257.81
703.777	3255.76
703.965	3335.63
704.154	3292.62
704.342	3296.72
704.531	3296.72
704.719	3327.44
704.907	3220.94
705.096	3315.15
705.284	3243.47
705.472	3272.14
705.661	3376.59
705.849	3306.96
706.037	3415.5
706.226	3292.62
706.414	3253.71
706.602	3206.61
706.79	3245.52
706.979	3362.25
707.167	3251.66
707.355	3266
707.543	3130.83
707.731	3390.92
707.919	3182.03
708.107	3259.85
708.296	3282.38
708.484	3143.12
708.672	3341.77
708.86	3270.09
709.048	3337.68
709.236	3118.54
709.424	3241.42
709.612	3100.11
709.8	3093.97
709.988	3243.47
710.176	3345.87
710.364	3266
710.551	3159.5
710.739	3304.91
710.927	3321.29
711.115	3225.04
711.303	3151.31
711.491	3124.69
711.679	3182.03
711.866	3270.09
712.054	3309.01
712.242	3182.03
712.43	3179.98
712.617	3231.18
712.805	3214.8
712.993	3141.07
713.181	3167.7
713.368	3212.75
713.556	3139.02
713.744	3136.98
713.931	3358.16
714.119	3116.5
714.306	3358.16
714.494	3143.12
714.682	3069.39
714.869	3169.74
715.057	3159.5
715.244	3161.55
715.432	3157.46
715.619	3222.99
715.807	3116.5
715.994	3208.66
716.182	3165.65
716.369	3098.06
716.556	3198.42
716.744	3108.3
716.931	3163.6
717.119	3098.06
717.306	3245.52
717.493	3077.59
717.681	3206.61
717.868	3061.2
718.055	3163.6
718.242	3110.35
718.43	3053.01
718.617	3235.28
718.804	3075.54
718.991	3192.27
719.179	3083.73
719.366	3190.22
719.553	3354.06
719.74	2991.57
719.927	3102.16
720.114	3200.46
720.301	3177.94
720.488	3163.6
720.676	3153.36
720.863	3139.02
721.05	3130.83
721.237	3120.59
721.424	3136.98
721.611	3050.96
721.798	3126.74
721.985	3098.06
722.172	3063.25
722.358	2940.37
722.545	3038.67
722.732	3038.67
722.919	3106.26
723.106	3085.78
723.293	2987.47
723.48	3081.68
723.667	2993.62
723.853	2954.71
724.04	3020.24
724.227	3116.5
724.414	3053.01
724.6	3055.06
724.787	2930.13
724.974	3110.35
725.161	2940.37
725.347	2952.66
725.534	3001.81
725.72	3040.72
725.907	2940.37
726.094	2956.75
726.28	2964.95
726.467	2940.37
726.653	3059.15
726.84	2938.32
727.027	3010
727.213	2897.36
727.4	2932.18
727.586	2946.52
727.773	2885.08
727.959	3010
728.145	2872.79
728.332	2911.7
728.518	2792.92
728.705	2905.56
728.891	2825.68
729.077	2829.78
729.264	2909.65
729.45	2938.32
729.636	2979.28
729.823	2876.88
730.009	2926.04
730.195	2907.6
730.382	2880.98
730.568	2901.46
730.754	2891.22
730.94	2897.36
731.126	2901.46
731.313	2848.21
731.499	2825.68
731.685	2866.64
731.871	2852.31
732.057	2913.75
732.243	2809.3
732.429	2819.54
732.615	2878.93
732.801	2905.56
732.987	2911.7
733.173	2827.73
733.359	2858.45
733.545	2854.36
733.731	2825.68
733.917	2819.54
734.103	2833.88
734.289	2883.03
734.475	2803.16
734.661	2919.89
734.847	2805.21
735.033	2743.77
735.219	2878.93
735.404	2956.75
735.59	2729.43
735.776	2774.49
735.962	2729.43
736.148	2694.61
736.333	2655.7
736.519	2754.01
736.705	2809.3
736.89	2907.6
737.076	2749.91
737.262	2592.22
737.447	2713.05
737.633	2819.54
737.819	2721.24
738.004	2559.45
738.19	2686.42
738.375	2692.57
738.561	2751.96
738.747	2686.42
738.932	2682.33
739.118	2672.09
739.303	2688.47
739.489	2616.79
739.674	2641.37
739.859	2592.22
740.045	2715.09
740.23	2645.46
740.416	2530.78
740.601	2690.52
740.786	2522.59
740.972	2524.63
741.157	2573.78
741.342	2444.76
741.528	2512.35
741.713	2598.36
741.898	2588.12
742.084	2592.22
742.269	2538.97
742.454	2541.02
742.639	2473.43
742.824	2520.54
743.01	2553.31
743.195	2530.78
743.38	2473.43
743.565	2555.35
743.75	2475.48
743.935	2491.87
744.12	2385.37
744.305	2297.31
744.49	2438.62
744.675	2461.15
744.86	2379.23
745.045	2444.76
745.23	2403.8
745.415	2354.65
745.6	2356.7
745.785	2416.09
745.97	2430.43
746.155	2297.31
746.34	2364.89
746.525	2285.02
746.71	2321.88
746.895	2192.86
747.079	2115.04
747.264	2180.57
747.449	2227.68
747.634	2260.45
747.819	2239.97
748.003	2229.73
748.188	2119.14
748.373	2098.66
748.557	2059.74
748.742	2080.22
748.927	2031.07
749.111	2072.03
749.296	1947.11
749.481	2053.6
749.665	2084.32
749.85	1967.59
750.034	1994.21
750.219	1922.53
750.404	2059.74
750.588	1922.53
750.773	2094.56
750.957	1920.48
751.141	1973.73
751.326	1936.87
751.51	1981.92
751.695	1818.08
751.879	1854.95
752.064	1879.52
752.248	1893.86
752.432	1832.42
752.617	1828.32
752.801	1832.42
752.985	1822.18
753.17	1881.57
753.354	1760.74
753.538	1723.88
753.722	1666.53
753.907	1723.88
754.091	1660.39
754.275	1691.11
754.459	1742.31
754.643	1617.38
754.828	1646.05
755.012	1635.82
755.196	1641.96
755.38	1603.05
755.564	1621.48
755.748	1609.19
755.932	1517.03
756.116	1543.66
756.3	1664.49
756.484	1596.9
756.668	1555.94
756.852	1531.37
757.036	1492.46
757.22	1504.75
757.404	1584.62
757.588	1553.9
757.772	1551.85
757.956	1539.56
758.14	1498.6
758.323	1404.39
758.507	1388.01
758.691	1490.41
758.875	1385.96
759.059	1422.83
759.242	1431.02
759.426	1289.71
759.61	1404.39
759.794	1367.53
759.977	1412.59
760.161	1369.58
760.345	1502.7
760.528	1349.1
760.712	1342.96
760.895	1345
761.079	1318.38
761.263	1283.56
761.446	1295.85
761.63	1236.46
761.813	1363.44
761.997	1312.24
762.18	1297.9
762.364	1355.24
762.547	1248.75
762.731	1240.56
762.914	1271.28
763.098	1285.61
763.281	1222.13
763.464	1320.43
763.648	1308.14
763.831	1254.89
764.015	1258.99
764.198	1248.75
764.381	1187.31
764.564	1199.6
764.748	1142.25
764.931	1113.58
765.114	1146.35
765.297	1218.03
765.481	1168.88
765.664	1226.22
765.847	1132.01
766.03	1107.44
766.213	1158.64
766.397	1078.77
766.58	1070.58
766.763	1205.74
766.946	1070.58
767.129	1138.16
767.312	1166.83
767.495	1164.78
767.678	1021.42
767.861	1050.1
768.044	1152.49
768.227	1060.34
768.41	1099.25
768.593	1070.58
768.776	1005.04
768.959	1084.91
769.142	1101.3
769.324	1091.06
769.507	1183.21
769.69	1029.62
769.873	949.75
770.056	1117.68
770.239	1023.47
770.421	1064.43
770.604	1041.9
770.787	1035.76
770.97	923.12
771.152	1027.57
771.335	968.18
771.518	986.61
771.7	937.46
771.883	1035.76
772.066	994.8
772.248	888.31
772.431	1054.19
772.613	951.79
772.796	933.36
772.978	933.36
773.161	927.22
773.343	929.27
773.526	904.69
773.708	900.59
773.891	878.07
774.073	912.88
774.256	857.59
774.438	867.83
774.621	839.16
774.803	794.1
774.985	892.4
775.168	828.92
775.35	847.35
775.532	869.87
775.715	826.87
775.897	890.35
776.079	865.78
776.261	802.29
776.444	798.2
776.626	878.07
776.808	828.92
776.99	839.16
777.173	890.35
777.355	830.96
777.537	787.96
777.719	830.96
777.901	765.43
778.083	724.47
778.265	724.47
778.447	777.72
778.629	701.94
778.811	783.86
778.993	812.53
779.175	716.28
779.357	779.76
779.539	763.38
779.721	624.12
779.903	585.21
780.085	685.56
780.267	579.06
780.449	679.41
780.631	728.56
780.812	765.43
780.994	660.98
781.176	787.96
781.358	620.02
781.54	667.13
781.721	587.26
781.903	667.13
782.085	671.22
782.267	718.33
782.448	624.12
782.63	663.03
782.812	613.88
782.993	507.38
783.175	624.12
783.357	566.78
783.538	583.16
783.72	577.02
783.901	499.19
784.083	540.15
784.264	652.79
784.446	503.29
784.627	562.68
784.809	591.35
784.99	597.49
785.172	542.2
785.353	574.97
785.535	556.54
785.716	531.96
785.897	445.95
786.079	562.68
786.26	497.14
786.441	468.47
786.623	534.01
786.804	597.49
786.985	497.14
787.167	562.68
787.348	425.47
787.529	447.99
787.71	497.14
787.891	511.48
788.073	466.42
788.254	529.91
788.435	525.82
788.616	419.32
788.797	464.38
788.978	390.65
789.159	499.19
789.34	507.38
789.522	484.86
789.703	421.37
789.884	486.9
790.065	343.55
790.246	421.37
790.427	378.36
790.607	415.23
790.788	382.46
790.969	423.42
791.15	392.7
791.331	470.52
791.512	425.47
791.693	478.71
791.874	435.71
792.054	527.86
792.235	419.32
792.416	427.51
792.597	392.7
792.778	372.22
792.958	384.51
793.139	417.27
793.32	423.42
793.5	316.92
793.681	423.42
793.862	370.17
794.042	392.7
794.223	312.83
794.404	355.83
794.584	407.03
794.765	427.51
794.945	275.96
795.126	398.84
795.306	364.03
795.487	364.03
795.667	343.55
795.848	407.03
796.028	294.4
796.209	372.22
796.389	366.07
796.57	421.37
796.75	329.21
796.93	345.59
797.111	347.64
797.291	349.69
797.471	308.73
797.652	306.68
797.832	267.77
798.012	372.22
798.192	380.41
798.373	331.26
798.553	296.44
798.733	286.2
798.913	329.21
799.093	261.63
799.274	318.97
799.454	300.54
799.634	341.5
799.814	312.83
799.994	253.44
800.174	275.96
800.354	280.06
800.534	265.72
800.714	280.06
800.894	333.31
801.074	302.59
801.254	200.19
801.434	257.53
801.614	251.39
801.794	249.34
801.974	675.32
802.154	302.59
802.334	298.49
802.514	216.57
802.693	304.64
802.873	275.96
803.053	308.73
803.233	235
803.413	189.95
803.592	235
803.772	239.1
803.952	271.87
804.131	333.31
804.311	284.16
804.491	259.58
804.67	189.95
804.85	284.16
805.03	224.76
805.209	263.68
805.389	204.28
805.568	269.82
805.748	177.66
805.928	249.34
806.107	230.91
806.287	261.63
806.466	185.85
806.646	245.24
806.825	224.76
807.004	226.81
807.184	218.62
807.363	269.82
807.543	222.72
807.722	194.05
807.901	222.72
808.081	192
808.26	134.65
808.439	163.33
808.619	253.44
808.798	280.06
808.977	196.09
809.156	165.37
809.336	214.52
809.515	232.96
809.694	179.71
809.873	157.18
810.052	206.33
810.231	181.76
810.411	267.77
810.59	198.14
810.769	144.89
810.948	218.62
811.127	151.04
811.306	222.72
811.485	105.98
811.664	222.72
811.843	216.57
812.022	171.52
812.201	124.41
812.38	194.05
812.559	155.13
812.737	136.7
812.916	112.13
813.095	167.42
813.274	177.66
813.453	212.48
813.632	298.49
813.811	214.52
813.989	216.57
814.168	157.18
814.347	93.69
814.526	134.65
814.704	241.15
814.883	208.38
815.062	167.42
815.24	200.19
815.419	134.65
815.598	108.03
815.776	69.12
815.955	128.51
816.133	65.02
816.312	128.51
816.49	157.18
816.669	167.42
816.847	138.75
817.026	255.48
817.204	73.21
817.383	165.37
817.561	167.42
817.74	173.57
817.918	144.89
818.097	151.04
818.275	67.07
818.453	101.89
818.632	144.89
818.81	171.52
818.988	99.84
819.167	103.93
819.345	128.51
819.523	105.98
819.701	83.45
819.879	151.04
820.058	212.48
820.236	173.57
820.414	95.74
820.592	126.46
820.77	132.61
820.948	116.22
821.127	120.32
821.305	181.76
821.483	110.08
821.661	110.08
821.839	116.22
822.017	110.08
822.195	142.85
822.373	185.85
822.551	146.94
822.729	179.71
822.907	52.74
823.085	71.17
823.262	130.56
823.44	116.22
823.618	157.18
823.796	97.79
823.974	85.5
824.152	214.52
824.329	87.55
824.507	165.37
824.685	194.05
824.863	56.83
825.04	124.41
825.218	134.65
825.396	110.08
825.574	85.5
825.751	128.51
825.929	95.74
826.107	3.58
826.284	30.21
826.462	175.61
826.639	118.27
826.817	28.16
826.994	124.41
827.172	151.04
827.349	99.84
827.527	110.08
827.704	126.46
827.882	101.89
828.059	52.74
828.237	126.46
828.414	79.36
828.591	114.17
828.769	50.69
828.946	67.07
829.124	124.41
829.301	69.12
829.478	134.65
829.655	32.26
829.833	93.69
830.01	73.21
830.187	130.56
830.364	62.98
830.542	85.5
830.719	99.84
830.896	112.13
831.073	87.55
831.25	112.13
831.427	73.21
831.604	67.07
831.782	108.03
831.959	85.5
832.136	103.93
832.313	73.21
832.49	52.74
832.667	44.54
832.844	169.47
833.021	52.74
833.198	46.59
833.374	28.16
833.551	95.74
833.728	85.5
833.905	65.02
834.082	93.69
834.259	60.93
834.436	118.27
834.612	118.27
834.789	-25.09
834.966	146.94
835.143	34.3
835.319	138.75
835.496	89.6
835.673	93.69
835.85	138.75
836.026	54.78
836.203	95.74
836.38	56.83
836.556	48.64
836.733	62.98
836.909	144.89
837.086	93.69
837.262	112.13
837.439	69.12
837.616	103.93
837.792	85.5
837.968	46.59
838.145	44.54
838.321	-4.61
838.498	52.74
838.674	77.31
838.851	46.59
839.027	93.69
839.203	56.83
839.38	116.22
839.556	13.82
839.732	126.46
839.909	75.26
840.085	71.17
840.261	-6.66
840.437	46.59
840.614	81.41
840.79	73.21
840.966	54.78
841.142	81.41
841.318	60.93
841.494	58.88
841.671	62.98
841.847	101.89
842.023	44.54
842.199	71.17
842.375	24.06
842.551	5.63
842.727	13.82
842.903	50.69
843.079	77.31
843.255	71.17
843.431	62.98
843.607	93.69
843.783	15.87
843.959	73.21
844.134	69.12
844.31	89.6
844.486	65.02
844.662	50.69
844.838	44.54
845.013	7.68
845.189	26.11
845.365	9.73
845.541	91.65
845.716	40.45
845.892	-14.85
846.068	13.82
846.244	-2.56
846.419	34.3
846.595	40.45
846.77	13.82
846.946	34.3
847.122	56.83
847.297	-4.61
847.473	50.69
847.648	-18.94
847.824	-78.33
847.999	69.12
848.175	38.4
848.35	9.73
848.526	101.89
848.701	7.68
848.876	32.26
849.052	30.21
849.227	71.17
849.403	50.69
849.578	22.02
849.753	11.78
849.929	52.74
850.104	62.98
850.279	19.97
850.454	-6.66
850.63	62.98
850.805	65.02
850.98	67.07
851.155	-0.51
851.33	19.97
851.505	56.83
851.681	13.82
851.856	26.11
852.031	-31.23
852.206	44.54
852.381	42.5
852.556	48.64
852.731	40.45
852.906	77.31
853.081	73.21
853.256	58.88
853.431	83.45
853.606	81.41
853.781	9.73
853.956	-33.28
854.131	52.74
854.305	52.74
854.48	-14.85
854.655	85.5
854.83	9.73
855.005	17.92
855.18	34.3
855.354	-10.75
855.529	93.69
855.704	28.16
855.879	62.98
856.053	-4.61
856.228	60.93
856.403	-55.81
856.577	54.78
856.752	1.54
856.926	5.63
857.101	5.63
857.276	-16.9
857.45	40.45
857.625	54.78
857.799	9.73
857.974	81.41
858.148	-41.47
858.323	19.97
858.497	73.21
858.672	-12.8
858.846	-6.66
859.02	3.58
859.195	-0.51
859.369	69.12
859.543	-23.04
859.718	-92.67
859.892	-6.66
860.066	7.68
860.241	99.84
860.415	46.59
860.589	11.78
860.763	-12.8
860.938	36.35
861.112	22.02
861.286	58.88
861.46	22.02
861.634	-8.7
861.808	40.45
861.982	-25.09
862.157	-18.94
862.331	89.6
862.505	26.11
862.679	-64
862.853	9.73
863.027	24.06
863.201	62.98
863.375	15.87
863.549	-12.8
863.722	-8.7
863.896	11.78
864.07	52.74
864.244	58.88
864.418	44.54
864.592	22.02
864.766	-29.18
864.939	30.21
865.113	-53.76
865.287	73.21
865.461	46.59
865.634	32.26
865.808	-37.38
865.982	9.73
866.156	15.87
866.329	-25.09
866.503	7.68
866.676	13.82
866.85	-18.94
867.024	36.35
867.197	24.06
867.371	28.16
867.544	54.78
867.718	-20.99
867.891	5.63
868.065	22.02
868.238	5.63
868.412	40.45
868.585	81.41
868.759	54.78
868.932	54.78
869.105	-66.05
869.279	50.69
869.452	7.68
869.625	24.06
869.799	-31.23
869.972	62.98
870.145	-20.99
870.319	28.16
870.492	3.58
870.665	-4.61
870.838	36.35
871.011	-41.47
871.185	15.87
871.358	9.73
871.531	-33.28
871.704	30.21
871.877	69.12
872.05	-14.85
872.223	-49.66
872.396	67.07
872.569	-29.18
872.742	17.92
872.915	-14.85
873.088	-39.42
873.261	62.98
873.434	54.78
873.607	50.69
873.78	34.3
873.953	30.21
874.126	-61.95
874.299	58.88
874.471	30.21
874.644	46.59
874.817	-35.33
874.99	69.12
875.163	9.73
875.335	38.4
875.508	-2.56
875.681	-6.66
875.853	13.82
876.026	5.63
876.199	28.16
876.371	-10.75
876.544	-2.56
876.717	-31.23
876.889	3.58
877.062	17.92
877.234	30.21
877.407	-59.9
877.579	1.54
877.752	28.16
877.924	-2.56
878.097	60.93
878.269	26.11
878.442	-25.09
878.614	-12.8
878.786	22.02
878.959	-35.33
879.131	65.02
879.303	-6.66
879.476	65.02
879.648	97.79
879.82	-23.04
879.993	-27.14
880.165	-43.52
880.337	56.83
880.509	-55.81
880.681	26.11
880.854	-4.61
881.026	-25.09
881.198	89.6
881.37	-39.42
881.542	42.5
881.714	-61.95
881.886	-6.66
882.058	11.78
882.23	7.68
882.402	-10.75
882.574	-2.56
882.746	5.63
882.918	32.26
883.09	-0.51
883.262	54.78
883.434	-53.76
883.606	44.54
883.778	44.54
883.95	48.64
884.122	19.97
884.293	-37.38
884.465	17.92
884.637	69.12
884.809	-33.28
884.98	9.73
885.152	3.58
885.324	52.74
885.496	28.16
885.667	1.54
885.839	19.97
886.011	103.93
886.182	-14.85
886.354	38.4
886.525	19.97
886.697	67.07
886.869	-8.7
887.04	-2.56
887.212	42.5
887.383	118.27
887.555	-64
887.726	40.45
887.897	-20.99
888.069	9.73
888.24	-39.42
888.412	67.07
888.583	5.63
888.754	52.74
888.926	5.63
889.097	9.73
889.268	5.63
889.44	24.06
889.611	-43.52
889.782	9.73
889.953	-12.8
890.125	-41.47
890.296	-47.62
890.467	-20.99
890.638	-41.47
890.809	-23.04
890.98	-12.8
891.151	-20.99
891.323	-4.61
891.494	-0.51
891.665	-25.09
891.836	67.07
892.007	13.82
892.178	-18.94
892.349	48.64
892.52	30.21
892.691	46.59
892.862	7.68
893.032	-61.95
893.203	-16.9
893.374	36.35
893.545	3.58
893.716	1.54
893.887	22.02
894.057	-2.56
894.228	-18.94
894.399	-18.94
894.57	58.88
894.74	-31.23
894.911	58.88
895.082	15.87
895.253	-41.47
895.423	-14.85
895.594	30.21
895.764	-59.9
895.935	-43.52
896.106	-16.9
896.276	-33.28
896.447	-49.66
896.617	15.87
896.788	-33.28
896.958	-25.09
897.129	15.87
897.299	-33.28
897.47	13.82
897.64	-0.51
897.81	-4.61
897.981	-70.14
898.151	-90.62
898.322	48.64
898.492	-66.05
898.662	-39.42
898.832	26.11
899.003	36.35
899.173	7.68
899.343	-49.66
899.513	17.92
