Data from USB4F104151__16__11-51-17-010.txt Node

Date: Fri Mar 14 11:51:17 EDT 2025
User: louis
Spectrometer: USB4F10415
Trigger mode: 4
Integration Time (sec): 2.000000E-2
Scans to average: 1
Electric dark correction enabled: true
Nonlinearity correction enabled: false
Boxcar width: 0
XAxis mode: Wavelengths
Number of Pixels in Spectrum: 3648
>>>>>Begin Spectral Data<<<<<
178.204	-32.94
178.424	-32.94
178.644	-32.94
178.864	-94.38
179.084	-43.18
179.304	3.93
179.524	20.31
179.744	1.88
179.964	-20.65
180.184	-8.36
180.404	-2.22
180.624	12.12
180.844	-14.51
181.064	-8.36
181.283	14.17
181.503	-37.03
181.723	38.74
181.943	-51.37
182.163	67.41
182.383	-16.55
182.602	16.21
182.822	22.36
183.042	-4.27
183.262	-24.75
183.482	20.31
183.701	22.36
183.921	-51.37
184.141	-30.89
184.361	40.79
184.58	-0.17
184.8	55.12
185.02	-6.31
185.239	59.22
185.459	10.07
185.679	85.84
185.898	-14.51
186.118	69.46
186.338	12.12
186.557	20.31
186.777	34.64
186.997	48.98
187.216	20.31
187.436	38.74
187.655	51.03
187.875	-2.22
188.095	-0.17
188.314	24.4
188.534	104.28
188.753	-16.55
188.973	22.36
189.192	46.93
189.412	40.79
189.631	53.08
189.851	34.64
190.07	48.98
190.29	5.97
190.509	-18.6
190.729	-41.13
190.948	12.12
191.168	38.74
191.387	5.97
191.607	-51.37
191.826	-53.42
192.045	-51.37
192.265	89.94
192.484	34.64
192.704	36.69
192.923	-32.94
193.142	48.98
193.362	96.08
193.581	38.74
193.8	-0.17
194.02	10.07
194.239	51.03
194.458	79.7
194.678	20.31
194.897	104.28
195.116	24.4
195.335	-12.46
195.555	63.32
195.774	-53.42
195.993	-24.75
196.212	-16.55
196.432	26.45
196.651	24.4
196.87	46.93
197.089	22.36
197.308	-16.55
197.528	30.55
197.747	-22.7
197.966	-118.95
198.185	63.32
198.404	-6.31
198.623	14.17
198.842	34.64
199.062	-24.75
199.281	36.69
199.5	48.98
199.719	24.4
199.938	1.88
200.157	75.6
200.376	18.26
200.595	-8.36
200.814	22.36
201.033	-26.79
201.252	22.36
201.471	30.55
201.69	73.56
201.909	26.45
202.128	40.79
202.347	34.64
202.566	42.84
202.785	-57.51
203.004	10.07
203.223	118.61
203.442	34.64
203.661	-28.84
203.879	10.07
204.098	42.84
204.317	20.31
204.536	22.36
204.755	91.99
204.974	1.88
205.193	22.36
205.411	28.5
205.63	61.27
205.849	59.22
206.068	32.6
206.287	-32.94
206.505	42.84
206.724	67.41
206.943	-10.41
207.162	-10.41
207.381	-28.84
207.599	-45.23
207.818	30.55
208.037	18.26
208.255	36.69
208.474	10.07
208.693	-30.89
208.911	-2.22
209.13	34.64
209.349	28.5
209.567	69.46
209.786	53.08
210.005	10.07
210.223	8.02
210.442	-14.51
210.661	77.65
210.879	-2.22
211.098	18.26
211.316	8.02
211.535	116.56
211.753	69.46
211.972	57.17
212.191	-8.36
212.409	81.75
212.628	30.55
212.846	30.55
213.065	104.28
213.283	32.6
213.502	-37.03
213.72	-34.99
213.938	53.08
214.157	30.55
214.375	18.26
214.594	-8.36
214.812	98.13
215.031	-12.46
215.249	36.69
215.467	36.69
215.686	22.36
215.904	79.7
216.122	67.41
216.341	28.5
216.559	18.26
216.778	73.56
216.996	3.93
217.214	57.17
217.432	44.88
217.651	-2.22
217.869	63.32
218.087	44.88
218.306	20.31
218.524	20.31
218.742	-39.08
218.96	24.4
219.179	30.55
219.397	-24.75
219.615	38.74
219.833	51.03
220.051	34.64
220.27	44.88
220.488	73.56
220.706	42.84
220.924	-34.99
221.142	51.03
221.36	34.64
221.578	104.28
221.796	16.21
222.015	-10.41
222.233	30.55
222.451	20.31
222.669	16.21
222.887	26.45
223.105	34.64
223.323	30.55
223.541	-75.95
223.759	28.5
223.977	-39.08
224.195	28.5
224.413	42.84
224.631	48.98
224.849	16.21
225.067	89.94
225.285	3.93
225.503	-0.17
225.721	-12.46
225.939	40.79
226.157	36.69
226.375	46.93
226.592	22.36
226.81	83.8
227.028	55.12
227.246	5.97
227.464	20.31
227.682	20.31
227.9	-47.27
228.117	8.02
228.335	71.51
228.553	24.4
228.771	-2.22
228.989	-65.71
229.206	89.94
229.424	14.17
229.642	24.4
229.86	-32.94
230.077	57.17
230.295	44.88
230.513	61.27
230.731	-12.46
230.948	94.04
231.166	55.12
231.384	-37.03
231.601	5.97
231.819	81.75
232.037	73.56
232.254	16.21
232.472	1.88
232.689	-26.79
232.907	8.02
233.125	61.27
233.342	51.03
233.56	18.26
233.777	44.88
233.995	20.31
234.213	104.28
234.43	26.45
234.648	20.31
234.865	55.12
235.083	79.7
235.3	-43.18
235.518	36.69
235.735	-2.22
235.953	26.45
236.17	-4.27
236.388	32.6
236.605	-57.51
236.822	14.17
237.04	22.36
237.257	22.36
237.475	59.22
237.692	89.94
237.909	-20.65
238.127	38.74
238.344	34.64
238.562	40.79
238.779	-12.46
238.996	32.6
239.214	-22.7
239.431	28.5
239.648	40.79
239.865	10.07
240.083	-2.22
240.3	-2.22
240.517	-6.31
240.735	42.84
240.952	46.93
241.169	-0.17
241.386	-6.31
241.603	16.21
241.821	-14.51
242.038	-0.17
242.255	89.94
242.472	-26.79
242.689	-10.41
242.907	57.17
243.124	59.22
243.341	26.45
243.558	67.41
243.775	38.74
243.992	-45.23
244.209	32.6
244.426	48.98
244.643	32.6
244.86	-34.99
245.078	30.55
245.295	120.66
245.512	53.08
245.729	55.12
245.946	42.84
246.163	20.31
246.38	26.45
246.597	-6.31
246.814	-37.03
247.031	-41.13
247.248	-2.22
247.464	61.27
247.681	-0.17
247.898	18.26
248.115	28.5
248.332	69.46
248.549	53.08
248.766	20.31
248.983	38.74
249.2	-6.31
249.417	-8.36
249.633	-37.03
249.85	48.98
250.067	-73.9
250.284	71.51
250.501	44.88
250.717	30.55
250.934	-24.75
251.151	-4.27
251.368	-18.6
251.585	3.93
251.801	42.84
252.018	-41.13
252.235	63.32
252.451	-20.65
252.668	3.93
252.885	38.74
253.102	73.56
253.318	36.69
253.535	-8.36
253.752	18.26
253.968	-71.85
254.185	40.79
254.401	118.61
254.618	-8.36
254.835	10.07
255.051	-26.79
255.268	30.55
255.484	75.6
255.701	108.37
255.917	18.26
256.134	-8.36
256.351	87.89
256.567	8.02
256.784	-4.27
257	-6.31
257.217	26.45
257.433	98.13
257.65	104.28
257.866	18.26
258.082	75.6
258.299	1.88
258.515	-10.41
258.732	18.26
258.948	85.84
259.165	-8.36
259.381	5.97
259.597	-55.47
259.814	40.79
260.03	22.36
260.246	55.12
260.463	-14.51
260.679	65.36
260.895	-4.27
261.112	40.79
261.328	-41.13
261.544	-45.23
261.761	22.36
261.977	-8.36
262.193	-80.04
262.409	75.6
262.626	-0.17
262.842	34.64
263.058	-14.51
263.274	69.46
263.49	-10.41
263.707	46.93
263.923	36.69
264.139	14.17
264.355	-2.22
264.571	69.46
264.787	53.08
265.004	40.79
265.22	-57.51
265.436	-63.66
265.652	53.08
265.868	-45.23
266.084	-10.41
266.3	48.98
266.516	-32.94
266.732	22.36
266.948	67.41
267.164	26.45
267.38	36.69
267.596	59.22
267.812	53.08
268.028	-0.17
268.244	26.45
268.46	24.4
268.676	40.79
268.892	79.7
269.108	-90.28
269.324	-10.41
269.54	-22.7
269.756	-16.55
269.972	14.17
270.188	1.88
270.403	36.69
270.619	-14.51
270.835	55.12
271.051	-30.89
271.267	14.17
271.483	3.93
271.698	42.84
271.914	46.93
272.13	3.93
272.346	30.55
272.562	-14.51
272.777	102.23
272.993	30.55
273.209	3.93
273.425	59.22
273.64	-16.55
273.856	63.32
274.072	-67.75
274.287	3.93
274.503	61.27
274.719	20.31
274.934	96.08
275.15	8.02
275.366	38.74
275.581	38.74
275.797	22.36
276.012	69.46
276.228	48.98
276.444	16.21
276.659	30.55
276.875	34.64
277.09	26.45
277.306	8.02
277.521	42.84
277.737	-0.17
277.952	-10.41
278.168	10.07
278.383	73.56
278.599	-39.08
278.814	-16.55
279.03	24.4
279.245	46.93
279.461	34.64
279.676	83.8
279.892	-6.31
280.107	12.12
280.322	-2.22
280.538	96.08
280.753	36.69
280.969	44.88
281.184	65.36
281.399	-14.51
281.615	24.4
281.83	-2.22
282.045	42.84
282.26	-28.84
282.476	-30.89
282.691	53.08
282.906	-22.7
283.122	44.88
283.337	16.21
283.552	34.64
283.767	5.97
283.983	30.55
284.198	-2.22
284.413	18.26
284.628	-75.95
284.843	57.17
285.058	53.08
285.274	34.64
285.489	-22.7
285.704	-63.66
285.919	-32.94
286.134	141.14
286.349	63.32
286.564	73.56
286.779	59.22
286.995	34.64
287.21	-32.94
287.425	-6.31
287.64	18.26
287.855	106.32
288.07	38.74
288.285	65.36
288.5	51.03
288.715	110.42
288.93	-20.65
289.145	38.74
289.36	104.28
289.575	-34.99
289.79	-4.27
290.004	42.84
290.219	89.94
290.434	34.64
290.649	-4.27
290.864	18.26
291.079	-8.36
291.294	-30.89
291.509	69.46
291.724	8.02
291.938	-41.13
292.153	38.74
292.368	34.64
292.583	55.12
292.798	106.32
293.012	36.69
293.227	22.36
293.442	-12.46
293.657	18.26
293.871	32.6
294.086	108.37
294.301	85.84
294.516	26.45
294.73	46.93
294.945	1.88
295.16	81.75
295.374	-4.27
295.589	22.36
295.804	-2.22
296.018	59.22
296.233	22.36
296.447	63.32
296.662	-51.37
296.877	55.12
297.091	-4.27
297.306	79.7
297.52	-4.27
297.735	5.97
297.949	3.93
298.164	-53.42
298.378	-0.17
298.593	-2.22
298.807	46.93
299.022	36.69
299.236	53.08
299.451	16.21
299.665	10.07
299.88	69.46
300.094	8.02
300.309	24.4
300.523	22.36
300.737	57.17
300.952	79.7
301.166	69.46
301.381	40.79
301.595	-22.7
301.809	130.9
302.024	8.02
302.238	-12.46
302.452	-30.89
302.667	-8.36
302.881	87.89
303.095	59.22
303.309	30.55
303.524	30.55
303.738	-6.31
303.952	8.02
304.166	91.99
304.381	-32.94
304.595	48.98
304.809	-6.31
305.023	12.12
305.237	18.26
305.452	-12.46
305.666	10.07
305.88	38.74
306.094	51.03
306.308	53.08
306.522	-45.23
306.736	24.4
306.95	65.36
307.164	8.02
307.379	16.21
307.593	85.84
307.807	20.31
308.021	24.4
308.235	69.46
308.449	67.41
308.663	-8.36
308.877	22.36
309.091	-4.27
309.305	-18.6
309.519	30.55
309.733	-0.17
309.947	-30.89
310.161	157.52
310.374	24.4
310.588	63.32
310.802	-2.22
311.016	36.69
311.23	38.74
311.444	-82.09
311.658	10.07
311.872	51.03
312.085	87.89
312.299	61.27
312.513	26.45
312.727	65.36
312.941	22.36
313.154	18.26
313.368	48.98
313.582	32.6
313.796	8.02
314.009	30.55
314.223	30.55
314.437	-16.55
314.651	67.41
314.864	-59.56
315.078	-22.7
315.292	36.69
315.505	3.93
315.719	36.69
315.933	46.93
316.146	14.17
316.36	-10.41
316.573	98.13
316.787	46.93
317.001	20.31
317.214	-2.22
317.428	14.17
317.641	-34.99
317.855	14.17
318.068	77.65
318.282	30.55
318.495	55.12
318.709	77.65
318.922	65.36
319.136	55.12
319.349	10.07
319.563	-30.89
319.776	3.93
319.99	-12.46
320.203	38.74
320.417	-10.41
320.63	5.97
320.843	44.88
321.057	44.88
321.27	24.4
321.483	63.32
321.697	46.93
321.91	-12.46
322.124	122.71
322.337	24.4
322.55	-24.75
322.763	12.12
322.977	38.74
323.19	69.46
323.403	61.27
323.617	14.17
323.83	91.99
324.043	22.36
324.256	44.88
324.469	-8.36
324.683	16.21
324.896	51.03
325.109	26.45
325.322	-55.47
325.535	44.88
325.748	5.97
325.962	-18.6
326.175	46.93
326.388	-8.36
326.601	63.32
326.814	14.17
327.027	-16.55
327.24	77.65
327.453	69.46
327.666	100.18
327.879	-34.99
328.092	44.88
328.305	12.12
328.518	3.93
328.731	59.22
328.944	-26.79
329.157	-14.51
329.37	-8.36
329.583	30.55
329.796	81.75
330.009	-0.17
330.222	61.27
330.435	14.17
330.648	-12.46
330.861	16.21
331.073	32.6
331.286	16.21
331.499	38.74
331.712	-22.7
331.925	59.22
332.138	-16.55
332.35	73.56
332.563	5.97
332.776	71.51
332.989	32.6
333.202	-8.36
333.414	-30.89
333.627	18.26
333.84	-57.51
334.053	38.74
334.265	38.74
334.478	3.93
334.691	-10.41
334.903	14.17
335.116	-24.75
335.329	75.6
335.541	10.07
335.754	30.55
335.966	59.22
336.179	-16.55
336.392	24.4
336.604	-26.79
336.817	14.17
337.029	30.55
337.242	-14.51
337.454	55.12
337.667	-2.22
337.88	59.22
338.092	-45.23
338.305	55.12
338.517	-30.89
338.729	38.74
338.942	48.98
339.154	42.84
339.367	-12.46
339.579	3.93
339.792	10.07
340.004	24.4
340.217	26.45
340.429	40.79
340.641	1.88
340.854	-0.17
341.066	30.55
341.278	77.65
341.491	83.8
341.703	51.03
341.915	1.88
342.128	42.84
342.34	18.26
342.552	87.89
342.764	-24.75
342.977	1.88
343.189	-4.27
343.401	-32.94
343.613	30.55
343.826	-28.84
344.038	79.7
344.25	71.51
344.462	-20.65
344.674	16.21
344.886	24.4
345.099	1.88
345.311	100.18
345.523	87.89
345.735	-12.46
345.947	-16.55
346.159	-14.51
346.371	1.88
346.583	-22.7
346.795	8.02
347.007	-28.84
347.219	106.32
347.431	-55.47
347.643	102.23
347.855	-16.55
348.067	57.17
348.279	26.45
348.491	8.02
348.703	77.65
348.915	98.13
349.127	-2.22
349.339	112.47
349.551	24.4
349.763	40.79
349.975	-26.79
350.187	5.97
350.399	102.23
350.61	30.55
350.822	28.5
351.034	51.03
351.246	22.36
351.458	48.98
351.669	18.26
351.881	69.46
352.093	38.74
352.305	48.98
352.517	67.41
352.728	63.32
352.94	-28.84
353.152	30.55
353.363	20.31
353.575	79.7
353.787	55.12
353.999	77.65
354.21	77.65
354.422	26.45
354.633	-0.17
354.845	73.56
355.057	73.56
355.268	67.41
355.48	57.17
355.692	-0.17
355.903	85.84
356.115	24.4
356.326	-30.89
356.538	69.46
356.749	48.98
356.961	44.88
357.172	5.97
357.384	30.55
357.595	161.62
357.807	10.07
358.018	98.13
358.23	59.22
358.441	51.03
358.653	40.79
358.864	53.08
359.075	-24.75
359.287	-12.46
359.498	106.32
359.709	5.97
359.921	69.46
360.132	5.97
360.344	81.75
360.555	55.12
360.766	53.08
360.977	38.74
361.189	30.55
361.4	14.17
361.611	16.21
361.823	55.12
362.034	118.61
362.245	-0.17
362.456	94.04
362.667	100.18
362.879	104.28
363.09	-26.79
363.301	132.95
363.512	18.26
363.723	-6.31
363.935	36.69
364.146	128.85
364.357	5.97
364.568	12.12
364.779	-16.55
364.99	112.47
365.201	55.12
365.412	100.18
365.623	-0.17
365.834	59.22
366.045	26.45
366.256	22.36
366.467	89.94
366.678	38.74
366.889	75.6
367.1	75.6
367.311	59.22
367.522	30.55
367.733	28.5
367.944	91.99
368.155	16.21
368.366	48.98
368.577	-0.17
368.788	34.64
368.999	-2.22
369.209	24.4
369.42	89.94
369.631	67.41
369.842	34.64
370.053	61.27
370.264	65.36
370.474	118.61
370.685	91.99
370.896	57.17
371.107	83.8
371.317	-2.22
371.528	81.75
371.739	69.46
371.95	63.32
372.16	79.7
372.371	24.4
372.582	3.93
372.792	34.64
373.003	77.65
373.214	10.07
373.424	36.69
373.635	-24.75
373.846	83.8
374.056	48.98
374.267	51.03
374.477	-24.75
374.688	85.84
374.898	57.17
375.109	40.79
375.319	5.97
375.53	-12.46
375.74	26.45
375.951	46.93
376.161	5.97
376.372	14.17
376.582	48.98
376.793	16.21
377.003	-6.31
377.214	18.26
377.424	108.37
377.635	83.8
377.845	-16.55
378.055	-18.6
378.266	1.88
378.476	53.08
378.686	59.22
378.897	57.17
379.107	63.32
379.317	28.5
379.528	1.88
379.738	94.04
379.948	-41.13
380.158	110.42
380.369	30.55
380.579	24.4
380.789	91.99
380.999	-2.22
381.21	71.51
381.42	81.75
381.63	63.32
381.84	73.56
382.05	1.88
382.261	96.08
382.471	79.7
382.681	32.6
382.891	77.65
383.101	73.56
383.311	-30.89
383.521	65.36
383.731	81.75
383.941	79.7
384.151	79.7
384.361	44.88
384.571	53.08
384.781	67.41
384.991	157.52
385.201	46.93
385.411	130.9
385.621	28.5
385.831	65.36
386.041	65.36
386.251	51.03
386.461	91.99
386.671	114.52
386.881	40.79
387.091	149.33
387.301	137.04
387.511	-20.65
387.72	38.74
387.93	34.64
388.14	63.32
388.35	104.28
388.56	73.56
388.769	59.22
388.979	48.98
389.189	59.22
389.399	112.47
389.609	-16.55
389.818	48.98
390.028	75.6
390.238	65.36
390.447	81.75
390.657	73.56
390.867	110.42
391.076	12.12
391.286	57.17
391.496	89.94
391.705	10.07
391.915	1.88
392.125	38.74
392.334	116.56
392.544	75.6
392.753	116.56
392.963	73.56
393.172	69.46
393.382	69.46
393.591	51.03
393.801	-12.46
394.01	69.46
394.22	104.28
394.429	55.12
394.639	69.46
394.848	36.69
395.058	63.32
395.267	122.71
395.477	69.46
395.686	85.84
395.895	141.14
396.105	61.27
396.314	149.33
396.524	112.47
396.733	44.88
396.942	98.13
397.152	96.08
397.361	71.51
397.57	59.22
397.78	118.61
397.989	89.94
398.198	77.65
398.407	48.98
398.617	104.28
398.826	91.99
399.035	100.18
399.244	83.8
399.453	163.67
399.663	42.84
399.872	178
400.081	51.03
400.29	116.56
400.499	81.75
400.708	145.24
400.917	130.9
401.127	87.89
401.336	128.85
401.545	118.61
401.754	112.47
401.963	108.37
402.172	112.47
402.381	132.95
402.59	122.71
402.799	114.52
403.008	65.36
403.217	116.56
403.426	124.76
403.635	110.42
403.844	137.04
404.053	110.42
404.262	116.56
404.471	196.43
404.68	114.52
404.888	237.39
405.097	208.72
405.306	126.8
405.515	132.95
405.724	143.19
405.933	169.81
406.142	184.15
406.35	128.85
406.559	153.43
406.768	186.19
406.977	249.68
407.185	198.48
407.394	259.92
407.603	116.56
407.812	249.68
408.02	282.45
408.229	190.29
408.438	249.68
408.646	223.06
408.855	212.82
409.064	259.92
409.272	255.83
409.481	282.45
409.69	294.74
409.898	284.5
410.107	319.31
410.315	304.98
410.524	268.11
410.733	364.37
410.941	329.55
411.15	307.02
411.358	354.13
411.567	399.18
411.775	415.57
411.984	448.33
412.192	491.34
412.401	415.57
412.609	487.25
412.818	454.48
413.026	499.53
413.234	536.4
413.443	544.59
413.651	507.73
413.86	575.31
414.068	610.12
414.276	663.37
414.485	505.68
414.693	661.32
414.901	698.19
415.11	692.04
415.318	759.63
415.526	735.05
415.734	864.07
415.943	845.64
416.151	866.12
416.359	814.92
416.567	859.98
416.776	1009.48
416.984	966.47
417.192	972.61
417.4	954.18
417.608	1046.34
417.817	1075.01
418.025	1023.81
418.233	1208.13
418.441	1214.27
418.649	1267.52
418.857	1351.49
419.065	1361.73
419.273	1316.67
419.481	1357.63
419.689	1441.6
419.897	1513.28
420.105	1636.16
420.313	1560.38
420.521	1652.54
420.729	1699.64
420.937	1759.03
421.145	1816.38
421.353	1953.59
421.561	2015.03
421.769	2080.57
421.977	2133.81
422.185	2094.9
422.393	2144.05
422.601	2391.86
422.809	2398
423.017	2371.38
423.224	2400.05
423.432	2465.58
423.64	2645.8
423.848	2873.13
424.056	2760.49
424.263	2926.38
424.471	2950.95
424.679	2895.66
424.887	3272.48
425.094	3231.52
425.302	3321.63
425.51	3350.31
425.718	3495.71
425.925	3612.45
426.133	3675.93
426.341	3751.71
426.548	4003.61
426.756	4028.18
426.964	4044.57
427.171	4312.85
427.379	4558.61
427.586	4519.7
427.794	4597.52
428.001	4986.63
428.209	4902.67
428.417	4962.06
428.624	5304.07
428.832	5390.08
429.039	5279.49
429.247	5328.64
429.454	5840.64
429.662	6145.78
429.869	5990.14
430.076	6321.91
430.284	6033.15
430.491	6237.94
430.699	6600.43
430.906	6625.01
431.114	6665.97
431.321	7026.41
431.528	7239.4
431.736	7528.16
431.943	7997.15
432.15	7835.36
432.358	7765.73
432.565	8005.34
432.772	8306.39
432.979	8775.38
433.187	8644.31
433.394	8894.16
433.601	9500.36
433.808	9612.99
434.016	9567.94
434.223	9668.29
434.43	10401.46
434.637	10251.96
434.844	10593.97
435.052	10845.87
435.259	11052.72
435.466	10935.98
435.673	10991.28
435.88	11783.84
436.087	12084.89
436.294	12271.26
436.501	12271.26
436.708	12441.24
436.915	12801.68
437.122	13344.39
437.329	13364.87
437.537	13516.42
437.743	13840
437.95	13631.11
438.157	14278.27
438.364	15021.68
438.571	14792.31
438.778	14968.43
438.985	16621.14
439.192	15689.32
439.399	15965.79
439.606	15859.3
439.813	16674.39
440.02	17720.9
440.227	17370.7
440.433	17469
440.64	17985.09
440.847	17870.4
441.054	18017.86
441.261	19187.25
441.467	19224.11
441.674	19627.56
441.881	20413.98
442.088	20370.97
442.294	20045.35
442.501	20549.15
442.708	20923.93
442.914	21909
443.121	22914.55
443.328	22081.03
443.534	23516.65
443.741	23115.25
443.948	22429.18
444.154	24509.92
444.361	24487.39
444.568	24262.12
444.774	24440.29
444.981	24712.67
445.187	25515.47
445.394	26607.04
445.6	26064.33
445.807	28769.69
446.013	27229.62
446.22	27907.5
446.426	28954.01
446.633	29259.16
446.839	30451.08
447.046	29070.75
447.252	30365.06
447.459	30659.97
447.665	30512.52
447.871	31937.9
448.078	33133.92
448.284	31966.57
448.491	32341.35
448.697	33574.23
448.903	34362.7
449.11	34557.25
449.316	33893.71
449.522	34542.92
449.728	35265.85
449.935	35595.57
450.141	35794.23
450.347	36551.98
450.553	35269.95
450.76	35728.69
450.966	37000.48
451.172	36433.19
451.378	37465.37
451.584	36627.75
451.791	37580.06
451.997	37352.73
452.203	38296.84
452.409	38090
452.615	38118.67
452.821	36361.51
453.027	36029.74
453.233	37725.46
453.44	36726.05
453.646	37166.37
453.852	37154.08
454.058	37793.04
454.264	36402.47
454.47	37242.14
454.676	36562.22
454.882	37385.5
455.088	34288.97
455.294	34858.31
455.5	35622.2
455.705	35876.15
455.911	34266.44
456.117	33283.42
456.323	33385.82
456.529	31599.99
456.735	33252.7
456.941	32175.47
457.147	31448.44
457.352	31010.17
457.558	30027.15
457.764	30186.89
457.97	29384.08
458.176	29189.53
458.381	29109.66
458.587	27829.68
458.793	27682.22
458.999	26340.8
459.204	28126.63
459.41	27108.79
459.616	25603.53
459.821	25722.32
460.027	25478.61
460.233	24665.56
460.438	23594.48
460.644	23932.39
460.85	22812.15
461.055	22498.81
461.261	22443.52
461.466	20911.64
461.672	20241.95
461.878	21495.31
462.083	20155.94
462.289	19893.8
462.494	19349.04
462.7	18863.67
462.905	18120.26
463.111	18685.5
463.316	19246.64
463.522	18669.11
463.727	18615.87
463.932	18476.6
464.138	18630.2
464.343	18462.27
464.549	17946.18
464.754	18517.56
464.959	18230.85
465.165	18243.13
465.37	17274.45
465.575	16809.56
465.781	17544.78
465.986	17768.01
466.191	17104.46
466.397	16752.21
466.602	16008.8
466.807	16653.91
467.012	16895.57
467.218	16359
467.423	16264.8
467.628	16232.03
467.833	16928.34
468.038	16567.9
468.244	16158.3
468.449	16582.23
468.654	16100.96
468.859	15830.63
469.064	15621.73
469.269	15257.2
469.474	15261.29
469.679	15701.61
469.885	15085.17
470.09	15367.79
470.295	15226.48
470.5	14732.92
470.705	15089.26
470.91	14583.41
471.115	14665.33
471.32	14773.88
471.525	14739.06
471.73	14364.28
471.935	14198.4
472.139	13743.75
472.344	13837.95
472.549	13758.08
472.754	13868.67
472.959	13584.01
473.164	12961.42
473.369	12881.55
473.574	13602.44
473.778	13411.98
473.983	13170.32
474.188	13061.77
474.393	12457.62
474.598	12643.99
474.802	12574.36
475.007	12486.29
475.212	12383.9
475.417	11832.99
475.621	11976.35
475.826	12043.93
476.031	11892.38
476.235	11665.06
476.44	11740.83
476.645	11589.28
476.849	11404.97
477.054	11179.69
477.259	10970.8
477.463	11198.12
477.668	10622.64
477.872	11153.07
478.077	10735.28
478.282	10469.05
478.486	10473.14
478.691	10516.15
478.895	10520.24
479.1	10467
479.304	10356.41
479.509	9930.43
479.713	10106.56
479.918	9936.57
480.122	9920.19
480.326	10008.25
480.531	9912
480.735	9670.34
480.94	9832.13
481.144	10075.84
481.348	9621.19
481.553	9871.04
481.757	9418.44
481.961	9852.61
482.166	9834.18
482.37	9760.45
482.574	9608.9
482.778	9782.98
482.983	9787.07
483.187	9709.25
483.391	9690.82
483.595	9537.22
483.8	9629.38
484.004	9715.39
484.208	9907.9
484.412	9610.95
484.616	9731.78
484.821	9760.45
485.025	9297.61
485.229	9357
485.433	9424.58
485.637	9578.18
485.841	9711.3
486.045	9393.86
486.249	9494.21
486.453	9406.15
486.657	9463.49
486.861	9651.91
487.065	9225.93
487.269	9430.73
487.473	9346.76
487.677	9662.15
487.881	9692.87
488.085	9428.68
488.289	9563.84
488.493	9567.94
488.697	9674.43
488.901	9678.53
489.105	9696.96
489.309	9600.71
489.512	9705.15
489.716	9699.01
489.92	9699.01
490.124	9793.22
490.328	9944.77
490.531	9834.18
490.735	9789.12
490.939	9785.02
491.143	9752.26
491.346	9746.11
491.55	10206.91
491.754	9961.15
491.958	9914.05
492.161	9930.43
492.365	9877.18
492.569	9993.92
492.772	9912
492.976	10143.42
493.18	10235.58
493.383	10204.86
493.587	10270.39
493.79	10479.29
493.994	10385.08
494.197	10583.73
494.401	10440.37
494.605	10456.76
494.808	10669.75
495.012	10761.91
495.215	10921.65
495.419	11097.77
495.622	10692.27
495.825	11028.14
496.029	10960.56
496.232	11316.9
496.436	11273.9
496.639	11581.09
496.843	11417.26
497.046	11865.76
497.249	11703.97
497.453	11859.62
497.656	11996.83
497.859	12037.79
498.063	12119.71
498.266	12342.94
498.469	12252.83
498.673	12537.49
498.876	12777.11
499.079	12633.75
499.282	12654.23
499.485	13264.52
499.689	13059.73
499.892	13086.35
500.095	13242
500.298	13657.73
500.501	13362.83
500.705	14022.27
500.908	14212.73
501.111	14118.53
501.314	14270.08
501.517	14325.37
501.72	14438.01
501.923	14612.09
502.126	14872.18
502.329	15230.57
502.532	15337.07
502.735	15527.53
502.938	15638.12
503.141	15505
503.344	15859.3
503.547	15957.6
503.75	16246.37
503.953	16363.1
504.156	16598.62
504.359	16836.18
504.562	16772.69
504.765	17202.77
504.968	17444.43
505.17	17262.16
505.373	17587.78
505.576	17911.36
505.779	17876.55
505.982	18241.09
506.185	18269.76
506.387	18607.67
506.59	18673.21
506.793	18912.82
506.996	19101.23
507.198	19461.68
507.401	19121.71
507.604	19654.19
507.807	20071.97
508.009	20121.12
508.212	20354.59
508.415	20223.52
508.617	20780.57
508.82	21071.38
509.022	20788.76
509.225	21427.73
509.428	21442.06
509.63	21542.41
509.833	22134.28
510.035	22197.76
510.238	22271.49
510.44	22382.08
510.643	22781.43
510.845	22924.79
511.048	22734.33
511.25	23313.91
511.453	23205.36
511.655	24161.76
511.858	23735.79
512.06	24045.03
512.262	24190.44
512.465	24649.18
512.667	24694.24
512.87	24915.42
513.072	24970.71
513.274	25839.05
513.477	25781.71
513.679	26138.05
513.881	26111.43
514.084	26320.32
514.286	26082.76
514.488	26723.77
514.69	27661.74
514.893	27528.63
515.095	27557.3
515.297	27491.76
515.499	28087.72
515.701	28282.28
515.904	28329.38
516.106	28845.47
516.308	29222.3
516.51	29117.85
516.712	29150.62
516.914	29654.42
517.116	30072.2
517.318	30107.02
517.52	30406.02
517.722	30506.37
517.925	30983.55
518.127	30938.49
518.329	31610.23
518.531	31407.48
518.733	32066.92
518.935	32288.1
519.136	32230.76
519.338	32787.81
519.54	33002.85
519.742	33332.57
519.944	33246.55
520.146	33707.35
520.348	34264.39
520.55	34008.4
520.752	34088.27
520.954	34782.53
521.155	34669.89
521.357	35288.38
521.559	35185.98
521.761	36023.6
521.963	35618.1
522.164	35849.52
522.366	36076.85
522.568	36662.57
522.77	36934.95
522.971	37215.52
523.173	36902.18
523.375	37272.86
523.576	37453.08
523.778	37776.66
523.98	38090
524.181	38186.25
524.383	38012.18
524.584	38464.78
524.786	38546.7
524.988	38784.26
525.189	39073.03
525.391	39230.72
525.592	39292.16
525.794	39544.06
525.995	39668.98
526.197	39914.74
526.398	39789.81
526.6	40248.56
526.801	40297.71
527.003	40711.4
527.204	40842.47
527.406	40811.75
527.607	40508.65
527.808	41356.51
528.01	40615.15
528.211	40774.89
528.412	41915.61
528.614	41794.78
528.815	41784.54
529.016	42026.2
529.218	41696.47
529.419	42058.96
529.62	42118.35
529.822	42153.17
530.023	42091.73
530.224	42276.05
530.425	42163.41
530.626	41987.28
530.828	42192.08
531.029	43019.46
531.23	42396.88
531.431	42501.32
531.632	42863.82
531.833	42812.62
532.035	43109.57
532.236	43013.32
532.437	43109.57
532.638	42808.52
532.839	43050.18
533.04	43437.25
533.241	42710.22
533.442	43445.44
533.643	42986.69
533.844	43138.24
534.045	43340.99
534.246	43277.5
534.447	43105.48
534.648	43664.57
534.849	43287.74
535.05	43089.09
535.251	43336.9
535.451	43003.08
535.652	43371.71
535.853	42947.78
536.054	43855.03
536.255	43777.21
536.456	43158.72
536.657	43457.73
536.857	43222.21
537.058	43201.73
537.259	43343.04
537.46	43625.66
537.66	43324.61
537.861	43599.04
538.062	43220.16
538.263	43848.89
538.463	43564.22
538.664	43400.38
538.865	43420.86
539.065	43734.2
539.266	43050.18
539.466	43476.16
539.667	43103.43
539.868	43783.35
540.068	43152.58
540.269	42978.5
540.469	43666.62
540.67	42876.1
540.87	43480.25
541.071	43277.5
541.271	43490.49
541.472	43506.88
541.672	43287.74
541.873	43265.22
542.073	42640.59
542.274	43760.83
542.474	43044.04
542.675	42831.05
542.875	43687.1
543.075	43386.05
543.276	42421.45
543.476	43551.93
543.676	43011.27
543.877	43297.98
544.077	43484.35
544.277	42888.39
544.478	43416.77
544.678	43181.25
544.878	43347.14
545.078	43175.11
545.279	42886.34
545.479	42953.93
545.679	42888.39
545.879	43130.05
546.079	42904.77
546.28	42781.9
546.48	43017.41
546.68	42945.73
546.88	43222.21
547.08	43134.15
547.28	42990.79
547.48	42556.62
547.68	42841.29
547.88	42751.18
548.081	43123.91
548.281	42892.49
548.481	42847.43
548.681	43228.35
548.881	43273.41
549.081	43003.08
549.28	42548.43
549.48	42876.1
549.68	42560.72
549.88	43330.75
550.08	42826.95
550.28	43285.7
550.48	42534.09
550.68	43267.27
550.88	42810.57
551.08	42321.1
551.279	43203.78
551.479	42417.36
551.679	42716.36
551.879	42220.75
552.079	43185.35
552.278	42646.73
552.478	42736.84
552.678	42454.22
552.878	42820.81
553.077	42515.66
553.277	42319.06
553.477	42642.63
553.676	42841.29
553.876	42405.07
554.076	42517.71
554.275	42757.32
554.475	41802.97
554.674	42581.2
554.874	42382.54
555.074	42314.96
555.273	42210.51
555.473	42450.13
555.672	41911.51
555.872	42577.1
556.071	42118.35
556.271	42310.86
556.47	41581.79
556.67	41786.58
556.869	41616.6
557.068	42175.7
557.268	41852.12
557.467	41841.88
557.667	41630.94
557.866	41903.32
558.065	41862.36
558.265	41895.13
558.464	41336.03
558.663	41747.67
558.863	41184.48
559.062	41823.45
559.261	41348.32
559.461	41782.49
559.66	40697.06
559.859	41223.39
560.058	40746.22
560.258	41420
560.457	41186.53
560.656	41116.9
560.855	40809.7
561.054	40891.62
561.253	40854.76
561.453	40666.34
561.652	41272.54
561.851	40867.05
562.05	40961.25
562.249	40305.9
562.448	40365.29
562.647	40664.3
562.846	40299.76
563.045	40453.36
563.244	39888.12
563.443	40852.71
563.642	39906.55
563.841	40232.18
564.04	39795.96
564.239	40344.81
564.438	39804.15
564.637	40097.01
564.836	39959.8
565.035	39161.09
565.234	39597.31
565.432	39476.47
565.631	39578.87
565.83	39709.94
566.029	39161.09
566.228	39384.32
566.427	39085.31
566.625	39138.56
566.824	38688.01
567.023	39271.68
567.222	38614.28
567.42	38980.87
567.619	38522.12
567.818	38472.97
568.016	38585.61
568.215	38857.99
568.414	38194.45
568.612	38247.69
568.811	38317.32
569.01	38020.37
569.208	37647.64
569.407	38380.81
569.605	37557.53
569.804	37930.26
570.002	37707.03
570.201	37623.06
570.4	37526.81
570.598	37399.83
570.797	37154.08
570.995	37444.89
571.193	36936.99
571.392	37330.2
571.59	37055.78
571.789	36922.66
571.987	36855.07
572.186	36928.8
572.384	36607.27
572.582	36545.83
572.781	36793.64
572.979	36273.45
573.177	36476.2
573.376	36449.58
573.574	36171.05
573.772	36488.49
573.971	35941.68
574.169	35835.19
574.367	35730.74
574.565	35816.75
574.763	35659.06
574.962	35665.21
575.16	35016
575.358	35540.28
575.556	34952.51
575.754	35663.16
575.952	35401.02
576.151	35478.84
576.349	34964.8
576.547	34827.59
576.745	34981.18
576.943	34929.98
577.141	34917.7
577.339	34590.02
577.537	34788.67
577.735	34483.53
577.933	34313.55
578.131	34360.65
578.329	34303.31
578.527	33797.46
578.725	33717.59
578.923	34344.27
579.121	33817.94
579.319	33985.87
579.516	33867.09
579.714	33697.11
579.912	33643.86
580.11	33439.06
580.308	33729.87
580.506	33322.33
580.704	33006.94
580.901	33281.37
581.099	33191.26
581.297	32750.95
581.495	32607.59
581.692	33019.23
581.89	32511.33
582.088	32662.88
582.285	32361.83
582.483	32830.82
582.681	32415.08
582.878	32124.27
583.076	32177.51
583.274	32265.58
583.471	31810.93
583.669	31890.8
583.866	31976.81
584.064	31993.2
584.262	31405.43
584.459	32206.19
584.657	31567.22
584.854	31722.87
585.052	31061.37
585.249	31405.43
585.447	31440.25
585.644	31100.28
585.841	30860.67
586.039	31219.06
586.236	30745.98
586.434	30530.95
586.631	30735.74
586.828	30733.7
587.026	30985.6
587.223	30223.75
587.42	30358.92
587.618	30506.37
587.815	30285.19
588.012	29885.84
588.21	29916.56
588.407	30250.38
588.604	29990.28
588.801	29775.25
588.999	29896.08
589.196	29891.98
589.393	29670.8
589.59	29031.83
589.787	29359.51
589.984	29205.91
590.182	28622.24
590.379	29203.86
590.576	29167
590.773	29191.58
590.97	28786.08
591.167	29277.59
591.364	28382.63
591.561	28874.14
591.758	28364.2
591.955	28454.31
592.152	28120.49
592.349	28272.04
592.546	28302.76
592.743	28444.07
592.94	28036.52
593.137	28050.86
593.334	28255.65
593.531	27581.87
593.727	28120.49
593.924	27717.04
594.121	27575.73
594.318	27657.65
594.515	27174.33
594.712	27475.38
594.908	27209.14
595.105	27491.76
595.302	27030.97
595.499	26930.62
595.696	26924.47
595.892	26752.45
596.089	26903.99
596.286	26920.38
596.482	26371.52
596.679	26596.8
596.876	26613.18
597.072	26209.73
597.269	26496.45
597.466	26248.64
597.662	26068.42
597.859	26185.16
598.055	26232.26
598.252	25656.78
598.448	25892.3
598.645	25992.65
598.841	25509.33
599.038	25849.29
599.234	25785.8
599.431	25329.11
599.627	25234.9
599.824	25677.26
600.02	25210.32
600.217	25259.48
600.413	25212.37
600.609	25261.52
600.806	24698.33
601.002	25228.76
601.198	24880.6
601.395	24536.54
601.591	24837.59
601.787	24780.25
601.984	24344.03
602.18	24892.89
602.376	24507.87
602.572	24466.91
602.769	24514.02
602.965	24217.06
603.161	24051.17
603.357	23885.29
603.553	24262.12
603.75	24102.37
603.946	23733.74
604.142	23815.66
604.338	23610.86
604.534	23504.37
604.73	23506.41
604.926	23420.4
605.122	23432.69
605.318	23313.91
605.514	23158.26
605.71	23225.84
605.906	23025.14
606.102	23356.91
606.298	23188.98
606.494	23299.57
606.69	23033.33
606.886	22896.12
607.082	22631.93
607.278	23186.93
607.474	22441.47
607.67	22881.78
607.866	22302.21
608.062	22728.19
608.257	22486.53
608.453	22386.18
608.649	22406.66
608.845	22449.66
609.041	22375.94
609.236	22453.76
609.432	22316.54
609.628	22199.81
609.824	21999.11
610.019	22056.45
610.215	22289.92
610.411	22107.65
610.606	21831.18
610.802	21825.03
610.998	21972.49
611.193	21773.83
611.389	21622.28
611.584	21663.24
611.78	21767.69
611.976	21571.08
612.171	21624.33
612.367	21579.28
612.562	21431.82
612.758	21077.52
612.953	21476.88
613.149	21499.41
613.344	21288.46
613.539	21556.75
613.735	21149.2
613.93	21358.1
614.126	21186.07
614.321	21503.5
614.517	21128.72
614.712	21126.67
614.907	20710.94
615.103	20932.12
615.298	20708.89
615.493	20897.3
615.688	20723.23
615.884	21011.99
616.079	20751.9
616.274	20794.9
616.47	20631.07
616.665	20760.09
616.86	20418.08
617.055	20815.38
617.25	20375.07
617.445	20629.02
617.641	20278.82
617.836	20428.32
618.031	20000.29
618.226	20450.85
618.421	20244
618.616	20442.65
618.811	20231.71
619.006	20190.75
619.201	19861.03
619.396	19852.84
619.591	19621.42
619.786	19777.06
619.981	19709.48
620.176	19830.31
620.371	19492.4
620.566	19553.83
620.761	19346.99
620.956	19273.26
621.151	19279.41
621.346	19242.54
621.541	18835
621.735	19058.23
621.93	18595.39
622.125	18882.1
622.32	18499.13
622.515	18484.8
622.709	18312.77
622.904	18357.82
623.099	18087.49
623.294	18394.68
623.488	18140.74
623.683	18050.63
623.878	17591.88
624.072	18077.25
624.267	17731.14
624.462	17741.38
624.656	17278.54
624.851	17616.46
625.046	17432.14
625.24	17090.13
625.435	16883.28
625.629	17135.18
625.824	17034.83
626.018	16887.38
626.213	16602.71
626.407	16737.88
626.602	16731.73
626.796	16432.73
626.991	16184.93
627.185	16455.26
627.38	16172.64
627.574	16080.48
627.768	16201.31
627.963	16072.29
628.157	15765.09
628.352	16000.61
628.546	15607.4
628.74	15789.67
628.935	15507.05
629.129	15656.55
629.323	15373.93
629.517	15343.21
629.712	15269.48
629.906	14773.88
630.1	15052.4
630.294	14974.58
630.489	14863.99
630.683	14843.51
630.877	14659.19
631.071	14460.54
631.265	14644.85
631.459	14454.39
631.653	14405.24
631.848	14624.37
632.042	14372.47
632.236	14098.05
632.43	14153.34
632.624	14177.92
632.818	14069.37
633.012	13682.31
633.206	13733.51
633.4	13962.88
633.594	13678.21
633.788	13713.03
633.982	13706.88
634.176	13631.11
634.369	13420.17
634.563	13403.78
634.757	13235.85
634.951	13495.94
635.145	13317.77
635.339	13207.18
635.533	13145.74
635.726	13072.01
635.92	12779.15
636.114	12932.75
636.308	12891.79
636.501	12885.65
636.695	12791.44
636.889	12711.57
637.083	12480.15
637.276	12369.56
637.47	12215.96
637.664	12484.25
637.857	12373.66
638.051	12127.9
638.244	12058.27
638.438	11906.72
638.632	11966.11
638.825	11908.77
639.019	11986.59
639.212	11749.03
639.406	11624.1
639.599	11658.92
639.793	11564.71
639.986	11554.47
640.18	11474.6
640.373	11507.37
640.567	11245.23
640.76	11558.56
640.954	11220.65
641.147	10993.33
641.34	11116.2
641.534	11392.68
641.727	11040.43
641.92	10999.47
642.114	10770.1
642.307	11013.81
642.5	10811.06
642.694	10591.92
642.887	10733.23
643.08	10624.69
643.273	10372.79
643.467	10532.53
643.66	10446.52
643.853	10276.54
644.046	10102.46
644.239	10653.36
644.432	10499.77
644.626	10286.78
644.819	10036.92
645.012	9905.85
645.205	9889.47
645.398	10182.33
645.591	9860.8
645.784	9801.41
645.977	9785.02
646.17	9868.99
646.363	9701.06
646.556	9406.15
646.749	9619.14
646.942	9479.88
647.135	9563.84
647.328	9350.85
647.521	9543.36
647.714	9330.37
647.907	9367.24
648.099	9162.44
648.292	9182.92
648.485	9182.92
648.678	8924.88
648.871	9123.53
649.064	8920.78
649.256	9217.74
649.449	8814.29
649.642	8847.05
649.835	8824.53
650.027	8808.14
650.22	8754.9
650.413	8822.48
650.605	8668.88
650.798	8603.35
650.991	8464.08
651.183	8658.64
651.376	8337.11
651.568	8572.63
651.761	8322.77
651.954	8165.08
652.146	8281.81
652.339	8158.94
652.531	8218.33
652.724	8177.37
652.916	8175.32
653.109	8138.46
653.301	8013.53
653.494	8066.78
653.686	7982.81
653.879	8036.06
654.071	7765.73
654.263	7657.18
654.456	7892.7
654.648	7964.38
654.84	7608.03
655.033	7677.66
655.225	7784.16
655.417	7661.28
655.61	7589.6
655.802	7489.25
655.994	7407.33
656.186	7519.97
656.379	7481.06
656.571	7466.72
656.763	7317.22
656.955	7218.92
657.148	7333.61
657.34	7241.45
657.532	7255.78
657.724	7143.14
657.916	7194.34
658.108	7208.68
658.3	6893.29
658.492	6926.06
658.684	6936.3
658.876	6960.88
659.068	6919.92
659.26	6850.28
659.452	6934.25
659.644	6747.89
659.836	6723.31
660.028	6686.45
660.22	6708.97
660.412	6612.72
660.604	6455.03
660.796	6649.58
660.988	6594.29
661.18	6577.9
661.372	6305.53
661.563	6563.57
661.755	6475.51
661.947	6452.98
662.139	6145.78
662.331	6285.05
662.522	6137.59
662.714	6264.57
662.906	6201.08
663.097	6235.89
663.289	6176.5
663.481	6104.82
663.673	6209.27
663.864	6031.1
664.056	5998.33
664.247	6000.38
664.439	6049.53
664.631	6059.77
664.822	5936.89
665.014	5945.08
665.205	5799.68
665.397	5883.64
665.588	5871.36
665.78	5746.43
665.971	5857.02
666.163	5752.57
666.354	5715.71
666.546	5656.32
666.737	5586.69
666.929	5537.54
667.12	5664.51
667.311	5545.73
667.503	5439.23
667.694	5576.45
667.885	5451.52
668.077	5422.85
668.268	5502.72
668.459	5361.41
668.651	5465.86
668.842	5490.43
669.033	5191.43
669.224	5232.39
669.416	5326.6
669.607	5322.5
669.798	5236.49
669.989	5383.94
670.18	5275.4
670.371	5211.91
670.563	5275.4
670.754	5242.63
670.945	5095.18
671.136	5228.29
671.327	5095.18
671.518	5072.65
671.709	5078.79
671.9	5127.94
672.091	5013.26
672.282	4914.95
672.473	5056.26
672.664	5056.26
672.855	4960.01
673.046	5056.26
673.237	4988.68
673.428	4923.15
673.619	4865.8
673.809	4712.21
674	4976.39
674.191	4798.22
674.382	4914.95
674.573	4824.84
674.764	4816.65
674.954	4826.89
675.145	4726.54
675.336	4724.49
675.527	4757.26
675.717	4736.78
675.908	4640.53
676.099	4531.98
676.289	4781.84
676.48	4636.43
676.671	4579.09
676.861	4669.2
677.052	4517.65
677.243	4628.24
677.433	4605.71
677.624	4564.75
677.814	4511.5
678.005	4577.04
678.195	4454.16
678.386	4706.06
678.576	4394.77
678.767	4521.74
678.957	4380.43
679.148	4566.8
679.338	4347.67
679.529	4460.31
679.719	4380.43
679.909	4519.7
680.1	4378.39
680.29	4517.65
680.481	4386.58
680.671	4384.53
680.861	4333.33
681.052	4265.75
681.242	4468.5
681.432	4474.64
681.622	4214.55
681.813	4306.71
682.003	4433.68
682.193	4380.43
682.383	4345.62
682.573	4331.28
682.764	4384.53
682.954	4341.52
683.144	4167.45
683.334	4302.61
683.524	4269.84
683.714	4173.59
683.904	4374.29
684.094	4126.49
684.284	4230.93
684.474	4192.02
684.664	4108.05
684.854	4282.13
685.044	4161.3
685.234	4101.91
685.424	4073.24
685.614	4079.38
685.804	4071.19
685.994	3958.55
686.184	4056.86
686.374	4118.29
686.564	3974.94
686.753	4118.29
686.943	3964.7
687.133	3974.94
687.323	4026.14
687.513	3931.93
687.702	3909.4
687.892	3929.88
688.082	3897.11
688.272	3958.55
688.461	3800.86
688.651	3919.64
688.841	3657.5
689.03	3886.87
689.22	3796.76
689.41	3907.35
689.599	3804.96
689.789	3684.13
689.979	3630.88
690.168	3909.4
690.358	3645.21
690.547	3526.43
690.737	3716.89
690.926	3688.22
691.116	3569.44
691.305	3665.69
691.495	3585.82
691.684	3510.05
691.874	3575.58
692.063	3663.65
692.252	3610.4
692.442	3594.01
692.631	3419.94
692.82	3530.53
693.01	3432.22
693.199	3622.69
693.388	3374.88
693.578	3567.39
693.767	3452.7
693.956	3409.7
694.146	3391.27
694.335	3307.3
694.524	3415.84
694.713	3338.02
694.902	3315.49
695.092	3376.93
695.281	3348.26
695.47	3374.88
695.659	3161.89
695.848	3217.19
696.037	3290.92
696.226	3260.2
696.415	3331.87
696.604	3321.63
696.793	3247.91
696.982	3288.87
697.171	3323.68
697.36	3200.8
697.549	3270.44
697.738	3209
697.927	3264.29
698.116	3120.93
698.305	3194.66
698.494	3172.13
698.683	3082.02
698.872	3147.56
699.061	3149.61
699.25	3159.85
699.438	3135.27
699.627	3168.04
699.816	3020.58
700.005	3131.17
700.193	3321.63
700.382	3163.94
700.571	3143.46
700.76	3082.02
700.948	3127.08
701.137	3145.51
701.326	3055.4
701.514	3098.41
701.703	3112.74
701.892	3110.69
702.08	3059.49
702.269	3075.88
702.457	2950.95
702.646	2975.53
702.834	3133.22
703.023	3104.55
703.212	3184.42
703.4	3053.35
703.589	3133.22
703.777	3094.31
703.965	2991.91
704.154	3071.78
704.342	2998.06
704.531	3010.34
704.719	2963.24
704.907	3106.6
705.096	2891.56
705.284	3002.15
705.472	3137.32
705.661	2998.06
705.849	3065.64
706.037	2924.33
706.226	3143.46
706.414	2946.86
706.602	2914.09
706.79	3165.99
706.979	3049.25
707.167	3008.3
707.355	2977.58
707.543	3088.17
707.731	3034.92
707.919	2891.56
708.107	2924.33
708.296	2983.72
708.484	3149.61
708.672	2938.66
708.86	2989.86
709.048	2993.96
709.236	2944.81
709.424	3012.39
709.612	2891.56
709.8	3004.2
709.988	2959.14
710.176	3008.3
710.364	2946.86
710.551	2852.65
710.739	2926.38
710.927	2942.76
711.115	3014.44
711.303	2989.86
711.491	2924.33
711.679	2981.67
711.866	2893.61
712.054	2942.76
712.242	2852.65
712.43	2897.71
712.617	2973.48
712.805	3008.3
712.993	2961.19
713.181	2961.19
713.368	2950.95
713.556	2955.05
713.744	2928.42
713.931	2899.75
714.119	2950.95
714.306	3028.78
714.494	3098.41
714.682	3000.1
714.869	3004.2
715.057	2965.29
715.244	2928.42
715.432	2897.71
715.619	2903.85
715.807	3057.45
715.994	3057.45
716.182	3026.73
716.369	2887.47
716.556	3034.92
716.744	3139.37
716.931	3028.78
717.119	3018.54
717.306	3004.2
717.493	3067.69
717.681	2996.01
717.868	3006.25
718.055	3063.59
718.242	3028.78
718.43	3063.59
718.617	2928.42
718.804	2983.72
718.991	2895.66
719.179	3032.87
719.366	2889.51
719.553	3129.13
719.74	3067.69
719.927	3004.2
720.114	2946.86
720.301	2862.89
720.488	2969.38
720.676	3053.35
720.863	3024.68
721.05	3075.88
721.237	3139.37
721.424	3075.88
721.611	3114.79
721.798	3039.01
721.985	2967.34
722.172	2942.76
722.358	2977.58
722.545	3024.68
722.732	3020.58
722.919	2979.62
723.106	2885.42
723.293	3014.44
723.48	2963.24
723.667	3034.92
723.853	2912.04
724.04	3102.5
724.227	3028.78
724.414	3102.5
724.6	3053.35
724.787	2854.7
724.974	2938.66
725.161	2932.52
725.347	2932.52
725.534	2922.28
725.72	2985.77
725.907	2946.86
726.094	3104.55
726.28	2930.47
726.467	2905.9
726.653	3071.78
726.84	3067.69
727.027	3018.54
727.213	2936.62
727.4	3004.2
727.586	2938.66
727.773	2973.48
727.959	3067.69
728.145	2996.01
728.332	2930.47
728.518	2938.66
728.705	3112.74
728.891	3106.6
729.077	3026.73
729.264	3100.45
729.45	2961.19
729.636	3047.21
729.823	2916.14
730.009	3090.21
730.195	3047.21
730.382	2981.67
730.568	3061.54
730.754	2924.33
730.94	2983.72
731.126	2989.86
731.313	3036.97
731.499	2973.48
731.685	2918.18
731.871	2996.01
732.057	3127.08
732.243	2856.75
732.429	2971.43
732.615	2909.99
732.801	3014.44
732.987	2881.32
733.173	2955.05
733.359	3028.78
733.545	2924.33
733.731	2963.24
733.917	2916.14
734.103	2918.18
734.289	2907.94
734.475	3032.87
734.661	2918.18
734.847	3071.78
735.033	3073.83
735.219	2987.82
735.404	2885.42
735.59	2887.47
735.776	2864.94
735.962	2946.86
736.148	2993.96
736.333	3034.92
736.519	2920.23
736.705	2905.9
736.89	2891.56
737.076	2869.03
737.262	2864.94
737.447	2819.88
737.633	3002.15
737.819	2866.99
738.004	2891.56
738.19	2778.92
738.375	2909.99
738.561	2795.31
738.747	3018.54
738.932	2764.59
739.118	2899.75
739.303	2840.36
739.489	2858.79
739.674	2875.18
739.859	2953
740.045	2815.79
740.23	2723.63
740.416	2819.88
740.601	2803.5
740.786	2756.4
740.972	2721.58
741.157	2770.73
741.342	2783.02
741.528	2742.06
741.713	2721.58
741.898	2680.62
742.084	2756.4
742.269	2770.73
742.454	2647.85
742.639	2684.72
742.824	2729.77
743.01	2707.24
743.195	2799.4
743.38	2658.09
743.565	2637.61
743.75	2711.34
743.935	2586.41
744.12	2619.18
744.305	2553.65
744.49	2619.18
744.675	2572.08
744.86	2545.45
745.045	2504.5
745.23	2545.45
745.415	2473.78
745.6	2545.45
745.785	2455.34
745.97	2594.61
746.155	2502.45
746.34	2545.45
746.525	2369.33
746.71	2539.31
746.895	2287.41
747.079	2447.15
747.264	2496.3
747.449	2377.52
747.634	2527.02
747.819	2354.99
748.003	2412.34
748.188	2387.76
748.373	2221.88
748.557	2264.88
748.742	2201.4
748.927	2180.92
749.111	2281.27
749.296	2221.88
749.481	2193.2
749.665	2160.44
749.85	2121.52
750.034	2268.98
750.219	2168.63
750.404	2146.1
750.588	2092.85
750.773	2123.57
750.957	2182.96
751.141	2123.57
751.326	2066.23
751.51	2035.51
751.695	1908.54
751.879	2086.71
752.064	2035.51
752.248	2029.37
752.432	2045.75
752.617	2074.42
752.801	1992.5
752.985	2111.29
753.17	1941.3
753.354	1945.4
753.538	1896.25
753.722	1863.48
753.907	1826.62
754.091	1955.64
754.275	1933.11
754.459	1799.99
754.643	1820.47
754.828	1818.43
755.012	1908.54
755.196	1720.12
755.38	1734.46
755.564	1673.02
755.748	1709.88
755.932	1718.08
756.116	1890.1
756.3	1779.51
756.484	1670.97
756.668	1611.58
756.852	1675.07
757.036	1744.7
757.22	1697.6
757.404	1607.48
757.588	1552.19
757.772	1601.34
757.956	1728.31
758.14	1603.39
758.323	1652.54
758.507	1656.64
758.691	1570.62
758.875	1578.81
759.059	1582.91
759.242	1562.43
759.426	1558.33
759.61	1582.91
759.794	1408.83
759.977	1521.47
760.161	1468.22
760.345	1521.47
760.528	1367.87
760.712	1556.29
760.895	1453.89
761.079	1515.33
761.263	1392.45
761.446	1453.89
761.63	1425.22
761.813	1445.7
761.997	1345.34
762.18	1351.49
762.364	1335.1
762.547	1339.2
762.731	1414.98
762.914	1408.83
763.098	1451.84
763.281	1306.43
763.464	1290.05
763.648	1333.06
763.831	1378.11
764.015	1324.87
764.198	1363.78
764.381	1324.87
764.564	1288
764.748	1269.57
764.931	1267.52
765.114	1265.47
765.297	1255.23
765.481	1314.63
765.664	1236.8
765.847	1259.33
766.03	1269.57
766.213	1230.66
766.397	1204.03
766.58	1257.28
766.763	1281.86
766.946	1206.08
767.129	1183.56
767.312	1191.75
767.495	1191.75
767.678	1290.05
767.861	1144.64
768.044	1165.12
768.227	1187.65
768.41	1136.45
768.593	1175.36
768.776	1107.78
768.959	1126.21
769.142	1175.36
769.324	1003.33
769.507	1118.02
769.69	1122.12
769.873	1083.2
770.056	1128.26
770.239	1070.92
770.421	1091.4
770.604	1156.93
770.787	1167.17
770.97	1115.97
771.152	1120.07
771.335	1050.44
771.518	1048.39
771.7	1173.32
771.883	1115.97
772.066	1070.92
772.248	1111.88
772.431	1009.48
772.613	1081.16
772.796	980.81
772.978	952.13
773.161	1044.29
773.343	948.04
773.526	997.19
773.708	1042.25
773.891	929.61
774.073	993.09
774.256	943.94
774.438	1036.1
774.621	898.89
774.803	970.57
774.985	941.89
775.168	929.61
775.35	1025.86
775.532	1044.29
775.715	905.03
775.897	968.52
776.079	909.13
776.261	878.41
776.444	866.12
776.626	876.36
776.808	923.46
776.99	878.41
777.173	886.6
777.355	841.54
777.537	810.82
777.719	778.06
777.901	931.66
778.083	855.88
778.265	868.17
778.447	751.43
778.629	741.19
778.811	816.97
778.993	845.64
779.175	755.53
779.357	839.5
779.539	753.48
779.721	767.82
779.903	700.23
780.085	753.48
780.267	692.04
780.449	780.11
780.631	755.53
780.812	806.73
780.994	718.67
781.176	761.67
781.358	704.33
781.54	681.8
781.721	642.89
781.903	735.05
782.085	743.24
782.267	649.04
782.448	649.04
782.63	692.04
782.812	733
782.993	649.04
783.175	671.56
783.357	651.08
783.538	636.75
783.72	624.46
783.901	575.31
784.083	608.08
784.264	626.51
784.446	708.43
784.627	603.98
784.809	608.08
784.99	657.23
785.172	646.99
785.353	657.23
785.535	575.31
785.716	509.77
785.897	499.53
786.079	587.6
786.26	618.32
786.441	526.16
786.623	550.73
786.804	552.78
786.985	520.01
787.167	526.16
787.348	565.07
787.529	497.49
787.71	569.16
787.891	556.88
788.073	581.45
788.254	513.87
788.435	493.39
788.616	509.77
788.797	440.14
788.978	495.44
789.159	468.81
789.34	468.81
789.522	466.77
789.703	505.68
789.884	462.67
790.065	501.58
790.246	370.51
790.427	456.53
790.607	497.49
790.788	472.91
790.969	501.58
791.15	468.81
791.331	421.71
791.512	393.04
791.693	372.56
791.874	470.86
792.054	546.64
792.235	470.86
792.416	409.42
792.597	493.39
792.778	474.96
792.958	397.14
793.139	411.47
793.32	417.61
793.5	284.5
793.681	481.1
793.862	409.42
794.042	407.38
794.223	483.15
794.404	380.75
794.584	390.99
794.765	302.93
794.945	397.14
795.126	347.98
795.306	311.12
795.487	374.61
795.667	313.17
795.848	378.7
796.028	362.32
796.209	374.61
796.389	372.56
796.57	378.7
796.75	360.27
796.93	415.57
797.111	300.88
797.291	356.18
797.471	327.5
797.652	382.8
797.832	241.49
798.012	411.47
798.192	294.74
798.373	284.5
798.553	339.79
798.733	335.7
798.913	272.21
799.093	354.13
799.274	395.09
799.454	350.03
799.634	255.83
799.814	343.89
799.994	358.22
800.174	352.08
800.354	331.6
800.534	280.4
800.714	386.9
800.894	223.06
801.074	311.12
801.254	304.98
801.434	311.12
801.614	333.65
801.794	298.83
801.974	710.47
802.154	288.59
802.334	296.78
802.514	237.39
802.693	264.02
802.873	286.54
803.053	315.22
803.233	255.83
803.413	298.83
803.592	276.31
803.772	175.95
803.952	255.83
804.131	282.45
804.311	311.12
804.491	249.68
804.67	202.58
804.85	247.63
805.03	266.07
805.209	300.88
805.389	237.39
805.568	259.92
805.748	255.83
805.928	307.02
806.107	362.32
806.287	276.31
806.466	202.58
806.646	216.91
806.825	268.11
807.004	249.68
807.184	243.54
807.363	251.73
807.543	245.59
807.722	245.59
807.901	184.15
808.081	307.02
808.26	202.58
808.439	227.15
808.619	231.25
808.798	202.58
808.977	210.77
809.156	257.87
809.336	309.07
809.515	241.49
809.694	237.39
809.873	294.74
810.052	208.72
810.231	194.39
810.411	155.47
810.59	204.63
810.769	208.72
810.948	276.31
811.127	223.06
811.306	229.2
811.485	171.86
811.664	239.44
811.843	182.1
812.022	196.43
812.201	247.63
812.38	157.52
812.559	149.33
812.737	229.2
812.916	165.71
813.095	130.9
813.274	206.67
813.453	157.52
813.632	198.48
813.811	272.21
813.989	163.67
814.168	151.38
814.347	169.81
814.526	218.96
814.704	149.33
814.883	237.39
815.062	178
815.24	192.34
815.419	188.24
815.598	249.68
815.776	75.6
815.955	249.68
816.133	161.62
816.312	212.82
816.49	145.24
816.669	184.15
816.847	132.95
817.026	122.71
817.204	122.71
817.383	153.43
817.561	173.91
817.74	100.18
817.918	163.67
818.097	106.32
818.275	36.69
818.453	159.57
818.632	243.54
818.81	200.53
818.988	214.87
819.167	175.95
819.345	198.48
819.523	128.85
819.701	108.37
819.879	159.57
820.058	149.33
820.236	192.34
820.414	122.71
820.592	175.95
820.77	91.99
820.948	151.38
821.127	163.67
821.305	145.24
821.483	135
821.661	169.81
821.839	153.43
822.017	114.52
822.195	135
822.373	184.15
822.551	120.66
822.729	149.33
822.907	182.1
823.085	143.19
823.262	116.56
823.44	175.95
823.618	180.05
823.796	147.28
823.974	139.09
824.152	122.71
824.329	67.41
824.507	159.57
824.685	89.94
824.863	167.76
825.04	132.95
825.218	137.04
825.396	79.7
825.574	96.08
825.751	75.6
825.929	67.41
826.107	79.7
826.284	194.39
826.462	69.46
826.639	104.28
826.817	91.99
826.994	98.13
827.172	114.52
827.349	147.28
827.527	210.77
827.704	153.43
827.882	124.76
828.059	116.56
828.237	118.61
828.414	157.52
828.591	100.18
828.769	126.8
828.946	106.32
829.124	106.32
829.301	69.46
829.478	18.26
829.655	57.17
829.833	108.37
830.01	57.17
830.187	137.04
830.364	147.28
830.542	137.04
830.719	104.28
830.896	157.52
831.073	112.47
831.25	83.8
831.427	87.89
831.604	34.64
831.782	89.94
831.959	153.43
832.136	137.04
832.313	153.43
832.49	122.71
832.667	73.56
832.844	124.76
833.021	106.32
833.198	24.4
833.374	96.08
833.551	42.84
833.728	61.27
833.905	67.41
834.082	89.94
834.259	94.04
834.436	108.37
834.612	161.62
834.789	55.12
834.966	73.56
835.143	87.89
835.319	28.5
835.496	126.8
835.673	22.36
835.85	83.8
836.026	69.46
836.203	100.18
836.38	26.45
836.556	67.41
836.733	83.8
836.909	114.52
837.086	71.51
837.262	18.26
837.439	-10.41
837.616	149.33
837.792	83.8
837.968	157.52
838.145	18.26
838.321	130.9
838.498	67.41
838.674	108.37
838.851	83.8
839.027	137.04
839.203	110.42
839.38	20.31
839.556	124.76
839.732	-16.55
839.909	96.08
840.085	79.7
840.261	-6.31
840.437	28.5
840.614	75.6
840.79	79.7
840.966	71.51
841.142	38.74
841.318	53.08
841.494	22.36
841.671	48.98
841.847	87.89
842.023	53.08
842.199	79.7
842.375	87.89
842.551	79.7
842.727	63.32
842.903	98.13
843.079	10.07
843.255	96.08
843.431	79.7
843.607	135
843.783	40.79
843.959	51.03
844.134	77.65
844.31	-26.79
844.486	130.9
844.662	71.51
844.838	81.75
845.013	73.56
845.189	59.22
845.365	161.62
845.541	96.08
845.716	83.8
845.892	69.46
846.068	71.51
846.244	48.98
846.419	59.22
846.595	16.21
846.77	81.75
846.946	32.6
847.122	67.41
847.297	112.47
847.473	67.41
847.648	-28.84
847.824	51.03
847.999	46.93
848.175	83.8
848.35	87.89
848.526	108.37
848.701	102.23
848.876	122.71
849.052	36.69
849.227	-26.79
849.403	42.84
849.578	51.03
849.753	36.69
849.929	44.88
850.104	-22.7
850.279	36.69
850.454	75.6
850.63	83.8
850.805	112.47
850.98	48.98
851.155	85.84
851.33	48.98
851.505	57.17
851.681	24.4
851.856	-30.89
852.031	28.5
852.206	55.12
852.381	18.26
852.556	34.64
852.731	89.94
852.906	100.18
853.081	116.56
853.256	69.46
853.431	18.26
853.606	-22.7
853.781	34.64
853.956	-18.6
854.131	89.94
854.305	5.97
854.48	-28.84
854.655	36.69
854.83	3.93
855.005	-12.46
855.18	108.37
855.354	26.45
855.529	91.99
855.704	51.03
855.879	91.99
856.053	-8.36
856.228	48.98
856.403	38.74
856.577	34.64
856.752	-39.08
856.926	122.71
857.101	18.26
857.276	69.46
857.45	46.93
857.625	59.22
857.799	-53.42
857.974	5.97
858.148	-0.17
858.323	65.36
858.497	36.69
858.672	-55.47
858.846	32.6
859.02	69.46
859.195	34.64
859.369	-8.36
859.543	79.7
859.718	61.27
859.892	-32.94
860.066	12.12
860.241	12.12
860.415	28.5
860.589	-4.27
860.763	18.26
860.938	8.02
861.112	48.98
861.286	-14.51
861.46	59.22
861.634	24.4
861.808	18.26
861.982	44.88
862.157	-16.55
862.331	26.45
862.505	26.45
862.679	-30.89
862.853	67.41
863.027	8.02
863.201	73.56
863.375	34.64
863.549	94.04
863.722	-12.46
863.896	114.52
864.07	-51.37
864.244	-12.46
864.418	16.21
864.592	30.55
864.766	16.21
864.939	-16.55
865.113	69.46
865.287	102.23
865.461	34.64
865.634	77.65
865.808	34.64
865.982	63.32
866.156	-16.55
866.329	5.97
866.503	-18.6
866.676	114.52
866.85	8.02
867.024	-22.7
867.197	20.31
867.371	42.84
867.544	59.22
867.718	-41.13
867.891	30.55
868.065	55.12
868.238	48.98
868.412	22.36
868.585	-12.46
868.759	38.74
868.932	-37.03
869.105	-28.84
869.279	-22.7
869.452	-51.37
869.625	55.12
869.799	137.04
869.972	3.93
870.145	16.21
870.319	71.51
870.492	5.97
870.665	12.12
870.838	24.4
871.011	-18.6
871.185	14.17
871.358	42.84
871.531	81.75
871.704	-41.13
871.877	24.4
872.05	40.79
872.223	-18.6
872.396	-30.89
872.569	87.89
872.742	24.4
872.915	-18.6
873.088	-4.27
873.261	-47.27
873.434	-20.65
873.607	77.65
873.78	18.26
873.953	1.88
874.126	42.84
874.299	5.97
874.471	-47.27
874.644	108.37
874.817	-0.17
874.99	28.5
875.163	51.03
875.335	46.93
875.508	16.21
875.681	44.88
875.853	-34.99
876.026	55.12
876.199	69.46
876.371	26.45
876.544	10.07
876.717	5.97
876.889	-51.37
877.062	147.28
877.234	-20.65
877.407	5.97
877.579	40.79
877.752	57.17
877.924	-16.55
878.097	-12.46
878.269	-30.89
878.442	89.94
878.614	30.55
878.786	55.12
878.959	16.21
879.131	30.55
879.303	-18.6
879.476	-10.41
879.648	10.07
879.82	51.03
879.993	-16.55
880.165	30.55
880.337	-39.08
880.509	-59.56
880.681	-49.32
880.854	20.31
881.026	-37.03
881.198	22.36
881.37	-4.27
881.542	-12.46
881.714	-34.99
881.886	-18.6
882.058	22.36
882.23	89.94
882.402	-0.17
882.574	20.31
882.746	-24.75
882.918	22.36
883.09	32.6
883.262	28.5
883.434	32.6
883.606	-41.13
883.778	-80.04
883.95	-20.65
884.122	-26.79
884.293	61.27
884.465	-20.65
884.637	53.08
884.809	24.4
884.98	65.36
885.152	-16.55
885.324	24.4
885.496	18.26
885.667	-4.27
885.839	51.03
886.011	12.12
886.182	-2.22
886.354	-28.84
886.525	22.36
886.697	-37.03
886.869	-69.8
887.04	10.07
887.212	-4.27
887.383	46.93
887.555	14.17
887.726	-22.7
887.897	-47.27
888.069	32.6
888.24	116.56
888.412	16.21
888.583	-8.36
888.754	28.5
888.926	10.07
889.097	30.55
889.268	-41.13
889.44	116.56
889.611	-26.79
889.782	10.07
889.953	79.7
890.125	-34.99
890.296	18.26
890.467	75.6
890.638	-49.32
890.809	36.69
890.98	-8.36
891.151	40.79
891.323	12.12
891.494	3.93
891.665	51.03
891.836	-4.27
892.007	3.93
892.178	53.08
892.349	-20.65
892.52	20.31
892.691	8.02
892.862	-37.03
893.032	55.12
893.203	-2.22
893.374	-26.79
893.545	14.17
893.716	-47.27
893.887	77.65
894.057	36.69
894.228	-2.22
894.399	-20.65
894.57	-12.46
894.74	-6.31
894.911	46.93
895.082	-12.46
895.253	24.4
895.423	-96.43
895.594	12.12
895.764	-26.79
895.935	1.88
896.106	71.51
896.276	10.07
896.447	-2.22
896.617	1.88
896.788	32.6
896.958	8.02
897.129	-57.51
897.299	5.97
897.47	-12.46
897.64	69.46
897.81	-20.65
897.981	30.55
898.151	-75.95
898.322	1.88
898.492	30.55
898.662	3.93
898.832	-59.56
899.003	-96.43
899.173	-12.46
899.343	26.45
899.513	-43.18
