Data from USB4F104151__92__11-52-58-859.txt Node

Date: Fri Mar 14 11:52:58 EDT 2025
User: louis
Spectrometer: USB4F10415
Trigger mode: 4
Integration Time (sec): 2.000000E-2
Scans to average: 1
Electric dark correction enabled: true
Nonlinearity correction enabled: false
Boxcar width: 0
XAxis mode: Wavelengths
Number of Pixels in Spectrum: 3648
>>>>>Begin Spectral Data<<<<<
178.204	-159.57
178.424	-159.57
178.644	-159.57
178.864	-110.42
179.084	-28.5
179.304	-5.97
179.524	26.79
179.744	-55.12
179.964	26.79
180.184	20.65
180.404	61.61
180.624	14.51
180.844	-3.93
181.064	-69.46
181.283	26.79
181.503	-44.88
181.723	2.22
181.943	10.41
182.163	53.42
182.383	34.99
182.602	102.57
182.822	80.04
183.042	63.66
183.262	22.7
183.482	-69.46
183.701	73.9
183.921	20.65
184.141	24.75
184.361	45.23
184.58	28.84
184.8	30.89
185.02	12.46
185.239	96.43
185.459	-12.12
185.679	57.51
185.898	-5.97
186.118	71.85
186.338	2.22
186.557	-10.07
186.777	-12.12
186.997	-10.07
187.216	10.41
187.436	51.37
187.655	12.46
187.875	30.89
188.095	57.51
188.314	30.89
188.534	-1.88
188.753	26.79
188.973	8.36
189.192	10.41
189.412	43.18
189.631	30.89
189.851	28.84
190.07	114.86
190.29	-44.88
190.509	-30.55
190.729	0.17
190.948	84.14
191.168	51.37
191.387	73.9
191.607	0.17
191.826	80.04
192.045	-20.31
192.265	88.23
192.484	49.32
192.704	18.6
192.923	-69.46
193.142	80.04
193.362	20.65
193.581	59.56
193.8	14.51
194.02	34.99
194.239	4.27
194.458	-3.93
194.678	14.51
194.897	94.38
195.116	71.85
195.335	41.13
195.555	92.33
195.774	39.08
195.993	34.99
196.212	-46.93
196.432	65.71
196.651	-10.07
196.87	47.27
197.089	30.89
197.308	-44.88
197.528	39.08
197.747	-1.88
197.966	51.37
198.185	108.71
198.404	16.55
198.623	8.36
198.842	2.22
199.062	65.71
199.281	108.71
199.5	32.94
199.719	32.94
199.938	41.13
200.157	16.55
200.376	69.8
200.595	-18.26
200.814	28.84
201.033	39.08
201.252	133.29
201.471	16.55
201.69	100.52
201.909	106.67
202.128	71.85
202.347	4.27
202.566	-16.21
202.785	-22.36
203.004	100.52
203.223	104.62
203.442	65.71
203.661	-42.84
203.879	41.13
204.098	47.27
204.317	-40.79
204.536	45.23
204.755	104.62
204.974	92.33
205.193	30.89
205.411	88.23
205.63	32.94
205.849	61.61
206.068	12.46
206.287	-14.17
206.505	51.37
206.724	75.95
206.943	106.67
207.162	65.71
207.381	16.55
207.599	-12.12
207.818	75.95
208.037	-51.03
208.255	45.23
208.474	4.27
208.693	8.36
208.911	30.89
209.13	51.37
209.349	34.99
209.567	39.08
209.786	24.75
210.005	63.66
210.223	84.14
210.442	12.46
210.661	55.47
210.879	-12.12
211.098	37.03
211.316	24.75
211.535	20.65
211.753	4.27
211.972	45.23
212.191	26.79
212.409	-30.55
212.628	37.03
212.846	39.08
213.065	-53.08
213.283	59.56
213.502	24.75
213.72	49.32
213.938	14.51
214.157	24.75
214.375	47.27
214.594	63.66
214.812	4.27
215.031	88.23
215.249	2.22
215.467	41.13
215.686	32.94
215.904	49.32
216.122	77.99
216.341	153.77
216.559	18.6
216.778	137.38
216.996	55.47
217.214	80.04
217.432	-32.6
217.651	-14.17
217.869	28.84
218.087	-48.98
218.306	57.51
218.524	63.66
218.742	8.36
218.96	57.51
219.179	34.99
219.397	45.23
219.615	32.94
219.833	59.56
220.051	-10.07
220.27	-22.36
220.488	30.89
220.706	41.13
220.924	22.7
221.142	63.66
221.36	-32.6
221.578	2.22
221.796	43.18
222.015	24.75
222.233	-16.21
222.451	88.23
222.669	26.79
222.887	90.28
223.105	0.17
223.323	20.65
223.541	61.61
223.759	65.71
223.977	39.08
224.195	10.41
224.413	61.61
224.631	92.33
224.849	73.9
225.067	16.55
225.285	92.33
225.503	-16.21
225.721	-65.36
225.939	45.23
226.157	22.7
226.375	2.22
226.592	-14.17
226.81	26.79
227.028	10.41
227.246	51.37
227.464	84.14
227.682	34.99
227.9	88.23
228.117	20.65
228.335	75.95
228.553	57.51
228.771	-44.88
228.989	96.43
229.206	-18.26
229.424	63.66
229.642	6.31
229.86	0.17
230.077	8.36
230.295	45.23
230.513	-1.88
230.731	47.27
230.948	71.85
231.166	34.99
231.384	6.31
231.601	51.37
231.819	139.43
232.037	-22.36
232.254	47.27
232.472	37.03
232.689	57.51
232.907	28.84
233.125	16.55
233.342	63.66
233.56	0.17
233.777	59.56
233.995	47.27
234.213	55.47
234.43	104.62
234.648	-18.26
234.865	26.79
235.083	41.13
235.3	43.18
235.518	20.65
235.735	92.33
235.953	45.23
236.17	24.75
236.388	49.32
236.605	12.46
236.822	75.95
237.04	57.51
237.257	8.36
237.475	-40.79
237.692	34.99
237.909	2.22
238.127	10.41
238.344	108.71
238.562	90.28
238.779	-1.88
238.996	-18.26
239.214	39.08
239.431	28.84
239.648	6.31
239.865	67.75
240.083	-48.98
240.3	37.03
240.517	34.99
240.735	43.18
240.952	39.08
241.169	39.08
241.386	51.37
241.603	-48.98
241.821	26.79
242.038	59.56
242.255	63.66
242.472	73.9
242.689	63.66
242.907	104.62
243.124	24.75
243.341	53.42
243.558	-34.64
243.775	-40.79
243.992	69.8
244.209	26.79
244.426	75.95
244.643	55.47
244.86	43.18
245.078	4.27
245.295	43.18
245.512	57.51
245.729	92.33
245.946	90.28
246.163	51.37
246.38	-79.7
246.597	14.51
246.814	2.22
247.031	133.29
247.248	65.71
247.464	59.56
247.681	14.51
247.898	65.71
248.115	-16.21
248.332	28.84
248.549	53.42
248.766	88.23
248.983	39.08
249.2	-32.6
249.417	-1.88
249.633	24.75
249.85	77.99
250.067	16.55
250.284	59.56
250.501	55.47
250.717	34.99
250.934	-57.17
251.151	43.18
251.368	-8.02
251.585	71.85
251.801	43.18
252.018	63.66
252.235	43.18
252.451	-5.97
252.668	-30.55
252.885	8.36
253.102	73.9
253.318	96.43
253.535	0.17
253.752	22.7
253.968	0.17
254.185	45.23
254.401	34.99
254.618	77.99
254.835	39.08
255.051	69.8
255.268	67.75
255.484	43.18
255.701	34.99
255.917	80.04
256.134	26.79
256.351	14.51
256.567	51.37
256.784	59.56
257	53.42
257.217	16.55
257.433	49.32
257.65	10.41
257.866	96.43
258.082	30.89
258.299	43.18
258.515	80.04
258.732	-1.88
258.948	10.41
259.165	86.19
259.381	114.86
259.597	20.65
259.814	24.75
260.03	43.18
260.246	10.41
260.463	61.61
260.679	41.13
260.895	4.27
261.112	32.94
261.328	8.36
261.544	10.41
261.761	14.51
261.977	32.94
262.193	55.47
262.409	65.71
262.626	92.33
262.842	84.14
263.058	-10.07
263.274	61.61
263.49	6.31
263.707	8.36
263.923	53.42
264.139	84.14
264.355	45.23
264.571	125.1
264.787	10.41
265.004	51.37
265.22	37.03
265.436	67.75
265.652	49.32
265.868	69.8
266.084	-20.31
266.3	10.41
266.516	16.55
266.732	53.42
266.948	-51.03
267.164	24.75
267.38	14.51
267.596	-10.07
267.812	147.62
268.028	71.85
268.244	49.32
268.46	41.13
268.676	57.51
268.892	16.55
269.108	51.37
269.324	22.7
269.54	37.03
269.756	86.19
269.972	-40.79
270.188	69.8
270.403	26.79
270.619	53.42
270.835	22.7
271.051	-12.12
271.267	26.79
271.483	-3.93
271.698	125.1
271.914	49.32
272.13	47.27
272.346	-69.46
272.562	2.22
272.777	98.47
272.993	41.13
273.209	4.27
273.425	55.47
273.64	18.6
273.856	34.99
274.072	37.03
274.287	67.75
274.503	53.42
274.719	10.41
274.934	43.18
275.15	-5.97
275.366	37.03
275.581	4.27
275.797	65.71
276.012	-16.21
276.228	16.55
276.444	49.32
276.659	-3.93
276.875	28.84
277.09	0.17
277.306	20.65
277.521	4.27
277.737	63.66
277.952	69.8
278.168	77.99
278.383	-14.17
278.599	-26.45
278.814	94.38
279.03	26.79
279.245	104.62
279.461	34.99
279.676	12.46
279.892	-8.02
280.107	39.08
280.322	-1.88
280.538	84.14
280.753	8.36
280.969	26.79
281.184	-30.55
281.399	51.37
281.615	0.17
281.83	18.6
282.045	22.7
282.26	24.75
282.476	14.51
282.691	-3.93
282.906	-8.02
283.122	71.85
283.337	-5.97
283.552	94.38
283.767	100.52
283.983	30.89
284.198	57.51
284.413	65.71
284.628	-38.74
284.843	12.46
285.058	45.23
285.274	32.94
285.489	0.17
285.704	55.47
285.919	77.99
286.134	2.22
286.349	43.18
286.564	84.14
286.779	108.71
286.995	43.18
287.21	34.99
287.425	77.99
287.64	53.42
287.855	-46.93
288.07	18.6
288.285	73.9
288.5	-1.88
288.715	61.61
288.93	-5.97
289.145	30.89
289.36	75.95
289.575	-48.98
289.79	-14.17
290.004	30.89
290.219	98.47
290.434	69.8
290.649	-40.79
290.864	127.14
291.079	39.08
291.294	108.71
291.509	-24.4
291.724	39.08
291.938	10.41
292.153	84.14
292.368	77.99
292.583	86.19
292.798	34.99
293.012	-8.02
293.227	-44.88
293.442	43.18
293.657	118.95
293.871	116.9
294.086	43.18
294.301	67.75
294.516	53.42
294.73	8.36
294.945	51.37
295.16	30.89
295.374	125.1
295.589	-8.02
295.804	12.46
296.018	49.32
296.233	-10.07
296.447	49.32
296.662	14.51
296.877	-26.45
297.091	129.19
297.306	51.37
297.52	16.55
297.735	57.51
297.949	94.38
298.164	24.75
298.378	84.14
298.593	53.42
298.807	34.99
299.022	51.37
299.236	43.18
299.451	-36.69
299.665	47.27
299.88	106.67
300.094	45.23
300.309	-26.45
300.523	71.85
300.737	26.79
300.952	2.22
301.166	123.05
301.381	16.55
301.595	90.28
301.809	55.47
302.024	-24.4
302.238	24.75
302.452	26.79
302.667	-18.26
302.881	30.89
303.095	6.31
303.309	53.42
303.524	24.75
303.738	63.66
303.952	12.46
304.166	43.18
304.381	4.27
304.595	30.89
304.809	12.46
305.023	53.42
305.237	73.9
305.452	22.7
305.666	22.7
305.88	-3.93
306.094	61.61
306.308	28.84
306.522	63.66
306.736	32.94
306.95	55.47
307.164	37.03
307.379	67.75
307.593	59.56
307.807	45.23
308.021	59.56
308.235	77.99
308.449	-8.02
308.663	-16.21
308.877	-18.26
309.091	55.47
309.305	34.99
309.519	-16.21
309.733	92.33
309.947	16.55
310.161	80.04
310.374	53.42
310.588	59.56
310.802	-36.69
311.016	88.23
311.23	57.51
311.444	37.03
311.658	-22.36
311.872	57.51
312.085	88.23
312.299	34.99
312.513	-61.27
312.727	112.81
312.941	14.51
313.154	96.43
313.368	88.23
313.582	59.56
313.796	34.99
314.009	73.9
314.223	47.27
314.437	39.08
314.651	22.7
314.864	53.42
315.078	-10.07
315.292	22.7
315.505	92.33
315.719	112.81
315.933	84.14
316.146	24.75
316.36	61.61
316.573	26.79
316.787	20.65
317.001	59.56
317.214	20.65
317.428	49.32
317.641	55.47
317.855	26.79
318.068	-3.93
318.282	51.37
318.495	43.18
318.709	-1.88
318.922	16.55
319.136	92.33
319.349	53.42
319.563	39.08
319.776	94.38
319.99	26.79
320.203	67.75
320.417	53.42
320.63	28.84
320.843	77.99
321.057	12.46
321.27	26.79
321.483	39.08
321.697	67.75
321.91	51.37
322.124	63.66
322.337	53.42
322.55	41.13
322.763	65.71
322.977	75.95
323.19	37.03
323.403	49.32
323.617	26.79
323.83	77.99
324.043	51.37
324.256	84.14
324.469	37.03
324.683	-1.88
324.896	43.18
325.109	55.47
325.322	30.89
325.535	37.03
325.748	55.47
325.962	55.47
326.175	41.13
326.388	8.36
326.601	88.23
326.814	-14.17
327.027	96.43
327.24	82.09
327.453	-5.97
327.666	63.66
327.879	43.18
328.092	116.9
328.305	37.03
328.518	75.95
328.731	104.62
328.944	51.37
329.157	61.61
329.37	43.18
329.583	127.14
329.796	80.04
330.009	14.51
330.222	86.19
330.435	4.27
330.648	51.37
330.861	59.56
331.073	82.09
331.286	94.38
331.499	125.1
331.712	-20.31
331.925	94.38
332.138	30.89
332.35	51.37
332.563	30.89
332.776	30.89
332.989	59.56
333.202	116.9
333.414	-8.02
333.627	57.51
333.84	22.7
334.053	43.18
334.265	82.09
334.478	75.95
334.691	69.8
334.903	20.65
335.116	30.89
335.329	106.67
335.541	75.95
335.754	114.86
335.966	0.17
336.179	20.65
336.392	-30.55
336.604	-32.6
336.817	-14.17
337.029	24.75
337.242	30.89
337.454	69.8
337.667	69.8
337.88	37.03
338.092	88.23
338.305	82.09
338.517	51.37
338.729	98.47
338.942	75.95
339.154	96.43
339.367	49.32
339.579	145.58
339.792	39.08
340.004	121
340.217	-71.51
340.429	96.43
340.641	86.19
340.854	73.9
341.066	61.61
341.278	-46.93
341.491	39.08
341.703	59.56
341.915	6.31
342.128	61.61
342.34	61.61
342.552	6.31
342.764	24.75
342.977	-8.02
343.189	88.23
343.401	26.79
343.613	24.75
343.826	43.18
344.038	57.51
344.25	69.8
344.462	49.32
344.674	98.47
344.886	-22.36
345.099	32.94
345.311	-12.12
345.523	75.95
345.735	-1.88
345.947	34.99
346.159	47.27
346.371	88.23
346.583	-1.88
346.795	61.61
347.007	69.8
347.219	53.42
347.431	-22.36
347.643	55.47
347.855	71.85
348.067	92.33
348.279	47.27
348.491	24.75
348.703	12.46
348.915	88.23
349.127	125.1
349.339	77.99
349.551	84.14
349.763	49.32
349.975	-10.07
350.187	88.23
350.399	151.72
350.61	102.57
350.822	55.47
351.034	73.9
351.246	-1.88
351.458	51.37
351.669	45.23
351.881	63.66
352.093	55.47
352.305	-10.07
352.517	98.47
352.728	127.14
352.94	45.23
353.152	63.66
353.363	-24.4
353.575	-24.4
353.787	82.09
353.999	57.51
354.21	77.99
354.422	28.84
354.633	20.65
354.845	59.56
355.057	65.71
355.268	51.37
355.48	32.94
355.692	84.14
355.903	-1.88
356.115	18.6
356.326	37.03
356.538	94.38
356.749	82.09
356.961	65.71
357.172	-3.93
357.384	55.47
357.595	98.47
357.807	77.99
358.018	106.67
358.23	57.51
358.441	121
358.653	18.6
358.864	30.89
359.075	2.22
359.287	41.13
359.498	-28.5
359.709	14.51
359.921	59.56
360.132	71.85
360.344	67.75
360.555	104.62
360.766	114.86
360.977	-22.36
361.189	92.33
361.4	65.71
361.611	28.84
361.823	92.33
362.034	43.18
362.245	28.84
362.456	65.71
362.667	47.27
362.879	8.36
363.09	34.99
363.301	71.85
363.512	65.71
363.723	69.8
363.935	121
364.146	75.95
364.357	39.08
364.568	104.62
364.779	18.6
364.99	98.47
365.201	6.31
365.412	59.56
365.623	104.62
365.834	20.65
366.045	30.89
366.256	65.71
366.467	104.62
366.678	63.66
366.889	88.23
367.1	-44.88
367.311	32.94
367.522	47.27
367.733	43.18
367.944	69.8
368.155	37.03
368.366	71.85
368.577	47.27
368.788	129.19
368.999	37.03
369.209	75.95
369.42	37.03
369.631	157.86
369.842	82.09
370.053	47.27
370.264	59.56
370.474	77.99
370.685	8.36
370.896	110.76
371.107	61.61
371.317	43.18
371.528	39.08
371.739	133.29
371.95	59.56
372.16	47.27
372.371	24.75
372.582	63.66
372.792	63.66
373.003	73.9
373.214	84.14
373.424	63.66
373.635	37.03
373.846	77.99
374.056	59.56
374.267	37.03
374.477	63.66
374.688	49.32
374.898	77.99
375.109	59.56
375.319	43.18
375.53	6.31
375.74	51.37
375.951	86.19
376.161	65.71
376.372	14.51
376.582	53.42
376.793	80.04
377.003	-28.5
377.214	-20.31
377.424	41.13
377.635	73.9
377.845	-38.74
378.055	65.71
378.266	28.84
378.476	57.51
378.686	26.79
378.897	47.27
379.107	75.95
379.317	98.47
379.528	24.75
379.738	121
379.948	80.04
380.158	18.6
380.369	34.99
380.579	-10.07
380.789	26.79
380.999	41.13
381.21	39.08
381.42	127.14
381.63	69.8
381.84	88.23
382.05	65.71
382.261	67.75
382.471	43.18
382.681	-38.74
382.891	139.43
383.101	102.57
383.311	34.99
383.521	53.42
383.731	55.47
383.941	77.99
384.151	-18.26
384.361	53.42
384.571	84.14
384.781	43.18
384.991	59.56
385.201	4.27
385.411	71.85
385.621	47.27
385.831	112.81
386.041	82.09
386.251	112.81
386.461	34.99
386.671	67.75
386.881	16.55
387.091	-10.07
387.301	118.95
387.511	20.65
387.72	55.47
387.93	41.13
388.14	53.42
388.35	61.61
388.56	88.23
388.769	94.38
388.979	86.19
389.189	26.79
389.399	51.37
389.609	77.99
389.818	43.18
390.028	106.67
390.238	28.84
390.447	73.9
390.657	108.71
390.867	18.6
391.076	88.23
391.286	139.43
391.496	80.04
391.705	92.33
391.915	71.85
392.125	49.32
392.334	59.56
392.544	67.75
392.753	100.52
392.963	55.47
393.172	125.1
393.382	16.55
393.591	161.96
393.801	75.95
394.01	71.85
394.22	16.55
394.429	37.03
394.639	10.41
394.848	92.33
395.058	98.47
395.267	98.47
395.477	59.56
395.686	141.48
395.895	100.52
396.105	164.01
396.314	86.19
396.524	102.57
396.733	63.66
396.942	86.19
397.152	51.37
397.361	100.52
397.57	92.33
397.78	14.51
397.989	71.85
398.198	188.58
398.407	88.23
398.617	47.27
398.826	67.75
399.035	137.38
399.244	118.95
399.453	112.81
399.663	77.99
399.872	129.19
400.081	86.19
400.29	125.1
400.499	73.9
400.708	67.75
400.917	178.34
401.127	127.14
401.336	65.71
401.545	174.25
401.754	104.62
401.963	96.43
402.172	135.34
402.381	116.9
402.59	127.14
402.799	114.86
403.008	164.01
403.217	69.8
403.426	147.62
403.635	63.66
403.844	104.62
404.053	168.1
404.262	108.71
404.471	157.86
404.68	153.77
404.888	141.48
405.097	215.21
405.306	104.62
405.515	104.62
405.724	176.3
405.933	178.34
406.142	141.48
406.35	166.06
406.559	172.2
406.768	131.24
406.977	227.5
407.185	184.49
407.394	188.58
407.603	196.78
407.812	290.98
408.02	215.21
408.229	223.4
408.438	200.87
408.646	188.58
408.855	188.58
409.064	221.35
409.272	233.64
409.481	268.45
409.69	295.08
409.898	196.78
410.107	286.89
410.315	282.79
410.524	268.45
410.733	391.33
410.941	256.17
411.15	393.38
411.358	342.18
411.567	329.89
411.775	387.24
411.984	454.82
412.192	415.91
412.401	458.92
412.609	450.72
412.818	512.16
413.026	403.62
413.234	399.52
413.443	424.1
413.651	475.3
413.86	546.98
414.068	577.7
414.276	587.94
414.485	577.7
414.693	491.68
414.901	647.33
415.11	671.9
415.318	632.99
415.526	602.27
415.734	661.66
415.943	649.38
416.151	802.97
416.359	698.53
416.567	700.58
416.776	764.06
416.984	790.69
417.192	891.04
417.4	815.26
417.608	809.12
417.817	911.52
418.025	970.91
418.233	1087.64
418.441	1081.5
418.649	999.58
418.857	1214.62
419.065	1177.75
419.273	1044.63
419.481	1214.62
419.689	1220.76
419.897	1259.67
420.105	1392.79
420.313	1376.41
420.521	1458.32
420.729	1511.57
420.937	1601.68
421.145	1564.82
421.353	1654.93
421.561	1591.44
421.769	1593.49
421.977	1902.73
422.185	1796.24
422.393	1816.72
422.601	1927.31
422.809	1960.08
423.017	1953.93
423.224	2173.07
423.432	2130.06
423.64	2150.54
423.848	2330.76
424.056	2343.05
424.263	2592.9
424.471	2494.6
424.679	2429.06
424.887	2607.23
425.094	2822.27
425.302	2738.3
425.51	2992.25
425.718	3076.22
425.925	2949.25
426.133	3000.44
426.341	3238.01
426.548	3399.8
426.756	3444.85
426.964	3453.05
427.171	3670.13
427.379	3745.91
427.586	3868.78
427.794	3827.82
428.001	4171.88
428.209	4397.16
428.417	4239.47
428.624	4491.37
428.832	4532.33
429.039	4454.5
429.247	4616.29
429.454	4816.99
429.662	5294.17
429.869	4931.68
430.076	5285.98
430.284	5054.56
430.491	5267.55
430.699	5494.87
430.906	5609.56
431.114	5701.72
431.321	5972.05
431.528	5972.05
431.736	6463.56
431.943	6617.16
432.15	6477.9
432.358	6488.14
432.565	6905.92
432.772	7008.32
432.979	7366.71
433.187	7342.14
433.394	7432.25
433.601	8009.78
433.808	7987.25
434.016	8095.79
434.223	8263.72
434.43	8708.13
434.637	8550.44
434.844	9207.84
435.052	9343
435.259	9136.16
435.466	9490.46
435.673	9150.5
435.88	9875.48
436.087	10336.27
436.294	10436.62
436.501	10231.82
436.708	10348.56
436.915	10651.66
437.122	11167.74
437.329	11098.11
437.537	11470.84
437.743	11902.97
437.95	11634.68
438.157	12206.06
438.364	12613.61
438.571	12386.29
438.778	12875.75
438.985	13885.4
439.192	13258.72
439.399	13682.65
439.606	13484
439.813	14446.54
440.02	15019.97
440.227	14829.51
440.433	14600.14
440.64	15095.75
440.847	14876.62
441.054	15364.03
441.261	16496.56
441.467	15990.71
441.674	16680.88
441.881	17108.9
442.088	17178.53
442.294	16879.53
442.501	17211.3
442.708	17794.97
442.914	18624.4
443.121	19232.65
443.328	18794.38
443.534	20275.06
443.741	19369.86
443.948	19236.74
444.154	20522.87
444.361	20584.3
444.568	20510.58
444.774	20529.01
444.981	20938.6
445.187	21460.84
445.394	22628.18
445.6	22032.22
445.807	23856.96
446.013	23222.09
446.22	23811.9
446.426	24553.27
446.633	24966.96
446.839	25753.38
447.046	24467.25
447.252	25911.07
447.459	25780
447.665	25982.75
447.871	26842.9
448.078	28176.12
448.284	26949.39
448.491	27504.39
448.697	28964.59
448.903	29263.6
449.11	29472.49
449.316	28915.44
449.522	29544.17
449.728	30095.07
449.935	30277.34
450.141	30234.33
450.347	31336.14
450.553	29800.16
450.76	30340.83
450.966	31360.72
451.172	30858.96
451.378	31837.89
451.584	31200.97
451.791	31749.83
451.997	31477.45
452.203	32661.18
452.409	32612.03
452.615	32505.53
452.821	31014.61
453.027	30916.31
453.233	32417.47
453.44	31237.84
453.646	31551.18
453.852	31772.36
454.058	32177.86
454.264	31221.45
454.47	31809.22
454.676	31231.69
454.882	32206.53
455.088	29388.52
455.294	29781.73
455.5	30273.24
455.705	30594.78
455.911	29372.14
456.117	28776.18
456.323	28495.61
456.529	26935.06
456.735	27975.42
456.941	27365.13
457.147	26816.27
457.352	26136.35
457.558	25583.4
457.764	25913.12
457.97	25136.94
458.176	24522.55
458.381	24893.23
458.587	23613.25
458.793	23820.1
458.999	22654.8
459.204	23934.78
459.41	23428.93
459.616	21811.04
459.821	21737.31
460.027	21698.4
460.233	21303.14
460.438	20361.08
460.644	20461.43
460.85	19619.71
461.055	19287.94
461.261	19165.06
461.466	18112.41
461.672	17160.1
461.878	18378.64
462.083	17201.06
462.289	16752.56
462.494	16768.94
462.7	15939.51
462.905	15898.55
463.111	16314.29
463.316	15947.7
463.522	15736.76
463.727	15648.7
463.932	15937.46
464.138	15779.77
464.343	15675.32
464.549	15157.19
464.754	15826.87
464.959	15558.59
465.165	15650.75
465.37	14817.22
465.575	14497.74
465.781	14970.82
465.986	15206.34
466.191	14589.9
466.397	14464.97
466.602	13500.38
466.807	14182.35
467.012	14039
467.218	14106.58
467.423	13844.44
467.628	13877.21
467.833	14518.22
468.038	13877.21
468.244	13570.01
468.449	14200.79
468.654	13488.09
468.859	13754.33
469.064	13764.57
469.269	13111.27
469.474	13187.04
469.679	13205.47
469.885	13072.36
470.09	13203.43
470.295	13172.71
470.5	12517.36
470.705	12998.63
470.91	12609.51
471.115	12308.46
471.32	12484.59
471.525	12431.34
471.73	12388.33
471.935	12378.09
472.139	11636.73
472.344	11964.4
472.549	11812.85
472.754	11677.69
472.959	11360.25
473.164	11321.34
473.369	11208.7
473.574	11528.19
473.778	11423.74
473.983	11137.02
474.188	11188.22
474.393	10561.55
474.598	10876.93
474.802	10516.49
475.007	10698.76
475.212	10684.42
475.417	10092.56
475.621	10190.86
475.826	10033.17
476.031	9938.96
476.235	9857.04
476.44	10063.89
476.645	9721.88
476.849	9986.07
477.054	9766.93
477.259	9564.18
477.463	9547.8
477.668	9263.13
477.872	9394.2
478.077	9361.44
478.282	9044
478.486	9103.39
478.691	9109.54
478.895	8925.22
479.1	8726.57
479.304	9013.28
479.509	8736.81
479.713	9025.57
479.918	8640.55
480.122	8536.1
480.326	8704.04
480.531	8411.18
480.735	8372.27
480.94	8486.95
481.144	8540.2
481.348	8165.42
481.553	8560.68
481.757	8208.43
481.961	8511.53
482.166	8525.86
482.37	8255.53
482.574	8329.26
482.778	8276.01
482.983	8230.96
483.187	8120.37
483.391	8415.27
483.595	8278.06
483.8	8202.29
484.004	8128.56
484.208	8280.11
484.412	8273.96
484.616	8310.83
484.821	8316.97
485.025	7983.15
485.229	8341.55
485.433	8149.04
485.637	8146.99
485.841	8212.53
486.045	8056.88
486.249	8163.37
486.453	8198.19
486.657	8339.5
486.861	8210.48
487.065	8132.65
487.269	8187.95
487.473	8171.57
487.677	8380.46
487.881	8347.69
488.085	8099.89
488.289	8316.97
488.493	8230.96
488.697	8429.61
488.901	8276.01
489.105	8384.55
489.309	8179.76
489.512	8378.41
489.716	8343.6
489.92	8437.8
490.124	8298.54
490.328	8474.67
490.531	8288.3
490.735	8462.38
490.939	8372.27
491.143	8235.05
491.346	8368.17
491.55	8790.05
491.754	8632.36
491.958	8863.78
492.161	8527.91
492.365	8708.13
492.569	8679.46
492.772	8685.61
492.976	8747.05
493.18	9017.38
493.383	8943.65
493.587	8890.4
493.79	9064.48
493.994	8882.21
494.197	9013.28
494.401	9170.97
494.605	9289.76
494.808	9426.97
495.012	9322.52
495.215	9443.35
495.419	9535.51
495.622	9431.07
495.825	9697.3
496.029	9504.79
496.232	9885.72
496.436	9670.68
496.639	9988.11
496.843	9990.16
497.046	10115.09
497.249	10172.43
497.453	10229.77
497.656	10627.08
497.859	10223.63
498.063	10524.68
498.266	10657.8
498.469	10819.59
498.673	10674.18
498.876	10938.37
499.079	11139.07
499.282	11212.8
499.485	11466.75
499.689	11487.23
499.892	11614.2
500.095	11775.99
500.298	12019.7
500.501	11919.35
500.705	12079.09
500.908	12267.5
501.111	12181.49
501.314	12406.77
501.517	12548.08
501.72	12720.1
501.923	12885.99
502.126	13098.98
502.329	13320.16
502.532	13410.27
502.735	13484
502.938	13760.47
503.141	13549.53
503.344	13912.02
503.547	14055.38
503.75	13922.26
503.953	14532.56
504.156	14448.59
504.359	14524.37
504.562	14815.18
504.765	15200.19
504.968	15005.64
505.17	15167.43
505.373	15278.02
505.576	15843.26
505.779	15794.11
505.982	15882.17
506.185	16187.32
506.387	16125.88
506.59	16279.47
506.793	16558
506.996	16762.79
507.198	16986.02
507.401	17106.85
507.604	17463.2
507.807	17592.22
508.009	17719.2
508.212	17594.27
508.415	18120.6
508.617	18339.73
508.82	18464.66
509.022	18292.63
509.225	18610.06
509.428	19048.33
509.63	19320.71
509.833	19152.77
510.035	19826.56
510.238	19664.77
510.44	20195.19
510.643	20451.19
510.845	20299.64
511.048	20627.31
511.25	20643.7
511.453	20778.86
511.655	21909.34
511.858	21045.1
512.06	21253.99
512.262	21614.43
512.465	21774.17
512.667	22327.13
512.87	22464.34
513.072	22146.9
513.274	22902.61
513.477	23115.59
513.679	23316.29
513.881	23996.22
514.084	23848.77
514.286	23770.94
514.488	23904.06
514.69	24667.95
514.893	24729.39
515.095	24682.29
515.297	25050.92
515.499	25143.08
515.701	25128.75
515.904	25726.75
516.106	25853.73
516.308	26406.68
516.51	26707.73
516.712	26414.87
516.914	26941.2
517.116	27352.84
517.318	27655.94
517.52	27635.46
517.722	27477.77
517.925	28247.8
518.127	28407.55
518.329	28749.56
518.531	28604.15
518.733	29056.75
518.935	29296.36
519.136	29615.85
519.338	29886.18
519.54	29783.78
519.742	30183.13
519.944	30195.42
520.146	31106.77
520.348	31080.14
520.55	31243.98
520.752	31241.93
520.954	31885
521.155	31844.04
521.357	32083.65
521.559	32446.14
521.761	33111.73
521.963	32505.53
522.164	32716.47
522.366	33193.65
522.568	33560.23
522.77	33748.65
522.971	34057.89
523.173	34260.64
523.375	34162.34
523.576	34334.37
523.778	34459.29
523.98	35176.08
524.181	35276.43
524.383	34973.33
524.584	35610.25
524.786	35724.94
524.988	36013.7
525.189	36257.41
525.391	36630.14
525.592	36877.94
525.794	36781.69
525.995	36687.48
526.197	36851.32
526.398	36712.06
526.6	37086.84
526.801	37709.42
527.003	37650.03
527.204	37437.04
527.406	38127.2
527.607	37752.43
527.808	38223.46
528.01	38059.62
528.211	37817.96
528.412	38882.91
528.614	38833.75
528.815	39009.88
529.016	38973.02
529.218	38925.91
529.419	38917.72
529.62	39241.3
529.822	39349.84
530.023	39181.91
530.224	39558.74
530.425	39417.43
530.626	38973.02
530.828	39224.92
531.029	40506.94
531.23	39689.81
531.431	39581.26
531.632	39900.75
531.833	40324.68
532.035	39990.86
532.236	39761.48
532.437	40435.27
532.638	40083.02
532.839	40547.9
533.04	40762.94
533.241	40042.06
533.442	41178.68
533.643	40537.66
533.844	40590.91
534.045	40812.09
534.246	40375.87
534.447	41006.65
534.648	40603.2
534.849	40967.74
535.05	40412.74
535.251	41104.95
535.451	40451.65
535.652	40990.27
535.853	40650.3
536.054	40949.31
536.255	40885.82
536.456	40547.9
536.657	41500.21
536.857	40529.47
537.058	40511.04
537.259	41164.34
537.46	40805.95
537.66	41072.18
537.861	40904.25
538.062	40441.41
538.263	41016.89
538.463	40619.58
538.664	40711.74
538.865	40693.31
539.065	40980.03
539.266	40484.42
539.466	41406
539.667	40646.21
539.868	41078.33
540.068	40937.02
540.269	40877.63
540.469	41270.84
540.67	40701.5
540.87	40990.27
541.071	41107
541.271	41248.31
541.472	40975.93
541.672	41119.29
541.873	40730.17
542.073	40296
542.274	40943.16
542.474	41004.6
542.675	41111.1
542.875	41205.3
543.075	40562.24
543.276	40291.91
543.476	40861.24
543.676	40654.4
543.877	41240.12
544.077	40713.79
544.277	40842.81
544.478	40941.11
544.678	40771.13
544.878	41025.08
545.078	40971.83
545.279	40517.18
545.479	40400.45
545.679	41000.51
545.879	40969.79
546.079	40648.25
546.28	40353.35
546.48	40384.07
546.68	40885.82
546.88	41096.76
547.08	40652.35
547.28	40775.23
547.48	40267.33
547.68	40836.67
547.88	40287.81
548.081	40875.58
548.281	40439.36
548.481	40586.82
548.681	41014.84
548.881	40629.82
549.081	40947.26
549.28	40267.33
549.48	40908.35
549.68	40738.37
549.88	41072.18
550.08	40781.37
550.28	40517.18
550.48	40619.58
550.68	40851
550.88	40359.49
551.08	40259.14
551.279	40408.64
551.479	40326.72
551.679	40564.29
551.879	40382.02
552.079	40705.6
552.278	40203.85
552.478	40644.16
552.678	40541.76
552.878	40832.57
553.077	40343.11
553.277	40463.94
553.477	41057.85
553.676	40187.46
553.876	40441.41
554.076	40234.56
554.275	40455.75
554.475	39980.62
554.674	40482.37
554.874	40341.06
555.074	40209.99
555.273	40175.17
555.473	40363.59
555.672	40187.46
555.872	39827.02
556.071	40113.73
556.271	40504.9
556.47	40023.62
556.67	39388.75
556.869	39853.64
557.068	39990.86
557.268	39294.55
557.467	39624.27
557.667	39915.08
557.866	39843.4
558.065	39464.53
558.265	39487.06
558.464	39140.95
558.663	39829.07
558.863	39220.82
559.062	39417.43
559.261	38979.16
559.461	40097.35
559.66	39118.42
559.859	39435.86
560.058	39134.81
560.258	39308.88
560.457	38536.8
560.656	39196.24
560.855	38522.46
561.054	39177.81
561.253	39186
561.453	38819.42
561.652	39091.8
561.851	38751.84
562.05	38837.85
562.249	38362.72
562.448	38710.88
562.647	38356.58
562.846	38143.59
563.045	37903.98
563.244	38143.59
563.443	38641.25
563.642	37666.41
563.841	38088.29
564.04	37922.41
564.239	38178.4
564.438	37721.71
564.637	37838.44
564.836	37895.78
565.035	37512.81
565.234	37377.65
565.432	37391.98
565.631	37332.59
565.83	37365.36
566.029	37066.36
566.228	37404.27
566.427	37002.87
566.625	37023.35
566.824	36914.81
567.023	37002.87
567.222	36230.79
567.42	36888.18
567.619	36746.87
567.818	36617.85
568.016	36392.58
568.215	36879.99
568.414	36064.9
568.612	36378.24
568.811	36417.15
569.01	36230.79
569.208	35946.12
569.407	35993.22
569.605	35604.11
569.804	35788.42
570.002	35671.69
570.201	35874.44
570.4	35425.93
570.598	34946.71
570.797	35247.76
570.995	35079.83
571.193	34713.24
571.392	35573.39
571.59	34770.58
571.789	34952.85
571.987	34930.33
572.186	34752.15
572.384	34668.19
572.582	34879.13
572.781	34862.74
572.979	33775.27
573.177	34248.35
573.376	34514.59
573.574	33875.62
573.772	34182.82
573.971	33885.86
574.169	33849
574.367	33799.85
574.565	33783.46
574.763	33568.43
574.962	33703.59
575.16	33025.71
575.358	33367.73
575.556	32794.29
575.754	33511.08
575.952	32693.94
576.151	32784.05
576.349	32702.14
576.547	32995
576.745	32782.01
576.943	33087.15
577.141	32759.48
577.339	32591.55
577.537	32280.25
577.735	32114.37
577.933	32267.97
578.131	32095.94
578.329	31770.31
578.527	31667.91
578.725	31778.5
578.923	31946.44
579.121	31282.89
579.319	31477.45
579.516	31637.19
579.714	31547.08
579.912	31352.52
580.11	31217.36
580.308	31497.93
580.506	31346.38
580.704	30922.45
580.901	31043.28
581.099	31237.84
581.297	30820.05
581.495	30693.08
581.692	30820.05
581.89	30598.87
582.088	30408.41
582.285	30189.28
582.483	30660.31
582.681	30727.89
582.878	30365.4
583.076	30191.33
583.274	30490.33
583.471	29902.56
583.669	29812.45
583.866	29771.49
584.064	29687.53
584.262	29720.29
584.459	29888.23
584.657	29564.65
584.854	29538.02
585.052	29253.36
585.249	29181.68
585.447	29357.8
585.644	28868.34
585.841	28927.73
586.039	29138.67
586.236	28884.72
586.434	28825.33
586.631	28366.59
586.828	28782.32
587.026	28581.62
587.223	28342.01
587.42	28360.44
587.618	28634.87
587.815	27979.52
588.012	28157.69
588.21	28077.82
588.407	27934.46
588.604	27834.11
588.801	27744
588.999	27799.3
589.196	27680.52
589.393	27793.15
589.59	27549.45
589.787	27352.84
589.984	27055.89
590.182	26939.15
590.379	27365.13
590.576	26916.62
590.773	26928.91
590.97	27322.12
591.167	27129.61
591.364	26535.7
591.561	26660.63
591.758	26613.52
591.955	26521.37
592.152	26619.67
592.349	26359.58
592.546	26304.28
592.743	26306.33
592.94	25902.88
593.137	25968.41
593.334	26240.79
593.531	25866.02
593.727	25870.11
593.924	25786.15
594.121	25534.25
594.318	25653.03
594.515	25421.61
594.712	25585.44
594.908	25610.02
595.105	25401.13
595.302	25304.87
595.499	25538.34
595.696	25388.84
595.892	24882.99
596.089	25306.92
596.286	24844.08
596.482	24846.13
596.679	25222.95
596.876	24796.98
597.072	24702.77
597.269	24655.67
597.466	24504.12
597.662	24641.33
597.859	24362.81
598.055	24135.48
598.252	24022.84
598.448	24139.58
598.645	23938.88
598.841	23633.73
599.038	23725.89
599.234	23932.73
599.431	23451.46
599.627	23099.21
599.824	23725.89
600.02	23705.41
600.217	23867.2
600.413	23179.08
600.609	23287.62
600.806	23560
601.002	23574.34
601.198	23199.56
601.395	22818.64
601.591	23183.18
601.787	23031.63
601.984	22818.64
602.18	22943.56
602.376	22732.62
602.572	22587.22
602.769	22712.14
602.965	22290.26
603.161	22740.82
603.357	22368.09
603.553	22300.5
603.75	22411.09
603.946	21995.36
604.142	22155.1
604.338	22079.32
604.534	21993.31
604.73	21765.98
604.926	21718.88
605.122	21993.31
605.318	21602.15
605.514	21690.21
605.71	21233.51
605.906	21557.09
606.102	21483.36
606.298	21323.62
606.494	21534.56
606.69	21194.6
606.886	21372.77
607.082	20742
607.278	21215.08
607.474	20840.3
607.67	21176.17
607.866	20787.05
608.062	21065.58
608.257	20930.41
608.453	21061.48
608.649	20901.74
608.845	20486
609.041	20543.35
609.236	20842.35
609.432	20586.35
609.628	20635.5
609.824	20514.67
610.019	20391.8
610.215	20377.46
610.411	20361.08
610.606	20328.31
610.802	20295.54
610.998	20021.11
611.193	20074.36
611.389	20002.68
611.584	20125.56
611.78	19933.05
611.976	19943.29
612.171	19869.56
612.367	19998.59
612.562	19814.27
612.758	19380.1
612.953	19564.42
613.149	19806.08
613.344	19398.53
613.539	20021.11
613.735	19730.3
613.93	19455.87
614.126	19310.47
614.321	19793.79
614.517	19470.21
614.712	19400.58
614.907	19476.35
615.103	19193.73
615.298	19238.79
615.493	19314.56
615.688	19165.06
615.884	19306.37
616.079	19103.62
616.274	19165.06
616.47	19017.61
616.665	18847.63
616.86	18794.38
617.055	18833.29
617.25	18608.01
617.445	18993.03
617.641	18540.43
617.836	18599.82
618.031	18462.61
618.226	18515.86
618.421	18497.42
618.616	18554.77
618.811	18143.13
619.006	18452.37
619.201	18081.69
619.396	18229.14
619.591	17887.13
619.786	18016.15
619.981	17672.09
620.176	17962.9
620.371	17487.78
620.566	17944.47
620.761	17633.18
620.956	17602.46
621.151	17336.23
621.346	17608.61
621.541	17166.24
621.735	17217.44
621.93	16793.51
622.125	16949.16
622.32	16869.29
622.515	17020.84
622.709	16494.51
622.904	16799.66
623.099	16672.68
623.294	16758.7
623.488	16474.03
623.683	16363.44
623.878	16222.13
624.072	16256.95
624.267	16134.07
624.462	16172.98
624.656	16101.3
624.851	15564.73
625.046	15880.12
625.24	15861.69
625.435	15568.83
625.629	15642.56
625.824	15290.31
626.018	15411.14
626.213	15400.9
626.407	15361.98
626.602	14919.62
626.796	14987.21
626.991	15255.49
627.185	15024.07
627.38	14624.72
627.574	14847.94
627.768	14720.97
627.963	14772.17
628.157	14407.63
628.352	14620.62
628.546	14206.93
628.74	14297.04
628.935	14047.19
629.129	14292.94
629.323	14000.09
629.517	14053.33
629.712	13793.24
629.906	14026.71
630.1	13813.72
630.294	13723.61
630.489	13762.52
630.683	13742.04
630.877	13561.82
631.071	13301.73
631.265	13477.85
631.459	13424.61
631.653	13350.88
631.848	13350.88
632.042	13029.35
632.236	13088.74
632.43	12957.67
632.624	12965.86
632.818	12787.69
633.012	12761.06
633.206	12697.58
633.4	12802.02
633.594	12548.08
633.788	12693.48
633.982	12496.88
634.176	12269.55
634.369	12531.69
634.563	12236.78
634.757	12017.65
634.951	12279.79
635.145	12130.29
635.339	12128.24
635.533	11954.16
635.726	11956.21
635.92	11741.18
636.114	11849.72
636.308	11655.16
636.501	11653.11
636.695	11544.57
636.889	11728.89
637.083	11339.77
637.276	11505.66
637.47	11395.07
637.664	11128.83
637.857	11161.6
638.051	11296.77
638.244	11091.97
638.438	10752.01
638.632	10809.35
638.825	10809.35
639.019	10813.45
639.212	10678.28
639.406	10741.77
639.599	10676.23
639.793	10561.55
639.986	10582.03
640.18	10516.49
640.373	10375.18
640.567	10285.07
640.76	10477.58
640.954	10299.41
641.147	10035.22
641.34	10131.47
641.534	10160.14
641.727	9961.49
641.92	10051.6
642.114	9957.39
642.307	9959.44
642.5	9750.55
642.694	9588.76
642.887	9398.3
643.08	9717.78
643.273	9635.86
643.467	9592.86
643.66	9283.61
643.853	9195.55
644.046	9287.71
644.239	9332.76
644.432	9369.63
644.626	9273.37
644.819	9312.28
645.012	9146.4
645.205	9269.28
645.398	8910.88
645.591	9000.99
645.784	8968.23
645.977	8839.2
646.17	8949.79
646.363	8716.33
646.556	8572.97
646.749	8618.02
646.942	8763.43
647.135	8413.23
647.328	8384.55
647.521	8532.01
647.714	8417.32
647.907	8347.69
648.099	8462.38
648.292	8261.68
648.485	8202.29
648.678	8134.7
648.871	8169.52
649.064	8218.67
649.256	8073.26
649.449	7948.34
649.642	8005.68
649.835	8073.26
650.027	7784.5
650.22	7915.57
650.413	7729.2
650.605	7942.19
650.798	7852.08
650.991	7766.07
651.183	7802.93
651.376	7583.8
651.568	7479.35
651.761	7454.78
651.954	7559.22
652.146	7604.28
652.339	7450.68
652.531	7411.77
652.724	7354.43
652.916	7303.23
653.109	7276.6
653.301	7311.42
653.494	7131.2
653.686	7053.38
653.879	7405.63
654.071	6981.7
654.263	6983.74
654.456	7102.53
654.648	6950.98
654.84	6834.24
655.033	6836.29
655.225	6852.67
655.417	6836.29
655.61	6955.07
655.802	6905.92
655.994	6594.63
656.186	6809.67
656.379	6469.7
656.571	6459.46
656.763	6596.68
656.955	6498.38
657.148	6506.57
657.34	6367.31
657.532	6287.43
657.724	6373.45
657.916	6271.05
658.108	6422.6
658.3	6328.39
658.492	6236.24
658.684	6209.61
658.876	6068.3
659.068	6180.94
659.26	6045.77
659.452	6156.36
659.644	6254.67
659.836	6107.21
660.028	6041.68
660.22	5972.05
660.412	5982.29
660.604	5789.78
660.796	5834.83
660.988	5783.63
661.18	5646.42
661.372	5789.78
661.563	5918.8
661.755	5867.6
661.947	5701.72
662.139	5556.31
662.331	5607.51
662.522	5572.69
662.714	5609.56
662.906	5464.15
663.097	5509.21
663.289	5398.62
663.481	5529.69
663.673	5417.05
663.864	5597.27
664.056	5335.13
664.247	5378.14
664.439	5308.51
664.631	5374.04
664.822	5337.18
665.014	5279.83
665.205	5240.92
665.397	5199.96
665.588	5081.18
665.78	5099.61
665.971	5159
666.163	5300.31
666.354	5116
666.546	5052.51
666.737	5064.8
666.929	4894.82
667.12	5023.84
667.311	4853.86
667.503	4841.57
667.694	4868.19
667.885	4757.6
668.077	4919.39
668.268	4626.53
668.459	4907.1
668.651	4757.6
668.842	4759.65
669.033	4542.57
669.224	4716.64
669.416	4704.35
669.607	4733.03
669.798	4665.44
669.989	4612.2
670.18	4669.54
670.371	4710.5
670.563	4561
670.754	4618.34
670.945	4585.57
671.136	4620.39
671.327	4567.14
671.518	4466.79
671.709	4542.57
671.9	4526.18
672.091	4618.34
672.282	4587.62
672.473	4407.4
672.664	4499.56
672.855	4386.92
673.046	4513.89
673.237	4446.31
673.428	4444.26
673.619	4489.32
673.809	4343.91
674	4446.31
674.191	4204.65
674.382	4231.27
674.573	4362.34
674.764	4286.57
674.954	4309.1
675.145	4247.66
675.336	4354.15
675.527	4403.3
675.717	4249.71
675.908	4319.34
676.099	4278.38
676.289	4042.86
676.48	4200.55
676.671	4034.67
676.861	4245.61
677.052	4237.42
677.243	4124.78
677.433	4149.36
677.624	4159.6
677.814	4120.68
678.005	4120.68
678.195	4001.9
678.386	4241.51
678.576	3864.69
678.767	4094.06
678.957	4063.34
679.148	4085.87
679.338	4186.22
679.529	4204.65
679.719	3885.17
679.909	4102.25
680.1	4032.62
680.29	4010.09
680.481	4010.09
680.671	4040.81
680.861	4040.81
681.052	4026.48
681.242	3811.44
681.432	4094.06
681.622	3801.2
681.813	4008.05
682.003	3960.94
682.193	3842.16
682.383	3928.17
682.573	3905.65
682.764	4083.82
682.954	3956.85
683.144	3999.85
683.334	3756.15
683.524	3983.47
683.714	3772.53
683.904	4057.2
684.094	3766.39
684.284	3733.62
684.474	3905.65
684.664	3911.79
684.854	3958.89
685.044	4014.19
685.234	3825.78
685.424	3780.72
685.614	3846.26
685.804	3893.36
685.994	3913.84
686.184	3688.56
686.374	3762.29
686.564	3711.09
686.753	3825.78
686.943	3752.05
687.133	3889.26
687.323	3657.84
687.513	3741.81
687.702	3713.14
687.892	3655.79
688.082	3606.64
688.272	3737.71
688.461	3688.56
688.651	3702.9
688.841	3586.16
689.03	3676.27
689.22	3655.79
689.41	3526.77
689.599	3528.82
689.789	3608.69
689.979	3328.12
690.168	3508.34
690.358	3481.72
690.547	3442.81
690.737	3522.68
690.926	3438.71
691.116	3596.4
691.305	3500.15
691.495	3594.36
691.684	3317.88
691.874	3532.92
692.063	3487.86
692.252	3481.72
692.442	3334.26
692.631	3383.42
692.82	3563.64
693.01	3397.75
693.199	3264.63
693.388	3364.98
693.578	3393.65
693.767	3367.03
693.956	3326.07
694.146	3211.39
694.335	3274.87
694.524	3242.11
694.713	3293.3
694.902	3268.73
695.092	3346.55
695.281	3235.96
695.47	3260.54
695.659	3205.24
695.848	3321.98
696.037	3219.58
696.226	3246.2
696.415	3207.29
696.604	3278.97
696.793	3131.51
696.982	3221.63
697.171	3190.91
697.36	3172.47
697.549	3090.56
697.738	3082.36
697.927	3045.5
698.116	3233.91
698.305	3162.23
698.494	3119.23
698.683	3151.99
698.872	3092.6
699.061	3252.35
699.25	3084.41
699.438	3106.94
699.627	3174.52
699.816	3238.01
700.005	3195
700.193	3137.66
700.382	3211.39
700.571	3035.26
700.76	3076.22
700.948	3055.74
701.137	3297.4
701.326	3016.83
701.514	3154.04
701.703	3111.04
701.892	3022.97
702.08	3072.12
702.269	3133.56
702.457	3168.38
702.646	3266.68
702.834	3047.55
703.023	3129.47
703.212	3117.18
703.4	3080.32
703.589	3010.68
703.777	3041.4
703.965	3043.45
704.154	3002.49
704.342	3131.51
704.531	3108.99
704.719	2986.11
704.907	3061.88
705.096	2963.58
705.284	3063.93
705.472	3063.93
705.661	2959.49
705.849	3072.12
706.037	3035.26
706.226	3082.36
706.414	3051.64
706.602	3106.94
706.79	3096.7
706.979	3123.32
707.167	3045.5
707.355	2904.19
707.543	3098.75
707.731	2943.1
707.919	3057.79
708.107	3025.02
708.296	3047.55
708.484	3156.09
708.672	3145.85
708.86	3096.7
709.048	3039.36
709.236	3022.97
709.424	3049.6
709.612	3014.78
709.8	3174.52
709.988	3080.32
710.176	2896
710.364	3090.56
710.551	3137.66
710.739	2959.49
710.927	3016.83
711.115	2889.85
711.303	3106.94
711.491	2986.11
711.679	3037.31
711.866	2996.35
712.054	3145.85
712.242	2785.41
712.43	3002.49
712.617	3031.16
712.805	3127.42
712.993	3098.75
713.181	3037.31
713.368	2977.92
713.556	2975.87
713.744	2932.86
713.931	3076.22
714.119	2887.81
714.306	3061.88
714.494	2965.63
714.682	3031.16
714.869	3016.83
715.057	3010.68
715.244	2914.43
715.432	2959.49
715.619	2986.11
715.807	2992.25
715.994	2928.77
716.182	3000.44
716.369	3041.4
716.556	2934.91
716.744	3025.02
716.931	3025.02
717.119	2977.92
717.306	3025.02
717.493	3020.92
717.681	3092.6
717.868	3004.54
718.055	3164.28
718.242	3039.36
718.43	3039.36
718.617	3047.55
718.804	3022.97
718.991	2943.1
719.179	3072.12
719.366	2945.15
719.553	2926.72
719.74	2900.09
719.927	2795.65
720.114	3020.92
720.301	2977.92
720.488	3041.4
720.676	3072.12
720.863	2998.4
721.05	2928.77
721.237	2957.44
721.424	2951.29
721.611	2900.09
721.798	2859.14
721.985	2861.18
722.172	2840.7
722.358	2994.3
722.545	2896
722.732	2848.9
722.919	2930.81
723.106	2969.73
723.293	2998.4
723.48	2885.76
723.667	2998.4
723.853	2984.06
724.04	3020.92
724.227	2869.37
724.414	2818.18
724.6	2912.38
724.787	2949.25
724.974	2932.86
725.161	2904.19
725.347	2982.01
725.534	2908.29
725.72	2855.04
725.907	2953.34
726.094	3084.41
726.28	2875.52
726.467	2939.01
726.653	2971.77
726.84	2941.05
727.027	2920.57
727.213	2795.65
727.4	2844.8
727.586	2879.61
727.773	2896
727.959	2910.33
728.145	2852.99
728.332	2855.04
728.518	2904.19
728.705	2949.25
728.891	2965.63
729.077	2910.33
729.264	2828.42
729.45	2969.73
729.636	2953.34
729.823	2812.03
730.009	2996.35
730.195	2959.49
730.382	3045.5
730.568	2838.66
730.754	2910.33
730.94	2857.09
731.126	3078.27
731.313	2943.1
731.499	2859.14
731.685	2871.42
731.871	2861.18
732.057	2908.29
732.243	2832.51
732.429	2803.84
732.615	2814.08
732.801	2869.37
732.987	2963.58
733.173	2891.9
733.359	2828.42
733.545	2832.51
733.731	2814.08
733.917	2852.99
734.103	2930.81
734.289	2834.56
734.475	2777.22
734.661	2902.14
734.847	2877.57
735.033	2812.03
735.219	2820.22
735.404	2828.42
735.59	2791.55
735.776	2834.56
735.962	2756.74
736.148	2807.94
736.333	2781.31
736.519	2799.74
736.705	2740.35
736.89	2750.59
737.076	2781.31
737.262	2642.05
737.447	2820.22
737.633	2611.33
737.819	2666.63
738.004	2730.11
738.19	2582.66
738.375	2783.36
738.561	2769.02
738.747	2707.59
738.932	2807.94
739.118	2691.2
739.303	2676.87
739.489	2617.47
739.674	2539.65
739.859	2726.02
740.045	2775.17
740.23	2652.29
740.416	2576.52
740.601	2615.43
740.786	2625.67
740.972	2664.58
741.157	2564.23
741.342	2556.04
741.528	2691.2
741.713	2574.47
741.898	2631.81
742.084	2564.23
742.269	2588.8
742.454	2500.74
742.639	2715.78
742.824	2429.06
743.01	2527.36
743.195	2502.79
743.38	2500.74
743.565	2494.6
743.75	2447.49
743.935	2445.45
744.12	2500.74
744.305	2357.38
744.49	2377.86
744.675	2533.51
744.86	2435.21
745.045	2328.71
745.23	2461.83
745.415	2365.57
745.6	2515.08
745.785	2334.86
745.97	2433.16
746.155	2312.33
746.34	2357.38
746.525	2330.76
746.71	2345.09
746.895	2168.97
747.079	2304.14
747.264	2168.97
747.449	2166.92
747.634	2142.35
747.819	2175.11
748.003	2185.35
748.188	2134.15
748.373	2111.63
748.557	2072.72
748.742	2119.82
748.927	2101.39
749.111	2224.26
749.296	2199.69
749.481	2031.76
749.665	2099.34
749.85	2056.33
750.034	2058.38
750.219	2037.9
750.404	1970.32
750.588	2080.91
750.773	1935.5
750.957	2035.85
751.141	1841.29
751.326	1970.32
751.51	1892.49
751.695	1800.34
751.879	1880.21
752.064	1921.17
752.248	1970.32
752.432	1912.97
752.617	1896.59
752.801	1912.97
752.985	1876.11
753.17	1790.1
753.354	1812.62
753.538	1829.01
753.722	1792.14
753.907	1814.67
754.091	1767.57
754.275	1644.69
754.459	1681.55
754.643	1755.28
754.828	1638.55
755.012	1714.32
755.196	1667.22
755.38	1638.55
755.564	1595.54
755.748	1540.24
755.932	1702.03
756.116	1646.74
756.3	1554.58
756.484	1593.49
756.668	1556.63
756.852	1599.63
757.036	1659.03
757.22	1480.85
757.404	1601.68
757.588	1472.66
757.772	1577.11
757.956	1525.91
758.14	1462.42
758.323	1443.99
758.507	1474.71
758.691	1480.85
758.875	1400.98
759.059	1505.43
759.242	1407.13
759.426	1489.04
759.61	1446.04
759.794	1464.47
759.977	1380.5
760.161	1468.56
760.345	1386.65
760.528	1329.3
760.712	1353.88
760.895	1339.54
761.079	1386.65
761.263	1274.01
761.446	1280.15
761.63	1339.54
761.813	1218.71
761.997	1296.53
762.18	1263.77
762.364	1271.96
762.547	1267.86
762.731	1222.81
762.914	1208.47
763.098	1290.39
763.281	1276.06
763.464	1353.88
763.648	1233.05
763.831	1284.25
764.015	1290.39
764.198	1245.34
764.381	1269.91
764.564	1245.34
764.748	1235.1
764.931	1157.27
765.114	1181.85
765.297	1093.79
765.481	1171.61
765.664	1161.37
765.847	1194.14
766.03	1165.46
766.213	1161.37
766.397	1161.37
766.58	1083.55
766.763	1183.9
766.946	1179.8
767.129	1079.45
767.312	1132.7
767.495	1122.46
767.678	1091.74
767.861	1079.45
768.044	1106.07
768.227	1126.55
768.41	1034.39
768.593	1151.13
768.776	1067.16
768.959	1005.72
769.142	1030.3
769.324	1048.73
769.507	1083.55
769.69	977.05
769.873	1056.92
770.056	1085.59
770.239	1081.5
770.421	1091.74
770.604	981.15
770.787	1054.87
770.97	938.14
771.152	983.2
771.335	960.67
771.518	944.28
771.7	1063.07
771.883	1048.73
772.066	995.48
772.248	946.33
772.431	1026.2
772.613	1058.97
772.796	921.76
772.978	1020.06
773.161	1007.77
773.343	876.7
773.526	903.32
773.708	970.91
773.891	932
774.073	917.66
774.256	954.52
774.438	983.2
774.621	843.93
774.803	878.75
774.985	948.38
775.168	932
775.35	907.42
775.532	827.55
775.715	905.37
775.897	854.17
776.079	800.93
776.261	839.84
776.444	809.12
776.626	848.03
776.808	774.3
776.99	759.97
777.173	784.54
777.355	768.16
777.537	766.11
777.719	710.82
777.901	770.21
778.083	762.02
778.265	741.54
778.447	884.89
778.629	704.67
778.811	796.83
778.993	678.05
779.175	745.63
779.357	673.95
779.539	731.3
779.721	690.34
779.903	747.68
780.085	690.34
780.267	733.34
780.449	649.38
780.631	811.17
780.812	780.45
780.994	721.06
781.176	702.62
781.358	755.87
781.54	614.56
781.721	639.14
781.903	686.24
782.085	665.76
782.267	624.8
782.448	577.7
782.63	608.42
782.812	704.67
782.993	630.95
783.175	620.71
783.357	630.95
783.538	632.99
783.72	491.68
783.901	616.61
784.083	639.14
784.264	557.22
784.446	524.45
784.627	557.22
784.809	608.42
784.99	606.37
785.172	587.94
785.353	432.29
785.535	565.41
785.716	471.2
785.897	501.92
786.079	589.99
786.26	514.21
786.441	495.78
786.623	516.26
786.804	440.48
786.985	546.98
787.167	534.69
787.348	516.26
787.529	508.07
787.71	458.92
787.891	514.21
788.073	485.54
788.254	448.68
788.435	522.4
788.616	420
788.797	497.83
788.978	549.03
789.159	415.91
789.34	497.83
789.522	372.9
789.703	446.63
789.884	534.69
790.065	417.96
790.246	456.87
790.427	422.05
790.607	465.06
790.788	475.3
790.969	420
791.15	440.48
791.331	411.81
791.512	430.24
791.693	362.66
791.874	409.76
792.054	452.77
792.235	471.2
792.416	358.57
792.597	385.19
792.778	385.19
792.958	503.97
793.139	473.25
793.32	383.14
793.5	446.63
793.681	422.05
793.862	356.52
794.042	379.04
794.223	411.81
794.404	366.76
794.584	397.48
794.765	362.66
794.945	422.05
795.126	358.57
795.306	407.72
795.487	399.52
795.667	284.84
795.848	411.81
796.028	340.13
796.209	393.38
796.389	389.28
796.57	374.95
796.75	327.85
796.93	352.42
797.111	366.76
797.291	358.57
797.471	381.09
797.652	340.13
797.832	315.56
798.012	379.04
798.192	370.85
798.373	311.46
798.553	325.8
798.733	250.02
798.913	282.79
799.093	299.17
799.274	301.22
799.454	401.57
799.634	360.61
799.814	342.18
799.994	276.65
800.174	321.7
800.354	270.5
800.534	284.84
800.714	250.02
800.894	288.93
801.074	311.46
801.254	268.45
801.434	239.78
801.614	250.02
801.794	245.93
801.974	688.29
802.154	288.93
802.334	346.28
802.514	325.8
802.693	217.26
802.873	260.26
803.053	250.02
803.233	276.65
803.413	411.81
803.592	288.93
803.772	223.4
803.952	270.5
804.131	280.74
804.311	297.13
804.491	270.5
804.67	239.78
804.85	231.59
805.03	243.88
805.209	266.41
805.389	170.15
805.568	215.21
805.748	245.93
805.928	276.65
806.107	276.65
806.287	295.08
806.466	178.34
806.646	258.21
806.825	264.36
807.004	215.21
807.184	262.31
807.363	323.75
807.543	245.93
807.722	256.17
807.901	268.45
808.081	227.5
808.26	221.35
808.439	260.26
808.619	219.3
808.798	178.34
808.977	106.67
809.156	266.41
809.336	221.35
809.515	245.93
809.694	196.78
809.873	196.78
810.052	194.73
810.231	282.79
810.411	168.1
810.59	186.54
810.769	182.44
810.948	290.98
811.127	182.44
811.306	196.78
811.485	262.31
811.664	217.26
811.843	243.88
812.022	237.74
812.201	213.16
812.38	188.58
812.559	227.5
812.737	260.26
812.916	198.82
813.095	118.95
813.274	184.49
813.453	250.02
813.632	202.92
813.811	233.64
813.989	45.23
814.168	137.38
814.347	196.78
814.526	170.15
814.704	190.63
814.883	200.87
815.062	194.73
815.24	243.88
815.419	207.02
815.598	178.34
815.776	145.58
815.955	184.49
816.133	157.86
816.312	143.53
816.49	190.63
816.669	127.14
816.847	108.71
817.026	262.31
817.204	190.63
817.383	174.25
817.561	168.1
817.74	129.19
817.918	71.85
818.097	207.02
818.275	174.25
818.453	106.67
818.632	110.76
818.81	143.53
818.988	143.53
819.167	188.58
819.345	149.67
819.523	102.57
819.701	92.33
819.879	135.34
820.058	129.19
820.236	229.54
820.414	194.73
820.592	137.38
820.77	159.91
820.948	170.15
821.127	102.57
821.305	121
821.483	149.67
821.661	217.26
821.839	188.58
822.017	118.95
822.195	190.63
822.373	67.75
822.551	184.49
822.729	172.2
822.907	233.64
823.085	131.24
823.262	88.23
823.44	139.43
823.618	153.77
823.796	247.97
823.974	141.48
824.152	161.96
824.329	24.75
824.507	178.34
824.685	184.49
824.863	108.71
825.04	131.24
825.218	88.23
825.396	151.72
825.574	157.86
825.751	71.85
825.929	155.82
826.107	151.72
826.284	174.25
826.462	192.68
826.639	92.33
826.817	149.67
826.994	143.53
827.172	118.95
827.349	202.92
827.527	196.78
827.704	114.86
827.882	106.67
828.059	170.15
828.237	178.34
828.414	114.86
828.591	114.86
828.769	88.23
828.946	84.14
829.124	102.57
829.301	133.29
829.478	106.67
829.655	88.23
829.833	141.48
830.01	84.14
830.187	143.53
830.364	147.62
830.542	125.1
830.719	161.96
830.896	88.23
831.073	127.14
831.25	141.48
831.427	118.95
831.604	114.86
831.782	121
831.959	139.43
832.136	92.33
832.313	112.81
832.49	96.43
832.667	51.37
832.844	37.03
833.021	139.43
833.198	131.24
833.374	82.09
833.551	118.95
833.728	80.04
833.905	71.85
834.082	141.48
834.259	37.03
834.436	180.39
834.612	82.09
834.789	90.28
834.966	43.18
835.143	106.67
835.319	127.14
835.496	123.05
835.673	90.28
835.85	65.71
836.026	75.95
836.203	73.9
836.38	30.89
836.556	106.67
836.733	43.18
836.909	75.95
837.086	18.6
837.262	69.8
837.439	65.71
837.616	71.85
837.792	88.23
837.968	67.75
838.145	65.71
838.321	73.9
838.498	127.14
838.674	57.51
838.851	100.52
839.027	26.79
839.203	32.94
839.38	63.66
839.556	84.14
839.732	94.38
839.909	39.08
840.085	80.04
840.261	75.95
840.437	133.29
840.614	125.1
840.79	110.76
840.966	100.52
841.142	112.81
841.318	80.04
841.494	49.32
841.671	168.1
841.847	100.52
842.023	47.27
842.199	139.43
842.375	24.75
842.551	82.09
842.727	55.47
842.903	24.75
843.079	45.23
843.255	114.86
843.431	106.67
843.607	86.19
843.783	98.47
843.959	104.62
844.134	80.04
844.31	65.71
844.486	45.23
844.662	41.13
844.838	2.22
845.013	26.79
845.189	80.04
845.365	139.43
845.541	63.66
845.716	141.48
845.892	170.15
846.068	80.04
846.244	63.66
846.419	129.19
846.595	28.84
846.77	57.51
846.946	57.51
847.122	28.84
847.297	20.65
847.473	104.62
847.648	61.61
847.824	149.67
847.999	8.36
848.175	108.71
848.35	96.43
848.526	164.01
848.701	127.14
848.876	145.58
849.052	59.56
849.227	84.14
849.403	63.66
849.578	123.05
849.753	55.47
849.929	8.36
850.104	-22.36
850.279	57.51
850.454	-1.88
850.63	51.37
850.805	65.71
850.98	24.75
851.155	65.71
851.33	92.33
851.505	-12.12
851.681	80.04
851.856	-14.17
852.031	135.34
852.206	24.75
852.381	0.17
852.556	108.71
852.731	47.27
852.906	116.9
853.081	63.66
853.256	94.38
853.431	73.9
853.606	2.22
853.781	57.51
853.956	37.03
854.131	39.08
854.305	-30.55
854.48	6.31
854.655	45.23
854.83	34.99
855.005	16.55
855.18	75.95
855.354	73.9
855.529	30.89
855.704	24.75
855.879	104.62
856.053	2.22
856.228	118.95
856.403	28.84
856.577	18.6
856.752	53.42
856.926	106.67
857.101	49.32
857.276	-14.17
857.45	67.75
857.625	55.47
857.799	14.51
857.974	51.37
858.148	47.27
858.323	84.14
858.497	4.27
858.672	80.04
858.846	63.66
859.02	121
859.195	-12.12
859.369	22.7
859.543	-18.26
859.718	43.18
859.892	4.27
860.066	45.23
860.241	55.47
860.415	-20.31
860.589	8.36
860.763	26.79
860.938	86.19
861.112	94.38
861.286	43.18
861.46	90.28
861.634	32.94
861.808	104.62
861.982	69.8
862.157	10.41
862.331	37.03
862.505	26.79
862.679	-16.21
862.853	-20.31
863.027	55.47
863.201	110.76
863.375	51.37
863.549	12.46
863.722	-42.84
863.896	92.33
864.07	96.43
864.244	6.31
864.418	51.37
864.592	65.71
864.766	8.36
864.939	20.65
865.113	63.66
865.287	47.27
865.461	37.03
865.634	106.67
865.808	22.7
865.982	-46.93
866.156	18.6
866.329	20.65
866.503	75.95
866.676	55.47
866.85	53.42
867.024	16.55
867.197	55.47
867.371	16.55
867.544	6.31
867.718	59.56
867.891	28.84
868.065	-48.98
868.238	45.23
868.412	69.8
868.585	51.37
868.759	-16.21
868.932	45.23
869.105	53.42
869.279	43.18
869.452	22.7
869.625	57.51
869.799	22.7
869.972	-8.02
870.145	6.31
870.319	65.71
870.492	26.79
870.665	82.09
870.838	59.56
871.011	-46.93
871.185	4.27
871.358	30.89
871.531	-36.69
871.704	8.36
871.877	49.32
872.05	69.8
872.223	32.94
872.396	92.33
872.569	57.51
872.742	41.13
872.915	16.55
873.088	-1.88
873.261	-5.97
873.434	100.52
873.607	28.84
873.78	0.17
873.953	-51.03
874.126	92.33
874.299	14.51
874.471	43.18
874.644	80.04
874.817	94.38
874.99	45.23
875.163	28.84
875.335	53.42
875.508	82.09
875.681	65.71
875.853	-30.55
876.026	12.46
876.199	26.79
876.371	28.84
876.544	96.43
876.717	2.22
876.889	8.36
877.062	-32.6
877.234	0.17
877.407	-55.12
877.579	-28.5
877.752	14.51
877.924	57.51
878.097	61.61
878.269	-1.88
878.442	-3.93
878.614	43.18
878.786	65.71
878.959	12.46
879.131	0.17
879.303	41.13
879.476	34.99
879.648	53.42
879.82	73.9
879.993	18.6
880.165	-32.6
880.337	22.7
880.509	65.71
880.681	14.51
880.854	-32.6
881.026	41.13
881.198	22.7
881.37	-46.93
881.542	16.55
881.714	51.37
881.886	-24.4
882.058	41.13
882.23	-8.02
882.402	-79.7
882.574	55.47
882.746	84.14
882.918	-18.26
883.09	100.52
883.262	-40.79
883.434	8.36
883.606	57.51
883.778	39.08
883.95	47.27
884.122	-10.07
884.293	6.31
884.465	37.03
884.637	4.27
884.809	47.27
884.98	65.71
885.152	-5.97
885.324	82.09
885.496	-12.12
885.667	49.32
885.839	77.99
886.011	8.36
886.182	37.03
886.354	34.99
886.525	145.58
886.697	30.89
886.869	6.31
887.04	20.65
887.212	16.55
887.383	4.27
887.555	2.22
887.726	16.55
887.897	82.09
888.069	24.75
888.24	-5.97
888.412	-28.5
888.583	8.36
888.754	77.99
888.926	-1.88
889.097	73.9
889.268	-38.74
889.44	37.03
889.611	-30.55
889.782	51.37
889.953	-59.22
890.125	88.23
890.296	4.27
890.467	-22.36
890.638	-59.22
890.809	98.47
890.98	2.22
891.151	63.66
891.323	18.6
891.494	22.7
891.665	88.23
891.836	-12.12
892.007	0.17
892.178	-12.12
892.349	14.51
892.52	96.43
892.691	-1.88
892.862	-5.97
893.032	-34.64
893.203	-10.07
893.374	63.66
893.545	26.79
893.716	32.94
893.887	-5.97
894.057	12.46
894.228	37.03
894.399	-10.07
894.57	26.79
894.74	-30.55
894.911	55.47
895.082	20.65
895.253	-20.31
895.423	-34.64
895.594	32.94
895.764	51.37
895.935	41.13
896.106	28.84
896.276	57.51
896.447	61.61
896.617	14.51
896.788	39.08
896.958	-3.93
897.129	0.17
897.299	-5.97
897.47	73.9
897.64	80.04
897.81	61.61
897.981	49.32
898.151	-16.21
898.322	16.55
898.492	-20.31
898.662	49.32
898.832	-10.07
899.003	65.71
899.173	47.27
899.343	30.89
899.513	-30.55
