Data from USB4F104151__44__11-51-49-146.txt Node

Date: Fri Mar 14 11:51:49 EDT 2025
User: louis
Spectrometer: USB4F10415
Trigger mode: 4
Integration Time (sec): 2.000000E-2
Scans to average: 1
Electric dark correction enabled: true
Nonlinearity correction enabled: false
Boxcar width: 0
XAxis mode: Wavelengths
Number of Pixels in Spectrum: 3648
>>>>>Begin Spectral Data<<<<<
178.204	-61.78
178.424	-61.78
178.644	-61.78
178.864	5.8
179.084	-39.25
179.304	50.86
179.524	26.28
179.744	-67.92
179.964	-0.34
180.184	-74.07
180.404	-43.35
180.624	-51.54
180.844	36.52
181.064	-8.53
181.283	3.75
181.503	69.29
181.723	59.05
181.943	24.23
182.163	134.82
182.383	5.8
182.602	22.19
182.822	46.76
183.042	36.52
183.262	1.71
183.482	57
183.701	57
183.921	57
184.141	32.43
184.361	97.96
184.58	18.09
184.8	13.99
185.02	81.58
185.239	93.87
185.459	75.43
185.679	87.72
185.898	-6.49
186.118	63.15
186.338	28.33
186.557	69.29
186.777	-67.92
186.997	22.19
187.216	16.04
187.436	-6.49
187.655	13.99
187.875	81.58
188.095	79.53
188.314	81.58
188.534	114.34
188.753	24.23
188.973	40.62
189.192	65.19
189.412	22.19
189.631	59.05
189.851	79.53
190.07	38.57
190.29	20.14
190.509	11.95
190.729	65.19
190.948	130.73
191.168	163.5
191.387	34.47
191.607	-12.63
191.826	7.85
192.045	-29.01
192.265	40.62
192.484	-8.53
192.704	83.63
192.923	34.47
193.142	122.54
193.362	44.71
193.581	151.21
193.8	61.1
194.02	116.39
194.239	-37.2
194.458	122.54
194.678	79.53
194.897	7.85
195.116	1.71
195.335	38.57
195.555	61.1
195.774	87.72
195.993	81.58
196.212	44.71
196.432	-35.16
196.651	65.19
196.87	-24.92
197.089	59.05
197.308	40.62
197.528	97.96
197.747	-10.58
197.966	108.2
198.185	40.62
198.404	1.71
198.623	46.76
198.842	9.9
199.062	34.47
199.281	52.91
199.5	9.9
199.719	63.15
199.938	13.99
200.157	7.85
200.376	32.43
200.595	97.96
200.814	18.09
201.033	87.72
201.252	36.52
201.471	77.48
201.69	59.05
201.909	89.77
202.128	44.71
202.347	5.8
202.566	-26.96
202.785	28.33
203.004	24.23
203.223	124.58
203.442	-57.68
203.661	11.95
203.879	65.19
204.098	104.11
204.317	34.47
204.536	28.33
204.755	65.19
204.974	16.04
205.193	114.34
205.411	93.87
205.63	67.24
205.849	81.58
206.068	-43.35
206.287	36.52
206.505	67.24
206.724	65.19
206.943	3.75
207.162	32.43
207.381	-43.35
207.599	-2.39
207.818	16.04
208.037	46.76
208.255	-4.44
208.474	100.01
208.693	104.11
208.911	11.95
209.13	22.19
209.349	-2.39
209.567	50.86
209.786	71.34
210.005	83.63
210.223	-12.63
210.442	34.47
210.661	57
210.879	-18.77
211.098	-10.58
211.316	54.95
211.535	73.39
211.753	83.63
211.972	67.24
212.191	48.81
212.409	-4.44
212.628	-31.06
212.846	-4.44
213.065	106.15
213.283	75.43
213.502	28.33
213.72	83.63
213.938	87.72
214.157	69.29
214.375	24.23
214.594	30.38
214.812	40.62
215.031	28.33
215.249	91.82
215.467	-4.44
215.686	38.57
215.904	79.53
216.122	100.01
216.341	26.28
216.559	155.3
216.778	83.63
216.996	40.62
217.214	46.76
217.432	57
217.651	40.62
217.869	48.81
218.087	110.25
218.306	40.62
218.524	97.96
218.742	5.8
218.96	50.86
219.179	67.24
219.397	36.52
219.615	77.48
219.833	122.54
220.051	-20.82
220.27	79.53
220.488	28.33
220.706	126.63
220.924	102.06
221.142	104.11
221.36	85.67
221.578	95.91
221.796	1.71
222.015	100.01
222.233	30.38
222.451	52.91
222.669	48.81
222.887	75.43
223.105	104.11
223.323	18.09
223.541	38.57
223.759	-10.58
223.977	79.53
224.195	73.39
224.413	-69.97
224.631	61.1
224.849	5.8
225.067	73.39
225.285	38.57
225.503	71.34
225.721	48.81
225.939	13.99
226.157	61.1
226.375	79.53
226.592	89.77
226.81	22.19
227.028	34.47
227.246	93.87
227.464	18.09
227.682	26.28
227.9	26.28
228.117	102.06
228.335	108.2
228.553	48.81
228.771	-26.96
228.989	54.95
229.206	118.44
229.424	-8.53
229.642	9.9
229.86	71.34
230.077	106.15
230.295	97.96
230.513	46.76
230.731	77.48
230.948	3.75
231.166	42.67
231.384	52.91
231.601	5.8
231.819	93.87
232.037	7.85
232.254	-51.54
232.472	61.1
232.689	40.62
232.907	77.48
233.125	3.75
233.342	85.67
233.56	-12.63
233.777	32.43
233.995	1.71
234.213	65.19
234.43	13.99
234.648	42.67
234.865	-8.53
235.083	-26.96
235.3	91.82
235.518	36.52
235.735	130.73
235.953	69.29
236.17	77.48
236.388	81.58
236.605	13.99
236.822	40.62
237.04	67.24
237.257	1.71
237.475	40.62
237.692	140.97
237.909	61.1
238.127	32.43
238.344	7.85
238.562	13.99
238.779	20.14
238.996	67.24
239.214	42.67
239.431	89.77
239.648	50.86
239.865	20.14
240.083	26.28
240.3	42.67
240.517	-10.58
240.735	106.15
240.952	-2.39
241.169	128.68
241.386	118.44
241.603	52.91
241.821	36.52
242.038	108.2
242.255	65.19
242.472	83.63
242.689	28.33
242.907	83.63
243.124	11.95
243.341	52.91
243.558	32.43
243.775	85.67
243.992	18.09
244.209	57
244.426	87.72
244.643	77.48
244.86	65.19
245.078	44.71
245.295	-41.3
245.512	73.39
245.729	54.95
245.946	71.34
246.163	54.95
246.38	61.1
246.597	36.52
246.814	77.48
247.031	-22.87
247.248	24.23
247.464	18.09
247.681	81.58
247.898	20.14
248.115	24.23
248.332	50.86
248.549	22.19
248.766	110.25
248.983	42.67
249.2	50.86
249.417	97.96
249.633	42.67
249.85	46.76
250.067	30.38
250.284	36.52
250.501	67.24
250.717	104.11
250.934	95.91
251.151	-26.96
251.368	-24.92
251.585	65.19
251.801	7.85
252.018	-16.73
252.235	32.43
252.451	110.25
252.668	13.99
252.885	57
253.102	38.57
253.318	61.1
253.535	67.24
253.752	30.38
253.968	36.52
254.185	28.33
254.401	93.87
254.618	-0.34
254.835	18.09
255.051	85.67
255.268	13.99
255.484	85.67
255.701	20.14
255.917	97.96
256.134	-14.68
256.351	44.71
256.567	69.29
256.784	104.11
257	-10.58
257.217	61.1
257.433	57
257.65	52.91
257.866	79.53
258.082	-2.39
258.299	67.24
258.515	102.06
258.732	75.43
258.948	38.57
259.165	75.43
259.381	-18.77
259.597	79.53
259.814	50.86
260.03	104.11
260.246	-22.87
260.463	16.04
260.679	20.14
260.895	46.76
261.112	122.54
261.328	67.24
261.544	61.1
261.761	87.72
261.977	61.1
262.193	159.4
262.409	122.54
262.626	36.52
262.842	3.75
263.058	13.99
263.274	50.86
263.49	52.91
263.707	147.11
263.923	24.23
264.139	9.9
264.355	95.91
264.571	73.39
264.787	79.53
265.004	1.71
265.22	38.57
265.436	65.19
265.652	-12.63
265.868	1.71
266.084	-4.44
266.3	54.95
266.516	5.8
266.732	-12.63
266.948	52.91
267.164	34.47
267.38	-37.2
267.596	122.54
267.812	97.96
268.028	20.14
268.244	26.28
268.46	81.58
268.676	-0.34
268.892	77.48
269.108	97.96
269.324	110.25
269.54	20.14
269.756	71.34
269.972	-16.73
270.188	28.33
270.403	18.09
270.619	65.19
270.835	34.47
271.051	87.72
271.267	-51.54
271.483	77.48
271.698	79.53
271.914	85.67
272.13	20.14
272.346	16.04
272.562	69.29
272.777	112.3
272.993	-12.63
273.209	73.39
273.425	52.91
273.64	16.04
273.856	134.82
274.072	-0.34
274.287	44.71
274.503	97.96
274.719	118.44
274.934	44.71
275.15	-4.44
275.366	75.43
275.581	50.86
275.797	100.01
276.012	-29.01
276.228	32.43
276.444	50.86
276.659	32.43
276.875	22.19
277.09	79.53
277.306	61.1
277.521	44.71
277.737	73.39
277.952	38.57
278.168	59.05
278.383	54.95
278.599	79.53
278.814	38.57
279.03	7.85
279.245	134.82
279.461	106.15
279.676	18.09
279.892	32.43
280.107	7.85
280.322	32.43
280.538	5.8
280.753	22.19
280.969	108.2
281.184	3.75
281.399	57
281.615	-41.3
281.83	87.72
282.045	-0.34
282.26	85.67
282.476	-24.92
282.691	67.24
282.906	112.3
283.122	91.82
283.337	-22.87
283.552	59.05
283.767	26.28
283.983	63.15
284.198	26.28
284.413	89.77
284.628	22.19
284.843	104.11
285.058	28.33
285.274	44.71
285.489	112.3
285.704	67.24
285.919	20.14
286.134	85.67
286.349	71.34
286.564	110.25
286.779	77.48
286.995	18.09
287.21	-4.44
287.425	63.15
287.64	-10.58
287.855	-24.92
288.07	79.53
288.285	30.38
288.5	57
288.715	26.28
288.93	1.71
289.145	48.81
289.36	110.25
289.575	89.77
289.79	104.11
290.004	52.91
290.219	69.29
290.434	61.1
290.649	42.67
290.864	97.96
291.079	140.97
291.294	52.91
291.509	38.57
291.724	-33.11
291.938	-6.49
292.153	67.24
292.368	63.15
292.583	38.57
292.798	69.29
293.012	32.43
293.227	36.52
293.442	81.58
293.657	-10.58
293.871	95.91
294.086	46.76
294.301	71.34
294.516	87.72
294.73	65.19
294.945	57
295.16	-6.49
295.374	48.81
295.589	106.15
295.804	26.28
296.018	67.24
296.233	93.87
296.447	42.67
296.662	5.8
296.877	69.29
297.091	16.04
297.306	3.75
297.52	48.81
297.735	-14.68
297.949	73.39
298.164	46.76
298.378	63.15
298.593	81.58
298.807	54.95
299.022	102.06
299.236	46.76
299.451	42.67
299.665	32.43
299.88	-45.4
300.094	48.81
300.309	118.44
300.523	-24.92
300.737	71.34
300.952	75.43
301.166	32.43
301.381	26.28
301.595	48.81
301.809	42.67
302.024	24.23
302.238	42.67
302.452	93.87
302.667	-12.63
302.881	50.86
303.095	48.81
303.309	91.82
303.524	-74.07
303.738	30.38
303.952	34.47
304.166	44.71
304.381	38.57
304.595	120.49
304.809	57
305.023	91.82
305.237	-16.73
305.452	3.75
305.666	-16.73
305.88	65.19
306.094	18.09
306.308	134.82
306.522	114.34
306.736	40.62
306.95	-12.63
307.164	81.58
307.379	36.52
307.593	116.39
307.807	85.67
308.021	59.05
308.235	30.38
308.449	52.91
308.663	110.25
308.877	132.78
309.091	-10.58
309.305	73.39
309.519	-33.11
309.733	73.39
309.947	38.57
310.161	91.82
310.374	40.62
310.588	102.06
310.802	73.39
311.016	40.62
311.23	1.71
311.444	69.29
311.658	28.33
311.872	63.15
312.085	61.1
312.299	73.39
312.513	63.15
312.727	75.43
312.941	-2.39
313.154	26.28
313.368	11.95
313.582	52.91
313.796	69.29
314.009	61.1
314.223	83.63
314.437	65.19
314.651	97.96
314.864	65.19
315.078	32.43
315.292	50.86
315.505	36.52
315.719	116.39
315.933	44.71
316.146	77.48
316.36	42.67
316.573	22.19
316.787	65.19
317.001	40.62
317.214	61.1
317.428	75.43
317.641	22.19
317.855	34.47
318.068	-31.06
318.282	100.01
318.495	97.96
318.709	161.45
318.922	93.87
319.136	3.75
319.349	77.48
319.563	97.96
319.776	32.43
319.99	48.81
320.203	52.91
320.417	69.29
320.63	69.29
320.843	69.29
321.057	24.23
321.27	22.19
321.483	7.85
321.697	83.63
321.91	91.82
322.124	104.11
322.337	130.73
322.55	52.91
322.763	63.15
322.977	65.19
323.19	79.53
323.403	32.43
323.617	46.76
323.83	36.52
324.043	87.72
324.256	63.15
324.469	77.48
324.683	87.72
324.896	-6.49
325.109	87.72
325.322	7.85
325.535	126.63
325.748	44.71
325.962	20.14
326.175	48.81
326.388	-18.77
326.601	7.85
326.814	-31.06
327.027	69.29
327.24	44.71
327.453	48.81
327.666	159.4
327.879	11.95
328.092	-8.53
328.305	97.96
328.518	44.71
328.731	11.95
328.944	79.53
329.157	3.75
329.37	50.86
329.583	104.11
329.796	54.95
330.009	36.52
330.222	85.67
330.435	32.43
330.648	32.43
330.861	30.38
331.073	83.63
331.286	-0.34
331.499	63.15
331.712	61.1
331.925	28.33
332.138	52.91
332.35	77.48
332.563	75.43
332.776	38.57
332.989	93.87
333.202	-0.34
333.414	-29.01
333.627	38.57
333.84	32.43
334.053	97.96
334.265	22.19
334.478	93.87
334.691	26.28
334.903	18.09
335.116	-2.39
335.329	100.01
335.541	77.48
335.754	112.3
335.966	18.09
336.179	9.9
336.392	97.96
336.604	-8.53
336.817	95.91
337.029	40.62
337.242	-10.58
337.454	128.68
337.667	36.52
337.88	93.87
338.092	18.09
338.305	57
338.517	67.24
338.729	116.39
338.942	95.91
339.154	30.38
339.367	97.96
339.579	71.34
339.792	-18.77
340.004	-4.44
340.217	48.81
340.429	77.48
340.641	38.57
340.854	63.15
341.066	63.15
341.278	122.54
341.491	155.3
341.703	50.86
341.915	-10.58
342.128	40.62
342.34	124.58
342.552	102.06
342.764	69.29
342.977	61.1
343.189	46.76
343.401	57
343.613	-4.44
343.826	95.91
344.038	67.24
344.25	46.76
344.462	149.16
344.674	93.87
344.886	11.95
345.099	124.58
345.311	20.14
345.523	5.8
345.735	75.43
345.947	126.63
346.159	73.39
346.371	128.68
346.583	-16.73
346.795	100.01
347.007	65.19
347.219	30.38
347.431	120.49
347.643	87.72
347.855	65.19
348.067	143.02
348.279	44.71
348.491	-2.39
348.703	11.95
348.915	73.39
349.127	61.1
349.339	20.14
349.551	36.52
349.763	87.72
349.975	81.58
350.187	-0.34
350.399	59.05
350.61	40.62
350.822	1.71
351.034	61.1
351.246	26.28
351.458	100.01
351.669	40.62
351.881	77.48
352.093	36.52
352.305	138.92
352.517	54.95
352.728	75.43
352.94	77.48
353.152	44.71
353.363	42.67
353.575	63.15
353.787	89.77
353.999	30.38
354.21	110.25
354.422	46.76
354.633	-10.58
354.845	7.85
355.057	110.25
355.268	83.63
355.48	52.91
355.692	77.48
355.903	104.11
356.115	26.28
356.326	57
356.538	28.33
356.749	229.03
356.961	83.63
357.172	75.43
357.384	-10.58
357.595	112.3
357.807	50.86
358.018	83.63
358.23	48.81
358.441	124.58
358.653	40.62
358.864	81.58
359.075	30.38
359.287	89.77
359.498	87.72
359.709	57
359.921	165.54
360.132	20.14
360.344	20.14
360.555	48.81
360.766	136.87
360.977	24.23
361.189	93.87
361.4	20.14
361.611	91.82
361.823	61.1
362.034	136.87
362.245	89.77
362.456	128.68
362.667	79.53
362.879	36.52
363.09	1.71
363.301	34.47
363.512	87.72
363.723	38.57
363.935	61.1
364.146	61.1
364.357	59.05
364.568	114.34
364.779	110.25
364.99	40.62
365.201	40.62
365.412	104.11
365.623	67.24
365.834	71.34
366.045	57
366.256	46.76
366.467	102.06
366.678	52.91
366.889	81.58
367.1	46.76
367.311	28.33
367.522	50.86
367.733	-14.68
367.944	108.2
368.155	52.91
368.366	95.91
368.577	132.78
368.788	149.16
368.999	69.29
369.209	126.63
369.42	83.63
369.631	118.44
369.842	54.95
370.053	69.29
370.264	28.33
370.474	9.9
370.685	75.43
370.896	-20.82
371.107	46.76
371.317	44.71
371.528	9.9
371.739	71.34
371.95	46.76
372.16	110.25
372.371	9.9
372.582	134.82
372.792	85.67
373.003	87.72
373.214	91.82
373.424	77.48
373.635	112.3
373.846	34.47
374.056	116.39
374.267	108.2
374.477	97.96
374.688	112.3
374.898	134.82
375.109	42.67
375.319	-6.49
375.53	67.24
375.74	112.3
375.951	87.72
376.161	143.02
376.372	59.05
376.582	102.06
376.793	67.24
377.003	89.77
377.214	73.39
377.424	73.39
377.635	89.77
377.845	-16.73
378.055	102.06
378.266	52.91
378.476	22.19
378.686	95.91
378.897	61.1
379.107	149.16
379.317	48.81
379.528	97.96
379.738	95.91
379.948	91.82
380.158	73.39
380.369	100.01
380.579	3.75
380.789	126.63
380.999	97.96
381.21	57
381.42	143.02
381.63	100.01
381.84	95.91
382.05	73.39
382.261	52.91
382.471	87.72
382.681	26.28
382.891	50.86
383.101	83.63
383.311	63.15
383.521	38.57
383.731	48.81
383.941	118.44
384.151	46.76
384.361	57
384.571	81.58
384.781	48.81
384.991	112.3
385.201	87.72
385.411	138.92
385.621	118.44
385.831	50.86
386.041	89.77
386.251	126.63
386.461	91.82
386.671	85.67
386.881	75.43
387.091	16.04
387.301	108.2
387.511	79.53
387.72	11.95
387.93	34.47
388.14	46.76
388.35	54.95
388.56	34.47
388.769	97.96
388.979	65.19
389.189	106.15
389.399	83.63
389.609	61.1
389.818	124.58
390.028	52.91
390.238	22.19
390.447	79.53
390.657	69.29
390.867	110.25
391.076	-2.39
391.286	73.39
391.496	46.76
391.705	106.15
391.915	130.73
392.125	120.49
392.334	110.25
392.544	126.63
392.753	79.53
392.963	44.71
393.172	89.77
393.382	100.01
393.591	75.43
393.801	67.24
394.01	95.91
394.22	132.78
394.429	149.16
394.639	155.3
394.848	116.39
395.058	134.82
395.267	97.96
395.477	83.63
395.686	130.73
395.895	100.01
396.105	138.92
396.314	95.91
396.524	124.58
396.733	13.99
396.942	149.16
397.152	97.96
397.361	106.15
397.57	145.06
397.78	136.87
397.989	143.02
398.198	169.64
398.407	128.68
398.617	136.87
398.826	126.63
399.035	91.82
399.244	153.26
399.453	83.63
399.663	104.11
399.872	138.92
400.081	28.33
400.29	116.39
400.499	85.67
400.708	73.39
400.917	97.96
401.127	145.06
401.336	106.15
401.545	181.93
401.754	52.91
401.963	67.24
402.172	112.3
402.381	102.06
402.59	126.63
402.799	157.35
403.008	112.3
403.217	50.86
403.426	183.98
403.635	122.54
403.844	106.15
404.053	116.39
404.262	149.16
404.471	208.55
404.68	134.82
404.888	89.77
405.097	138.92
405.306	81.58
405.515	179.88
405.724	126.63
405.933	120.49
406.142	206.5
406.35	177.83
406.559	249.51
406.768	167.59
406.977	237.22
407.185	186.02
407.394	192.17
407.603	165.54
407.812	106.15
408.02	237.22
408.229	196.26
408.438	284.33
408.646	192.17
408.855	251.56
409.064	220.84
409.272	269.99
409.481	263.85
409.69	179.88
409.898	210.6
410.107	325.29
410.315	298.66
410.524	272.04
410.733	261.8
410.941	304.81
411.15	323.24
411.358	343.72
411.567	417.44
411.775	323.24
411.984	343.72
412.192	308.9
412.401	360.1
412.609	433.83
412.818	382.63
413.026	433.83
413.234	376.48
413.443	478.88
413.651	419.49
413.86	372.39
414.068	489.12
414.276	474.79
414.485	538.27
414.693	497.32
414.901	579.23
415.11	556.71
415.318	521.89
415.526	607.91
415.734	685.73
415.943	626.34
416.151	673.44
416.359	657.06
416.567	657.06
416.776	794.27
416.984	820.89
417.192	843.42
417.4	884.38
417.608	818.85
417.817	872.09
418.025	931.48
418.233	1048.22
418.441	915.1
418.649	1017.5
418.857	1076.89
419.065	1031.83
419.273	1058.46
419.481	1117.85
419.689	1111.71
419.897	1236.63
420.105	1142.43
420.313	1228.44
420.521	1339.03
420.729	1402.52
420.937	1418.9
421.145	1392.28
421.353	1453.72
421.561	1502.87
421.769	1554.07
421.977	1586.83
422.185	1707.66
422.393	1742.48
422.601	1838.73
422.809	1836.69
423.017	1891.98
423.224	1928.85
423.432	1990.28
423.64	1904.27
423.848	2119.31
424.056	2131.59
424.263	2387.59
424.471	2178.7
424.679	2301.58
424.887	2313.86
425.094	2492.04
425.302	2530.95
425.51	2655.87
425.718	2670.21
425.925	2776.7
426.133	2856.58
426.341	3102.33
426.548	3049.08
426.756	3137.15
426.964	3131
427.171	3307.13
427.379	3427.96
427.586	3479.16
427.794	3548.79
428.001	3792.5
428.209	3794.54
428.417	3860.08
428.624	4128.36
428.832	4028.01
429.039	4204.14
429.247	4028.01
429.454	4480.61
429.662	4689.51
429.869	4509.29
430.076	4789.86
430.284	4630.12
430.491	4861.54
430.699	4955.74
430.906	5129.82
431.114	5281.37
431.321	5289.56
431.528	5525.08
431.736	5817.94
431.943	6284.87
432.15	6016.59
432.358	6065.74
432.565	6348.36
432.772	6327.88
432.979	6831.68
433.187	6700.61
433.394	6895.17
433.601	7304.76
433.808	7407.16
434.016	7216.7
434.223	7433.79
434.43	7892.53
434.637	7747.12
434.844	8347.18
435.052	8603.18
435.259	8658.47
435.466	8568.36
435.673	8289.84
435.88	9059.87
436.087	9412.12
436.294	9451.03
436.501	9172.51
436.708	9510.43
436.915	9684.5
437.122	10210.83
437.329	10124.82
437.537	10454.54
437.743	10704.39
437.95	10581.51
438.157	11095.55
438.364	11668.98
438.571	11378.17
438.778	11679.22
438.985	12764.65
439.192	12277.23
439.399	12445.16
439.606	12189.17
439.813	13030.88
440.02	13766.1
440.227	13536.73
440.433	13325.79
440.64	14155.22
440.847	13678.04
441.054	14073.3
441.261	14994.89
441.467	14802.38
441.674	15216.07
441.881	15635.9
442.088	15697.34
442.294	15533.5
442.501	15924.66
442.708	16446.9
442.914	16883.11
443.121	17679.77
443.328	17141.16
443.534	18357.65
443.741	17952.15
443.948	17614.24
444.154	19053.96
444.361	18847.12
444.568	19215.75
444.774	19043.72
444.981	19324.29
445.187	19740.03
445.394	20995.43
445.6	20284.79
445.807	22322.52
446.013	21597.54
446.22	21894.49
446.426	22158.68
446.633	22670.67
446.839	23780.67
447.046	22519.12
447.252	24216.89
447.459	24132.92
447.665	23825.73
447.871	24976.69
448.078	25689.38
448.284	24945.97
448.491	25601.32
448.697	26692.88
448.903	26918.16
449.11	27206.92
449.316	26637.59
449.522	27120.91
449.728	27616.52
449.935	27936
450.141	28095.74
450.347	28783.86
450.553	28011.78
450.76	28161.28
450.966	29220.08
451.172	28914.93
451.378	29617.38
451.584	29002.99
451.791	29648.1
451.997	29656.29
452.203	29988.07
452.409	30162.14
452.615	29916.39
452.821	28761.33
453.027	28818.67
453.233	29865.19
453.44	29068.53
453.646	29041.9
453.852	29549.8
454.058	29928.67
454.264	28927.22
454.47	29633.77
454.676	28820.72
454.882	30123.23
455.088	27372.81
455.294	27579.65
455.5	27886.85
455.705	28361.98
455.911	27569.41
456.117	26940.69
456.323	26340.63
456.529	25097.52
456.735	26494.23
456.941	25400.62
457.147	25335.08
457.352	24216.89
457.558	23940.41
457.764	23889.21
457.97	23629.12
458.176	23123.27
458.381	23246.15
458.587	22050.14
458.793	21935.45
458.999	20993.39
459.204	22433.11
459.41	21933.4
459.616	20151.67
459.821	20596.08
460.027	20301.17
460.233	19942.78
460.438	18892.17
460.644	18998.66
460.85	18152.85
461.055	18007.45
461.261	17999.26
461.466	16631.21
461.672	16022.97
461.878	17104.29
462.083	15895.99
462.289	15621.56
462.494	15535.55
462.7	14915.02
462.905	14394.83
463.111	15164.87
463.316	14841.29
463.522	14575.05
463.727	14814.66
463.932	14874.06
464.138	14470.61
464.343	14499.28
464.549	14319.06
464.754	14671.31
464.959	14554.57
465.165	14407.12
465.37	13938.13
465.575	13538.78
465.781	13987.29
465.986	14056.92
466.191	13839.83
466.397	13372.89
466.602	12856.81
466.807	13280.74
467.012	13174.24
467.218	13182.43
467.423	13053.41
467.628	13229.54
467.833	13678.04
468.038	13032.93
468.244	12844.52
468.449	13116.9
468.654	12762.6
468.859	12565.99
469.064	12789.22
469.269	12174.83
469.474	12180.98
469.679	12500.46
469.885	12281.33
470.09	12420.59
470.295	12281.33
470.5	11912.69
470.705	12119.54
470.91	11865.59
471.115	11615.74
471.32	11693.56
471.525	11988.47
471.73	11458.04
471.935	11556.35
472.139	11091.46
472.344	11142.66
472.549	11142.66
472.754	11050.5
472.959	10788.36
473.164	10614.28
473.369	10497.55
473.574	10659.34
473.778	10579.47
473.983	10743.3
474.188	10423.82
474.393	10176.02
474.598	10126.86
474.802	9862.68
475.007	9956.88
475.212	10059.28
475.417	9590.3
475.621	9522.71
475.826	9500.19
476.031	9483.8
476.235	9502.23
476.44	9676.31
476.645	9139.74
476.849	9369.12
477.054	9160.22
477.259	8871.46
477.463	8932.9
477.668	8783.4
477.872	8971.81
478.077	8746.53
478.282	8711.72
478.486	8652.33
478.691	8355.37
478.895	8310.32
479.1	8490.54
479.304	8261.16
479.509	8087.09
479.713	8420.91
479.918	8193.58
480.122	7933.49
480.326	8187.44
480.531	8117.81
480.735	7872.05
480.94	7892.53
481.144	8119.85
481.348	7716.4
481.553	7894.58
481.757	7601.72
481.961	7835.19
482.166	7913.01
482.37	8085.04
482.574	7650.87
482.778	7806.52
482.983	7972.4
483.187	7759.41
483.391	7790.13
483.595	7646.77
483.8	7835.19
484.004	7972.4
484.208	7734.84
484.412	7761.46
484.616	7831.09
484.821	7833.14
485.025	7597.62
485.229	7806.52
485.433	7689.78
485.637	7863.86
485.841	7704.12
486.045	7777.84
486.249	7781.94
486.453	7636.53
486.657	7634.49
486.861	7882.29
487.065	7669.3
487.269	7847.47
487.473	7779.89
487.677	7790.13
487.881	7956.02
488.085	7738.93
488.289	7874.1
488.493	7929.39
488.697	7841.33
488.901	7724.6
489.105	7839.28
489.309	7745.08
489.512	7908.91
489.716	7951.92
489.92	7843.38
490.124	8031.79
490.328	8097.33
490.531	7964.21
490.735	8158.77
490.939	8027.7
491.143	8091.18
491.346	7990.83
491.55	8138.29
491.754	8162.86
491.958	8220.21
492.161	8179.25
492.365	8246.83
492.569	8310.32
492.772	8189.49
492.976	8425
493.18	8240.68
493.383	8529.45
493.587	8545.83
493.79	8717.86
493.994	8533.54
494.197	8631.85
494.401	8713.77
494.605	8623.66
494.808	8889.89
495.012	8893.99
495.215	9035.3
495.419	9106.98
495.622	8969.76
495.825	9123.36
496.029	9098.78
496.232	9403.93
496.436	9297.44
496.639	9676.31
496.843	9639.45
497.046	9825.81
497.249	9944.59
497.453	9952.79
497.656	10087.95
497.859	9942.55
498.063	10067.47
498.266	10378.76
498.469	10153.49
498.673	10511.88
498.876	10645
499.079	10796.55
499.282	10591.75
499.485	11046.4
499.689	10810.89
499.892	11341.31
500.095	11267.58
500.298	11460.09
500.501	11525.63
500.705	11634.17
500.908	11791.86
501.111	11830.77
501.314	12072.43
501.517	12291.57
501.72	12357.1
501.923	12346.86
502.126	12547.56
502.329	12541.42
502.532	12772.84
502.735	13149.67
502.938	13209.06
503.141	13440.48
503.344	13604.32
503.547	13764.06
503.75	13686.23
503.953	13895.13
504.156	14108.12
504.359	14018
504.562	14374.35
504.765	14523.85
504.968	14878.15
505.17	14806.47
505.373	15216.07
505.576	15234.5
505.779	15551.93
505.982	15830.46
506.185	15986.1
506.387	16031.16
506.59	16158.13
506.793	16422.32
506.996	16448.94
507.198	16987.56
507.401	17098.15
507.604	17026.47
507.807	17339.81
508.009	17337.76
508.212	17753.5
508.415	17997.21
508.617	17995.16
508.82	18242.96
509.022	18240.92
509.225	18824.59
509.428	18941.32
509.63	19031.43
509.833	19006.86
510.035	19551.62
510.238	19791.23
510.44	20043.13
510.643	20155.77
510.845	20438.39
511.048	20338.04
511.25	20614.51
511.453	20747.63
511.655	21536.1
511.858	21212.52
512.06	21632.35
512.262	21824.86
512.465	22031.71
512.667	22404.44
512.87	22521.17
513.072	22562.13
513.274	23049.55
513.477	23235.91
513.679	23582.02
513.881	23864.64
514.084	23811.39
514.286	24102.2
514.488	24368.44
514.69	24851.76
514.893	24833.33
515.095	25312.55
515.297	25392.42
515.499	25462.05
515.701	25943.33
515.904	26359.06
516.106	26823.95
516.308	26799.38
516.51	26963.22
516.712	27120.91
516.914	27460.87
517.116	27923.71
517.318	27735.3
517.52	28423.42
517.722	28581.11
517.925	28808.44
518.127	29308.14
518.329	29224.17
518.531	29342.95
518.733	29783.27
518.935	29930.72
519.136	30229.73
519.338	30944.47
519.54	30743.77
519.742	31347.92
519.944	31315.15
520.146	31935.68
520.348	32369.85
520.55	32246.97
520.752	32650.42
520.954	32998.58
521.155	32740.54
521.357	33414.32
521.559	33885.35
521.761	34118.82
521.963	33889.45
522.164	34133.15
522.366	34364.57
522.568	34497.69
522.77	35046.55
522.971	35642.51
523.173	35290.26
523.375	36091.01
523.576	35724.43
523.778	36347.01
523.98	36605.05
524.181	36695.16
524.383	36594.81
524.584	37469.29
524.786	37770.35
524.988	37155.96
525.189	37721.2
525.391	37647.47
525.592	37944.42
525.794	38194.28
525.995	38294.63
526.197	38730.84
526.398	38767.71
526.6	39287.89
526.801	39365.71
527.003	39648.33
527.204	39707.72
527.406	39996.49
527.607	39672.91
527.808	40340.55
528.01	39654.48
528.211	39777.36
528.412	41092.15
528.614	40784.96
528.815	40674.37
529.016	41147.45
529.218	41188.41
529.419	41034.81
529.62	41251.89
529.822	40977.47
530.023	41315.38
530.224	41339.96
530.425	42075.18
530.626	41593.9
530.828	41331.76
531.029	42204.2
531.23	41593.9
531.431	42210.34
531.632	42120.23
531.833	41983.02
532.035	41980.97
532.236	42540.07
532.437	42628.13
532.638	42388.52
532.839	42785.82
533.04	42697.76
533.241	42341.41
533.442	43189.27
533.643	43019.29
533.844	42720.29
534.045	42906.65
534.246	42370.08
534.447	43285.53
534.648	42847.26
534.849	43039.77
535.05	43037.72
535.251	43279.38
535.451	42867.74
535.652	43050.01
535.853	43013.15
536.054	43557.91
536.255	43879.44
536.456	42929.18
536.657	43848.72
536.857	43097.11
537.058	42804.25
537.259	43688.98
537.46	43521.04
537.66	43351.06
537.861	43596.82
538.062	43195.42
538.263	43693.07
538.463	43457.56
538.664	43418.64
538.865	43904.01
539.065	43594.77
539.266	43269.14
539.466	44071.95
539.667	43357.21
539.868	44063.75
540.068	43383.83
540.269	43361.3
540.469	43930.64
540.67	43478.04
540.87	43557.91
541.071	43611.15
541.271	43590.67
541.472	43451.41
541.672	43428.88
541.873	43258.9
542.073	42687.52
542.274	43840.53
542.474	43201.56
542.675	43357.21
542.875	43838.48
543.075	43398.16
543.276	43246.61
543.476	43631.63
543.676	43428.88
543.877	43645.97
544.077	43414.55
544.277	43537.43
544.478	43637.78
544.678	43758.61
544.878	43369.49
545.078	43508.75
545.279	43322.39
545.479	43703.31
545.679	43150.36
545.879	43721.74
546.079	43527.19
546.28	43578.39
546.48	43437.08
546.68	43904.01
546.88	43994.12
547.08	43578.39
547.28	43306.01
547.48	43217.94
547.68	44004.36
547.88	43514.9
548.081	43670.54
548.281	43717.65
548.481	43353.11
548.681	43709.46
548.881	43869.2
549.081	43586.58
549.28	43506.71
549.48	43977.74
549.68	43533.33
549.88	43975.69
550.08	43543.57
550.28	43707.41
550.48	43400.21
550.68	43693.07
550.88	43340.82
551.08	43422.74
551.279	43529.23
551.479	43459.6
551.679	43473.94
551.879	43117.59
552.079	44014.6
552.278	42988.57
552.478	43369.49
552.678	43344.92
552.878	43605.01
553.077	43547.67
553.277	43144.22
553.477	43885.58
553.676	43353.11
553.876	43062.3
554.076	43326.49
554.275	43277.33
554.475	42548.26
554.674	43541.52
554.874	43402.26
555.074	43111.45
555.273	42863.64
555.473	43201.56
555.672	42998.81
555.872	42978.33
556.071	43263
556.271	43332.63
556.47	42572.83
556.67	42624.03
556.869	43054.11
557.068	43070.49
557.268	42759.2
557.467	42931.23
557.667	42628.13
557.866	42705.95
558.065	42673.18
558.265	42519.59
558.464	42677.28
558.663	42912.8
558.863	42021.93
559.062	42824.73
559.261	42146.86
559.461	42662.94
559.66	42001.45
559.859	42333.22
560.058	41958.44
560.258	42382.37
560.457	41610.29
560.656	42359.84
560.855	41694.25
561.054	42232.87
561.253	41634.86
561.453	41944.11
561.652	42128.42
561.851	42077.22
562.05	41688.11
562.249	41276.47
562.448	41858.09
562.647	41423.92
562.846	41546.8
563.045	41397.3
563.244	41188.41
563.443	41587.76
563.642	40705.09
563.841	41126.97
564.04	41133.11
564.239	41311.28
564.438	40690.75
564.637	40879.16
564.836	40797.24
565.035	40481.86
565.234	40883.26
565.432	40346.69
565.631	40629.31
565.83	40598.59
566.029	40416.32
566.228	40143.94
566.427	40186.95
566.625	39910.47
566.824	39730.25
567.023	40023.11
567.222	39334.99
567.42	39926.86
567.619	39543.89
567.818	39601.23
568.016	39326.8
568.215	39763.02
568.414	39222.36
568.612	39730.25
568.811	39289.94
569.01	39205.97
569.208	38478.94
569.407	39109.72
569.605	38433.89
569.804	39064.66
570.002	38300.77
570.201	39109.72
570.4	38401.12
570.598	38261.86
570.797	38618.21
570.995	38239.33
571.193	37989.48
571.392	38157.41
571.59	38073.45
571.789	37958.76
571.987	37862.5
572.186	37913.7
572.384	37350.51
572.582	37710.96
572.781	37739.63
572.979	36918.39
573.177	37616.75
573.376	37639.28
573.574	37022.84
573.772	37010.55
573.971	36525.18
574.169	36777.08
574.367	36371.58
574.565	36715.64
574.763	36441.21
574.962	36422.78
575.16	36148.36
575.358	36205.7
575.556	35923.08
575.754	36191.36
575.952	35720.33
576.151	36086.92
576.349	35650.7
576.547	35656.84
576.745	35478.67
576.943	35431.57
577.141	35527.82
577.339	35673.23
577.537	35525.77
577.735	35634.31
577.933	34839.7
578.131	35007.64
578.329	34870.42
578.527	34428.06
578.725	34520.22
578.923	34413.73
579.121	34479.26
579.319	34407.58
579.516	34573.47
579.714	34124.96
579.912	34389.15
580.11	33817.77
580.308	33909.93
580.506	33873.06
580.704	33375.41
580.901	33707.18
581.099	33940.64
581.297	33420.46
581.495	33545.39
581.692	33555.63
581.89	32799.93
582.088	33148.08
582.285	32996.53
582.483	33033.39
582.681	33025.2
582.878	32853.17
583.076	32437.44
583.274	32824.5
583.471	32492.73
583.669	32707.77
583.866	32179.39
584.064	32425.15
584.262	32244.93
584.459	32562.36
584.657	32277.69
584.854	31882.44
585.052	31651.02
585.249	32085.19
585.447	31847.62
585.644	31427.79
585.841	31747.27
586.039	31911.11
586.236	31096.02
586.434	31087.82
586.631	31046.86
586.828	31116.5
587.026	30921.94
587.223	30762.2
587.42	30719.19
587.618	30901.46
587.815	30401.75
588.012	30508.25
588.21	30276.83
588.407	30479.58
588.604	30049.5
588.801	29873.38
588.999	30033.12
589.196	30311.64
589.393	29983.97
589.59	29859.04
589.787	30153.95
589.984	29879.52
590.182	29033.71
590.379	29605.09
590.576	29484.26
590.773	29195.5
590.97	29031.66
591.167	29514.98
591.364	29199.6
591.561	29056.24
591.758	28544.25
591.955	28943.6
592.152	28988.66
592.349	28804.34
592.546	28955.89
592.743	28908.79
592.94	28230.91
593.137	28587.25
593.334	28439.8
593.531	27925.76
593.727	28288.25
593.924	28087.55
594.121	28067.07
594.318	28161.28
594.515	27710.72
594.712	27890.95
594.908	27727.11
595.105	27604.23
595.302	27424.01
595.499	27520.26
595.696	27587.85
595.892	27073.81
596.089	27165.96
596.286	27417.86
596.482	26887.44
596.679	27198.73
596.876	27165.96
597.072	26684.69
597.269	26725.65
597.466	26502.42
597.662	26518.81
597.859	26367.26
598.055	26510.61
598.252	26207.51
598.448	26535.19
598.645	26027.29
598.841	26297.63
599.038	25787.68
599.234	26006.81
599.431	25773.35
599.627	25734.43
599.824	25789.73
600.02	25894.18
600.217	25687.33
600.413	25208.11
600.609	25531.69
600.806	25365.8
601.002	25527.59
601.198	25167.15
601.395	25031.98
601.591	25269.55
601.787	25156.91
601.984	24886.57
602.18	25052.46
602.376	24522.04
602.572	24769.84
602.769	24290.62
602.965	24122.68
603.161	24483.13
603.357	24429.88
603.553	24315.19
603.75	24413.49
603.946	24237.37
604.142	24057.15
604.338	23653.7
604.534	24008
604.73	24114.49
604.926	23698.75
605.122	23694.66
605.318	23563.59
605.514	23579.97
605.71	23373.13
605.906	23420.23
606.102	23094.6
606.298	23459.14
606.494	23053.64
606.69	23153.99
606.886	23139.66
607.082	22775.12
607.278	23188.81
607.474	22580.56
607.67	22881.61
607.866	22623.57
608.062	22965.58
608.257	22621.52
608.453	22488.4
608.649	22617.43
608.845	22383.96
609.041	22676.82
609.236	22357.33
609.432	22429.01
609.628	22715.73
609.824	22492.5
610.019	21939.55
610.215	22154.58
610.411	21974.36
610.606	21869.92
610.802	22023.51
610.998	22084.95
611.193	22152.54
611.389	21839.2
611.584	21785.95
611.78	21591.39
611.976	21607.78
612.171	21728.61
612.367	21755.23
612.562	21581.15
612.758	21601.63
612.953	21622.11
613.149	21677.41
613.344	21423.46
613.539	21618.02
613.735	21362.02
613.93	21497.19
614.126	20938.09
614.321	21380.45
614.517	21261.67
614.712	20968.81
614.907	21052.78
615.103	21179.75
615.298	20657.52
615.493	21079.4
615.688	20528.5
615.884	21110.12
616.079	20407.67
616.274	20764.01
616.47	20657.52
616.665	20495.73
616.86	20413.81
617.055	20596.08
617.25	20331.89
617.445	20591.98
617.641	19944.83
617.836	20368.76
618.031	20002.17
618.226	19879.29
618.421	20172.15
618.616	20338.04
618.811	20133.24
619.006	20297.08
619.201	19549.57
619.396	19713.41
619.591	19238.28
619.786	19699.07
619.981	19303.81
620.176	19545.47
620.371	19082.63
620.566	19363.2
620.761	19223.94
620.956	19248.52
621.151	19013
621.346	19019.14
621.541	18750.86
621.735	18931.08
621.93	18275.73
622.125	18505.1
622.32	18412.95
622.515	18197.91
622.709	18111.89
622.904	18042.26
623.099	17956.25
623.294	18015.64
623.488	17952.15
623.683	17905.05
623.878	17479.07
624.072	17716.64
624.267	17708.44
624.462	17380.77
624.656	17270.18
624.851	17135.01
625.046	17313.19
625.24	16915.88
625.435	16831.91
625.629	16745.9
625.824	16766.38
626.018	16692.65
626.213	16414.13
626.407	16315.83
626.602	16285.11
626.796	16541.1
626.991	16258.48
627.185	16188.85
627.38	16180.66
627.574	16043.45
627.768	15801.79
627.963	16045.49
628.157	15658.43
628.352	15687.1
628.546	15549.89
628.74	15883.7
628.935	15498.69
629.129	15289.79
629.323	15367.62
629.517	15248.83
629.712	15058.37
629.906	15080.9
630.1	14620.11
630.294	14763.47
630.489	14671.31
630.683	14775.75
630.877	14433.74
631.071	14560.72
631.265	14519.76
631.459	14126.55
631.653	14263.76
631.848	14126.55
632.042	14009.81
632.236	14271.95
632.43	13911.51
632.624	13882.84
632.818	13749.72
633.012	13663.71
633.206	13907.41
633.4	13784.54
633.594	13399.52
633.788	13624.79
633.982	13579.74
634.176	13297.12
634.369	13333.98
634.563	13075.94
634.757	13016.55
634.951	13209.06
635.145	13024.74
635.339	13075.94
635.533	12701.16
635.726	12801.51
635.92	12817.9
636.114	12686.83
636.308	12520.94
636.501	12387.82
636.695	12504.56
636.889	12250.61
637.083	12172.78
637.276	12252.66
637.47	12129.78
637.664	12199.41
637.857	12084.72
638.051	11843.06
638.244	11998.71
638.438	11769.34
638.632	11832.82
638.825	11527.67
639.019	11390.46
639.212	11535.87
639.406	11496.96
639.599	11415.04
639.793	11439.61
639.986	11202.05
640.18	11187.71
640.373	11206.14
640.567	10946.05
640.76	11128.32
640.954	10843.65
641.147	10604.04
641.34	10870.28
641.534	10845.7
641.727	10741.25
641.92	10634.76
642.114	10315.28
642.307	10683.91
642.5	10427.92
642.694	10182.16
642.887	10321.42
643.08	10280.46
643.273	10171.92
643.467	10102.29
643.66	10100.24
643.853	10012.18
644.046	9676.31
644.239	9872.92
644.432	9969.17
644.626	9559.58
644.819	9672.22
645.012	9717.27
645.205	9768.47
645.398	9479.71
645.591	9432.6
645.784	9420.31
645.977	9207.33
646.17	9309.72
646.363	9164.32
646.556	9182.75
646.749	9346.59
646.942	9088.54
647.135	8861.22
647.328	8918.56
647.521	8828.45
647.714	8654.37
647.907	8885.8
648.099	8613.42
648.292	8605.22
648.485	8787.49
648.678	8543.78
648.871	8625.7
649.064	8371.75
649.256	8623.66
649.449	8482.35
649.642	8381.99
649.835	8144.43
650.027	8252.97
650.22	8054.32
650.413	8123.95
650.605	8080.94
650.798	8089.14
650.991	7806.52
651.183	7847.47
651.376	7956.02
651.568	7820.85
651.761	7734.84
651.954	7806.52
652.146	7812.66
652.339	7659.06
652.531	7616.05
652.724	7738.93
652.916	7507.51
653.109	7673.4
653.301	7511.61
653.494	7605.81
653.686	7261.76
653.879	7454.26
654.071	7296.57
654.263	7249.47
654.456	7331.39
654.648	7267.9
654.84	7155.26
655.033	7089.73
655.225	7085.63
655.417	7075.39
655.61	7095.87
655.802	7067.2
655.994	6827.59
656.186	7038.53
656.379	6934.08
656.571	6895.17
656.763	6770.24
656.955	6704.71
657.148	6856.26
657.34	6784.58
657.532	6493.77
657.724	6489.67
657.916	6305.35
658.108	6692.42
658.3	6536.77
658.492	6481.48
658.684	6393.42
658.876	6387.27
659.068	6221.39
659.26	6307.4
659.452	6331.98
659.644	6321.74
659.836	6243.92
660.028	6227.53
660.22	6114.89
660.412	5965.39
660.604	5971.54
660.796	6045.26
660.988	5989.97
661.18	6006.35
661.372	5869.14
661.563	6022.73
661.755	5844.56
661.947	5977.68
662.139	5787.22
662.331	5787.22
662.522	5713.49
662.714	5752.4
662.906	5688.92
663.097	5805.65
663.289	5647.96
663.481	5508.69
663.673	5441.11
663.864	5512.79
664.056	5529.17
664.247	5410.39
664.439	5336.67
664.631	5492.31
664.822	5367.38
665.014	5228.12
665.205	5260.89
665.397	5447.26
665.588	5271.13
665.78	5187.16
665.971	5185.12
666.163	5209.69
666.354	5064.29
666.546	5029.47
666.737	5088.86
666.929	5070.43
667.12	5013.09
667.311	5029.47
667.503	5090.91
667.694	4949.6
667.885	4884.06
668.077	5019.23
668.268	4824.67
668.459	4904.54
668.651	4806.24
668.842	4679.27
669.033	4726.37
669.224	4859.49
669.416	4863.58
669.607	4679.27
669.798	4593.25
669.989	4904.54
670.18	4705.89
670.371	4742.75
670.563	4720.23
670.754	4589.16
670.945	4574.82
671.136	4642.4
671.327	4640.36
671.518	4490.85
671.709	4499.05
671.9	4527.72
672.091	4593.25
672.282	4468.33
672.473	4609.64
672.664	4441.7
672.855	4415.08
673.046	4390.5
673.237	4275.82
673.428	4425.32
673.619	4361.83
673.809	4370.02
674	4382.31
674.191	4312.68
674.382	4234.86
674.573	4449.89
674.764	4261.48
674.954	4372.07
675.145	4271.72
675.336	4406.89
675.527	4210.28
675.717	4238.95
675.908	4101.74
676.099	4269.67
676.289	4253.29
676.48	4206.19
676.671	4200.04
676.861	4220.52
677.052	4120.17
677.243	4140.65
677.433	4152.94
677.624	4173.42
677.814	4124.27
678.005	4171.37
678.195	4159.08
678.386	4161.13
678.576	4023.92
678.767	4083.31
678.957	4243.05
679.148	4204.14
679.338	4146.8
679.529	4101.74
679.719	4064.88
679.909	4195.95
680.1	4001.39
680.29	3993.2
680.481	4046.44
680.671	4089.45
680.861	4044.4
681.052	4144.75
681.242	4083.31
681.432	4157.04
681.622	4071.02
681.813	4109.93
682.003	4001.39
682.193	4087.4
682.383	4111.98
682.573	4075.12
682.764	4085.36
682.954	3964.53
683.144	3987.05
683.334	4034.16
683.524	3964.53
683.714	4036.21
683.904	4218.47
684.094	4042.35
684.284	4210.28
684.474	4152.94
684.664	4111.98
684.854	4052.59
685.044	3939.95
685.234	4044.4
685.424	3888.75
685.614	3935.85
685.804	3839.6
685.994	3884.66
686.184	3997.29
686.374	3999.34
686.564	3948.14
686.753	3997.29
686.943	3888.75
687.133	4028.01
687.323	3858.03
687.513	3876.46
687.702	3874.42
687.892	3833.46
688.082	3876.46
688.272	3882.61
688.461	3860.08
688.651	3845.74
688.841	3880.56
689.03	3886.7
689.22	3731.06
689.41	3749.49
689.599	3878.51
689.789	3798.64
689.979	3802.74
690.168	3864.18
690.358	3733.11
690.547	3743.35
690.737	3763.83
690.926	3778.16
691.116	3726.96
691.305	3722.87
691.495	3735.15
691.684	3747.44
691.874	3561.08
692.063	3573.36
692.252	3749.49
692.442	3714.67
692.631	3622.52
692.82	3665.52
693.01	3602.04
693.199	3497.59
693.388	3485.3
693.578	3726.96
693.767	3556.98
693.956	3511.93
694.146	3477.11
694.335	3483.25
694.524	3589.75
694.713	3643
694.902	3462.77
695.092	3575.41
695.281	3511.93
695.47	3591.8
695.659	3524.21
695.848	3485.3
696.037	3567.22
696.226	3595.89
696.415	3454.58
696.604	3538.55
696.793	3448.44
696.982	3372.66
697.171	3550.84
697.36	3485.3
697.549	3513.97
697.738	3401.33
697.927	3526.26
698.116	3501.69
698.305	3440.25
698.494	3438.2
698.683	3464.82
698.872	3456.63
699.061	3497.59
699.25	3483.25
699.438	3356.28
699.627	3389.05
699.816	3487.35
700.005	3415.67
700.193	3399.29
700.382	3520.12
700.571	3372.66
700.76	3405.43
700.948	3450.49
701.137	3393.14
701.326	3491.45
701.514	3255.93
701.703	3411.57
701.892	3395.19
702.08	3464.82
702.269	3356.28
702.457	3339.9
702.646	3505.78
702.834	3303.03
703.023	3350.14
703.212	3335.8
703.4	3335.8
703.589	3321.46
703.777	3430.01
703.965	3425.91
704.154	3397.24
704.342	3401.33
704.531	3341.94
704.719	3251.83
704.907	3466.87
705.096	3315.32
705.284	3325.56
705.472	3300.98
705.661	3219.07
705.849	3393.14
706.037	3358.33
706.226	3311.22
706.414	3260.02
706.602	3491.45
706.79	3159.67
706.979	3473.01
707.167	3296.89
707.355	3409.53
707.543	3419.77
707.731	3317.37
707.919	3348.09
708.107	3268.22
708.296	3176.06
708.484	3255.93
708.672	3262.07
708.86	3307.13
709.048	3337.85
709.236	3284.6
709.424	3294.84
709.612	3366.52
709.8	3270.26
709.988	3341.94
710.176	3198.59
710.364	3118.72
710.551	3303.03
710.739	3247.74
710.927	3169.91
711.115	3315.32
711.303	3276.41
711.491	3317.37
711.679	3171.96
711.866	3243.64
712.054	3204.73
712.242	3284.6
712.43	3346.04
712.617	3219.07
712.805	3284.6
712.993	3096.19
713.181	3204.73
713.368	3204.73
713.556	3200.63
713.744	3219.07
713.931	3247.74
714.119	3278.46
714.306	3278.46
714.494	3231.35
714.682	3227.26
714.869	3157.63
715.057	3180.15
715.244	3157.63
715.432	3217.02
715.619	3178.11
715.807	3266.17
715.994	3231.35
716.182	3186.3
716.369	3161.72
716.556	3241.59
716.744	3063.42
716.931	3235.45
717.119	3255.93
717.306	3241.59
717.493	3100.28
717.681	3139.19
717.868	3208.83
718.055	3137.15
718.242	3317.37
718.43	3106.43
718.617	3225.21
718.804	3155.58
718.991	3100.28
719.179	3171.96
719.366	3069.56
719.553	3178.11
719.74	3083.9
719.927	3182.2
720.114	3114.62
720.301	3047.04
720.488	3255.93
720.676	3065.47
720.863	3255.93
721.05	3219.07
721.237	3184.25
721.424	3184.25
721.611	3042.94
721.798	3161.72
721.985	3016.32
722.172	3014.27
722.358	3143.29
722.545	3196.54
722.732	3004.03
722.919	3094.14
723.106	3151.48
723.293	3059.32
723.48	3079.8
723.667	3061.37
723.853	3124.86
724.04	3044.99
724.227	3024.51
724.414	2950.78
724.6	3063.42
724.787	3126.91
724.974	3106.43
725.161	3024.51
725.347	3012.22
725.534	3040.89
725.72	3051.13
725.907	2979.45
726.094	2915.97
726.28	2979.45
726.467	3020.41
726.653	3059.32
726.84	2985.6
727.027	3135.1
727.213	2928.25
727.4	2999.93
727.586	2997.88
727.773	3034.75
727.959	3042.94
728.145	3044.99
728.332	3149.43
728.518	2942.59
728.705	2840.19
728.891	3030.65
729.077	2897.53
729.264	3067.52
729.45	2963.07
729.636	3063.42
729.823	2848.38
730.009	2983.55
730.195	2795.14
730.382	2770.56
730.568	2932.35
730.754	2842.24
730.94	2842.24
731.126	2838.14
731.313	2911.87
731.499	3088
731.685	3010.17
731.871	2993.79
732.057	2948.73
732.243	2940.54
732.429	2975.36
732.615	2901.63
732.801	2778.75
732.987	2979.45
733.173	2952.83
733.359	2965.12
733.545	2952.83
733.731	2819.71
733.917	2760.32
734.103	2918.01
734.289	2936.45
734.475	2813.57
734.661	2967.17
734.847	2872.96
735.033	2844.29
735.219	2858.62
735.404	2772.61
735.59	2793.09
735.776	2887.29
735.962	2895.49
736.148	2809.47
736.333	2838.14
736.519	2940.54
736.705	2842.24
736.89	2821.76
737.076	2764.42
737.262	2745.98
737.447	2786.94
737.633	2754.18
737.819	2850.43
738.004	2709.12
738.19	2838.14
738.375	2780.8
738.561	2811.52
738.747	2797.18
738.932	2688.64
739.118	2659.97
739.303	2707.07
739.489	2807.42
739.674	2696.83
739.859	2659.97
740.045	2674.31
740.23	2684.55
740.416	2592.39
740.601	2600.58
740.786	2690.69
740.972	2545.28
741.157	2637.44
741.342	2668.16
741.528	2623.11
741.713	2635.39
741.898	2567.81
742.084	2705.03
742.269	2662.02
742.454	2522.76
742.639	2637.44
742.824	2539.14
743.01	2487.94
743.195	2528.9
743.38	2526.85
743.565	2594.44
743.75	2555.52
743.935	2381.45
744.12	2498.18
744.305	2526.85
744.49	2500.23
744.675	2473.6
744.86	2473.6
745.045	2424.45
745.23	2334.34
745.415	2344.58
745.6	2389.64
745.785	2313.86
745.97	2358.92
746.155	2385.54
746.34	2320.01
746.525	2332.3
746.71	2348.68
746.895	2311.82
747.079	2219.66
747.264	2170.51
747.449	2250.38
747.634	2256.52
747.819	2379.4
748.003	2174.6
748.188	2129.55
748.373	2131.59
748.557	2207.37
748.742	2096.78
748.927	2123.4
749.111	2121.35
749.296	2211.46
749.481	2104.97
749.665	2074.25
749.85	2006.67
750.034	2035.34
750.219	2027.15
750.404	2064.01
750.588	2080.39
750.773	2121.35
750.957	1959.56
751.141	1961.61
751.326	1912.46
751.51	1971.85
751.695	1826.45
751.879	2041.48
752.064	1816.21
752.248	1953.42
752.432	1842.83
752.617	1887.89
752.801	1832.59
752.985	1865.36
753.17	1898.13
753.354	1767.06
753.538	1859.21
753.722	1738.38
753.907	1812.11
754.091	1683.09
754.275	1705.62
754.459	1795.73
754.643	1734.29
754.828	1693.33
755.012	1795.73
755.196	1699.47
755.38	1711.76
755.564	1728.14
755.748	1654.42
755.932	1674.9
756.116	1640.08
756.3	1697.42
756.484	1523.35
756.668	1576.59
756.852	1580.69
757.036	1662.61
757.22	1635.99
757.404	1523.35
757.588	1529.49
757.772	1466
757.956	1531.54
758.14	1560.21
758.323	1441.43
758.507	1382.04
758.691	1603.22
758.875	1498.77
759.059	1472.15
759.242	1480.34
759.426	1463.96
759.61	1404.57
759.794	1468.05
759.977	1498.77
760.161	1476.24
760.345	1420.95
760.528	1341.08
760.712	1371.8
760.895	1396.37
761.079	1328.79
761.263	1431.19
761.446	1318.55
761.63	1345.17
761.813	1349.27
761.997	1267.35
762.18	1328.79
762.364	1296.02
762.547	1332.89
762.731	1289.88
762.914	1406.61
763.098	1316.5
763.281	1277.59
763.464	1336.98
763.648	1226.39
763.831	1177.24
764.015	1314.45
764.198	1234.58
764.381	1185.43
764.564	1310.36
764.748	1312.41
764.931	1216.15
765.114	1130.14
765.297	1228.44
765.481	1179.29
765.664	1187.48
765.847	1144.47
766.03	1203.86
766.213	1123.99
766.397	1177.24
766.58	1164.95
766.763	1193.62
766.946	1101.47
767.129	1185.43
767.312	1169.05
767.495	1117.85
767.678	1164.95
767.861	1240.73
768.044	1195.67
768.227	1113.75
768.41	1205.91
768.593	1042.07
768.776	1025.69
768.959	1091.23
769.142	1095.32
769.324	1078.94
769.507	1160.86
769.69	1078.94
769.873	1115.8
770.056	1068.7
770.239	1025.69
770.421	1025.69
770.604	1109.66
770.787	1021.6
770.97	1064.6
771.152	968.35
771.335	1103.51
771.518	997.02
771.7	990.88
771.883	1050.27
772.066	1015.45
772.248	951.96
772.431	1136.28
772.613	1007.26
772.796	968.35
772.978	1056.41
773.161	994.97
773.343	1037.98
773.526	972.44
773.708	958.11
773.891	808.61
774.073	921.24
774.256	925.34
774.438	931.48
774.621	915.1
774.803	888.48
774.985	870.05
775.168	947.87
775.35	847.52
775.532	908.96
775.715	906.91
775.897	843.42
776.079	911
776.261	808.61
776.444	900.76
776.626	831.13
776.808	861.85
776.99	841.37
777.173	861.85
777.355	833.18
777.537	816.8
777.719	855.71
777.901	845.47
778.083	761.5
778.265	788.13
778.447	761.5
778.629	755.36
778.811	818.85
778.993	781.98
779.175	743.07
779.357	683.68
779.539	812.7
779.721	702.11
779.903	706.21
780.085	806.56
780.267	730.78
780.449	743.07
780.631	702.11
780.812	761.5
780.994	714.4
781.176	681.63
781.358	675.49
781.54	730.78
781.721	669.34
781.903	679.58
782.085	650.91
782.267	659.1
782.448	726.69
782.63	712.35
782.812	724.64
782.993	614.05
783.175	599.71
783.357	597.67
783.538	691.87
783.72	612
783.901	663.2
784.083	640.67
784.264	630.43
784.446	618.15
784.627	556.71
784.809	650.91
784.99	575.14
785.172	593.57
785.353	597.67
785.535	614.05
785.716	634.53
785.897	550.56
786.079	609.95
786.26	536.23
786.441	538.27
786.623	591.52
786.804	450.21
786.985	534.18
787.167	415.4
787.348	517.79
787.529	534.18
787.71	534.18
787.891	581.28
788.073	503.46
788.254	515.75
788.435	540.32
788.616	437.92
788.797	503.46
788.978	444.07
789.159	532.13
789.34	515.75
789.522	503.46
789.703	448.16
789.884	437.92
790.065	507.55
790.246	548.51
790.427	523.94
790.607	462.5
790.788	525.99
790.969	437.92
791.15	388.77
791.331	454.31
791.512	368.29
791.693	337.57
791.874	452.26
792.054	458.4
792.235	472.74
792.416	386.72
792.597	521.89
792.778	427.68
792.958	405.16
793.139	425.64
793.32	476.84
793.5	335.53
793.681	446.12
793.862	347.81
794.042	409.25
794.223	472.74
794.404	399.01
794.584	462.5
794.765	413.35
794.945	368.29
795.126	384.68
795.306	380.58
795.487	339.62
795.667	323.24
795.848	364.2
796.028	345.77
796.209	419.49
796.389	450.21
796.57	374.44
796.75	335.53
796.93	319.14
797.111	411.3
797.291	372.39
797.471	345.77
797.652	323.24
797.832	343.72
798.012	478.88
798.192	310.95
798.373	337.57
798.553	356.01
798.733	294.57
798.913	341.67
799.093	284.33
799.274	362.15
799.454	286.37
799.634	302.76
799.814	358.05
799.994	396.96
800.174	310.95
800.354	276.13
800.534	347.81
800.714	339.62
800.894	315.05
801.074	329.38
801.254	351.91
801.434	331.43
801.614	317.09
801.794	243.37
801.974	808.61
802.154	257.7
802.334	188.07
802.514	253.61
802.693	292.52
802.873	274.09
803.053	284.33
803.233	259.75
803.413	351.91
803.592	313
803.772	202.41
803.952	265.89
804.131	327.33
804.311	243.37
804.491	255.65
804.67	255.65
804.85	251.56
805.03	284.33
805.209	362.15
805.389	267.94
805.568	317.09
805.748	331.43
805.928	272.04
806.107	269.99
806.287	319.14
806.466	288.42
806.646	229.03
806.825	269.99
807.004	179.88
807.184	294.57
807.363	243.37
807.543	226.98
807.722	202.41
807.901	306.85
808.081	276.13
808.26	235.18
808.439	235.18
808.619	200.36
808.798	208.55
808.977	229.03
809.156	272.04
809.336	247.46
809.515	261.8
809.694	179.88
809.873	204.46
810.052	206.5
810.231	249.51
810.411	206.5
810.59	206.5
810.769	247.46
810.948	222.89
811.127	157.35
811.306	239.27
811.485	212.65
811.664	233.13
811.843	274.09
812.022	188.07
812.201	200.36
812.38	220.84
812.559	188.07
812.737	241.32
812.916	167.59
813.095	222.89
813.274	165.54
813.453	136.87
813.632	204.46
813.811	235.18
813.989	214.7
814.168	259.75
814.347	190.12
814.526	194.22
814.704	145.06
814.883	216.74
815.062	208.55
815.24	192.17
815.419	196.26
815.598	186.02
815.776	130.73
815.955	192.17
816.133	159.4
816.312	212.65
816.49	192.17
816.669	177.83
816.847	192.17
817.026	126.63
817.204	249.51
817.383	183.98
817.561	198.31
817.74	157.35
817.918	274.09
818.097	235.18
818.275	181.93
818.453	167.59
818.632	198.31
818.81	235.18
818.988	222.89
819.167	122.54
819.345	124.58
819.523	153.26
819.701	108.2
819.879	196.26
820.058	136.87
820.236	130.73
820.414	134.82
820.592	198.31
820.77	132.78
820.948	143.02
821.127	245.41
821.305	153.26
821.483	136.87
821.661	126.63
821.839	147.11
822.017	179.88
822.195	183.98
822.373	171.69
822.551	128.68
822.729	151.21
822.907	130.73
823.085	77.48
823.262	237.22
823.44	171.69
823.618	218.79
823.796	155.3
823.974	132.78
824.152	106.15
824.329	171.69
824.507	167.59
824.685	175.78
824.863	128.68
825.04	89.77
825.218	65.19
825.396	157.35
825.574	126.63
825.751	116.39
825.929	145.06
826.107	122.54
826.284	192.17
826.462	116.39
826.639	118.44
826.817	97.96
826.994	147.11
827.172	69.29
827.349	167.59
827.527	163.5
827.704	169.64
827.882	226.98
828.059	120.49
828.237	145.06
828.414	100.01
828.591	18.09
828.769	140.97
828.946	130.73
829.124	218.79
829.301	192.17
829.478	95.91
829.655	147.11
829.833	44.71
830.01	120.49
830.187	116.39
830.364	138.92
830.542	85.67
830.719	204.46
830.896	106.15
831.073	143.02
831.25	161.45
831.427	171.69
831.604	126.63
831.782	134.82
831.959	100.01
832.136	104.11
832.313	140.97
832.49	91.82
832.667	143.02
832.844	52.91
833.021	126.63
833.198	186.02
833.374	50.86
833.551	118.44
833.728	114.34
833.905	200.36
834.082	136.87
834.259	126.63
834.436	122.54
834.612	206.5
834.789	73.39
834.966	89.77
835.143	61.1
835.319	173.74
835.496	73.39
835.673	132.78
835.85	149.16
836.026	134.82
836.203	102.06
836.38	124.58
836.556	128.68
836.733	102.06
836.909	28.33
837.086	102.06
837.262	67.24
837.439	75.43
837.616	116.39
837.792	122.54
837.968	73.39
838.145	79.53
838.321	24.23
838.498	71.34
838.674	112.3
838.851	151.21
839.027	48.81
839.203	69.29
839.38	63.15
839.556	110.25
839.732	97.96
839.909	104.11
840.085	104.11
840.261	120.49
840.437	114.34
840.614	46.76
840.79	112.3
840.966	140.97
841.142	118.44
841.318	57
841.494	73.39
841.671	114.34
841.847	93.87
842.023	26.28
842.199	95.91
842.375	155.3
842.551	24.23
842.727	26.28
842.903	79.53
843.079	48.81
843.255	100.01
843.431	20.14
843.607	34.47
843.783	87.72
843.959	20.14
844.134	79.53
844.31	143.02
844.486	157.35
844.662	65.19
844.838	38.57
845.013	112.3
845.189	97.96
845.365	128.68
845.541	61.1
845.716	75.43
845.892	155.3
846.068	65.19
846.244	54.95
846.419	71.34
846.595	114.34
846.77	122.54
846.946	95.91
847.122	57
847.297	28.33
847.473	106.15
847.648	50.86
847.824	52.91
847.999	9.9
848.175	134.82
848.35	63.15
848.526	112.3
848.701	79.53
848.876	89.77
849.052	110.25
849.227	108.2
849.403	16.04
849.578	114.34
849.753	63.15
849.929	61.1
850.104	38.57
850.279	71.34
850.454	118.44
850.63	63.15
850.805	73.39
850.98	20.14
851.155	38.57
851.33	108.2
851.505	69.29
851.681	118.44
851.856	91.82
852.031	138.92
852.206	-10.58
852.381	54.95
852.556	69.29
852.731	77.48
852.906	102.06
853.081	52.91
853.256	73.39
853.431	-63.83
853.606	67.24
853.781	65.19
853.956	120.49
854.131	69.29
854.305	54.95
854.48	22.19
854.655	20.14
854.83	40.62
855.005	81.58
855.18	26.28
855.354	83.63
855.529	85.67
855.704	-29.01
855.879	114.34
856.053	13.99
856.228	151.21
856.403	-14.68
856.577	120.49
856.752	46.76
856.926	36.52
857.101	30.38
857.276	104.11
857.45	52.91
857.625	71.34
857.799	57
857.974	79.53
858.148	-18.77
858.323	40.62
858.497	81.58
858.672	54.95
858.846	48.81
859.02	128.68
859.195	20.14
859.369	65.19
859.543	18.09
859.718	63.15
859.892	28.33
860.066	40.62
860.241	97.96
860.415	22.19
860.589	-16.73
860.763	38.57
860.938	52.91
861.112	116.39
861.286	81.58
861.46	24.23
861.634	50.86
861.808	104.11
861.982	5.8
862.157	-2.39
862.331	73.39
862.505	59.05
862.679	46.76
862.853	44.71
863.027	48.81
863.201	7.85
863.375	46.76
863.549	-0.34
863.722	67.24
863.896	104.11
864.07	-33.11
864.244	50.86
864.418	-0.34
864.592	42.67
864.766	-2.39
864.939	61.1
865.113	11.95
865.287	40.62
865.461	-4.44
865.634	114.34
865.808	71.34
865.982	44.71
866.156	20.14
866.329	26.28
866.503	75.43
866.676	61.1
866.85	18.09
867.024	-16.73
867.197	75.43
867.371	110.25
867.544	-33.11
867.718	-8.53
867.891	48.81
868.065	110.25
868.238	71.34
868.412	120.49
868.585	57
868.759	57
868.932	63.15
869.105	52.91
869.279	-45.4
869.452	61.1
869.625	30.38
869.799	87.72
869.972	11.95
870.145	7.85
870.319	110.25
870.492	63.15
870.665	36.52
870.838	-90.45
871.011	52.91
871.185	69.29
871.358	57
871.531	32.43
871.704	34.47
871.877	124.58
872.05	34.47
872.223	32.43
872.396	-16.73
872.569	69.29
872.742	24.23
872.915	11.95
873.088	54.95
873.261	24.23
873.434	-4.44
873.607	63.15
873.78	87.72
873.953	75.43
874.126	-10.58
874.299	52.91
874.471	63.15
874.644	30.38
874.817	11.95
874.99	59.05
875.163	-22.87
875.335	7.85
875.508	57
875.681	69.29
875.853	48.81
876.026	63.15
876.199	108.2
876.371	97.96
876.544	11.95
876.717	20.14
876.889	26.28
877.062	38.57
877.234	-12.63
877.407	54.95
877.579	54.95
877.752	11.95
877.924	110.25
878.097	30.38
878.269	13.99
878.442	5.8
878.614	30.38
878.786	36.52
878.959	9.9
879.131	112.3
879.303	-18.77
879.476	11.95
879.648	-4.44
879.82	50.86
879.993	-4.44
880.165	11.95
880.337	5.8
880.509	65.19
880.681	44.71
880.854	42.67
881.026	59.05
881.198	73.39
881.37	26.28
881.542	54.95
881.714	59.05
881.886	9.9
882.058	48.81
882.23	20.14
882.402	28.33
882.574	7.85
882.746	20.14
882.918	13.99
883.09	50.86
883.262	59.05
883.434	-53.59
883.606	1.71
883.778	5.8
883.95	11.95
884.122	-24.92
884.293	24.23
884.465	83.63
884.637	59.05
884.809	-41.3
884.98	44.71
885.152	97.96
885.324	57
885.496	16.04
885.667	-6.49
885.839	59.05
886.011	67.24
886.182	40.62
886.354	104.11
886.525	59.05
886.697	48.81
886.869	54.95
887.04	-18.77
887.212	36.52
887.383	118.44
887.555	-8.53
887.726	110.25
887.897	69.29
888.069	13.99
888.24	130.73
888.412	-6.49
888.583	26.28
888.754	32.43
888.926	5.8
889.097	20.14
889.268	11.95
889.44	-4.44
889.611	16.04
889.782	104.11
889.953	-12.63
890.125	-6.49
890.296	34.47
890.467	-4.44
890.638	-24.92
890.809	30.38
890.98	26.28
891.151	61.1
891.323	42.67
891.494	40.62
891.665	-6.49
891.836	-6.49
892.007	20.14
892.178	-2.39
892.349	22.19
892.52	30.38
892.691	-2.39
892.862	44.71
893.032	48.81
893.203	-22.87
893.374	52.91
893.545	102.06
893.716	16.04
893.887	40.62
894.057	-4.44
894.228	61.1
894.399	34.47
894.57	20.14
894.74	63.15
894.911	122.54
895.082	5.8
895.253	3.75
895.423	28.33
895.594	85.67
895.764	40.62
895.935	36.52
896.106	13.99
896.276	91.82
896.447	85.67
896.617	-12.63
896.788	59.05
896.958	79.53
897.129	16.04
897.299	-55.64
897.47	18.09
897.64	40.62
897.81	67.24
897.981	36.52
898.151	22.19
898.322	52.91
898.492	67.24
898.662	40.62
898.832	18.09
899.003	63.15
899.173	61.1
899.343	40.62
899.513	-20.82
