Data from USB4F104151__5__11-51-03-851.txt Node

Date: Fri Mar 14 11:51:03 EDT 2025
User: louis
Spectrometer: USB4F10415
Trigger mode: 4
Integration Time (sec): 2.000000E-2
Scans to average: 1
Electric dark correction enabled: true
Nonlinearity correction enabled: false
Boxcar width: 0
XAxis mode: Wavelengths
Number of Pixels in Spectrum: 3648
>>>>>Begin Spectral Data<<<<<
178.204	-132.95
178.424	-132.95
178.644	-132.95
178.864	-91.99
179.084	-32.6
179.304	30.89
179.524	14.51
179.744	-14.17
179.964	6.31
180.184	8.36
180.404	16.55
180.624	-34.64
180.844	12.46
181.064	-67.41
181.283	30.89
181.503	-1.88
181.723	-1.88
181.943	-34.64
182.163	30.89
182.383	45.23
182.602	20.65
182.822	-3.93
183.042	34.99
183.262	71.85
183.482	-26.45
183.701	-73.56
183.921	-46.93
184.141	-24.4
184.361	41.13
184.58	45.23
184.8	16.55
185.02	-38.74
185.239	6.31
185.459	-18.26
185.679	0.17
185.898	2.22
186.118	39.08
186.338	32.94
186.557	69.8
186.777	0.17
186.997	0.17
187.216	55.47
187.436	34.99
187.655	30.89
187.875	45.23
188.095	-14.17
188.314	69.8
188.534	-16.21
188.753	20.65
188.973	63.66
189.192	90.28
189.412	65.71
189.631	14.51
189.851	32.94
190.07	57.51
190.29	-12.12
190.509	-10.07
190.729	-57.17
190.948	16.55
191.168	90.28
191.387	4.27
191.607	20.65
191.826	49.32
192.045	71.85
192.265	80.04
192.484	45.23
192.704	-59.22
192.923	10.41
193.142	43.18
193.362	49.32
193.581	41.13
193.8	26.79
194.02	-42.84
194.239	28.84
194.458	24.75
194.678	-16.21
194.897	-10.07
195.116	57.51
195.335	-36.69
195.555	16.55
195.774	22.7
195.993	-44.88
196.212	0.17
196.432	-30.55
196.651	47.27
196.87	-59.22
197.089	51.37
197.308	26.79
197.528	14.51
197.747	-108.37
197.966	20.65
198.185	6.31
198.404	16.55
198.623	-42.84
198.842	34.99
199.062	-3.93
199.281	10.41
199.5	-36.69
199.719	45.23
199.938	49.32
200.157	71.85
200.376	43.18
200.595	18.6
200.814	82.09
201.033	-5.97
201.252	-85.84
201.471	4.27
201.69	8.36
201.909	-18.26
202.128	-8.02
202.347	14.51
202.566	6.31
202.785	49.32
203.004	-28.5
203.223	14.51
203.442	49.32
203.661	26.79
203.879	63.66
204.098	18.6
204.317	30.89
204.536	6.31
204.755	92.33
204.974	41.13
205.193	51.37
205.411	69.8
205.63	49.32
205.849	41.13
206.068	-24.4
206.287	-1.88
206.505	34.99
206.724	-73.56
206.943	-12.12
207.162	24.75
207.381	63.66
207.599	-24.4
207.818	8.36
208.037	47.27
208.255	80.04
208.474	53.42
208.693	43.18
208.911	-12.12
209.13	41.13
209.349	-8.02
209.567	-1.88
209.786	69.8
210.005	20.65
210.223	47.27
210.442	-40.79
210.661	-3.93
210.879	20.65
211.098	-36.69
211.316	-44.88
211.535	-67.41
211.753	-8.02
211.972	41.13
212.191	-51.03
212.409	16.55
212.628	53.42
212.846	34.99
213.065	-57.17
213.283	47.27
213.502	14.51
213.72	63.66
213.938	12.46
214.157	6.31
214.375	4.27
214.594	-1.88
214.812	45.23
215.031	-10.07
215.249	32.94
215.467	34.99
215.686	55.47
215.904	-26.45
216.122	45.23
216.341	2.22
216.559	18.6
216.778	75.95
216.996	24.75
217.214	26.79
217.432	34.99
217.651	-48.98
217.869	2.22
218.087	34.99
218.306	116.9
218.524	61.61
218.742	22.7
218.96	0.17
219.179	45.23
219.397	-8.02
219.615	63.66
219.833	116.9
220.051	-44.88
220.27	39.08
220.488	69.8
220.706	65.71
220.924	6.31
221.142	53.42
221.36	2.22
221.578	53.42
221.796	0.17
222.015	14.51
222.233	92.33
222.451	16.55
222.669	22.7
222.887	-14.17
223.105	12.46
223.323	8.36
223.541	-8.02
223.759	75.95
223.977	14.51
224.195	59.56
224.413	16.55
224.631	0.17
224.849	20.65
225.067	94.38
225.285	57.51
225.503	49.32
225.721	57.51
225.939	2.22
226.157	12.46
226.375	65.71
226.592	22.7
226.81	-3.93
227.028	6.31
227.246	47.27
227.464	-20.31
227.682	32.94
227.9	49.32
228.117	-20.31
228.335	69.8
228.553	4.27
228.771	-12.12
228.989	37.03
229.206	-26.45
229.424	4.27
229.642	-28.5
229.86	8.36
230.077	-20.31
230.295	22.7
230.513	6.31
230.731	30.89
230.948	37.03
231.166	65.71
231.384	18.6
231.601	22.7
231.819	34.99
232.037	-16.21
232.254	53.42
232.472	41.13
232.689	-22.36
232.907	8.36
233.125	41.13
233.342	-34.64
233.56	-22.36
233.777	39.08
233.995	8.36
234.213	39.08
234.43	71.85
234.648	0.17
234.865	-12.12
235.083	75.95
235.3	-10.07
235.518	39.08
235.735	0.17
235.953	82.09
236.17	-8.02
236.388	4.27
236.605	30.89
236.822	10.41
237.04	-44.88
237.257	63.66
237.475	12.46
237.692	10.41
237.909	37.03
238.127	-36.69
238.344	4.27
238.562	-38.74
238.779	32.94
238.996	32.94
239.214	82.09
239.431	53.42
239.648	8.36
239.865	22.7
240.083	30.89
240.3	6.31
240.517	53.42
240.735	41.13
240.952	10.41
241.169	24.75
241.386	34.99
241.603	86.19
241.821	37.03
242.038	2.22
242.255	47.27
242.472	-48.98
242.689	2.22
242.907	45.23
243.124	14.51
243.341	-5.97
243.558	59.56
243.775	24.75
243.992	18.6
244.209	84.14
244.426	10.41
244.643	14.51
244.86	8.36
245.078	14.51
245.295	49.32
245.512	10.41
245.729	-89.94
245.946	39.08
246.163	-18.26
246.38	-1.88
246.597	-12.12
246.814	6.31
247.031	94.38
247.248	-30.55
247.464	6.31
247.681	18.6
247.898	65.71
248.115	18.6
248.332	-26.45
248.549	82.09
248.766	116.9
248.983	37.03
249.2	49.32
249.417	63.66
249.633	0.17
249.85	26.79
250.067	-1.88
250.284	49.32
250.501	-8.02
250.717	69.8
250.934	-10.07
251.151	-38.74
251.368	-12.12
251.585	-14.17
251.801	-30.55
252.018	24.75
252.235	22.7
252.451	114.86
252.668	30.89
252.885	45.23
253.102	47.27
253.318	-38.74
253.535	26.79
253.752	41.13
253.968	10.41
254.185	-1.88
254.401	28.84
254.618	-30.55
254.835	37.03
255.051	127.14
255.268	-14.17
255.484	88.23
255.701	14.51
255.917	88.23
256.134	12.46
256.351	30.89
256.567	-63.32
256.784	34.99
257	22.7
257.217	43.18
257.433	6.31
257.65	22.7
257.866	41.13
258.082	32.94
258.299	-12.12
258.515	-14.17
258.732	14.51
258.948	-3.93
259.165	-16.21
259.381	26.79
259.597	39.08
259.814	-10.07
260.03	63.66
260.246	-83.8
260.463	34.99
260.679	51.37
260.895	-32.6
261.112	4.27
261.328	55.47
261.544	-16.21
261.761	20.65
261.977	86.19
262.193	-8.02
262.409	75.95
262.626	61.61
262.842	61.61
263.058	-22.36
263.274	-26.45
263.49	57.51
263.707	43.18
263.923	-8.02
264.139	-61.27
264.355	-34.64
264.571	104.62
264.787	49.32
265.004	22.7
265.22	0.17
265.436	-8.02
265.652	-44.88
265.868	20.65
266.084	43.18
266.3	75.95
266.516	4.27
266.732	-10.07
266.948	59.56
267.164	18.6
267.38	28.84
267.596	24.75
267.812	0.17
268.028	118.95
268.244	-8.02
268.46	-69.46
268.676	32.94
268.892	0.17
269.108	43.18
269.324	41.13
269.54	22.7
269.756	102.57
269.972	-18.26
270.188	47.27
270.403	47.27
270.619	67.75
270.835	10.41
271.051	84.14
271.267	-18.26
271.483	16.55
271.698	53.42
271.914	123.05
272.13	4.27
272.346	-14.17
272.562	-5.97
272.777	39.08
272.993	-40.79
273.209	-44.88
273.425	59.56
273.64	-57.17
273.856	45.23
274.072	2.22
274.287	-40.79
274.503	110.76
274.719	32.94
274.934	24.75
275.15	63.66
275.366	-34.64
275.581	6.31
275.797	43.18
276.012	-22.36
276.228	16.55
276.444	26.79
276.659	41.13
276.875	-10.07
277.09	14.51
277.306	4.27
277.521	-16.21
277.737	49.32
277.952	-10.07
278.168	-22.36
278.383	28.84
278.599	73.9
278.814	71.85
279.03	28.84
279.245	67.75
279.461	4.27
279.676	63.66
279.892	39.08
280.107	-1.88
280.322	-69.46
280.538	-14.17
280.753	47.27
280.969	34.99
281.184	6.31
281.399	-40.79
281.615	16.55
281.83	-26.45
282.045	-40.79
282.26	63.66
282.476	41.13
282.691	32.94
282.906	34.99
283.122	6.31
283.337	-14.17
283.552	57.51
283.767	10.41
283.983	57.51
284.198	73.9
284.413	53.42
284.628	-40.79
284.843	98.47
285.058	41.13
285.274	26.79
285.489	-36.69
285.704	20.65
285.919	16.55
286.134	34.99
286.349	41.13
286.564	-30.55
286.779	102.57
286.995	8.36
287.21	10.41
287.425	73.9
287.64	75.95
287.855	61.61
288.07	26.79
288.285	2.22
288.5	41.13
288.715	51.37
288.93	18.6
289.145	16.55
289.36	22.7
289.575	37.03
289.79	65.71
290.004	51.37
290.219	10.41
290.434	34.99
290.649	-61.27
290.864	22.7
291.079	24.75
291.294	51.37
291.509	16.55
291.724	53.42
291.938	63.66
292.153	32.94
292.368	-40.79
292.583	32.94
292.798	57.51
293.012	82.09
293.227	41.13
293.442	18.6
293.657	20.65
293.871	45.23
294.086	-18.26
294.301	45.23
294.516	47.27
294.73	28.84
294.945	37.03
295.16	34.99
295.374	49.32
295.589	-5.97
295.804	-14.17
296.018	55.47
296.233	12.46
296.447	-26.45
296.662	41.13
296.877	55.47
297.091	41.13
297.306	61.61
297.52	53.42
297.735	12.46
297.949	20.65
298.164	16.55
298.378	82.09
298.593	51.37
298.807	-1.88
299.022	18.6
299.236	92.33
299.451	10.41
299.665	-5.97
299.88	6.31
300.094	-5.97
300.309	71.85
300.523	34.99
300.737	-24.4
300.952	55.47
301.166	-28.5
301.381	-26.45
301.595	0.17
301.809	63.66
302.024	22.7
302.238	37.03
302.452	53.42
302.667	53.42
302.881	51.37
303.095	90.28
303.309	39.08
303.524	51.37
303.738	41.13
303.952	-42.84
304.166	49.32
304.381	22.7
304.595	65.71
304.809	26.79
305.023	4.27
305.237	18.6
305.452	-8.02
305.666	-14.17
305.88	10.41
306.094	-14.17
306.308	16.55
306.522	10.41
306.736	-10.07
306.95	16.55
307.164	69.8
307.379	-12.12
307.593	77.99
307.807	28.84
308.021	32.94
308.235	30.89
308.449	57.51
308.663	37.03
308.877	71.85
309.091	22.7
309.305	69.8
309.519	-20.31
309.733	-46.93
309.947	-40.79
310.161	88.23
310.374	65.71
310.588	-18.26
310.802	-5.97
311.016	-44.88
311.23	-8.02
311.444	-16.21
311.658	55.47
311.872	69.8
312.085	12.46
312.299	24.75
312.513	24.75
312.727	53.42
312.941	-20.31
313.154	90.28
313.368	-18.26
313.582	32.94
313.796	32.94
314.009	16.55
314.223	75.95
314.437	-12.12
314.651	-8.02
314.864	12.46
315.078	37.03
315.292	26.79
315.505	90.28
315.719	41.13
315.933	22.7
316.146	43.18
316.36	-26.45
316.573	63.66
316.787	8.36
317.001	24.75
317.214	26.79
317.428	43.18
317.641	39.08
317.855	37.03
318.068	-5.97
318.282	61.61
318.495	51.37
318.709	-16.21
318.922	73.9
319.136	86.19
319.349	90.28
319.563	28.84
319.776	26.79
319.99	4.27
320.203	82.09
320.417	34.99
320.63	45.23
320.843	118.95
321.057	37.03
321.27	6.31
321.483	24.75
321.697	71.85
321.91	0.17
322.124	49.32
322.337	57.51
322.55	-38.74
322.763	6.31
322.977	30.89
323.19	2.22
323.403	57.51
323.617	90.28
323.83	102.57
324.043	-32.6
324.256	63.66
324.469	14.51
324.683	-3.93
324.896	75.95
325.109	37.03
325.322	-20.31
325.535	116.9
325.748	45.23
325.962	43.18
326.175	61.61
326.388	45.23
326.601	47.27
326.814	34.99
327.027	92.33
327.24	47.27
327.453	-8.02
327.666	41.13
327.879	57.51
328.092	-3.93
328.305	22.7
328.518	32.94
328.731	-34.64
328.944	53.42
329.157	88.23
329.37	34.99
329.583	53.42
329.796	12.46
330.009	45.23
330.222	59.56
330.435	18.6
330.648	41.13
330.861	8.36
331.073	0.17
331.286	28.84
331.499	22.7
331.712	8.36
331.925	41.13
332.138	-14.17
332.35	37.03
332.563	-44.88
332.776	49.32
332.989	14.51
333.202	45.23
333.414	65.71
333.627	41.13
333.84	32.94
334.053	92.33
334.265	2.22
334.478	65.71
334.691	-16.21
334.903	55.47
335.116	39.08
335.329	57.51
335.541	8.36
335.754	57.51
335.966	26.79
336.179	65.71
336.392	0.17
336.604	24.75
336.817	90.28
337.029	16.55
337.242	-20.31
337.454	71.85
337.667	-14.17
337.88	53.42
338.092	10.41
338.305	26.79
338.517	26.79
338.729	55.47
338.942	37.03
339.154	22.7
339.367	94.38
339.579	22.7
339.792	-8.02
340.004	49.32
340.217	10.41
340.429	-16.21
340.641	2.22
340.854	57.51
341.066	32.94
341.278	51.37
341.491	26.79
341.703	6.31
341.915	0.17
342.128	32.94
342.34	4.27
342.552	6.31
342.764	86.19
342.977	116.9
343.189	24.75
343.401	82.09
343.613	-65.36
343.826	-16.21
344.038	73.9
344.25	84.14
344.462	-32.6
344.674	57.51
344.886	28.84
345.099	34.99
345.311	-3.93
345.523	63.66
345.735	18.6
345.947	69.8
346.159	34.99
346.371	49.32
346.583	10.41
346.795	61.61
347.007	49.32
347.219	112.81
347.431	12.46
347.643	12.46
347.855	71.85
348.067	49.32
348.279	4.27
348.491	37.03
348.703	0.17
348.915	34.99
349.127	30.89
349.339	51.37
349.551	67.75
349.763	-5.97
349.975	47.27
350.187	30.89
350.399	34.99
350.61	-55.12
350.822	51.37
351.034	6.31
351.246	8.36
351.458	18.6
351.669	51.37
351.881	-32.6
352.093	67.75
352.305	65.71
352.517	51.37
352.728	71.85
352.94	16.55
353.152	22.7
353.363	-36.69
353.575	22.7
353.787	86.19
353.999	125.1
354.21	86.19
354.422	26.79
354.633	-32.6
354.845	-10.07
355.057	6.31
355.268	51.37
355.48	18.6
355.692	14.51
355.903	45.23
356.115	20.65
356.326	22.7
356.538	94.38
356.749	26.79
356.961	-1.88
357.172	53.42
357.384	26.79
357.595	92.33
357.807	37.03
358.018	16.55
358.23	22.7
358.441	59.56
358.653	59.56
358.864	0.17
359.075	0.17
359.287	-14.17
359.498	75.95
359.709	-44.88
359.921	24.75
360.132	2.22
360.344	30.89
360.555	71.85
360.766	-8.02
360.977	45.23
361.189	61.61
361.4	-38.74
361.611	104.62
361.823	59.56
362.034	-18.26
362.245	-14.17
362.456	55.47
362.667	43.18
362.879	22.7
363.09	30.89
363.301	30.89
363.512	61.61
363.723	121
363.935	45.23
364.146	28.84
364.357	10.41
364.568	32.94
364.779	-38.74
364.99	12.46
365.201	-20.31
365.412	22.7
365.623	-28.5
365.834	47.27
366.045	10.41
366.256	16.55
366.467	-38.74
366.678	30.89
366.889	10.41
367.1	65.71
367.311	34.99
367.522	-24.4
367.733	26.79
367.944	8.36
368.155	-14.17
368.366	96.43
368.577	10.41
368.788	77.99
368.999	28.84
369.209	20.65
369.42	94.38
369.631	114.86
369.842	59.56
370.053	86.19
370.264	69.8
370.474	-42.84
370.685	41.13
370.896	18.6
371.107	61.61
371.317	24.75
371.528	90.28
371.739	75.95
371.95	37.03
372.16	-40.79
372.371	41.13
372.582	32.94
372.792	6.31
373.003	61.61
373.214	65.71
373.424	88.23
373.635	-12.12
373.846	84.14
374.056	0.17
374.267	16.55
374.477	43.18
374.688	-38.74
374.898	82.09
375.109	26.79
375.319	69.8
375.53	110.76
375.74	10.41
375.951	22.7
376.161	8.36
376.372	30.89
376.582	82.09
376.793	10.41
377.003	34.99
377.214	55.47
377.424	39.08
377.635	67.75
377.845	32.94
378.055	55.47
378.266	-14.17
378.476	-14.17
378.686	-22.36
378.897	57.51
379.107	-8.02
379.317	71.85
379.528	-26.45
379.738	102.57
379.948	20.65
380.158	80.04
380.369	-8.02
380.579	30.89
380.789	57.51
380.999	-20.31
381.21	61.61
381.42	53.42
381.63	0.17
381.84	57.51
382.05	-26.45
382.261	80.04
382.471	4.27
382.681	86.19
382.891	26.79
383.101	98.47
383.311	12.46
383.521	43.18
383.731	26.79
383.941	22.7
384.151	71.85
384.361	-24.4
384.571	16.55
384.781	41.13
384.991	69.8
385.201	32.94
385.411	118.95
385.621	37.03
385.831	8.36
386.041	67.75
386.251	84.14
386.461	24.75
386.671	24.75
386.881	30.89
387.091	-40.79
387.301	61.61
387.511	49.32
387.72	112.81
387.93	102.57
388.14	-5.97
388.35	49.32
388.56	55.47
388.769	63.66
388.979	59.56
389.189	32.94
389.399	0.17
389.609	127.14
389.818	116.9
390.028	26.79
390.238	94.38
390.447	28.84
390.657	45.23
390.867	53.42
391.076	82.09
391.286	108.71
391.496	118.95
391.705	61.61
391.915	55.47
392.125	100.52
392.334	51.37
392.544	131.24
392.753	-10.07
392.963	43.18
393.172	2.22
393.382	49.32
393.591	82.09
393.801	104.62
394.01	125.1
394.22	110.76
394.429	96.43
394.639	86.19
394.848	112.81
395.058	51.37
395.267	63.66
395.477	104.62
395.686	125.1
395.895	8.36
396.105	98.47
396.314	61.61
396.524	73.9
396.733	77.99
396.942	114.86
397.152	65.71
397.361	112.81
397.57	94.38
397.78	118.95
397.989	88.23
398.198	127.14
398.407	59.56
398.617	88.23
398.826	47.27
399.035	92.33
399.244	98.47
399.453	125.1
399.663	80.04
399.872	84.14
400.081	88.23
400.29	127.14
400.499	37.03
400.708	90.28
400.917	75.95
401.127	80.04
401.336	80.04
401.545	82.09
401.754	125.1
401.963	92.33
402.172	45.23
402.381	100.52
402.59	155.82
402.799	123.05
403.008	147.62
403.217	127.14
403.426	164.01
403.635	49.32
403.844	88.23
404.053	106.67
404.262	123.05
404.471	139.43
404.68	143.53
404.888	98.47
405.097	145.58
405.306	174.25
405.515	127.14
405.724	129.19
405.933	112.81
406.142	139.43
406.35	168.1
406.559	123.05
406.768	198.82
406.977	276.65
407.185	180.39
407.394	137.38
407.603	141.48
407.812	186.54
408.02	213.16
408.229	252.07
408.438	155.82
408.646	207.02
408.855	264.36
409.064	233.64
409.272	155.82
409.481	270.5
409.69	196.78
409.898	247.97
410.107	274.6
410.315	278.69
410.524	250.02
410.733	233.64
410.941	329.89
411.15	327.85
411.358	293.03
411.567	403.62
411.775	352.42
411.984	344.23
412.192	372.9
412.401	387.24
412.609	415.91
412.818	389.28
413.026	393.38
413.234	385.19
413.443	487.59
413.651	403.62
413.86	366.76
414.068	471.2
414.276	520.35
414.485	491.68
414.693	542.88
414.901	624.8
415.11	561.31
415.318	540.83
415.526	614.56
415.734	606.37
415.943	753.82
416.151	819.36
416.359	651.42
416.567	716.96
416.776	676
416.984	802.97
417.192	868.51
417.4	729.25
417.608	925.85
417.817	854.17
418.025	907.42
418.233	915.61
418.441	944.28
418.649	979.1
418.857	1089.69
419.065	1173.66
419.273	1190.04
419.481	1110.17
419.689	1161.37
419.897	1245.34
420.105	1204.38
420.313	1274.01
420.521	1333.4
420.729	1341.59
420.937	1343.64
421.145	1493.14
421.353	1476.76
421.561	1691.79
421.769	1732.75
421.977	1722.51
422.185	1681.55
422.393	1816.72
422.601	1845.39
422.809	1841.29
423.017	1872.01
423.224	2097.29
423.432	2150.54
423.64	2113.67
423.848	2396.29
424.056	2199.69
424.263	2242.7
424.471	2386.05
424.679	2472.07
424.887	2629.76
425.094	2719.87
425.302	2707.59
425.51	2697.35
425.718	2906.24
425.925	2769.02
426.133	2998.4
426.341	3145.85
426.548	3209.34
426.756	3274.87
426.964	3575.92
427.171	3391.61
427.379	3559.54
427.586	3606.64
427.794	3727.47
428.001	4098.16
428.209	4145.26
428.417	3897.46
428.624	4341.86
428.832	4274.28
429.039	4296.81
429.247	4434.02
429.454	4829.28
429.662	5040.22
429.869	4823.14
430.076	5091.42
430.284	4980.83
430.491	5210.2
430.699	5320.79
430.906	5433.43
431.114	5611.61
431.321	5759.06
431.528	5818.45
431.736	6217.8
431.943	6432.84
432.15	6258.76
432.358	6488.14
432.565	6711.36
432.772	6674.5
432.979	7090.24
433.187	7239.74
433.394	7428.15
433.601	7604.28
433.808	7680.05
434.016	7551.03
434.223	7958.58
434.43	8489
434.637	8247.34
434.844	8847.4
435.052	8914.98
435.259	8951.84
435.466	8990.75
435.673	8851.49
435.88	9525.27
436.087	10041.36
436.294	10139.66
436.501	9656.34
436.708	10014.74
436.915	10291.21
437.122	10737.67
437.329	10362.89
437.537	11022.34
437.743	11317.25
437.95	11268.09
438.157	11616.25
438.364	12298.22
438.571	12068.85
438.778	12048.37
438.985	13295.58
439.192	12849.13
439.399	13297.63
439.606	12994.53
439.813	13799.38
440.02	14481.36
440.227	14239.7
440.433	13987.8
440.64	14553.04
440.847	14329.81
441.054	14964.68
441.261	15947.7
441.467	15595.45
441.674	15839.16
441.881	16707.5
442.088	16478.13
442.294	16197.56
442.501	16748.46
442.708	17084.33
442.914	17770.4
443.121	18659.21
443.328	18251.67
443.534	19263.36
443.741	18507.66
443.948	18487.18
444.154	19832.7
444.361	19763.07
444.568	19902.33
444.774	19898.24
444.981	20121.46
445.187	20817.77
445.394	21544.8
445.6	21413.73
445.807	23318.34
446.013	22335.32
446.22	22527.83
446.426	23658.31
446.633	23963.45
446.839	24614.71
447.046	23633.73
447.252	25014.06
447.459	24950.57
447.665	24784.69
447.871	25988.89
448.078	27131.66
448.284	25681.7
448.491	26476.31
448.697	27504.39
448.903	27911.94
449.11	28163.84
449.316	27195.15
449.522	28524.28
449.728	28909.3
449.935	28919.54
450.141	29196.01
450.347	29931.23
450.553	28651.25
450.76	29114.09
450.966	30189.28
451.172	29544.17
451.378	30465.75
451.584	29894.37
451.791	30701.27
451.997	30600.92
452.203	31243.98
452.409	30969.55
452.615	31047.38
452.821	29689.57
453.027	29855.46
453.233	31348.43
453.44	29800.16
453.646	30154.46
453.852	29976.29
454.058	30805.72
454.264	29658.85
454.47	30469.85
454.676	29748.96
454.882	30910.16
455.088	28086.01
455.294	28555
455.5	28980.98
455.705	28985.07
455.911	27977.47
456.117	27442.95
456.323	27459.34
456.529	25487.14
456.735	26933.01
456.941	26294.04
457.147	25835.3
457.352	24983.34
457.558	24471.35
457.764	24670
457.97	24299.32
458.176	24088.38
458.381	23813.95
458.587	22679.38
458.793	22460.24
458.999	21489.51
459.204	23074.63
459.41	22204.25
459.616	21333.86
459.821	20684.66
460.027	20750.19
460.233	20262.77
460.438	19601.28
460.644	19560.32
460.85	18775.95
461.055	18681.74
461.261	18560.91
461.466	17242.02
461.672	16621.49
461.878	17760.16
462.083	16408.5
462.289	16209.84
462.494	16048.05
462.7	15149
462.905	14989.25
463.111	15562.69
463.316	15568.83
463.522	15046.6
463.727	15099.84
463.932	15179.72
464.138	15067.08
464.343	14942.15
464.549	14559.18
464.754	15013.83
464.959	14886.86
465.165	14903.24
465.37	14284.75
465.575	13899.73
465.781	14297.04
465.986	14571.47
466.191	14157.78
466.397	13615.07
466.602	12869.61
466.807	13367.26
467.012	13617.11
467.218	13467.61
467.423	13047.78
467.628	13522.91
467.833	13826.01
468.038	13281.25
468.244	13066.21
468.449	13549.53
468.654	13019.11
468.859	13058.02
469.064	12883.94
469.269	12505.07
469.474	12462.06
469.679	12500.97
469.885	12226.54
470.09	12693.48
470.295	12412.91
470.5	12335.09
470.705	12402.67
470.91	11952.12
471.115	11765.75
471.32	11759.61
471.525	11945.97
471.73	11720.7
471.935	11790.33
472.139	11288.57
472.344	11317.25
472.549	11288.57
472.754	11198.46
472.959	11026.43
473.164	10825.73
473.369	10467.34
473.574	10782.73
473.778	10811.4
473.983	10653.7
474.188	10788.87
474.393	10074.13
474.598	10315.79
474.802	10168.34
475.007	10051.6
475.212	10045.46
475.417	9531.42
475.621	9734.17
475.826	9820.18
476.031	9525.27
476.235	9390.11
476.44	9611.29
476.645	9234.46
476.849	9484.31
477.054	9220.13
477.259	9095.2
477.463	9320.48
477.668	8884.26
477.872	9074.72
478.077	8894.5
478.282	8699.94
478.486	8661.03
478.691	8357.93
478.895	8405.03
479.1	8654.89
479.304	8532.01
479.509	8171.57
479.713	8378.41
479.918	8372.27
480.122	8149.04
480.326	8249.39
480.531	8132.65
480.735	8024.11
480.94	8003.63
481.144	8130.61
481.348	7688.25
481.553	8020.02
481.757	7688.25
481.961	7804.98
482.166	8042.54
482.37	7909.43
482.574	7944.24
482.778	7739.44
482.983	7983.15
483.187	8050.74
483.391	7880.75
483.595	7847.99
483.8	7579.7
484.004	7858.23
484.208	7893.04
484.412	7954.48
484.616	7802.93
484.821	7878.71
485.025	7753.78
485.229	7960.63
485.433	7755.83
485.637	7686.2
485.841	7864.37
486.045	7735.35
486.249	7847.99
486.453	7635
486.657	7796.79
486.861	7890.99
487.065	7663.67
487.269	7792.69
487.473	7653.43
487.677	7749.68
487.881	7831.6
488.085	7727.16
488.289	7866.42
488.493	7878.71
488.697	7895.09
488.901	8079.41
489.105	7833.65
489.309	7915.57
489.512	7766.07
489.716	7983.15
489.92	8007.73
490.124	7925.81
490.328	8020.02
490.531	7913.52
490.735	7925.81
490.939	8103.98
491.143	7970.87
491.346	7811.12
491.55	8273.96
491.754	8210.48
491.958	8103.98
492.161	8245.29
492.365	8017.97
492.569	8300.59
492.772	8101.94
492.976	8335.4
493.18	8366.12
493.383	8439.85
493.587	8501.29
493.79	8656.93
493.994	8489
494.197	8620.07
494.401	8683.56
494.605	8622.12
494.808	8708.13
495.012	8927.27
495.215	8865.83
495.419	9056.29
495.622	8849.44
495.825	9068.58
496.029	9054.24
496.232	9197.6
496.436	9142.3
496.639	9230.37
496.843	9324.57
497.046	9465.88
497.249	9599
497.453	9648.15
497.656	9725.97
497.859	9795.61
498.063	9977.87
498.266	10022.93
498.469	10158.1
498.673	10186.77
498.876	10215.44
499.079	10412.04
499.282	10283.02
499.485	10618.89
499.689	10592.27
499.892	11001.86
500.095	10797.06
500.298	11184.13
500.501	11159.55
500.705	11302.91
500.908	11487.23
501.111	11743.22
501.314	11788.28
501.517	11751.42
501.72	11802.61
501.923	11857.91
502.126	12175.34
502.329	12169.2
502.532	12427.25
502.735	12627.95
502.938	12732.39
503.141	12763.11
503.344	13004.77
503.547	13039.59
503.75	13535.2
503.953	13375.45
504.156	13455.33
504.359	13627.35
504.562	13430.75
504.765	14006.23
504.968	13961.17
505.17	14374.86
505.373	14104.53
505.576	14460.88
505.779	14858.18
505.982	14671.82
506.185	14989.25
506.387	15167.43
506.59	15237.06
506.793	15390.66
506.996	15589.31
507.198	16089.01
507.401	15716.28
507.604	16123.83
507.807	16457.65
508.009	16347.06
508.212	16342.96
508.415	16639.92
508.617	17192.87
508.82	17248.16
509.022	16922.54
509.225	17158.05
509.428	17545.12
509.63	17645.47
509.833	17778.59
510.035	17952.66
510.238	17932.19
510.44	18151.32
510.643	18638.73
510.845	18532.24
511.048	18624.4
511.25	19023.75
511.453	19175.3
511.655	19881.85
511.858	19580.8
512.06	19648.38
512.262	19707.77
512.465	19861.37
512.667	20334.45
512.87	20344.69
513.072	20563.82
513.274	21307.24
513.477	20891.5
513.679	20987.75
513.881	21276.52
514.084	21794.65
514.286	21573.47
514.488	21927.77
514.69	22378.33
514.893	22517.59
515.095	22527.83
515.297	22826.83
515.499	22832.97
515.701	23041.87
515.904	23385.93
516.106	23611.2
516.308	23519.04
516.51	23709.5
516.712	23680.83
516.914	24100.67
517.116	24608.56
517.318	24549.17
517.52	24858.42
517.722	24794.93
517.925	25485.09
518.127	25628.45
518.329	25657.12
518.531	25796.39
518.733	26197.79
518.935	26050.33
519.136	26269.47
519.338	26808.08
519.54	26851.09
519.742	26814.23
519.944	27596.55
520.146	27821.83
520.348	27834.11
520.55	27563.78
520.752	28145.41
520.954	28595.96
521.155	28532.47
521.357	28696.31
521.559	29353.71
521.761	29472.49
521.963	29118.19
522.164	29554.41
522.366	29822.69
522.568	29908.71
522.77	29875.94
522.971	30746.33
523.173	30213.85
523.375	30652.12
523.576	30648.02
523.778	30959.31
523.98	31246.03
524.181	31196.88
524.383	31528.65
524.584	31844.04
524.786	31983.3
524.988	31831.75
525.189	32153.28
525.391	32548.54
525.592	32278.21
525.794	32720.57
525.995	32741.05
526.197	32974.52
526.398	32964.28
526.6	32992.95
526.801	33369.77
527.003	33402.54
527.204	33281.71
527.406	33818.28
527.607	34072.23
527.808	34209.44
528.01	33019.57
528.211	33937.06
528.412	34561.69
528.614	34422.43
528.815	34223.78
529.016	34985.62
529.218	34606.75
529.419	34707.1
529.62	34729.62
529.822	34584.22
530.023	34901.65
530.224	34809.5
530.425	35077.78
530.626	34895.51
530.828	34600.6
531.029	35952.26
531.23	35155.6
531.431	35071.64
531.632	35124.88
531.833	35481.23
532.035	35284.62
532.236	35653.26
532.437	35444.37
532.638	35387.02
532.839	35798.66
533.04	35722.89
533.241	35458.7
533.442	36337.28
533.643	35792.52
533.844	35520.14
534.045	35921.54
534.246	35479.18
534.447	35802.76
534.648	35974.79
534.849	35952.26
535.05	35722.89
535.251	35911.3
535.451	35919.49
535.652	36122.24
535.853	36032.13
536.054	36216.45
536.255	35878.54
536.456	35929.73
536.657	36404.86
536.857	35835.53
537.058	35821.19
537.259	36650.62
537.46	36060.8
537.66	36099.72
537.861	36370.05
538.062	35491.47
538.263	36189.83
538.463	35948.17
538.664	35841.67
538.865	36046.47
539.065	36322.94
539.266	35739.27
539.466	36210.31
539.667	35524.24
539.868	36413.06
540.068	36007.56
540.269	35919.49
540.469	36255.36
540.67	35939.97
540.87	36165.25
541.071	36062.85
541.271	36109.96
541.472	35978.89
541.672	36001.41
541.873	36009.61
542.073	35765.9
542.274	36288.13
542.474	35993.22
542.675	35706.51
542.875	36189.83
543.075	35931.78
543.276	35354.26
543.476	36075.14
543.676	35794.57
543.877	35903.11
544.077	35589.77
544.277	35921.54
544.478	35915.4
544.678	36075.14
544.878	36013.7
545.078	36112
545.279	35493.52
545.479	35704.46
545.679	35860.1
545.879	36198.02
546.079	35421.84
546.28	35931.78
546.48	35427.98
546.68	35432.08
546.88	35782.28
547.08	35573.39
547.28	35671.69
547.48	35624.59
547.68	35780.23
547.88	35415.69
548.081	35993.22
548.281	35620.49
548.481	35569.29
548.681	35978.89
548.881	35767.94
549.081	35765.9
549.28	35626.64
549.48	35321.49
549.68	35419.79
549.88	36329.09
550.08	35141.27
550.28	35622.54
550.48	35624.59
550.68	35821.19
550.88	35262.1
551.08	35339.92
551.279	35284.62
551.479	35196.56
551.679	35483.28
551.879	35516.04
552.079	35540.62
552.278	35514
552.478	35223.19
552.678	35251.86
552.878	35622.54
553.077	35604.11
553.277	34780.82
553.477	35514
553.676	35321.49
553.876	35733.13
554.076	35212.95
554.275	35397.26
554.475	34809.5
554.674	35151.51
554.874	35270.29
555.074	35260.05
555.273	35016.34
555.473	35397.26
555.672	34983.57
555.872	35071.64
556.071	34977.43
556.271	35237.52
556.47	34918.04
556.67	34434.72
556.869	34944.66
557.068	34813.59
557.268	34756.25
557.467	34578.08
557.667	34322.08
557.866	34649.75
558.065	34338.46
558.265	34195.1
558.464	34522.78
558.663	34956.95
558.863	34385.57
559.062	34686.62
559.261	34072.23
559.461	34758.3
559.66	34057.89
559.859	34164.39
560.058	33992.36
560.258	34111.14
560.457	33758.89
560.656	34479.77
560.855	33918.63
561.054	34008.74
561.253	33601.19
561.453	33906.34
561.652	34018.98
561.851	33865.38
562.05	33707.69
562.249	33549.99
562.448	33707.69
562.647	33285.81
562.846	33345.2
563.045	33736.36
563.244	33210.03
563.443	33380.01
563.642	33011.38
563.841	33068.72
564.04	33078.96
564.239	33142.45
564.438	32622.26
564.637	32804.53
564.836	32855.73
565.035	32472.76
565.234	32702.14
565.432	32763.57
565.631	32132.8
565.83	32714.42
566.029	32403.13
566.228	32368.32
566.427	32050.88
566.625	32237.25
566.824	31966.91
567.023	32288.45
567.222	31786.69
567.42	32368.32
567.619	32042.69
567.818	31823.56
568.016	31891.14
568.215	32073.41
568.414	31635.14
568.612	32159.42
568.811	31459.02
569.01	31569.61
569.208	30912.21
569.407	31221.45
569.605	31338.19
569.804	31221.45
570.002	31143.63
570.201	31155.92
570.4	30766.81
570.598	30699.22
570.797	30783.19
570.995	30877.4
571.193	30484.19
571.392	30967.51
571.59	30211.81
571.789	30406.36
571.987	30379.74
572.186	30242.53
572.384	30183.13
572.582	30265.05
572.781	30457.56
572.979	29570.79
573.177	30310.11
573.376	29918.95
573.574	29736.68
573.772	29910.75
573.971	29628.13
574.169	29486.82
574.367	29030.13
574.565	29605.61
574.763	29466.35
574.962	29439.72
575.16	29112.05
575.358	29597.42
575.556	28978.93
575.754	29318.89
575.952	28565.24
576.151	29161.2
576.349	28610.29
576.547	28614.39
576.745	28743.41
576.943	28374.78
577.141	28903.15
577.339	28317.43
577.537	28352.25
577.735	28401.4
577.933	28047.1
578.131	28102.4
578.329	27741.96
578.527	27983.62
578.725	27791.11
578.923	27875.07
579.121	27754.24
579.319	27701
579.516	27791.11
579.714	27934.46
579.912	27608.84
580.11	27467.53
580.308	27074.32
580.506	27455.24
580.704	26705.68
580.901	27469.58
581.099	27180.81
581.297	27102.99
581.495	27152.14
581.692	26742.55
581.89	26591
582.088	26961.68
582.285	26490.65
582.483	26689.3
582.681	26623.76
582.878	26623.76
583.076	26335
583.274	26480.41
583.471	26378.01
583.669	26083.1
583.866	26146.59
584.064	26193.69
584.262	25552.68
584.459	26029.85
584.657	25743.14
584.854	26040.09
585.052	25255.72
585.249	25640.74
585.447	25839.39
585.644	25263.91
585.841	25605.92
586.039	25689.89
586.236	25296.68
586.434	24926
586.631	25118.51
586.828	25077.55
587.026	25161.51
587.223	25114.41
587.42	25095.98
587.618	25026.35
587.815	24971.05
588.012	24495.92
588.21	24776.5
588.407	24790.83
588.604	24530.74
588.801	24350.52
588.999	24346.42
589.196	24397.62
589.393	24416.05
589.59	24194.87
589.787	23914.3
589.984	24033.08
590.182	23734.08
590.379	24198.97
590.576	23799.62
590.773	23768.9
590.97	23729.98
591.167	24020.8
591.364	23695.17
591.561	23461.7
591.758	23211.85
591.955	23328.58
592.152	23459.65
592.349	23156.55
592.546	23564.1
592.743	22916.94
592.94	22828.88
593.137	23000.91
593.334	22820.69
593.531	22810.45
593.727	22841.17
593.924	22601.55
594.121	22591.31
594.318	22775.63
594.515	22232.92
594.712	22759.25
594.908	22357.85
595.105	22400.85
595.302	22085.47
595.499	22095.71
595.696	22069.08
595.892	22126.43
596.089	21933.92
596.286	21944.16
596.482	21835.61
596.679	21776.22
596.876	22087.51
597.072	21600.1
597.269	21722.98
597.466	21524.32
597.662	21624.67
597.859	21491.55
598.055	21675.87
598.252	21225.32
598.448	21327.72
598.645	21106.54
598.841	21292.9
599.038	21206.89
599.234	21133.16
599.431	20883.31
599.627	20905.84
599.824	20946.8
600.02	20877.16
600.217	20928.36
600.413	20899.69
600.609	20373.36
600.806	20506.48
601.002	20795.25
601.198	20516.72
601.395	20248.44
601.591	20103.03
601.787	20223.86
601.984	20328.31
602.18	20549.49
602.376	19793.79
602.572	19980.15
602.769	19961.72
602.965	19695.49
603.161	19951.48
603.357	19744.64
603.553	19498.88
603.75	19715.97
603.946	19562.37
604.142	19539.84
604.338	19355.52
604.534	19466.11
604.73	19423.11
604.926	19251.08
605.122	19492.74
605.318	19185.54
605.514	19296.13
605.71	18816.91
605.906	18962.31
606.102	18872.2
606.298	18978.7
606.494	18567.06
606.69	18487.18
606.886	18804.62
607.082	18388.88
607.278	18708.37
607.474	18253.72
607.67	18513.81
607.866	18468.75
608.062	18642.83
608.257	18706.32
608.453	18261.91
608.649	18581.39
608.845	18395.03
609.041	18253.72
609.236	18425.75
609.432	18200.47
609.628	18239.38
609.824	18212.76
610.019	17993.62
610.215	17930.14
610.411	18114.45
610.606	17921.95
610.802	18182.04
610.998	18098.07
611.193	18010.01
611.389	17919.9
611.584	17794.97
611.78	17475.49
611.976	17807.26
612.171	17809.31
612.367	17878.94
612.562	17651.61
612.758	17395.62
612.953	17412
613.149	17581.98
613.344	17328.03
613.539	17622.94
613.735	17360.8
613.93	17221.54
614.126	17182.63
614.321	17287.07
614.517	17147.81
614.712	17305.51
614.907	16965.54
615.103	17207.2
615.298	17104.81
615.493	17174.44
615.688	16846.76
615.884	17340.32
616.079	16615.34
616.274	17078.18
616.47	16865.19
616.665	16777.13
616.86	16848.81
617.055	16656.3
617.25	16711.6
617.445	16770.99
617.641	16601.01
617.836	16684.97
618.031	16574.38
618.226	16463.79
618.421	16254.9
618.616	16506.8
618.811	16175.03
619.006	16582.57
619.201	16144.31
619.396	16248.75
619.591	16119.73
619.786	16302
619.981	16013.24
620.176	15966.14
620.371	15720.38
620.566	15708.09
620.761	15660.99
620.956	15837.11
621.151	15562.69
621.346	15546.3
621.541	15611.84
621.735	15509.44
621.93	15167.43
622.125	15079.36
622.32	15030.21
622.515	15411.14
622.709	15249.35
622.904	14860.23
623.099	14845.9
623.294	14919.62
623.488	14682.06
623.683	14897.1
623.878	14374.86
624.072	14460.88
624.267	14473.17
624.462	14510.03
624.656	14112.72
624.851	14362.58
625.046	14319.57
625.24	13895.64
625.435	14307.28
625.629	13783
625.824	13645.79
626.018	13699.03
626.213	13639.64
626.407	13602.78
626.602	13402.08
626.796	13408.22
626.991	13334.5
627.185	13330.4
627.38	13279.2
627.574	13015.01
627.768	13023.2
627.963	12754.92
628.157	12906.47
628.352	12892.13
628.546	12931.05
628.74	13074.4
628.935	12695.53
629.129	12591.08
629.323	12558.32
629.517	12570.6
629.712	12269.55
629.906	12457.96
630.1	12369.9
630.294	12320.75
630.489	12103.67
630.683	12320.75
630.877	11937.78
631.071	11792.37
631.265	12050.42
631.459	11880.44
631.653	11659.26
631.848	11546.62
632.042	11819
632.236	11859.96
632.43	11610.11
632.624	11530.23
632.818	11474.94
633.012	11352.06
633.206	11319.29
633.4	11339.77
633.594	11124.74
633.788	11229.18
633.982	11153.41
634.176	11053.06
634.369	11134.98
634.563	10948.61
634.757	10663.94
634.951	10874.88
635.145	10792.97
635.339	10819.59
635.533	10668.04
635.726	10727.43
635.92	10514.44
636.114	10582.03
636.308	10520.59
636.501	10395.66
636.695	10485.77
636.889	10338.32
637.083	10231.82
637.276	10092.56
637.47	9922.58
637.664	10018.83
637.857	10176.53
638.051	9969.68
638.244	9762.84
638.438	9959.44
638.632	9902.1
638.825	9789.46
639.019	9730.07
639.212	9738.26
639.406	9611.29
639.599	9590.81
639.793	9445.4
639.986	9492.51
640.18	9164.83
640.373	9287.71
640.567	9289.76
640.76	9359.39
640.954	9185.31
641.147	9175.07
641.34	9201.69
641.534	9021.47
641.727	9142.3
641.92	8962.08
642.114	8855.59
642.307	8847.4
642.5	8960.03
642.694	8661.03
642.887	8878.12
643.08	8855.59
643.273	8661.03
643.467	8673.32
643.66	8450.09
643.853	8536.1
644.046	8402.99
644.239	8560.68
644.432	8187.95
644.626	8230.96
644.819	8093.74
645.012	8161.33
645.205	8265.77
645.398	8122.41
645.591	8009.78
645.784	8065.07
645.977	8017.97
646.17	8001.58
646.363	7909.43
646.556	7880.75
646.749	7847.99
646.942	7956.53
647.135	7759.92
647.328	7600.18
647.521	7753.78
647.714	7608.37
647.907	7639.09
648.099	7729.2
648.292	7508.02
648.485	7602.23
648.678	7428.15
648.871	7376.95
649.064	7135.29
649.256	7448.63
649.449	7258.17
649.642	7127.1
649.835	7282.75
650.027	7045.18
650.22	7094.33
650.413	7149.63
650.605	7024.7
650.798	6916.16
650.991	6948.93
651.183	7010.37
651.376	6871.11
651.568	6944.83
651.761	6627.4
651.954	6903.87
652.146	6824
652.339	6733.89
652.531	6760.52
652.724	6697.03
652.916	6373.45
653.109	6508.62
653.301	6594.63
653.494	6549.57
653.686	6453.32
653.879	6594.63
654.071	6416.46
654.263	6436.94
654.456	6604.87
654.648	6305.87
654.84	6105.17
655.033	6336.59
655.225	6299.72
655.417	6078.54
655.61	6348.87
655.802	6090.83
655.994	6205.52
656.186	6121.55
656.379	6107.21
656.571	5892.18
656.763	5994.58
656.955	6027.34
657.148	5879.89
657.34	5832.79
657.532	5818.45
657.724	5701.72
657.916	5804.11
658.108	5838.93
658.3	5830.74
658.492	5752.91
658.684	5636.18
658.876	5711.96
659.068	5617.75
659.26	5576.79
659.452	5587.03
659.644	5582.93
659.836	5453.91
660.028	5587.03
660.22	5417.05
660.412	5455.96
660.604	5322.84
660.796	5376.09
660.988	5275.74
661.18	5294.17
661.372	5380.18
661.563	5285.98
661.755	5308.51
661.947	5345.37
662.139	5357.66
662.331	5038.17
662.522	5101.66
662.714	5091.42
662.906	5204.06
663.097	5062.75
663.289	5036.13
663.481	4907.1
663.673	5029.98
663.864	4864.1
664.056	4974.69
664.247	5054.56
664.439	4857.95
664.631	4935.78
664.822	5007.45
665.014	4735.07
665.205	4798.56
665.397	4649.06
665.588	4837.47
665.78	4790.37
665.971	4685.92
666.163	4696.16
666.354	4700.26
666.546	4647.01
666.737	4782.18
666.929	4591.72
667.12	4575.33
667.311	4610.15
667.503	4483.17
667.694	4620.39
667.885	4524.13
668.077	4532.33
668.268	4509.8
668.459	4481.13
668.651	4440.17
668.842	4429.93
669.033	4477.03
669.224	4358.25
669.416	4325.48
669.607	4202.6
669.798	4302.95
669.989	4329.58
670.18	4307.05
670.371	4372.58
670.563	4149.36
670.754	4309.1
670.945	4186.22
671.136	4268.14
671.327	4040.81
671.518	4065.39
671.709	4098.16
671.9	4085.87
672.091	4272.23
672.282	4223.08
672.473	4120.68
672.664	4132.97
672.855	4016.24
673.046	4026.48
673.237	4130.92
673.428	3919.98
673.619	4010.09
673.809	4012.14
674	3932.27
674.191	4053.1
674.382	3893.36
674.573	3924.08
674.764	3962.99
674.954	3876.98
675.145	3850.35
675.336	3969.13
675.527	3932.27
675.717	3936.37
675.908	3760.24
676.099	3774.58
676.289	3901.55
676.48	3752.05
676.671	3860.59
676.861	3784.82
677.052	3844.21
677.243	3698.8
677.433	3965.04
677.624	3907.7
677.814	3860.59
678.005	3668.08
678.195	3723.38
678.386	3754.1
678.576	3627.12
678.767	3758.19
678.957	3663.99
679.148	3698.8
679.338	3659.89
679.529	3731.57
679.719	3635.32
679.909	3754.1
680.1	3688.56
680.29	3709.04
680.481	3643.51
680.671	3666.03
680.861	3606.64
681.052	3539.06
681.242	3696.75
681.432	3635.32
681.622	3559.54
681.813	3600.5
682.003	3627.12
682.193	3584.12
682.383	3588.21
682.573	3512.44
682.764	3520.63
682.954	3575.92
683.144	3508.34
683.334	3455.09
683.524	3551.35
683.714	3549.3
683.904	3504.25
684.094	3528.82
684.284	3506.29
684.474	3561.59
684.664	3375.22
684.854	3471.48
685.044	3549.3
685.234	3467.38
685.424	3289.21
685.614	3399.8
685.804	3364.98
685.994	3272.82
686.184	3326.07
686.374	3438.71
686.564	3332.22
686.753	3336.31
686.943	3268.73
687.133	3285.11
687.323	3268.73
687.513	3207.29
687.702	3293.3
687.892	3274.87
688.082	3262.58
688.272	3272.82
688.461	3151.99
688.651	3158.14
688.841	3158.14
689.03	3113.08
689.22	3248.25
689.41	3188.86
689.599	3106.94
689.789	3070.08
689.979	3031.16
690.168	3065.98
690.358	3074.17
690.547	3065.98
690.737	3160.19
690.926	3086.46
691.116	3039.36
691.305	2959.49
691.495	3065.98
691.684	2996.35
691.874	2979.97
692.063	3020.92
692.252	3012.73
692.442	2986.11
692.631	2936.96
692.82	2812.03
693.01	2887.81
693.199	2840.7
693.388	2820.22
693.578	2805.89
693.767	2867.33
693.956	2803.84
694.146	2779.26
694.335	2879.61
694.524	2711.68
694.713	2861.18
694.902	2711.68
695.092	2867.33
695.281	2709.63
695.47	2705.54
695.659	2801.79
695.848	2646.15
696.037	2697.35
696.226	2689.15
696.415	2748.54
696.604	2744.45
696.793	2619.52
696.982	2676.87
697.171	2707.59
697.36	2676.87
697.549	2775.17
697.738	2703.49
697.927	2728.07
698.116	2642.05
698.305	2660.48
698.494	2762.88
698.683	2678.91
698.872	2728.07
699.061	2779.26
699.25	2615.43
699.438	2668.67
699.627	2635.91
699.816	2592.9
700.005	2637.95
700.193	2599.04
700.382	2683.01
700.571	2574.47
700.76	2558.08
700.948	2537.6
701.137	2588.8
701.326	2605.19
701.514	2543.75
701.703	2470.02
701.892	2572.42
702.08	2637.95
702.269	2713.73
702.457	2531.46
702.646	2582.66
702.834	2543.75
703.023	2539.65
703.212	2658.43
703.4	2642.05
703.589	2650.24
703.777	2740.35
703.965	2408.58
704.154	2496.64
704.342	2488.45
704.531	2580.61
704.719	2564.23
704.907	2623.62
705.096	2529.41
705.284	2646.15
705.472	2605.19
705.661	2611.33
705.849	2502.79
706.037	2609.28
706.226	2676.87
706.414	2611.33
706.602	2564.23
706.79	2609.28
706.979	2551.94
707.167	2676.87
707.355	2484.36
707.543	2484.36
707.731	2623.62
707.919	2633.86
708.107	2474.12
708.296	2623.62
708.484	2508.93
708.672	2553.99
708.86	2558.08
709.048	2617.47
709.236	2553.99
709.424	2560.13
709.612	2635.91
709.8	2504.84
709.988	2597
710.176	2588.8
710.364	2576.52
710.551	2537.6
710.739	2545.8
710.927	2459.78
711.115	2631.81
711.303	2586.76
711.491	2572.42
711.679	2545.8
711.866	2615.43
712.054	2584.71
712.242	2666.63
712.43	2553.99
712.617	2539.65
712.805	2547.84
712.993	2601.09
713.181	2599.04
713.368	2445.45
713.556	2605.19
713.744	2443.4
713.931	2629.76
714.119	2642.05
714.306	2609.28
714.494	2508.93
714.682	2586.76
714.869	2664.58
715.057	2549.89
715.244	2576.52
715.432	2592.9
715.619	2570.37
715.807	2568.32
715.994	2496.64
716.182	2609.28
716.369	2515.08
716.556	2701.44
716.744	2648.19
716.931	2607.23
717.119	2689.15
717.306	2576.52
717.493	2558.08
717.681	2508.93
717.868	2654.34
718.055	2629.76
718.242	2592.9
718.43	2758.78
718.617	2640
718.804	2699.39
718.991	2597
719.179	2730.11
719.366	2625.67
719.553	2525.32
719.74	2631.81
719.927	2642.05
720.114	2594.95
720.301	2672.77
720.488	2451.59
720.676	2556.04
720.863	2713.73
721.05	2834.56
721.237	2582.66
721.424	2637.95
721.611	2615.43
721.798	2783.36
721.985	2609.28
722.172	2588.8
722.358	2674.82
722.545	2564.23
722.732	2597
722.919	2537.6
723.106	2560.13
723.293	2695.3
723.48	2670.72
723.667	2496.64
723.853	2627.71
724.04	2625.67
724.227	2576.52
724.414	2736.26
724.6	2609.28
724.787	2691.2
724.974	2711.68
725.161	2605.19
725.347	2609.28
725.534	2650.24
725.72	2601.09
725.907	2660.48
726.094	2662.53
726.28	2656.39
726.467	2805.89
726.653	2672.77
726.84	2691.2
727.027	2683.01
727.213	2695.3
727.4	2670.72
727.586	2758.78
727.773	2644.1
727.959	2775.17
728.145	2506.88
728.332	2556.04
728.518	2640
728.705	2672.77
728.891	2713.73
729.077	2678.91
729.264	2633.86
729.45	2672.77
729.636	2650.24
729.823	2498.69
730.009	2705.54
730.195	2654.34
730.382	2697.35
730.568	2584.71
730.754	2769.02
730.94	2590.85
731.126	2709.63
731.313	2756.74
731.499	2566.28
731.685	2637.95
731.871	2635.91
732.057	2723.97
732.243	2701.44
732.429	2713.73
732.615	2785.41
732.801	2650.24
732.987	2758.78
733.173	2617.47
733.359	2652.29
733.545	2599.04
733.731	2674.82
733.917	2635.91
734.103	2607.23
734.289	2613.38
734.475	2662.53
734.661	2642.05
734.847	2699.39
735.033	2582.66
735.219	2553.99
735.404	2590.85
735.59	2640
735.776	2613.38
735.962	2556.04
736.148	2637.95
736.333	2654.34
736.519	2611.33
736.705	2635.91
736.89	2650.24
737.076	2551.94
737.262	2547.84
737.447	2588.8
737.633	2590.85
737.819	2617.47
738.004	2533.51
738.19	2627.71
738.375	2646.15
738.561	2541.7
738.747	2607.23
738.932	2486.4
739.118	2584.71
739.303	2625.67
739.489	2523.27
739.674	2539.65
739.859	2494.6
740.045	2500.74
740.23	2623.62
740.416	2449.54
740.601	2463.88
740.786	2488.45
740.972	2629.76
741.157	2523.27
741.342	2566.28
741.528	2513.03
741.713	2424.97
741.898	2312.33
742.084	2517.12
742.269	2445.45
742.454	2392.2
742.639	2506.88
742.824	2424.97
743.01	2510.98
743.195	2361.48
743.38	2472.07
743.565	2265.22
743.75	2427.01
743.935	2357.38
744.12	2281.61
744.305	2463.88
744.49	2324.62
744.675	2441.35
744.86	2279.56
745.045	2375.81
745.23	2232.46
745.415	2291.85
745.6	2263.18
745.785	2222.22
745.97	2250.89
746.155	2289.8
746.34	2242.7
746.525	2234.5
746.71	2263.18
746.895	2252.94
747.079	2207.88
747.264	2066.57
747.449	2271.37
747.634	2222.22
747.819	2058.38
748.003	2168.97
748.188	2205.83
748.373	2062.48
748.557	2062.48
748.742	2119.82
748.927	1988.75
749.111	2052.24
749.296	1998.99
749.481	2130.06
749.665	2033.8
749.85	1943.69
750.034	2107.53
750.219	2011.28
750.404	1964.17
750.588	1855.63
750.773	1884.3
750.957	1941.65
751.141	1853.58
751.326	1855.63
751.51	1857.68
751.695	1697.94
751.879	1765.52
752.064	1685.65
752.248	1869.97
752.432	1781.9
752.617	1810.58
752.801	1783.95
752.985	1693.84
753.17	1810.58
753.354	1798.29
753.538	1652.88
753.722	1624.21
753.907	1685.65
754.091	1732.75
754.275	1740.94
754.459	1697.94
754.643	1609.87
754.828	1636.5
755.012	1632.4
755.196	1646.74
755.38	1568.91
755.564	1605.78
755.748	1566.87
755.932	1579.15
756.116	1632.4
756.3	1532.05
756.484	1542.29
756.668	1583.25
756.852	1478.8
757.036	1423.51
757.22	1433.75
757.404	1372.31
757.588	1470.61
757.772	1484.95
757.956	1534.1
758.14	1480.85
758.323	1470.61
758.507	1466.52
758.691	1405.08
758.875	1405.08
759.059	1491.09
759.242	1454.23
759.426	1314.97
759.61	1388.69
759.794	1341.59
759.977	1317.01
760.161	1355.93
760.345	1388.69
760.528	1341.59
760.712	1312.92
760.895	1335.45
761.079	1261.72
761.263	1292.44
761.446	1298.58
761.63	1331.35
761.813	1329.3
761.997	1290.39
762.18	1173.66
762.364	1251.48
762.547	1280.15
762.731	1177.75
762.914	1183.9
763.098	1214.62
763.281	1265.82
763.464	1198.23
763.648	1165.46
763.831	1245.34
764.015	1138.84
764.198	1249.43
764.381	1161.37
764.564	1114.27
764.748	1173.66
764.931	1179.8
765.114	1183.9
765.297	1208.47
765.481	1120.41
765.664	1120.41
765.847	1196.18
766.03	1196.18
766.213	1165.46
766.397	1126.55
766.58	1093.79
766.763	1095.83
766.946	1032.35
767.129	1099.93
767.312	1036.44
767.495	1134.75
767.678	1011.87
767.861	983.2
768.044	1190.04
768.227	1097.88
768.41	1003.68
768.593	1020.06
768.776	1040.54
768.959	1118.36
769.142	993.44
769.324	991.39
769.507	1069.21
769.69	993.44
769.873	993.44
770.056	1104.03
770.239	1075.35
770.421	1108.12
770.604	1036.44
770.787	1056.92
770.97	1007.77
771.152	932
771.335	938.14
771.518	1046.68
771.7	977.05
771.883	964.76
772.066	993.44
772.248	946.33
772.431	1061.02
772.613	927.9
772.796	950.43
772.978	845.98
773.161	938.14
773.343	956.57
773.526	833.69
773.708	882.85
773.891	796.83
774.073	872.61
774.256	907.42
774.438	915.61
774.621	757.92
774.803	942.24
774.985	884.89
775.168	774.3
775.35	848.03
775.532	876.7
775.715	893.09
775.897	860.32
776.079	813.21
776.261	854.17
776.444	815.26
776.626	745.63
776.808	788.64
776.99	735.39
777.173	819.36
777.355	796.83
777.537	751.78
777.719	796.83
777.901	694.43
778.083	706.72
778.265	735.39
778.447	667.81
778.629	676
778.811	735.39
778.993	721.06
779.175	723.1
779.357	706.72
779.539	616.61
779.721	618.66
779.903	651.42
780.085	639.14
780.267	704.67
780.449	710.82
780.631	680.1
780.812	731.3
780.994	796.83
781.176	635.04
781.358	624.8
781.54	622.75
781.721	755.87
781.903	686.24
782.085	583.84
782.267	630.95
782.448	565.41
782.63	649.38
782.812	551.07
782.993	583.84
783.175	598.18
783.357	540.83
783.538	516.26
783.72	514.21
783.901	587.94
784.083	589.99
784.264	596.13
784.446	559.27
784.627	516.26
784.809	460.96
784.99	583.84
785.172	536.74
785.353	540.83
785.535	567.46
785.716	483.49
785.897	491.68
786.079	481.44
786.26	473.25
786.441	489.64
786.623	473.25
786.804	489.64
786.985	491.68
787.167	479.4
787.348	542.88
787.529	450.72
787.71	553.12
787.891	495.78
788.073	420
788.254	411.81
788.435	424.1
788.616	544.93
788.797	366.76
788.978	440.48
789.159	370.85
789.34	430.24
789.522	405.67
789.703	377
789.884	417.96
790.065	489.64
790.246	497.83
790.427	336.04
790.607	397.48
790.788	405.67
790.969	368.81
791.15	397.48
791.331	458.92
791.512	303.27
791.693	327.85
791.874	331.94
792.054	362.66
792.235	452.77
792.416	336.04
792.597	333.99
792.778	440.48
792.958	434.34
793.139	389.28
793.32	346.28
793.5	352.42
793.681	354.47
793.862	305.32
794.042	420
794.223	303.27
794.404	313.51
794.584	344.23
794.765	315.56
794.945	372.9
795.126	348.33
795.306	438.44
795.487	358.57
795.667	327.85
795.848	397.48
796.028	299.17
796.209	323.75
796.389	391.33
796.57	350.37
796.75	393.38
796.93	315.56
797.111	336.04
797.291	356.52
797.471	313.51
797.652	295.08
797.832	327.85
798.012	307.37
798.192	325.8
798.373	231.59
798.553	336.04
798.733	321.7
798.913	348.33
799.093	278.69
799.274	256.17
799.454	319.65
799.634	233.64
799.814	200.87
799.994	295.08
800.174	290.98
800.354	288.93
800.534	303.27
800.714	235.69
800.894	295.08
801.074	243.88
801.254	241.83
801.434	225.45
801.614	213.16
801.794	178.34
801.974	719.01
802.154	186.54
802.334	260.26
802.514	229.54
802.693	256.17
802.873	161.96
803.053	254.12
803.233	196.78
803.413	192.68
803.592	274.6
803.772	299.17
803.952	227.5
804.131	280.74
804.311	360.61
804.491	286.89
804.67	252.07
804.85	235.69
805.03	192.68
805.209	190.63
805.389	241.83
805.568	196.78
805.748	237.74
805.928	229.54
806.107	196.78
806.287	141.48
806.466	213.16
806.646	295.08
806.825	272.55
807.004	174.25
807.184	200.87
807.363	264.36
807.543	235.69
807.722	219.3
807.901	235.69
808.081	221.35
808.26	168.1
808.439	194.73
808.619	145.58
808.798	211.11
808.977	221.35
809.156	149.67
809.336	153.77
809.515	243.88
809.694	252.07
809.873	192.68
810.052	112.81
810.231	211.11
810.411	225.45
810.59	198.82
810.769	200.87
810.948	239.78
811.127	147.62
811.306	188.58
811.485	135.34
811.664	190.63
811.843	184.49
812.022	270.5
812.201	174.25
812.38	217.26
812.559	123.05
812.737	166.06
812.916	45.23
813.095	213.16
813.274	155.82
813.453	151.72
813.632	202.92
813.811	141.48
813.989	102.57
814.168	110.76
814.347	182.44
814.526	256.17
814.704	200.87
814.883	200.87
815.062	145.58
815.24	147.62
815.419	166.06
815.598	135.34
815.776	102.57
815.955	176.3
816.133	141.48
816.312	211.11
816.49	211.11
816.669	176.3
816.847	180.39
817.026	114.86
817.204	77.99
817.383	131.24
817.561	174.25
817.74	131.24
817.918	133.29
818.097	65.71
818.275	151.72
818.453	131.24
818.632	153.77
818.81	110.76
818.988	159.91
819.167	133.29
819.345	166.06
819.523	135.34
819.701	86.19
819.879	164.01
820.058	96.43
820.236	129.19
820.414	65.71
820.592	170.15
820.77	116.9
820.948	155.82
821.127	92.33
821.305	92.33
821.483	133.29
821.661	151.72
821.839	176.3
822.017	108.71
822.195	98.47
822.373	225.45
822.551	94.38
822.729	166.06
822.907	59.56
823.085	100.52
823.262	145.58
823.44	139.43
823.618	129.19
823.796	123.05
823.974	88.23
824.152	147.62
824.329	47.27
824.507	63.66
824.685	98.47
824.863	118.95
825.04	112.81
825.218	80.04
825.396	131.24
825.574	147.62
825.751	75.95
825.929	137.38
826.107	114.86
826.284	59.56
826.462	139.43
826.639	100.52
826.817	129.19
826.994	108.71
827.172	22.7
827.349	125.1
827.527	123.05
827.704	94.38
827.882	176.3
828.059	121
828.237	86.19
828.414	104.62
828.591	37.03
828.769	84.14
828.946	75.95
829.124	67.75
829.301	143.53
829.478	86.19
829.655	108.71
829.833	55.47
830.01	90.28
830.187	123.05
830.364	123.05
830.542	37.03
830.719	110.76
830.896	121
831.073	98.47
831.25	59.56
831.427	98.47
831.604	125.1
831.782	75.95
831.959	182.44
832.136	108.71
832.313	168.1
832.49	90.28
832.667	57.51
832.844	147.62
833.021	131.24
833.198	114.86
833.374	129.19
833.551	34.99
833.728	127.14
833.905	131.24
834.082	41.13
834.259	6.31
834.436	125.1
834.612	45.23
834.789	45.23
834.966	114.86
835.143	55.47
835.319	10.41
835.496	14.51
835.673	106.67
835.85	161.96
836.026	2.22
836.203	8.36
836.38	45.23
836.556	65.71
836.733	41.13
836.909	20.65
837.086	176.3
837.262	86.19
837.439	61.61
837.616	49.32
837.792	151.72
837.968	0.17
838.145	32.94
838.321	53.42
838.498	67.75
838.674	51.37
838.851	59.56
839.027	67.75
839.203	90.28
839.38	125.1
839.556	59.56
839.732	145.58
839.909	4.27
840.085	127.14
840.261	90.28
840.437	145.58
840.614	67.75
840.79	-18.26
840.966	61.61
841.142	71.85
841.318	116.9
841.494	82.09
841.671	112.81
841.847	63.66
842.023	53.42
842.199	43.18
842.375	39.08
842.551	65.71
842.727	-12.12
842.903	80.04
843.079	6.31
843.255	75.95
843.431	94.38
843.607	47.27
843.783	-22.36
843.959	32.94
844.134	24.75
844.31	102.57
844.486	-8.02
844.662	20.65
844.838	43.18
845.013	12.46
845.189	39.08
845.365	28.84
845.541	28.84
845.716	55.47
845.892	104.62
846.068	88.23
846.244	12.46
846.419	34.99
846.595	43.18
846.77	77.99
846.946	73.9
847.122	61.61
847.297	-12.12
847.473	57.51
847.648	84.14
847.824	59.56
847.999	32.94
848.175	0.17
848.35	28.84
848.526	14.51
848.701	96.43
848.876	18.6
849.052	88.23
849.227	82.09
849.403	-14.17
849.578	49.32
849.753	28.84
849.929	75.95
850.104	-3.93
850.279	34.99
850.454	49.32
850.63	6.31
850.805	43.18
850.98	18.6
851.155	63.66
851.33	80.04
851.505	-36.69
851.681	114.86
851.856	10.41
852.031	32.94
852.206	49.32
852.381	6.31
852.556	53.42
852.731	71.85
852.906	110.76
853.081	45.23
853.256	75.95
853.431	37.03
853.606	-18.26
853.781	-57.17
853.956	34.99
854.131	129.19
854.305	84.14
854.48	90.28
854.655	-12.12
854.83	55.47
855.005	-22.36
855.18	26.79
855.354	20.65
855.529	-44.88
855.704	2.22
855.879	61.61
856.053	-28.5
856.228	43.18
856.403	-22.36
856.577	88.23
856.752	-10.07
856.926	10.41
857.101	12.46
857.276	-18.26
857.45	16.55
857.625	10.41
857.799	69.8
857.974	47.27
858.148	30.89
858.323	67.75
858.497	37.03
858.672	63.66
858.846	-5.97
859.02	80.04
859.195	22.7
859.369	-14.17
859.543	32.94
859.718	-20.31
859.892	6.31
860.066	65.71
860.241	16.55
860.415	-20.31
860.589	-12.12
860.763	10.41
860.938	67.75
861.112	26.79
861.286	41.13
861.46	16.55
861.634	57.51
861.808	67.75
861.982	8.36
862.157	51.37
862.331	-16.21
862.505	16.55
862.679	20.65
862.853	34.99
863.027	-30.55
863.201	69.8
863.375	18.6
863.549	-24.4
863.722	2.22
863.896	18.6
864.07	26.79
864.244	2.22
864.418	61.61
864.592	26.79
864.766	45.23
864.939	16.55
865.113	-26.45
865.287	49.32
865.461	-22.36
865.634	12.46
865.808	26.79
865.982	0.17
866.156	-26.45
866.329	-5.97
866.503	10.41
866.676	-1.88
866.85	28.84
867.024	-48.98
867.197	71.85
867.371	67.75
867.544	-3.93
867.718	-36.69
867.891	-1.88
868.065	45.23
868.238	57.51
868.412	88.23
868.585	32.94
868.759	2.22
868.932	18.6
869.105	96.43
869.279	73.9
869.452	-18.26
869.625	49.32
869.799	37.03
869.972	12.46
870.145	67.75
870.319	34.99
870.492	16.55
870.665	-18.26
870.838	-40.79
871.011	-14.17
871.185	63.66
871.358	-20.31
871.531	125.1
871.704	2.22
871.877	30.89
872.05	22.7
872.223	26.79
872.396	-48.98
872.569	-30.55
872.742	22.7
872.915	45.23
873.088	-22.36
873.261	8.36
873.434	22.7
873.607	-22.36
873.78	26.79
873.953	26.79
874.126	12.46
874.299	-20.31
874.471	-77.65
874.644	77.99
874.817	59.56
874.99	26.79
875.163	-10.07
875.335	59.56
875.508	-40.79
875.681	20.65
875.853	-61.27
876.026	55.47
876.199	28.84
876.371	61.61
876.544	6.31
876.717	-38.74
876.889	-57.17
877.062	59.56
877.234	12.46
877.407	-20.31
877.579	6.31
877.752	43.18
877.924	-22.36
878.097	34.99
878.269	28.84
878.442	43.18
878.614	30.89
878.786	26.79
878.959	-22.36
879.131	49.32
879.303	-59.22
879.476	41.13
879.648	30.89
879.82	39.08
879.993	-26.45
880.165	24.75
880.337	45.23
880.509	-22.36
880.681	69.8
880.854	-55.12
881.026	-26.45
881.198	34.99
881.37	22.7
881.542	34.99
881.714	6.31
881.886	-20.31
882.058	16.55
882.23	16.55
882.402	45.23
882.574	6.31
882.746	28.84
882.918	20.65
883.09	4.27
883.262	-34.64
883.434	-10.07
883.606	4.27
883.778	-32.6
883.95	22.7
884.122	43.18
884.293	53.42
884.465	8.36
884.637	53.42
884.809	-36.69
884.98	4.27
885.152	-12.12
885.324	0.17
885.496	-3.93
885.667	8.36
885.839	-3.93
886.011	28.84
886.182	47.27
886.354	67.75
886.525	-5.97
886.697	-34.64
886.869	-44.88
887.04	43.18
887.212	6.31
887.383	-32.6
887.555	34.99
887.726	-24.4
887.897	67.75
888.069	6.31
888.24	53.42
888.412	16.55
888.583	16.55
888.754	6.31
888.926	-3.93
889.097	39.08
889.268	-55.12
889.44	57.51
889.611	4.27
889.782	-55.12
889.953	-42.84
890.125	45.23
890.296	-14.17
890.467	-26.45
890.638	20.65
890.809	2.22
890.98	65.71
891.151	37.03
891.323	-38.74
891.494	37.03
891.665	-12.12
891.836	-14.17
892.007	37.03
892.178	-71.51
892.349	10.41
892.52	6.31
892.691	-38.74
892.862	-42.84
893.032	2.22
893.203	-48.98
893.374	-5.97
893.545	39.08
893.716	22.7
893.887	-18.26
894.057	-61.27
894.228	39.08
894.399	-77.65
894.57	18.6
894.74	6.31
894.911	30.89
895.082	43.18
895.253	-28.5
895.423	6.31
895.594	18.6
895.764	22.7
895.935	12.46
896.106	-20.31
896.276	43.18
896.447	-14.17
896.617	-3.93
896.788	-71.51
896.958	28.84
897.129	-32.6
897.299	-1.88
897.47	-8.02
897.64	-36.69
897.81	-44.88
897.981	37.03
898.151	2.22
898.322	59.56
898.492	16.55
898.662	-61.27
898.832	41.13
899.003	30.89
899.173	0.17
899.343	-14.17
899.513	4.27
