Data from USB4F104151__77__11-52-44-268.txt Node

Date: Fri Mar 14 11:52:44 EDT 2025
User: louis
Spectrometer: USB4F10415
Trigger mode: 4
Integration Time (sec): 2.000000E-2
Scans to average: 1
Electric dark correction enabled: true
Nonlinearity correction enabled: false
Boxcar width: 0
XAxis mode: Wavelengths
Number of Pixels in Spectrum: 3648
>>>>>Begin Spectral Data<<<<<
178.204	-70.14
178.424	-70.14
178.644	-70.14
178.864	-4.61
179.084	-57.86
179.304	-20.99
179.524	30.21
179.744	13.82
179.964	-6.66
180.184	-20.99
180.404	-16.9
180.624	48.64
180.844	-4.61
181.064	-39.42
181.283	9.73
181.503	-23.04
181.723	30.21
181.943	-35.33
182.163	52.74
182.383	13.82
182.602	19.97
182.822	17.92
183.042	52.74
183.262	1.54
183.482	-4.61
183.701	15.87
183.921	3.58
184.141	34.3
184.361	9.73
184.58	77.31
184.8	13.82
185.02	-2.56
185.239	60.93
185.459	65.02
185.679	26.11
185.898	75.26
186.118	13.82
186.338	42.5
186.557	73.21
186.777	-20.99
186.997	5.63
187.216	36.35
187.436	65.02
187.655	34.3
187.875	36.35
188.095	91.65
188.314	32.26
188.534	46.59
188.753	89.6
188.973	105.98
189.192	77.31
189.412	11.78
189.631	44.54
189.851	-4.61
190.07	58.88
190.29	46.59
190.509	-23.04
190.729	-68.09
190.948	24.06
191.168	65.02
191.387	124.41
191.607	7.68
191.826	24.06
192.045	54.78
192.265	-14.85
192.484	110.08
192.704	40.45
192.923	75.26
193.142	85.5
193.362	77.31
193.581	-8.7
193.8	89.6
194.02	24.06
194.239	3.58
194.458	58.88
194.678	-4.61
194.897	-47.62
195.116	17.92
195.335	5.63
195.555	-27.14
195.774	54.78
195.993	38.4
196.212	38.4
196.432	-55.81
196.651	73.21
196.87	69.12
197.089	24.06
197.308	3.58
197.528	7.68
197.747	73.21
197.966	-25.09
198.185	-8.7
198.404	15.87
198.623	34.3
198.842	44.54
199.062	50.69
199.281	30.21
199.5	13.82
199.719	28.16
199.938	75.26
200.157	97.79
200.376	30.21
200.595	44.54
200.814	24.06
201.033	15.87
201.252	-12.8
201.471	22.02
201.69	54.78
201.909	26.11
202.128	65.02
202.347	7.68
202.566	50.69
202.785	83.45
203.004	65.02
203.223	69.12
203.442	-10.75
203.661	13.82
203.879	-20.99
204.098	46.59
204.317	13.82
204.536	36.35
204.755	3.58
204.974	11.78
205.193	19.97
205.411	52.74
205.63	-6.66
205.849	15.87
206.068	34.3
206.287	15.87
206.505	-6.66
206.724	24.06
206.943	46.59
207.162	7.68
207.381	30.21
207.599	-18.94
207.818	30.21
208.037	13.82
208.255	44.54
208.474	-10.75
208.693	56.83
208.911	-59.9
209.13	24.06
209.349	30.21
209.567	17.92
209.786	89.6
210.005	-31.23
210.223	5.63
210.442	58.88
210.661	75.26
210.879	32.26
211.098	-20.99
211.316	36.35
211.535	26.11
211.753	24.06
211.972	42.5
212.191	19.97
212.409	-20.99
212.628	28.16
212.846	9.73
213.065	36.35
213.283	44.54
213.502	52.74
213.72	75.26
213.938	38.4
214.157	7.68
214.375	-0.51
214.594	11.78
214.812	28.16
215.031	24.06
215.249	46.59
215.467	28.16
215.686	-10.75
215.904	79.36
216.122	-10.75
216.341	65.02
216.559	108.03
216.778	32.26
216.996	19.97
217.214	1.54
217.432	9.73
217.651	26.11
217.869	34.3
218.087	26.11
218.306	54.78
218.524	54.78
218.742	-29.18
218.96	54.78
219.179	-20.99
219.397	73.21
219.615	46.59
219.833	-8.7
220.051	19.97
220.27	79.36
220.488	-27.14
220.706	30.21
220.924	-18.94
221.142	44.54
221.36	9.73
221.578	108.03
221.796	-29.18
222.015	-4.61
222.233	42.5
222.451	101.89
222.669	73.21
222.887	17.92
223.105	-14.85
223.323	73.21
223.541	-29.18
223.759	91.65
223.977	9.73
224.195	91.65
224.413	103.93
224.631	56.83
224.849	13.82
225.067	85.5
225.285	34.3
225.503	56.83
225.721	-25.09
225.939	-23.04
226.157	28.16
226.375	85.5
226.592	-35.33
226.81	19.97
227.028	93.69
227.246	93.69
227.464	71.17
227.682	-10.75
227.9	62.98
228.117	-14.85
228.335	11.78
228.553	9.73
228.771	30.21
228.989	58.88
229.206	62.98
229.424	32.26
229.642	-10.75
229.86	5.63
230.077	87.55
230.295	54.78
230.513	30.21
230.731	50.69
230.948	-8.7
231.166	69.12
231.384	79.36
231.601	52.74
231.819	50.69
232.037	50.69
232.254	28.16
232.472	-4.61
232.689	-0.51
232.907	87.55
233.125	46.59
233.342	56.83
233.56	26.11
233.777	-12.8
233.995	38.4
234.213	91.65
234.43	58.88
234.648	9.73
234.865	19.97
235.083	13.82
235.3	69.12
235.518	-2.56
235.735	65.02
235.953	-6.66
236.17	7.68
236.388	15.87
236.605	-8.7
236.822	30.21
237.04	87.55
237.257	-0.51
237.475	-8.7
237.692	56.83
237.909	1.54
238.127	81.41
238.344	11.78
238.562	71.17
238.779	52.74
238.996	-4.61
239.214	13.82
239.431	60.93
239.648	30.21
239.865	36.35
240.083	17.92
240.3	-12.8
240.517	56.83
240.735	73.21
240.952	9.73
241.169	48.64
241.386	-8.7
241.603	58.88
241.821	-37.38
242.038	65.02
242.255	-33.28
242.472	22.02
242.689	1.54
242.907	1.54
243.124	3.58
243.341	75.26
243.558	30.21
243.775	50.69
243.992	11.78
244.209	32.26
244.426	116.22
244.643	19.97
244.86	9.73
245.078	62.98
245.295	1.54
245.512	69.12
245.729	32.26
245.946	30.21
246.163	28.16
246.38	-16.9
246.597	40.45
246.814	-16.9
247.031	54.78
247.248	30.21
247.464	-23.04
247.681	101.89
247.898	77.31
248.115	52.74
248.332	-68.09
248.549	40.45
248.766	36.35
248.983	11.78
249.2	7.68
249.417	48.64
249.633	-2.56
249.85	38.4
250.067	36.35
250.284	58.88
250.501	30.21
250.717	34.3
250.934	-10.75
251.151	48.64
251.368	-43.52
251.585	65.02
251.801	60.93
252.018	52.74
252.235	77.31
252.451	36.35
252.668	-70.14
252.885	79.36
253.102	42.5
253.318	5.63
253.535	17.92
253.752	54.78
253.968	-47.62
254.185	3.58
254.401	44.54
254.618	40.45
254.835	52.74
255.051	15.87
255.268	-41.47
255.484	62.98
255.701	-14.85
255.917	34.3
256.134	-41.47
256.351	-68.09
256.567	5.63
256.784	28.16
257	-37.38
257.217	13.82
257.433	44.54
257.65	-18.94
257.866	128.51
258.082	44.54
258.299	-39.42
258.515	11.78
258.732	28.16
258.948	-2.56
259.165	38.4
259.381	50.69
259.597	36.35
259.814	50.69
260.03	38.4
260.246	85.5
260.463	122.37
260.679	79.36
260.895	93.69
261.112	65.02
261.328	28.16
261.544	79.36
261.761	32.26
261.977	75.26
262.193	3.58
262.409	-2.56
262.626	79.36
262.842	17.92
263.058	15.87
263.274	108.03
263.49	28.16
263.707	26.11
263.923	67.07
264.139	38.4
264.355	44.54
264.571	28.16
264.787	9.73
265.004	7.68
265.22	48.64
265.436	11.78
265.652	13.82
265.868	130.56
266.084	81.41
266.3	42.5
266.516	1.54
266.732	13.82
266.948	40.45
267.164	58.88
267.38	26.11
267.596	114.17
267.812	30.21
268.028	30.21
268.244	26.11
268.46	-33.28
268.676	69.12
268.892	-4.61
269.108	9.73
269.324	3.58
269.54	17.92
269.756	71.17
269.972	-27.14
270.188	7.68
270.403	-55.81
270.619	62.98
270.835	-4.61
271.051	38.4
271.267	-23.04
271.483	-18.94
271.698	1.54
271.914	5.63
272.13	58.88
272.346	30.21
272.562	-31.23
272.777	9.73
272.993	-6.66
273.209	24.06
273.425	9.73
273.64	-2.56
273.856	17.92
274.072	-49.66
274.287	44.54
274.503	19.97
274.719	36.35
274.934	46.59
275.15	11.78
275.366	50.69
275.581	19.97
275.797	71.17
276.012	34.3
276.228	65.02
276.444	67.07
276.659	24.06
276.875	-29.18
277.09	65.02
277.306	11.78
277.521	58.88
277.737	69.12
277.952	1.54
278.168	5.63
278.383	5.63
278.599	56.83
278.814	36.35
279.03	95.74
279.245	-10.75
279.461	42.5
279.676	67.07
279.892	38.4
280.107	75.26
280.322	-10.75
280.538	19.97
280.753	17.92
280.969	-14.85
281.184	26.11
281.399	105.98
281.615	34.3
281.83	58.88
282.045	-20.99
282.26	22.02
282.476	108.03
282.691	30.21
282.906	36.35
283.122	54.78
283.337	17.92
283.552	87.55
283.767	73.21
283.983	93.69
284.198	-8.7
284.413	108.03
284.628	69.12
284.843	9.73
285.058	42.5
285.274	65.02
285.489	42.5
285.704	15.87
285.919	38.4
286.134	93.69
286.349	30.21
286.564	13.82
286.779	40.45
286.995	15.87
287.21	7.68
287.425	26.11
287.64	-33.28
287.855	26.11
288.07	15.87
288.285	71.17
288.5	73.21
288.715	5.63
288.93	62.98
289.145	24.06
289.36	58.88
289.575	24.06
289.79	79.36
290.004	34.3
290.219	60.93
290.434	-14.85
290.649	1.54
290.864	79.36
291.079	30.21
291.294	5.63
291.509	19.97
291.724	50.69
291.938	77.31
292.153	19.97
292.368	28.16
292.583	38.4
292.798	105.98
293.012	99.84
293.227	1.54
293.442	73.21
293.657	118.27
293.871	44.54
294.086	95.74
294.301	56.83
294.516	-41.47
294.73	-16.9
294.945	44.54
295.16	32.26
295.374	-0.51
295.589	52.74
295.804	60.93
296.018	46.59
296.233	77.31
296.447	30.21
296.662	3.58
296.877	73.21
297.091	79.36
297.306	-14.85
297.52	-29.18
297.735	116.22
297.949	-14.85
298.164	22.02
298.378	38.4
298.593	-27.14
298.807	9.73
299.022	52.74
299.236	112.13
299.451	42.5
299.665	91.65
299.88	38.4
300.094	73.21
300.309	7.68
300.523	36.35
300.737	46.59
300.952	87.55
301.166	9.73
301.381	-6.66
301.595	34.3
301.809	42.5
302.024	93.69
302.238	7.68
302.452	101.89
302.667	11.78
302.881	101.89
303.095	65.02
303.309	75.26
303.524	30.21
303.738	13.82
303.952	44.54
304.166	130.56
304.381	36.35
304.595	36.35
304.809	99.84
305.023	38.4
305.237	42.5
305.452	91.65
305.666	17.92
305.88	3.58
306.094	30.21
306.308	67.07
306.522	77.31
306.736	34.3
306.95	95.74
307.164	52.74
307.379	9.73
307.593	15.87
307.807	71.17
308.021	-4.61
308.235	91.65
308.449	19.97
308.663	42.5
308.877	103.93
309.091	1.54
309.305	89.6
309.519	-23.04
309.733	73.21
309.947	-33.28
310.161	-55.81
310.374	9.73
310.588	42.5
310.802	60.93
311.016	3.58
311.23	36.35
311.444	-4.61
311.658	138.75
311.872	34.3
312.085	105.98
312.299	65.02
312.513	81.41
312.727	36.35
312.941	42.5
313.154	11.78
313.368	48.64
313.582	36.35
313.796	56.83
314.009	79.36
314.223	50.69
314.437	-31.23
314.651	79.36
314.864	-8.7
315.078	56.83
315.292	65.02
315.505	34.3
315.719	130.56
315.933	58.88
316.146	62.98
316.36	-12.8
316.573	89.6
316.787	34.3
317.001	32.26
317.214	-45.57
317.428	9.73
317.641	79.36
317.855	-0.51
318.068	44.54
318.282	5.63
318.495	-8.7
318.709	32.26
318.922	93.69
319.136	40.45
319.349	-8.7
319.563	38.4
319.776	40.45
319.99	73.21
320.203	65.02
320.417	-18.94
320.63	62.98
320.843	-0.51
321.057	60.93
321.27	56.83
321.483	71.17
321.697	54.78
321.91	36.35
322.124	71.17
322.337	114.17
322.55	24.06
322.763	60.93
322.977	17.92
323.19	7.68
323.403	40.45
323.617	99.84
323.83	71.17
324.043	34.3
324.256	46.59
324.469	62.98
324.683	93.69
324.896	52.74
325.109	60.93
325.322	62.98
325.535	130.56
325.748	71.17
325.962	56.83
326.175	19.97
326.388	75.26
326.601	36.35
326.814	1.54
327.027	-18.94
327.24	42.5
327.453	28.16
327.666	50.69
327.879	65.02
328.092	-4.61
328.305	30.21
328.518	42.5
328.731	13.82
328.944	69.12
329.157	69.12
329.37	22.02
329.583	83.45
329.796	-16.9
330.009	52.74
330.222	58.88
330.435	38.4
330.648	73.21
330.861	-4.61
331.073	91.65
331.286	73.21
331.499	32.26
331.712	17.92
331.925	-10.75
332.138	28.16
332.35	44.54
332.563	-2.56
332.776	71.17
332.989	-29.18
333.202	46.59
333.414	71.17
333.627	95.74
333.84	-12.8
334.053	81.41
334.265	120.32
334.478	77.31
334.691	9.73
334.903	93.69
335.116	-14.85
335.329	-10.75
335.541	-33.28
335.754	38.4
335.966	-57.86
336.179	9.73
336.392	22.02
336.604	-2.56
336.817	-41.47
337.029	-6.66
337.242	67.07
337.454	89.6
337.667	97.79
337.88	105.98
338.092	97.79
338.305	52.74
338.517	-49.66
338.729	103.93
338.942	89.6
339.154	15.87
339.367	-10.75
339.579	32.26
339.792	101.89
340.004	91.65
340.217	-8.7
340.429	1.54
340.641	24.06
340.854	-16.9
341.066	65.02
341.278	40.45
341.491	50.69
341.703	38.4
341.915	46.59
342.128	91.65
342.34	26.11
342.552	-14.85
342.764	67.07
342.977	15.87
343.189	91.65
343.401	9.73
343.613	-35.33
343.826	71.17
344.038	50.69
344.25	91.65
344.462	58.88
344.674	52.74
344.886	79.36
345.099	50.69
345.311	36.35
345.523	40.45
345.735	-23.04
345.947	11.78
346.159	58.88
346.371	-6.66
346.583	71.17
346.795	85.5
347.007	-27.14
347.219	71.17
347.431	50.69
347.643	22.02
347.855	36.35
348.067	-16.9
348.279	1.54
348.491	48.64
348.703	67.07
348.915	46.59
349.127	52.74
349.339	77.31
349.551	-8.7
349.763	17.92
349.975	5.63
350.187	48.64
350.399	71.17
350.61	65.02
350.822	19.97
351.034	32.26
351.246	34.3
351.458	101.89
351.669	73.21
351.881	-20.99
352.093	46.59
352.305	87.55
352.517	62.98
352.728	112.13
352.94	91.65
353.152	22.02
353.363	-20.99
353.575	40.45
353.787	99.84
353.999	-2.56
354.21	38.4
354.422	65.02
354.633	1.54
354.845	52.74
355.057	83.45
355.268	34.3
355.48	73.21
355.692	34.3
355.903	46.59
356.115	30.21
356.326	-20.99
356.538	40.45
356.749	30.21
356.961	87.55
357.172	-8.7
357.384	17.92
357.595	87.55
357.807	77.31
358.018	19.97
358.23	22.02
358.441	13.82
358.653	44.54
358.864	-27.14
359.075	19.97
359.287	60.93
359.498	1.54
359.709	28.16
359.921	75.26
360.132	17.92
360.344	67.07
360.555	42.5
360.766	13.82
360.977	-43.52
361.189	87.55
361.4	26.11
361.611	69.12
361.823	75.26
362.034	114.17
362.245	-23.04
362.456	105.98
362.667	52.74
362.879	93.69
363.09	3.58
363.301	67.07
363.512	7.68
363.723	71.17
363.935	46.59
364.146	69.12
364.357	7.68
364.568	93.69
364.779	17.92
364.99	54.78
365.201	26.11
365.412	144.89
365.623	32.26
365.834	3.58
366.045	3.58
366.256	50.69
366.467	26.11
366.678	50.69
366.889	58.88
367.1	-57.86
367.311	11.78
367.522	19.97
367.733	65.02
367.944	-23.04
368.155	13.82
368.366	26.11
368.577	60.93
368.788	56.83
368.999	54.78
369.209	48.64
369.42	132.61
369.631	101.89
369.842	73.21
370.053	24.06
370.264	52.74
370.474	71.17
370.685	-20.99
370.896	1.54
371.107	83.45
371.317	83.45
371.528	34.3
371.739	81.41
371.95	24.06
372.16	42.5
372.371	3.58
372.582	1.54
372.792	-6.66
373.003	26.11
373.214	89.6
373.424	46.59
373.635	60.93
373.846	13.82
374.056	48.64
374.267	128.51
374.477	34.3
374.688	77.31
374.898	28.16
375.109	50.69
375.319	71.17
375.53	146.94
375.74	60.93
375.951	62.98
376.161	89.6
376.372	9.73
376.582	17.92
376.793	46.59
377.003	58.88
377.214	75.26
377.424	22.02
377.635	97.79
377.845	58.88
378.055	124.41
378.266	40.45
378.476	-20.99
378.686	17.92
378.897	85.5
379.107	108.03
379.317	3.58
379.528	-12.8
379.738	85.5
379.948	9.73
380.158	24.06
380.369	17.92
380.579	50.69
380.789	-16.9
380.999	3.58
381.21	93.69
381.42	91.65
381.63	58.88
381.84	91.65
382.05	126.46
382.261	3.58
382.471	32.26
382.681	-10.75
382.891	69.12
383.101	42.5
383.311	1.54
383.521	9.73
383.731	79.36
383.941	89.6
384.151	40.45
384.361	62.98
384.571	60.93
384.781	91.65
384.991	17.92
385.201	89.6
385.411	95.74
385.621	40.45
385.831	54.78
386.041	103.93
386.251	-8.7
386.461	15.87
386.671	120.32
386.881	30.21
387.091	71.17
387.301	144.89
387.511	5.63
387.72	50.69
387.93	97.79
388.14	11.78
388.35	97.79
388.56	7.68
388.769	52.74
388.979	58.88
389.189	5.63
389.399	36.35
389.609	73.21
389.818	91.65
390.028	19.97
390.238	48.64
390.447	50.69
390.657	128.51
390.867	-8.7
391.076	62.98
391.286	87.55
391.496	67.07
391.705	85.5
391.915	91.65
392.125	89.6
392.334	101.89
392.544	-31.23
392.753	81.41
392.963	38.4
393.172	46.59
393.382	105.98
393.591	116.22
393.801	26.11
394.01	97.79
394.22	116.22
394.429	75.26
394.639	38.4
394.848	58.88
395.058	46.59
395.267	91.65
395.477	112.13
395.686	91.65
395.895	85.5
396.105	128.51
396.314	69.12
396.524	103.93
396.733	69.12
396.942	87.55
397.152	79.36
397.361	142.85
397.57	93.69
397.78	46.59
397.989	50.69
398.198	144.89
398.407	67.07
398.617	48.64
398.826	112.13
399.035	24.06
399.244	79.36
399.453	48.64
399.663	58.88
399.872	40.45
400.081	108.03
400.29	116.22
400.499	118.27
400.708	146.94
400.917	91.65
401.127	148.99
401.336	42.5
401.545	153.09
401.754	67.07
401.963	159.23
402.172	148.99
402.381	124.41
402.59	171.52
402.799	116.22
403.008	204.28
403.217	81.41
403.426	140.8
403.635	36.35
403.844	114.17
404.053	116.22
404.262	116.22
404.471	105.98
404.68	93.69
404.888	157.18
405.097	177.66
405.306	159.23
405.515	155.13
405.724	189.95
405.933	108.03
406.142	157.18
406.35	116.22
406.559	138.75
406.768	202.24
406.977	173.57
407.185	181.76
407.394	214.52
407.603	175.61
407.812	255.48
408.02	245.24
408.229	194.05
408.438	169.47
408.646	245.24
408.855	194.05
409.064	263.68
409.272	275.96
409.481	269.82
409.69	243.2
409.898	206.33
410.107	228.86
410.315	220.67
410.524	359.93
410.733	327.16
410.941	353.79
411.15	306.68
411.358	312.83
411.567	407.03
411.775	337.4
411.984	304.64
412.192	306.68
412.401	384.51
412.609	404.99
412.818	407.03
413.026	394.75
413.234	509.43
413.443	493.05
413.651	476.66
413.86	531.96
414.068	521.72
414.276	503.29
414.485	527.86
414.693	542.2
414.901	603.64
415.11	607.73
415.318	544.25
415.526	728.56
415.734	554.49
415.943	640.5
416.151	630.26
416.359	708.09
416.567	747
416.776	732.66
416.984	810.48
417.192	787.96
417.4	878.07
417.608	722.42
417.817	871.92
418.025	865.78
418.233	1097.2
418.441	980.47
418.649	974.32
418.857	1068.53
419.065	1129.97
419.273	1074.67
419.481	1189.36
419.689	1156.59
419.897	1330.67
420.105	1236.46
420.313	1302
420.521	1394.15
420.729	1287.66
420.937	1383.91
421.145	1455.59
421.353	1594.86
421.561	1584.62
421.769	1551.85
421.977	1746.41
422.185	1701.35
422.393	1746.41
422.601	1912.29
422.809	1799.65
423.017	1877.48
423.224	1990.11
423.432	2137.57
423.64	2094.56
423.848	2336.22
424.056	2162.14
424.263	2362.84
424.471	2487.77
424.679	2446.81
424.887	2659.8
425.094	2741.72
425.302	2651.61
425.51	2635.22
425.718	2801.11
425.925	2944.47
426.133	3083.73
426.341	3194.32
426.548	3294.67
426.756	3257.81
426.964	3153.36
427.171	3487.18
427.379	3503.56
427.586	3685.83
427.794	3821
428.001	4007.36
428.209	4091.33
428.417	4013.51
428.624	4240.83
428.832	4337.09
429.039	4140.48
429.247	4115.91
429.454	4744.63
429.662	5014.96
429.869	4808.12
430.076	5004.72
430.284	4842.93
430.491	5076.4
430.699	5391.79
430.906	5402.03
431.114	5604.78
431.321	5735.85
431.528	5707.18
431.736	6159.78
431.943	6552.99
432.15	6196.64
432.358	6452.64
432.565	6598.04
432.772	6772.12
432.979	7009.69
433.187	7421.33
433.394	7177.62
433.601	7566.73
433.808	7603.6
434.016	7705.99
434.223	7937.41
434.43	8408.45
434.637	8244.61
434.844	8834.43
435.052	8926.58
435.259	8895.86
435.466	8871.29
435.673	8895.86
435.88	9624.94
436.087	9784.68
436.294	9977.19
436.501	9610.61
436.708	9979.24
436.915	10374.5
437.122	10814.81
437.329	10646.88
437.537	11001.18
437.743	11197.78
437.95	11035.99
438.157	11746.64
438.364	12096.84
438.571	11994.44
438.778	12444.99
438.985	13346.1
439.192	12641.6
439.399	13217.08
439.606	13043
439.813	13827.37
440.02	14673.18
440.227	14351.65
440.433	14472.48
440.64	14507.3
440.847	14325.03
441.054	14994.72
441.261	15813.9
441.467	15652.11
441.674	16069.9
441.881	16672
442.088	16520.45
442.294	16223.5
442.501	17022.2
442.708	17165.56
442.914	18111.72
443.121	18697.44
443.328	18156.78
443.534	19420.38
443.741	19139.8
443.948	18631.91
444.154	20280.52
444.361	19739.86
444.568	19989.71
444.774	20165.84
444.981	20382.92
445.187	20835.52
445.394	21757.11
445.6	21480.63
445.807	23506.07
446.013	22496.42
446.22	22975.65
446.426	23788.69
446.633	24181.9
446.839	24876.16
447.046	23944.34
447.252	25080.96
447.459	25461.88
447.665	25451.64
447.871	26481.77
448.078	27827.29
448.284	26051.7
448.491	26938.47
448.697	27728.98
448.903	28462.16
449.11	28456.01
449.316	28071
449.522	28570.7
449.728	29350.98
449.935	29639.74
450.141	29314.11
450.347	30344.24
450.553	29230.15
450.76	29588.54
450.966	30708.78
451.172	30358.58
451.378	31239.2
451.584	30497.84
451.791	31521.82
451.997	30962.73
452.203	32076.82
452.409	32152.6
452.615	31394.85
452.821	30393.39
453.027	30258.23
453.233	31726.62
453.44	30381.1
453.646	31038.5
453.852	30911.53
454.058	31603.74
454.264	30723.12
454.47	31339.55
454.676	30268.47
454.882	31456.29
455.088	28652.62
455.294	29662.27
455.5	29959.22
455.705	30080.05
455.911	29082.69
456.117	28486.73
456.323	27880.53
456.529	26741.86
456.735	27616.35
456.941	27173.99
457.147	26541.16
457.352	25613.43
457.558	25652.34
457.764	25613.43
457.97	24951.94
458.176	24466.57
458.381	24521.87
458.587	23641.24
458.793	23200.93
458.999	22203.57
459.204	23616.66
459.41	23151.77
459.616	21753.01
459.821	21675.19
460.027	21871.79
460.233	20999.36
460.438	19932.37
460.644	20677.83
460.85	18957.53
461.055	18906.34
461.261	19076.32
461.466	17601.78
461.672	16831.74
461.878	18271.47
462.083	17036.54
462.289	16600.32
462.494	16588.03
462.7	15818
462.905	15336.73
463.111	15934.73
463.316	16225.54
463.522	15545.62
463.727	15869.2
463.932	15772.94
464.138	15590.67
464.343	15721.74
464.549	15000.86
464.754	15629.59
464.959	15318.29
465.165	15467.8
465.37	14591.27
465.575	14468.39
465.781	14779.68
465.986	14873.89
466.191	14429.48
466.397	14200.1
466.602	13503.79
466.807	13970.73
467.012	14288.17
467.218	13978.92
467.423	13763.89
467.628	13761.84
467.833	14548.26
468.038	13688.11
468.244	13440.31
468.449	14116.14
468.654	13466.93
468.859	13321.52
469.064	13475.12
469.269	12887.36
469.474	12834.11
469.679	13344.05
469.885	12940.6
470.09	13079.86
470.295	13073.72
470.5	12807.48
470.705	12778.81
470.91	12324.16
471.115	12262.72
471.32	12514.63
471.525	12361.03
471.73	12131.65
471.935	12070.22
472.139	11580.75
472.344	11773.26
472.549	11814.22
472.754	11464.02
472.959	11504.98
473.164	11107.67
473.369	10947.93
473.574	11404.63
473.778	11306.32
473.983	11146.58
474.188	11318.61
474.393	10663.26
474.598	10532.19
474.802	10511.71
475.007	10358.11
475.212	10704.22
475.417	10147.17
475.621	10284.39
475.826	10206.56
476.031	9977.19
476.235	9831.79
476.44	9862.51
476.645	9688.43
476.849	9766.25
477.054	9706.86
477.259	9614.7
477.463	9444.72
477.668	9235.83
477.872	9467.25
478.077	9338.23
478.282	8942.97
478.486	9137.52
478.691	8750.46
478.895	8848.76
479.1	8813.95
479.304	8840.57
479.509	8746.36
479.713	8789.37
479.918	8422.78
480.122	8230.27
480.326	8529.28
480.531	8639.87
480.735	8367.49
480.94	8373.63
481.144	8748.41
481.348	8250.75
481.553	8390.02
481.757	8007.05
481.961	8146.31
482.166	8330.62
482.37	8422.78
482.574	8060.29
482.778	8082.82
482.983	8320.39
483.187	8213.89
483.391	8230.27
483.595	8213.89
483.8	8308.1
484.004	8344.96
484.208	8398.21
484.412	8217.99
484.616	8107.4
484.821	8220.03
485.025	7986.57
485.229	8189.32
485.433	8011.14
485.637	7904.65
485.841	8136.07
486.045	8107.4
486.249	8254.85
486.453	8041.86
486.657	8037.77
486.861	8074.63
487.065	8095.11
487.269	8162.69
487.473	7957.89
487.677	8162.69
487.881	8185.22
488.085	8152.45
488.289	8033.67
488.493	8195.46
488.697	8310.15
488.901	8199.55
489.105	8256.9
489.309	8060.29
489.512	8260.99
489.716	8381.82
489.92	8195.46
490.124	8359.3
490.328	8510.85
490.531	8320.39
490.735	8471.93
490.939	8473.98
491.143	8373.63
491.346	8310.15
491.55	8455.55
491.754	8369.54
491.958	8533.37
492.161	8494.46
492.365	8611.2
492.569	8627.58
492.772	8578.43
492.976	8482.17
493.18	8801.66
493.383	9024.89
493.587	8918.39
493.79	9045.37
493.994	8877.43
494.197	9123.19
494.401	9164.15
494.605	9307.51
494.808	9274.74
495.012	9284.98
495.215	9151.86
495.419	9461.1
495.622	9387.38
495.825	9522.54
496.029	9389.42
496.232	9770.35
496.436	9620.85
496.639	9817.45
496.843	9823.59
497.046	10153.32
497.249	10198.37
497.453	10222.95
497.656	10515.81
497.859	10188.13
498.063	10394.98
498.266	10552.67
498.469	10626.4
498.673	10562.91
498.876	10802.52
499.079	11169.11
499.282	10984.79
499.485	11365.71
499.689	11378
499.892	11634
500.095	11453.78
500.298	11910.47
500.501	11801.93
500.705	12207.43
500.908	11949.39
501.111	12363.08
501.314	12457.28
501.517	12365.12
501.72	12506.43
501.923	12827.96
502.126	12999.99
502.329	13157.69
502.532	13253.94
502.735	13323.57
502.938	13577.52
503.141	13522.23
503.344	13704.49
503.547	14032.17
503.75	14259.49
503.953	14351.65
504.156	14456.1
504.359	14554.4
504.562	14740.77
504.765	14949.66
504.968	15189.27
505.17	15426.84
505.373	15281.43
505.576	15295.77
505.779	15822.09
505.982	15791.38
506.185	16145.67
506.387	16241.93
506.59	16426.25
506.793	16721.15
506.996	16686.34
507.198	17177.85
507.401	17165.56
507.604	17298.68
507.807	17675.51
508.009	17691.89
508.212	17978.61
508.415	18095.34
508.617	18445.54
508.82	18451.69
509.022	18541.8
509.225	18758.88
509.428	19053.79
509.63	19094.75
509.833	19156.19
510.035	19639.51
510.238	19750.1
510.44	19993.81
510.643	20184.27
510.845	20368.59
511.048	20360.39
511.25	20620.49
511.453	20626.63
511.655	21546.17
511.858	21120.19
512.06	21550.26
512.262	21703.86
512.465	21781.68
512.667	22045.87
512.87	22564.01
513.072	22580.39
513.274	22758.56
513.477	22953.12
513.679	23061.66
513.881	23458.97
514.084	23766.17
514.286	23770.26
514.488	24276.11
514.69	24437.9
514.893	24685.7
515.095	25207.94
515.297	24876.16
515.499	25244.8
515.701	25506.94
515.904	25818.23
516.106	26047.6
516.308	26100.85
516.51	26657.9
516.712	26561.64
516.914	26932.33
517.116	27249.76
517.318	26954.85
517.52	27448.41
517.722	27763.8
517.925	27903.06
518.127	28417.1
518.329	28630.09
518.531	28466.25
518.733	28972.1
518.935	29484.09
519.136	29578.3
519.338	29822.01
519.54	30018.61
519.742	30262.32
519.944	30278.71
520.146	30860.33
520.348	30972.97
520.55	31157.28
520.752	31241.25
520.954	31693.85
521.155	31509.54
521.357	32166.93
521.559	32228.37
521.761	32781.32
521.963	32810
522.164	32891.91
522.366	33022.98
522.568	33156.1
522.77	33864.7
522.971	34055.16
523.173	33786.88
523.375	34159.61
523.576	33995.77
523.778	34563.06
523.98	35091.43
524.181	34935.79
524.383	35064.81
524.584	35400.68
524.786	35675.1
524.988	35634.14
525.189	35873.76
525.391	36096.99
525.592	36287.45
525.794	36561.87
525.995	36666.32
526.197	36234.2
526.398	36832.21
526.6	36899.79
526.801	37465.03
527.003	37305.29
527.204	37567.43
527.406	37864.38
527.607	38038.46
527.808	37905.34
528.01	37622.72
528.211	38032.32
528.412	38394.81
528.614	38759.34
528.815	38632.37
529.016	38831.02
529.218	38724.53
529.419	38742.96
529.62	39031.72
529.822	38632.37
530.023	39062.44
530.224	39185.32
530.425	39599.01
530.626	38869.93
530.828	38718.39
531.029	39715.75
531.23	39193.51
531.431	39426.98
531.632	39791.52
531.833	39680.93
532.035	39439.27
532.236	39656.35
532.437	40100.76
532.638	39619.49
532.839	40051.61
533.04	40084.38
533.241	39513
533.442	40387.48
533.643	40166.3
533.844	40137.63
534.045	40235.93
534.246	40276.89
534.447	40530.84
534.648	40266.65
534.849	40190.87
535.05	40176.54
535.251	39908.26
535.451	39828.38
535.652	40567.7
535.853	40674.2
536.054	40428.44
536.255	40827.79
536.456	39953.31
536.657	40702.87
536.857	40539.03
537.058	40391.58
537.259	40844.18
537.46	40690.58
537.66	40760.21
537.861	40704.91
538.062	40520.6
538.263	40450.97
538.463	40184.73
538.664	40145.82
538.865	40725.39
539.065	41063.31
539.266	40065.95
539.466	40922
539.667	40317.85
539.868	40958.86
540.068	40764.31
540.269	40446.87
540.469	40948.62
540.67	40453.01
540.87	40614.8
541.071	40926.1
541.271	40790.93
541.472	40743.83
541.672	40928.14
541.873	40739.73
542.073	39973.79
542.274	40813.46
542.474	40526.74
542.675	40487.83
542.875	40676.24
543.075	40809.36
543.276	40170.4
543.476	41008.01
543.676	40410.01
543.877	40829.84
544.077	40776.59
544.277	40301.47
544.478	40633.24
544.678	41012.11
544.878	40493.97
545.078	40616.85
545.279	40192.92
545.479	40465.3
545.679	40717.2
545.879	40749.97
546.079	40588.18
546.28	40545.17
546.48	40209.31
546.68	40455.06
546.88	40819.6
547.08	40690.58
547.28	40670.1
547.48	40541.08
547.68	40934.29
547.88	40344.47
548.081	40694.68
548.281	40874.9
548.481	40192.92
548.681	40657.81
548.881	40709.01
549.081	40727.44
549.28	40418.2
549.48	40590.23
549.68	40395.67
549.88	40831.89
550.08	40547.22
550.28	40614.8
550.48	40950.67
550.68	40878.99
550.88	40489.88
551.08	40729.49
551.279	40321.94
551.479	40254.36
551.679	40528.79
551.879	40530.84
552.079	40866.7
552.278	40049.56
552.478	40649.62
552.678	40524.69
552.878	40633.24
553.077	40420.25
553.277	40129.44
553.477	40625.04
553.676	40522.65
553.876	40334.23
554.076	40070.04
554.275	40197.02
554.475	40018.85
554.674	40295.32
554.874	40596.37
555.074	40207.26
555.273	40536.98
555.473	40475.54
555.672	40182.68
555.872	40037.28
556.071	40598.42
556.271	40643.48
556.47	40147.87
556.67	39639.97
556.869	40129.44
557.068	40004.51
557.268	39695.27
557.467	39732.13
557.667	39910.3
557.866	40106.91
558.065	39502.76
558.265	39418.79
558.464	39725.99
558.663	40108.96
558.863	39099.31
559.062	40190.87
559.261	39207.85
559.461	39850.91
559.66	39154.6
559.859	39898.02
560.058	39312.3
560.258	39406.5
560.457	38771.63
560.656	39480.23
560.855	39066.54
561.054	39193.51
561.253	38826.93
561.453	39041.96
561.652	39005.1
561.851	39216.04
562.05	38902.7
562.249	38624.18
562.448	39420.84
562.647	39130.03
562.846	38910.89
563.045	38620.08
563.244	38673.33
563.443	38841.26
563.642	38091.71
563.841	38626.23
564.04	38355.89
564.239	38652.85
564.438	38583.22
564.637	38853.55
564.836	38499.25
565.035	37743.55
565.234	38284.22
565.432	37997.5
565.631	37927.87
565.83	38149.05
566.029	37608.39
566.228	37788.61
566.427	37370.82
566.625	37825.47
566.824	37274.57
567.023	37876.67
567.222	36903.88
567.42	37510.08
567.619	37368.77
567.818	37444.55
568.016	37110.73
568.215	37340.1
568.414	36897.74
568.612	37352.39
568.811	37002.19
569.01	36961.23
569.208	36144.09
569.407	36961.23
569.605	36664.27
569.804	37034.95
570.002	36064.22
570.201	36748.24
570.4	35777.5
570.598	35924.96
570.797	36000.73
570.995	36137.94
571.193	35482.59
571.392	36244.44
571.59	35566.56
571.789	35757.02
571.987	35857.37
572.186	35513.31
572.384	35437.54
572.582	35509.22
572.781	35460.07
572.979	34937.83
573.177	35050.47
573.376	35421.16
573.574	34677.74
573.772	34960.36
573.971	34597.87
574.169	34296.82
574.367	34507.76
574.565	35134.44
574.763	34591.73
574.962	34282.48
575.16	34049.02
575.358	34358.26
575.556	33944.57
575.754	34253.81
575.952	33473.54
576.151	33856.51
576.349	33483.78
576.547	33557.5
576.745	33453.06
576.943	33782.78
577.141	33596.42
577.339	33627.13
577.537	33014.79
577.735	33115.14
577.933	33205.25
578.131	33199.11
578.329	32924.68
578.527	32955.4
578.725	32959.5
578.923	32574.48
579.121	32603.15
579.319	32834.57
579.516	32545.81
579.714	32592.91
579.912	32338.96
580.11	32054.29
580.308	32345.11
580.506	32195.6
580.704	31505.44
580.901	32193.56
581.099	32330.77
581.297	31542.3
581.495	31671.32
581.692	31585.31
581.89	31120.42
582.088	31726.62
582.285	31183.91
582.483	31749.15
582.681	31097.89
582.878	31321.12
583.076	30977.06
583.274	31007.78
583.471	30682.16
583.669	30884.9
583.866	30921.77
584.064	30606.38
584.262	30456.88
584.459	30387.25
584.657	30121.01
584.854	30428.21
585.052	29744.19
585.249	30051.38
585.447	30037.05
585.644	30084.15
585.841	29918.26
586.039	29901.88
586.236	29703.23
586.434	29615.16
586.631	30026.81
586.828	29094.98
587.026	29586.49
587.223	29504.57
587.42	29307.97
587.618	29015.11
587.815	29217.86
588.012	28787.78
588.21	28841.03
588.407	29154.37
588.604	28560.46
588.801	28654.67
588.999	28793.93
589.196	28714.06
589.393	28644.43
589.59	28324.94
589.787	28222.55
589.984	28132.43
590.182	27765.85
590.379	28320.85
590.576	27905.11
590.773	27960.41
590.97	27468.89
591.167	27892.82
591.364	27348.06
591.561	27599.96
591.758	27255.9
591.955	27176.03
592.152	27511.9
592.349	27106.4
592.546	27001.96
592.743	26961
592.94	26483.82
593.137	27034.72
593.334	27163.75
593.531	26772.58
593.727	26612.84
593.924	26618.99
594.121	26463.34
594.318	26367.09
594.515	26109.04
594.712	26672.23
594.908	26289.26
595.105	26424.43
595.302	25992.31
595.499	25912.44
595.696	26242.16
595.892	25724.02
596.089	25904.24
596.286	25984.12
596.482	25795.7
596.679	25619.58
596.876	25373.82
597.072	25185.41
597.269	25558.14
597.466	25244.8
597.662	25097.35
597.859	25152.64
598.055	25277.57
598.252	24894.6
598.448	24759.43
598.645	24427.66
598.841	24671.37
599.038	24648.84
599.234	24517.77
599.431	24439.95
599.627	24468.62
599.824	24487.05
600.02	23956.63
600.217	24347.79
600.413	24122.51
600.609	23854.23
600.806	24091.79
601.002	24284.3
601.198	23850.13
601.395	23768.21
601.591	23692.44
601.787	23616.66
601.984	23567.51
602.18	23932.05
602.376	23583.9
602.572	23252.13
602.769	23528.6
602.965	23159.97
603.161	23112.86
603.357	23104.67
603.553	22623.4
603.75	23211.17
603.946	22852.77
604.142	22846.63
604.338	22518.95
604.534	22863.01
604.73	22248.62
604.926	22265
605.122	22826.15
605.318	22346.92
605.514	22576.3
605.71	22232.24
605.906	22166.7
606.102	22289.58
606.298	22248.62
606.494	22039.73
606.69	21912.75
606.886	22039.73
607.082	21589.17
607.278	21922.99
607.474	21464.25
607.67	21802.16
607.866	21034.18
608.062	21617.85
608.257	21386.43
608.453	21560.5
608.649	21365.95
608.845	21114.05
609.041	21214.4
609.236	21337.27
609.432	21435.58
609.628	21361.85
609.824	21036.22
610.019	20882.63
610.215	20911.3
610.411	20817.09
610.606	20630.73
610.802	20956.35
610.998	20954.3
611.193	20974.78
611.389	20579.53
611.584	20602.05
611.78	20432.07
611.976	20796.61
612.171	20479.18
612.367	20470.98
612.562	20538.57
612.758	20116.69
612.953	20249.8
613.149	20534.47
613.344	20323.53
613.539	20708.55
613.735	20110.54
613.93	20409.54
614.126	20038.86
614.321	20317.39
614.517	19987.66
614.712	19987.66
614.907	19866.83
615.103	20010.19
615.298	19758.29
615.493	20251.85
615.688	19547.35
615.884	19776.72
616.079	19676.37
616.274	19442.9
616.47	19449.05
616.665	19797.2
616.86	19481.81
617.055	19512.53
617.25	19191
617.445	19522.77
617.641	19188.96
617.836	19274.97
618.031	18965.73
618.226	19322.07
618.421	19000.54
618.616	19272.92
618.811	18752.74
619.006	19162.33
619.201	18642.15
619.396	18724.07
619.591	18359.53
619.786	18390.25
619.981	18070.76
620.176	18506.98
620.371	18296.04
620.566	18431.21
620.761	18267.37
620.956	18093.29
621.151	17700.08
621.346	18205.93
621.541	17861.87
621.735	17784.05
621.93	17450.23
622.125	17558.77
622.32	17272.06
622.515	17427.7
622.709	17399.03
622.904	17290.49
623.099	17128.7
623.294	17126.65
623.488	16803.07
623.683	16975.1
623.878	16672
624.072	16643.33
624.267	16708.87
624.462	16735.49
624.656	16407.81
624.851	16465.16
625.046	16282.89
625.24	16284.94
625.435	16176.39
625.629	16252.17
625.824	15703.31
626.018	15639.83
626.213	15379.73
626.407	15918.35
626.602	15414.55
626.796	15684.88
626.991	15459.6
627.185	15447.32
627.38	15283.48
627.574	15066.39
627.768	15195.42
627.963	15062.3
628.157	14703.9
628.352	14964
628.546	14847.26
628.74	15015.19
628.935	14437.67
629.129	15076.63
629.323	14437.67
629.517	14468.39
629.712	14357.8
629.906	14456.1
630.1	14269.73
630.294	14163.24
630.489	14028.07
630.683	14279.97
630.877	13837.61
631.071	13763.89
631.265	13942.06
631.459	13667.63
631.653	13536.56
631.848	13641.01
632.042	13337.91
632.236	13595.95
632.43	13178.17
632.624	13196.6
632.818	13251.89
633.012	12985.66
633.206	13018.43
633.4	12934.46
633.594	13022.52
633.788	12866.88
633.982	13022.52
634.176	12653.89
634.369	12688.7
634.563	12504.39
634.757	12547.39
634.951	12703.04
635.145	12322.12
635.339	12535.1
635.533	12209.48
635.726	12176.71
635.92	12152.13
636.114	11978.06
636.308	11814.22
636.501	11947.34
636.695	11775.31
636.889	11732.3
637.083	11724.11
637.276	11861.32
637.47	11707.73
637.664	11609.42
637.857	11404.63
638.051	11494.74
638.244	11421.01
638.438	11353.43
638.632	11312.47
638.825	11095.38
639.019	11060.57
639.212	10843.48
639.406	10970.46
639.599	10917.21
639.793	10876.25
639.986	10704.22
640.18	10878.3
640.373	10796.38
640.567	10554.72
640.76	10526.05
640.954	10388.83
641.147	10325.35
641.34	10548.58
641.534	10284.39
641.727	10247.52
641.92	10138.98
642.114	10136.93
642.307	9966.95
642.5	10048.87
642.694	9667.95
642.887	9780.59
643.08	9729.39
643.273	9657.71
643.467	9506.16
643.66	9801.07
643.853	9686.38
644.046	9612.65
644.239	9508.21
644.432	9659.76
644.626	9489.78
644.819	9497.97
645.012	9336.18
645.205	9344.37
645.398	9106.81
645.591	9059.7
645.784	9278.83
645.977	8869.24
646.17	8861.05
646.363	8949.11
646.556	8742.27
646.749	8766.84
646.942	8813.95
647.135	8775.03
647.328	8656.25
647.521	8656.25
647.714	8353.15
647.907	8519.04
648.099	8539.52
648.292	8353.15
648.485	8451.46
648.678	8422.78
648.871	8342.91
649.064	8191.36
649.256	8314.24
649.449	7994.76
649.642	8142.21
649.835	8164.74
650.027	8238.47
650.22	7869.83
650.413	7998.85
650.605	7894.41
650.798	7607.69
650.991	7798.15
651.183	7800.2
651.376	7624.08
651.568	7757.19
651.761	7667.08
651.954	7736.71
652.146	7613.84
652.339	7585.16
652.531	7419.28
652.724	7376.27
652.916	7284.11
653.109	7525.77
653.301	7310.74
653.494	7363.98
653.686	7153.04
653.879	7277.97
654.071	7181.71
654.263	6960.53
654.456	7136.66
654.648	7112.08
654.84	6960.53
655.033	7126.42
655.225	7046.55
655.417	6802.84
655.61	6933.91
655.802	6964.63
655.994	6835.61
656.186	6802.84
656.379	6739.35
656.571	6610.33
656.763	6710.68
656.955	6725.02
657.148	6622.62
657.34	6575.52
657.532	6466.97
657.724	6542.75
657.916	6563.23
658.108	6516.12
658.3	6415.77
658.492	6374.81
658.684	6284.7
658.876	6305.18
659.068	6268.32
659.26	6243.74
659.452	6102.43
659.644	6204.83
659.836	6002.08
660.028	6096.29
660.22	5983.65
660.412	5991.84
660.604	6053.28
660.796	6114.72
660.988	5934.5
661.18	5793.19
661.372	5871.01
661.563	5995.94
661.755	5842.34
661.947	5836.2
662.139	5776.81
662.331	5617.07
662.522	5596.59
662.714	5698.99
662.906	5778.86
663.097	5555.63
663.289	5541.29
663.481	5459.37
663.673	5492.14
663.864	5402.03
664.056	5440.94
664.247	5426.61
664.439	5305.78
664.631	5356.97
664.822	5262.77
665.014	5295.54
665.205	5383.6
665.397	5240.24
665.588	5209.52
665.78	5189.04
665.971	5012.92
666.163	5189.04
666.354	5105.07
666.546	5072.31
666.737	5076.4
666.929	5068.21
667.12	5119.41
667.311	5006.77
667.503	4945.33
667.694	4883.89
667.885	4937.14
668.077	4847.03
668.268	4756.92
668.459	5000.63
668.651	4935.09
668.842	4853.17
669.033	4730.3
669.224	4646.33
669.416	4931
669.607	4709.82
669.798	4629.95
669.989	4840.89
670.18	4490.68
670.371	4672.95
670.563	4615.61
670.754	4574.65
670.945	4668.86
671.136	4611.51
671.327	4486.59
671.518	4558.27
671.709	4457.92
671.9	4578.75
672.091	4582.84
672.282	4521.4
672.473	4402.62
672.664	4443.58
672.855	4419
673.046	4492.73
673.237	4285.89
673.428	4332.99
673.619	4439.48
673.809	4482.49
674	4318.65
674.191	4435.39
674.382	4134.34
674.573	4242.88
674.764	4287.93
674.954	4095.43
675.145	4296.13
675.336	4251.07
675.527	4044.23
675.717	4265.41
675.908	4058.56
676.099	4367.81
676.289	4212.16
676.48	4120
676.671	4238.78
676.861	4019.65
677.052	4033.99
677.243	4081.09
677.433	4197.82
677.624	4296.13
677.814	3999.17
678.005	4126.15
678.195	4120
678.386	4081.09
678.576	3921.35
678.767	4214.21
678.957	3999.17
679.148	4050.37
679.338	4015.55
679.529	3999.17
679.719	4062.66
679.909	3950.02
680.1	4017.6
680.29	3909.06
680.481	4087.23
680.671	4048.32
680.861	3954.12
681.052	3954.12
681.242	3952.07
681.432	4033.99
681.622	3921.35
681.813	3868.1
682.003	3958.21
682.193	4031.94
682.383	3958.21
682.573	3947.97
682.764	3937.73
682.954	3851.72
683.144	3884.48
683.334	3718.6
683.524	3880.39
683.714	3962.31
683.904	3786.18
684.094	3839.43
684.284	3933.64
684.474	3894.72
684.664	3712.46
684.854	3894.72
685.044	3595.72
685.234	3786.18
685.424	3724.74
685.614	3864.01
685.804	3646.92
685.994	3749.32
686.184	3773.89
686.374	3806.66
686.564	3663.3
686.753	3708.36
686.943	3741.13
687.133	3827.14
687.323	3585.48
687.513	3683.78
687.702	3661.26
687.892	3646.92
688.082	3624.39
688.272	3614.15
688.461	3630.54
688.651	3550.67
688.841	3517.9
689.03	3442.12
689.22	3536.33
689.41	3585.48
689.599	3554.76
689.789	3544.52
689.979	3476.94
690.168	3655.11
690.358	3458.51
690.547	3556.81
690.737	3419.6
690.926	3456.46
691.116	3302.86
691.305	3605.96
691.495	3378.64
691.684	3466.7
691.874	3415.5
692.063	3319.25
692.252	3358.16
692.442	3444.17
692.631	3159.5
692.82	3309.01
693.01	3345.87
693.199	3266
693.388	3337.68
693.578	3347.92
693.767	3167.7
693.956	3286.48
694.146	3419.6
694.335	3257.81
694.524	3237.33
694.713	3392.97
694.902	3220.94
695.092	3175.89
695.281	3259.85
695.47	3229.13
695.659	3196.37
695.848	3263.95
696.037	3286.48
696.226	3210.7
696.415	3261.9
696.604	3237.33
696.793	3165.65
696.982	3085.78
697.171	3198.42
697.36	3270.09
697.549	3163.6
697.738	3222.99
697.927	3182.03
698.116	3290.57
698.305	3214.8
698.494	3319.25
698.683	3210.7
698.872	3300.81
699.061	3186.13
699.25	3128.78
699.438	3139.02
699.627	3192.27
699.816	3255.76
700.005	3220.94
700.193	3081.68
700.382	3169.74
700.571	3079.63
700.76	3190.22
700.948	3208.66
701.137	3175.89
701.326	3163.6
701.514	3192.27
701.703	3026.39
701.892	3179.98
702.08	3149.26
702.269	3196.37
702.457	3112.4
702.646	3132.88
702.834	3108.3
703.023	3063.25
703.212	3022.29
703.4	3036.63
703.589	3141.07
703.777	3034.58
703.965	3020.24
704.154	3055.06
704.342	3132.88
704.531	3075.54
704.719	3007.95
704.907	3093.97
705.096	2993.62
705.284	2958.8
705.472	2989.52
705.661	3036.63
705.849	3194.32
706.037	3026.39
706.226	3038.67
706.414	3048.91
706.602	3034.58
706.79	3206.61
706.979	3141.07
707.167	3055.06
707.355	3048.91
707.543	3081.68
707.731	2997.71
707.919	3036.63
708.107	3026.39
708.296	2862.55
708.484	3036.63
708.672	3003.86
708.86	2936.28
709.048	2956.75
709.236	2969.04
709.424	2969.04
709.612	3012.05
709.8	2915.8
709.988	3032.53
710.176	3010
710.364	2919.89
710.551	2856.4
710.739	2942.42
710.927	2880.98
711.115	3018.19
711.303	2971.09
711.491	2960.85
711.679	2952.66
711.866	2942.42
712.054	3024.34
712.242	2926.04
712.43	2987.47
712.617	3024.34
712.805	3046.87
712.993	2928.08
713.181	2893.27
713.368	2887.12
713.556	3003.86
713.744	2889.17
713.931	2950.61
714.119	2852.31
714.306	2940.37
714.494	2909.65
714.682	2885.08
714.869	2854.36
715.057	2803.16
715.244	2950.61
715.432	2973.14
715.619	2977.23
715.807	2991.57
715.994	2909.65
716.182	2833.88
716.369	2960.85
716.556	2749.91
716.744	2786.77
716.931	2794.97
717.119	2794.97
717.306	2766.29
717.493	2846.16
717.681	2745.81
717.868	2844.12
718.055	2856.4
718.242	2790.87
718.43	2846.16
718.617	2833.88
718.804	2862.55
718.991	2817.49
719.179	2844.12
719.366	2784.73
719.553	2921.94
719.74	2760.15
719.927	2811.35
720.114	2747.86
720.301	2784.73
720.488	2704.85
720.676	2893.27
720.863	2711
721.05	2725.33
721.237	2758.1
721.424	2708.95
721.611	2745.81
721.798	2766.29
721.985	2786.77
722.172	2739.67
722.358	2739.67
722.545	2708.95
722.732	2754.01
722.919	2809.3
723.106	2745.81
723.293	2758.1
723.48	2819.54
723.667	2663.9
723.853	2702.81
724.04	2688.47
724.227	2745.81
724.414	2579.93
724.6	2680.28
724.787	2653.66
724.974	2727.38
725.161	2665.94
725.347	2670.04
725.534	2682.33
725.72	2700.76
725.907	2641.37
726.094	2688.47
726.28	2725.33
726.467	2594.26
726.653	2549.21
726.84	2651.61
727.027	2706.9
727.213	2629.08
727.4	2698.71
727.586	2596.31
727.773	2651.61
727.959	2676.18
728.145	2717.14
728.332	2559.45
728.518	2725.33
728.705	2686.42
728.891	2690.52
729.077	2541.02
729.264	2649.56
729.45	2647.51
729.636	2618.84
729.823	2667.99
730.009	2577.88
730.195	2647.51
730.382	2614.74
730.568	2694.61
730.754	2569.69
730.94	2627.03
731.126	2786.77
731.313	2514.39
731.499	2495.96
731.685	2614.74
731.871	2495.96
732.057	2590.17
732.243	2563.54
732.429	2565.59
732.615	2553.31
732.801	2573.78
732.987	2481.63
733.173	2457.05
733.359	2600.41
733.545	2450.91
733.731	2422.24
733.917	2495.96
734.103	2514.39
734.289	2450.91
734.475	2469.34
734.661	2551.26
734.847	2373.08
735.033	2457.05
735.219	2520.54
735.404	2579.93
735.59	2444.76
735.776	2487.77
735.962	2391.52
736.148	2483.67
736.333	2624.98
736.519	2412
736.705	2518.49
736.89	2356.7
737.076	2330.08
737.262	2352.6
737.447	2342.36
737.633	2344.41
737.819	2338.27
738.004	2346.46
738.19	2438.62
738.375	2455
738.561	2450.91
738.747	2436.57
738.932	2287.07
739.118	2405.85
739.303	2270.69
739.489	2289.12
739.674	2274.78
739.859	2375.13
740.045	2301.4
740.23	2342.36
740.416	2213.34
740.601	2295.26
740.786	2207.2
740.972	2237.92
741.157	2328.03
741.342	2205.15
741.528	2215.39
741.713	2182.62
741.898	2199.01
742.084	2313.69
742.269	2252.25
742.454	2162.14
742.639	2160.1
742.824	2188.77
743.01	2172.38
743.195	2182.62
743.38	2164.19
743.565	2088.42
743.75	2127.33
743.935	2119.14
744.12	2133.47
744.305	1938.91
744.49	2135.52
744.675	2055.65
744.86	2069.98
745.045	2088.42
745.23	2203.1
745.415	1967.59
745.6	2061.79
745.785	2016.74
745.97	2045.41
746.155	1998.31
746.34	1967.59
746.525	2014.69
746.71	1963.49
746.895	1988.07
747.079	1953.25
747.264	1912.29
747.449	1971.68
747.634	1953.25
747.819	1766.89
748.003	1920.48
748.188	1877.48
748.373	1932.77
748.557	1803.75
748.742	1908.19
748.927	1758.69
749.111	1752.55
749.296	1816.04
749.481	1787.36
749.665	1795.56
749.85	1738.21
750.034	1785.32
750.219	1795.56
750.404	1760.74
750.588	1633.77
750.773	1760.74
750.957	1719.78
751.141	1662.44
751.326	1576.42
751.51	1633.77
751.695	1668.58
751.879	1570.28
752.064	1670.63
752.248	1639.91
752.432	1607.14
752.617	1619.43
752.801	1592.81
752.985	1629.67
753.17	1592.81
753.354	1508.84
753.538	1580.52
753.722	1457.64
753.907	1568.23
754.091	1502.7
754.275	1441.26
754.459	1572.33
754.643	1435.11
754.828	1426.92
755.012	1418.73
755.196	1385.96
755.38	1408.49
755.564	1521.13
755.748	1371.63
755.932	1371.63
756.116	1414.63
756.3	1363.44
756.484	1324.52
756.668	1461.74
756.852	1336.81
757.036	1269.23
757.22	1308.14
757.404	1246.7
757.588	1338.86
757.772	1338.86
757.956	1277.42
758.14	1302
758.323	1320.43
758.507	1297.9
758.691	1328.62
758.875	1342.96
759.059	1392.11
759.242	1293.8
759.426	1236.46
759.61	1213.93
759.794	1222.13
759.977	1273.32
760.161	1345
760.345	1310.19
760.528	1152.49
760.712	1193.45
760.895	1121.77
761.079	1115.63
761.263	1170.93
761.446	1089.01
761.63	1103.34
761.813	1197.55
761.997	1168.88
762.18	1148.4
762.364	1164.78
762.547	1023.47
762.731	992.75
762.914	1146.35
763.098	1097.2
763.281	1142.25
763.464	1091.06
763.648	1107.44
763.831	1136.11
764.015	1113.58
764.198	1107.44
764.381	1015.28
764.564	1027.57
764.748	1091.06
764.931	1025.52
765.114	1095.15
765.297	1156.59
765.481	1039.86
765.664	1058.29
765.847	964.08
766.03	976.37
766.213	1086.96
766.397	1041.9
766.58	1011.18
766.763	998.9
766.946	931.31
767.129	988.66
767.312	1027.57
767.495	1050.1
767.678	986.61
767.861	986.61
768.044	978.42
768.227	988.66
768.41	933.36
768.593	929.27
768.776	910.83
768.959	835.06
769.142	966.13
769.324	916.98
769.507	986.61
769.69	900.59
769.873	851.44
770.056	904.69
770.239	943.6
770.421	1005.04
770.604	814.58
770.787	962.03
770.97	910.83
771.152	828.92
771.335	859.63
771.518	826.87
771.7	845.3
771.883	929.27
772.066	923.12
772.248	876.02
772.431	837.11
772.613	859.63
772.796	857.59
772.978	740.85
773.161	843.25
773.343	747
773.526	814.58
773.708	884.21
773.891	783.86
774.073	841.2
774.256	677.37
774.438	853.49
774.621	804.34
774.803	796.15
774.985	742.9
775.168	798.2
775.35	742.9
775.532	765.43
775.715	753.14
775.897	730.61
776.079	773.62
776.261	785.91
776.444	785.91
776.626	734.71
776.808	695.8
776.99	796.15
777.173	689.65
777.355	679.41
777.537	779.76
777.719	716.28
777.901	693.75
778.083	742.9
778.265	632.31
778.447	736.76
778.629	644.6
778.811	642.55
778.993	587.26
779.175	728.56
779.357	599.54
779.539	665.08
779.721	644.6
779.903	632.31
780.085	568.82
780.267	632.31
780.449	550.39
780.631	613.88
780.812	699.89
780.994	593.4
781.176	626.17
781.358	632.31
781.54	583.16
781.721	593.4
781.903	617.97
782.085	507.38
782.267	546.3
782.448	552.44
782.63	542.2
782.812	620.02
782.993	558.58
783.175	613.88
783.357	529.91
783.538	591.35
783.72	564.73
783.901	472.57
784.083	476.66
784.264	468.47
784.446	529.91
784.627	390.65
784.809	540.15
784.99	454.14
785.172	577.02
785.353	531.96
785.535	439.8
785.716	519.67
785.897	513.53
786.079	493.05
786.26	460.28
786.441	501.24
786.623	435.71
786.804	536.06
786.985	409.08
787.167	462.33
787.348	460.28
787.529	445.95
787.71	509.43
787.891	452.09
788.073	427.51
788.254	409.08
788.435	501.24
788.616	462.33
788.797	402.94
788.978	431.61
789.159	411.13
789.34	415.23
789.522	427.51
789.703	370.17
789.884	439.8
790.065	415.23
790.246	333.31
790.427	398.84
790.607	357.88
790.788	437.75
790.969	380.41
791.15	366.07
791.331	402.94
791.512	353.79
791.693	318.97
791.874	386.55
792.054	488.95
792.235	357.88
792.416	263.68
792.597	433.66
792.778	380.41
792.958	341.5
793.139	298.49
793.32	386.55
793.5	323.07
793.681	374.27
793.862	335.35
794.042	341.5
794.223	368.12
794.404	400.89
794.584	282.11
794.765	306.68
794.945	351.74
795.126	304.64
795.306	361.98
795.487	353.79
795.667	325.12
795.848	361.98
796.028	296.44
796.209	347.64
796.389	278.01
796.57	284.16
796.75	280.06
796.93	335.35
797.111	251.39
797.291	284.16
797.471	273.92
797.652	261.63
797.832	337.4
798.012	302.59
798.192	314.88
798.373	353.79
798.553	181.76
798.733	286.2
798.913	337.4
799.093	288.25
799.274	292.35
799.454	300.54
799.634	357.88
799.814	312.83
799.994	361.98
800.174	263.68
800.354	245.24
800.534	298.49
800.714	290.3
800.894	192
801.074	157.18
801.254	212.48
801.434	257.53
801.614	302.59
801.794	253.44
801.974	646.65
802.154	192
802.334	298.49
802.514	212.48
802.693	243.2
802.873	228.86
803.053	269.82
803.233	288.25
803.413	292.35
803.592	235
803.772	200.19
803.952	239.1
804.131	316.92
804.311	296.44
804.491	216.57
804.67	142.85
804.85	187.9
805.03	294.4
805.209	230.91
805.389	204.28
805.568	263.68
805.748	210.43
805.928	224.76
806.107	210.43
806.287	206.33
806.466	302.59
806.646	192
806.825	138.75
807.004	194.05
807.184	261.63
807.363	282.11
807.543	271.87
807.722	206.33
807.901	192
808.081	228.86
808.26	151.04
808.439	212.48
808.619	247.29
808.798	241.15
808.977	271.87
809.156	200.19
809.336	157.18
809.515	288.25
809.694	146.94
809.873	247.29
810.052	247.29
810.231	226.81
810.411	157.18
810.59	171.52
810.769	138.75
810.948	230.91
811.127	167.42
811.306	161.28
811.485	187.9
811.664	247.29
811.843	159.23
812.022	185.85
812.201	169.47
812.38	105.98
812.559	187.9
812.737	151.04
812.916	187.9
813.095	112.13
813.274	167.42
813.453	99.84
813.632	192
813.811	210.43
813.989	105.98
814.168	181.76
814.347	245.24
814.526	202.24
814.704	130.56
814.883	206.33
815.062	185.85
815.24	112.13
815.419	134.65
815.598	192
815.776	173.57
815.955	282.11
816.133	83.45
816.312	146.94
816.49	192
816.669	112.13
816.847	202.24
817.026	103.93
817.204	134.65
817.383	128.51
817.561	112.13
817.74	181.76
817.918	181.76
818.097	130.56
818.275	151.04
818.453	124.41
818.632	124.41
818.81	179.71
818.988	175.61
819.167	116.22
819.345	132.61
819.523	157.18
819.701	165.37
819.879	167.42
820.058	183.81
820.236	177.66
820.414	173.57
820.592	136.7
820.77	148.99
820.948	151.04
821.127	58.88
821.305	126.46
821.483	93.69
821.661	167.42
821.839	177.66
822.017	110.08
822.195	214.52
822.373	95.74
822.551	116.22
822.729	189.95
822.907	153.09
823.085	44.54
823.262	85.5
823.44	112.13
823.618	105.98
823.796	122.37
823.974	148.99
824.152	132.61
824.329	97.79
824.507	142.85
824.685	95.74
824.863	89.6
825.04	151.04
825.218	56.83
825.396	95.74
825.574	118.27
825.751	79.36
825.929	134.65
826.107	81.41
826.284	103.93
826.462	130.56
826.639	101.89
826.817	87.55
826.994	62.98
827.172	44.54
827.349	169.47
827.527	81.41
827.704	132.61
827.882	138.75
828.059	91.65
828.237	146.94
828.414	138.75
828.591	148.99
828.769	153.09
828.946	181.76
829.124	97.79
829.301	108.03
829.478	81.41
829.655	71.17
829.833	97.79
830.01	71.17
830.187	40.45
830.364	77.31
830.542	140.8
830.719	93.69
830.896	62.98
831.073	132.61
831.25	116.22
831.427	105.98
831.604	38.4
831.782	11.78
831.959	171.52
832.136	58.88
832.313	50.69
832.49	105.98
832.667	83.45
832.844	46.59
833.021	116.22
833.198	81.41
833.374	77.31
833.551	73.21
833.728	85.5
833.905	71.17
834.082	122.37
834.259	1.54
834.436	95.74
834.612	22.02
834.789	138.75
834.966	42.5
835.143	73.21
835.319	97.79
835.496	126.46
835.673	87.55
835.85	128.51
836.026	110.08
836.203	40.45
836.38	110.08
836.556	108.03
836.733	48.64
836.909	89.6
837.086	79.36
837.262	69.12
837.439	42.5
837.616	89.6
837.792	42.5
837.968	103.93
838.145	99.84
838.321	79.36
838.498	103.93
838.674	58.88
838.851	75.26
839.027	114.17
839.203	163.33
839.38	103.93
839.556	105.98
839.732	120.32
839.909	40.45
840.085	17.92
840.261	124.41
840.437	116.22
840.614	122.37
840.79	110.08
840.966	108.03
841.142	114.17
841.318	40.45
841.494	38.4
841.671	71.17
841.847	103.93
842.023	71.17
842.199	58.88
842.375	32.26
842.551	65.02
842.727	114.17
842.903	114.17
843.079	89.6
843.255	124.41
843.431	91.65
843.607	44.54
843.783	-10.75
843.959	105.98
844.134	89.6
844.31	44.54
844.486	34.3
844.662	81.41
844.838	60.93
845.013	34.3
845.189	69.12
845.365	42.5
845.541	93.69
845.716	32.26
845.892	75.26
846.068	36.35
846.244	93.69
846.419	83.45
846.595	46.59
846.77	19.97
846.946	77.31
847.122	95.74
847.297	3.58
847.473	118.27
847.648	15.87
847.824	138.75
847.999	-4.61
848.175	85.5
848.35	120.32
848.526	97.79
848.701	22.02
848.876	67.07
849.052	11.78
849.227	79.36
849.403	30.21
849.578	85.5
849.753	134.65
849.929	85.5
850.104	3.58
850.279	36.35
850.454	77.31
850.63	26.11
850.805	60.93
850.98	17.92
851.155	36.35
851.33	-80.38
851.505	-8.7
851.681	17.92
851.856	1.54
852.031	83.45
852.206	62.98
852.381	-70.14
852.556	105.98
852.731	17.92
852.906	97.79
853.081	-2.56
853.256	97.79
853.431	38.4
853.606	73.21
853.781	1.54
853.956	65.02
854.131	128.51
854.305	-4.61
854.48	17.92
854.655	75.26
854.83	-12.8
855.005	81.41
855.18	7.68
855.354	13.82
855.529	75.26
855.704	42.5
855.879	99.84
856.053	-27.14
856.228	75.26
856.403	30.21
856.577	67.07
856.752	-2.56
856.926	-2.56
857.101	17.92
857.276	75.26
857.45	24.06
857.625	95.74
857.799	22.02
857.974	46.59
858.148	32.26
858.323	89.6
858.497	1.54
858.672	11.78
858.846	9.73
859.02	71.17
859.195	-23.04
859.369	62.98
859.543	3.58
859.718	34.3
859.892	50.69
860.066	71.17
860.241	-10.75
860.415	58.88
860.589	93.69
860.763	26.11
860.938	5.63
861.112	54.78
861.286	28.16
861.46	77.31
861.634	11.78
861.808	67.07
861.982	97.79
862.157	32.26
862.331	46.59
862.505	26.11
862.679	60.93
862.853	48.64
863.027	46.59
863.201	69.12
863.375	83.45
863.549	50.69
863.722	56.83
863.896	44.54
864.07	54.78
864.244	93.69
864.418	11.78
864.592	87.55
864.766	52.74
864.939	71.17
865.113	99.84
865.287	87.55
865.461	-25.09
865.634	32.26
865.808	11.78
865.982	81.41
866.156	40.45
866.329	81.41
866.503	13.82
866.676	-6.66
866.85	30.21
867.024	67.07
867.197	-25.09
867.371	26.11
867.544	97.79
867.718	24.06
867.891	97.79
868.065	32.26
868.238	75.26
868.412	83.45
868.585	13.82
868.759	17.92
868.932	15.87
869.105	36.35
869.279	56.83
869.452	19.97
869.625	19.97
869.799	24.06
869.972	19.97
870.145	65.02
870.319	-37.38
870.492	60.93
870.665	38.4
870.838	-29.18
871.011	69.12
871.185	-43.52
871.358	56.83
871.531	46.59
871.704	122.37
871.877	71.17
872.05	34.3
872.223	-18.94
872.396	42.5
872.569	69.12
872.742	-14.85
872.915	-6.66
873.088	15.87
873.261	11.78
873.434	19.97
873.607	60.93
873.78	52.74
873.953	24.06
874.126	58.88
874.299	42.5
874.471	-8.7
874.644	-25.09
874.817	52.74
874.99	75.26
875.163	46.59
875.335	15.87
875.508	-10.75
875.681	95.74
875.853	15.87
876.026	-4.61
876.199	5.63
876.371	-14.85
876.544	-43.52
876.717	48.64
876.889	19.97
877.062	30.21
877.234	3.58
877.407	-10.75
877.579	1.54
877.752	17.92
877.924	75.26
878.097	-0.51
878.269	-35.33
878.442	87.55
878.614	-0.51
878.786	36.35
878.959	46.59
879.131	-8.7
879.303	5.63
879.476	48.64
879.648	56.83
879.82	56.83
879.993	-57.86
880.165	-55.81
880.337	-6.66
880.509	62.98
880.681	1.54
880.854	17.92
881.026	28.16
881.198	50.69
881.37	50.69
881.542	5.63
881.714	65.02
881.886	34.3
882.058	44.54
882.23	13.82
882.402	50.69
882.574	34.3
882.746	19.97
882.918	79.36
883.09	9.73
883.262	-33.28
883.434	22.02
883.606	-14.85
883.778	93.69
883.95	110.08
884.122	5.63
884.293	89.6
884.465	-35.33
884.637	83.45
884.809	40.45
884.98	54.78
885.152	73.21
885.324	95.74
885.496	-31.23
885.667	5.63
885.839	-29.18
886.011	52.74
886.182	26.11
886.354	44.54
886.525	56.83
886.697	114.17
886.869	-2.56
887.04	75.26
887.212	-4.61
887.383	-2.56
887.555	32.26
887.726	-14.85
887.897	-0.51
888.069	17.92
888.24	28.16
888.412	-18.94
888.583	3.58
888.754	36.35
888.926	-18.94
889.097	46.59
889.268	28.16
889.44	24.06
889.611	91.65
889.782	-16.9
889.953	13.82
890.125	83.45
890.296	-20.99
890.467	22.02
890.638	-12.8
890.809	40.45
890.98	-12.8
891.151	-16.9
891.323	30.21
891.494	46.59
891.665	15.87
891.836	13.82
892.007	26.11
892.178	42.5
892.349	13.82
892.52	-18.94
892.691	54.78
892.862	26.11
893.032	38.4
893.203	-6.66
893.374	30.21
893.545	114.17
893.716	42.5
893.887	-0.51
894.057	9.73
894.228	103.93
894.399	19.97
894.57	28.16
894.74	-2.56
894.911	24.06
895.082	3.58
895.253	28.16
895.423	36.35
895.594	9.73
895.764	-20.99
895.935	69.12
896.106	3.58
896.276	75.26
896.447	69.12
896.617	-6.66
896.788	32.26
896.958	44.54
897.129	13.82
897.299	30.21
897.47	58.88
897.64	48.64
897.81	73.21
897.981	48.64
898.151	15.87
898.322	5.63
898.492	58.88
898.662	-35.33
898.832	36.35
899.003	99.84
899.173	1.54
899.343	-74.24
899.513	28.16
