Data from USB4F104151__14__11-51-12-691.txt Node

Date: Fri Mar 14 11:51:12 EDT 2025
User: louis
Spectrometer: USB4F10415
Trigger mode: 4
Integration Time (sec): 2.000000E-2
Scans to average: 1
Electric dark correction enabled: true
Nonlinearity correction enabled: false
Boxcar width: 0
XAxis mode: Wavelengths
Number of Pixels in Spectrum: 3648
>>>>>Begin Spectral Data<<<<<
178.204	-73.56
178.424	-73.56
178.644	-73.56
178.864	14.51
179.084	-77.65
179.304	-61.27
179.524	2.22
179.744	57.51
179.964	39.08
180.184	-75.6
180.404	69.8
180.624	-26.45
180.844	18.6
181.064	0.17
181.283	-73.56
181.503	4.27
181.723	45.23
181.943	-16.21
182.163	43.18
182.383	16.55
182.602	71.85
182.822	67.75
183.042	43.18
183.262	-3.93
183.482	-1.88
183.701	32.94
183.921	61.61
184.141	0.17
184.361	53.42
184.58	57.51
184.8	53.42
185.02	10.41
185.239	86.19
185.459	-26.45
185.679	51.37
185.898	4.27
186.118	110.76
186.338	18.6
186.557	57.51
186.777	61.61
186.997	39.08
187.216	43.18
187.436	65.71
187.655	8.36
187.875	43.18
188.095	16.55
188.314	82.09
188.534	43.18
188.753	16.55
188.973	71.85
189.192	80.04
189.412	8.36
189.631	-16.21
189.851	-46.93
190.07	94.38
190.29	-55.12
190.509	59.56
190.729	-14.17
190.948	20.65
191.168	112.81
191.387	121
191.607	-26.45
191.826	57.51
192.045	88.23
192.265	37.03
192.484	-16.21
192.704	55.47
192.923	32.94
193.142	157.86
193.362	18.6
193.581	-1.88
193.8	-87.89
194.02	30.89
194.239	22.7
194.458	26.79
194.678	6.31
194.897	12.46
195.116	37.03
195.335	84.14
195.555	8.36
195.774	24.75
195.993	30.89
196.212	12.46
196.432	-38.74
196.651	-8.02
196.87	53.42
197.089	12.46
197.308	26.79
197.528	-40.79
197.747	51.37
197.966	59.56
198.185	0.17
198.404	8.36
198.623	49.32
198.842	0.17
199.062	77.99
199.281	100.52
199.5	-51.03
199.719	-24.4
199.938	51.37
200.157	-30.55
200.376	43.18
200.595	34.99
200.814	10.41
201.033	0.17
201.252	-36.69
201.471	47.27
201.69	98.47
201.909	24.75
202.128	69.8
202.347	80.04
202.566	71.85
202.785	-14.17
203.004	39.08
203.223	116.9
203.442	77.99
203.661	4.27
203.879	43.18
204.098	41.13
204.317	20.65
204.536	24.75
204.755	4.27
204.974	-16.21
205.193	59.56
205.411	43.18
205.63	30.89
205.849	39.08
206.068	-5.97
206.287	-5.97
206.505	69.8
206.724	51.37
206.943	-8.02
207.162	-16.21
207.381	32.94
207.599	4.27
207.818	84.14
208.037	80.04
208.255	43.18
208.474	32.94
208.693	65.71
208.911	63.66
209.13	39.08
209.349	30.89
209.567	45.23
209.786	63.66
210.005	-14.17
210.223	104.62
210.442	12.46
210.661	32.94
210.879	67.75
211.098	8.36
211.316	67.75
211.535	104.62
211.753	84.14
211.972	4.27
212.191	28.84
212.409	69.8
212.628	75.95
212.846	22.7
213.065	104.62
213.283	-5.97
213.502	-61.27
213.72	22.7
213.938	-1.88
214.157	75.95
214.375	-53.08
214.594	53.42
214.812	4.27
215.031	0.17
215.249	84.14
215.467	92.33
215.686	51.37
215.904	94.38
216.122	77.99
216.341	118.95
216.559	57.51
216.778	104.62
216.996	-38.74
217.214	24.75
217.432	6.31
217.651	43.18
217.869	82.09
218.087	43.18
218.306	14.51
218.524	86.19
218.742	43.18
218.96	2.22
219.179	47.27
219.397	104.62
219.615	61.61
219.833	106.67
220.051	2.22
220.27	65.71
220.488	86.19
220.706	-24.4
220.924	-24.4
221.142	16.55
221.36	59.56
221.578	-16.21
221.796	6.31
222.015	30.89
222.233	41.13
222.451	86.19
222.669	75.95
222.887	121
223.105	65.71
223.323	41.13
223.541	-59.22
223.759	94.38
223.977	49.32
224.195	86.19
224.413	45.23
224.631	43.18
224.849	57.51
225.067	121
225.285	63.66
225.503	82.09
225.721	59.56
225.939	77.99
226.157	12.46
226.375	57.51
226.592	20.65
226.81	47.27
227.028	39.08
227.246	63.66
227.464	-18.26
227.682	34.99
227.9	102.57
228.117	20.65
228.335	75.95
228.553	34.99
228.771	71.85
228.989	26.79
229.206	84.14
229.424	10.41
229.642	45.23
229.86	26.79
230.077	49.32
230.295	6.31
230.513	82.09
230.731	80.04
230.948	80.04
231.166	59.56
231.384	51.37
231.601	-3.93
231.819	55.47
232.037	-5.97
232.254	18.6
232.472	65.71
232.689	41.13
232.907	43.18
233.125	-3.93
233.342	22.7
233.56	16.55
233.777	45.23
233.995	90.28
234.213	108.71
234.43	-3.93
234.648	28.84
234.865	22.7
235.083	47.27
235.3	34.99
235.518	71.85
235.735	34.99
235.953	82.09
236.17	-3.93
236.388	-3.93
236.605	39.08
236.822	34.99
237.04	41.13
237.257	43.18
237.475	18.6
237.692	53.42
237.909	28.84
238.127	47.27
238.344	-3.93
238.562	12.46
238.779	61.61
238.996	26.79
239.214	45.23
239.431	-63.32
239.648	4.27
239.865	18.6
240.083	10.41
240.3	-5.97
240.517	34.99
240.735	32.94
240.952	18.6
241.169	-46.93
241.386	30.89
241.603	75.95
241.821	69.8
242.038	55.47
242.255	6.31
242.472	18.6
242.689	39.08
242.907	75.95
243.124	98.47
243.341	-38.74
243.558	49.32
243.775	14.51
243.992	39.08
244.209	45.23
244.426	-34.64
244.643	43.18
244.86	53.42
245.078	61.61
245.295	-24.4
245.512	96.43
245.729	28.84
245.946	10.41
246.163	-1.88
246.38	96.43
246.597	-32.6
246.814	12.46
247.031	47.27
247.248	57.51
247.464	26.79
247.681	10.41
247.898	34.99
248.115	84.14
248.332	-59.22
248.549	30.89
248.766	22.7
248.983	-1.88
249.2	49.32
249.417	28.84
249.633	39.08
249.85	34.99
250.067	-53.08
250.284	75.95
250.501	51.37
250.717	2.22
250.934	71.85
251.151	53.42
251.368	69.8
251.585	53.42
251.801	69.8
252.018	53.42
252.235	43.18
252.451	-53.08
252.668	49.32
252.885	63.66
253.102	73.9
253.318	30.89
253.535	49.32
253.752	-12.12
253.968	80.04
254.185	61.61
254.401	-24.4
254.618	110.76
254.835	16.55
255.051	80.04
255.268	28.84
255.484	32.94
255.701	20.65
255.917	63.66
256.134	26.79
256.351	-38.74
256.567	-20.31
256.784	14.51
257	-8.02
257.217	41.13
257.433	55.47
257.65	-16.21
257.866	75.95
258.082	14.51
258.299	-3.93
258.515	67.75
258.732	39.08
258.948	8.36
259.165	32.94
259.381	43.18
259.597	10.41
259.814	61.61
260.03	34.99
260.246	82.09
260.463	-10.07
260.679	41.13
260.895	6.31
261.112	67.75
261.328	24.75
261.544	96.43
261.761	94.38
261.977	75.95
262.193	-10.07
262.409	41.13
262.626	92.33
262.842	24.75
263.058	49.32
263.274	88.23
263.49	75.95
263.707	22.7
263.923	47.27
264.139	65.71
264.355	45.23
264.571	143.53
264.787	43.18
265.004	43.18
265.22	4.27
265.436	43.18
265.652	-12.12
265.868	47.27
266.084	59.56
266.3	57.51
266.516	53.42
266.732	39.08
266.948	51.37
267.164	12.46
267.38	57.51
267.596	-8.02
267.812	61.61
268.028	18.6
268.244	55.47
268.46	59.56
268.676	24.75
268.892	45.23
269.108	6.31
269.324	26.79
269.54	61.61
269.756	67.75
269.972	-34.64
270.188	12.46
270.403	16.55
270.619	28.84
270.835	-12.12
271.051	57.51
271.267	39.08
271.483	51.37
271.698	88.23
271.914	20.65
272.13	59.56
272.346	22.7
272.562	63.66
272.777	18.6
272.993	-18.26
273.209	47.27
273.425	22.7
273.64	49.32
273.856	12.46
274.072	82.09
274.287	37.03
274.503	59.56
274.719	45.23
274.934	92.33
275.15	0.17
275.366	69.8
275.581	-38.74
275.797	41.13
276.012	73.9
276.228	14.51
276.444	10.41
276.659	84.14
276.875	57.51
277.09	14.51
277.306	2.22
277.521	63.66
277.737	-10.07
277.952	-12.12
278.168	-10.07
278.383	12.46
278.599	51.37
278.814	18.6
279.03	30.89
279.245	125.1
279.461	-48.98
279.676	73.9
279.892	-20.31
280.107	22.7
280.322	116.9
280.538	20.65
280.753	10.41
280.969	2.22
281.184	53.42
281.399	98.47
281.615	16.55
281.83	39.08
282.045	22.7
282.26	24.75
282.476	45.23
282.691	57.51
282.906	10.41
283.122	51.37
283.337	24.75
283.552	6.31
283.767	65.71
283.983	84.14
284.198	174.25
284.413	63.66
284.628	61.61
284.843	-59.22
285.058	80.04
285.274	77.99
285.489	30.89
285.704	47.27
285.919	116.9
286.134	37.03
286.349	14.51
286.564	22.7
286.779	77.99
286.995	84.14
287.21	2.22
287.425	28.84
287.64	-26.45
287.855	63.66
288.07	67.75
288.285	43.18
288.5	51.37
288.715	65.71
288.93	30.89
289.145	47.27
289.36	61.61
289.575	24.75
289.79	67.75
290.004	59.56
290.219	90.28
290.434	59.56
290.649	39.08
290.864	69.8
291.079	45.23
291.294	61.61
291.509	-38.74
291.724	24.75
291.938	41.13
292.153	-14.17
292.368	-61.27
292.583	100.52
292.798	59.56
293.012	34.99
293.227	63.66
293.442	18.6
293.657	16.55
293.871	104.62
294.086	65.71
294.301	106.67
294.516	-8.02
294.73	100.52
294.945	6.31
295.16	34.99
295.374	84.14
295.589	-1.88
295.804	-22.36
296.018	20.65
296.233	75.95
296.447	-8.02
296.662	51.37
296.877	86.19
297.091	106.67
297.306	98.47
297.52	71.85
297.735	49.32
297.949	55.47
298.164	16.55
298.378	2.22
298.593	18.6
298.807	-28.5
299.022	92.33
299.236	47.27
299.451	24.75
299.665	-8.02
299.88	77.99
300.094	28.84
300.309	24.75
300.523	-38.74
300.737	14.51
300.952	82.09
301.166	41.13
301.381	0.17
301.595	6.31
301.809	6.31
302.024	75.95
302.238	26.79
302.452	71.85
302.667	75.95
302.881	45.23
303.095	71.85
303.309	24.75
303.524	63.66
303.738	6.31
303.952	59.56
304.166	-20.31
304.381	32.94
304.595	34.99
304.809	26.79
305.023	12.46
305.237	82.09
305.452	16.55
305.666	2.22
305.88	104.62
306.094	32.94
306.308	37.03
306.522	129.19
306.736	82.09
306.95	-12.12
307.164	-14.17
307.379	2.22
307.593	69.8
307.807	14.51
308.021	59.56
308.235	69.8
308.449	20.65
308.663	51.37
308.877	80.04
309.091	133.29
309.305	-3.93
309.519	-18.26
309.733	121
309.947	18.6
310.161	24.75
310.374	14.51
310.588	131.24
310.802	20.65
311.016	18.6
311.23	108.71
311.444	-24.4
311.658	55.47
311.872	45.23
312.085	77.99
312.299	77.99
312.513	80.04
312.727	-12.12
312.941	59.56
313.154	-12.12
313.368	-46.93
313.582	65.71
313.796	90.28
314.009	59.56
314.223	71.85
314.437	86.19
314.651	-12.12
314.864	-10.07
315.078	69.8
315.292	8.36
315.505	82.09
315.719	34.99
315.933	100.52
316.146	41.13
316.36	-24.4
316.573	14.51
316.787	65.71
317.001	45.23
317.214	-42.84
317.428	110.76
317.641	6.31
317.855	69.8
318.068	18.6
318.282	-8.02
318.495	110.76
318.709	106.67
318.922	98.47
319.136	43.18
319.349	47.27
319.563	28.84
319.776	55.47
319.99	-16.21
320.203	28.84
320.417	67.75
320.63	14.51
320.843	75.95
321.057	51.37
321.27	-36.69
321.483	14.51
321.697	108.71
321.91	22.7
322.124	32.94
322.337	82.09
322.55	59.56
322.763	-3.93
322.977	73.9
323.19	14.51
323.403	92.33
323.617	37.03
323.83	34.99
324.043	84.14
324.256	4.27
324.469	57.51
324.683	98.47
324.896	18.6
325.109	100.52
325.322	4.27
325.535	71.85
325.748	69.8
325.962	61.61
326.175	59.56
326.388	-1.88
326.601	63.66
326.814	155.82
327.027	24.75
327.24	41.13
327.453	-36.69
327.666	28.84
327.879	43.18
328.092	96.43
328.305	32.94
328.518	18.6
328.731	84.14
328.944	22.7
329.157	63.66
329.37	67.75
329.583	18.6
329.796	90.28
330.009	59.56
330.222	-10.07
330.435	-24.4
330.648	108.71
330.861	80.04
331.073	127.14
331.286	8.36
331.499	32.94
331.712	22.7
331.925	41.13
332.138	-1.88
332.35	49.32
332.563	-8.02
332.776	30.89
332.989	59.56
333.202	18.6
333.414	22.7
333.627	12.46
333.84	133.29
334.053	41.13
334.265	30.89
334.478	82.09
334.691	53.42
334.903	41.13
335.116	12.46
335.329	8.36
335.541	47.27
335.754	41.13
335.966	-5.97
336.179	92.33
336.392	-5.97
336.604	49.32
336.817	67.75
337.029	65.71
337.242	45.23
337.454	39.08
337.667	14.51
337.88	176.3
338.092	4.27
338.305	6.31
338.517	-75.6
338.729	4.27
338.942	84.14
339.154	12.46
339.367	34.99
339.579	49.32
339.792	-26.45
340.004	26.79
340.217	6.31
340.429	67.75
340.641	57.51
340.854	39.08
341.066	26.79
341.278	22.7
341.491	69.8
341.703	92.33
341.915	51.37
342.128	118.95
342.34	71.85
342.552	43.18
342.764	71.85
342.977	100.52
343.189	94.38
343.401	121
343.613	43.18
343.826	92.33
344.038	-22.36
344.25	98.47
344.462	-24.4
344.674	30.89
344.886	84.14
345.099	118.95
345.311	30.89
345.523	-18.26
345.735	-36.69
345.947	80.04
346.159	28.84
346.371	32.94
346.583	61.61
346.795	49.32
347.007	82.09
347.219	8.36
347.431	10.41
347.643	116.9
347.855	-18.26
348.067	92.33
348.279	10.41
348.491	88.23
348.703	30.89
348.915	102.57
349.127	16.55
349.339	47.27
349.551	73.9
349.763	59.56
349.975	75.95
350.187	77.99
350.399	63.66
350.61	-1.88
350.822	-12.12
351.034	12.46
351.246	90.28
351.458	41.13
351.669	2.22
351.881	45.23
352.093	55.47
352.305	22.7
352.517	39.08
352.728	51.37
352.94	114.86
353.152	14.51
353.363	28.84
353.575	57.51
353.787	39.08
353.999	51.37
354.21	135.34
354.422	-12.12
354.633	67.75
354.845	22.7
355.057	88.23
355.268	88.23
355.48	22.7
355.692	65.71
355.903	26.79
356.115	18.6
356.326	2.22
356.538	80.04
356.749	86.19
356.961	104.62
357.172	65.71
357.384	18.6
357.595	69.8
357.807	55.47
358.018	-5.97
358.23	98.47
358.441	14.51
358.653	112.81
358.864	-10.07
359.075	30.89
359.287	116.9
359.498	45.23
359.709	69.8
359.921	45.23
360.132	47.27
360.344	65.71
360.555	43.18
360.766	59.56
360.977	39.08
361.189	135.34
361.4	30.89
361.611	30.89
361.823	90.28
362.034	96.43
362.245	6.31
362.456	73.9
362.667	55.47
362.879	10.41
363.09	43.18
363.301	8.36
363.512	57.51
363.723	37.03
363.935	34.99
364.146	22.7
364.357	0.17
364.568	110.76
364.779	0.17
364.99	34.99
365.201	10.41
365.412	-14.17
365.623	37.03
365.834	69.8
366.045	75.95
366.256	123.05
366.467	14.51
366.678	63.66
366.889	61.61
367.1	39.08
367.311	4.27
367.522	-16.21
367.733	26.79
367.944	43.18
368.155	12.46
368.366	73.9
368.577	-10.07
368.788	82.09
368.999	12.46
369.209	45.23
369.42	65.71
369.631	39.08
369.842	-24.4
370.053	-1.88
370.264	53.42
370.474	59.56
370.685	94.38
370.896	20.65
371.107	71.85
371.317	102.57
371.528	2.22
371.739	61.61
371.95	159.91
372.16	22.7
372.371	-18.26
372.582	14.51
372.792	-5.97
373.003	-22.36
373.214	47.27
373.424	43.18
373.635	55.47
373.846	28.84
374.056	90.28
374.267	22.7
374.477	69.8
374.688	67.75
374.898	53.42
375.109	18.6
375.319	51.37
375.53	71.85
375.74	129.19
375.951	86.19
376.161	59.56
376.372	20.65
376.582	-3.93
376.793	8.36
377.003	75.95
377.214	28.84
377.424	-3.93
377.635	86.19
377.845	59.56
378.055	55.47
378.266	-1.88
378.476	90.28
378.686	102.57
378.897	71.85
379.107	106.67
379.317	84.14
379.528	65.71
379.738	104.62
379.948	-12.12
380.158	-14.17
380.369	22.7
380.579	73.9
380.789	49.32
380.999	131.24
381.21	75.95
381.42	92.33
381.63	67.75
381.84	102.57
382.05	43.18
382.261	28.84
382.471	37.03
382.681	37.03
382.891	55.47
383.101	41.13
383.311	45.23
383.521	59.56
383.731	82.09
383.941	98.47
384.151	-1.88
384.361	41.13
384.571	43.18
384.781	55.47
384.991	125.1
385.201	141.48
385.411	-3.93
385.621	65.71
385.831	30.89
386.041	18.6
386.251	82.09
386.461	20.65
386.671	61.61
386.881	135.34
387.091	43.18
387.301	32.94
387.511	59.56
387.72	43.18
387.93	118.95
388.14	22.7
388.35	80.04
388.56	121
388.769	24.75
388.979	69.8
389.189	32.94
389.399	47.27
389.609	108.71
389.818	92.33
390.028	6.31
390.238	65.71
390.447	-8.02
390.657	98.47
390.867	-30.55
391.076	75.95
391.286	61.61
391.496	88.23
391.705	61.61
391.915	108.71
392.125	75.95
392.334	61.61
392.544	67.75
392.753	4.27
392.963	102.57
393.172	90.28
393.382	-16.21
393.591	139.43
393.801	67.75
394.01	129.19
394.22	90.28
394.429	-10.07
394.639	28.84
394.848	43.18
395.058	75.95
395.267	61.61
395.477	65.71
395.686	71.85
395.895	155.82
396.105	133.29
396.314	41.13
396.524	43.18
396.733	45.23
396.942	39.08
397.152	16.55
397.361	39.08
397.57	61.61
397.78	86.19
397.989	100.52
398.198	65.71
398.407	61.61
398.617	75.95
398.826	59.56
399.035	75.95
399.244	112.81
399.453	92.33
399.663	22.7
399.872	98.47
400.081	116.9
400.29	131.24
400.499	98.47
400.708	63.66
400.917	41.13
401.127	157.86
401.336	63.66
401.545	182.44
401.754	6.31
401.963	114.86
402.172	114.86
402.381	53.42
402.59	51.37
402.799	73.9
403.008	75.95
403.217	90.28
403.426	90.28
403.635	88.23
403.844	98.47
404.053	96.43
404.262	159.91
404.471	139.43
404.68	75.95
404.888	106.67
405.097	82.09
405.306	125.1
405.515	118.95
405.724	114.86
405.933	139.43
406.142	73.9
406.35	178.34
406.559	204.97
406.768	157.86
406.977	286.89
407.185	168.1
407.394	194.73
407.603	207.02
407.812	121
408.02	110.76
408.229	184.49
408.438	170.15
408.646	215.21
408.855	243.88
409.064	200.87
409.272	227.5
409.481	245.93
409.69	256.17
409.898	229.54
410.107	247.97
410.315	241.83
410.524	225.45
410.733	252.07
410.941	264.36
411.15	250.02
411.358	286.89
411.567	282.79
411.775	286.89
411.984	227.5
412.192	307.37
412.401	270.5
412.609	348.33
412.818	346.28
413.026	362.66
413.234	389.28
413.443	333.99
413.651	405.67
413.86	317.61
414.068	374.95
414.276	460.96
414.485	438.44
414.693	467.11
414.901	473.25
415.11	540.83
415.318	436.39
415.526	440.48
415.734	518.31
415.943	518.31
416.151	614.56
416.359	600.23
416.567	616.61
416.776	635.04
416.984	643.23
417.192	716.96
417.4	698.53
417.608	676
417.817	714.91
418.025	772.25
418.233	792.73
418.441	723.1
418.649	794.78
418.857	874.65
419.065	815.26
419.273	805.02
419.481	956.57
419.689	909.47
419.897	1036.44
420.105	1063.07
420.313	1067.16
420.521	1165.46
420.729	1087.64
420.937	1126.55
421.145	1214.62
421.353	1249.43
421.561	1241.24
421.769	1284.25
421.977	1448.08
422.185	1390.74
422.393	1530
422.601	1607.83
422.809	1542.29
423.017	1501.33
423.224	1595.54
423.432	1728.66
423.64	1661.07
423.848	1820.81
424.056	1820.81
424.263	1998.99
424.471	1968.27
424.679	1978.51
424.887	2060.43
425.094	2152.59
425.302	2156.68
425.51	2336.9
425.718	2312.33
425.925	2293.9
426.133	2410.63
426.341	2474.12
426.548	2504.84
426.756	2824.32
426.964	2609.28
427.171	2865.28
427.379	2926.72
427.586	2996.35
427.794	3025.02
428.001	3156.09
428.209	3369.08
428.417	3203.19
428.624	3520.63
428.832	3356.79
429.039	3362.94
429.247	3426.42
429.454	3874.93
429.662	3987.57
429.869	3885.17
430.076	4122.73
430.284	4034.67
430.491	4085.87
430.699	4397.16
430.906	4411.5
431.114	4294.76
431.321	4540.52
431.528	4571.24
431.736	4976.73
431.943	5122.14
432.15	4892.77
432.358	5044.32
432.565	5376.09
432.772	5382.23
432.979	5552.21
433.187	5701.72
433.394	5814.35
433.601	6160.46
433.808	6369.35
434.016	6213.71
434.223	6551.62
434.43	6774.85
434.637	6781
434.844	7143.49
435.052	7245.88
435.259	7260.22
435.466	7364.67
435.673	7112.77
435.88	7671.86
436.087	7915.57
436.294	7962.67
436.501	7684.15
436.708	8058.93
436.915	8316.97
437.122	8532.01
437.329	8761.38
437.537	8894.5
437.743	9168.93
437.95	8929.31
438.157	9388.06
438.364	9838.61
438.571	9615.38
438.778	9803.8
438.985	10610.7
439.192	10311.69
439.399	10508.3
439.606	10256.4
439.813	10999.81
440.02	11579.39
440.227	11274.24
440.433	11288.57
440.64	11720.7
440.847	11634.68
441.054	12005.36
441.261	12732.39
441.467	12388.33
441.674	12586.99
441.881	13320.16
442.088	13445.09
442.294	13060.07
442.501	13406.17
442.708	13522.91
442.914	14147.54
443.121	14643.15
443.328	14448.59
443.534	15394.75
443.741	15095.75
443.948	14604.24
444.154	15765.43
444.361	15959.99
444.568	15970.23
444.774	15841.21
444.981	15996.85
445.187	16641.96
445.394	17199.01
445.6	17098.66
445.807	18565.01
446.013	18018.2
446.22	18184.09
446.426	18882.44
446.633	18919.31
446.839	19797.88
447.046	18882.44
447.252	19992.44
447.459	19933.05
447.665	19908.47
447.871	20821.87
448.078	21993.31
448.284	20352.88
448.491	21096.3
448.697	22069.08
448.903	22267.73
449.11	22384.47
449.316	22249.3
449.522	22775.63
449.728	23164.75
449.935	23261
450.141	23297.86
450.347	23971.64
450.553	22978.38
450.76	23383.88
450.966	24194.87
451.172	23897.92
451.378	24297.27
451.584	23568.2
451.791	24356.66
451.997	24428.34
452.203	24760.11
452.409	24770.35
452.615	24973.1
452.821	23807.81
453.027	23433.03
453.233	24713.01
453.44	24149.82
453.646	24088.38
453.852	24176.44
454.058	24284.98
454.264	23590.72
454.47	24381.24
454.676	23899.97
454.882	24446.77
455.088	22370.13
455.294	22708.05
455.5	23031.63
455.705	23254.86
455.911	22183.77
456.117	21917.53
456.323	21452.64
456.529	20584.3
456.735	21395.3
456.941	20946.8
457.147	20455.28
457.352	19814.27
457.558	19705.73
457.764	19675.01
457.97	19304.32
458.176	18767.76
458.381	18870.15
458.587	17934.23
458.793	18085.78
458.999	17082.28
459.204	18087.83
459.41	17493.92
459.616	16654.25
459.821	16549.81
460.027	16560.05
460.233	15957.94
460.438	15581.12
460.644	15458.24
460.85	14989.25
461.055	14446.54
461.261	14829.51
461.466	13623.26
461.672	13137.89
461.878	14163.92
462.083	12943.33
462.289	12707.82
462.494	12759.02
462.7	12283.89
462.905	11855.86
463.111	12296.18
463.316	12326.89
463.522	11991.03
463.727	12025.84
463.932	11900.92
464.138	11819
464.343	12015.6
464.549	11628.54
464.754	11892.73
464.959	11790.33
465.165	11620.35
465.37	11307.01
465.575	11046.91
465.781	11339.77
465.986	11427.84
466.191	11040.77
466.397	11008
466.602	10428.43
466.807	10788.87
467.012	10838.02
467.218	10616.84
467.423	10764.29
467.628	10618.89
467.833	11200.51
468.038	10590.22
468.244	10422.28
468.449	10737.67
468.654	10616.84
468.859	10481.67
469.064	10442.76
469.269	9846.8
469.474	9938.96
469.679	10223.63
469.885	9857.04
470.09	9869.33
470.295	9992.21
470.5	9680.92
470.705	9719.83
470.91	9492.51
471.115	9420.83
471.32	9605.14
471.525	9441.31
471.73	9369.63
471.935	9287.71
472.139	9095.2
472.344	9166.88
472.549	8994.85
472.754	8917.03
472.959	8718.37
473.164	8542.25
473.369	8489
473.574	8849.44
473.778	8546.34
473.983	8671.27
474.188	8538.15
474.393	8065.07
474.598	8190
474.802	8235.05
475.007	8087.6
475.212	8091.7
475.417	7772.21
475.621	7710.77
475.826	7745.59
476.031	7635
476.235	7342.14
476.44	7684.15
476.645	7536.7
476.849	7540.79
477.054	7335.99
477.259	7303.23
477.463	7401.53
477.668	7270.46
477.872	7249.98
478.077	6910.02
478.282	6928.45
478.486	6940.74
478.691	6881.35
478.895	6826.05
479.1	6680.64
479.304	6778.95
479.509	6584.39
479.713	6684.74
479.918	6455.37
480.122	6395.98
480.326	6678.6
480.531	6574.15
480.735	6557.77
480.94	6324.3
481.144	6719.56
481.348	6344.78
481.553	6459.46
481.757	6410.31
481.961	6549.57
482.166	6465.61
482.37	6215.76
482.574	6373.45
482.778	6238.28
482.983	6461.51
483.187	6223.95
483.391	6221.9
483.595	6307.91
483.8	6244.43
484.004	6385.74
484.208	6361.16
484.412	6293.58
484.616	6277.19
484.821	6303.82
485.025	6277.19
485.229	6246.48
485.433	6144.08
485.637	6355.02
485.841	6348.87
486.045	6363.21
486.249	6377.55
486.453	6142.03
486.657	6307.91
486.861	6461.51
487.065	6027.34
487.269	6357.07
487.473	6248.52
487.677	6301.77
487.881	6172.75
488.085	6228.04
488.289	6385.74
488.493	6361.16
488.697	6223.95
488.901	6377.55
489.105	6213.71
489.309	6205.52
489.512	6336.59
489.716	6416.46
489.92	6355.02
490.124	6400.07
490.328	6451.27
490.531	6592.58
490.735	6375.5
490.939	6334.54
491.143	6334.54
491.346	6533.19
491.55	6498.38
491.754	6535.24
491.958	6608.97
492.161	6680.64
492.365	6709.32
492.569	6828.1
492.772	6584.39
492.976	6600.77
493.18	6705.22
493.383	6862.91
493.587	6807.62
493.79	7016.51
493.994	6828.1
494.197	6912.07
494.401	6953.02
494.605	6979.65
494.808	7123.01
495.012	7190.59
495.215	7217.21
495.419	7286.84
495.622	7069.76
495.825	7278.65
496.029	7430.2
496.232	7419.96
496.436	7598.13
496.639	7559.22
496.843	7563.32
497.046	7782.45
497.249	7854.13
497.453	7903.28
497.656	7954.48
497.859	8007.73
498.063	8077.36
498.266	8306.73
498.469	8173.61
498.673	8347.69
498.876	8288.3
499.079	8339.5
499.282	8392.75
499.485	8675.37
499.689	8708.13
499.892	9066.53
500.095	8826.92
500.298	9144.35
500.501	8812.58
500.705	9392.16
500.908	9365.53
501.111	9238.56
501.314	9517.08
501.517	9515.03
501.72	9627.67
501.923	9678.87
502.126	9943.06
502.329	10039.31
502.532	10205.2
502.735	10131.47
502.938	10307.6
503.141	10575.88
503.344	10299.41
503.547	10526.73
503.75	10733.57
503.953	11022.34
504.156	11153.41
504.359	11114.5
504.562	11237.38
504.765	11315.2
504.968	11476.99
505.17	11663.35
505.373	11517.95
505.576	11982.84
505.779	11829.24
505.982	11919.35
506.185	12263.41
506.387	12589.03
506.59	12455.92
506.793	12584.94
506.996	12419.05
507.198	13029.35
507.401	12769.26
507.604	12974.05
507.807	13408.22
508.009	13570.01
508.212	13314.02
508.415	13412.32
508.617	13690.84
508.82	13916.12
509.022	14022.61
509.225	14163.92
509.428	14125.01
509.63	14716.87
509.833	14598.09
510.035	14712.78
510.238	14933.96
510.44	14911.43
510.643	15298.5
510.845	15185.86
511.048	15273.92
511.25	15450.05
511.453	15542.21
511.655	16304.05
511.858	15896.5
512.06	16215.99
512.262	16224.18
512.465	16371.63
512.667	16658.35
512.87	16791.47
513.072	17018.79
513.274	16963.5
513.477	17293.22
513.679	17641.37
513.881	17686.43
514.084	17610.65
514.286	17633.18
514.488	17923.99
514.69	18579.34
514.893	18407.31
515.095	18612.11
515.297	18591.63
515.499	18730.89
515.701	18890.63
515.904	19040.14
516.106	19406.72
516.308	19277.7
516.51	19869.56
516.712	19935.1
516.914	19775.36
517.116	20344.69
517.318	20428.66
517.52	20336.5
517.722	20551.54
517.925	20973.42
518.127	20932.46
518.329	21585.76
518.531	21178.22
518.733	21653.34
518.935	21774.17
519.136	21643.1
519.338	22241.11
519.54	22251.35
519.742	22660.94
519.944	22544.21
520.146	23074.63
520.348	23181.13
520.55	23119.69
520.752	23129.93
520.954	23613.25
521.155	23934.78
521.357	23834.43
521.559	24112.95
521.761	24311.61
521.963	24229.69
522.164	24583.99
522.366	24739.63
522.568	25143.08
522.77	24975.15
522.971	25470.76
523.173	25442.09
523.375	25384.74
523.576	25698.08
523.778	25642.79
523.98	26359.58
524.181	26189.6
524.383	26070.81
524.584	26490.65
524.786	26775.31
524.988	26654.48
525.189	26914.58
525.391	26955.54
525.592	26867.47
525.794	27666.18
525.995	27469.58
526.197	27569.93
526.398	27805.44
526.6	27873.03
526.801	27942.66
527.003	27873.03
527.204	28036.86
527.406	28393.21
527.607	28675.83
527.808	28399.35
528.01	28208.89
528.211	28350.2
528.412	28739.32
528.614	28829.43
528.815	28708.6
529.016	29286.12
529.218	29005.55
529.419	29185.77
529.62	29279.98
529.822	29443.82
530.023	29163.25
530.224	29548.26
530.425	29507.3
530.626	29032.18
530.828	29505.26
531.029	30299.87
531.23	29562.6
531.431	29474.54
531.632	29808.36
531.833	29966.05
532.035	30027.49
532.236	29720.29
532.437	30031.58
532.638	29953.76
532.839	30076.64
533.04	30129.89
533.241	29650.66
533.442	30684.89
533.643	30146.27
533.844	30115.55
534.045	30314.2
534.246	30029.54
534.447	30310.11
534.648	30138.08
534.849	30383.84
535.05	30222.05
535.251	30236.38
535.451	30666.45
535.652	30586.58
535.853	30228.19
536.054	30381.79
536.255	30260.96
536.456	30471.9
536.657	30740.18
536.857	30553.82
537.058	30336.73
537.259	31078.1
537.46	30566.1
537.66	30455.51
537.861	30627.54
538.062	30346.97
538.263	30484.19
538.463	30217.95
538.664	30365.4
538.865	30887.64
539.065	30633.69
539.266	30605.02
539.466	30873.3
539.667	30258.91
539.868	30820.05
540.068	30306.01
540.269	30447.32
540.469	30457.56
540.67	30461.66
540.87	30662.36
541.071	30506.71
541.271	30809.81
541.472	30484.19
541.672	30332.64
541.873	30324.44
542.073	29880.03
542.274	30731.99
542.474	30605.02
542.675	30164.7
542.875	30572.25
543.075	30314.2
543.276	30025.44
543.476	30408.41
543.676	30062.3
543.877	30430.94
544.077	30643.93
544.277	30334.68
544.478	30582.49
544.678	30488.28
544.878	30279.39
545.078	30234.33
545.279	30365.4
545.479	30613.21
545.679	30473.95
545.879	30467.8
546.079	30152.41
546.28	30414.55
546.48	30023.39
546.68	30240.48
546.88	30465.75
547.08	30226.14
547.28	30201.57
547.48	29884.13
547.68	30641.88
547.88	30152.41
548.081	30629.59
548.281	30531.29
548.481	30164.7
548.681	30486.23
548.881	30351.07
549.081	30029.54
549.28	29939.43
549.48	30293.72
549.68	30277.34
549.88	30381.79
550.08	30234.33
550.28	30037.73
550.48	30086.88
550.68	30244.57
550.88	30220
551.08	30009.06
551.279	30254.81
551.479	29990.63
551.679	30342.88
551.879	30234.33
552.079	29994.72
552.278	30043.87
552.478	30064.35
552.678	30185.18
552.878	30099.17
553.077	29937.38
553.277	29515.5
553.477	30254.81
553.676	29873.89
553.876	29875.94
554.076	29720.29
554.275	30054.11
554.475	29687.53
554.674	30041.82
554.874	30127.84
555.074	29726.44
555.273	29945.57
555.473	29810.4
555.672	29761.25
555.872	29765.35
556.071	29751.01
556.271	29945.57
556.47	29693.67
556.67	29331.18
556.869	29474.54
557.068	29718.25
557.268	29163.25
557.467	29466.35
557.667	29589.22
557.866	29490.92
558.065	29478.63
558.265	29253.36
558.464	29443.82
558.663	29353.71
558.863	28940.02
559.062	29128.43
559.261	28993.26
559.461	29228.78
559.66	29073.14
559.859	28792.56
560.058	29011.7
560.258	28821.23
560.457	28552.95
560.656	28862.19
560.855	28653.3
561.054	28647.16
561.253	28272.38
561.453	28673.78
561.652	28819.19
561.851	28624.63
562.05	28874.48
562.249	28446.46
562.448	28501.75
562.647	28188.41
562.846	28382.97
563.045	28200.7
563.244	28008.19
563.443	28186.36
563.642	28040.96
563.841	28167.93
564.04	27686.66
564.239	28135.17
564.438	28010.24
564.637	28118.78
564.836	27983.62
565.035	27631.37
565.234	27737.86
565.432	27567.88
565.631	27713.28
565.83	27541.25
566.029	27590.41
566.228	27094.8
566.427	27051.79
566.625	27262.73
566.824	27244.3
567.023	27328.27
567.222	26640.15
567.42	27131.66
567.619	26996.49
567.818	26601.24
568.016	26730.26
568.215	26828.56
568.414	27010.83
568.612	26799.89
568.811	26584.85
569.01	26650.39
569.208	26418.97
569.407	26494.74
569.605	26156.83
569.804	26357.53
570.002	26195.74
570.201	26111.77
570.4	26042.14
570.598	25784.1
570.797	25501.48
570.995	25853.73
571.193	25575.2
571.392	25653.03
571.59	25612.07
571.789	25472.81
571.987	25423.65
572.186	25384.74
572.384	25052.97
572.582	25368.36
572.781	25325.35
572.979	24860.46
573.177	24971.05
573.376	25122.6
573.574	25083.69
573.772	25087.79
573.971	24704.82
574.169	24891.18
574.367	24586.04
574.565	24887.09
574.763	24393.53
574.962	24307.51
575.16	24313.66
575.358	24227.64
575.556	24356.66
575.754	24442.68
575.952	24016.7
576.151	24430.39
576.349	23865.15
576.547	24047.42
576.745	24076.09
576.943	23854.91
577.141	23889.73
577.339	23924.54
577.537	23275.34
577.735	23641.92
577.933	23611.2
578.131	23699.27
578.329	23301.96
578.527	23123.79
578.725	23541.57
578.923	23439.17
579.121	23179.08
579.319	23068.49
579.516	23285.58
579.714	23015.24
579.912	22863.69
580.11	22724.43
580.308	22888.27
580.506	22835.02
580.704	22769.49
580.901	22564.69
581.099	22982.48
581.297	22378.33
581.495	22708.05
581.692	22624.08
581.89	21976.92
582.088	22138.71
582.285	22261.59
582.483	22042.46
582.681	22165.34
582.878	22208.34
583.076	21907.29
583.274	22126.43
583.471	21665.63
583.669	21423.97
583.866	21561.19
584.064	21852
584.262	21491.55
584.459	21757.79
584.657	21561.19
584.854	21569.38
585.052	21196.65
585.249	21444.45
585.447	21516.13
585.644	21264.23
585.841	21129.06
586.039	21233.51
586.236	21012.33
586.434	21041
586.631	20684.66
586.828	20975.47
587.026	20664.18
587.223	20596.59
587.42	20510.58
587.618	20785.01
587.815	20440.95
588.012	20520.82
588.21	20492.15
588.407	20580.21
588.604	20297.59
588.801	20268.92
588.999	20094.84
589.196	20086.65
589.393	20154.23
589.59	20174.71
589.787	19855.23
589.984	19885.95
590.182	19588.99
590.379	20045.69
590.576	19664.77
590.773	19795.84
590.97	19683.2
591.167	19632
591.364	19419.01
591.561	19713.92
591.758	19068.81
591.955	19390.34
592.152	19253.12
592.349	19363.72
592.546	19144.58
592.743	19419.01
592.94	19021.7
593.137	19138.44
593.334	19044.23
593.531	18814.86
593.727	18610.06
593.924	19011.46
594.121	18765.71
594.318	18704.27
594.515	18343.83
594.712	18798.48
594.908	18352.02
595.105	18868.11
595.302	18601.87
595.499	18513.81
595.696	18505.62
595.892	18347.92
596.089	18296.72
596.286	18075.54
596.482	18235.28
596.679	18010.01
596.876	18266
597.072	18024.34
597.269	17915.8
597.466	17831.83
597.662	17569.69
597.859	17979.29
598.055	17860.51
598.252	17713.05
598.448	17637.28
598.645	17485.73
598.841	17311.65
599.038	17680.28
599.234	17596.32
599.431	17182.63
599.627	17188.77
599.824	17182.63
600.02	17139.62
600.217	17067.94
600.413	17260.45
600.609	17264.55
600.806	16988.07
601.002	16943.02
601.198	16924.58
601.395	16773.03
601.591	16897.96
601.787	16668.59
601.984	16787.37
602.18	16596.91
602.376	16701.36
602.572	16586.67
602.769	16627.63
602.965	16451.5
603.161	16392.11
603.357	16340.91
603.553	16314.29
603.75	16062.39
603.946	16109.49
604.142	16244.66
604.338	16119.73
604.534	15859.64
604.73	16144.31
604.926	16080.82
605.122	15933.37
605.318	15769.53
605.514	15687.61
605.71	15671.23
605.906	15570.88
606.102	15523.77
606.298	15730.62
606.494	15706.04
606.69	15667.13
606.886	15730.62
607.082	15407.04
607.278	15665.08
607.474	15462.33
607.67	15538.11
607.866	15257.54
608.062	15263.68
608.257	15048.65
608.453	15308.74
608.649	15134.66
608.845	15249.35
609.041	15146.95
609.236	15329.22
609.432	14995.4
609.628	15243.2
609.824	14866.38
610.019	14839.75
610.215	14852.04
610.411	14899.14
610.606	15028.17
610.802	14727.11
610.998	14882.76
611.193	14901.19
611.389	14700.49
611.584	14622.67
611.78	14743.5
611.976	14690.25
612.171	14684.11
612.367	14788.55
612.562	14417.87
612.758	14469.07
612.953	14174.16
613.149	14563.28
613.344	14327.76
613.539	14335.95
613.735	14446.54
613.93	14278.61
614.126	14329.81
614.321	14534.6
614.517	14342.1
614.712	13940.69
614.907	14059.48
615.103	14139.35
615.298	14039
615.493	14202.83
615.688	14022.61
615.884	14176.21
616.079	13914.07
616.274	13877.21
616.47	13944.79
616.665	14061.52
616.86	13942.74
617.055	13606.88
617.25	13789.14
617.445	14041.04
617.641	13664.22
617.836	13905.88
618.031	13625.31
618.226	13473.76
618.421	13486.04
618.616	13502.43
618.811	13232.1
619.006	13707.23
619.201	13418.46
619.396	13490.14
619.591	12978.15
619.786	13475.81
619.981	13113.31
620.176	13219.81
620.371	13101.03
620.566	13205.47
620.761	12965.86
620.956	13062.12
621.151	12693.48
621.346	12894.18
621.541	12677.1
621.735	12750.82
621.93	12595.18
622.125	12666.86
622.32	12306.41
622.515	12709.86
622.709	12294.13
622.904	12144.63
623.099	12308.46
623.294	12531.69
623.488	11952.12
623.683	12124.15
623.878	11956.21
624.072	11921.4
624.267	11927.54
624.462	11935.73
624.656	11749.37
624.851	11730.94
625.046	11483.13
625.24	11515.9
625.435	11448.32
625.629	11384.83
625.824	11524.09
626.018	11128.83
626.213	11114.5
626.407	11163.65
626.602	11094.02
626.796	11163.65
626.991	11030.53
627.185	11065.35
627.38	10739.72
627.574	10940.42
627.768	10919.94
627.963	10743.81
628.157	10620.94
628.352	10493.96
628.546	10334.22
628.74	10516.49
628.935	10528.78
629.129	10397.71
629.323	10340.36
629.517	10192.91
629.712	10280.97
629.906	10194.96
630.1	9969.68
630.294	10332.17
630.489	9818.13
630.683	10018.83
630.877	9981.97
631.071	9840.66
631.265	9756.69
631.459	9822.23
631.653	9717.78
631.848	9773.08
632.042	9508.89
632.236	9562.14
632.43	9467.93
632.624	9603.1
632.818	9285.66
633.012	9402.4
633.206	9357.34
633.4	9420.83
633.594	9097.25
633.788	9164.83
633.982	9273.37
634.176	9246.75
634.369	9173.02
634.563	9044
634.757	8880.16
634.951	8890.4
635.145	8878.12
635.339	8964.13
635.533	8816.68
635.726	8745
635.92	8716.33
636.114	8622.12
636.308	8788
636.501	8521.77
636.695	8527.91
636.889	8396.84
637.083	8265.77
637.276	8208.43
637.47	8316.97
637.664	8421.42
637.857	8327.21
638.051	8165.42
638.244	8050.74
638.438	8216.62
638.632	8136.75
638.825	7974.96
639.019	8032.3
639.212	7876.66
639.406	7997.49
639.599	7792.69
639.793	7737.4
639.986	7661.62
640.18	7792.69
640.373	7655.48
640.567	7675.96
640.76	7647.29
640.954	7372.86
641.147	7540.79
641.34	7508.02
641.534	7391.29
641.727	7483.45
641.92	7301.18
642.114	7333.95
642.307	7112.77
642.5	7225.4
642.694	7034.94
642.887	7266.36
643.08	7356.47
643.273	7069.76
643.467	7080
643.66	6920.26
643.853	6879.3
644.046	6959.17
644.239	6903.87
644.432	6799.43
644.626	6912.07
644.819	6783.04
645.012	6778.95
645.205	6725.7
645.398	6715.46
645.591	6496.33
645.784	6541.38
645.977	6565.96
646.17	6586.44
646.363	6445.13
646.556	6178.89
646.749	6504.52
646.942	6377.55
647.135	6424.65
647.328	6260.81
647.521	6293.58
647.714	6203.47
647.907	6070.35
648.099	6344.78
648.292	6332.49
648.485	6139.98
648.678	6207.56
648.871	6060.11
649.064	6049.87
649.256	6191.18
649.449	5992.53
649.642	6000.72
649.835	5881.94
650.027	5953.62
650.22	5898.32
650.413	5804.11
650.605	5949.52
650.798	5716.05
650.991	5849.17
651.183	5726.29
651.376	5501.01
651.568	5570.65
651.761	5650.52
651.954	5650.52
652.146	5591.13
652.339	5515.35
652.531	5587.03
652.724	5531.73
652.916	5326.94
653.109	5380.18
653.301	5513.3
653.494	5531.73
653.686	5343.32
653.879	5214.3
654.071	5386.33
654.263	5273.69
654.456	5396.57
654.648	5171.29
654.84	5331.03
655.033	5179.48
655.225	5001.31
655.417	4995.17
655.61	4968.54
655.802	4999.26
655.994	4966.49
656.186	5091.42
656.379	4993.12
656.571	5111.9
656.763	4913.25
656.955	4939.87
657.148	4952.16
657.34	4966.49
657.532	4804.71
657.724	4853.86
657.916	4876.38
658.108	4819.04
658.3	4644.96
658.492	4718.69
658.684	4655.2
658.876	4606.05
659.068	4808.8
659.26	4597.86
659.452	4735.07
659.644	4628.58
659.836	4513.89
660.028	4526.18
660.22	4415.59
660.412	4368.49
660.604	4393.06
660.796	4425.83
660.988	4290.67
661.18	4384.87
661.372	4409.45
661.563	4474.98
661.755	4360.3
661.947	4391.02
662.139	4264.04
662.331	4221.03
662.522	4231.27
662.714	4221.03
662.906	4126.83
663.097	4178.03
663.289	4114.54
663.481	4175.98
663.673	4114.54
663.864	4141.16
664.056	3952.75
664.247	4186.22
664.439	3922.03
664.631	4032.62
664.822	4071.53
665.014	3969.13
665.205	3985.52
665.397	3999.85
665.588	4110.44
665.78	3854.45
665.971	4065.39
666.163	3860.59
666.354	3950.7
666.546	3876.98
666.737	3981.42
666.929	3913.84
667.12	3815.54
667.311	3827.82
667.503	3723.38
667.694	3795.06
667.885	3838.06
668.077	3850.35
668.268	3661.94
668.459	3750
668.651	3557.49
668.842	3637.36
669.033	3604.6
669.224	3539.06
669.416	3657.84
669.607	3502.2
669.798	3596.4
669.989	3614.84
670.18	3600.5
670.371	3532.92
670.563	3559.54
670.754	3498.1
670.945	3582.07
671.136	3647.6
671.327	3428.47
671.518	3438.71
671.709	3473.53
671.9	3661.94
672.091	3489.91
672.282	3391.61
672.473	3537.01
672.664	3508.34
672.855	3324.02
673.046	3362.94
673.237	3448.95
673.428	3438.71
673.619	3254.39
673.809	3276.92
674	3266.68
674.191	3371.13
674.382	3393.65
674.573	3393.65
674.764	3416.18
674.954	3571.83
675.145	3317.88
675.336	3254.39
675.527	3342.46
675.717	3217.53
675.908	3231.87
676.099	3301.5
676.289	3080.32
676.48	3281.02
676.671	3311.74
676.861	3352.7
677.052	3223.67
677.243	3192.95
677.433	3162.23
677.624	3301.5
677.814	3092.6
678.005	3111.04
678.195	3207.29
678.386	3166.33
678.576	3166.33
678.767	3209.34
678.957	3199.1
679.148	3068.03
679.338	3139.71
679.529	3115.13
679.719	3117.18
679.909	3213.43
680.1	3225.72
680.29	3129.47
680.481	3029.12
680.671	3078.27
680.861	2984.06
681.052	3084.41
681.242	3047.55
681.432	3176.57
681.622	3164.28
681.813	3100.8
682.003	3031.16
682.193	3016.83
682.383	3164.28
682.573	3080.32
682.764	3029.12
682.954	2988.16
683.144	3131.51
683.334	3045.5
683.524	3016.83
683.714	3108.99
683.904	3090.56
684.094	3020.92
684.284	3029.12
684.474	3041.4
684.664	2973.82
684.854	3012.73
685.044	2977.92
685.234	3037.31
685.424	2965.63
685.614	2908.29
685.804	2834.56
685.994	2922.62
686.184	3002.49
686.374	2842.75
686.564	3029.12
686.753	2896
686.943	2844.8
687.133	2863.23
687.323	2789.5
687.513	2730.11
687.702	2955.39
687.892	2793.6
688.082	2930.81
688.272	2891.9
688.461	2789.5
688.651	2838.66
688.841	2814.08
689.03	2803.84
689.22	2693.25
689.41	2699.39
689.599	2750.59
689.789	2779.26
689.979	2680.96
690.168	2797.7
690.358	2588.8
690.547	2683.01
690.737	2691.2
690.926	2680.96
691.116	2627.71
691.305	2650.24
691.495	2652.29
691.684	2631.81
691.874	2547.84
692.063	2474.12
692.252	2588.8
692.442	2590.85
692.631	2478.21
692.82	2435.21
693.01	2586.76
693.199	2508.93
693.388	2490.5
693.578	2461.83
693.767	2609.28
693.956	2443.4
694.146	2461.83
694.335	2519.17
694.524	2472.07
694.713	2422.92
694.902	2470.02
695.092	2424.97
695.281	2427.01
695.47	2488.45
695.659	2375.81
695.848	2369.67
696.037	2472.07
696.226	2414.73
696.415	2431.11
696.604	2394.25
696.793	2445.45
696.982	2297.99
697.171	2443.4
697.36	2381.96
697.549	2259.08
697.738	2394.25
697.927	2437.25
698.116	2259.08
698.305	2390.15
698.494	2295.94
698.683	2375.81
698.872	2351.24
699.061	2396.29
699.25	2353.29
699.438	2392.2
699.627	2332.81
699.816	2295.94
700.005	2316.42
700.193	2189.45
700.382	2295.94
700.571	2300.04
700.76	2345.09
700.948	2392.2
701.137	2302.09
701.326	2273.42
701.514	2273.42
701.703	2338.95
701.892	2291.85
702.08	2308.23
702.269	2322.57
702.457	2328.71
702.646	2269.32
702.834	2277.51
703.023	2144.39
703.212	2267.27
703.4	2353.29
703.589	2220.17
703.777	2336.9
703.965	2218.12
704.154	2306.18
704.342	2277.51
704.531	2363.53
704.719	2252.94
704.907	2375.81
705.096	2304.14
705.284	2191.5
705.472	2353.29
705.661	2312.33
705.849	2398.34
706.037	2275.46
706.226	2326.66
706.414	2353.29
706.602	2302.09
706.79	2351.24
706.979	2267.27
707.167	2373.77
707.355	2261.13
707.543	2283.66
707.731	2396.29
707.919	2373.77
708.107	2295.94
708.296	2318.47
708.484	2119.82
708.672	2244.74
708.86	2316.42
709.048	2222.22
709.236	2197.64
709.424	2240.65
709.612	2310.28
709.8	2207.88
709.988	2390.15
710.176	2275.46
710.364	2455.69
710.551	2365.57
710.739	2343.05
710.927	2289.8
711.115	2404.49
711.303	2293.9
711.491	2310.28
711.679	2338.95
711.866	2367.62
712.054	2355.33
712.242	2267.27
712.43	2502.79
712.617	2363.53
712.805	2392.2
712.993	2158.73
713.181	2373.77
713.368	2310.28
713.556	2283.66
713.744	2312.33
713.931	2246.79
714.119	2357.38
714.306	2437.25
714.494	2517.12
714.682	2341
714.869	2338.95
715.057	2338.95
715.244	2324.62
715.432	2226.31
715.619	2351.24
715.807	2392.2
715.994	2367.62
716.182	2379.91
716.369	2365.57
716.556	2412.68
716.744	2347.14
716.931	2420.87
717.119	2336.9
717.306	2355.33
717.493	2381.96
717.681	2351.24
717.868	2384.01
718.055	2375.81
718.242	2297.99
718.43	2388.1
718.617	2424.97
718.804	2400.39
718.991	2470.02
719.179	2470.02
719.366	2246.79
719.553	2396.29
719.74	2341
719.927	2476.16
720.114	2404.49
720.301	2427.01
720.488	2310.28
720.676	2410.63
720.863	2558.08
721.05	2398.34
721.237	2394.25
721.424	2457.73
721.611	2515.08
721.798	2384.01
721.985	2304.14
722.172	2379.91
722.358	2390.15
722.545	2433.16
722.732	2394.25
722.919	2429.06
723.106	2349.19
723.293	2369.67
723.48	2422.92
723.667	2451.59
723.853	2367.62
724.04	2390.15
724.227	2381.96
724.414	2482.31
724.6	2457.73
724.787	2367.62
724.974	2394.25
725.161	2437.25
725.347	2400.39
725.534	2388.1
725.72	2410.63
725.907	2470.02
726.094	2504.84
726.28	2424.97
726.467	2427.01
726.653	2316.42
726.84	2427.01
727.027	2439.3
727.213	2418.82
727.4	2486.4
727.586	2429.06
727.773	2439.3
727.959	2390.15
728.145	2392.2
728.332	2377.86
728.518	2373.77
728.705	2500.74
728.891	2521.22
729.077	2525.32
729.264	2455.69
729.45	2416.77
729.636	2478.21
729.823	2330.76
730.009	2447.49
730.195	2459.78
730.382	2490.5
730.568	2283.66
730.754	2478.21
730.94	2519.17
731.126	2404.49
731.313	2435.21
731.499	2343.05
731.685	2330.76
731.871	2406.53
732.057	2451.59
732.243	2443.4
732.429	2437.25
732.615	2492.55
732.801	2420.87
732.987	2445.45
733.173	2404.49
733.359	2496.64
733.545	2326.66
733.731	2398.34
733.917	2531.46
734.103	2388.1
734.289	2422.92
734.475	2398.34
734.661	2482.31
734.847	2459.78
735.033	2334.86
735.219	2424.97
735.404	2377.86
735.59	2459.78
735.776	2533.51
735.962	2330.76
736.148	2470.02
736.333	2351.24
736.519	2392.2
736.705	2463.88
736.89	2416.77
737.076	2373.77
737.262	2343.05
737.447	2429.06
737.633	2324.62
737.819	2312.33
738.004	2396.29
738.19	2400.39
738.375	2357.38
738.561	2222.22
738.747	2478.21
738.932	2267.27
739.118	2459.78
739.303	2302.09
739.489	2310.28
739.674	2369.67
739.859	2287.75
740.045	2381.96
740.23	2338.95
740.416	2246.79
740.601	2386.05
740.786	2338.95
740.972	2199.69
741.157	2242.7
741.342	2300.04
741.528	2281.61
741.713	2291.85
741.898	2300.04
742.084	2291.85
742.269	2232.46
742.454	2293.9
742.639	2232.46
742.824	2168.97
743.01	2234.5
743.195	2181.26
743.38	2193.55
743.565	2105.48
743.75	2148.49
743.935	2201.74
744.12	2263.18
744.305	2115.72
744.49	2162.83
744.675	2173.07
744.86	2115.72
745.045	2099.34
745.23	2037.9
745.415	2179.21
745.6	2142.35
745.785	1988.75
745.97	2089.1
746.155	2066.57
746.34	1980.56
746.525	2025.61
746.71	2062.48
746.895	2029.71
747.079	2095.24
747.264	1998.99
747.449	1996.94
747.634	1976.46
747.819	1970.32
748.003	1990.8
748.188	1888.4
748.373	1900.69
748.557	1935.5
748.742	1824.91
748.927	1810.58
749.111	1902.73
749.296	1894.54
749.481	1878.16
749.665	1867.92
749.85	1794.19
750.034	1841.29
750.219	1802.38
750.404	1808.53
750.588	1831.05
750.773	1745.04
750.957	1804.43
751.141	1706.13
751.326	1675.41
751.51	1763.47
751.695	1753.23
751.879	1732.75
752.064	1687.7
752.248	1685.65
752.432	1726.61
752.617	1669.27
752.801	1622.16
752.985	1595.54
753.17	1579.15
753.354	1640.59
753.538	1667.22
753.722	1521.81
753.907	1597.59
754.091	1470.61
754.275	1536.15
754.459	1523.86
754.643	1575.06
754.828	1454.23
755.012	1581.2
755.196	1478.8
755.38	1507.48
755.564	1509.52
755.748	1489.04
755.932	1458.32
756.116	1464.47
756.3	1417.37
756.484	1470.61
756.668	1419.41
756.852	1312.92
757.036	1433.75
757.22	1364.12
757.404	1382.55
757.588	1329.3
757.772	1415.32
757.956	1362.07
758.14	1333.4
758.323	1247.38
758.507	1314.97
758.691	1271.96
758.875	1224.86
759.059	1288.34
759.242	1249.43
759.426	1290.39
759.61	1259.67
759.794	1312.92
759.977	1159.32
760.161	1267.86
760.345	1204.38
760.528	1204.38
760.712	1235.1
760.895	1257.62
761.079	1233.05
761.263	1173.66
761.446	1181.85
761.63	1304.73
761.813	1140.89
761.997	1167.51
762.18	1046.68
762.364	1161.37
762.547	1015.96
762.731	1079.45
762.914	1208.47
763.098	1112.22
763.281	1044.63
763.464	1124.51
763.648	1140.89
763.831	1058.97
764.015	1073.31
764.198	1140.89
764.381	1005.72
764.564	1134.75
764.748	1122.46
764.931	1120.41
765.114	995.48
765.297	1056.92
765.481	1056.92
765.664	1005.72
765.847	1052.83
766.03	1018.01
766.213	1038.49
766.397	1032.35
766.58	1038.49
766.763	987.29
766.946	1071.26
767.129	977.05
767.312	925.85
767.495	938.14
767.678	1028.25
767.861	886.94
768.044	964.76
768.227	1015.96
768.41	1032.35
768.593	993.44
768.776	964.76
768.959	1073.31
769.142	962.72
769.324	915.61
769.507	909.47
769.69	901.28
769.873	923.8
770.056	938.14
770.239	852.13
770.421	874.65
770.604	802.97
770.787	835.74
770.97	870.56
771.152	823.45
771.335	927.9
771.518	876.7
771.7	827.55
771.883	841.89
772.066	827.55
772.248	845.98
772.431	835.74
772.613	850.08
772.796	862.37
772.978	813.21
773.161	905.37
773.343	858.27
773.526	876.7
773.708	821.41
773.891	854.17
774.073	768.16
774.256	727.2
774.438	860.32
774.621	721.06
774.803	813.21
774.985	848.03
775.168	907.42
775.35	772.25
775.532	735.39
775.715	776.35
775.897	759.97
776.079	757.92
776.261	735.39
776.444	784.54
776.626	704.67
776.808	704.67
776.99	694.43
777.173	712.86
777.355	772.25
777.537	747.68
777.719	706.72
777.901	704.67
778.083	645.28
778.265	680.1
778.447	731.3
778.629	684.19
778.811	661.66
778.993	639.14
779.175	641.18
779.357	587.94
779.539	626.85
779.721	661.66
779.903	673.95
780.085	610.47
780.267	692.38
780.449	573.6
780.631	647.33
780.812	635.04
780.994	589.99
781.176	589.99
781.358	555.17
781.54	563.36
781.721	614.56
781.903	729.25
782.085	512.16
782.267	499.88
782.448	553.12
782.63	581.79
782.812	526.5
782.993	497.83
783.175	577.7
783.357	565.41
783.538	549.03
783.72	546.98
783.901	657.57
784.083	514.21
784.264	538.79
784.446	530.59
784.627	495.78
784.809	506.02
784.99	454.82
785.172	465.06
785.353	557.22
785.535	420
785.716	428.2
785.897	510.11
786.079	460.96
786.26	528.55
786.441	397.48
786.623	471.2
786.804	477.35
786.985	415.91
787.167	385.19
787.348	522.4
787.529	395.43
787.71	567.46
787.891	424.1
788.073	409.76
788.254	372.9
788.435	442.53
788.616	387.24
788.797	440.48
788.978	385.19
789.159	411.81
789.34	491.68
789.522	399.52
789.703	426.15
789.884	358.57
790.065	403.62
790.246	430.24
790.427	311.46
790.607	409.76
790.788	385.19
790.969	305.32
791.15	374.95
791.331	321.7
791.512	356.52
791.693	385.19
791.874	336.04
792.054	454.82
792.235	366.76
792.416	303.27
792.597	293.03
792.778	315.56
792.958	348.33
793.139	280.74
793.32	395.43
793.5	299.17
793.681	401.57
793.862	327.85
794.042	399.52
794.223	297.13
794.404	336.04
794.584	352.42
794.765	252.07
794.945	358.57
795.126	356.52
795.306	321.7
795.487	342.18
795.667	305.32
795.848	323.75
796.028	295.08
796.209	395.43
796.389	317.61
796.57	327.85
796.75	276.65
796.93	331.94
797.111	303.27
797.291	284.84
797.471	307.37
797.652	270.5
797.832	260.26
798.012	333.99
798.192	260.26
798.373	393.38
798.553	305.32
798.733	321.7
798.913	270.5
799.093	254.12
799.274	254.12
799.454	356.52
799.634	290.98
799.814	223.4
799.994	252.07
800.174	229.54
800.354	321.7
800.534	274.6
800.714	295.08
800.894	221.35
801.074	317.61
801.254	305.32
801.434	319.65
801.614	274.6
801.794	225.45
801.974	686.24
802.154	231.59
802.334	293.03
802.514	241.83
802.693	237.74
802.873	254.12
803.053	297.13
803.233	276.65
803.413	252.07
803.592	215.21
803.772	166.06
803.952	237.74
804.131	211.11
804.311	209.06
804.491	247.97
804.67	202.92
804.85	129.19
805.03	225.45
805.209	254.12
805.389	207.02
805.568	250.02
805.748	211.11
805.928	225.45
806.107	233.64
806.287	211.11
806.466	250.02
806.646	198.82
806.825	239.78
807.004	172.2
807.184	260.26
807.363	188.58
807.543	198.82
807.722	192.68
807.901	207.02
808.081	211.11
808.26	155.82
808.439	215.21
808.619	172.2
808.798	178.34
808.977	239.78
809.156	215.21
809.336	145.58
809.515	264.36
809.694	182.44
809.873	170.15
810.052	180.39
810.231	178.34
810.411	186.54
810.59	278.69
810.769	155.82
810.948	215.21
811.127	151.72
811.306	194.73
811.485	190.63
811.664	194.73
811.843	231.59
812.022	151.72
812.201	219.3
812.38	137.38
812.559	129.19
812.737	217.26
812.916	106.67
813.095	65.71
813.274	133.29
813.453	143.53
813.632	174.25
813.811	194.73
813.989	114.86
814.168	80.04
814.347	182.44
814.526	186.54
814.704	147.62
814.883	202.92
815.062	194.73
815.24	221.35
815.419	168.1
815.598	147.62
815.776	84.14
815.955	102.57
816.133	143.53
816.312	145.58
816.49	147.62
816.669	84.14
816.847	141.48
817.026	137.38
817.204	123.05
817.383	77.99
817.561	184.49
817.74	45.23
817.918	123.05
818.097	196.78
818.275	112.81
818.453	229.54
818.632	159.91
818.81	172.2
818.988	96.43
819.167	153.77
819.345	188.58
819.523	139.43
819.701	182.44
819.879	131.24
820.058	184.49
820.236	114.86
820.414	98.47
820.592	198.82
820.77	176.3
820.948	108.71
821.127	96.43
821.305	170.15
821.483	82.09
821.661	98.47
821.839	92.33
822.017	67.75
822.195	231.59
822.373	127.14
822.551	180.39
822.729	143.53
822.907	86.19
823.085	123.05
823.262	77.99
823.44	166.06
823.618	137.38
823.796	121
823.974	94.38
824.152	114.86
824.329	235.69
824.507	24.75
824.685	69.8
824.863	108.71
825.04	131.24
825.218	106.67
825.396	149.67
825.574	123.05
825.751	161.96
825.929	110.76
826.107	98.47
826.284	164.01
826.462	186.54
826.639	149.67
826.817	32.94
826.994	112.81
827.172	73.9
827.349	116.9
827.527	73.9
827.704	174.25
827.882	145.58
828.059	112.81
828.237	133.29
828.414	159.91
828.591	24.75
828.769	137.38
828.946	137.38
829.124	94.38
829.301	151.72
829.478	121
829.655	170.15
829.833	39.08
830.01	73.9
830.187	127.14
830.364	88.23
830.542	96.43
830.719	116.9
830.896	63.66
831.073	69.8
831.25	59.56
831.427	172.2
831.604	137.38
831.782	108.71
831.959	131.24
832.136	116.9
832.313	159.91
832.49	43.18
832.667	149.67
832.844	116.9
833.021	188.58
833.198	92.33
833.374	94.38
833.551	100.52
833.728	59.56
833.905	123.05
834.082	47.27
834.259	102.57
834.436	141.48
834.612	77.99
834.789	45.23
834.966	61.61
835.143	118.95
835.319	26.79
835.496	129.19
835.673	77.99
835.85	121
836.026	192.68
836.203	96.43
836.38	118.95
836.556	82.09
836.733	121
836.909	102.57
837.086	80.04
837.262	104.62
837.439	90.28
837.616	125.1
837.792	53.42
837.968	75.95
838.145	59.56
838.321	139.43
838.498	100.52
838.674	118.95
838.851	166.06
839.027	10.41
839.203	75.95
839.38	34.99
839.556	47.27
839.732	129.19
839.909	26.79
840.085	28.84
840.261	59.56
840.437	98.47
840.614	63.66
840.79	41.13
840.966	73.9
841.142	102.57
841.318	94.38
841.494	75.95
841.671	63.66
841.847	90.28
842.023	55.47
842.199	100.52
842.375	90.28
842.551	37.03
842.727	-1.88
842.903	149.67
843.079	90.28
843.255	45.23
843.431	86.19
843.607	43.18
843.783	114.86
843.959	104.62
844.134	73.9
844.31	127.14
844.486	100.52
844.662	63.66
844.838	67.75
845.013	65.71
845.189	65.71
845.365	112.81
845.541	90.28
845.716	18.6
845.892	59.56
846.068	-1.88
846.244	94.38
846.419	37.03
846.595	75.95
846.77	84.14
846.946	10.41
847.122	61.61
847.297	10.41
847.473	-16.21
847.648	41.13
847.824	90.28
847.999	49.32
848.175	67.75
848.35	86.19
848.526	57.51
848.701	67.75
848.876	37.03
849.052	57.51
849.227	51.37
849.403	-3.93
849.578	22.7
849.753	67.75
849.929	90.28
850.104	84.14
850.279	10.41
850.454	47.27
850.63	47.27
850.805	-46.93
850.98	26.79
851.155	45.23
851.33	32.94
851.505	98.47
851.681	75.95
851.856	69.8
852.031	-26.45
852.206	61.61
852.381	43.18
852.556	-1.88
852.731	55.47
852.906	51.37
853.081	43.18
853.256	65.71
853.431	49.32
853.606	69.8
853.781	28.84
853.956	39.08
854.131	20.65
854.305	0.17
854.48	90.28
854.655	67.75
854.83	28.84
855.005	57.51
855.18	-5.97
855.354	73.9
855.529	6.31
855.704	6.31
855.879	-1.88
856.053	-5.97
856.228	34.99
856.403	41.13
856.577	24.75
856.752	20.65
856.926	73.9
857.101	37.03
857.276	75.95
857.45	2.22
857.625	108.71
857.799	24.75
857.974	90.28
858.148	18.6
858.323	94.38
858.497	2.22
858.672	34.99
858.846	10.41
859.02	34.99
859.195	-8.02
859.369	77.99
859.543	10.41
859.718	94.38
859.892	16.55
860.066	114.86
860.241	63.66
860.415	100.52
860.589	39.08
860.763	69.8
860.938	67.75
861.112	32.94
861.286	18.6
861.46	139.43
861.634	14.51
861.808	20.65
861.982	-14.17
862.157	8.36
862.331	39.08
862.505	45.23
862.679	37.03
862.853	22.7
863.027	45.23
863.201	92.33
863.375	51.37
863.549	94.38
863.722	34.99
863.896	49.32
864.07	63.66
864.244	10.41
864.418	92.33
864.592	178.34
864.766	2.22
864.939	18.6
865.113	-28.5
865.287	63.66
865.461	-22.36
865.634	-14.17
865.808	18.6
865.982	26.79
866.156	80.04
866.329	-28.5
866.503	14.51
866.676	12.46
866.85	8.36
867.024	71.85
867.197	55.47
867.371	102.57
867.544	61.61
867.718	92.33
867.891	37.03
868.065	-38.74
868.238	55.47
868.412	71.85
868.585	32.94
868.759	-1.88
868.932	45.23
869.105	63.66
869.279	20.65
869.452	49.32
869.625	96.43
869.799	-8.02
869.972	32.94
870.145	55.47
870.319	41.13
870.492	34.99
870.665	-5.97
870.838	10.41
871.011	-42.84
871.185	67.75
871.358	-28.5
871.531	80.04
871.704	-8.02
871.877	32.94
872.05	30.89
872.223	12.46
872.396	63.66
872.569	51.37
872.742	-32.6
872.915	-5.97
873.088	-10.07
873.261	47.27
873.434	45.23
873.607	77.99
873.78	84.14
873.953	61.61
874.126	-38.74
874.299	30.89
874.471	-10.07
874.644	65.71
874.817	12.46
874.99	18.6
875.163	30.89
875.335	51.37
875.508	47.27
875.681	84.14
875.853	55.47
876.026	16.55
876.199	28.84
876.371	55.47
876.544	2.22
876.717	34.99
876.889	-18.26
877.062	57.51
877.234	-3.93
877.407	-8.02
877.579	59.56
877.752	-8.02
877.924	69.8
878.097	55.47
878.269	2.22
878.442	57.51
878.614	-20.31
878.786	16.55
878.959	71.85
879.131	12.46
879.303	108.71
879.476	51.37
879.648	47.27
879.82	39.08
879.993	73.9
880.165	86.19
880.337	39.08
880.509	34.99
880.681	6.31
880.854	14.51
881.026	47.27
881.198	-3.93
881.37	65.71
881.542	61.61
881.714	57.51
881.886	22.7
882.058	80.04
882.23	30.89
882.402	-3.93
882.574	69.8
882.746	47.27
882.918	127.14
883.09	8.36
883.262	100.52
883.434	51.37
883.606	28.84
883.778	10.41
883.95	63.66
884.122	22.7
884.293	65.71
884.465	24.75
884.637	51.37
884.809	-34.64
884.98	-24.4
885.152	16.55
885.324	84.14
885.496	-1.88
885.667	14.51
885.839	0.17
886.011	16.55
886.182	-32.6
886.354	61.61
886.525	16.55
886.697	37.03
886.869	49.32
887.04	28.84
887.212	-28.5
887.383	43.18
887.555	30.89
887.726	0.17
887.897	8.36
888.069	16.55
888.24	10.41
888.412	-18.26
888.583	-3.93
888.754	43.18
888.926	-10.07
889.097	108.71
889.268	14.51
889.44	45.23
889.611	47.27
889.782	34.99
889.953	45.23
890.125	61.61
890.296	12.46
890.467	18.6
890.638	28.84
890.809	100.52
890.98	14.51
891.151	59.56
891.323	86.19
891.494	-10.07
891.665	24.75
891.836	34.99
892.007	-3.93
892.178	20.65
892.349	-12.12
892.52	-57.17
892.691	118.95
892.862	-26.45
893.032	-18.26
893.203	-18.26
893.374	-14.17
893.545	16.55
893.716	12.46
893.887	6.31
894.057	53.42
894.228	67.75
894.399	-30.55
894.57	59.56
894.74	51.37
894.911	20.65
895.082	49.32
895.253	82.09
895.423	43.18
895.594	24.75
895.764	14.51
895.935	32.94
896.106	24.75
896.276	-34.64
896.447	-40.79
896.617	16.55
896.788	22.7
896.958	47.27
897.129	-26.45
897.299	14.51
897.47	67.75
897.64	39.08
897.81	-67.41
897.981	51.37
898.151	18.6
898.322	92.33
898.492	24.75
898.662	6.31
898.832	30.89
899.003	100.52
899.173	18.6
899.343	51.37
899.513	71.85
