Data from USB4F104151__34__11-51-39-748.txt Node

Date: Fri Mar 14 11:51:39 EDT 2025
User: louis
Spectrometer: USB4F10415
Trigger mode: 4
Integration Time (sec): 2.000000E-2
Scans to average: 1
Electric dark correction enabled: true
Nonlinearity correction enabled: false
Boxcar width: 0
XAxis mode: Wavelengths
Number of Pixels in Spectrum: 3648
>>>>>Begin Spectral Data<<<<<
178.204	-49.32
178.424	-49.32
178.644	-49.32
178.864	-49.32
179.084	-75.95
179.304	55.12
179.524	20.31
179.744	-69.8
179.964	14.17
180.184	22.36
180.404	8.02
180.624	-10.41
180.844	-43.18
181.064	-37.03
181.283	42.84
181.503	-65.71
181.723	63.32
181.943	-49.32
182.163	32.6
182.383	22.36
182.602	85.84
182.822	-22.7
183.042	55.12
183.262	-18.6
183.482	16.21
183.701	-26.79
183.921	8.02
184.141	-18.6
184.361	-6.31
184.58	14.17
184.8	-37.03
185.02	-14.51
185.239	-0.17
185.459	32.6
185.679	1.88
185.898	-32.94
186.118	40.79
186.338	-4.27
186.557	22.36
186.777	75.6
186.997	55.12
187.216	20.31
187.436	106.32
187.655	22.36
187.875	73.56
188.095	-22.7
188.314	22.36
188.534	-6.31
188.753	-10.41
188.973	85.84
189.192	-18.6
189.412	1.88
189.631	-18.6
189.851	38.74
190.07	12.12
190.29	-32.94
190.509	-39.08
190.729	-34.99
190.948	-2.22
191.168	112.47
191.387	10.07
191.607	-8.36
191.826	-26.79
192.045	5.97
192.265	-26.79
192.484	98.13
192.704	20.31
192.923	5.97
193.142	38.74
193.362	5.97
193.581	44.88
193.8	22.36
194.02	118.61
194.239	85.84
194.458	30.55
194.678	12.12
194.897	-6.31
195.116	57.17
195.335	94.04
195.555	3.93
195.774	59.22
195.993	36.69
196.212	18.26
196.432	12.12
196.651	38.74
196.87	8.02
197.089	22.36
197.308	20.31
197.528	110.42
197.747	-20.65
197.966	-16.55
198.185	20.31
198.404	18.26
198.623	-28.84
198.842	73.56
199.062	38.74
199.281	40.79
199.5	32.6
199.719	26.45
199.938	28.5
200.157	85.84
200.376	59.22
200.595	96.08
200.814	-8.36
201.033	83.8
201.252	36.69
201.471	-57.51
201.69	-6.31
201.909	-2.22
202.128	91.99
202.347	5.97
202.566	24.4
202.785	-43.18
203.004	5.97
203.223	46.93
203.442	-51.37
203.661	44.88
203.879	38.74
204.098	12.12
204.317	-41.13
204.536	61.27
204.755	-26.79
204.974	69.46
205.193	36.69
205.411	98.13
205.63	51.03
205.849	-0.17
206.068	67.41
206.287	-14.51
206.505	67.41
206.724	91.99
206.943	-16.55
207.162	32.6
207.381	42.84
207.599	5.97
207.818	-6.31
208.037	-6.31
208.255	30.55
208.474	44.88
208.693	20.31
208.911	-61.61
209.13	65.36
209.349	-37.03
209.567	-18.6
209.786	28.5
210.005	-6.31
210.223	-63.66
210.442	16.21
210.661	22.36
210.879	51.03
211.098	-43.18
211.316	20.31
211.535	71.51
211.753	-82.09
211.972	12.12
212.191	42.84
212.409	1.88
212.628	57.17
212.846	-0.17
213.065	-12.46
213.283	75.6
213.502	-28.84
213.72	34.64
213.938	59.22
214.157	22.36
214.375	48.98
214.594	-18.6
214.812	-8.36
215.031	8.02
215.249	55.12
215.467	-24.75
215.686	14.17
215.904	71.51
216.122	42.84
216.341	-37.03
216.559	22.36
216.778	34.64
216.996	75.6
217.214	3.93
217.432	32.6
217.651	108.37
217.869	-20.65
218.087	77.65
218.306	14.17
218.524	-10.41
218.742	34.64
218.96	89.94
219.179	38.74
219.397	48.98
219.615	59.22
219.833	14.17
220.051	48.98
220.27	110.42
220.488	69.46
220.706	57.17
220.924	36.69
221.142	8.02
221.36	24.4
221.578	79.7
221.796	1.88
222.015	59.22
222.233	32.6
222.451	18.26
222.669	3.93
222.887	53.08
223.105	-34.99
223.323	53.08
223.541	5.97
223.759	42.84
223.977	38.74
224.195	40.79
224.413	-30.89
224.631	-8.36
224.849	38.74
225.067	48.98
225.285	75.6
225.503	24.4
225.721	-2.22
225.939	10.07
226.157	108.37
226.375	14.17
226.592	-4.27
226.81	20.31
227.028	22.36
227.246	34.64
227.464	16.21
227.682	67.41
227.9	91.99
228.117	-26.79
228.335	57.17
228.553	40.79
228.771	24.4
228.989	65.36
229.206	55.12
229.424	34.64
229.642	-53.42
229.86	44.88
230.077	51.03
230.295	-4.27
230.513	83.8
230.731	83.8
230.948	-8.36
231.166	85.84
231.384	24.4
231.601	79.7
231.819	98.13
232.037	-14.51
232.254	-32.94
232.472	10.07
232.689	22.36
232.907	26.45
233.125	108.37
233.342	69.46
233.56	-32.94
233.777	-26.79
233.995	34.64
234.213	102.23
234.43	61.27
234.648	36.69
234.865	51.03
235.083	28.5
235.3	24.4
235.518	32.6
235.735	116.56
235.953	18.26
236.17	51.03
236.388	71.51
236.605	5.97
236.822	20.31
237.04	48.98
237.257	51.03
237.475	22.36
237.692	180.05
237.909	5.97
238.127	-2.22
238.344	-28.84
238.562	83.8
238.779	16.21
238.996	-8.36
239.214	53.08
239.431	46.93
239.648	44.88
239.865	77.65
240.083	100.18
240.3	73.56
240.517	3.93
240.735	18.26
240.952	145.24
241.169	57.17
241.386	75.6
241.603	96.08
241.821	16.21
242.038	5.97
242.255	10.07
242.472	20.31
242.689	61.27
242.907	38.74
243.124	32.6
243.341	122.71
243.558	34.64
243.775	40.79
243.992	12.12
244.209	51.03
244.426	-32.94
244.643	-12.46
244.86	-51.37
245.078	46.93
245.295	71.51
245.512	24.4
245.729	34.64
245.946	12.12
246.163	26.45
246.38	65.36
246.597	-37.03
246.814	28.5
247.031	-8.36
247.248	53.08
247.464	-30.89
247.681	91.99
247.898	46.93
248.115	-4.27
248.332	-22.7
248.549	18.26
248.766	40.79
248.983	55.12
249.2	38.74
249.417	96.08
249.633	5.97
249.85	-37.03
250.067	32.6
250.284	85.84
250.501	77.65
250.717	53.08
250.934	44.88
251.151	-18.6
251.368	5.97
251.585	-10.41
251.801	77.65
252.018	48.98
252.235	59.22
252.451	40.79
252.668	-65.71
252.885	30.55
253.102	18.26
253.318	42.84
253.535	5.97
253.752	79.7
253.968	8.02
254.185	20.31
254.401	-2.22
254.618	69.46
254.835	46.93
255.051	106.32
255.268	59.22
255.484	14.17
255.701	34.64
255.917	-2.22
256.134	-24.75
256.351	55.12
256.567	10.07
256.784	102.23
257	36.69
257.217	96.08
257.433	34.64
257.65	-12.46
257.866	14.17
258.082	32.6
258.299	-16.55
258.515	-26.79
258.732	38.74
258.948	1.88
259.165	87.89
259.381	32.6
259.597	8.02
259.814	22.36
260.03	8.02
260.246	-4.27
260.463	61.27
260.679	32.6
260.895	12.12
261.112	12.12
261.328	-10.41
261.544	46.93
261.761	81.75
261.977	69.46
262.193	-41.13
262.409	38.74
262.626	1.88
262.842	94.04
263.058	34.64
263.274	102.23
263.49	22.36
263.707	-4.27
263.923	46.93
264.139	-12.46
264.355	20.31
264.571	51.03
264.787	81.75
265.004	36.69
265.22	-61.61
265.436	57.17
265.652	40.79
265.868	14.17
266.084	8.02
266.3	10.07
266.516	-12.46
266.732	-0.17
266.948	12.12
267.164	38.74
267.38	63.32
267.596	-37.03
267.812	114.52
268.028	38.74
268.244	-14.51
268.46	26.45
268.676	-37.03
268.892	69.46
269.108	8.02
269.324	-10.41
269.54	73.56
269.756	44.88
269.972	98.13
270.188	53.08
270.403	32.6
270.619	22.36
270.835	-16.55
271.051	77.65
271.267	53.08
271.483	16.21
271.698	55.12
271.914	38.74
272.13	-14.51
272.346	63.32
272.562	57.17
272.777	61.27
272.993	36.69
273.209	10.07
273.425	26.45
273.64	48.98
273.856	-57.51
274.072	53.08
274.287	-2.22
274.503	16.21
274.719	40.79
274.934	65.36
275.15	5.97
275.366	-10.41
275.581	-16.55
275.797	14.17
276.012	32.6
276.228	-32.94
276.444	-12.46
276.659	5.97
276.875	16.21
277.09	65.36
277.306	-6.31
277.521	18.26
277.737	-43.18
277.952	55.12
278.168	38.74
278.383	-26.79
278.599	57.17
278.814	18.26
279.03	26.45
279.245	36.69
279.461	75.6
279.676	46.93
279.892	-0.17
280.107	34.64
280.322	122.71
280.538	67.41
280.753	-20.65
280.969	3.93
281.184	48.98
281.399	32.6
281.615	73.56
281.83	57.17
282.045	-10.41
282.26	48.98
282.476	-24.75
282.691	100.18
282.906	-45.23
283.122	24.4
283.337	30.55
283.552	79.7
283.767	14.17
283.983	61.27
284.198	44.88
284.413	89.94
284.628	-14.51
284.843	46.93
285.058	118.61
285.274	98.13
285.489	-51.37
285.704	38.74
285.919	-18.6
286.134	12.12
286.349	5.97
286.564	61.27
286.779	26.45
286.995	61.27
287.21	-30.89
287.425	51.03
287.64	42.84
287.855	12.12
288.07	-6.31
288.285	104.28
288.5	51.03
288.715	16.21
288.93	51.03
289.145	40.79
289.36	65.36
289.575	40.79
289.79	34.64
290.004	-14.51
290.219	22.36
290.434	124.76
290.649	34.64
290.864	106.32
291.079	57.17
291.294	32.6
291.509	-57.51
291.724	63.32
291.938	-20.65
292.153	110.42
292.368	3.93
292.583	55.12
292.798	5.97
293.012	94.04
293.227	10.07
293.442	38.74
293.657	87.89
293.871	71.51
294.086	-4.27
294.301	81.75
294.516	63.32
294.73	53.08
294.945	-18.6
295.16	28.5
295.374	-47.27
295.589	130.9
295.804	12.12
296.018	85.84
296.233	83.8
296.447	46.93
296.662	51.03
296.877	94.04
297.091	30.55
297.306	24.4
297.52	-0.17
297.735	46.93
297.949	10.07
298.164	28.5
298.378	83.8
298.593	-0.17
298.807	63.32
299.022	8.02
299.236	53.08
299.451	14.17
299.665	57.17
299.88	24.4
300.094	16.21
300.309	55.12
300.523	53.08
300.737	73.56
300.952	-0.17
301.166	5.97
301.381	-28.84
301.595	51.03
301.809	57.17
302.024	-14.51
302.238	53.08
302.452	96.08
302.667	20.31
302.881	-4.27
303.095	5.97
303.309	-32.94
303.524	91.99
303.738	42.84
303.952	22.36
304.166	51.03
304.381	28.5
304.595	16.21
304.809	28.5
305.023	44.88
305.237	32.6
305.452	104.28
305.666	-30.89
305.88	10.07
306.094	16.21
306.308	75.6
306.522	5.97
306.736	85.84
306.95	83.8
307.164	75.6
307.379	34.64
307.593	85.84
307.807	30.55
308.021	5.97
308.235	53.08
308.449	-37.03
308.663	-10.41
308.877	83.8
309.091	51.03
309.305	48.98
309.519	34.64
309.733	5.97
309.947	-18.6
310.161	89.94
310.374	-10.41
310.588	112.47
310.802	65.36
311.016	81.75
311.23	44.88
311.444	20.31
311.658	87.89
311.872	83.8
312.085	55.12
312.299	12.12
312.513	63.32
312.727	59.22
312.941	77.65
313.154	16.21
313.368	128.85
313.582	18.26
313.796	67.41
314.009	42.84
314.223	8.02
314.437	3.93
314.651	-22.7
314.864	59.22
315.078	48.98
315.292	3.93
315.505	48.98
315.719	38.74
315.933	44.88
316.146	20.31
316.36	-2.22
316.573	59.22
316.787	157.52
317.001	26.45
317.214	26.45
317.428	67.41
317.641	26.45
317.855	91.99
318.068	57.17
318.282	20.31
318.495	20.31
318.709	22.36
318.922	-18.6
319.136	128.85
319.349	98.13
319.563	20.31
319.776	3.93
319.99	73.56
320.203	40.79
320.417	28.5
320.63	18.26
320.843	122.71
321.057	-43.18
321.27	-6.31
321.483	69.46
321.697	67.41
321.91	12.12
322.124	36.69
322.337	48.98
322.55	38.74
322.763	-6.31
322.977	5.97
323.19	12.12
323.403	89.94
323.617	87.89
323.83	20.31
324.043	96.08
324.256	104.28
324.469	44.88
324.683	16.21
324.896	106.32
325.109	-4.27
325.322	34.64
325.535	132.95
325.748	20.31
325.962	22.36
326.175	3.93
326.388	61.27
326.601	98.13
326.814	16.21
327.027	102.23
327.24	102.23
327.453	40.79
327.666	34.64
327.879	102.23
328.092	38.74
328.305	-4.27
328.518	28.5
328.731	5.97
328.944	63.32
329.157	73.56
329.37	20.31
329.583	42.84
329.796	63.32
330.009	-10.41
330.222	-22.7
330.435	12.12
330.648	53.08
330.861	44.88
331.073	34.64
331.286	-37.03
331.499	79.7
331.712	51.03
331.925	26.45
332.138	38.74
332.35	57.17
332.563	-43.18
332.776	63.32
332.989	63.32
333.202	20.31
333.414	48.98
333.627	-8.36
333.84	51.03
334.053	8.02
334.265	48.98
334.478	94.04
334.691	-24.75
334.903	28.5
335.116	8.02
335.329	22.36
335.541	63.32
335.754	57.17
335.966	-10.41
336.179	51.03
336.392	3.93
336.604	110.42
336.817	42.84
337.029	69.46
337.242	98.13
337.454	67.41
337.667	-6.31
337.88	51.03
338.092	36.69
338.305	40.79
338.517	59.22
338.729	73.56
338.942	67.41
339.154	28.5
339.367	40.79
339.579	91.99
339.792	-32.94
340.004	-0.17
340.217	5.97
340.429	122.71
340.641	63.32
340.854	5.97
341.066	1.88
341.278	48.98
341.491	-0.17
341.703	26.45
341.915	75.6
342.128	87.89
342.34	-4.27
342.552	-0.17
342.764	55.12
342.977	20.31
343.189	22.36
343.401	96.08
343.613	-20.65
343.826	14.17
344.038	-6.31
344.25	48.98
344.462	-14.51
344.674	-24.75
344.886	18.26
345.099	28.5
345.311	106.32
345.523	-4.27
345.735	71.51
345.947	67.41
346.159	55.12
346.371	42.84
346.583	22.36
346.795	42.84
347.007	85.84
347.219	-22.7
347.431	5.97
347.643	69.46
347.855	16.21
348.067	89.94
348.279	28.5
348.491	40.79
348.703	38.74
348.915	10.07
349.127	16.21
349.339	42.84
349.551	-49.32
349.763	42.84
349.975	44.88
350.187	67.41
350.399	22.36
350.61	51.03
350.822	18.26
351.034	77.65
351.246	83.8
351.458	63.32
351.669	44.88
351.881	85.84
352.093	59.22
352.305	153.43
352.517	91.99
352.728	61.27
352.94	55.12
353.152	67.41
353.363	28.5
353.575	42.84
353.787	57.17
353.999	38.74
354.21	77.65
354.422	8.02
354.633	1.88
354.845	-16.55
355.057	110.42
355.268	24.4
355.48	46.93
355.692	85.84
355.903	10.07
356.115	34.64
356.326	-30.89
356.538	48.98
356.749	75.6
356.961	59.22
357.172	77.65
357.384	55.12
357.595	91.99
357.807	55.12
358.018	75.6
358.23	46.93
358.441	63.32
358.653	24.4
358.864	65.36
359.075	118.61
359.287	32.6
359.498	96.08
359.709	-10.41
359.921	28.5
360.132	51.03
360.344	30.55
360.555	8.02
360.766	8.02
360.977	38.74
361.189	124.76
361.4	16.21
361.611	53.08
361.823	10.07
362.034	5.97
362.245	5.97
362.456	16.21
362.667	73.56
362.879	36.69
363.09	28.5
363.301	12.12
363.512	59.22
363.723	81.75
363.935	51.03
364.146	102.23
364.357	83.8
364.568	5.97
364.779	-16.55
364.99	102.23
365.201	-24.75
365.412	1.88
365.623	28.5
365.834	44.88
366.045	36.69
366.256	20.31
366.467	59.22
366.678	81.75
366.889	10.07
367.1	59.22
367.311	61.27
367.522	77.65
367.733	10.07
367.944	77.65
368.155	79.7
368.366	20.31
368.577	79.7
368.788	147.28
368.999	32.6
369.209	18.26
369.42	151.38
369.631	96.08
369.842	87.89
370.053	24.4
370.264	59.22
370.474	83.8
370.685	36.69
370.896	44.88
371.107	71.51
371.317	91.99
371.528	40.79
371.739	-6.31
371.95	57.17
372.16	32.6
372.371	89.94
372.582	-4.27
372.792	67.41
373.003	73.56
373.214	61.27
373.424	83.8
373.635	-20.65
373.846	132.95
374.056	22.36
374.267	120.66
374.477	40.79
374.688	38.74
374.898	55.12
375.109	46.93
375.319	106.32
375.53	87.89
375.74	73.56
375.951	53.08
376.161	75.6
376.372	83.8
376.582	81.75
376.793	44.88
377.003	51.03
377.214	18.26
377.424	-12.46
377.635	36.69
377.845	87.89
378.055	120.66
378.266	91.99
378.476	40.79
378.686	38.74
378.897	89.94
379.107	112.47
379.317	46.93
379.528	26.45
379.738	55.12
379.948	28.5
380.158	61.27
380.369	36.69
380.579	85.84
380.789	46.93
380.999	79.7
381.21	65.36
381.42	108.37
381.63	10.07
381.84	112.47
382.05	71.51
382.261	55.12
382.471	38.74
382.681	98.13
382.891	67.41
383.101	87.89
383.311	57.17
383.521	24.4
383.731	55.12
383.941	120.66
384.151	51.03
384.361	5.97
384.571	110.42
384.781	1.88
384.991	-4.27
385.201	100.18
385.411	-16.55
385.621	-65.71
385.831	79.7
386.041	12.12
386.251	-0.17
386.461	165.71
386.671	48.98
386.881	36.69
387.091	34.64
387.301	161.62
387.511	16.21
387.72	-6.31
387.93	128.85
388.14	118.61
388.35	87.89
388.56	-14.51
388.769	44.88
388.979	44.88
389.189	89.94
389.399	91.99
389.609	114.52
389.818	83.8
390.028	81.75
390.238	102.23
390.447	106.32
390.657	67.41
390.867	38.74
391.076	126.8
391.286	14.17
391.496	-10.41
391.705	55.12
391.915	112.47
392.125	57.17
392.334	85.84
392.544	110.42
392.753	12.12
392.963	104.28
393.172	57.17
393.382	77.65
393.591	157.52
393.801	44.88
394.01	178
394.22	85.84
394.429	120.66
394.639	120.66
394.848	18.26
395.058	77.65
395.267	91.99
395.477	63.32
395.686	130.9
395.895	155.47
396.105	149.33
396.314	137.04
396.524	132.95
396.733	85.84
396.942	96.08
397.152	128.85
397.361	81.75
397.57	128.85
397.78	120.66
397.989	110.42
398.198	75.6
398.407	51.03
398.617	153.43
398.826	120.66
399.035	89.94
399.244	130.9
399.453	59.22
399.663	34.64
399.872	147.28
400.081	126.8
400.29	120.66
400.499	180.05
400.708	139.09
400.917	120.66
401.127	153.43
401.336	89.94
401.545	169.81
401.754	141.14
401.963	137.04
402.172	104.28
402.381	116.56
402.59	104.28
402.799	169.81
403.008	137.04
403.217	124.76
403.426	128.85
403.635	51.03
403.844	147.28
404.053	104.28
404.262	100.18
404.471	180.05
404.68	180.05
404.888	175.95
405.097	206.67
405.306	186.19
405.515	251.73
405.724	102.23
405.933	190.29
406.142	169.81
406.35	247.63
406.559	249.68
406.768	143.19
406.977	280.4
407.185	178
407.394	190.29
407.603	223.06
407.812	175.95
408.02	264.02
408.229	280.4
408.438	302.93
408.646	212.82
408.855	288.59
409.064	268.11
409.272	259.92
409.481	352.08
409.69	218.96
409.898	276.31
410.107	380.75
410.315	366.42
410.524	321.36
410.733	423.76
410.941	417.61
411.15	444.24
411.358	343.89
411.567	429.9
411.775	417.61
411.984	317.26
412.192	444.24
412.401	491.34
412.609	458.57
412.818	454.48
413.026	477.01
413.234	511.82
413.443	509.77
413.651	587.6
413.86	614.22
414.068	655.18
414.276	646.99
414.485	692.04
414.693	685.9
414.901	702.28
415.11	763.72
415.318	681.8
415.526	767.82
415.734	798.54
415.943	874.31
416.151	884.55
416.359	882.5
416.567	888.65
416.776	964.42
416.984	986.95
417.192	956.23
417.4	982.85
417.608	993.09
417.817	1128.26
418.025	1062.73
418.233	1210.18
418.441	1021.77
418.649	1324.87
418.857	1253.19
419.065	1429.31
419.273	1339.2
419.481	1294.15
419.689	1535.81
419.897	1521.47
420.105	1599.29
420.313	1576.77
420.521	1693.5
420.729	1605.44
420.937	1763.13
421.145	1857.34
421.353	1896.25
421.561	2076.47
421.769	2002.74
421.977	2135.86
422.185	2096.95
422.393	2301.75
422.601	2449.2
422.809	2404.14
423.017	2502.45
423.224	2590.51
423.432	2535.21
423.64	2658.09
423.848	2836.27
424.056	2805.55
424.263	2983.72
424.471	2942.76
424.679	3098.41
424.887	3223.33
425.094	3227.43
425.302	3256.1
425.51	3358.5
425.718	3477.28
425.925	3448.61
426.133	3553.06
426.341	3886.87
426.548	4097.81
426.756	4075.29
426.964	4224.79
427.171	4247.32
427.379	4505.36
427.586	4558.61
427.794	4744.97
428.001	4937.48
428.209	5093.13
428.417	4966.15
428.624	5412.61
428.832	5408.51
429.039	5295.88
429.247	5433.09
429.454	5834.49
429.662	6153.98
429.869	5977.85
430.076	6229.75
430.284	5930.75
430.491	6444.79
430.699	6647.54
430.906	6692.59
431.114	6756.08
431.321	6903.53
431.528	7034.6
431.736	7757.53
431.943	7968.48
432.15	7818.97
432.358	7778.01
432.565	8099.55
432.772	8324.82
432.979	8664.79
433.187	8689.36
433.394	9017.04
433.601	9488.07
433.808	9410.25
434.016	9504.45
434.223	9684.67
434.43	10372.79
434.637	10133.18
434.844	10770.1
435.052	11022
435.259	10841.78
435.466	11142.83
435.673	10927.79
435.88	11728.55
436.087	12189.34
436.294	12371.61
436.501	12031.65
436.708	12439.19
436.915	12590.74
437.122	13280.91
437.329	13164.17
437.537	13819.52
437.743	14003.84
437.95	13549.19
438.157	14589.56
438.364	15173.23
438.571	14820.98
438.778	15136.37
438.985	16588.38
439.192	15709.8
439.399	16139.87
439.606	15953.51
439.813	16658.01
440.02	17716.81
440.227	17501.77
440.433	17348.17
440.64	18099.78
440.847	17729.09
441.054	18142.78
441.261	19424.81
441.467	19066.42
441.674	19775.02
441.881	20321.82
442.088	20299.3
442.294	20200.99
442.501	21065.24
442.708	21161.49
442.914	21978.63
443.121	22750.71
443.328	22236.67
443.534	24022.5
443.741	23057.91
443.948	22859.26
444.154	24567.26
444.361	24292.83
444.568	24567.26
444.774	24622.56
444.981	24767.96
445.187	25681.36
445.394	26654.14
445.6	26308.04
445.807	28767.65
446.013	27452.85
446.22	28003.75
446.426	29193.62
446.633	29310.36
446.839	30688.64
447.046	28880.28
447.252	30619.01
447.459	30864.77
447.665	30553.48
447.871	31964.53
448.078	33254.75
448.284	31821.17
448.491	32796
448.697	33899.86
448.903	34682.18
449.11	34764.1
449.316	34288.97
449.522	34655.56
449.728	35812.66
449.935	35972.4
450.141	35503.42
450.347	36318.51
450.553	35724.6
450.76	35999.02
450.966	37246.24
451.172	36941.09
451.378	37831.96
451.584	36793.64
451.791	37686.55
451.997	37661.97
452.203	38518.03
452.409	38188.3
452.615	38358.28
452.821	36799.78
453.027	36541.74
453.233	38384.91
453.44	36939.04
453.646	37231.9
453.852	37455.13
454.058	38085.9
454.264	36752.68
454.47	37782.8
454.676	36883.75
454.882	37594.39
455.088	34848.07
455.294	35261.76
455.5	35865.91
455.705	36109.61
455.911	34557.25
456.117	33842.51
456.323	33414.49
456.529	31825.26
456.735	33549.65
456.941	32664.93
457.147	31628.66
457.352	31049.08
457.558	30612.87
457.764	30602.63
457.97	30107.02
458.176	29224.34
458.381	29353.37
458.587	27960.75
458.793	27839.92
458.999	26611.14
459.204	28380.58
459.41	27520.43
459.616	25898.44
459.821	25994.7
460.027	25652.69
460.233	25177.56
460.438	24143.33
460.644	24282.59
460.85	23295.47
461.055	22588.92
461.261	22584.83
461.466	21050.9
461.672	20508.19
461.878	21898.76
462.083	20569.63
462.289	20065.83
462.494	19846.69
462.7	19050.03
462.905	18437.69
463.111	19050.03
463.316	19260.98
463.522	18720.31
463.727	18970.16
463.932	18687.54
464.138	18245.18
464.343	18660.92
464.549	17905.22
464.754	18642.49
464.959	18691.64
465.165	18345.53
465.37	17688.14
465.575	16944.72
465.781	17903.17
465.986	17964.61
466.191	17243.73
466.397	16987.73
466.602	15961.7
466.807	16705.11
467.012	16770.65
467.218	16559.7
467.423	16293.47
467.628	16483.93
467.833	17219.15
468.038	16404.06
468.244	16211.55
468.449	16795.22
468.654	16074.34
468.859	16141.92
469.064	16125.54
469.269	15218.29
469.474	15382.12
469.679	15761
469.885	15361.64
470.09	15445.61
470.295	15263.34
470.5	15246.96
470.705	15324.78
470.91	14726.77
471.115	14788.21
471.32	15101.55
471.525	14988.91
471.73	14544.5
471.935	14550.65
472.139	13796.99
472.344	13895.3
472.549	14067.33
472.754	13745.8
472.959	13764.23
473.164	13233.8
473.369	13016.72
473.574	13553.29
473.778	13467.27
473.983	13207.18
474.188	13147.79
474.393	12660.37
474.598	12734.1
474.802	12646.04
475.007	12609.17
475.212	12353.18
475.417	12209.82
475.621	12127.9
475.826	12076.7
476.031	11976.35
476.235	11624.1
476.44	11830.94
476.645	11482.79
476.849	11521.7
477.054	11554.47
477.259	11390.63
477.463	11284.14
477.668	11007.66
477.872	11239.08
478.077	10942.13
478.282	10563.25
478.486	10454.71
478.691	10471.09
478.895	10673.84
479.1	10256.06
479.304	10174.14
479.509	10186.43
479.713	10362.55
479.918	10129.08
480.122	9950.91
480.326	9936.57
480.531	10180.28
480.735	9813.7
480.94	9748.16
481.144	10254.01
481.348	9746.11
481.553	9787.07
481.757	9379.53
481.961	9813.7
482.166	9737.92
482.37	9944.77
482.574	9590.47
482.778	9555.65
482.983	9879.23
483.187	9731.78
483.391	9713.35
483.595	9518.79
483.8	9615.04
484.004	9584.32
484.208	9877.18
484.412	9735.87
484.616	9453.25
484.821	9617.09
485.025	9631.43
485.229	9547.46
485.433	9549.51
485.637	9621.19
485.841	9637.57
486.045	9563.84
486.249	9735.87
486.453	9658.05
486.657	9639.62
486.861	9649.86
487.065	9350.85
487.269	9543.36
487.473	9395.91
487.677	9635.52
487.881	9748.16
488.085	9715.39
488.289	9633.47
488.493	9608.9
488.697	9666.24
488.901	9643.71
489.105	9709.25
489.309	9629.38
489.512	9584.32
489.716	9696.96
489.92	9828.03
490.124	9639.62
490.328	9825.98
490.531	9739.97
490.735	9752.26
490.939	9803.46
491.143	9909.95
491.346	9666.24
491.55	10344.12
491.754	9871.04
491.958	9832.13
492.161	10006.2
492.365	10102.46
492.569	10186.43
492.772	10018.49
492.976	10167.99
493.18	10086.08
493.383	10245.82
493.587	10325.69
493.79	10575.54
493.994	10501.81
494.197	10565.3
494.401	10444.47
494.605	10589.88
494.808	10835.63
495.012	10901.17
495.215	10882.74
495.419	10962.61
495.622	10854.06
495.825	11085.48
496.029	10991.28
496.232	11263.66
496.436	11167.4
496.639	11685.54
496.843	11464.36
497.046	11826.85
497.249	11857.57
497.453	11894.43
497.656	11959.97
497.859	11937.44
498.063	11994.78
498.266	12398.23
498.469	12312.22
498.673	12469.91
498.876	12656.28
499.079	12762.77
499.282	12865.17
499.485	13223.56
499.689	13319.82
499.892	13446.79
500.095	13315.72
500.298	13823.62
500.501	13524.61
500.705	13860.48
500.908	14096
501.111	13997.7
501.314	14335.61
501.517	14290.56
501.72	14714.48
501.923	14550.65
502.126	14980.72
502.329	15181.42
502.532	15502.95
502.735	15156.85
502.938	15611.5
503.141	15513.19
503.344	15910.5
503.547	15982.18
503.75	16129.63
503.953	16328.28
504.156	16612.95
504.359	16549.46
504.562	16901.72
504.765	17319.5
504.968	17356.36
505.17	17382.99
505.373	17423.95
505.576	17825.35
505.779	18030.15
505.982	18085.44
506.185	18425.4
506.387	18359.87
506.59	18785.85
506.793	19076.66
506.996	18806.33
507.198	19553.83
507.401	19353.13
507.604	19744.3
507.807	19910.18
508.009	20117.03
508.212	20233.76
508.415	20438.56
508.617	20753.94
508.82	20968.98
509.022	20645.4
509.225	21165.59
509.428	21423.63
509.63	21413.39
509.833	21630.48
510.035	22275.59
510.238	22097.41
510.44	22226.43
510.643	22818.3
510.845	22791.67
511.048	22652.41
511.25	23340.53
511.453	23514.61
511.655	23985.64
511.858	23664.11
512.06	23930.34
512.262	23971.3
512.465	24264.16
512.667	24856.03
512.87	24931.8
513.072	25091.54
513.274	25411.03
513.477	25923.02
513.679	26179.01
513.881	26260.93
514.084	26525.12
514.286	26453.44
514.488	26619.33
514.69	27116.98
514.893	27276.73
515.095	27321.78
515.297	27944.36
515.499	27927.98
515.701	28411.3
515.904	28525.99
516.106	28620.19
516.308	28906.91
516.51	29197.72
516.712	29267.35
516.914	29687.18
517.116	30008.72
517.318	30045.58
517.52	30309.77
517.722	30727.55
517.925	30416.26
518.127	31262.07
518.329	31608.18
518.531	31452.53
518.733	31855.98
518.935	32281.96
519.136	32611.68
519.338	32791.9
519.54	32693.6
519.742	33295.71
519.944	33355.1
520.146	33961.3
520.348	33965.39
520.55	33844.56
520.752	34370.89
520.954	34721.09
521.155	34397.51
521.357	35011.9
521.559	35452.22
521.761	35540.28
521.963	35540.28
522.164	36105.52
522.366	36527.4
522.568	36515.11
522.77	36533.54
522.971	37262.62
523.173	36973.86
523.375	37186.85
523.576	37500.19
523.778	37154.08
523.98	37981.46
524.181	38192.4
524.383	38135.06
524.584	38495.5
524.786	38597.9
524.988	38171.92
525.189	39116.03
525.391	39347.45
525.592	39200
525.794	39447.8
525.995	39709.94
526.197	39591.16
526.398	39701.75
526.6	39838.97
526.801	40432.88
527.003	40932.58
527.204	40609
527.406	40832.23
527.607	40967.4
527.808	41336.03
528.01	40703.21
528.211	41313.5
528.412	41546.97
528.614	41628.89
528.815	41436.38
529.016	41858.26
529.218	41673.95
529.419	41499.87
529.62	41495.77
529.822	41600.22
530.023	42165.46
530.224	41872.6
530.425	42392.78
530.626	41426.14
530.828	41655.51
531.029	42710.22
531.23	42454.22
531.431	42101.97
531.632	42464.46
531.833	42740.94
532.035	42476.75
532.236	42781.9
532.437	43017.41
532.638	42312.91
532.839	42824.9
533.04	42740.94
533.241	42601.68
533.442	43441.34
533.643	42845.38
533.844	42790.09
534.045	43480.25
534.246	42597.58
534.447	43457.73
534.648	42818.76
534.849	43365.57
535.05	42945.73
535.251	43185.35
535.451	42996.93
535.652	43400.38
535.853	43109.57
536.054	43197.63
536.255	42974.41
536.456	42917.06
536.657	43977.91
536.857	43261.12
537.058	43101.38
537.259	43658.43
537.46	43490.49
537.66	43201.73
537.861	43619.52
538.062	43003.08
538.263	43592.89
538.463	43109.57
538.664	43005.13
538.865	43451.58
539.065	43424.96
539.266	43005.13
539.466	43375.81
539.667	42808.52
539.868	43754.68
540.068	42986.69
540.269	42892.49
540.469	43551.93
540.67	42675.4
540.87	43017.41
541.071	43392.19
541.271	43760.83
541.472	43539.64
541.672	43148.48
541.873	42839.24
542.073	42202.32
542.274	43431.1
542.474	43220.16
542.675	42730.7
542.875	43424.96
543.075	42632.39
543.276	42513.61
543.476	43015.36
543.676	42659.02
543.877	42839.24
544.077	43316.42
544.277	42767.56
544.478	42921.16
544.678	42960.07
544.878	42865.86
545.078	43021.51
545.279	42718.41
545.479	42872.01
545.679	42939.59
545.879	43095.24
546.079	43199.68
546.28	42685.64
546.48	42720.46
546.68	43275.46
546.88	42796.23
547.08	42689.74
547.28	42804.42
547.48	42745.03
547.68	42726.6
547.88	42501.32
548.081	42855.62
548.281	42874.06
548.481	42501.32
548.681	42980.55
548.881	42904.77
549.081	42550.48
549.28	42267.86
549.48	42882.25
549.68	42394.83
549.88	43068.61
550.08	42783.94
550.28	42675.4
550.48	42403.02
550.68	43230.4
550.88	42245.33
551.08	42482.89
551.279	42788.04
551.479	42042.58
551.679	42585.29
551.879	42796.23
552.079	42716.36
552.278	42286.29
552.478	42218.71
552.678	42642.63
552.878	42781.9
553.077	42247.38
553.277	42210.51
553.477	42986.69
553.676	41970.9
553.876	42323.15
554.076	42063.06
554.275	42228.94
554.475	41749.72
554.674	41964.76
554.874	42159.31
555.074	41950.42
555.273	41997.52
555.473	41995.48
555.672	41796.82
555.872	42003.67
556.071	41686.23
556.271	42081.49
556.47	41895.13
556.67	41653.47
556.869	41921.75
557.068	42013.91
557.268	41534.68
557.467	41317.6
557.667	41645.27
557.866	41399.52
558.065	41577.69
558.265	41309.41
558.464	41235.68
558.663	41538.78
558.863	41374.94
559.062	41522.4
559.261	40824.04
559.461	41194.72
559.66	40838.37
559.859	40815.85
560.058	40602.86
560.258	41024.74
560.457	40633.58
560.656	40705.26
560.855	40738.02
561.054	40948.96
561.253	40547.56
561.453	40758.5
561.652	40625.39
561.851	40654.06
562.05	40584.43
562.249	40041.71
562.448	40576.23
562.647	40359.15
562.846	40228.08
563.045	40348.91
563.244	39943.41
563.443	40713.45
563.642	39691.51
563.841	39967.99
564.04	39728.38
564.239	40066.29
564.438	39767.29
564.637	39828.73
564.836	39922.93
565.035	38728.97
565.234	39464.19
565.432	39492.86
565.631	39374.08
565.83	39300.35
566.029	38907.14
566.228	39054.59
566.427	39093.5
566.625	38731.01
566.824	38624.52
567.023	39003.39
567.222	38137.1
567.42	38806.79
567.619	38847.75
567.818	38538.51
568.016	38325.52
568.215	38862.08
568.414	38104.34
568.612	38663.43
568.811	38249.74
569.01	38290.7
569.208	37651.73
569.407	37831.96
569.605	37401.88
569.804	37932.31
570.002	37535
570.201	37616.92
570.4	37477.66
570.598	37233.95
570.797	37098.78
570.995	37291.29
571.193	36926.75
571.392	37270.81
571.59	37049.63
571.789	36965.67
571.987	37174.56
572.186	36453.67
572.384	36609.32
572.582	36707.62
572.781	36803.88
572.979	36220.2
573.177	36613.41
573.376	36306.22
573.574	35910.96
573.772	36183.34
573.971	35953.97
574.169	35904.82
574.367	35704.12
574.565	35689.78
574.763	35583.29
574.962	35458.36
575.16	34624.84
575.358	35773.75
575.556	34938.18
575.754	35818.8
575.952	34970.94
576.151	35239.23
576.349	34491.72
576.547	34991.42
576.745	34770.24
576.943	34557.25
577.141	34614.6
577.339	34813.25
577.537	34741.57
577.735	34452.81
577.933	34403.66
578.131	34231.63
578.329	34164.04
578.527	33770.83
578.725	33832.27
578.923	33848.66
579.121	33877.33
579.319	33721.68
579.516	33746.26
579.714	33643.86
579.912	33586.52
580.11	33301.85
580.308	33336.66
580.506	33320.28
580.704	32886.11
580.901	33119.58
581.099	32982.37
581.297	32597.35
581.495	32943.45
581.692	33008.99
581.89	32044.4
582.088	32550.24
582.285	32744.8
582.483	32615.78
582.681	32583.01
582.878	32607.59
583.076	32013.68
583.274	32451.94
583.471	31907.18
583.669	31845.74
583.866	31872.37
584.064	31880.56
584.262	31489.4
584.459	31690.1
584.657	31090.04
584.854	31751.54
585.052	30846.33
585.249	31118.71
585.447	30938.49
585.644	31251.83
585.841	31116.67
586.039	31354.23
586.236	30539.14
586.434	30621.06
586.631	30838.14
586.828	30698.88
587.026	30621.06
587.223	30258.57
587.42	30197.13
587.618	30530.95
587.815	30047.63
588.012	29951.37
588.21	29871.5
588.407	29848.97
588.604	29961.61
588.801	29412.76
588.999	29791.63
589.196	29517.2
589.393	29840.78
589.59	29494.68
589.787	29113.75
589.984	29234.58
590.182	29062.55
590.379	29396.37
590.576	29562.26
590.773	29212.06
590.97	28542.37
591.167	28614.05
591.364	28683.68
591.561	28591.52
591.758	28540.32
591.955	28507.55
592.152	28399.01
592.349	28108.2
592.546	28337.57
592.743	28386.72
592.94	28007.85
593.137	28276.13
593.334	28188.07
593.531	27493.81
593.727	27733.42
593.924	27809.2
594.121	27307.44
594.318	27561.39
594.515	27125.18
594.712	27768.24
594.908	27178.42
595.105	27497.91
595.302	26731.97
595.499	27168.18
595.696	27053.5
595.892	26877.37
596.089	27030.97
596.286	26912.19
596.482	26668.48
596.679	26625.47
596.876	26740.16
597.072	26555.84
597.269	26142.15
597.466	26072.52
597.662	26080.71
597.859	26228.17
598.055	26201.54
598.252	26031.56
598.448	26125.77
598.645	25746.89
598.841	25783.76
599.038	25599.44
599.234	25720.27
599.431	25282
599.627	25466.32
599.824	25636.3
600.02	24987.1
600.217	25386.45
600.413	25013.72
600.609	25220.56
600.806	24808.92
601.002	25036.25
601.198	24743.39
601.395	24503.78
601.591	24749.53
601.787	24661.47
601.984	24425.95
602.18	24800.73
602.376	24309.22
602.572	24384.99
602.769	24395.23
602.965	24047.08
603.161	24481.25
603.357	23764.46
603.553	24026.6
603.75	23811.56
603.946	23651.82
604.142	24047.08
604.338	23682.54
604.534	23778.79
604.73	23221.75
604.926	23401.97
605.122	23549.42
605.318	23168.5
605.514	23055.86
605.71	23444.98
605.906	23166.45
606.102	22943.22
606.298	23254.51
606.494	23115.25
606.69	23260.66
606.886	23053.81
607.082	22580.73
607.278	22910.46
607.474	22533.63
607.67	22648.32
607.866	22578.68
608.062	22609.4
608.257	22590.97
608.453	22478.33
608.649	22328.83
608.845	22189.57
609.041	22146.56
609.236	22179.33
609.432	21980.68
609.628	22183.43
609.824	22177.28
610.019	22115.84
610.215	22132.23
610.411	22423.04
610.606	22097.41
610.802	21925.38
610.998	21607.95
611.193	21937.67
611.389	21739.02
611.584	21689.87
611.78	21765.64
611.976	21702.15
612.171	21892.62
612.367	21356.05
612.562	21550.6
612.758	21532.17
612.953	21235.22
613.149	21440.01
613.344	21141.01
613.539	21368.34
613.735	21134.87
613.93	21329.42
614.126	21397.01
614.321	21452.3
614.517	21255.7
614.712	21024.28
614.907	20799
615.103	20995.6
615.298	20940.31
615.493	20938.26
615.688	20618.78
615.884	21114.39
616.079	20450.85
616.274	20835.86
616.47	20901.4
616.665	20672.03
616.86	20608.54
617.055	20733.46
617.25	20647.45
617.445	20819.48
617.641	20160.03
617.836	20565.53
618.031	20164.13
618.226	20278.82
618.421	20260.38
618.616	20397.6
618.811	19637.8
619.006	20426.27
619.201	19699.24
619.396	19953.19
619.591	19617.32
619.786	19834.41
619.981	19613.23
620.176	19699.24
620.371	19285.55
620.566	19631.66
620.761	19566.12
620.956	19410.48
621.151	19189.3
621.346	19199.54
621.541	18726.46
621.735	18853.43
621.93	18718.26
622.125	18622.01
622.32	18712.12
622.515	18712.12
622.709	18382.4
622.904	18564.67
623.099	18433.6
623.294	18271.81
623.488	18079.3
623.683	18277.95
623.878	17813.06
624.072	17968.71
624.267	17880.64
624.462	17731.14
624.656	17503.82
624.851	17354.32
625.046	17581.64
625.24	17251.92
625.435	16977.49
625.629	17079.89
625.824	16807.51
626.018	16610.9
626.213	16535.13
626.407	16764.5
626.602	16426.59
626.796	16608.86
626.991	16604.76
627.185	16373.34
627.38	16084.58
627.574	16299.61
627.768	15953.51
627.963	15953.51
628.157	16000.61
628.352	15939.17
628.546	15918.69
628.74	15728.23
628.935	15564.39
629.129	15660.65
629.323	15464.04
629.517	15277.68
629.712	15214.19
629.906	15375.98
630.1	14993.01
630.294	15136.37
630.489	15031.92
630.683	15144.56
630.877	14763.64
631.071	14757.49
631.265	14632.57
631.459	14589.56
631.653	14427.77
631.848	14544.5
632.042	14233.21
632.236	14341.75
632.43	14161.53
632.624	14059.13
632.818	13997.7
633.012	13848.19
633.206	13936.26
633.4	13921.92
633.594	13653.64
633.788	13717.12
633.982	13768.32
634.176	13586.05
634.369	13377.16
634.563	13452.94
634.757	13260.43
634.951	13446.79
635.145	13190.8
635.339	13096.59
635.533	13145.74
635.726	13029.01
635.92	12813.97
636.114	12779.15
636.308	12732.05
636.501	12768.91
636.695	12615.32
636.889	12695.19
637.083	12306.07
637.276	12451.48
637.47	12531.35
637.664	12428.95
637.857	12177.05
638.051	12269.21
638.244	12240.54
638.438	12254.87
638.632	12152.48
638.825	11853.47
639.019	12005.02
639.212	11839.14
639.406	11830.94
639.599	11669.16
639.793	11714.21
639.986	11574.95
640.18	11728.55
640.373	11589.28
640.567	11361.96
640.76	11407.02
640.954	11503.27
641.147	11134.64
641.34	11216.55
641.534	11208.36
641.727	11212.46
641.92	10966.7
642.114	11085.48
642.307	10962.61
642.5	10847.92
642.694	10751.67
642.887	10845.87
643.08	10626.74
643.273	10516.15
643.467	10665.65
643.66	10454.71
643.853	10327.74
644.046	10294.97
644.239	10331.83
644.432	10182.33
644.626	9981.63
644.819	10196.67
645.012	10129.08
645.205	10055.36
645.398	9998.01
645.591	9905.85
645.784	9866.94
645.977	9830.08
646.17	9909.95
646.363	9658.05
646.556	9660.1
646.749	9774.78
646.942	9752.26
647.135	9676.48
647.328	9492.16
647.521	9473.73
647.714	9330.37
647.907	9418.44
648.099	9258.7
648.292	9260.74
648.485	9193.16
648.678	9197.26
648.871	9152.2
649.064	9098.95
649.256	9049.8
649.449	8933.07
649.642	8851.15
649.835	8836.81
650.027	9031.37
650.22	8621.78
650.413	8818.38
650.605	8578.77
650.798	8810.19
650.991	8629.97
651.183	8810.19
651.376	8476.37
651.568	8351.45
651.761	8355.54
651.954	8337.11
652.146	8316.63
652.339	8201.94
652.531	8158.94
652.724	8218.33
652.916	8144.6
653.109	8173.27
653.301	8111.83
653.494	8054.49
653.686	7927.52
653.879	7984.86
654.071	7937.76
654.263	7851.74
654.456	7804.64
654.648	7726.82
654.84	7790.3
655.033	7814.88
655.225	7702.24
655.417	7544.55
655.61	7493.35
655.802	7538.4
655.994	7550.69
656.186	7497.44
656.379	7499.49
656.571	7356.13
656.763	7347.94
656.955	7126.76
657.148	7399.14
657.34	7298.79
657.532	7083.75
657.724	7165.67
657.916	7071.47
658.108	7093.99
658.3	7165.67
658.492	7030.51
658.684	6975.21
658.876	7093.99
659.068	6903.53
659.26	6819.57
659.452	6848.24
659.644	6821.61
659.836	6858.48
660.028	6860.52
660.22	6616.82
660.412	6686.45
660.604	6559.47
660.796	6602.48
660.988	6440.69
661.18	6510.32
661.372	6534.9
661.563	6538.99
661.755	6455.03
661.947	6493.94
662.139	6369.01
662.331	6379.25
662.522	6309.62
662.714	6375.16
662.906	6141.69
663.097	6022.91
663.289	6051.58
663.481	6184.69
663.673	6131.45
663.864	6160.12
664.056	5998.33
664.247	6072.06
664.439	5975.8
664.631	6027
664.822	5988.09
665.014	5914.36
665.205	5920.51
665.397	5820.16
665.588	5850.88
665.78	5818.11
665.971	5785.34
666.163	5822.2
666.354	5791.48
666.546	5693.18
666.737	5748.48
666.929	5584.64
667.12	5543.68
667.311	5689.09
667.503	5721.85
667.694	5721.85
667.885	5484.29
668.077	5553.92
668.268	5361.41
668.459	5512.96
668.651	5504.77
668.842	5439.23
669.033	5316.36
669.224	5265.16
669.416	5381.89
669.607	5170.95
669.798	5162.76
669.989	5164.81
670.18	5109.51
670.371	5390.08
670.563	5177.09
670.754	5216.01
670.945	4996.87
671.136	5037.83
671.327	5191.43
671.518	4990.73
671.709	4937.48
671.9	5082.89
672.091	5129.99
672.282	5076.74
672.473	5111.56
672.664	4939.53
672.855	4976.39
673.046	5033.74
673.237	4953.87
673.428	5005.06
673.619	4859.66
673.809	4962.06
674	4853.52
674.191	4880.14
674.382	5005.06
674.573	4935.43
674.764	4804.36
674.954	4798.22
675.145	4613.9
675.336	4796.17
675.527	4722.45
675.717	4648.72
675.908	4683.53
676.099	4738.83
676.289	4697.87
676.48	4607.76
676.671	4624.14
676.861	4712.21
677.052	4538.13
677.243	4599.57
677.433	4574.99
677.624	4648.72
677.814	4546.32
678.005	4570.9
678.195	4558.61
678.386	4499.22
678.576	4503.31
678.767	4564.75
678.957	4372.24
679.148	4579.09
679.338	4591.38
679.529	4384.53
679.719	4441.87
679.909	4413.2
680.1	4503.31
680.29	4523.79
680.481	4337.43
680.671	4306.71
680.861	4495.12
681.052	4488.98
681.242	4331.28
681.432	4462.35
681.622	4206.36
681.813	4265.75
682.003	4384.53
682.193	4220.69
682.383	4306.71
682.573	4312.85
682.764	4392.72
682.954	4411.15
683.144	4214.55
683.334	4282.13
683.524	4261.65
683.714	4235.03
683.904	4230.93
684.094	4130.58
684.284	4124.44
684.474	4308.76
684.664	4267.8
684.854	4243.22
685.044	4167.45
685.234	4181.78
685.424	4282.13
685.614	4022.04
685.804	4136.73
685.994	4067.1
686.184	3989.27
686.374	4036.38
686.564	4081.43
686.753	4034.33
686.943	3890.97
687.133	3823.39
687.323	4103.96
687.513	4030.23
687.702	3858.2
687.892	3913.5
688.082	3870.49
688.272	3925.79
688.461	3745.56
688.651	4026.14
688.841	3831.58
689.03	3825.43
689.22	3888.92
689.41	3819.29
689.599	3698.46
689.789	3675.93
689.979	3776.28
690.168	3749.66
690.358	3612.45
690.547	3733.28
690.737	3749.66
690.926	3643.17
691.116	3653.41
691.305	3745.56
691.495	3501.86
691.684	3589.92
691.874	3508
692.063	3708.7
692.252	3475.23
692.442	3553.06
692.631	3401.51
692.82	3530.53
693.01	3307.3
693.199	3505.95
693.388	3473.18
693.578	3419.94
693.767	3456.8
693.956	3284.77
694.146	3387.17
694.335	3280.68
694.524	3276.58
694.713	3456.8
694.902	3352.35
695.092	3364.64
695.281	3401.51
695.47	3374.88
695.659	3311.39
695.848	3327.78
696.037	3282.72
696.226	3247.91
696.415	3247.91
696.604	3319.59
696.793	3327.78
696.982	3241.76
697.171	3237.67
697.36	3288.87
697.549	3225.38
697.738	3270.44
697.927	3215.14
698.116	3200.8
698.305	3182.37
698.494	3194.66
698.683	3155.75
698.872	3184.42
699.061	3065.64
699.25	3180.32
699.438	3163.94
699.627	3141.41
699.816	3069.73
700.005	3116.84
700.193	3082.02
700.382	3252
700.571	3170.08
700.76	3139.37
700.948	3231.52
701.137	3131.17
701.326	3221.28
701.514	3028.78
701.703	3071.78
701.892	3071.78
702.08	3182.37
702.269	3172.13
702.457	3096.36
702.646	3165.99
702.834	3026.73
703.023	2993.96
703.212	3051.3
703.4	3008.3
703.589	3065.64
703.777	3100.45
703.965	3008.3
704.154	2881.32
704.342	3026.73
704.531	3016.49
704.719	2944.81
704.907	3032.87
705.096	2903.85
705.284	3006.25
705.472	3069.73
705.661	3047.21
705.849	3114.79
706.037	3108.65
706.226	2989.86
706.414	3030.82
706.602	2942.76
706.79	2975.53
706.979	3049.25
707.167	3061.54
707.355	2914.09
707.543	2957.1
707.731	2930.47
707.919	3079.97
708.107	2996.01
708.296	3043.11
708.484	3020.58
708.672	3034.92
708.86	3053.35
709.048	2979.62
709.236	3084.07
709.424	2907.94
709.612	3069.73
709.8	2979.62
709.988	2856.75
710.176	2977.58
710.364	2903.85
710.551	3071.78
710.739	3127.08
710.927	3039.01
711.115	3256.1
711.303	2948.9
711.491	3016.49
711.679	2920.23
711.866	2985.77
712.054	2979.62
712.242	2991.91
712.43	3012.39
712.617	3143.46
712.805	3008.3
712.993	3047.21
713.181	2887.47
713.368	2864.94
713.556	2762.54
713.744	2959.14
713.931	2991.91
714.119	3022.63
714.306	3014.44
714.494	2969.38
714.682	2953
714.869	2823.98
715.057	2860.84
715.244	3018.54
715.432	3004.2
715.619	2955.05
715.807	2907.94
715.994	2973.48
716.182	2942.76
716.369	2932.52
716.556	2961.19
716.744	2946.86
716.931	2940.71
717.119	2823.98
717.306	3082.02
717.493	2848.55
717.681	3022.63
717.868	2973.48
718.055	2889.51
718.242	3039.01
718.43	2973.48
718.617	2979.62
718.804	2926.38
718.991	2918.18
719.179	3014.44
719.366	2899.75
719.553	2930.47
719.74	2826.03
719.927	3024.68
720.114	2862.89
720.301	3016.49
720.488	2963.24
720.676	2895.66
720.863	2967.34
721.05	3059.49
721.237	2869.03
721.424	2940.71
721.611	3010.34
721.798	2909.99
721.985	2938.66
722.172	2891.56
722.358	2934.57
722.545	3039.01
722.732	2963.24
722.919	2973.48
723.106	2879.27
723.293	2950.95
723.48	3000.1
723.667	2914.09
723.853	2975.53
724.04	2895.66
724.227	2916.14
724.414	2860.84
724.6	2963.24
724.787	3069.73
724.974	3016.49
725.161	2893.61
725.347	2961.19
725.534	2948.9
725.72	2946.86
725.907	2991.91
726.094	2942.76
726.28	2953
726.467	2785.07
726.653	2866.99
726.84	2987.82
727.027	3063.59
727.213	2744.11
727.4	2871.08
727.586	2955.05
727.773	2838.31
727.959	2856.75
728.145	3055.4
728.332	2891.56
728.518	2936.62
728.705	2903.85
728.891	2973.48
729.077	2909.99
729.264	2967.34
729.45	2799.4
729.636	3039.01
729.823	2901.8
730.009	2897.71
730.195	2959.14
730.382	2936.62
730.568	2881.32
730.754	2985.77
730.94	2905.9
731.126	2883.37
731.313	2885.42
731.499	2944.81
731.685	2838.31
731.871	2901.8
732.057	2912.04
732.243	2961.19
732.429	2889.51
732.615	3014.44
732.801	2998.06
732.987	2828.07
733.173	2869.03
733.359	2881.32
733.545	2885.42
733.731	2793.26
733.917	2846.51
734.103	2836.27
734.289	2883.37
734.475	2854.7
734.661	2895.66
734.847	2897.71
735.033	2826.03
735.219	2750.25
735.404	2803.5
735.59	2918.18
735.776	2776.87
735.962	2826.03
736.148	2852.65
736.333	2869.03
736.519	2903.85
736.705	2926.38
736.89	2887.47
737.076	2770.73
737.262	2721.58
737.447	2821.93
737.633	2787.11
737.819	2754.35
738.004	2885.42
738.19	2797.35
738.375	2674.48
738.561	2789.16
738.747	2672.43
738.932	2735.92
739.118	2699.05
739.303	2774.83
739.489	2823.98
739.674	2705.2
739.859	2823.98
740.045	2723.63
740.23	2676.52
740.416	2660.14
740.601	2643.76
740.786	2541.36
740.972	2625.33
741.157	2637.61
741.342	2613.04
741.528	2586.41
741.713	2619.18
741.898	2635.57
742.084	2656.04
742.269	2725.68
742.454	2531.12
742.639	2619.18
742.824	2541.36
743.01	2656.04
743.195	2604.85
743.38	2567.98
743.565	2340.66
743.75	2508.59
743.935	2561.84
744.12	2590.51
744.305	2469.68
744.49	2594.61
744.675	2563.89
744.86	2434.86
745.045	2492.21
745.23	2586.41
745.415	2488.11
745.6	2436.91
745.785	2402.1
745.97	2377.52
746.155	2465.58
746.34	2318.13
746.525	2385.71
746.71	2248.5
746.895	2326.32
747.079	2305.84
747.264	2191.16
747.449	2271.03
747.634	2213.68
747.819	2273.07
748.003	2342.71
748.188	2258.74
748.373	2285.36
748.557	2236.21
748.742	2156.34
748.927	1988.41
749.111	2137.91
749.296	2131.76
749.481	2187.06
749.665	2225.97
749.85	2076.47
750.034	2232.12
750.219	2033.46
750.404	2084.66
750.588	2019.13
750.773	1986.36
750.957	2096.95
751.141	1945.4
751.326	2004.79
751.51	2119.48
751.695	1892.15
751.879	2051.89
752.064	1941.3
752.248	1877.82
752.432	1947.45
752.617	1886.01
752.801	1963.83
752.985	1869.62
753.17	1859.38
753.354	1869.62
753.538	1843
753.722	1888.06
753.907	1742.65
754.091	1808.19
754.275	1675.07
754.459	1734.46
754.643	1773.37
754.828	1808.19
755.012	1730.36
755.196	1752.89
755.38	1648.44
755.564	1718.08
755.748	1687.36
755.932	1656.64
756.116	1732.41
756.3	1566.53
756.484	1644.35
756.668	1632.06
756.852	1689.4
757.036	1515.33
757.22	1531.71
757.404	1582.91
757.588	1591.1
757.772	1541.95
757.956	1574.72
758.14	1566.53
758.323	1443.65
758.507	1421.12
758.691	1478.46
758.875	1531.71
759.059	1531.71
759.242	1421.12
759.426	1392.45
759.61	1408.83
759.794	1480.51
759.977	1349.44
760.161	1591.1
760.345	1378.11
760.528	1365.82
760.712	1507.13
760.895	1359.68
761.079	1351.49
761.263	1337.15
761.446	1367.87
761.63	1365.82
761.813	1433.41
761.997	1244.99
762.18	1359.68
762.364	1326.91
762.547	1281.86
762.731	1261.38
762.914	1244.99
763.098	1388.35
763.281	1322.82
763.464	1208.13
763.648	1199.94
763.831	1306.43
764.015	1283.91
764.198	1214.27
764.381	1312.58
764.564	1236.8
764.748	1328.96
764.931	1267.52
765.114	1208.13
765.297	1136.45
765.481	1201.99
765.664	1175.36
765.847	1226.56
766.03	1197.89
766.213	1169.22
766.397	1255.23
766.58	1077.06
766.763	1150.79
766.946	1150.79
767.129	1177.41
767.312	1130.31
767.495	1158.98
767.678	1208.13
767.861	1261.38
768.044	1070.92
768.227	1206.08
768.41	1107.78
768.593	1148.74
768.776	1138.5
768.959	1021.77
769.142	1150.79
769.324	999.24
769.507	1058.63
769.69	1144.64
769.873	1046.34
770.056	1158.98
770.239	1050.44
770.421	1013.57
770.604	1120.07
770.787	1070.92
770.97	1099.59
771.152	1068.87
771.335	1056.58
771.518	1046.34
771.7	1001.29
771.883	980.81
772.066	997.19
772.248	956.23
772.431	1007.43
772.613	1048.39
772.796	1019.72
772.978	991.05
773.161	1044.29
773.343	968.52
773.526	847.69
773.708	956.23
773.891	927.56
774.073	919.37
774.256	868.17
774.438	933.7
774.621	843.59
774.803	1009.48
774.985	911.18
775.168	890.7
775.35	882.5
775.532	931.66
775.715	915.27
775.897	898.89
776.079	837.45
776.261	837.45
776.444	839.5
776.626	792.39
776.808	792.39
776.99	810.82
777.173	841.54
777.355	778.06
777.537	849.74
777.719	812.87
777.901	849.74
778.083	804.68
778.265	771.91
778.447	806.73
778.629	862.02
778.811	679.75
778.993	812.87
779.175	780.11
779.357	739.15
779.539	778.06
779.721	751.43
779.903	804.68
780.085	749.39
780.267	733
780.449	679.75
780.631	661.32
780.812	769.87
780.994	636.75
781.176	638.8
781.358	749.39
781.54	675.66
781.721	612.17
781.903	679.75
782.085	640.84
782.267	696.14
782.448	665.42
782.63	655.18
782.812	595.79
782.993	618.32
783.175	597.84
783.357	638.8
783.538	671.56
783.72	644.94
783.901	526.16
784.083	599.88
784.264	524.11
784.446	579.4
784.627	620.36
784.809	558.92
784.99	603.98
785.172	589.64
785.353	608.08
785.535	571.21
785.716	505.68
785.897	552.78
786.079	548.68
786.26	513.87
786.441	501.58
786.623	511.82
786.804	491.34
786.985	567.12
787.167	491.34
787.348	552.78
787.529	405.33
787.71	495.44
787.891	464.72
788.073	493.39
788.254	487.25
788.435	554.83
788.616	472.91
788.797	499.53
788.978	491.34
789.159	462.67
789.34	499.53
789.522	499.53
789.703	464.72
789.884	534.35
790.065	448.33
790.246	434
790.427	460.62
790.607	534.35
790.788	567.12
790.969	403.28
791.15	436.05
791.331	415.57
791.512	407.38
791.693	423.76
791.874	421.71
792.054	413.52
792.235	450.38
792.416	386.9
792.597	378.7
792.778	413.52
792.958	452.43
793.139	364.37
793.32	376.66
793.5	393.04
793.681	403.28
793.862	378.7
794.042	286.54
794.223	413.52
794.404	393.04
794.584	319.31
794.765	341.84
794.945	302.93
795.126	354.13
795.306	374.61
795.487	429.9
795.667	380.75
795.848	356.18
796.028	304.98
796.209	374.61
796.389	341.84
796.57	360.27
796.75	382.8
796.93	331.6
797.111	411.47
797.291	309.07
797.471	362.32
797.652	347.98
797.832	300.88
798.012	325.46
798.192	216.91
798.373	307.02
798.553	249.68
798.733	319.31
798.913	237.39
799.093	380.75
799.274	352.08
799.454	327.5
799.634	272.21
799.814	333.65
799.994	374.61
800.174	239.44
800.354	302.93
800.534	206.67
800.714	313.17
800.894	218.96
801.074	284.5
801.254	292.69
801.434	325.46
801.614	292.69
801.794	257.87
801.974	708.43
802.154	284.5
802.334	294.74
802.514	282.45
802.693	255.83
802.873	292.69
803.053	315.22
803.233	268.11
803.413	257.87
803.592	243.54
803.772	290.64
803.952	317.26
804.131	296.78
804.311	247.63
804.491	325.46
804.67	247.63
804.85	282.45
805.03	163.67
805.209	274.26
805.389	229.2
805.568	253.78
805.748	223.06
805.928	309.07
806.107	212.82
806.287	257.87
806.466	186.19
806.646	202.58
806.825	159.57
807.004	259.92
807.184	233.3
807.363	276.31
807.543	264.02
807.722	212.82
807.901	249.68
808.081	259.92
808.26	276.31
808.439	288.59
808.619	227.15
808.798	241.49
808.977	186.19
809.156	235.35
809.336	155.47
809.515	304.98
809.694	182.1
809.873	243.54
810.052	200.53
810.231	276.31
810.411	284.5
810.59	237.39
810.769	202.58
810.948	227.15
811.127	202.58
811.306	141.14
811.485	204.63
811.664	237.39
811.843	206.67
812.022	198.48
812.201	276.31
812.38	208.72
812.559	118.61
812.737	227.15
812.916	171.86
813.095	225.11
813.274	143.19
813.453	257.87
813.632	196.43
813.811	235.35
813.989	237.39
814.168	280.4
814.347	243.54
814.526	231.25
814.704	225.11
814.883	245.59
815.062	208.72
815.24	149.33
815.419	231.25
815.598	159.57
815.776	98.13
815.955	165.71
816.133	79.7
816.312	108.37
816.49	173.91
816.669	157.52
816.847	198.48
817.026	218.96
817.204	192.34
817.383	147.28
817.561	110.42
817.74	167.76
817.918	143.19
818.097	202.58
818.275	233.3
818.453	206.67
818.632	182.1
818.81	165.71
818.988	182.1
819.167	91.99
819.345	122.71
819.523	159.57
819.701	159.57
819.879	128.85
820.058	120.66
820.236	151.38
820.414	167.76
820.592	153.43
820.77	114.52
820.948	165.71
821.127	120.66
821.305	141.14
821.483	85.84
821.661	141.14
821.839	178
822.017	128.85
822.195	85.84
822.373	145.24
822.551	210.77
822.729	239.44
822.907	94.04
823.085	87.89
823.262	108.37
823.44	178
823.618	218.96
823.796	65.36
823.974	126.8
824.152	143.19
824.329	118.61
824.507	180.05
824.685	116.56
824.863	130.9
825.04	83.8
825.218	200.53
825.396	167.76
825.574	122.71
825.751	198.48
825.929	122.71
826.107	104.28
826.284	100.18
826.462	173.91
826.639	135
826.817	73.56
826.994	171.86
827.172	112.47
827.349	143.19
827.527	94.04
827.704	149.33
827.882	116.56
828.059	118.61
828.237	102.23
828.414	132.95
828.591	173.91
828.769	106.32
828.946	118.61
829.124	79.7
829.301	147.28
829.478	126.8
829.655	173.91
829.833	132.95
830.01	110.42
830.187	139.09
830.364	153.43
830.542	102.23
830.719	194.39
830.896	120.66
831.073	44.88
831.25	139.09
831.427	46.93
831.604	24.4
831.782	110.42
831.959	77.65
832.136	51.03
832.313	132.95
832.49	96.08
832.667	120.66
832.844	57.17
833.021	112.47
833.198	128.85
833.374	38.74
833.551	87.89
833.728	16.21
833.905	89.94
834.082	110.42
834.259	114.52
834.436	196.43
834.612	116.56
834.789	98.13
834.966	44.88
835.143	83.8
835.319	46.93
835.496	165.71
835.673	100.18
835.85	128.85
836.026	79.7
836.203	77.65
836.38	73.56
836.556	61.27
836.733	24.4
836.909	114.52
837.086	112.47
837.262	81.75
837.439	94.04
837.616	87.89
837.792	112.47
837.968	69.46
838.145	55.12
838.321	77.65
838.498	135
838.674	79.7
838.851	30.55
839.027	51.03
839.203	24.4
839.38	116.56
839.556	12.12
839.732	110.42
839.909	51.03
840.085	73.56
840.261	36.69
840.437	104.28
840.614	106.32
840.79	10.07
840.966	69.46
841.142	73.56
841.318	59.22
841.494	83.8
841.671	61.27
841.847	112.47
842.023	132.95
842.199	91.99
842.375	55.12
842.551	28.5
842.727	75.6
842.903	124.76
843.079	-26.79
843.255	57.17
843.431	67.41
843.607	38.74
843.783	69.46
843.959	16.21
844.134	8.02
844.31	89.94
844.486	-16.55
844.662	38.74
844.838	55.12
845.013	128.85
845.189	96.08
845.365	22.36
845.541	81.75
845.716	55.12
845.892	46.93
846.068	38.74
846.244	38.74
846.419	51.03
846.595	22.36
846.77	94.04
846.946	69.46
847.122	-10.41
847.297	44.88
847.473	59.22
847.648	28.5
847.824	14.17
847.999	-28.84
848.175	38.74
848.35	53.08
848.526	87.89
848.701	65.36
848.876	20.31
849.052	59.22
849.227	38.74
849.403	46.93
849.578	87.89
849.753	30.55
849.929	112.47
850.104	55.12
850.279	104.28
850.454	-12.46
850.63	126.8
850.805	10.07
850.98	63.32
851.155	116.56
851.33	91.99
851.505	36.69
851.681	44.88
851.856	-2.22
852.031	118.61
852.206	104.28
852.381	26.45
852.556	30.55
852.731	61.27
852.906	53.08
853.081	112.47
853.256	42.84
853.431	69.46
853.606	48.98
853.781	3.93
853.956	77.65
854.131	10.07
854.305	44.88
854.48	63.32
854.655	-2.22
854.83	104.28
855.005	10.07
855.18	18.26
855.354	85.84
855.529	89.94
855.704	59.22
855.879	-4.27
856.053	-2.22
856.228	26.45
856.403	77.65
856.577	71.51
856.752	26.45
856.926	67.41
857.101	-26.79
857.276	1.88
857.45	24.4
857.625	30.55
857.799	81.75
857.974	5.97
858.148	-57.51
858.323	94.04
858.497	8.02
858.672	61.27
858.846	34.64
859.02	91.99
859.195	59.22
859.369	63.32
859.543	20.31
859.718	96.08
859.892	71.51
860.066	24.4
860.241	32.6
860.415	32.6
860.589	-2.22
860.763	46.93
860.938	8.02
861.112	26.45
861.286	-20.65
861.46	-12.46
861.634	63.32
861.808	-49.32
861.982	-10.41
862.157	-28.84
862.331	8.02
862.505	51.03
862.679	40.79
862.853	40.79
863.027	14.17
863.201	108.37
863.375	28.5
863.549	32.6
863.722	65.36
863.896	104.28
864.07	34.64
864.244	-34.99
864.418	67.41
864.592	55.12
864.766	106.32
864.939	75.6
865.113	-2.22
865.287	83.8
865.461	-2.22
865.634	40.79
865.808	-65.71
865.982	-2.22
866.156	-45.23
866.329	-16.55
866.503	114.52
866.676	20.31
866.85	53.08
867.024	63.32
867.197	26.45
867.371	-16.55
867.544	67.41
867.718	38.74
867.891	57.17
868.065	12.12
868.238	12.12
868.412	91.99
868.585	5.97
868.759	32.6
868.932	46.93
869.105	14.17
869.279	22.36
869.452	34.64
869.625	55.12
869.799	71.51
869.972	10.07
870.145	26.45
870.319	102.23
870.492	-53.42
870.665	100.18
870.838	34.64
871.011	-0.17
871.185	100.18
871.358	87.89
871.531	106.32
871.704	-20.65
871.877	26.45
872.05	12.12
872.223	14.17
872.396	63.32
872.569	-24.75
872.742	-14.51
872.915	34.64
873.088	22.36
873.261	12.12
873.434	71.51
873.607	12.12
873.78	22.36
873.953	-6.31
874.126	18.26
874.299	55.12
874.471	5.97
874.644	5.97
874.817	20.31
874.99	26.45
875.163	-32.94
875.335	87.89
875.508	57.17
875.681	51.03
875.853	-51.37
876.026	38.74
876.199	20.31
876.371	98.13
876.544	-6.31
876.717	16.21
876.889	38.74
877.062	40.79
877.234	-39.08
877.407	30.55
877.579	-2.22
877.752	28.5
877.924	42.84
878.097	53.08
878.269	69.46
878.442	65.36
878.614	30.55
878.786	40.79
878.959	-6.31
879.131	16.21
879.303	-53.42
879.476	110.42
879.648	18.26
879.82	48.98
879.993	3.93
880.165	-4.27
880.337	36.69
880.509	3.93
880.681	-8.36
880.854	28.5
881.026	63.32
881.198	18.26
881.37	-53.42
881.542	14.17
881.714	5.97
881.886	1.88
882.058	36.69
882.23	34.64
882.402	34.64
882.574	73.56
882.746	1.88
882.918	110.42
883.09	67.41
883.262	44.88
883.434	-16.55
883.606	12.12
883.778	-22.7
883.95	-43.18
884.122	-10.41
884.293	57.17
884.465	83.8
884.637	53.08
884.809	57.17
884.98	8.02
885.152	-12.46
885.324	51.03
885.496	48.98
885.667	-18.6
885.839	59.22
886.011	10.07
886.182	22.36
886.354	59.22
886.525	69.46
886.697	48.98
886.869	32.6
887.04	-12.46
887.212	186.19
887.383	51.03
887.555	36.69
887.726	55.12
887.897	-18.6
888.069	-6.31
888.24	14.17
888.412	55.12
888.583	-16.55
888.754	1.88
888.926	-82.09
889.097	14.17
889.268	38.74
889.44	22.36
889.611	-20.65
889.782	32.6
889.953	-43.18
890.125	26.45
890.296	55.12
890.467	-12.46
890.638	-10.41
890.809	8.02
890.98	-63.66
891.151	3.93
891.323	36.69
891.494	3.93
891.665	79.7
891.836	-18.6
892.007	-41.13
892.178	16.21
892.349	-24.75
892.52	77.65
892.691	38.74
892.862	-24.75
893.032	-53.42
893.203	69.46
893.374	-16.55
893.545	89.94
893.716	-14.51
893.887	69.46
894.057	24.4
894.228	36.69
894.399	20.31
894.57	-0.17
894.74	53.08
894.911	94.04
895.082	-49.32
895.253	-10.41
895.423	26.45
895.594	48.98
895.764	-67.75
895.935	-45.23
896.106	5.97
896.276	-37.03
896.447	-41.13
896.617	-28.84
896.788	16.21
896.958	53.08
897.129	-6.31
897.299	-20.65
897.47	-69.8
897.64	-16.55
897.81	14.17
897.981	34.64
898.151	18.26
898.322	55.12
898.492	24.4
898.662	10.07
898.832	57.17
899.003	26.45
899.173	67.41
899.343	-26.79
899.513	53.08
