Data from USB4F104151__11__11-51-11-271.txt Node

Date: Fri Mar 14 11:51:11 EDT 2025
User: louis
Spectrometer: USB4F10415
Trigger mode: 4
Integration Time (sec): 2.000000E-2
Scans to average: 1
Electric dark correction enabled: true
Nonlinearity correction enabled: false
Boxcar width: 0
XAxis mode: Wavelengths
Number of Pixels in Spectrum: 3648
>>>>>Begin Spectral Data<<<<<
178.204	-127.66
178.424	-127.66
178.644	-127.66
178.864	-101.03
179.084	-84.65
179.304	15.7
179.524	48.47
179.744	-15.02
179.964	50.52
180.184	-45.74
180.404	11.61
180.624	7.51
180.844	-25.26
181.064	-4.78
181.283	-15.02
181.503	-33.45
181.723	5.46
181.943	-80.55
182.163	3.41
182.383	-17.07
182.602	36.18
182.822	-23.21
183.042	75.09
183.262	13.65
183.482	-29.35
183.701	42.32
183.921	-12.97
184.141	5.46
184.361	56.66
184.58	15.7
184.8	-8.87
185.02	-15.02
185.239	-4.78
185.459	-25.26
185.679	62.8
185.898	-6.83
186.118	48.47
186.338	38.23
186.557	95.57
186.777	5.46
186.997	11.61
187.216	13.65
187.436	36.18
187.655	15.7
187.875	93.52
188.095	68.95
188.314	48.47
188.534	-31.4
188.753	-27.31
188.973	71
189.192	1.37
189.412	48.47
189.631	-8.87
189.851	-43.69
190.07	103.76
190.29	34.13
190.509	-43.69
190.729	9.56
190.948	52.56
191.168	36.18
191.387	68.95
191.607	-12.97
191.826	19.8
192.045	1.37
192.265	32.08
192.484	-27.31
192.704	50.52
192.923	-23.21
193.142	5.46
193.362	66.9
193.581	21.85
193.8	99.67
194.02	60.76
194.239	-45.74
194.458	50.52
194.678	-49.83
194.897	13.65
195.116	34.13
195.335	-4.78
195.555	32.08
195.774	17.75
195.993	34.13
196.212	5.46
196.432	32.08
196.651	5.46
196.87	-21.16
197.089	58.71
197.308	3.41
197.528	-21.16
197.747	23.89
197.966	15.7
198.185	77.14
198.404	40.28
198.623	73.04
198.842	97.62
199.062	23.89
199.281	144.72
199.5	5.46
199.719	83.28
199.938	-15.02
200.157	48.47
200.376	-49.83
200.595	56.66
200.814	73.04
201.033	52.56
201.252	27.99
201.471	11.61
201.69	58.71
201.909	36.18
202.128	54.61
202.347	60.76
202.566	42.32
202.785	48.47
203.004	34.13
203.223	114
203.442	21.85
203.661	11.61
203.879	15.7
204.098	107.86
204.317	7.51
204.536	5.46
204.755	34.13
204.974	44.37
205.193	7.51
205.411	91.48
205.63	9.56
205.849	15.7
206.068	126.29
206.287	11.61
206.505	40.28
206.724	46.42
206.943	25.94
207.162	-21.16
207.381	-27.31
207.599	-66.22
207.818	48.47
208.037	64.85
208.255	46.42
208.474	30.04
208.693	-49.83
208.911	-21.16
209.13	89.43
209.349	19.8
209.567	-58.03
209.786	75.09
210.005	56.66
210.223	-45.74
210.442	9.56
210.661	77.14
210.879	-29.35
211.098	-12.97
211.316	-17.07
211.535	23.89
211.753	-0.68
211.972	25.94
212.191	1.37
212.409	19.8
212.628	87.38
212.846	1.37
213.065	9.56
213.283	101.72
213.502	27.99
213.72	5.46
213.938	46.42
214.157	-8.87
214.375	42.32
214.594	-4.78
214.812	50.52
215.031	-21.16
215.249	17.75
215.467	-4.78
215.686	81.24
215.904	25.94
216.122	-6.83
216.341	93.52
216.559	30.04
216.778	27.99
216.996	38.23
217.214	32.08
217.432	13.65
217.651	5.46
217.869	50.52
218.087	101.72
218.306	-29.35
218.524	66.9
218.742	-8.87
218.96	17.75
219.179	-39.59
219.397	54.61
219.615	36.18
219.833	50.52
220.051	27.99
220.27	77.14
220.488	13.65
220.706	-0.68
220.924	1.37
221.142	-33.45
221.36	-8.87
221.578	60.76
221.796	56.66
222.015	-6.83
222.233	83.28
222.451	50.52
222.669	9.56
222.887	60.76
223.105	-39.59
223.323	36.18
223.541	-2.73
223.759	71
223.977	38.23
224.195	60.76
224.413	48.47
224.631	-10.92
224.849	48.47
225.067	34.13
225.285	77.14
225.503	5.46
225.721	-43.69
225.939	54.61
226.157	19.8
226.375	150.87
226.592	71
226.81	79.19
227.028	89.43
227.246	128.34
227.464	-4.78
227.682	-23.21
227.9	5.46
228.117	50.52
228.335	11.61
228.553	23.89
228.771	3.41
228.989	64.85
229.206	48.47
229.424	3.41
229.642	111.96
229.86	17.75
230.077	42.32
230.295	46.42
230.513	23.89
230.731	9.56
230.948	25.94
231.166	146.77
231.384	-55.98
231.601	56.66
231.819	79.19
232.037	34.13
232.254	19.8
232.472	58.71
232.689	-4.78
232.907	7.51
233.125	83.28
233.342	-19.11
233.56	-37.55
233.777	-10.92
233.995	32.08
234.213	7.51
234.43	58.71
234.648	-37.55
234.865	27.99
235.083	60.76
235.3	-31.4
235.518	-19.11
235.735	50.52
235.953	56.66
236.17	-10.92
236.388	-62.12
236.605	66.9
236.822	54.61
237.04	5.46
237.257	38.23
237.475	-29.35
237.692	87.38
237.909	30.04
238.127	3.41
238.344	68.95
238.562	-43.69
238.779	-10.92
238.996	109.91
239.214	-2.73
239.431	23.89
239.648	-6.83
239.865	25.94
240.083	48.47
240.3	-62.12
240.517	-41.64
240.735	-27.31
240.952	52.56
241.169	-10.92
241.386	77.14
241.603	64.85
241.821	17.75
242.038	58.71
242.255	-15.02
242.472	-12.97
242.689	66.9
242.907	34.13
243.124	3.41
243.341	36.18
243.558	-19.11
243.775	54.61
243.992	38.23
244.209	9.56
244.426	66.9
244.643	101.72
244.86	-37.55
245.078	11.61
245.295	62.8
245.512	-10.92
245.729	50.52
245.946	5.46
246.163	56.66
246.38	54.61
246.597	21.85
246.814	-23.21
247.031	44.37
247.248	85.33
247.464	-12.97
247.681	17.75
247.898	-25.26
248.115	-25.26
248.332	62.8
248.549	34.13
248.766	38.23
248.983	13.65
249.2	46.42
249.417	-12.97
249.633	1.37
249.85	-6.83
250.067	-62.12
250.284	87.38
250.501	-55.98
250.717	56.66
250.934	-17.07
251.151	77.14
251.368	71
251.585	5.46
251.801	5.46
252.018	-2.73
252.235	126.29
252.451	83.28
252.668	-0.68
252.885	73.04
253.102	21.85
253.318	3.41
253.535	30.04
253.752	-4.78
253.968	21.85
254.185	7.51
254.401	73.04
254.618	64.85
254.835	48.47
255.051	83.28
255.268	48.47
255.484	68.95
255.701	79.19
255.917	50.52
256.134	32.08
256.351	81.24
256.567	-8.87
256.784	17.75
257	-0.68
257.217	38.23
257.433	40.28
257.65	-49.83
257.866	9.56
258.082	64.85
258.299	11.61
258.515	11.61
258.732	40.28
258.948	-6.83
259.165	1.37
259.381	5.46
259.597	23.89
259.814	68.95
260.03	17.75
260.246	58.71
260.463	-33.45
260.679	34.13
260.895	38.23
261.112	58.71
261.328	-39.59
261.544	13.65
261.761	54.61
261.977	-60.07
262.193	13.65
262.409	54.61
262.626	-8.87
262.842	38.23
263.058	66.9
263.274	17.75
263.49	25.94
263.707	32.08
263.923	38.23
264.139	-10.92
264.355	75.09
264.571	101.72
264.787	17.75
265.004	-43.69
265.22	-27.31
265.436	34.13
265.652	46.42
265.868	52.56
266.084	1.37
266.3	48.47
266.516	-29.35
266.732	-68.27
266.948	42.32
267.164	48.47
267.38	-21.16
267.596	23.89
267.812	148.82
268.028	-0.68
268.244	-6.83
268.46	5.46
268.676	38.23
268.892	34.13
269.108	5.46
269.324	32.08
269.54	-25.26
269.756	68.95
269.972	107.86
270.188	3.41
270.403	-53.93
270.619	7.51
270.835	-41.64
271.051	-70.31
271.267	30.04
271.483	17.75
271.698	56.66
271.914	5.46
272.13	-27.31
272.346	7.51
272.562	17.75
272.777	56.66
272.993	5.46
273.209	58.71
273.425	38.23
273.64	48.47
273.856	71
274.072	-17.07
274.287	50.52
274.503	-2.73
274.719	5.46
274.934	7.51
275.15	-31.4
275.366	54.61
275.581	25.94
275.797	56.66
276.012	-58.03
276.228	1.37
276.444	34.13
276.659	50.52
276.875	64.85
277.09	64.85
277.306	48.47
277.521	38.23
277.737	9.56
277.952	19.8
278.168	5.46
278.383	34.13
278.599	-72.36
278.814	27.99
279.03	15.7
279.245	-10.92
279.461	17.75
279.676	-23.21
279.892	-12.97
280.107	66.9
280.322	32.08
280.538	50.52
280.753	15.7
280.969	60.76
281.184	-31.4
281.399	5.46
281.615	-12.97
281.83	62.8
282.045	73.04
282.26	-55.98
282.476	19.8
282.691	38.23
282.906	93.52
283.122	48.47
283.337	64.85
283.552	-17.07
283.767	75.09
283.983	44.37
284.198	60.76
284.413	27.99
284.628	1.37
284.843	87.38
285.058	52.56
285.274	68.95
285.489	75.09
285.704	50.52
285.919	7.51
286.134	48.47
286.349	83.28
286.564	58.71
286.779	17.75
286.995	3.41
287.21	-27.31
287.425	1.37
287.64	11.61
287.855	48.47
288.07	-2.73
288.285	42.32
288.5	50.52
288.715	-10.92
288.93	42.32
289.145	32.08
289.36	36.18
289.575	32.08
289.79	58.71
290.004	54.61
290.219	-33.45
290.434	17.75
290.649	71
290.864	58.71
291.079	-6.83
291.294	-55.98
291.509	66.9
291.724	3.41
291.938	75.09
292.153	32.08
292.368	64.85
292.583	-4.78
292.798	21.85
293.012	7.51
293.227	3.41
293.442	48.47
293.657	11.61
293.871	9.56
294.086	38.23
294.301	38.23
294.516	52.56
294.73	17.75
294.945	30.04
295.16	15.7
295.374	38.23
295.589	-8.87
295.804	36.18
296.018	30.04
296.233	-23.21
296.447	66.9
296.662	-15.02
296.877	50.52
297.091	62.8
297.306	-6.83
297.52	58.71
297.735	-0.68
297.949	17.75
298.164	152.91
298.378	95.57
298.593	11.61
298.807	85.33
299.022	7.51
299.236	60.76
299.451	44.37
299.665	-4.78
299.88	89.43
300.094	109.91
300.309	-45.74
300.523	-10.92
300.737	5.46
300.952	42.32
301.166	15.7
301.381	-4.78
301.595	-15.02
301.809	60.76
302.024	3.41
302.238	1.37
302.452	111.96
302.667	27.99
302.881	36.18
303.095	42.32
303.309	19.8
303.524	1.37
303.738	-53.93
303.952	3.41
304.166	25.94
304.381	23.89
304.595	73.04
304.809	-55.98
305.023	15.7
305.237	19.8
305.452	56.66
305.666	54.61
305.88	68.95
306.094	5.46
306.308	5.46
306.522	75.09
306.736	91.48
306.95	50.52
307.164	71
307.379	-12.97
307.593	32.08
307.807	116.05
308.021	21.85
308.235	-17.07
308.449	25.94
308.663	-17.07
308.877	77.14
309.091	-35.5
309.305	38.23
309.519	11.61
309.733	44.37
309.947	-10.92
310.161	52.56
310.374	42.32
310.588	23.89
310.802	-45.74
311.016	30.04
311.23	77.14
311.444	15.7
311.658	64.85
311.872	19.8
312.085	36.18
312.299	66.9
312.513	91.48
312.727	40.28
312.941	52.56
313.154	-4.78
313.368	13.65
313.582	38.23
313.796	-6.83
314.009	25.94
314.223	3.41
314.437	56.66
314.651	-12.97
314.864	5.46
315.078	58.71
315.292	46.42
315.505	48.47
315.719	27.99
315.933	77.14
316.146	-6.83
316.36	9.56
316.573	52.56
316.787	7.51
317.001	71
317.214	-17.07
317.428	40.28
317.641	-17.07
317.855	77.14
318.068	-10.92
318.282	36.18
318.495	81.24
318.709	-4.78
318.922	-6.83
319.136	60.76
319.349	-15.02
319.563	17.75
319.776	11.61
319.99	-10.92
320.203	75.09
320.417	-0.68
320.63	23.89
320.843	85.33
321.057	19.8
321.27	54.61
321.483	32.08
321.697	17.75
321.91	25.94
322.124	50.52
322.337	101.72
322.55	36.18
322.763	7.51
322.977	17.75
323.19	1.37
323.403	-2.73
323.617	23.89
323.83	83.28
324.043	54.61
324.256	42.32
324.469	-39.59
324.683	71
324.896	48.47
325.109	48.47
325.322	-33.45
325.535	21.85
325.748	-17.07
325.962	21.85
326.175	56.66
326.388	25.94
326.601	46.42
326.814	79.19
327.027	-21.16
327.24	60.76
327.453	3.41
327.666	58.71
327.879	-8.87
328.092	1.37
328.305	30.04
328.518	-4.78
328.731	25.94
328.944	1.37
329.157	-37.55
329.37	42.32
329.583	52.56
329.796	62.8
330.009	48.47
330.222	-4.78
330.435	-33.45
330.648	42.32
330.861	34.13
331.073	83.28
331.286	116.05
331.499	83.28
331.712	-17.07
331.925	17.75
332.138	-68.27
332.35	-2.73
332.563	32.08
332.776	120.15
332.989	-12.97
333.202	81.24
333.414	66.9
333.627	21.85
333.84	7.51
334.053	-8.87
334.265	17.75
334.478	-17.07
334.691	73.04
334.903	13.65
335.116	-4.78
335.329	-23.21
335.541	-15.02
335.754	73.04
335.966	3.41
336.179	-21.16
336.392	75.09
336.604	13.65
336.817	83.28
337.029	21.85
337.242	48.47
337.454	50.52
337.667	30.04
337.88	48.47
338.092	-10.92
338.305	32.08
338.517	62.8
338.729	-17.07
338.942	97.62
339.154	-2.73
339.367	15.7
339.579	36.18
339.792	95.57
340.004	54.61
340.217	36.18
340.429	21.85
340.641	71
340.854	-8.87
341.066	21.85
341.278	9.56
341.491	68.95
341.703	40.28
341.915	-23.21
342.128	-15.02
342.34	40.28
342.552	99.67
342.764	56.66
342.977	91.48
343.189	-35.5
343.401	75.09
343.613	-45.74
343.826	21.85
344.038	32.08
344.25	3.41
344.462	-39.59
344.674	68.95
344.886	38.23
345.099	60.76
345.311	-78.51
345.523	60.76
345.735	23.89
345.947	30.04
346.159	25.94
346.371	30.04
346.583	-6.83
346.795	58.71
347.007	25.94
347.219	68.95
347.431	21.85
347.643	38.23
347.855	85.33
348.067	56.66
348.279	-29.35
348.491	19.8
348.703	50.52
348.915	19.8
349.127	21.85
349.339	19.8
349.551	79.19
349.763	-35.5
349.975	7.51
350.187	25.94
350.399	9.56
350.61	83.28
350.822	64.85
351.034	79.19
351.246	-4.78
351.458	30.04
351.669	-15.02
351.881	99.67
352.093	36.18
352.305	48.47
352.517	95.57
352.728	25.94
352.94	66.9
353.152	7.51
353.363	62.8
353.575	83.28
353.787	-25.26
353.999	46.42
354.21	44.37
354.422	93.52
354.633	21.85
354.845	81.24
355.057	-6.83
355.268	-0.68
355.48	62.8
355.692	21.85
355.903	48.47
356.115	40.28
356.326	-25.26
356.538	-6.83
356.749	32.08
356.961	77.14
357.172	62.8
357.384	25.94
357.595	89.43
357.807	19.8
358.018	25.94
358.23	1.37
358.441	38.23
358.653	-2.73
358.864	11.61
359.075	54.61
359.287	-55.98
359.498	42.32
359.709	34.13
359.921	11.61
360.132	27.99
360.344	58.71
360.555	15.7
360.766	93.52
360.977	-23.21
361.189	71
361.4	19.8
361.611	48.47
361.823	54.61
362.034	-12.97
362.245	-6.83
362.456	23.89
362.667	50.52
362.879	25.94
363.09	109.91
363.301	56.66
363.512	-55.98
363.723	-23.21
363.935	13.65
364.146	71
364.357	21.85
364.568	50.52
364.779	-17.07
364.99	13.65
365.201	48.47
365.412	99.67
365.623	-29.35
365.834	38.23
366.045	15.7
366.256	79.19
366.467	52.56
366.678	3.41
366.889	73.04
367.1	-43.69
367.311	-19.11
367.522	-10.92
367.733	23.89
367.944	107.86
368.155	-88.75
368.366	81.24
368.577	56.66
368.788	91.48
368.999	54.61
369.209	44.37
369.42	46.42
369.631	68.95
369.842	-23.21
370.053	32.08
370.264	-0.68
370.474	32.08
370.685	-33.45
370.896	81.24
371.107	91.48
371.317	34.13
371.528	23.89
371.739	81.24
371.95	-6.83
372.16	-19.11
372.371	-17.07
372.582	81.24
372.792	32.08
373.003	-10.92
373.214	40.28
373.424	17.75
373.635	60.76
373.846	109.91
374.056	38.23
374.267	1.37
374.477	40.28
374.688	-6.83
374.898	30.04
375.109	93.52
375.319	34.13
375.53	25.94
375.74	48.47
375.951	-2.73
376.161	62.8
376.372	38.23
376.582	40.28
376.793	56.66
377.003	-4.78
377.214	48.47
377.424	48.47
377.635	25.94
377.845	52.56
378.055	30.04
378.266	46.42
378.476	11.61
378.686	32.08
378.897	54.61
379.107	-19.11
379.317	54.61
379.528	19.8
379.738	9.56
379.948	19.8
380.158	89.43
380.369	-19.11
380.579	62.8
380.789	50.52
380.999	48.47
381.21	44.37
381.42	25.94
381.63	64.85
381.84	-4.78
382.05	50.52
382.261	17.75
382.471	93.52
382.681	40.28
382.891	101.72
383.101	19.8
383.311	44.37
383.521	-27.31
383.731	54.61
383.941	66.9
384.151	89.43
384.361	7.51
384.571	36.18
384.781	23.89
384.991	17.75
385.201	101.72
385.411	-25.26
385.621	-0.68
385.831	-8.87
386.041	56.66
386.251	-31.4
386.461	-8.87
386.671	1.37
386.881	40.28
387.091	34.13
387.301	1.37
387.511	-2.73
387.72	91.48
387.93	25.94
388.14	25.94
388.35	19.8
388.56	91.48
388.769	21.85
388.979	11.61
389.189	11.61
389.399	27.99
389.609	-6.83
389.818	11.61
390.028	25.94
390.238	101.72
390.447	66.9
390.657	107.86
390.867	87.38
391.076	32.08
391.286	17.75
391.496	44.37
391.705	62.8
391.915	81.24
392.125	46.42
392.334	62.8
392.544	75.09
392.753	46.42
392.963	103.76
393.172	56.66
393.382	38.23
393.591	111.96
393.801	75.09
394.01	77.14
394.22	48.47
394.429	9.56
394.639	83.28
394.848	64.85
395.058	68.95
395.267	89.43
395.477	56.66
395.686	23.89
395.895	75.09
396.105	66.9
396.314	81.24
396.524	89.43
396.733	42.32
396.942	89.43
397.152	107.86
397.361	66.9
397.57	91.48
397.78	-0.68
397.989	71
398.198	52.56
398.407	83.28
398.617	77.14
398.826	60.76
399.035	-17.07
399.244	30.04
399.453	120.15
399.663	87.38
399.872	81.24
400.081	42.32
400.29	46.42
400.499	54.61
400.708	136.53
400.917	159.06
401.127	32.08
401.336	38.23
401.545	126.29
401.754	97.62
401.963	44.37
402.172	-29.35
402.381	60.76
402.59	116.05
402.799	114
403.008	15.7
403.217	132.44
403.426	23.89
403.635	30.04
403.844	120.15
404.053	105.81
404.262	60.76
404.471	122.2
404.68	95.57
404.888	163.15
405.097	138.58
405.306	114
405.515	122.2
405.724	165.2
405.933	175.44
406.142	142.68
406.35	124.24
406.559	132.44
406.768	81.24
406.977	183.63
407.185	169.3
407.394	173.39
407.603	173.39
407.812	142.68
408.02	206.16
408.229	132.44
408.438	124.24
408.646	122.2
408.855	142.68
409.064	183.63
409.272	111.96
409.481	218.45
409.69	101.72
409.898	183.63
410.107	173.39
410.315	195.92
410.524	204.11
410.733	322.9
410.941	234.83
411.15	245.07
411.358	253.27
411.567	236.88
411.775	281.94
411.984	300.37
412.192	339.28
412.401	314.7
412.609	326.99
412.818	433.49
413.026	415.05
413.234	380.24
413.443	355.66
413.651	347.47
413.86	513.36
414.068	372.05
414.276	417.1
414.485	382.29
414.693	439.63
414.901	437.58
415.11	480.59
415.318	451.92
415.526	517.45
415.734	470.35
415.943	511.31
416.151	566.6
416.359	525.65
416.567	654.67
416.776	593.23
416.984	621.9
417.192	695.63
417.4	666.96
417.608	693.58
417.817	642.38
418.025	673.1
418.233	804.17
418.441	832.84
418.649	738.63
418.857	836.94
419.065	879.94
419.273	859.46
419.481	849.22
419.689	951.62
419.897	1097.03
420.105	976.2
420.313	1123.65
420.521	1070.4
420.729	1023.3
420.937	1160.52
421.145	1246.53
421.353	1228.1
421.561	1287.49
421.769	1281.35
421.977	1465.66
422.185	1353.02
422.393	1410.37
422.601	1500.48
422.809	1432.9
423.017	1535.29
423.224	1504.57
423.432	1602.88
423.64	1668.41
423.848	1789.24
424.056	1797.43
424.263	1881.4
424.471	1883.45
424.679	1953.08
424.887	2123.06
425.094	2145.59
425.302	2225.46
425.51	2190.64
425.718	2354.48
425.925	2256.18
426.133	2391.34
426.341	2581.81
426.548	2719.02
426.756	2637.1
426.964	2647.34
427.171	2821.42
427.379	2884.91
427.586	2727.21
427.794	3013.93
428.001	3095.85
428.209	3300.64
428.417	3335.46
428.624	3403.04
428.832	3441.95
429.039	3339.55
429.247	3419.43
429.454	3800.35
429.662	3994.9
429.869	3761.44
430.076	3974.42
430.284	3898.65
430.491	3988.76
430.699	4347.15
430.906	4238.61
431.114	4541.71
431.321	4640.01
431.528	4627.73
431.736	4857.1
431.943	5123.34
432.15	4945.16
432.358	5027.08
432.565	5272.84
432.772	5516.55
432.979	5633.28
433.187	5571.84
433.394	5690.62
433.601	6145.27
433.808	6241.53
434.016	6075.64
434.223	6315.25
434.43	6812.91
434.637	6477.04
434.844	6974.7
435.052	7073
435.259	7167.21
435.466	7064.81
435.673	7171.3
435.88	7478.5
436.087	7863.52
436.294	7879.9
436.501	7783.65
436.708	7904.48
436.915	8148.19
437.122	8434.9
437.329	8543.44
437.537	8791.25
437.743	8744.14
437.95	8738
438.157	9505.99
438.364	9678.02
438.571	9508.04
438.778	9714.88
438.985	10609.84
439.192	10325.18
439.399	10464.44
439.606	10302.65
439.813	10728.63
440.02	11351.21
440.227	11293.86
440.433	11189.42
440.64	11594.92
440.847	11459.75
441.054	11951.26
441.261	12594.33
441.467	12283.03
441.674	12772.5
441.881	13094.03
442.088	13182.09
442.294	13096.08
442.501	13493.38
442.708	13591.69
442.914	14165.12
443.121	14730.36
443.328	14337.15
443.534	15215.73
443.741	14914.67
443.948	14789.75
444.154	15901.79
444.361	15842.4
444.568	15791.2
444.774	15596.65
444.981	15944.8
445.187	16450.65
445.394	17101.9
445.6	16796.76
445.807	18299.97
446.013	17970.24
446.22	18158.66
446.426	18930.74
446.633	18846.77
446.839	19612.71
447.046	18596.92
447.252	19895.33
447.459	19790.89
447.665	19801.13
447.871	20716.57
448.078	21363.73
448.284	20370.46
448.491	21142.55
448.697	21892.1
448.903	22090.76
449.11	22182.91
449.316	22080.52
449.522	22406.14
449.728	23063.54
449.935	23260.15
450.141	23043.06
450.347	23761.9
450.553	22664.19
450.76	23325.68
450.966	23880.68
451.172	23722.99
451.378	24392.67
451.584	23700.46
451.791	24413.15
451.997	24142.82
452.203	24810.46
452.409	24955.86
452.615	24312.8
452.821	23878.63
453.027	23194.61
453.233	24894.43
453.44	23700.46
453.646	24167.4
453.852	23852.01
454.058	24460.26
454.264	23573.49
454.47	23968.74
454.676	23837.67
454.882	24089.57
455.088	22045.7
455.294	22483.97
455.5	22752.25
455.705	22866.94
455.911	22164.48
456.117	21642.25
456.323	21300.24
456.529	20362.27
456.735	21308.43
456.941	20675.61
457.147	20466.72
457.352	19848.23
457.558	19475.5
457.764	19395.63
457.97	19033.14
458.176	18664.5
458.381	18592.83
458.587	17675.34
458.793	17812.55
458.999	16718.93
459.204	18201.66
459.41	17591.37
459.616	16512.09
459.821	16538.71
460.027	16403.55
460.233	15975.52
460.438	15449.19
460.644	15498.34
460.85	14716.02
461.055	14376.06
461.261	14455.93
461.466	13376.65
461.672	13057.17
461.878	13847.68
462.083	13016.21
462.289	12743.83
462.494	12612.76
462.7	12014.75
462.905	11783.33
463.111	12141.72
463.316	12219.55
463.522	12078.24
463.727	12065.95
463.932	11994.27
464.138	11801.76
464.343	11732.13
464.549	11422.89
464.754	11734.18
464.959	11701.41
465.165	11787.43
465.37	11097.26
465.575	11101.36
465.781	11476.13
465.986	11424.93
466.191	11132.08
466.397	10704.05
466.602	10151.1
466.807	10599.6
467.012	10800.3
467.218	10505.4
467.423	10343.61
467.628	10396.85
467.833	10900.65
468.038	10718.39
468.244	10278.07
468.449	10671.28
468.654	10241.21
468.859	10382.52
469.064	10331.32
469.269	9841.86
469.474	10022.08
469.679	9997.5
469.885	9753.79
470.09	9938.11
470.295	9841.86
470.5	9626.82
470.705	9659.59
470.91	9469.12
471.115	9223.37
471.32	9542.85
471.525	9522.37
471.73	9065.67
471.935	9272.52
472.139	8850.64
472.344	8959.18
472.549	8961.23
472.754	8817.87
472.959	8649.94
473.164	8572.11
473.369	8441.04
473.574	8576.21
473.778	8717.52
473.983	8443.09
474.188	8502.48
474.393	8154.33
474.598	8146.14
474.802	8041.69
475.007	7830.75
475.212	8180.95
475.417	7785.69
475.621	7767.26
475.826	7740.64
476.031	7519.46
476.235	7259.37
476.44	7728.35
476.645	7554.27
476.849	7460.07
477.054	7351.53
477.259	7208.17
477.463	7064.81
477.668	6939.88
477.872	6978.79
478.077	6986.99
478.282	6771.95
478.486	6915.31
478.691	6706.41
478.895	6958.32
479.1	6765.81
479.304	6825.2
479.509	6536.43
479.713	6632.69
479.918	6509.81
480.122	6376.69
480.326	6376.69
480.531	6513.91
480.735	6464.75
480.94	6477.04
481.144	6827.25
481.348	6169.85
481.553	6507.76
481.757	6194.42
481.961	6255.86
482.166	6368.5
482.37	6341.88
482.574	6219
482.778	6329.59
482.983	6366.45
483.187	6157.56
483.391	6237.43
483.595	6219
483.8	6188.28
484.004	6257.91
484.208	6384.88
484.412	6278.39
484.616	6204.66
484.821	6356.21
485.025	6184.18
485.229	6341.88
485.433	6188.28
485.637	6302.97
485.841	6276.34
486.045	6182.13
486.249	6106.36
486.453	6165.75
486.657	6354.16
486.861	6270.2
487.065	6092.02
487.269	6173.94
487.473	6071.54
487.677	6231.29
487.881	6284.53
488.085	6243.57
488.289	6245.62
488.493	6360.31
488.697	6278.39
488.901	6259.96
489.105	6159.61
489.309	6372.6
489.512	6294.77
489.716	6286.58
489.92	6298.87
490.124	6286.58
490.328	6280.44
490.531	6386.93
490.735	6378.74
490.939	6460.66
491.143	6319.35
491.346	6499.57
491.55	6456.56
491.754	6474.99
491.958	6730.99
492.161	6442.23
492.365	6567.15
492.569	6591.73
492.772	6716.65
492.976	6628.59
493.18	6765.81
493.383	6907.12
493.587	6622.45
493.79	6882.54
493.994	6743.28
494.197	6817.01
494.401	6724.85
494.605	6999.27
494.808	7038.19
495.012	7224.55
495.215	7046.38
495.419	7081.19
495.622	7148.78
495.825	7218.41
496.029	7281.89
496.232	7267.56
496.436	7175.4
496.639	7572.71
496.843	7529.7
497.046	7701.73
497.249	7630.05
497.453	7644.38
497.656	8013.02
497.859	7879.9
498.063	8080.6
498.266	8133.85
498.469	8103.13
498.673	8168.66
498.876	8176.86
499.079	8297.69
499.282	8316.12
499.485	8660.18
499.689	8694.99
499.892	8889.55
500.095	8643.79
500.298	9010.38
500.501	9000.14
500.705	9215.18
500.908	9057.48
501.111	9403.59
501.314	9342.15
501.517	9407.69
501.72	9622.72
501.923	9694.4
502.126	9614.53
502.329	9956.54
502.532	10073.28
502.735	10177.72
502.938	10255.54
503.141	10321.08
503.344	10413.24
503.547	10556.6
503.75	10679.47
503.953	10824.88
504.156	11076.78
504.359	11087.02
504.562	11062.44
504.765	11263.15
504.968	11449.51
505.17	11629.73
505.373	11539.62
505.576	11936.93
505.779	11951.26
505.982	11814.05
506.185	12027.04
506.387	12203.16
506.59	12178.59
506.793	12491.93
506.996	12827.79
507.198	12864.66
507.401	12934.29
507.604	12870.8
507.807	13022.35
508.009	13304.97
508.212	13577.35
508.415	13495.43
508.617	13663.36
508.82	13843.59
509.022	13638.79
509.225	14234.75
509.428	14048.38
509.63	14427.26
509.833	14480.5
510.035	14656.63
510.238	14414.97
510.44	15010.93
510.643	15160.43
510.845	15096.94
511.048	15168.62
511.25	15424.62
511.453	15596.65
511.655	16012.38
511.858	15889.51
512.06	16307.29
512.262	16077.92
512.465	16135.26
512.667	16395.36
512.87	16503.9
513.072	16542.81
513.274	16933.97
513.477	16800.85
513.679	17101.9
513.881	17353.8
514.084	17536.07
514.286	17574.99
514.488	17925.19
514.69	18318.4
514.893	18357.31
515.095	18369.6
515.297	18381.88
515.499	18566.2
515.701	18947.12
515.904	19282.99
516.106	19137.59
516.308	19500.08
516.51	19561.51
516.712	19743.78
516.914	19811.37
517.116	20202.53
517.318	20218.91
517.52	20446.24
517.722	20474.91
517.925	20636.7
518.127	20864.02
518.329	20999.19
518.531	21285.9
518.733	21498.89
518.935	21470.22
519.136	21801.99
519.338	22035.46
519.54	22064.13
519.742	22246.4
519.944	22498.3
520.146	23016.44
520.348	22887.42
520.55	22991.86
520.752	22852.6
520.954	23624.68
521.155	23505.9
521.357	23647.21
521.559	24155.11
521.761	24120.29
521.963	24206.31
522.164	24294.37
522.366	24875.99
522.568	24417.25
522.77	25002.97
522.971	25334.74
523.173	24837.08
523.375	25500.62
523.576	25521.1
523.778	25672.65
523.98	25985.99
524.181	25830.35
524.383	26037.19
524.584	26530.75
524.786	26299.33
524.988	26373.06
525.189	26651.58
525.391	26688.45
525.592	26872.76
525.794	27407.28
525.995	27403.19
526.197	27261.88
526.398	27339.7
526.6	27550.64
526.801	27716.53
527.003	27556.78
527.204	27653.04
527.406	28027.82
527.607	27970.47
527.808	28142.5
528.01	27970.47
528.211	28179.37
528.412	28670.88
528.614	28781.47
528.815	28527.52
529.016	28892.06
529.218	28871.58
529.419	28865.44
529.62	28912.54
529.822	29113.24
530.023	29264.79
530.224	29494.16
530.425	29359
530.626	28890.01
530.828	29062.04
531.029	29717.39
531.23	29166.49
531.431	29127.58
531.632	29240.22
531.833	29793.17
532.035	29592.47
532.236	29682.58
532.437	29739.92
532.638	29600.66
532.839	29834.13
533.04	30129.03
533.241	29582.23
533.442	30036.87
533.643	30038.92
533.844	29838.22
534.045	30006.16
534.246	29772.69
534.447	29903.76
534.648	29862.8
534.849	30266.25
535.05	29766.54
535.251	30120.84
535.451	30116.75
535.652	30141.32
535.853	29899.66
536.054	30059.4
536.255	30356.36
536.456	30045.07
536.657	30374.79
536.857	30303.11
537.058	30081.93
537.259	30131.08
537.46	30495.62
537.66	30217.1
537.861	30247.82
538.062	29965.2
538.263	30575.49
538.463	30223.24
538.664	30126.99
538.865	30102.41
539.065	30124.94
539.266	30282.63
539.466	29983.63
539.667	30163.85
539.868	30235.53
540.068	30208.9
540.269	30256.01
540.469	30454.66
540.67	29690.77
540.87	30030.73
541.071	30153.61
541.271	30499.72
541.472	30118.79
541.672	30198.66
541.873	30163.85
542.073	29903.76
542.274	30643.07
542.474	30587.78
542.675	29866.89
542.875	30415.75
543.075	30010.25
543.276	29686.67
543.476	30452.61
543.676	30065.55
543.877	30196.62
544.077	30061.45
544.277	30043.02
544.478	29895.57
544.678	30157.71
544.878	29934.48
545.078	30098.31
545.279	29625.23
545.479	29907.85
545.679	30053.26
545.879	30137.23
546.079	29760.4
546.28	29975.44
546.48	29862.8
546.68	29862.8
546.88	30286.73
547.08	30319.49
547.28	30022.54
547.48	29832.08
547.68	29733.78
547.88	30264.2
548.081	30083.98
548.281	30137.23
548.481	30090.12
548.681	30051.21
548.881	29987.72
549.081	30051.21
549.28	29879.18
549.48	29830.03
549.68	30133.13
549.88	30366.6
550.08	29612.95
550.28	30225.29
550.48	29590.42
550.68	30176.14
550.88	29944.72
551.08	29879.18
551.279	29856.65
551.479	29578.13
551.679	30243.72
551.879	29658
552.079	30055.31
552.278	29639.57
552.478	29905.8
552.678	29752.21
552.878	29971.34
553.077	29776.78
553.277	29604.75
553.477	29678.48
553.676	29774.73
553.876	29805.45
554.076	29811.6
554.275	29776.78
554.475	29457.3
554.674	30014.35
554.874	29748.11
555.074	29637.52
555.273	29539.22
555.473	29942.67
555.672	29309.85
555.872	29313.94
556.071	29285.27
556.271	29719.44
556.47	29395.86
556.67	29342.61
556.869	29322.13
557.068	29367.19
557.268	29375.38
557.467	29074.33
557.667	28980.12
557.866	29338.52
558.065	29139.86
558.265	28822.43
558.464	29367.19
558.663	29164.44
558.863	28801.95
559.062	29348.76
559.261	28750.75
559.461	29164.44
559.66	28310.44
559.859	29189.02
560.058	28588.96
560.258	28904.35
560.457	28375.97
560.656	28466.08
560.855	28662.69
561.054	28705.7
561.253	28224.42
561.453	28877.72
561.652	28511.14
561.851	28662.69
562.05	28251.05
562.249	28079.02
562.448	28345.25
562.647	28173.22
562.846	28261.29
563.045	28097.45
563.244	28038.06
563.443	28171.18
563.642	27872.17
563.841	27911.08
564.04	27808.68
564.239	28027.82
564.438	27597.74
564.637	27790.25
564.836	27589.55
565.035	27575.22
565.234	27888.56
565.432	27399.09
565.631	27472.82
565.83	27470.77
566.029	27278.26
566.228	27325.36
566.427	27134.9
566.625	26731.45
566.824	26776.51
567.023	27184.05
567.222	26319.81
567.42	27028.41
567.619	26893.24
567.818	26715.07
568.016	26442.69
568.215	26459.07
568.414	26469.31
568.612	26545.09
568.811	26047.43
569.01	26366.91
569.208	26321.86
569.407	26328
569.605	25934.79
569.804	26022.86
570.002	25813.96
570.201	26135.49
570.4	25736.14
570.598	25553.87
570.797	25289.68
570.995	25510.86
571.193	25390.03
571.392	25750.48
571.59	25580.49
571.789	25406.42
571.987	25228.24
572.186	25338.83
572.384	24998.87
572.582	25267.16
572.781	25152.47
572.979	24693.72
573.177	25166.81
573.376	25000.92
573.574	24736.73
573.772	24691.68
573.971	24740.83
574.169	24646.62
574.367	24484.83
574.565	24587.23
574.763	24415.2
574.962	24169.44
575.16	24165.35
575.358	24120.29
575.556	23874.54
575.754	24261.6
575.952	24042.47
576.151	24058.85
576.349	24021.99
576.547	24099.81
576.745	23761.9
576.943	23645.16
577.141	23534.57
577.339	23841.77
577.537	23696.36
577.735	23532.53
577.933	23434.22
578.131	23731.18
578.329	23446.51
578.527	22977.53
578.725	23432.18
578.923	22864.89
579.121	23127.03
579.319	22854.65
579.516	23084.02
579.714	23014.39
579.912	22688.76
580.11	22952.95
580.308	22858.74
580.506	22807.55
580.704	22533.12
580.901	22627.32
581.099	22789.11
581.297	22365.18
581.495	22449.15
581.692	22461.44
581.89	22309.89
582.088	22461.44
582.285	21894.15
582.483	22207.49
582.681	21949.45
582.878	21838.86
583.076	21808.14
583.274	21898.25
583.471	21627.92
583.669	21658.63
583.866	21625.87
584.064	21881.86
584.262	21290
584.459	21654.54
584.657	21238.8
584.854	21607.44
585.052	21183.51
585.249	21027.86
585.447	21142.55
585.644	21111.83
585.841	20814.87
586.039	21421.07
586.236	20761.62
586.434	20841.5
586.631	20806.68
586.828	20845.59
587.026	20513.82
587.223	20534.3
587.42	20620.31
587.618	20503.58
587.815	20513.82
588.012	20327.46
588.21	20298.78
588.407	20694.04
588.604	20223.01
588.801	20118.56
588.999	20042.79
589.196	19971.11
589.393	20024.36
589.59	19907.62
589.787	19735.59
589.984	19758.12
590.182	19536.94
590.379	19481.64
590.576	19387.44
590.773	19620.91
590.97	19328.05
591.167	19512.36
591.364	19156.02
591.561	19307.57
591.758	19117.11
591.955	19162.16
592.152	19485.74
592.349	19067.95
592.546	19375.15
592.743	19147.83
592.94	18883.64
593.137	18971.7
593.334	19115.06
593.531	18646.07
593.727	18920.5
593.924	18908.21
594.121	18521.15
594.318	18766.9
594.515	18404.41
594.712	18592.83
594.908	18732.09
595.105	18619.45
595.302	18342.97
595.499	18091.07
595.696	18050.11
595.892	18244.67
596.089	18252.86
596.286	18009.15
596.482	17574.99
596.679	17826.89
596.876	17790.02
597.072	17617.99
597.269	17849.41
597.466	17873.99
597.662	17452.11
597.859	17476.68
598.055	17685.58
598.252	17615.94
598.448	17427.53
598.645	17290.32
598.841	17314.89
599.038	17409.1
599.234	17486.92
599.431	17024.08
599.627	17071.18
599.824	17071.18
600.02	17022.03
600.217	17075.28
600.413	17189.97
600.609	16882.77
600.806	16790.61
601.002	16915.54
601.198	16548.95
601.395	16411.74
601.591	16421.98
601.787	16307.29
601.984	16546.9
602.18	16544.86
602.376	16342.11
602.572	16528.47
602.769	16569.43
602.965	16125.02
603.161	16321.63
603.357	15985.76
603.553	16004.19
603.75	16008.29
603.946	16096.35
604.142	16176.22
604.338	16118.88
604.534	15854.69
604.73	15586.41
604.926	15830.12
605.122	15830.12
605.318	15627.37
605.514	15703.14
605.71	15254.64
605.906	15541.35
606.102	15572.07
606.298	15576.17
606.494	15678.57
606.69	15479.91
606.886	15295.6
607.082	15393.9
607.278	15498.34
607.474	14976.11
607.67	15506.54
607.866	14984.3
608.062	15424.62
608.257	14904.43
608.453	14943.35
608.649	15070.32
608.845	14906.48
609.041	15017.07
609.236	15070.32
609.432	14933.11
609.628	14824.56
609.824	14937.2
610.019	14933.11
610.215	14820.47
610.411	14732.4
610.606	14765.17
610.802	14826.61
610.998	14806.13
611.193	14474.36
611.389	14482.55
611.584	14410.87
611.78	14595.19
611.976	14371.96
612.171	14668.92
612.367	14240.89
612.562	14363.77
612.758	14267.52
612.953	14060.67
613.149	14568.57
613.344	14429.31
613.539	14566.52
613.735	14138.49
613.93	14392.44
614.126	14079.1
614.321	14386.3
614.517	14118.01
614.712	14201.98
614.907	14009.47
615.103	14005.38
615.298	14167.17
615.493	14103.68
615.688	13759.62
615.884	14146.69
616.079	13802.63
616.274	13945.98
616.47	14034.05
616.665	13708.42
616.86	13849.73
617.055	13632.65
617.25	13614.21
617.445	13726.85
617.641	13464.71
617.836	13474.95
618.031	13599.88
618.226	13470.86
618.421	13302.92
618.616	13661.32
618.811	13194.38
619.006	13468.81
619.201	12967.06
619.396	13225.1
619.591	13202.57
619.786	13134.99
619.981	13108.37
620.176	13102.22
620.371	12784.79
620.566	12887.18
620.761	12797.07
620.956	12903.57
621.151	12579.99
621.346	12686.48
621.541	12565.65
621.735	12700.82
621.93	12389.53
622.125	12471.45
622.32	12311.71
622.515	12600.47
622.709	12078.24
622.904	12258.46
623.099	12111
623.294	12104.86
623.488	11992.22
623.683	12108.96
623.878	11797.67
624.072	11826.34
624.267	11816.1
624.462	11750.56
624.656	11535.53
624.851	11748.51
625.046	11359.4
625.24	11691.17
625.435	11439.27
625.629	11273.39
625.824	11197.61
626.018	11269.29
626.213	10941.61
626.407	11244.71
626.602	10943.66
626.796	11013.29
626.991	10792.11
627.185	10929.33
627.38	10925.23
627.574	10679.47
627.768	10706.1
627.963	10818.74
628.157	10681.52
628.352	10704.05
628.546	10331.32
628.74	10435.77
628.935	10562.74
629.129	10247.35
629.323	10173.63
629.517	10079.42
629.712	10108.09
629.906	10228.92
630.1	10013.88
630.294	10073.28
630.489	9995.45
630.683	10050.75
630.877	9788.61
631.071	9749.7
631.265	9940.16
631.459	9628.87
631.653	9776.32
631.848	9397.45
632.042	9383.11
632.236	9655.49
632.43	9419.97
632.624	9290.95
632.818	9489.6
633.012	9202.89
633.206	9137.35
633.4	9432.26
633.594	9127.11
633.788	9104.59
633.982	9149.64
634.176	9125.07
634.369	8965.32
634.563	9012.43
634.757	8815.82
634.951	9116.87
635.145	8869.07
635.339	8858.83
635.533	8647.89
635.726	8660.18
635.92	8580.31
636.114	8574.16
636.308	8326.36
636.501	8498.39
636.695	8484.05
636.889	8410.33
637.083	8340.69
637.276	8258.78
637.47	8142.04
637.664	8232.15
637.857	8168.66
638.051	8092.89
638.244	7980.25
638.438	8051.93
638.632	7974.11
638.825	7652.58
639.019	8049.88
639.212	7797.98
639.406	7886.04
639.599	7965.92
639.793	7652.58
639.986	7419.11
640.18	7668.96
640.373	7593.19
640.567	7621.86
640.76	7584.99
640.954	7656.67
641.147	7234.79
641.34	7419.11
641.534	7480.55
641.727	7242.98
641.92	7376.1
642.114	7343.33
642.307	7359.72
642.5	7214.31
642.694	6935.79
642.887	7073
643.08	7226.6
643.273	6964.46
643.467	6894.83
643.66	6923.5
643.853	6827.25
644.046	6792.43
644.239	6896.88
644.432	6812.91
644.626	6845.68
644.819	6855.92
645.012	6638.83
645.205	6569.2
645.398	6667.5
645.591	6436.08
645.784	6604.02
645.977	6616.3
646.17	6604.02
646.363	6460.66
646.556	6474.99
646.749	6444.27
646.942	6331.64
647.135	6386.93
647.328	6280.44
647.521	6210.81
647.714	6175.99
647.907	6212.85
648.099	6028.54
648.292	6159.61
648.485	6071.54
648.678	6063.35
648.871	6128.89
649.064	5854.46
649.256	6026.49
649.449	6022.39
649.642	5938.43
649.835	5889.28
650.027	5764.35
650.22	5721.34
650.413	5795.07
650.605	5844.22
650.798	5678.33
650.991	5686.53
651.183	5678.33
651.376	5483.78
651.568	5776.64
651.761	5610.75
651.954	5473.54
652.146	5522.69
652.339	5494.02
652.531	5465.35
652.724	5432.58
652.916	5270.79
653.109	5365
653.301	5381.38
653.494	5381.38
653.686	5321.99
653.879	5344.52
654.071	5215.49
654.263	5139.72
654.456	5369.09
654.648	5133.57
654.84	5084.42
655.033	5051.66
655.225	5123.34
655.417	5008.65
655.61	5133.57
655.802	4957.45
655.994	4961.55
656.186	5037.32
656.379	4887.82
656.571	4912.39
656.763	4756.75
656.955	4857.1
657.148	4850.96
657.34	4918.54
657.532	4713.74
657.724	4842.76
657.916	4664.59
658.108	4713.74
658.3	4570.38
658.492	4666.64
658.684	4619.53
658.876	4640.01
659.068	4623.63
659.26	4652.3
659.452	4500.75
659.644	4467.99
659.836	4572.43
660.028	4414.74
660.22	4394.26
660.412	4424.98
660.604	4484.37
660.796	4498.7
660.988	4345.11
661.18	4375.83
661.372	4424.98
661.563	4404.5
661.755	4390.16
661.947	4424.98
662.139	4336.92
662.331	4293.91
662.522	4187.41
662.714	4109.59
662.906	4093.21
663.097	4171.03
663.289	4025.62
663.481	3988.76
663.673	4132.12
663.864	3978.52
664.056	4099.35
664.247	4015.38
664.439	4046.1
664.631	3982.62
664.822	3851.55
665.014	3878.17
665.205	3902.75
665.397	3908.89
665.588	3839.26
665.78	3878.17
665.971	3910.94
666.163	3900.7
666.354	3851.55
666.546	3759.39
666.737	3878.17
666.929	3824.92
667.12	3757.34
667.311	3810.59
667.503	3745.05
667.694	3659.04
667.885	3564.83
668.077	3732.76
668.268	3661.09
668.459	3593.5
668.651	3738.91
668.842	3642.65
669.033	3685.66
669.224	3583.26
669.416	3564.83
669.607	3665.18
669.798	3386.66
669.989	3732.76
670.18	3491.1
670.371	3456.29
670.563	3532.06
670.754	3534.11
670.945	3405.09
671.136	3534.11
671.327	3497.25
671.518	3470.62
671.709	3452.19
671.9	3505.44
672.091	3415.33
672.282	3480.86
672.473	3458.34
672.664	3487.01
672.855	3339.55
673.046	3511.58
673.237	3405.09
673.428	3398.95
673.619	3394.85
673.809	3204.39
674	3392.8
674.191	3372.32
674.382	3239.2
674.573	3411.23
674.764	3398.95
674.954	3325.22
675.145	3288.36
675.336	3233.06
675.527	3147.05
675.717	3276.07
675.908	3253.54
676.099	3194.15
676.289	3247.4
676.48	3196.2
676.671	3300.64
676.861	3171.62
677.052	3140.9
677.243	3073.32
677.433	3161.38
677.624	3269.92
677.814	3140.9
678.005	3175.72
678.195	3218.72
678.386	3214.63
678.576	2989.35
678.767	3022.12
678.957	3185.96
679.148	3140.9
679.338	3140.9
679.529	3177.76
679.719	3181.86
679.909	3194.15
680.1	3036.45
680.29	2995.5
680.481	3087.65
680.671	3042.6
680.861	3054.89
681.052	3122.47
681.242	3005.74
681.432	3011.88
681.622	2964.78
681.813	2981.16
682.003	3081.51
682.193	3013.93
682.383	2997.54
682.573	3040.55
682.764	2972.97
682.954	2997.54
683.144	3022.12
683.334	3097.89
683.524	2960.68
683.714	3167.52
683.904	2909.48
684.094	2889
684.284	2942.25
684.474	2962.73
684.664	2929.96
684.854	2889
685.044	2889
685.234	2950.44
685.424	2925.86
685.614	2909.48
685.804	2815.27
685.994	2802.99
686.184	2964.78
686.374	2823.47
686.564	2897.19
686.753	2856.23
686.943	2825.51
687.133	2774.31
687.323	2723.12
687.513	2747.69
687.702	2839.85
687.892	2745.64
688.082	2624.81
688.272	2755.88
688.461	2759.98
688.651	2768.17
688.841	2805.03
689.03	2735.4
689.22	2762.03
689.41	2751.79
689.599	2716.97
689.789	2741.55
689.979	2751.79
690.168	2659.63
690.358	2538.8
690.547	2671.92
690.737	2729.26
690.926	2651.44
691.116	2602.29
691.305	2587.95
691.495	2446.64
691.684	2559.28
691.874	2549.04
692.063	2571.57
692.252	2475.31
692.442	2579.76
692.631	2456.88
692.82	2516.27
693.01	2503.98
693.199	2426.16
693.388	2465.07
693.578	2518.32
693.767	2405.68
693.956	2446.64
694.146	2465.07
694.335	2350.39
694.524	2350.39
694.713	2374.96
694.902	2469.17
695.092	2334
695.281	2237.75
695.47	2379.06
695.659	2352.43
695.848	2430.26
696.037	2463.02
696.226	2401.58
696.415	2280.75
696.604	2536.75
696.793	2358.58
696.982	2381.11
697.171	2252.08
697.36	2331.95
697.549	2323.76
697.738	2356.53
697.927	2190.64
698.116	2358.58
698.305	2305.33
698.494	2327.86
698.683	2327.86
698.872	2288.95
699.061	2247.99
699.25	2340.15
699.438	2207.03
699.627	2260.27
699.816	2358.58
700.005	2282.8
700.193	2407.73
700.382	2364.72
700.571	2233.65
700.76	2268.47
700.948	2313.52
701.137	2303.28
701.326	2356.53
701.514	2223.41
701.703	2288.95
701.892	2149.68
702.08	2364.72
702.269	2264.37
702.457	2307.38
702.646	2256.18
702.834	2258.23
703.023	2274.61
703.212	2362.67
703.4	2313.52
703.589	2237.75
703.777	2381.11
703.965	2235.7
704.154	2157.88
704.342	2118.96
704.531	2090.29
704.719	2256.18
704.907	2202.93
705.096	2331.95
705.284	2188.6
705.472	2176.31
705.661	2317.62
705.849	2303.28
706.037	2266.42
706.226	2202.93
706.414	2250.03
706.602	2186.55
706.79	2293.04
706.979	2278.71
707.167	2245.94
707.355	2172.21
707.543	2295.09
707.731	2252.08
707.919	2264.37
708.107	2157.88
708.296	2354.48
708.484	2190.64
708.672	2243.89
708.86	2202.93
709.048	2213.17
709.236	2221.36
709.424	2309.43
709.612	2340.15
709.8	2295.09
709.988	2233.65
710.176	2311.47
710.364	2219.32
710.551	2385.2
710.739	2288.95
710.927	2327.86
711.115	2172.21
711.303	2338.1
711.491	2387.25
711.679	2417.97
711.866	2348.34
712.054	2180.4
712.242	2295.09
712.43	2344.24
712.617	2321.71
712.805	2295.09
712.993	2336.05
713.181	2200.88
713.368	2272.56
713.556	2313.52
713.744	2303.28
713.931	2276.66
714.119	2409.78
714.306	2397.49
714.494	2290.99
714.682	2391.34
714.869	2307.38
715.057	2379.06
715.244	2368.82
715.432	2426.16
715.619	2331.95
715.807	2383.15
715.994	2397.49
716.182	2411.82
716.369	2405.68
716.556	2301.23
716.744	2319.67
716.931	2286.9
717.119	2354.48
717.306	2368.82
717.493	2372.91
717.681	2356.53
717.868	2354.48
718.055	2311.47
718.242	2450.74
718.43	2313.52
718.617	2436.4
718.804	2364.72
718.991	2334
719.179	2565.42
719.366	2350.39
719.553	2317.62
719.74	2430.26
719.927	2315.57
720.114	2262.32
720.301	2225.46
720.488	2284.85
720.676	2358.58
720.863	2411.82
721.05	2325.81
721.237	2338.1
721.424	2321.71
721.611	2319.67
721.798	2274.61
721.985	2315.57
722.172	2313.52
722.358	2370.87
722.545	2458.93
722.732	2381.11
722.919	2395.44
723.106	2311.47
723.293	2391.34
723.48	2381.11
723.667	2348.34
723.853	2422.06
724.04	2399.54
724.227	2381.11
724.414	2420.02
724.6	2342.19
724.787	2350.39
724.974	2342.19
725.161	2374.96
725.347	2372.91
725.534	2399.54
725.72	2536.75
725.907	2360.63
726.094	2446.64
726.28	2362.67
726.467	2417.97
726.653	2293.04
726.84	2237.75
727.027	2493.74
727.213	2317.62
727.4	2413.87
727.586	2403.63
727.773	2438.45
727.959	2411.82
728.145	2338.1
728.332	2305.33
728.518	2444.59
728.705	2413.87
728.891	2417.97
729.077	2342.19
729.264	2364.72
729.45	2346.29
729.636	2487.6
729.823	2274.61
730.009	2426.16
730.195	2456.88
730.382	2358.58
730.568	2338.1
730.754	2235.7
730.94	2432.3
731.126	2356.53
731.313	2395.44
731.499	2409.78
731.685	2499.89
731.871	2432.3
732.057	2338.1
732.243	2467.12
732.429	2411.82
732.615	2395.44
732.801	2420.02
732.987	2303.28
733.173	2344.24
733.359	2368.82
733.545	2360.63
733.731	2389.3
733.917	2428.21
734.103	2319.67
734.289	2411.82
734.475	2454.83
734.661	2436.4
734.847	2323.76
735.033	2370.87
735.219	2426.16
735.404	2327.86
735.59	2520.37
735.776	2348.34
735.962	2417.97
736.148	2432.3
736.333	2475.31
736.519	2354.48
736.705	2426.16
736.89	2311.47
737.076	2354.48
737.262	2250.03
737.447	2262.32
737.633	2295.09
737.819	2303.28
738.004	2391.34
738.19	2338.1
738.375	2405.68
738.561	2377.01
738.747	2229.56
738.932	2262.32
739.118	2315.57
739.303	2428.21
739.489	2227.51
739.674	2266.42
739.859	2334
740.045	2319.67
740.23	2319.67
740.416	2260.27
740.601	2250.03
740.786	2274.61
740.972	2125.11
741.157	2282.8
741.342	2252.08
741.528	2227.51
741.713	2245.94
741.898	2108.73
742.084	2217.27
742.269	2155.83
742.454	2299.19
742.639	2151.73
742.824	2151.73
743.01	2121.01
743.195	2188.6
743.38	2217.27
743.565	2159.92
743.75	2114.87
743.935	2084.15
744.12	2227.51
744.305	2045.24
744.49	2129.2
744.675	2086.2
744.86	2080.05
745.045	2018.61
745.23	2170.16
745.415	2035
745.6	2032.95
745.785	2094.39
745.97	2069.81
746.155	1936.7
746.34	1979.7
746.525	1905.98
746.71	1994.04
746.895	1948.98
747.079	1926.46
747.264	1930.55
747.449	1914.17
747.634	1934.65
747.819	1840.44
748.003	1905.98
748.188	1733.95
748.373	1912.12
748.557	1940.79
748.742	1840.44
748.927	1881.4
749.111	1869.11
749.296	1901.88
749.481	1795.39
749.665	1887.54
749.85	1774.91
750.034	1791.29
750.219	1766.71
750.404	1652.03
750.588	1688.89
750.773	1715.52
750.957	1703.23
751.141	1824.06
751.326	1580.35
751.51	1688.89
751.695	1779
751.879	1682.75
752.064	1719.61
752.248	1584.45
752.432	1561.92
752.617	1660.22
752.801	1576.25
752.985	1609.02
753.17	1588.54
753.354	1574.21
753.538	1541.44
753.722	1508.67
753.907	1551.68
754.091	1527.1
754.275	1439.04
754.459	1471.81
754.643	1498.43
754.828	1471.81
755.012	1543.49
755.196	1471.81
755.38	1473.85
755.564	1414.46
755.748	1502.53
755.932	1367.36
756.116	1320.26
756.3	1348.93
756.484	1416.51
756.668	1398.08
756.852	1324.35
757.036	1428.8
757.22	1393.98
757.404	1234.24
757.588	1367.36
757.772	1398.08
757.956	1287.49
758.14	1312.07
758.323	1291.59
758.507	1279.3
758.691	1226.05
758.875	1207.62
759.059	1273.15
759.242	1217.86
759.426	1207.62
759.61	1185.09
759.794	1246.53
759.977	1178.95
760.161	1305.92
760.345	1256.77
760.528	1183.04
760.712	1162.56
760.895	1158.47
761.079	1117.51
761.263	1111.36
761.446	1123.65
761.63	1191.24
761.813	1164.61
761.997	1215.81
762.18	1080.64
762.364	1176.9
762.547	1076.55
762.731	1056.07
762.914	1121.6
763.098	1041.73
763.281	925
763.464	1082.69
763.648	1103.17
763.831	1125.7
764.015	1064.26
764.198	1037.64
764.381	998.73
764.564	1043.78
764.748	1068.36
764.931	1094.98
765.114	1019.21
765.297	1051.97
765.481	963.91
765.664	978.25
765.847	974.15
766.03	1011.01
766.213	1064.26
766.397	1072.45
766.58	1015.11
766.763	970.05
766.946	980.29
767.129	965.96
767.312	925
767.495	974.15
767.678	955.72
767.861	959.81
768.044	914.76
768.227	978.25
768.41	968.01
768.593	1045.83
768.776	925
768.959	851.27
769.142	955.72
769.324	918.86
769.507	951.62
769.69	951.62
769.873	914.76
770.056	955.72
770.239	873.8
770.421	886.09
770.604	925
770.787	810.31
770.97	898.38
771.152	900.42
771.335	795.98
771.518	798.03
771.7	861.51
771.883	881.99
772.066	834.89
772.248	834.89
772.431	879.94
772.613	884.04
772.796	830.79
772.978	834.89
773.161	836.94
773.343	707.91
773.526	845.13
773.708	810.31
773.891	769.35
774.073	697.67
774.256	783.69
774.438	900.42
774.621	802.12
774.803	785.74
774.985	759.11
775.168	789.83
775.35	777.55
775.532	795.98
775.715	826.7
775.897	734.54
776.079	669
776.261	701.77
776.444	720.2
776.626	806.22
776.808	742.73
776.99	726.35
777.173	695.63
777.355	720.2
777.537	646.48
777.719	691.53
777.901	685.39
778.083	650.57
778.265	658.76
778.447	644.43
778.629	572.75
778.811	650.57
778.993	660.81
779.175	621.9
779.357	638.28
779.539	603.47
779.721	634.19
779.903	566.6
780.085	519.5
780.267	658.76
780.449	652.62
780.631	601.42
780.812	542.03
780.994	535.89
781.176	650.57
781.358	632.14
781.54	589.13
781.721	619.85
781.903	578.89
782.085	419.15
782.267	566.6
782.448	523.6
782.63	572.75
782.812	572.75
782.993	580.94
783.175	464.21
783.357	513.36
783.538	542.03
783.72	570.7
783.901	519.5
784.083	554.32
784.264	531.79
784.446	486.73
784.627	402.77
784.809	462.16
784.99	494.93
785.172	486.73
785.353	505.17
785.535	447.82
785.716	505.17
785.897	443.73
786.079	519.5
786.26	472.4
786.441	429.39
786.623	443.73
786.804	494.93
786.985	480.59
787.167	423.25
787.348	429.39
787.529	441.68
787.71	435.53
787.891	494.93
788.073	406.86
788.254	394.58
788.435	427.34
788.616	470.35
788.797	357.71
788.978	396.62
789.159	415.05
789.34	388.43
789.522	388.43
789.703	388.43
789.884	376.14
790.065	433.49
790.246	398.67
790.427	413.01
790.607	400.72
790.788	423.25
790.969	292.18
791.15	347.47
791.331	353.62
791.512	421.2
791.693	333.14
791.874	390.48
792.054	404.82
792.235	376.14
792.416	296.27
792.597	345.42
792.778	396.62
792.958	355.66
793.139	302.42
793.32	333.14
793.5	333.14
793.681	355.66
793.862	378.19
794.042	335.18
794.223	296.27
794.404	359.76
794.584	253.27
794.765	283.98
794.945	279.89
795.126	367.95
795.306	345.42
795.487	275.79
795.667	312.66
795.848	304.46
796.028	230.74
796.209	347.47
796.389	372.05
796.57	310.61
796.75	245.07
796.93	212.31
797.111	228.69
797.291	410.96
797.471	292.18
797.652	359.76
797.832	271.7
798.012	294.22
798.192	195.92
798.373	245.07
798.553	245.07
798.733	308.56
798.913	206.16
799.093	269.65
799.274	261.46
799.454	255.31
799.634	275.79
799.814	222.55
799.994	208.21
800.174	236.88
800.354	230.74
800.534	193.87
800.714	238.93
800.894	257.36
801.074	232.79
801.254	302.42
801.434	191.83
801.614	306.51
801.794	249.17
801.974	701.77
802.154	220.5
802.334	283.98
802.514	251.22
802.693	146.77
802.873	236.88
803.053	197.97
803.233	200.02
803.413	257.36
803.592	161.11
803.772	234.83
803.952	159.06
804.131	220.5
804.311	154.96
804.491	294.22
804.67	308.56
804.85	148.82
805.03	228.69
805.209	189.78
805.389	179.54
805.568	179.54
805.748	134.48
805.928	222.55
806.107	210.26
806.287	197.97
806.466	230.74
806.646	275.79
806.825	216.4
807.004	193.87
807.184	224.59
807.363	138.58
807.543	220.5
807.722	218.45
807.901	161.11
808.081	275.79
808.26	187.73
808.439	144.72
808.619	150.87
808.798	179.54
808.977	179.54
809.156	228.69
809.336	179.54
809.515	206.16
809.694	267.6
809.873	202.07
810.052	136.53
810.231	130.39
810.411	83.28
810.59	224.59
810.769	216.4
810.948	214.35
811.127	132.44
811.306	134.48
811.485	116.05
811.664	171.35
811.843	165.2
812.022	234.83
812.201	116.05
812.38	183.63
812.559	161.11
812.737	167.25
812.916	200.02
813.095	165.2
813.274	187.73
813.453	224.59
813.632	204.11
813.811	236.88
813.989	114
814.168	154.96
814.347	144.72
814.526	189.78
814.704	159.06
814.883	236.88
815.062	179.54
815.24	157.01
815.419	134.48
815.598	167.25
815.776	183.63
815.955	148.82
816.133	238.93
816.312	173.39
816.49	89.43
816.669	150.87
816.847	97.62
817.026	163.15
817.204	116.05
817.383	97.62
817.561	111.96
817.74	146.77
817.918	167.25
818.097	150.87
818.275	173.39
818.453	224.59
818.632	97.62
818.81	187.73
818.988	99.67
819.167	99.67
819.345	118.1
819.523	109.91
819.701	34.13
819.879	175.44
820.058	52.56
820.236	134.48
820.414	87.38
820.592	181.59
820.77	97.62
820.948	161.11
821.127	130.39
821.305	181.59
821.483	89.43
821.661	134.48
821.839	114
822.017	105.81
822.195	89.43
822.373	109.91
822.551	132.44
822.729	146.77
822.907	-10.92
823.085	212.31
823.262	97.62
823.44	208.21
823.618	42.32
823.796	89.43
823.974	122.2
824.152	77.14
824.329	159.06
824.507	167.25
824.685	165.2
824.863	64.85
825.04	154.96
825.218	130.39
825.396	99.67
825.574	107.86
825.751	91.48
825.929	175.44
826.107	95.57
826.284	54.61
826.462	122.2
826.639	73.04
826.817	103.76
826.994	101.72
827.172	120.15
827.349	144.72
827.527	83.28
827.704	75.09
827.882	79.19
828.059	52.56
828.237	111.96
828.414	128.34
828.591	91.48
828.769	73.04
828.946	107.86
829.124	85.33
829.301	124.24
829.478	101.72
829.655	130.39
829.833	101.72
830.01	83.28
830.187	50.52
830.364	60.76
830.542	93.52
830.719	97.62
830.896	130.39
831.073	44.37
831.25	103.76
831.427	83.28
831.604	91.48
831.782	181.59
831.959	66.9
832.136	120.15
832.313	95.57
832.49	40.28
832.667	122.2
832.844	185.68
833.021	152.91
833.198	122.2
833.374	93.52
833.551	46.42
833.728	134.48
833.905	103.76
834.082	48.47
834.259	87.38
834.436	58.71
834.612	64.85
834.789	144.72
834.966	42.32
835.143	91.48
835.319	124.24
835.496	109.91
835.673	60.76
835.85	89.43
836.026	52.56
836.203	81.24
836.38	-8.87
836.556	54.61
836.733	73.04
836.909	136.53
837.086	105.81
837.262	93.52
837.439	38.23
837.616	23.89
837.792	-10.92
837.968	89.43
838.145	50.52
838.321	38.23
838.498	52.56
838.674	75.09
838.851	44.37
839.027	150.87
839.203	93.52
839.38	79.19
839.556	56.66
839.732	85.33
839.909	-4.78
840.085	60.76
840.261	7.51
840.437	89.43
840.614	52.56
840.79	54.61
840.966	79.19
841.142	91.48
841.318	81.24
841.494	52.56
841.671	81.24
841.847	42.32
842.023	97.62
842.199	122.2
842.375	66.9
842.551	-25.26
842.727	13.65
842.903	140.63
843.079	-66.22
843.255	62.8
843.431	40.28
843.607	50.52
843.783	-39.59
843.959	150.87
844.134	40.28
844.31	79.19
844.486	66.9
844.662	27.99
844.838	30.04
845.013	66.9
845.189	85.33
845.365	66.9
845.541	38.23
845.716	73.04
845.892	97.62
846.068	3.41
846.244	-6.83
846.419	25.94
846.595	48.47
846.77	46.42
846.946	58.71
847.122	27.99
847.297	73.04
847.473	81.24
847.648	36.18
847.824	134.48
847.999	40.28
848.175	32.08
848.35	54.61
848.526	52.56
848.701	130.39
848.876	91.48
849.052	52.56
849.227	-17.07
849.403	48.47
849.578	83.28
849.753	56.66
849.929	79.19
850.104	17.75
850.279	34.13
850.454	34.13
850.63	48.47
850.805	30.04
850.98	60.76
851.155	124.24
851.33	62.8
851.505	5.46
851.681	101.72
851.856	97.62
852.031	21.85
852.206	15.7
852.381	25.94
852.556	95.57
852.731	91.48
852.906	42.32
853.081	30.04
853.256	75.09
853.431	32.08
853.606	71
853.781	11.61
853.956	-45.74
854.131	66.9
854.305	-27.31
854.48	30.04
854.655	44.37
854.83	7.51
855.005	36.18
855.18	-0.68
855.354	30.04
855.529	66.9
855.704	42.32
855.879	71
856.053	-21.16
856.228	107.86
856.403	52.56
856.577	38.23
856.752	30.04
856.926	30.04
857.101	50.52
857.276	5.46
857.45	3.41
857.625	30.04
857.799	25.94
857.974	56.66
858.148	-6.83
858.323	48.47
858.497	27.99
858.672	13.65
858.846	-25.26
859.02	83.28
859.195	-17.07
859.369	11.61
859.543	-64.17
859.718	15.7
859.892	21.85
860.066	46.42
860.241	54.61
860.415	71
860.589	-12.97
860.763	83.28
860.938	-74.41
861.112	34.13
861.286	73.04
861.46	48.47
861.634	-15.02
861.808	25.94
861.982	27.99
862.157	21.85
862.331	3.41
862.505	-33.45
862.679	-27.31
862.853	-2.73
863.027	-49.83
863.201	46.42
863.375	15.7
863.549	1.37
863.722	93.52
863.896	27.99
864.07	9.56
864.244	-0.68
864.418	3.41
864.592	-15.02
864.766	-41.64
864.939	46.42
865.113	-31.4
865.287	27.99
865.461	-17.07
865.634	62.8
865.808	-4.78
865.982	71
866.156	3.41
866.329	38.23
866.503	34.13
866.676	30.04
866.85	95.57
867.024	11.61
867.197	21.85
867.371	3.41
867.544	13.65
867.718	3.41
867.891	-43.69
868.065	54.61
868.238	58.71
868.412	32.08
868.585	-2.73
868.759	89.43
868.932	77.14
869.105	-6.83
869.279	38.23
869.452	-12.97
869.625	-47.79
869.799	-17.07
869.972	38.23
870.145	32.08
870.319	40.28
870.492	-4.78
870.665	34.13
870.838	-12.97
871.011	17.75
871.185	-10.92
871.358	42.32
871.531	25.94
871.704	21.85
871.877	32.08
872.05	13.65
872.223	13.65
872.396	27.99
872.569	66.9
872.742	17.75
872.915	77.14
873.088	-15.02
873.261	93.52
873.434	7.51
873.607	34.13
873.78	75.09
873.953	-15.02
874.126	38.23
874.299	42.32
874.471	58.71
874.644	42.32
874.817	68.95
874.99	52.56
875.163	5.46
875.335	68.95
875.508	-15.02
875.681	81.24
875.853	-37.55
876.026	71
876.199	52.56
876.371	17.75
876.544	91.48
876.717	73.04
876.889	50.52
877.062	95.57
877.234	1.37
877.407	52.56
877.579	-68.27
877.752	21.85
877.924	58.71
878.097	-0.68
878.269	-19.11
878.442	30.04
878.614	-39.59
878.786	62.8
878.959	13.65
879.131	11.61
879.303	-31.4
879.476	-31.4
879.648	95.57
879.82	-21.16
879.993	-27.31
880.165	52.56
880.337	-25.26
880.509	-21.16
880.681	-41.64
880.854	19.8
881.026	109.91
881.198	75.09
881.37	-2.73
881.542	19.8
881.714	-19.11
881.886	87.38
882.058	-29.35
882.23	66.9
882.402	34.13
882.574	-53.93
882.746	-25.26
882.918	62.8
883.09	66.9
883.262	7.51
883.434	38.23
883.606	-2.73
883.778	-35.5
883.95	62.8
884.122	-49.83
884.293	73.04
884.465	11.61
884.637	-19.11
884.809	56.66
884.98	25.94
885.152	23.89
885.324	85.33
885.496	-21.16
885.667	44.37
885.839	-12.97
886.011	-25.26
886.182	32.08
886.354	32.08
886.525	85.33
886.697	-19.11
886.869	15.7
887.04	-23.21
887.212	99.67
887.383	81.24
887.555	58.71
887.726	-51.88
887.897	30.04
888.069	52.56
888.24	48.47
888.412	42.32
888.583	-15.02
888.754	-19.11
888.926	-62.12
889.097	-47.79
889.268	-6.83
889.44	50.52
889.611	1.37
889.782	46.42
889.953	5.46
890.125	27.99
890.296	-58.03
890.467	5.46
890.638	23.89
890.809	1.37
890.98	21.85
891.151	-62.12
891.323	83.28
891.494	-41.64
891.665	38.23
891.836	-45.74
892.007	-35.5
892.178	21.85
892.349	-6.83
892.52	-21.16
892.691	50.52
892.862	-49.83
893.032	-66.22
893.203	-27.31
893.374	-27.31
893.545	25.94
893.716	30.04
893.887	48.47
894.057	-49.83
894.228	-70.31
894.399	50.52
894.57	5.46
894.74	-33.45
894.911	-25.26
895.082	23.89
895.253	-12.97
895.423	-121.51
895.594	32.08
895.764	15.7
895.935	-60.07
896.106	27.99
896.276	42.32
896.447	-17.07
896.617	-8.87
896.788	-35.5
896.958	9.56
897.129	11.61
897.299	17.75
897.47	42.32
897.64	30.04
897.81	-37.55
897.981	-25.26
898.151	50.52
898.322	-15.02
898.492	-2.73
898.662	58.71
898.832	-43.69
899.003	48.47
899.173	42.32
899.343	-31.4
899.513	62.8
