Data from USB4F104151__51__11-51-59-472.txt Node

Date: Fri Mar 14 11:51:59 EDT 2025
User: louis
Spectrometer: USB4F10415
Trigger mode: 4
Integration Time (sec): 2.000000E-2
Scans to average: 1
Electric dark correction enabled: true
Nonlinearity correction enabled: false
Boxcar width: 0
XAxis mode: Wavelengths
Number of Pixels in Spectrum: 3648
>>>>>Begin Spectral Data<<<<<
178.204	-106.32
178.424	-106.32
178.644	-106.32
178.864	-118.61
179.084	-44.88
179.304	-42.84
179.524	-26.45
179.744	6.31
179.964	34.99
180.184	30.89
180.404	-1.88
180.624	-12.12
180.844	43.18
181.064	-32.6
181.283	43.18
181.503	-10.07
181.723	-32.6
181.943	-44.88
182.163	47.27
182.383	4.27
182.602	10.41
182.822	-14.17
183.042	47.27
183.262	8.36
183.482	6.31
183.701	-18.26
183.921	75.95
184.141	-18.26
184.361	4.27
184.58	-42.84
184.8	-5.97
185.02	10.41
185.239	-3.93
185.459	-30.55
185.679	-22.36
185.898	-10.07
186.118	39.08
186.338	-22.36
186.557	18.6
186.777	-40.79
186.997	-20.31
187.216	98.47
187.436	8.36
187.655	0.17
187.875	-1.88
188.095	51.37
188.314	39.08
188.534	-3.93
188.753	-16.21
188.973	-3.93
189.192	41.13
189.412	16.55
189.631	57.51
189.851	2.22
190.07	41.13
190.29	8.36
190.509	-1.88
190.729	-28.5
190.948	2.22
191.168	116.9
191.387	106.67
191.607	63.66
191.826	-14.17
192.045	-10.07
192.265	-30.55
192.484	10.41
192.704	-8.02
192.923	-24.4
193.142	77.99
193.362	26.79
193.581	112.81
193.8	51.37
194.02	73.9
194.239	20.65
194.458	-18.26
194.678	102.57
194.897	-20.31
195.116	-5.97
195.335	43.18
195.555	34.99
195.774	26.79
195.993	-1.88
196.212	73.9
196.432	51.37
196.651	110.76
196.87	4.27
197.089	34.99
197.308	18.6
197.528	63.66
197.747	4.27
197.966	-24.4
198.185	12.46
198.404	26.79
198.623	39.08
198.842	73.9
199.062	-26.45
199.281	71.85
199.5	-1.88
199.719	71.85
199.938	-22.36
200.157	20.65
200.376	-5.97
200.595	49.32
200.814	63.66
201.033	-20.31
201.252	106.67
201.471	28.84
201.69	-3.93
201.909	104.62
202.128	32.94
202.347	14.51
202.566	4.27
202.785	-26.45
203.004	53.42
203.223	80.04
203.442	51.37
203.661	4.27
203.879	-28.5
204.098	53.42
204.317	-24.4
204.536	67.75
204.755	12.46
204.974	-12.12
205.193	4.27
205.411	55.47
205.63	20.65
205.849	73.9
206.068	24.75
206.287	-3.93
206.505	92.33
206.724	10.41
206.943	14.51
207.162	24.75
207.381	-30.55
207.599	-28.5
207.818	43.18
208.037	-71.51
208.255	-32.6
208.474	65.71
208.693	51.37
208.911	-18.26
209.13	-8.02
209.349	-3.93
209.567	0.17
209.786	71.85
210.005	65.71
210.223	26.79
210.442	-48.98
210.661	26.79
210.879	26.79
211.098	2.22
211.316	4.27
211.535	69.8
211.753	-75.6
211.972	18.6
212.191	59.56
212.409	47.27
212.628	-28.5
212.846	10.41
213.065	-5.97
213.283	-16.21
213.502	41.13
213.72	-8.02
213.938	28.84
214.157	30.89
214.375	12.46
214.594	-10.07
214.812	57.51
215.031	22.7
215.249	10.41
215.467	10.41
215.686	0.17
215.904	-3.93
216.122	43.18
216.341	-18.26
216.559	86.19
216.778	34.99
216.996	2.22
217.214	4.27
217.432	-57.17
217.651	43.18
217.869	-14.17
218.087	-1.88
218.306	14.51
218.524	30.89
218.742	22.7
218.96	47.27
219.179	51.37
219.397	59.56
219.615	110.76
219.833	43.18
220.051	6.31
220.27	2.22
220.488	16.55
220.706	-30.55
220.924	-1.88
221.142	-22.36
221.36	28.84
221.578	-1.88
221.796	51.37
222.015	-16.21
222.233	-8.02
222.451	32.94
222.669	16.55
222.887	18.6
223.105	8.36
223.323	-26.45
223.541	32.94
223.759	28.84
223.977	-28.5
224.195	80.04
224.413	34.99
224.631	92.33
224.849	88.23
225.067	75.95
225.285	-22.36
225.503	69.8
225.721	2.22
225.939	4.27
226.157	4.27
226.375	147.62
226.592	-59.22
226.81	-14.17
227.028	30.89
227.246	41.13
227.464	14.51
227.682	26.79
227.9	-34.64
228.117	47.27
228.335	0.17
228.553	-8.02
228.771	-1.88
228.989	14.51
229.206	-5.97
229.424	-22.36
229.642	47.27
229.86	-28.5
230.077	77.99
230.295	112.81
230.513	75.95
230.731	55.47
230.948	28.84
231.166	67.75
231.384	-30.55
231.601	-3.93
231.819	-8.02
232.037	14.51
232.254	-22.36
232.472	-28.5
232.689	24.75
232.907	-1.88
233.125	71.85
233.342	41.13
233.56	63.66
233.777	18.6
233.995	71.85
234.213	-14.17
234.43	57.51
234.648	20.65
234.865	55.47
235.083	37.03
235.3	28.84
235.518	4.27
235.735	-8.02
235.953	73.9
236.17	-14.17
236.388	28.84
236.605	116.9
236.822	-24.4
237.04	24.75
237.257	22.7
237.475	-40.79
237.692	51.37
237.909	8.36
238.127	39.08
238.344	-46.93
238.562	-1.88
238.779	-71.51
238.996	45.23
239.214	0.17
239.431	71.85
239.648	22.7
239.865	14.51
240.083	41.13
240.3	63.66
240.517	-85.84
240.735	20.65
240.952	98.47
241.169	106.67
241.386	34.99
241.603	-10.07
241.821	-30.55
242.038	-8.02
242.255	-26.45
242.472	28.84
242.689	-18.26
242.907	67.75
243.124	2.22
243.341	18.6
243.558	-38.74
243.775	-38.74
243.992	34.99
244.209	-34.64
244.426	69.8
244.643	69.8
244.86	51.37
245.078	16.55
245.295	2.22
245.512	24.75
245.729	-10.07
245.946	12.46
246.163	69.8
246.38	84.14
246.597	55.47
246.814	-3.93
247.031	-18.26
247.248	32.94
247.464	88.23
247.681	-28.5
247.898	24.75
248.115	30.89
248.332	26.79
248.549	6.31
248.766	4.27
248.983	32.94
249.2	98.47
249.417	10.41
249.633	-38.74
249.85	37.03
250.067	-18.26
250.284	-69.46
250.501	-3.93
250.717	-20.31
250.934	-8.02
251.151	-12.12
251.368	45.23
251.585	45.23
251.801	32.94
252.018	-30.55
252.235	-1.88
252.451	16.55
252.668	4.27
252.885	75.95
253.102	71.85
253.318	39.08
253.535	-20.31
253.752	-36.69
253.968	39.08
254.185	18.6
254.401	106.67
254.618	116.9
254.835	-10.07
255.051	-10.07
255.268	14.51
255.484	-12.12
255.701	20.65
255.917	8.36
256.134	10.41
256.351	14.51
256.567	-34.64
256.784	34.99
257	-51.03
257.217	32.94
257.433	43.18
257.65	-10.07
257.866	8.36
258.082	24.75
258.299	12.46
258.515	34.99
258.732	10.41
258.948	18.6
259.165	-12.12
259.381	43.18
259.597	-3.93
259.814	8.36
260.03	-5.97
260.246	16.55
260.463	6.31
260.679	63.66
260.895	4.27
261.112	37.03
261.328	-65.36
261.544	-40.79
261.761	98.47
261.977	12.46
262.193	-8.02
262.409	69.8
262.626	14.51
262.842	28.84
263.058	63.66
263.274	-12.12
263.49	8.36
263.707	32.94
263.923	-16.21
264.139	0.17
264.355	-14.17
264.571	22.7
264.787	-24.4
265.004	8.36
265.22	32.94
265.436	2.22
265.652	-14.17
265.868	10.41
266.084	53.42
266.3	-14.17
266.516	-3.93
266.732	53.42
266.948	57.51
267.164	-10.07
267.38	55.47
267.596	39.08
267.812	100.52
268.028	71.85
268.244	88.23
268.46	63.66
268.676	-34.64
268.892	28.84
269.108	4.27
269.324	-36.69
269.54	-46.93
269.756	28.84
269.972	30.89
270.188	-20.31
270.403	0.17
270.619	2.22
270.835	102.57
271.051	-1.88
271.267	49.32
271.483	67.75
271.698	-5.97
271.914	-3.93
272.13	59.56
272.346	4.27
272.562	47.27
272.777	63.66
272.993	22.7
273.209	-5.97
273.425	63.66
273.64	28.84
273.856	-1.88
274.072	-46.93
274.287	-36.69
274.503	22.7
274.719	151.72
274.934	37.03
275.15	6.31
275.366	32.94
275.581	-3.93
275.797	125.1
276.012	59.56
276.228	41.13
276.444	10.41
276.659	61.61
276.875	-34.64
277.09	39.08
277.306	55.47
277.521	20.65
277.737	49.32
277.952	20.65
278.168	30.89
278.383	39.08
278.599	24.75
278.814	32.94
279.03	-30.55
279.245	143.53
279.461	30.89
279.676	10.41
279.892	55.47
280.107	18.6
280.322	8.36
280.538	45.23
280.753	34.99
280.969	71.85
281.184	-32.6
281.399	41.13
281.615	-28.5
281.83	71.85
282.045	24.75
282.26	53.42
282.476	4.27
282.691	69.8
282.906	34.99
283.122	28.84
283.337	-69.46
283.552	59.56
283.767	90.28
283.983	59.56
284.198	-3.93
284.413	-1.88
284.628	-89.94
284.843	26.79
285.058	69.8
285.274	6.31
285.489	26.79
285.704	-5.97
285.919	10.41
286.134	-34.64
286.349	16.55
286.564	6.31
286.779	30.89
286.995	14.51
287.21	-40.79
287.425	22.7
287.64	37.03
287.855	41.13
288.07	-10.07
288.285	24.75
288.5	53.42
288.715	104.62
288.93	43.18
289.145	-38.74
289.36	73.9
289.575	24.75
289.79	112.81
290.004	43.18
290.219	147.62
290.434	47.27
290.649	80.04
290.864	-30.55
291.079	-1.88
291.294	-18.26
291.509	18.6
291.724	14.51
291.938	34.99
292.153	90.28
292.368	-65.36
292.583	-30.55
292.798	71.85
293.012	18.6
293.227	45.23
293.442	14.51
293.657	84.14
293.871	30.89
294.086	22.7
294.301	104.62
294.516	16.55
294.73	84.14
294.945	-14.17
295.16	0.17
295.374	135.34
295.589	71.85
295.804	69.8
296.018	-5.97
296.233	28.84
296.447	-8.02
296.662	20.65
296.877	30.89
297.091	30.89
297.306	39.08
297.52	32.94
297.735	8.36
297.949	49.32
298.164	-5.97
298.378	6.31
298.593	61.61
298.807	67.75
299.022	37.03
299.236	73.9
299.451	-28.5
299.665	51.37
299.88	32.94
300.094	-8.02
300.309	8.36
300.523	22.7
300.737	-16.21
300.952	77.99
301.166	71.85
301.381	-18.26
301.595	-1.88
301.809	30.89
302.024	92.33
302.238	49.32
302.452	37.03
302.667	-32.6
302.881	45.23
303.095	41.13
303.309	51.37
303.524	55.47
303.738	4.27
303.952	16.55
304.166	32.94
304.381	-94.04
304.595	41.13
304.809	32.94
305.023	80.04
305.237	6.31
305.452	-10.07
305.666	57.51
305.88	69.8
306.094	-16.21
306.308	129.19
306.522	77.99
306.736	6.31
306.95	104.62
307.164	63.66
307.379	14.51
307.593	57.51
307.807	-3.93
308.021	16.55
308.235	-30.55
308.449	14.51
308.663	-34.64
308.877	26.79
309.091	55.47
309.305	43.18
309.519	2.22
309.733	47.27
309.947	-30.55
310.161	47.27
310.374	65.71
310.588	-42.84
310.802	65.71
311.016	65.71
311.23	53.42
311.444	28.84
311.658	20.65
311.872	28.84
312.085	47.27
312.299	86.19
312.513	28.84
312.727	94.38
312.941	-24.4
313.154	59.56
313.368	51.37
313.582	28.84
313.796	30.89
314.009	12.46
314.223	80.04
314.437	43.18
314.651	-32.6
314.864	34.99
315.078	16.55
315.292	32.94
315.505	30.89
315.719	-3.93
315.933	22.7
316.146	59.56
316.36	20.65
316.573	71.85
316.787	-14.17
317.001	59.56
317.214	8.36
317.428	-1.88
317.641	-24.4
317.855	-18.26
318.068	57.51
318.282	92.33
318.495	43.18
318.709	69.8
318.922	77.99
319.136	67.75
319.349	53.42
319.563	-24.4
319.776	53.42
319.99	45.23
320.203	55.47
320.417	20.65
320.63	32.94
320.843	-3.93
321.057	-8.02
321.27	59.56
321.483	14.51
321.697	-3.93
321.91	47.27
322.124	41.13
322.337	57.51
322.55	-12.12
322.763	41.13
322.977	77.99
323.19	-22.36
323.403	51.37
323.617	-40.79
323.83	37.03
324.043	57.51
324.256	67.75
324.469	37.03
324.683	34.99
324.896	102.57
325.109	26.79
325.322	-53.08
325.535	2.22
325.748	8.36
325.962	-30.55
326.175	26.79
326.388	-10.07
326.601	-8.02
326.814	14.51
327.027	18.6
327.24	82.09
327.453	-1.88
327.666	106.67
327.879	65.71
328.092	63.66
328.305	65.71
328.518	-1.88
328.731	53.42
328.944	106.67
329.157	10.41
329.37	45.23
329.583	43.18
329.796	104.62
330.009	30.89
330.222	104.62
330.435	61.61
330.648	-16.21
330.861	-12.12
331.073	43.18
331.286	32.94
331.499	18.6
331.712	125.1
331.925	41.13
332.138	22.7
332.35	80.04
332.563	51.37
332.776	86.19
332.989	-20.31
333.202	34.99
333.414	10.41
333.627	57.51
333.84	49.32
334.053	39.08
334.265	-3.93
334.478	-20.31
334.691	110.76
334.903	24.75
335.116	2.22
335.329	24.75
335.541	67.75
335.754	90.28
335.966	-57.17
336.179	114.86
336.392	37.03
336.604	24.75
336.817	10.41
337.029	39.08
337.242	34.99
337.454	24.75
337.667	65.71
337.88	84.14
338.092	-8.02
338.305	69.8
338.517	14.51
338.729	45.23
338.942	61.61
339.154	8.36
339.367	88.23
339.579	-24.4
339.792	-16.21
340.004	-5.97
340.217	67.75
340.429	45.23
340.641	65.71
340.854	-16.21
341.066	-24.4
341.278	41.13
341.491	71.85
341.703	75.95
341.915	55.47
342.128	94.38
342.34	61.61
342.552	96.43
342.764	8.36
342.977	30.89
343.189	67.75
343.401	20.65
343.613	-40.79
343.826	6.31
344.038	43.18
344.25	28.84
344.462	43.18
344.674	55.47
344.886	32.94
345.099	8.36
345.311	-1.88
345.523	77.99
345.735	34.99
345.947	26.79
346.159	63.66
346.371	92.33
346.583	8.36
346.795	45.23
347.007	34.99
347.219	39.08
347.431	49.32
347.643	51.37
347.855	43.18
348.067	71.85
348.279	-63.32
348.491	39.08
348.703	28.84
348.915	2.22
349.127	80.04
349.339	22.7
349.551	14.51
349.763	80.04
349.975	39.08
350.187	32.94
350.399	26.79
350.61	34.99
350.822	37.03
351.034	63.66
351.246	-8.02
351.458	116.9
351.669	55.47
351.881	82.09
352.093	110.76
352.305	32.94
352.517	2.22
352.728	57.51
352.94	45.23
353.152	37.03
353.363	63.66
353.575	47.27
353.787	73.9
353.999	69.8
354.21	51.37
354.422	28.84
354.633	10.41
354.845	-71.51
355.057	34.99
355.268	12.46
355.48	10.41
355.692	32.94
355.903	86.19
356.115	16.55
356.326	8.36
356.538	73.9
356.749	86.19
356.961	86.19
357.172	65.71
357.384	43.18
357.595	45.23
357.807	88.23
358.018	57.51
358.23	12.46
358.441	92.33
358.653	32.94
358.864	45.23
359.075	45.23
359.287	-20.31
359.498	-3.93
359.709	96.43
359.921	20.65
360.132	0.17
360.344	2.22
360.555	30.89
360.766	-3.93
360.977	73.9
361.189	51.37
361.4	20.65
361.611	131.24
361.823	-8.02
362.034	43.18
362.245	4.27
362.456	43.18
362.667	32.94
362.879	-1.88
363.09	37.03
363.301	67.75
363.512	80.04
363.723	86.19
363.935	-8.02
364.146	34.99
364.357	45.23
364.568	45.23
364.779	-1.88
364.99	112.81
365.201	-63.32
365.412	63.66
365.623	-5.97
365.834	65.71
366.045	26.79
366.256	55.47
366.467	53.42
366.678	34.99
366.889	20.65
367.1	-36.69
367.311	110.76
367.522	-5.97
367.733	28.84
367.944	37.03
368.155	-18.26
368.366	0.17
368.577	110.76
368.788	39.08
368.999	32.94
369.209	-51.03
369.42	96.43
369.631	57.51
369.842	73.9
370.053	57.51
370.264	77.99
370.474	41.13
370.685	65.71
370.896	71.85
371.107	75.95
371.317	73.9
371.528	-51.03
371.739	106.67
371.95	69.8
372.16	43.18
372.371	18.6
372.582	45.23
372.792	49.32
373.003	57.51
373.214	34.99
373.424	102.57
373.635	26.79
373.846	59.56
374.056	-20.31
374.267	-20.31
374.477	24.75
374.688	14.51
374.898	55.47
375.109	59.56
375.319	-42.84
375.53	71.85
375.74	26.79
375.951	39.08
376.161	20.65
376.372	82.09
376.582	-40.79
376.793	37.03
377.003	45.23
377.214	43.18
377.424	18.6
377.635	30.89
377.845	-22.36
378.055	47.27
378.266	37.03
378.476	67.75
378.686	-14.17
378.897	18.6
379.107	22.7
379.317	102.57
379.528	59.56
379.738	75.95
379.948	-63.32
380.158	45.23
380.369	-10.07
380.579	59.56
380.789	32.94
380.999	100.52
381.21	-5.97
381.42	86.19
381.63	2.22
381.84	28.84
382.05	24.75
382.261	45.23
382.471	-30.55
382.681	22.7
382.891	53.42
383.101	55.47
383.311	-3.93
383.521	-8.02
383.731	86.19
383.941	102.57
384.151	61.61
384.361	77.99
384.571	69.8
384.781	12.46
384.991	73.9
385.201	14.51
385.411	65.71
385.621	71.85
385.831	49.32
386.041	45.23
386.251	10.41
386.461	104.62
386.671	-5.97
386.881	61.61
387.091	8.36
387.301	20.65
387.511	133.29
387.72	6.31
387.93	53.42
388.14	45.23
388.35	49.32
388.56	88.23
388.769	98.47
388.979	10.41
389.189	86.19
389.399	57.51
389.609	32.94
389.818	118.95
390.028	28.84
390.238	49.32
390.447	106.67
390.657	32.94
390.867	63.66
391.076	28.84
391.286	67.75
391.496	75.95
391.705	77.99
391.915	41.13
392.125	98.47
392.334	108.71
392.544	59.56
392.753	39.08
392.963	41.13
393.172	61.61
393.382	100.52
393.591	123.05
393.801	37.03
394.01	59.56
394.22	80.04
394.429	53.42
394.639	47.27
394.848	67.75
395.058	75.95
395.267	65.71
395.477	65.71
395.686	104.62
395.895	77.99
396.105	69.8
396.314	86.19
396.524	43.18
396.733	88.23
396.942	49.32
397.152	106.67
397.361	75.95
397.57	116.9
397.78	98.47
397.989	73.9
398.198	102.57
398.407	43.18
398.617	127.14
398.826	69.8
399.035	86.19
399.244	121
399.453	104.62
399.663	102.57
399.872	55.47
400.081	2.22
400.29	90.28
400.499	67.75
400.708	94.38
400.917	73.9
401.127	59.56
401.336	88.23
401.545	112.81
401.754	147.62
401.963	75.95
402.172	118.95
402.381	123.05
402.59	90.28
402.799	110.76
403.008	139.43
403.217	90.28
403.426	125.1
403.635	135.34
403.844	176.3
404.053	100.52
404.262	100.52
404.471	110.76
404.68	53.42
404.888	110.76
405.097	172.2
405.306	106.67
405.515	149.67
405.724	123.05
405.933	174.25
406.142	164.01
406.35	127.14
406.559	75.95
406.768	135.34
406.977	227.5
407.185	192.68
407.394	127.14
407.603	202.92
407.812	202.92
408.02	184.49
408.229	225.45
408.438	166.06
408.646	215.21
408.855	229.54
409.064	237.74
409.272	219.3
409.481	200.87
409.69	219.3
409.898	284.84
410.107	254.12
410.315	258.21
410.524	264.36
410.733	303.27
410.941	260.26
411.15	207.02
411.358	313.51
411.567	420
411.775	317.61
411.984	358.57
412.192	352.42
412.401	374.95
412.609	493.73
412.818	409.76
413.026	467.11
413.234	530.59
413.443	520.35
413.651	456.87
413.86	555.17
414.068	573.6
414.276	551.07
414.485	589.99
414.693	553.12
414.901	651.42
415.11	626.85
415.318	583.84
415.526	555.17
415.734	708.77
415.943	647.33
416.151	729.25
416.359	676
416.567	719.01
416.776	768.16
416.984	895.13
417.192	854.17
417.4	856.22
417.608	784.54
417.817	864.41
418.025	991.39
418.233	1120.41
418.441	993.44
418.649	1013.92
418.857	1138.84
419.065	1093.79
419.273	1118.36
419.481	1175.7
419.689	1181.85
419.897	1292.44
420.105	1239.19
420.313	1353.88
420.521	1384.6
420.729	1454.23
420.937	1495.19
421.145	1480.85
421.353	1544.34
421.561	1724.56
421.769	1775.76
421.977	1818.77
422.185	1761.42
422.393	1794.19
422.601	1925.26
422.809	2035.85
423.017	1941.65
423.224	2119.82
423.432	2177.16
423.64	2168.97
423.848	2367.62
424.056	2406.53
424.263	2525.32
424.471	2558.08
424.679	2515.08
424.887	2678.91
425.094	2777.22
425.302	2705.54
425.51	2910.33
425.718	2977.92
425.925	2902.14
426.133	3125.37
426.341	3252.35
426.548	3373.18
426.756	3586.16
426.964	3645.56
427.171	3799.15
427.379	3780.72
427.586	3850.35
427.794	3917.93
428.001	4157.55
428.209	4239.47
428.417	4135.02
428.624	4477.03
428.832	4583.52
429.039	4614.24
429.247	4546.66
429.454	4948.06
429.662	5285.98
429.869	4853.86
430.076	5486.68
430.284	5210.2
430.491	5419.1
430.699	5640.28
430.906	5845.07
431.114	5902.42
431.321	5943.38
431.528	6062.16
431.736	6426.7
431.943	6785.09
432.15	6459.46
432.358	6570.05
432.565	7002.18
432.772	6957.12
432.979	7346.23
433.187	7510.07
433.394	7387.19
433.601	8181.81
433.808	8124.46
434.016	7993.39
434.223	8511.53
434.43	8861.73
434.637	8638.5
434.844	9144.35
435.052	9500.7
435.259	9369.63
435.466	9463.83
435.673	9189.41
435.88	9848.85
436.087	10186.77
436.294	10479.63
436.501	10364.94
436.708	10479.63
436.915	10860.55
437.122	11321.34
437.329	11190.27
437.537	11485.18
437.743	11747.32
437.95	11702.26
438.157	12074.99
438.364	12720.1
438.571	12498.92
438.778	12795.88
438.985	13926.36
439.192	13426.65
439.399	13768.66
439.606	13529.05
439.813	14413.77
440.02	15296.45
440.227	15085.51
440.433	14755.79
440.64	15476.67
440.847	14946.25
441.054	15437.76
441.261	16576.43
441.467	16170.93
441.674	16635.82
441.881	17342.37
442.088	17311.65
442.294	17182.63
442.501	17561.5
442.708	18057.11
442.914	18409.36
443.121	19529.6
443.328	18831.24
443.534	20385.65
443.741	19664.77
443.948	18988.94
444.154	20922.22
444.361	20805.49
444.568	20768.62
444.774	21004.14
444.981	21241.7
445.187	21663.58
445.394	22845.26
445.6	22368.09
445.807	24330.04
446.013	23564.1
446.22	23809.86
446.426	24485.69
446.633	25222.95
446.839	25763.62
447.046	24753.97
447.252	26427.16
447.459	26296.09
447.665	26038.05
447.871	27586.31
448.078	28509.94
448.284	27113.23
448.491	27606.79
448.697	28767.99
448.903	29427.43
449.11	29466.35
449.316	29155.05
449.522	29169.39
449.728	30602.97
449.935	30594.78
450.141	30686.93
450.347	31030.99
450.553	30291.68
450.76	30674.65
450.966	31739.59
451.172	31379.15
451.378	31878.85
451.584	31383.24
451.791	31919.81
451.997	32065.22
452.203	32702.14
452.409	32284.35
452.615	32560.83
452.821	31188.69
453.027	31067.86
453.233	32546.49
453.44	31237.84
453.646	31663.82
453.852	31893.19
454.058	32313.02
454.264	31624.9
454.47	32116.42
454.676	31180.49
454.882	32331.45
455.088	29542.12
455.294	29648.61
455.5	30449.37
455.705	30736.09
455.911	29503.21
456.117	28831.47
456.323	28432.12
456.529	26939.15
456.735	28096.25
456.941	27514.63
457.147	26890
457.352	26261.27
457.558	25952.03
457.764	26064.67
457.97	25511.72
458.176	24788.78
458.381	24903.47
458.587	23703.36
458.793	23805.76
458.999	22318.93
459.204	24198.97
459.41	23111.5
459.616	21704.54
459.821	21657.44
460.027	21614.43
460.233	21208.94
460.438	20313.97
460.644	20483.95
460.85	19496.83
461.055	19013.51
461.261	18990.98
461.466	17790.88
461.672	17117.09
461.878	18554.77
462.083	16865.19
462.289	16793.51
462.494	16639.92
462.7	15804.35
462.905	15497.15
463.111	16207.8
463.316	16009.14
463.522	15849.4
463.727	16129.97
463.932	15779.77
464.138	15554.49
464.343	15863.74
464.549	15153.09
464.754	15759.29
464.959	15783.87
465.165	15417.28
465.37	14743.5
465.575	14346.19
465.781	15220.67
465.986	15075.27
466.191	14639.05
466.397	14260.18
466.602	13402.08
466.807	14135.25
467.012	14208.98
467.218	14243.79
467.423	13926.36
467.628	13815.77
467.833	14507.98
468.038	13887.45
468.244	13694.94
468.449	14268.37
468.654	13617.11
468.859	13266.91
469.064	13436.89
469.269	12818.41
469.474	13137.89
469.679	13402.08
469.885	12982.24
470.09	12941.29
470.295	13109.22
470.5	12701.67
470.705	12804.07
470.91	12578.79
471.115	12664.81
471.32	12609.51
471.525	12744.68
471.73	12277.74
471.935	12281.84
472.139	11737.08
472.344	11997.17
472.549	11673.59
472.754	11720.7
472.959	11493.37
473.164	11360.25
473.369	11089.92
473.574	11245.57
473.778	11239.42
473.983	11157.5
474.188	11112.45
474.393	10629.13
474.598	10651.66
474.802	10717.19
475.007	10592.27
475.212	10637.32
475.417	10352.65
475.621	10092.56
475.826	10233.87
476.031	9934.87
476.235	9801.75
476.44	10031.12
476.645	9820.18
476.849	9885.72
477.054	9492.51
477.259	9480.22
477.463	9685.01
477.668	9236.51
477.872	9527.32
478.077	9256.99
478.282	8912.93
478.486	9099.3
478.691	8697.89
478.895	8974.37
479.1	8697.89
479.304	8841.25
479.509	8542.25
479.713	8765.48
479.918	8472.62
480.122	8265.77
480.326	8550.44
480.531	8495.15
480.735	8390.7
480.94	8245.29
481.144	8544.3
481.348	8308.78
481.553	8181.81
481.757	7991.34
481.961	8409.13
482.166	8349.74
482.37	8282.16
482.574	8187.95
482.778	8169.52
482.983	8187.95
483.187	8103.98
483.391	8235.05
483.595	8063.02
483.8	8163.37
484.004	8351.79
484.208	8327.21
484.412	8042.54
484.616	8380.46
484.821	8267.82
485.025	8108.08
485.229	8022.06
485.433	8212.53
485.637	8278.06
485.841	8146.99
486.045	7954.48
486.249	8155.18
486.453	8089.65
486.657	8202.29
486.861	8159.28
487.065	8097.84
487.269	8247.34
487.473	7890.99
487.677	8163.37
487.881	8407.08
488.085	8159.28
488.289	8157.23
488.493	8222.77
488.697	8230.96
488.901	8067.12
489.105	8185.9
489.309	8163.37
489.512	8362.03
489.716	8138.8
489.92	8071.22
490.124	8155.18
490.328	8396.84
490.531	8341.55
490.735	8302.64
490.939	8357.93
491.143	8482.86
491.346	8337.45
491.55	8372.27
491.754	8486.95
491.958	8570.92
492.161	8661.03
492.365	8716.33
492.569	8597.54
492.772	8523.82
492.976	8579.11
493.18	8734.76
493.383	8947.75
493.587	8677.41
493.79	8955.94
493.994	8853.54
494.197	8798.24
494.401	9037.86
494.605	9076.77
494.808	9238.56
495.012	9224.22
495.215	9238.56
495.419	9228.32
495.622	9381.92
495.825	9564.18
496.029	9635.86
496.232	9558.04
496.436	9631.77
496.639	9889.81
496.843	9730.07
497.046	9879.57
497.249	10207.25
497.453	10037.27
497.656	10221.58
497.859	10258.45
498.063	10283.02
498.266	10465.29
498.469	10328.08
498.673	10668.04
498.876	11020.29
499.079	10952.71
499.282	11059.2
499.485	11290.62
499.689	11098.11
499.892	11395.07
500.095	11251.71
500.298	11634.68
500.501	11567.1
500.705	11790.33
500.908	12058.61
501.111	12208.11
501.314	11960.31
501.517	12238.83
501.72	12480.49
501.923	12302.32
502.126	12740.58
502.329	12951.53
502.532	12730.34
502.735	13006.82
502.938	13570.01
503.141	13440.99
503.344	13653.98
503.547	13557.72
503.75	13715.42
503.953	14061.52
504.156	14069.72
504.359	14219.22
504.562	14241.75
504.765	14763.98
504.968	14813.13
505.17	14731.21
505.373	14942.15
505.576	15165.38
505.779	15435.71
505.982	15484.86
506.185	15884.22
506.387	15738.81
506.59	16025.53
506.793	16224.18
506.996	16144.31
507.198	16631.72
507.401	16730.03
507.604	16746.41
507.807	17127.33
508.009	17266.6
508.212	17305.51
508.415	17315.75
508.617	17588.13
508.82	17815.45
509.022	17762.2
509.225	18239.38
509.428	18354.07
509.63	18458.51
509.833	18491.28
510.035	18876.3
510.238	18694.03
510.44	19236.74
510.643	19492.74
510.845	19746.69
511.048	19763.07
511.25	19775.36
511.453	20064.12
511.655	20647.79
511.858	20578.16
512.06	20307.83
512.262	20911.98
512.465	20934.51
512.667	21385.06
512.87	21559.14
513.072	21593.95
513.274	21778.27
513.477	21970.78
513.679	22220.63
513.881	22513.49
514.084	22878.03
514.286	22953.8
514.488	23105.35
514.69	23846.72
514.893	23527.24
515.095	23816
515.297	23799.62
515.499	23955.26
515.701	24125.24
515.904	24465.21
516.106	24543.03
516.308	24622.9
516.51	25143.08
516.712	25083.69
516.914	25601.83
517.116	25958.17
517.318	25886.5
517.52	25958.17
517.722	25966.37
517.925	26314.52
518.127	27008.78
518.329	27119.37
518.531	27107.09
518.733	27524.87
518.935	27621.13
519.136	27703.04
519.338	28161.79
519.54	28190.46
519.742	28628.73
519.944	28757.75
520.146	29361.9
520.348	29208.3
520.55	29751.01
520.752	29695.72
520.954	29730.53
521.155	29515.5
521.357	30764.76
521.559	30330.59
521.761	30850.77
521.963	30914.26
522.164	30654.17
522.366	31610.57
522.568	31612.62
522.77	31563.47
522.971	32190.14
523.173	32022.21
523.375	32372.41
523.576	32310.97
523.778	32644.79
523.98	32757.43
524.181	32601.79
524.383	33285.81
524.584	33384.11
524.786	33455.79
524.988	33132.21
525.189	33855.14
525.391	33775.27
525.592	34246.3
525.794	34348.7
525.995	34320.03
526.197	34356.89
526.398	34549.4
526.6	34528.92
526.801	35237.52
527.003	35155.6
527.204	35024.53
527.406	35323.54
527.607	35479.18
527.808	35444.37
528.01	35393.17
528.211	35595.92
528.412	36120.2
528.614	36126.34
528.815	36021.89
529.016	36744.83
529.218	36275.84
529.419	36130.44
529.62	36511.36
529.822	36494.97
530.023	36400.77
530.224	36576.89
530.425	36263.55
530.626	36228.74
530.828	36544.13
531.029	37596.78
531.23	36734.59
531.431	37275.25
531.632	37033.59
531.833	37258.87
532.035	37121.65
532.236	37209.71
532.437	37523.05
532.638	37246.58
532.839	37285.49
533.04	37432.94
533.241	37068.41
533.442	37760.62
533.643	37389.94
533.844	37441.14
534.045	37457.52
534.246	37115.51
534.447	37723.76
534.648	37285.49
534.849	37754.47
535.05	37613.16
535.251	37777
535.451	37287.54
535.652	37586.54
535.853	37650.03
536.054	37641.84
536.255	37664.36
536.456	37514.86
536.657	38428.26
536.857	37445.23
537.058	37426.8
537.259	37639.79
537.46	37809.77
537.66	37672.56
537.861	37768.81
538.062	37437.04
538.263	37916.26
538.463	37207.67
538.664	37932.65
538.865	37701.23
539.065	38041.19
539.266	37342.83
539.466	38252.13
539.667	37238.39
539.868	38020.71
540.068	37891.69
540.269	37654.12
540.469	38100.58
540.67	37758.57
540.87	37359.22
541.071	37740.14
541.271	38055.53
541.472	37645.93
541.672	37275.25
541.873	37400.18
542.073	37148.28
542.274	38002.28
542.474	37316.21
542.675	37142.13
542.875	37566.06
543.075	37510.77
543.276	37037.69
543.476	37670.51
543.676	37209.71
543.877	37492.33
544.077	37269.11
544.277	37549.68
544.478	37428.85
544.678	37963.37
544.878	37371.5
545.078	37129.84
545.279	37037.69
545.479	36937.34
545.679	37297.78
545.879	37439.09
546.079	37215.86
546.28	37437.04
546.48	36933.24
546.68	37432.94
546.88	37574.25
547.08	37162.61
547.28	37183.09
547.48	36900.47
547.68	37705.32
547.88	37097.08
548.081	37312.11
548.281	37662.32
548.481	37162.61
548.681	37609.07
548.881	36923
549.081	36806.27
549.28	37361.26
549.48	37361.26
549.68	37291.63
549.88	37490.29
550.08	37222
550.28	37265.01
550.48	37066.36
550.68	37418.61
550.88	37078.64
551.08	37135.99
551.279	37250.67
551.479	36634.24
551.679	36978.29
551.879	37058.17
552.079	36953.72
552.278	36695.67
552.478	37092.98
552.678	36994.68
552.878	37244.53
553.077	37086.84
553.277	36802.17
553.477	37576.3
553.676	36689.53
553.876	37025.4
554.076	36560.51
554.275	36841.08
554.475	36247.17
554.674	37029.49
554.874	36763.26
555.074	36779.64
555.273	36908.66
555.473	36693.63
555.672	36376.19
555.872	36527.74
556.071	36406.91
556.271	36900.47
556.47	36372.1
556.67	36304.51
556.869	35972.74
557.068	36650.62
557.268	36290.18
557.467	36060.8
557.667	36497.02
557.866	36011.65
558.065	35976.84
558.265	35792.52
558.464	35952.26
558.663	36408.96
558.863	35788.42
559.062	36195.97
559.261	35694.22
559.461	36171.39
559.66	35876.49
559.859	36066.95
560.058	35661.45
560.258	35419.79
560.457	35200.66
560.656	35804.81
560.855	35409.55
561.054	35430.03
561.253	35212.95
561.453	35258
561.652	35497.61
561.851	35538.57
562.05	35346.06
562.249	34954.9
562.448	35413.65
562.647	35327.63
562.846	35057.3
563.045	35141.27
563.244	34338.46
563.443	34840.22
563.642	34252.45
563.841	34639.51
564.04	34680.47
564.239	34758.3
564.438	34152.1
564.637	34422.43
564.836	34657.95
565.035	34135.71
565.234	34231.97
565.432	34033.32
565.631	33916.58
565.83	34395.81
566.029	33992.36
566.228	33941.16
566.427	33844.9
566.625	33425.07
566.824	33273.52
567.023	33695.4
567.222	33234.61
567.42	33898.15
567.619	33238.7
567.818	33136.31
568.016	33234.61
568.215	33549.99
568.414	32937.65
568.612	33513.13
568.811	32872.12
569.01	32747.19
569.208	32440
569.407	32540.35
569.605	32534.2
569.804	32687.8
570.002	32554.68
570.201	32743.1
570.4	32392.89
570.598	32188.1
570.797	32315.07
570.995	32194.24
571.193	31725.25
571.392	32362.17
571.59	32104.13
571.789	31622.86
571.987	31928
572.186	31778.5
572.384	31385.29
572.582	31805.13
572.781	31526.6
572.979	31344.33
573.177	31401.68
573.376	31311.56
573.574	30891.73
573.772	31178.45
573.971	30918.35
574.169	30678.74
574.367	30248.67
574.565	30807.76
574.763	30705.37
574.962	30602.97
575.16	30303.96
575.358	30449.37
575.556	29880.03
575.754	30684.89
575.952	29751.01
576.151	30379.74
576.349	29953.76
576.547	30111.46
576.745	29652.71
576.943	29853.41
577.141	29961.95
577.339	29701.86
577.537	29361.9
577.735	29892.32
577.933	29427.43
578.131	29550.31
578.329	29009.65
578.527	29406.95
578.725	29347.56
578.923	29566.7
579.121	29101.81
579.319	28681.97
579.516	28876.53
579.714	29091.57
579.912	28954.35
580.11	28454.65
580.308	28585.72
580.506	28720.88
580.704	28299
580.901	28749.56
581.099	28575.48
581.297	28067.58
581.495	28495.61
581.692	28210.94
581.89	27713.28
582.088	28354.3
582.285	28079.87
582.483	28038.91
582.681	28088.06
582.878	27479.82
583.076	27473.67
583.274	27760.39
583.471	27395.85
583.669	27547.4
583.866	27234.06
584.064	27586.31
584.262	26961.68
584.459	27406.09
584.657	26832.66
584.854	27430.66
585.052	26547.99
585.249	26785.55
585.447	26877.71
585.644	26472.21
585.841	26484.5
586.039	26375.96
586.236	26591
586.434	26472.21
586.631	26283.8
586.828	26150.68
587.026	26193.69
587.223	26177.31
587.42	25997.09
587.618	26103.58
587.815	25818.91
588.012	25753.38
588.21	25399.08
588.407	25982.75
588.604	25945.89
588.801	25466.66
588.999	25603.88
589.196	25343.78
589.393	25372.46
589.59	25452.33
589.787	25448.23
589.984	25237.29
590.182	24647.47
590.379	25100.08
590.576	24710.96
590.773	25020.2
590.97	24690.48
591.167	24678.19
591.364	24508.21
591.561	24538.93
591.758	24469.3
591.955	24504.12
592.152	24581.94
592.349	24348.47
592.546	24432.44
592.743	24022.84
592.94	23891.77
593.137	24196.92
593.334	24094.52
593.531	23914.3
593.727	23611.2
593.924	24000.32
594.121	23369.54
594.318	23557.96
594.515	23478.08
594.712	23656.26
594.908	23490.37
595.105	23672.64
595.302	23146.31
595.499	23568.2
595.696	23000.91
595.892	22945.61
596.089	23281.48
596.286	22974.28
596.482	22794.06
596.679	22511.44
596.876	22959.95
597.072	22628.18
597.269	22818.64
597.466	22413.14
597.662	22468.44
597.859	22318.93
598.055	22316.89
598.252	22202.2
598.448	22138.71
598.645	21962.59
598.841	21974.88
599.038	22067.03
599.234	22267.73
599.431	21667.68
599.627	21348.2
599.824	21829.47
600.02	21448.55
600.217	21907.29
600.413	21532.51
600.609	21489.51
600.806	21485.41
601.002	21643.1
601.198	21018.47
601.395	20862.83
601.591	20946.8
601.787	21227.37
601.984	20834.16
602.18	21170.02
602.376	20828.01
602.572	20772.72
602.769	20725.61
602.965	20445.04
603.161	20756.33
603.357	20551.54
603.553	20651.89
603.75	20483.95
603.946	20442.99
604.142	20356.98
604.338	20225.91
604.534	20268.92
604.73	20092.79
604.926	20232.05
605.122	20141.94
605.318	19922.81
605.514	19750.78
605.71	20098.94
605.906	19726.21
606.102	19783.55
606.298	19904.38
606.494	19582.85
606.69	19574.66
606.886	19478.4
607.082	19160.97
607.278	19523.46
607.474	19249.03
607.67	19580.8
607.866	19224.45
608.062	19359.62
608.257	19384.19
608.453	19136.39
608.649	19562.37
608.845	19054.47
609.041	18780.04
609.236	18798.48
609.432	19130.25
609.628	19201.93
609.824	19052.42
610.019	18769.8
610.215	18999.18
610.411	18806.67
610.606	18716.56
610.802	18493.33
610.998	18382.74
611.193	18958.22
611.389	18360.21
611.584	18446.23
611.78	18474.9
611.976	18646.93
612.171	18489.23
612.367	18370.45
612.562	18491.28
612.758	18143.13
612.953	18132.89
613.149	18517.9
613.344	18161.56
613.539	18352.02
613.735	18235.28
613.93	18386.83
614.126	17969.05
614.321	18257.81
614.517	17756.06
614.712	18179.99
614.907	17803.16
615.103	18100.12
615.298	17913.75
615.493	18014.1
615.688	17569.69
615.884	18257.81
616.079	17319.84
616.274	17620.89
616.47	17670.05
616.665	17653.66
616.86	17446.82
617.055	17639.33
617.25	17278.88
617.445	17700.76
617.641	17446.82
617.836	17655.71
618.031	17147.81
618.226	17397.67
618.421	17373.09
618.616	17385.38
618.811	16813.99
619.006	17246.12
619.201	16811.95
619.396	17020.84
619.591	16660.4
619.786	16807.85
619.981	16363.44
620.176	16693.16
620.371	16289.71
620.566	16668.59
620.761	16465.84
620.956	16574.38
621.151	16273.33
621.346	16420.78
621.541	15947.7
621.735	16177.08
621.93	16064.44
622.125	16074.68
622.32	15841.21
622.515	15763.39
622.709	15675.32
622.904	15638.46
623.099	15562.69
623.294	15609.79
623.488	15247.3
623.683	15542.21
623.878	15108.04
624.072	15163.33
624.267	15226.82
624.462	15058.88
624.656	14827.46
624.851	14880.71
625.046	14782.41
625.24	14583.76
625.435	14671.82
625.629	14346.19
625.824	14249.94
626.018	14446.54
626.213	14204.88
626.407	14143.44
626.602	14139.35
626.796	14237.65
626.991	14247.89
627.185	14028.76
627.38	13580.25
627.574	13864.92
627.768	13692.89
627.963	13670.36
628.157	13514.72
628.352	13785.05
628.546	13170.66
628.74	13438.94
628.935	13264.86
629.129	13266.91
629.323	13279.2
629.517	13201.38
629.712	12849.13
629.906	12996.58
630.1	12969.96
630.294	12980.2
630.489	12703.72
630.683	12707.82
630.877	12617.71
631.071	12466.16
631.265	12486.64
631.459	12410.86
631.653	12109.81
631.848	12449.77
632.042	12013.56
632.236	12240.88
632.43	12154.87
632.624	12011.51
632.818	11982.84
633.012	11782.13
633.206	11872.25
633.4	11937.78
633.594	11651.06
633.788	11505.66
633.982	11720.7
634.176	11532.28
634.369	11450.36
634.563	11573.24
634.757	11399.16
634.951	11642.87
635.145	11227.14
635.339	11284.48
635.533	11022.34
635.726	11098.11
635.92	10866.69
636.114	10897.41
636.308	10827.78
636.501	10897.41
636.695	10737.67
636.889	10670.09
637.083	10752.01
637.276	10772.49
637.47	10561.55
637.664	10586.12
637.857	10416.14
638.051	10524.68
638.244	10356.75
638.438	10182.67
638.632	10205.2
638.825	10209.29
639.019	10221.58
639.212	10039.31
639.406	10020.88
639.599	10092.56
639.793	9977.87
639.986	9764.89
640.18	9895.96
640.373	9713.69
640.567	9611.29
640.76	9732.12
640.954	9455.64
641.147	9623.58
641.34	9340.96
641.534	9607.19
641.727	9422.87
641.92	9361.44
642.114	9185.31
642.307	9316.38
642.5	9031.71
642.694	9103.39
642.887	9123.87
643.08	9127.97
643.273	9058.34
643.467	9054.24
643.66	8976.42
643.853	8886.31
644.046	8763.43
644.239	8812.58
644.432	8624.17
644.626	8740.9
644.819	8583.21
645.012	8732.71
645.205	8482.86
645.398	8503.34
645.591	8296.49
645.784	8534.06
645.977	8171.57
646.17	8276.01
646.363	8378.41
646.556	8284.2
646.749	8026.16
646.942	8110.13
647.135	8011.82
647.328	8128.56
647.521	7989.3
647.714	8001.58
647.907	7991.34
648.099	7899.19
648.292	7890.99
648.485	7831.6
648.678	7913.52
648.871	7735.35
649.064	7424.06
649.256	7612.47
649.449	7516.22
649.642	7581.75
649.835	7501.88
650.027	7581.75
650.22	7401.53
650.413	7620.66
650.605	7325.75
650.798	7471.16
650.991	7159.87
651.183	7401.53
651.376	7047.23
651.568	7194.68
651.761	7051.33
651.954	7096.38
652.146	7032.9
652.339	6934.59
652.531	7022.66
652.724	7014.46
652.916	7000.13
653.109	6836.29
653.301	6836.29
653.494	6826.05
653.686	6672.45
653.879	6799.43
654.071	6789.19
654.263	6643.78
654.456	6617.16
654.648	6686.79
654.84	6715.46
655.033	6586.44
655.225	6426.7
655.417	6514.76
655.61	6502.47
655.802	6473.8
655.994	6361.16
656.186	6570.05
656.379	6320.2
656.571	6246.48
656.763	6182.99
656.955	6056.01
657.148	6234.19
657.34	6262.86
657.532	6058.06
657.724	6094.93
657.916	5963.86
658.108	5996.62
658.3	5953.62
658.492	6099.02
658.684	5898.32
658.876	5937.23
659.068	5886.03
659.26	5881.94
659.452	5984.34
659.644	6080.59
659.836	5793.87
660.028	5783.63
660.22	5619.8
660.412	5605.46
660.604	5490.77
660.796	5673.04
660.988	5642.32
661.18	5587.03
661.372	5644.37
661.563	5484.63
661.755	5369.94
661.947	5595.22
662.139	5402.71
662.331	5279.83
662.522	5376.09
662.714	5310.55
662.906	5333.08
663.097	5468.25
663.289	5234.78
663.481	5273.69
663.673	5171.29
663.864	5075.04
664.056	5011.55
664.247	5103.71
664.439	5052.51
664.631	5046.37
664.822	5058.65
665.014	4970.59
665.205	5087.33
665.397	5011.55
665.588	5027.93
665.78	4788.32
665.971	4898.91
666.163	4974.69
666.354	5007.45
666.546	4927.58
666.737	4896.86
666.929	4786.27
667.12	4810.85
667.311	4835.42
667.503	4706.4
667.694	4778.08
667.885	4679.78
668.077	4726.88
668.268	4608.1
668.459	4765.79
668.651	4667.49
668.842	4724.83
669.033	4655.2
669.224	4634.72
669.416	4730.98
669.607	4530.28
669.798	4489.32
669.989	4526.18
670.18	4503.65
670.371	4552.81
670.563	4497.51
670.754	4401.26
670.945	4485.22
671.136	4466.79
671.327	4399.21
671.518	4345.96
671.709	4343.91
671.9	4335.72
672.091	4382.82
672.282	4274.28
672.473	4116.59
672.664	4348.01
672.855	4253.8
673.046	4372.58
673.237	4311.14
673.428	4257.9
673.619	4401.26
673.809	4264.04
674	4112.49
674.191	4157.55
674.382	4106.35
674.573	4159.6
674.764	4120.68
674.954	4083.82
675.145	4032.62
675.336	4053.1
675.527	4051.05
675.717	4114.54
675.908	4018.29
676.099	4132.97
676.289	4018.29
676.48	3936.37
676.671	3903.6
676.861	4055.15
677.052	3889.26
677.243	3936.37
677.433	3944.56
677.624	4055.15
677.814	3979.37
678.005	4046.96
678.195	4124.78
678.386	3938.41
678.576	3924.08
678.767	3919.98
678.957	4006
679.148	3956.85
679.338	3901.55
679.529	3809.39
679.719	3770.48
679.909	4008.05
680.1	3854.45
680.29	3934.32
680.481	3780.72
680.671	3897.46
680.861	3938.41
681.052	3766.39
681.242	3807.34
681.432	3790.96
681.622	3670.13
681.813	3735.67
682.003	3750
682.193	3709.04
682.383	3833.97
682.573	3805.3
682.764	3817.58
682.954	3854.45
683.144	3780.72
683.334	3649.65
683.524	3686.51
683.714	3762.29
683.904	3618.93
684.094	3645.56
684.284	3649.65
684.474	3606.64
684.664	3706.99
684.854	3651.7
685.044	3678.32
685.234	3633.27
685.424	3487.86
685.614	3477.62
685.804	3541.11
685.994	3561.59
686.184	3545.2
686.374	3479.67
686.564	3543.16
686.753	3530.87
686.943	3399.8
687.133	3414.13
687.323	3483.77
687.513	3356.79
687.702	3438.71
687.892	3522.68
688.082	3479.67
688.272	3506.29
688.461	3428.47
688.651	3410.04
688.841	3330.17
689.03	3340.41
689.22	3317.88
689.41	3258.49
689.599	3289.21
689.789	3383.42
689.979	3289.21
690.168	3254.39
690.358	3164.28
690.547	3238.01
690.737	3238.01
690.926	3145.85
691.116	3143.8
691.305	3346.55
691.495	3102.84
691.684	3164.28
691.874	3025.02
692.063	3147.9
692.252	3213.43
692.442	3166.33
692.631	3141.75
692.82	3025.02
693.01	2908.29
693.199	3106.94
693.388	3041.4
693.578	3053.69
693.767	2971.77
693.956	3004.54
694.146	2973.82
694.335	2979.97
694.524	2889.85
694.713	2939.01
694.902	2957.44
695.092	2873.47
695.281	2936.96
695.47	2877.57
695.659	2848.9
695.848	2912.38
696.037	2932.86
696.226	2785.41
696.415	2803.84
696.604	2846.85
696.793	2766.98
696.982	2801.79
697.171	2756.74
697.36	2877.57
697.549	2820.22
697.738	2826.37
697.927	2750.59
698.116	2707.59
698.305	2947.2
698.494	2728.07
698.683	2754.69
698.872	2910.33
699.061	2732.16
699.25	2801.79
699.438	2812.03
699.627	2816.13
699.816	2785.41
700.005	2779.26
700.193	2830.46
700.382	2744.45
700.571	2666.63
700.76	2734.21
700.948	2728.07
701.137	2801.79
701.326	2832.51
701.514	2838.66
701.703	2756.74
701.892	2844.8
702.08	2803.84
702.269	2748.54
702.457	2744.45
702.646	2680.96
702.834	2603.14
703.023	2670.72
703.212	2801.79
703.4	2709.63
703.589	2662.53
703.777	2793.6
703.965	2697.35
704.154	2680.96
704.342	2758.78
704.531	2617.47
704.719	2746.5
704.907	2545.8
705.096	2723.97
705.284	2672.77
705.472	2680.96
705.661	2689.15
705.849	2723.97
706.037	2736.26
706.226	2683.01
706.414	2603.14
706.602	2777.22
706.79	2705.54
706.979	2676.87
707.167	2553.99
707.355	2746.5
707.543	2750.59
707.731	2699.39
707.919	2556.04
708.107	2787.46
708.296	2566.28
708.484	2680.96
708.672	2603.14
708.86	2609.28
709.048	2656.39
709.236	2701.44
709.424	2762.88
709.612	2683.01
709.8	2695.3
709.988	2691.2
710.176	2584.71
710.364	2707.59
710.551	2652.29
710.739	2658.43
710.927	2717.83
711.115	2637.95
711.303	2619.52
711.491	2728.07
711.679	2723.97
711.866	2664.58
712.054	2728.07
712.242	2629.76
712.43	2711.68
712.617	2672.77
712.805	2650.24
712.993	2680.96
713.181	2736.26
713.368	2633.86
713.556	2719.87
713.744	2699.39
713.931	2613.38
714.119	2801.79
714.306	2721.92
714.494	2734.21
714.682	2758.78
714.869	2625.67
715.057	2721.92
715.244	2713.73
715.432	2668.67
715.619	2650.24
715.807	2793.6
715.994	2764.93
716.182	2635.91
716.369	2775.17
716.556	2605.19
716.744	2695.3
716.931	2707.59
717.119	2820.22
717.306	2699.39
717.493	2691.2
717.681	2701.44
717.868	2824.32
718.055	2824.32
718.242	2740.35
718.43	2758.78
718.617	2635.91
718.804	2769.02
718.991	2721.92
719.179	2760.83
719.366	2685.06
719.553	2621.57
719.74	2640
719.927	2721.92
720.114	2633.86
720.301	2691.2
720.488	2625.67
720.676	2715.78
720.863	2785.41
721.05	2793.6
721.237	2752.64
721.424	2730.11
721.611	2703.49
721.798	2736.26
721.985	2697.35
722.172	2652.29
722.358	2662.53
722.545	2758.78
722.732	2717.83
722.919	2750.59
723.106	2799.74
723.293	2773.12
723.48	2717.83
723.667	2783.36
723.853	2683.01
724.04	2766.98
724.227	2764.93
724.414	2709.63
724.6	2584.71
724.787	2820.22
724.974	2779.26
725.161	2717.83
725.347	2680.96
725.534	2730.11
725.72	2812.03
725.907	2695.3
726.094	2726.02
726.28	2738.3
726.467	2787.46
726.653	2756.74
726.84	2746.5
727.027	2723.97
727.213	2736.26
727.4	2709.63
727.586	2680.96
727.773	2723.97
727.959	2683.01
728.145	2781.31
728.332	2732.16
728.518	2820.22
728.705	2676.87
728.891	2687.11
729.077	2758.78
729.264	2541.7
729.45	2732.16
729.636	2631.81
729.823	2750.59
730.009	2726.02
730.195	2758.78
730.382	2799.74
730.568	2678.91
730.754	2734.21
730.94	2789.5
731.126	2648.19
731.313	2703.49
731.499	2709.63
731.685	2760.83
731.871	2666.63
732.057	2627.71
732.243	2764.93
732.429	2711.68
732.615	2687.11
732.801	2726.02
732.987	2723.97
733.173	2689.15
733.359	2648.19
733.545	2791.55
733.731	2640
733.917	2781.31
734.103	2627.71
734.289	2803.84
734.475	2816.13
734.661	2744.45
734.847	2664.58
735.033	2668.67
735.219	2611.33
735.404	2775.17
735.59	2752.64
735.776	2777.22
735.962	2676.87
736.148	2672.77
736.333	2597
736.519	2648.19
736.705	2621.57
736.89	2687.11
737.076	2615.43
737.262	2502.79
737.447	2693.25
737.633	2547.84
737.819	2664.58
738.004	2615.43
738.19	2504.84
738.375	2635.91
738.561	2754.69
738.747	2680.96
738.932	2529.41
739.118	2652.29
739.303	2605.19
739.489	2558.08
739.674	2531.46
739.859	2590.85
740.045	2457.73
740.23	2482.31
740.416	2603.14
740.601	2568.32
740.786	2330.76
740.972	2478.21
741.157	2533.51
741.342	2515.08
741.528	2603.14
741.713	2556.04
741.898	2459.78
742.084	2449.54
742.269	2390.15
742.454	2461.83
742.639	2525.32
742.824	2427.01
743.01	2431.11
743.195	2445.45
743.38	2312.33
743.565	2427.01
743.75	2435.21
743.935	2308.23
744.12	2459.78
744.305	2308.23
744.49	2246.79
744.675	2386.05
744.86	2273.42
745.045	2285.7
745.23	2291.85
745.415	2248.84
745.6	2427.01
745.785	2357.38
745.97	2304.14
746.155	2281.61
746.34	2254.98
746.525	2224.26
746.71	2207.88
746.895	2148.49
747.079	2187.4
747.264	2076.81
747.449	2263.18
747.634	2166.92
747.819	2136.2
748.003	2082.95
748.188	2181.26
748.373	2142.35
748.557	2091.15
748.742	2089.1
748.927	2087.05
749.111	2115.72
749.296	2056.33
749.481	2117.77
749.665	2025.61
749.85	1904.78
750.034	1958.03
750.219	2035.85
750.404	2042
750.588	1964.17
750.773	1933.45
750.957	1917.07
751.141	1966.22
751.326	1992.84
751.51	1855.63
751.695	2011.28
751.879	1865.87
752.064	1865.87
752.248	1812.62
752.432	1853.58
752.617	1792.14
752.801	1761.42
752.985	1831.05
753.17	1816.72
753.354	1736.85
753.538	1747.09
753.722	1712.27
753.907	1685.65
754.091	1665.17
754.275	1691.79
754.459	1730.7
754.643	1661.07
754.828	1669.27
755.012	1603.73
755.196	1624.21
755.38	1593.49
755.564	1583.25
755.748	1663.12
755.932	1636.5
756.116	1530
756.3	1581.2
756.484	1587.35
756.668	1532.05
756.852	1482.9
757.036	1601.68
757.22	1577.11
757.404	1482.9
757.588	1583.25
757.772	1470.61
757.956	1472.66
758.14	1378.45
758.323	1413.27
758.507	1403.03
758.691	1411.22
758.875	1382.55
759.059	1370.26
759.242	1464.47
759.426	1388.69
759.61	1349.78
759.794	1431.7
759.977	1374.36
760.161	1355.93
760.345	1366.17
760.528	1384.6
760.712	1321.11
760.895	1380.5
761.079	1347.73
761.263	1274.01
761.446	1241.24
761.63	1255.58
761.813	1306.77
761.997	1171.61
762.18	1249.43
762.364	1253.53
762.547	1231
762.731	1206.42
762.914	1192.09
763.098	1140.89
763.281	1222.81
763.464	1173.66
763.648	1210.52
763.831	1288.34
764.015	1169.56
764.198	1095.83
764.381	1157.27
764.564	1226.9
764.748	1132.7
764.931	1280.15
765.114	1157.27
765.297	1276.06
765.481	1110.17
765.664	1220.76
765.847	1241.24
766.03	1091.74
766.213	1194.14
766.397	1140.89
766.58	1095.83
766.763	1159.32
766.946	1134.75
767.129	1112.22
767.312	1063.07
767.495	1155.23
767.678	1120.41
767.861	1022.11
768.044	1050.78
768.227	1063.07
768.41	1099.93
768.593	1050.78
768.776	1024.16
768.959	1079.45
769.142	1075.35
769.324	1036.44
769.507	1003.68
769.69	954.52
769.873	1022.11
770.056	1120.41
770.239	991.39
770.421	1077.4
770.604	1005.72
770.787	1095.83
770.97	940.19
771.152	985.24
771.335	1095.83
771.518	927.9
771.7	1050.78
771.883	1003.68
772.066	919.71
772.248	897.18
772.431	946.33
772.613	952.48
772.796	893.09
772.978	954.52
773.161	970.91
773.343	925.85
773.526	968.86
773.708	940.19
773.891	993.44
774.073	895.13
774.256	901.28
774.438	901.28
774.621	911.52
774.803	940.19
774.985	911.52
775.168	827.55
775.35	831.65
775.532	741.54
775.715	876.7
775.897	864.41
776.079	764.06
776.261	819.36
776.444	786.59
776.626	743.58
776.808	788.64
776.99	759.97
777.173	778.4
777.355	790.69
777.537	829.6
777.719	794.78
777.901	782.49
778.083	735.39
778.265	696.48
778.447	790.69
778.629	798.88
778.811	684.19
778.993	731.3
779.175	678.05
779.357	719.01
779.539	686.24
779.721	651.42
779.903	645.28
780.085	694.43
780.267	684.19
780.449	704.67
780.631	735.39
780.812	737.44
780.994	637.09
781.176	641.18
781.358	604.32
781.54	630.95
781.721	600.23
781.903	555.17
782.085	573.6
782.267	616.61
782.448	587.94
782.63	561.31
782.812	645.28
782.993	571.55
783.175	565.41
783.357	600.23
783.538	583.84
783.72	563.36
783.901	632.99
784.083	551.07
784.264	614.56
784.446	563.36
784.627	475.3
784.809	606.37
784.99	456.87
785.172	536.74
785.353	565.41
785.535	493.73
785.716	446.63
785.897	497.83
786.079	503.97
786.26	518.31
786.441	471.2
786.623	518.31
786.804	411.81
786.985	528.55
787.167	489.64
787.348	399.52
787.529	405.67
787.71	538.79
787.891	567.46
788.073	530.59
788.254	456.87
788.435	465.06
788.616	495.78
788.797	477.35
788.978	401.57
789.159	516.26
789.34	448.68
789.522	438.44
789.703	448.68
789.884	436.39
790.065	344.23
790.246	463.01
790.427	413.86
790.607	440.48
790.788	448.68
790.969	399.52
791.15	411.81
791.331	325.8
791.512	395.43
791.693	352.42
791.874	442.53
792.054	440.48
792.235	446.63
792.416	415.91
792.597	315.56
792.778	374.95
792.958	385.19
793.139	303.27
793.32	307.37
793.5	293.03
793.681	374.95
793.862	362.66
794.042	338.09
794.223	295.08
794.404	362.66
794.584	389.28
794.765	307.37
794.945	354.47
795.126	405.67
795.306	385.19
795.487	389.28
795.667	370.85
795.848	311.46
796.028	319.65
796.209	299.17
796.389	272.55
796.57	381.09
796.75	288.93
796.93	333.99
797.111	243.88
797.291	243.88
797.471	379.04
797.652	252.07
797.832	323.75
798.012	333.99
798.192	278.69
798.373	264.36
798.553	301.22
798.733	327.85
798.913	352.42
799.093	256.17
799.274	252.07
799.454	301.22
799.634	268.45
799.814	254.12
799.994	233.64
800.174	305.32
800.354	301.22
800.534	272.55
800.714	264.36
800.894	313.51
801.074	317.61
801.254	260.26
801.434	278.69
801.614	297.13
801.794	260.26
801.974	612.51
802.154	276.65
802.334	204.97
802.514	270.5
802.693	295.08
802.873	204.97
803.053	299.17
803.233	243.88
803.413	252.07
803.592	256.17
803.772	202.92
803.952	166.06
804.131	278.69
804.311	260.26
804.491	256.17
804.67	262.31
804.85	284.84
805.03	243.88
805.209	213.16
805.389	233.64
805.568	264.36
805.748	209.06
805.928	266.41
806.107	250.02
806.287	231.59
806.466	123.05
806.646	317.61
806.825	254.12
807.004	209.06
807.184	231.59
807.363	225.45
807.543	231.59
807.722	299.17
807.901	227.5
808.081	245.93
808.26	147.62
808.439	166.06
808.619	192.68
808.798	207.02
808.977	213.16
809.156	127.14
809.336	211.11
809.515	223.4
809.694	168.1
809.873	159.91
810.052	194.73
810.231	194.73
810.411	264.36
810.59	164.01
810.769	231.59
810.948	178.34
811.127	153.77
811.306	221.35
811.485	174.25
811.664	176.3
811.843	190.63
812.022	135.34
812.201	170.15
812.38	190.63
812.559	145.58
812.737	241.83
812.916	178.34
813.095	94.38
813.274	184.49
813.453	151.72
813.632	153.77
813.811	170.15
813.989	161.96
814.168	184.49
814.347	204.97
814.526	174.25
814.704	139.43
814.883	168.1
815.062	90.28
815.24	243.88
815.419	133.29
815.598	190.63
815.776	47.27
815.955	141.48
816.133	57.51
816.312	172.2
816.49	131.24
816.669	170.15
816.847	176.3
817.026	223.4
817.204	168.1
817.383	88.23
817.561	194.73
817.74	170.15
817.918	127.14
818.097	149.67
818.275	112.81
818.453	147.62
818.632	145.58
818.81	149.67
818.988	153.77
819.167	108.71
819.345	102.57
819.523	164.01
819.701	145.58
819.879	215.21
820.058	145.58
820.236	151.72
820.414	153.77
820.592	116.9
820.77	88.23
820.948	178.34
821.127	129.19
821.305	71.85
821.483	112.81
821.661	196.78
821.839	178.34
822.017	106.67
822.195	125.1
822.373	137.38
822.551	172.2
822.729	125.1
822.907	139.43
823.085	141.48
823.262	37.03
823.44	116.9
823.618	139.43
823.796	131.24
823.974	45.23
824.152	112.81
824.329	94.38
824.507	80.04
824.685	96.43
824.863	127.14
825.04	131.24
825.218	155.82
825.396	102.57
825.574	92.33
825.751	110.76
825.929	129.19
826.107	59.56
826.284	51.37
826.462	164.01
826.639	82.09
826.817	71.85
826.994	69.8
827.172	127.14
827.349	141.48
827.527	90.28
827.704	96.43
827.882	104.62
828.059	53.42
828.237	96.43
828.414	121
828.591	18.6
828.769	133.29
828.946	-3.93
829.124	141.48
829.301	172.2
829.478	100.52
829.655	102.57
829.833	114.86
830.01	96.43
830.187	39.08
830.364	77.99
830.542	129.19
830.719	100.52
830.896	143.53
831.073	92.33
831.25	59.56
831.427	170.15
831.604	118.95
831.782	61.61
831.959	161.96
832.136	53.42
832.313	59.56
832.49	100.52
832.667	0.17
832.844	71.85
833.021	104.62
833.198	2.22
833.374	10.41
833.551	135.34
833.728	65.71
833.905	43.18
834.082	53.42
834.259	145.58
834.436	143.53
834.612	94.38
834.789	110.76
834.966	202.92
835.143	90.28
835.319	37.03
835.496	67.75
835.673	73.9
835.85	112.81
836.026	116.9
836.203	102.57
836.38	80.04
836.556	49.32
836.733	59.56
836.909	159.91
837.086	32.94
837.262	53.42
837.439	59.56
837.616	37.03
837.792	20.65
837.968	30.89
838.145	59.56
838.321	96.43
838.498	6.31
838.674	94.38
838.851	71.85
839.027	14.51
839.203	123.05
839.38	77.99
839.556	67.75
839.732	43.18
839.909	37.03
840.085	147.62
840.261	26.79
840.437	55.47
840.614	86.19
840.79	30.89
840.966	-20.31
841.142	73.9
841.318	57.51
841.494	84.14
841.671	65.71
841.847	84.14
842.023	-24.4
842.199	6.31
842.375	129.19
842.551	37.03
842.727	108.71
842.903	102.57
843.079	-1.88
843.255	63.66
843.431	51.37
843.607	47.27
843.783	26.79
843.959	71.85
844.134	55.47
844.31	57.51
844.486	39.08
844.662	59.56
844.838	30.89
845.013	92.33
845.189	53.42
845.365	37.03
845.541	37.03
845.716	57.51
845.892	65.71
846.068	65.71
846.244	24.75
846.419	86.19
846.595	67.75
846.77	59.56
846.946	112.81
847.122	39.08
847.297	-61.27
847.473	118.95
847.648	67.75
847.824	-22.36
847.999	100.52
848.175	108.71
848.35	172.2
848.526	67.75
848.701	32.94
848.876	71.85
849.052	-8.02
849.227	-8.02
849.403	57.51
849.578	90.28
849.753	69.8
849.929	96.43
850.104	14.51
850.279	45.23
850.454	55.47
850.63	39.08
850.805	104.62
850.98	57.51
851.155	43.18
851.33	73.9
851.505	16.55
851.681	63.66
851.856	55.47
852.031	45.23
852.206	2.22
852.381	37.03
852.556	47.27
852.731	129.19
852.906	47.27
853.081	59.56
853.256	102.57
853.431	55.47
853.606	24.75
853.781	37.03
853.956	12.46
854.131	47.27
854.305	-20.31
854.48	47.27
854.655	8.36
854.83	53.42
855.005	116.9
855.18	53.42
855.354	55.47
855.529	61.61
855.704	75.95
855.879	47.27
856.053	39.08
856.228	-40.79
856.403	49.32
856.577	10.41
856.752	6.31
856.926	8.36
857.101	-18.26
857.276	65.71
857.45	57.51
857.625	47.27
857.799	37.03
857.974	47.27
858.148	20.65
858.323	41.13
858.497	61.61
858.672	0.17
858.846	8.36
859.02	67.75
859.195	-5.97
859.369	32.94
859.543	98.47
859.718	12.46
859.892	-8.02
860.066	12.46
860.241	59.56
860.415	20.65
860.589	0.17
860.763	18.6
860.938	18.6
861.112	57.51
861.286	57.51
861.46	24.75
861.634	-8.02
861.808	-10.07
861.982	47.27
862.157	22.7
862.331	22.7
862.505	67.75
862.679	55.47
862.853	45.23
863.027	6.31
863.201	65.71
863.375	-32.6
863.549	69.8
863.722	88.23
863.896	4.27
864.07	45.23
864.244	-12.12
864.418	26.79
864.592	6.31
864.766	43.18
864.939	82.09
865.113	26.79
865.287	20.65
865.461	-57.17
865.634	178.34
865.808	47.27
865.982	-8.02
866.156	-10.07
866.329	30.89
866.503	-1.88
866.676	37.03
866.85	61.61
867.024	39.08
867.197	8.36
867.371	69.8
867.544	57.51
867.718	22.7
867.891	34.99
868.065	-12.12
868.238	18.6
868.412	41.13
868.585	-3.93
868.759	-73.56
868.932	-18.26
869.105	-12.12
869.279	-14.17
869.452	-1.88
869.625	77.99
869.799	39.08
869.972	-38.74
870.145	-44.88
870.319	22.7
870.492	45.23
870.665	-48.98
870.838	2.22
871.011	8.36
871.185	6.31
871.358	26.79
871.531	-5.97
871.704	-1.88
871.877	18.6
872.05	8.36
872.223	-28.5
872.396	37.03
872.569	28.84
872.742	-22.36
872.915	-1.88
873.088	24.75
873.261	24.75
873.434	28.84
873.607	10.41
873.78	80.04
873.953	24.75
874.126	-14.17
874.299	39.08
874.471	49.32
874.644	20.65
874.817	57.51
874.99	61.61
875.163	30.89
875.335	24.75
875.508	55.47
875.681	73.9
875.853	49.32
876.026	43.18
876.199	6.31
876.371	-59.22
876.544	-28.5
876.717	4.27
876.889	-12.12
877.062	18.6
877.234	-34.64
877.407	12.46
877.579	-5.97
877.752	77.99
877.924	-10.07
878.097	12.46
878.269	20.65
878.442	49.32
878.614	37.03
878.786	43.18
878.959	26.79
879.131	16.55
879.303	-16.21
879.476	-32.6
879.648	34.99
879.82	16.55
879.993	73.9
880.165	10.41
880.337	43.18
880.509	53.42
880.681	32.94
880.854	-22.36
881.026	34.99
881.198	45.23
881.37	2.22
881.542	24.75
881.714	-51.03
881.886	4.27
882.058	6.31
882.23	43.18
882.402	4.27
882.574	59.56
882.746	-18.26
882.918	34.99
883.09	-20.31
883.262	-14.17
883.434	-32.6
883.606	61.61
883.778	-98.13
883.95	4.27
884.122	45.23
884.293	34.99
884.465	45.23
884.637	34.99
884.809	-53.08
884.98	39.08
885.152	14.51
885.324	47.27
885.496	-1.88
885.667	28.84
885.839	-10.07
886.011	24.75
886.182	-16.21
886.354	10.41
886.525	16.55
886.697	51.37
886.869	-8.02
887.04	34.99
887.212	61.61
887.383	-1.88
887.555	-10.07
887.726	59.56
887.897	12.46
888.069	-59.22
888.24	-16.21
888.412	14.51
888.583	4.27
888.754	14.51
888.926	-32.6
889.097	39.08
889.268	-5.97
889.44	30.89
889.611	28.84
889.782	30.89
889.953	0.17
890.125	8.36
890.296	4.27
890.467	-30.55
890.638	-16.21
890.809	-18.26
890.98	16.55
891.151	-10.07
891.323	67.75
891.494	12.46
891.665	-28.5
891.836	24.75
892.007	90.28
892.178	41.13
892.349	-1.88
892.52	32.94
892.691	45.23
892.862	0.17
893.032	-14.17
893.203	-16.21
893.374	28.84
893.545	39.08
893.716	-69.46
893.887	47.27
894.057	-30.55
894.228	49.32
894.399	-34.64
894.57	59.56
894.74	-34.64
894.911	0.17
895.082	10.41
895.253	-3.93
895.423	-89.94
895.594	37.03
895.764	39.08
895.935	41.13
896.106	30.89
896.276	-30.55
896.447	6.31
896.617	-38.74
896.788	-12.12
896.958	-14.17
897.129	6.31
897.299	59.56
897.47	32.94
897.64	-20.31
897.81	57.51
897.981	39.08
898.151	10.41
898.322	47.27
898.492	18.6
898.662	-12.12
898.832	-30.55
899.003	45.23
899.173	2.22
899.343	20.65
899.513	-32.6
