Data from USB4F104151__1__12-55-13-447.txt Node

Date: Wed Feb 19 12:55:13 EST 2025
User: louis
Spectrometer: USB4F10415
Trigger mode: 4
Integration Time (sec): 2.500000E-1
Scans to average: 1
Electric dark correction enabled: true
Nonlinearity correction enabled: false
Boxcar width: 0
XAxis mode: Wavelengths
Number of Pixels in Spectrum: 3648
>>>>>Begin Spectral Data<<<<<
178.204	-681.63
178.424	-681.63
178.644	-681.63
178.864	-620.19
179.084	-751.26
179.304	65.88
179.524	51.54
179.744	-11.95
179.964	-136.87
180.184	151.89
180.404	141.65
180.624	-175.78
180.844	-77.48
181.064	37.2
181.283	57.68
181.503	-50.86
181.723	-52.91
181.943	-38.57
182.163	354.64
182.383	-130.73
182.602	-97.96
182.822	237.91
183.042	231.76
183.262	-73.39
183.482	-52.91
183.701	182.61
183.921	217.43
184.141	-151.21
184.361	-40.62
184.58	219.47
184.8	149.84
185.02	-159.4
185.239	61.78
185.459	233.81
185.679	356.69
185.898	-186.02
186.118	-181.93
186.338	149.84
186.557	242
186.777	-128.68
186.997	-50.86
187.216	119.12
187.436	475.47
187.655	-16.04
187.875	115.03
188.095	176.47
188.314	291.15
188.534	86.36
188.753	-126.63
188.973	289.1
189.192	346.45
189.412	-83.63
189.631	-59.05
189.851	235.86
190.07	315.73
190.29	-93.87
190.509	-97.96
190.729	119.12
190.948	330.06
191.168	29.01
191.387	-44.71
191.607	86.36
191.826	272.72
192.045	-38.57
192.265	-46.76
192.484	266.58
192.704	57.68
192.923	-67.24
193.142	35.16
193.362	250.19
193.581	274.77
193.8	26.96
194.02	16.73
194.239	282.96
194.458	207.19
194.678	-75.43
194.897	-116.39
195.116	151.89
195.335	180.56
195.555	-18.09
195.774	-128.68
195.993	330.06
196.212	102.74
196.432	-40.62
196.651	-118.44
196.87	115.03
197.089	551.24
197.308	-44.71
197.528	-34.47
197.747	10.58
197.966	129.36
198.185	35.16
198.404	-93.87
198.623	287.06
198.842	287.06
199.062	55.64
199.281	-30.38
199.5	188.75
199.719	186.71
199.938	-30.38
200.157	12.63
200.376	246.1
200.595	309.58
200.814	33.11
201.033	-100.01
201.252	319.82
201.471	164.18
201.69	-93.87
201.909	-112.3
202.128	299.34
202.347	285.01
202.566	-50.86
202.785	-167.59
203.004	-24.23
203.223	561.48
203.442	37.2
203.661	-192.17
203.879	207.19
204.098	280.91
204.317	-110.25
204.536	24.92
204.755	213.33
204.974	336.21
205.193	-206.5
205.411	-20.14
205.63	321.87
205.849	160.08
206.068	-122.54
206.287	-147.11
206.505	414.03
206.724	133.46
206.943	-110.25
207.162	-71.34
207.381	229.71
207.599	98.64
207.818	20.82
208.037	-104.11
208.255	168.27
208.474	164.18
208.693	-79.53
208.911	-114.34
209.13	270.67
209.349	194.9
209.567	47.44
209.786	-32.43
210.005	235.86
210.223	131.41
210.442	-210.6
210.661	-87.72
210.879	192.85
211.098	110.93
211.316	10.58
211.535	-50.86
211.753	151.89
211.972	186.71
212.191	-120.49
212.409	-52.91
212.628	143.7
212.846	117.08
213.065	-106.15
213.283	14.68
213.502	168.27
213.72	176.47
213.938	-87.72
214.157	-89.77
214.375	348.5
214.594	74.07
214.812	24.92
215.031	-165.54
215.249	149.84
215.467	98.64
215.686	18.77
215.904	-75.43
216.122	192.85
216.341	291.15
216.559	-1.71
216.778	16.73
216.996	323.92
217.214	-16.04
217.432	24.92
217.651	-130.73
217.869	74.07
218.087	160.08
218.306	-153.26
218.524	-67.24
218.742	184.66
218.96	250.19
219.179	-102.06
219.397	-36.52
219.615	487.76
219.833	182.61
220.051	-110.25
220.27	-26.28
220.488	346.45
220.706	266.58
220.924	-181.93
221.142	-91.82
221.36	209.23
221.578	207.19
221.796	-57
222.015	-34.47
222.233	188.75
222.451	321.87
222.669	-52.91
222.887	49.49
223.105	119.12
223.323	86.36
223.541	-122.54
223.759	51.54
223.977	115.03
224.195	377.17
224.413	-34.47
224.631	-118.44
224.849	211.28
225.067	457.04
225.285	-28.33
225.503	-18.09
225.721	-59.05
225.939	119.12
226.157	0.34
226.375	115.03
226.592	72.02
226.81	121.17
227.028	106.84
227.246	35.16
227.464	178.51
227.682	166.23
227.9	-18.09
228.117	6.49
228.335	205.14
228.553	217.43
228.771	-143.02
228.989	-44.71
229.206	242
229.424	141.65
229.642	-67.24
229.86	-28.33
230.077	287.06
230.295	112.98
230.513	18.77
230.731	-11.95
230.948	409.94
231.166	305.49
231.384	8.53
231.601	-95.91
231.819	452.94
232.037	76.12
232.254	29.01
232.472	-11.95
232.689	104.79
232.907	276.82
233.125	-147.11
233.342	-36.52
233.56	31.06
233.777	151.89
233.995	45.4
234.213	33.11
234.43	250.19
234.648	112.98
234.865	-54.95
235.083	110.93
235.3	180.56
235.518	239.95
235.735	-3.75
235.953	-16.04
236.17	192.85
236.388	29.01
236.605	53.59
236.822	88.4
237.04	201.04
237.257	190.8
237.475	-38.57
237.692	-126.63
237.909	201.04
238.127	49.49
238.344	35.16
238.562	-69.29
238.779	29.01
238.996	-22.19
239.214	-32.43
239.431	22.87
239.648	129.36
239.865	276.82
240.083	-24.23
240.3	-89.77
240.517	145.75
240.735	139.6
240.952	174.42
241.169	-61.1
241.386	301.39
241.603	203.09
241.821	-130.73
242.038	12.63
242.255	270.67
242.472	-18.09
242.689	82.26
242.907	-40.62
243.124	119.12
243.341	131.41
243.558	57.68
243.775	-77.48
243.992	-61.1
244.209	207.19
244.426	82.26
244.643	2.39
244.86	172.37
245.078	239.95
245.295	69.97
245.512	-85.67
245.729	233.81
245.946	215.38
246.163	-32.43
246.38	-5.8
246.597	151.89
246.814	223.57
247.031	-3.75
247.248	-104.11
247.464	237.91
247.681	188.75
247.898	18.77
248.115	-73.39
248.332	37.2
248.549	282.96
248.766	139.6
248.983	16.73
249.2	295.25
249.417	201.04
249.633	-77.48
249.85	88.4
250.067	151.89
250.284	147.8
250.501	6.49
250.717	-42.67
250.934	6.49
251.151	94.55
251.368	-50.86
251.585	14.68
251.801	201.04
252.018	-104.11
252.235	108.88
252.451	-75.43
252.668	141.65
252.885	323.92
253.102	45.4
253.318	-102.06
253.535	78.16
253.752	37.2
253.968	-112.3
254.185	-106.15
254.401	233.81
254.618	158.03
254.835	35.16
255.051	80.21
255.268	227.67
255.484	231.76
255.701	12.63
255.917	29.01
256.134	84.31
256.351	158.03
256.567	-102.06
256.784	-79.53
257	-46.76
257.217	262.48
257.433	74.07
257.65	8.53
257.866	260.43
258.082	-5.8
258.299	-40.62
258.515	53.59
258.732	29.01
258.948	47.44
259.165	63.83
259.381	-167.59
259.597	256.34
259.814	151.89
260.03	-77.48
260.246	-44.71
260.463	289.1
260.679	272.72
260.895	43.35
261.112	29.01
261.328	102.74
261.544	-7.85
261.761	-5.8
261.977	-13.99
262.193	112.98
262.409	229.71
262.626	76.12
262.842	37.2
263.058	61.78
263.274	209.23
263.49	20.82
263.707	-16.04
263.923	258.39
264.139	-52.91
264.355	16.73
264.571	72.02
264.787	219.47
265.004	260.43
265.22	55.64
265.436	-71.34
265.652	164.18
265.868	162.13
266.084	-20.14
266.3	4.44
266.516	41.3
266.732	141.65
266.948	22.87
267.164	-71.34
267.38	289.1
267.596	174.42
267.812	151.89
268.028	-18.09
268.244	168.27
268.46	227.67
268.676	-30.38
268.892	102.74
269.108	43.35
269.324	29.01
269.54	-36.52
269.756	147.8
269.972	6.49
270.188	90.45
270.403	-69.29
270.619	-5.8
270.835	149.84
271.051	112.98
271.267	-100.01
271.483	-114.34
271.698	315.73
271.914	178.51
272.13	-30.38
272.346	47.44
272.562	176.47
272.777	285.01
272.993	10.58
273.209	-20.14
273.425	231.76
273.64	22.87
273.856	-7.85
274.072	-196.26
274.287	96.6
274.503	242
274.719	131.41
274.934	-69.29
275.15	14.68
275.366	151.89
275.581	-22.19
275.797	86.36
276.012	149.84
276.228	59.73
276.444	59.73
276.659	182.61
276.875	4.44
277.09	121.17
277.306	-24.23
277.521	65.88
277.737	121.17
277.952	233.81
278.168	18.77
278.383	-9.9
278.599	149.84
278.814	231.76
279.03	-22.19
279.245	172.37
279.461	203.09
279.676	178.51
279.892	2.39
280.107	-85.67
280.322	63.83
280.538	225.62
280.753	-57
280.969	-50.86
281.184	168.27
281.399	305.49
281.615	55.64
281.83	135.51
282.045	-28.33
282.26	35.16
282.476	82.26
282.691	217.43
282.906	100.69
283.122	51.54
283.337	-28.33
283.552	53.59
283.767	117.08
283.983	225.62
284.198	119.12
284.413	-5.8
284.628	8.53
284.843	225.62
285.058	57.68
285.274	22.87
285.489	82.26
285.704	270.67
285.919	12.63
286.134	18.77
286.349	131.41
286.564	29.01
286.779	100.69
286.995	-7.85
287.21	2.39
287.425	69.97
287.64	61.78
287.855	139.6
288.07	117.08
288.285	233.81
288.5	141.65
288.715	86.36
288.93	143.7
289.145	57.68
289.36	90.45
289.575	51.54
289.79	237.91
290.004	33.11
290.219	100.69
290.434	-26.28
290.649	49.49
290.864	121.17
291.079	41.3
291.294	143.7
291.509	151.89
291.724	119.12
291.938	43.35
292.153	-24.23
292.368	121.17
292.583	264.53
292.798	41.3
293.012	131.41
293.227	223.57
293.442	45.4
293.657	82.26
293.871	158.03
294.086	151.89
294.301	364.88
294.516	170.32
294.73	106.84
294.945	59.73
295.16	133.46
295.374	110.93
295.589	141.65
295.804	61.78
296.018	108.88
296.233	69.97
296.447	96.6
296.662	117.08
296.877	266.58
297.091	45.4
297.306	41.3
297.52	115.03
297.735	184.66
297.949	78.16
298.164	12.63
298.378	143.7
298.593	6.49
298.807	-3.75
299.022	76.12
299.236	373.07
299.451	61.78
299.665	72.02
299.88	131.41
300.094	178.51
300.309	145.75
300.523	39.25
300.737	69.97
300.952	182.61
301.166	205.14
301.381	43.35
301.595	45.4
301.809	160.08
302.024	88.4
302.238	18.77
302.452	188.75
302.667	127.32
302.881	334.16
303.095	98.64
303.309	100.69
303.524	84.31
303.738	160.08
303.952	-22.19
304.166	94.55
304.381	-134.82
304.595	285.01
304.809	20.82
305.023	24.92
305.237	53.59
305.452	117.08
305.666	51.54
305.88	117.08
306.094	289.1
306.308	151.89
306.522	8.53
306.736	162.13
306.95	260.43
307.164	115.03
307.379	127.32
307.593	188.75
307.807	313.68
308.021	201.04
308.235	143.7
308.449	-38.57
308.663	207.19
308.877	454.99
309.091	69.97
309.305	207.19
309.519	-52.91
309.733	297.3
309.947	-11.95
310.161	-1.71
310.374	178.51
310.588	373.07
310.802	-42.67
311.016	-3.75
311.23	201.04
311.444	88.4
311.658	82.26
311.872	213.33
312.085	268.63
312.299	340.3
312.513	235.86
312.727	2.39
312.941	78.16
313.154	188.75
313.368	98.64
313.582	37.2
313.796	78.16
314.009	139.6
314.223	270.67
314.437	158.03
314.651	242
314.864	115.03
315.078	35.16
315.292	-48.81
315.505	86.36
315.719	209.23
315.933	190.8
316.146	47.44
316.36	74.07
316.573	315.73
316.787	201.04
317.001	84.31
317.214	14.68
317.428	201.04
317.641	-5.8
317.855	43.35
318.068	143.7
318.282	164.18
318.495	258.39
318.709	76.12
318.922	57.68
319.136	317.78
319.349	137.56
319.563	74.07
319.776	196.95
319.99	26.96
320.203	100.69
320.417	59.73
320.63	188.75
320.843	340.3
321.057	125.27
321.27	67.92
321.483	147.8
321.697	190.8
321.91	8.53
322.124	145.75
322.337	192.85
322.55	29.01
322.763	61.78
322.977	18.77
323.19	82.26
323.403	61.78
323.617	123.22
323.83	223.57
324.043	121.17
324.256	135.51
324.469	-71.34
324.683	190.8
324.896	162.13
325.109	127.32
325.322	-5.8
325.535	69.97
325.748	198.99
325.962	94.55
326.175	24.92
326.388	82.26
326.601	237.91
326.814	2.39
327.027	110.93
327.24	198.99
327.453	-20.14
327.666	190.8
327.879	196.95
328.092	131.41
328.305	176.47
328.518	43.35
328.731	45.4
328.944	65.88
329.157	162.13
329.37	53.59
329.583	256.34
329.796	192.85
330.009	6.49
330.222	250.19
330.435	233.81
330.648	82.26
330.861	217.43
331.073	192.85
331.286	155.99
331.499	129.36
331.712	90.45
331.925	149.84
332.138	88.4
332.35	141.65
332.563	88.4
332.776	250.19
332.989	61.78
333.202	53.59
333.414	90.45
333.627	196.95
333.84	53.59
334.053	151.89
334.265	168.27
334.478	139.6
334.691	65.88
334.903	155.99
335.116	51.54
335.329	102.74
335.541	162.13
335.754	315.73
335.966	137.56
336.179	233.81
336.392	141.65
336.604	22.87
336.817	209.23
337.029	198.99
337.242	-46.76
337.454	110.93
337.667	151.89
337.88	223.57
338.092	155.99
338.305	192.85
338.517	-11.95
338.729	266.58
338.942	135.51
339.154	67.92
339.367	78.16
339.579	221.52
339.792	0.34
340.004	104.79
340.217	256.34
340.429	201.04
340.641	16.73
340.854	20.82
341.066	143.7
341.278	244.05
341.491	231.76
341.703	-13.99
341.915	10.58
342.128	192.85
342.34	65.88
342.552	57.68
342.764	86.36
342.977	82.26
343.189	135.51
343.401	147.8
343.613	-3.75
343.826	172.37
344.038	14.68
344.25	190.8
344.462	151.89
344.674	172.37
344.886	55.64
345.099	63.83
345.311	176.47
345.523	108.88
345.735	-20.14
345.947	153.94
346.159	221.52
346.371	207.19
346.583	20.82
346.795	164.18
347.007	86.36
347.219	211.28
347.431	61.78
347.643	201.04
347.855	59.73
348.067	250.19
348.279	-28.33
348.491	57.68
348.703	270.67
348.915	90.45
349.127	86.36
349.339	86.36
349.551	102.74
349.763	274.77
349.975	65.88
350.187	180.56
350.399	270.67
350.61	178.51
350.822	76.12
351.034	88.4
351.246	317.78
351.458	201.04
351.669	139.6
351.881	41.3
352.093	264.53
352.305	172.37
352.517	61.78
352.728	131.41
352.94	160.08
353.152	201.04
353.363	-36.52
353.575	82.26
353.787	373.07
353.999	213.33
354.21	246.1
354.422	-110.25
354.633	127.32
354.845	180.56
355.057	90.45
355.268	76.12
355.48	285.01
355.692	-24.23
355.903	53.59
356.115	33.11
356.326	61.78
356.538	313.68
356.749	4.44
356.961	282.96
357.172	168.27
357.384	59.73
357.595	330.06
357.807	57.68
358.018	76.12
358.23	139.6
358.441	151.89
358.653	82.26
358.864	205.14
359.075	100.69
359.287	147.8
359.498	145.75
359.709	262.48
359.921	201.04
360.132	137.56
360.344	0.34
360.555	94.55
360.766	151.89
360.977	100.69
361.189	182.61
361.4	131.41
361.611	356.69
361.823	176.47
362.034	160.08
362.245	-32.43
362.456	135.51
362.667	246.1
362.879	-1.71
363.09	215.38
363.301	182.61
363.512	78.16
363.723	57.68
363.935	82.26
364.146	291.15
364.357	37.2
364.568	49.49
364.779	24.92
364.99	299.34
365.201	65.88
365.412	229.71
365.623	-5.8
365.834	180.56
366.045	166.23
366.256	90.45
366.467	221.52
366.678	153.94
366.889	129.36
367.1	-57
367.311	242
367.522	184.66
367.733	127.32
367.944	153.94
368.155	10.58
368.366	172.37
368.577	135.51
368.788	125.27
368.999	110.93
369.209	178.51
369.42	168.27
369.631	387.41
369.842	217.43
370.053	98.64
370.264	170.32
370.474	16.73
370.685	164.18
370.896	102.74
371.107	125.27
371.317	59.73
371.528	160.08
371.739	293.2
371.95	153.94
372.16	98.64
372.371	53.59
372.582	141.65
372.792	108.88
373.003	98.64
373.214	264.53
373.424	170.32
373.635	53.59
373.846	209.23
374.056	221.52
374.267	209.23
374.477	184.66
374.688	29.01
374.898	256.34
375.109	186.71
375.319	125.27
375.53	131.41
375.74	270.67
375.951	137.56
376.161	170.32
376.372	96.6
376.582	51.54
376.793	196.95
377.003	61.78
377.214	29.01
377.424	246.1
377.635	229.71
377.845	18.77
378.055	227.67
378.266	53.59
378.476	158.03
378.686	108.88
378.897	61.78
379.107	282.96
379.317	295.25
379.528	45.4
379.738	174.42
379.948	49.49
380.158	242
380.369	160.08
380.579	166.23
380.789	219.47
380.999	282.96
381.21	182.61
381.42	254.29
381.63	133.46
381.84	258.39
382.05	155.99
382.261	256.34
382.471	307.54
382.681	115.03
382.891	133.46
383.101	174.42
383.311	41.3
383.521	153.94
383.731	106.84
383.941	168.27
384.151	158.03
384.361	33.11
384.571	78.16
384.781	86.36
384.991	364.88
385.201	315.73
385.411	172.37
385.621	65.88
385.831	166.23
386.041	235.86
386.251	108.88
386.461	188.75
386.671	239.95
386.881	192.85
387.091	61.78
387.301	237.91
387.511	201.04
387.72	170.32
387.93	160.08
388.14	-63.15
388.35	153.94
388.56	256.34
388.769	168.27
388.979	53.59
389.189	131.41
389.399	172.37
389.609	147.8
389.818	221.52
390.028	135.51
390.238	190.8
390.447	37.2
390.657	82.26
390.867	108.88
391.076	-57
391.286	72.02
391.496	94.55
391.705	90.45
391.915	393.55
392.125	166.23
392.334	55.64
392.544	356.69
392.753	151.89
392.963	49.49
393.172	155.99
393.382	125.27
393.591	323.92
393.801	59.73
394.01	153.94
394.22	293.2
394.429	201.04
394.639	8.53
394.848	78.16
395.058	172.37
395.267	190.8
395.477	203.09
395.686	219.47
395.895	459.09
396.105	381.26
396.314	104.79
396.524	59.73
396.733	151.89
396.942	287.06
397.152	172.37
397.361	282.96
397.57	184.66
397.78	176.47
397.989	198.99
398.198	328.02
398.407	192.85
398.617	160.08
398.826	182.61
399.035	22.87
399.244	287.06
399.453	217.43
399.663	102.74
399.872	26.96
400.081	82.26
400.29	311.63
400.499	-22.19
400.708	201.04
400.917	176.47
401.127	135.51
401.336	69.97
401.545	280.91
401.754	315.73
401.963	297.3
402.172	102.74
402.381	10.58
402.59	176.47
402.799	139.6
403.008	196.95
403.217	147.8
403.426	180.56
403.635	69.97
403.844	61.78
404.053	55.64
404.262	147.8
404.471	434.51
404.68	127.32
404.888	133.46
405.097	162.13
405.306	162.13
405.515	192.85
405.724	117.08
405.933	225.62
406.142	282.96
406.35	194.9
406.559	133.46
406.768	254.29
406.977	377.17
407.185	160.08
407.394	274.77
407.603	61.78
407.812	178.51
408.02	231.76
408.229	235.86
408.438	149.84
408.646	55.64
408.855	123.22
409.064	155.99
409.272	209.23
409.481	274.77
409.69	51.54
409.898	80.21
410.107	291.15
410.315	385.36
410.524	201.04
410.733	258.39
410.941	340.3
411.15	389.46
411.358	237.91
411.567	379.22
411.775	209.23
411.984	252.24
412.192	258.39
412.401	190.8
412.609	549.2
412.818	405.84
413.026	278.87
413.234	205.14
413.443	387.41
413.651	364.88
413.86	178.51
414.068	426.32
414.276	602.44
414.485	340.3
414.693	389.46
414.901	504.14
415.11	368.98
415.318	354.64
415.526	411.98
415.734	356.69
415.943	448.85
416.151	614.73
416.359	348.5
416.567	422.22
416.776	512.33
416.984	586.06
417.192	504.14
417.4	346.45
417.608	360.78
417.817	440.65
418.025	618.83
418.233	612.68
418.441	471.37
418.649	411.98
418.857	657.74
419.065	696.65
419.273	487.76
419.481	688.46
419.689	616.78
419.897	592.2
420.105	545.1
420.313	864.58
420.521	786.76
420.729	801.1
420.937	739.66
421.145	643.4
421.353	848.2
421.561	864.58
421.769	1012.04
421.977	848.2
422.185	954.69
422.393	934.22
422.601	1020.23
422.809	921.93
423.017	1005.89
423.224	997.7
423.432	1216.83
423.64	1167.68
423.848	1179.97
424.056	1036.61
424.263	1345.86
424.471	1171.78
424.679	1390.91
424.887	1177.92
425.094	1546.56
425.302	1550.65
425.51	1417.54
425.718	1470.78
425.925	1501.5
426.133	1470.78
426.341	1767.74
426.548	1661.24
426.756	1663.29
426.964	1743.16
427.171	1716.54
427.379	1886.52
427.586	1970.49
427.794	2109.75
428.001	2021.69
428.209	2117.94
428.417	2435.38
428.624	2408.75
428.832	2271.54
429.039	2277.68
429.247	2326.83
429.454	2679.08
429.662	2765.1
429.869	2652.46
430.076	2844.97
430.284	2744.62
430.491	3051.81
430.699	3092.77
430.906	3363.11
431.114	3236.13
431.321	3295.52
431.528	3264.8
431.736	3608.86
431.943	3848.47
432.15	3633.44
432.358	3596.57
432.565	4059.42
432.772	3684.64
432.979	4362.51
433.187	4102.42
433.394	4456.72
433.601	4407.57
433.808	4614.41
434.016	4608.27
434.223	4874.51
434.43	5138.69
434.637	4976.91
434.844	5579.01
435.052	5775.61
435.259	5689.6
435.466	5652.74
435.673	5613.82
435.88	6045.95
436.087	6600.94
436.294	6695.15
436.501	6365.43
436.708	6637.81
436.915	7000.3
437.122	7323.88
437.329	7065.83
437.537	7545.06
437.743	7647.46
437.95	7573.73
438.157	8014.04
438.364	8364.25
438.571	8564.95
438.778	8679.63
438.985	9476.29
439.192	9060.56
439.399	9513.16
439.606	9029.84
439.813	10076.35
440.02	10584.24
440.227	10592.44
440.433	10236.09
440.64	10817.71
440.847	10750.13
441.054	10983.6
441.261	11862.18
441.467	11634.85
441.674	11853.98
441.881	12398.74
442.088	12402.84
442.294	12437.66
442.501	12787.86
442.708	13136.01
442.914	13592.71
443.121	14233.72
443.328	14174.33
443.534	14985.33
443.741	14497.91
443.948	14657.65
444.154	15446.12
444.361	15685.73
444.568	15921.25
444.774	16011.36
444.981	16017.5
445.187	17082.45
445.394	17694.79
445.6	17305.68
445.807	19419.18
446.013	18399.29
446.22	18495.55
446.426	19789.86
446.633	20183.07
446.839	20791.32
447.046	19781.67
447.252	21690.38
447.459	21585.93
447.665	21905.42
447.871	22595.58
448.078	24020.97
448.284	23140.34
448.491	24020.97
448.697	25497.55
448.903	25851.85
449.11	26142.66
449.316	25913.29
449.522	27041.72
449.728	27682.73
449.935	28100.52
450.141	28608.42
450.347	29845.39
450.553	28972.96
450.76	29910.92
450.966	31188.86
451.172	31561.59
451.378	32632.68
451.584	32487.27
451.791	33847.12
451.997	34430.79
452.203	35301.18
452.409	35749.68
452.615	36345.64
452.821	35829.55
453.027	35807.03
453.233	38895.36
453.44	37895.96
453.646	38856.45
453.852	39767.8
454.058	41051.87
454.264	40929
454.47	42589.9
454.676	42256.08
454.882	44428.98
455.088	41965.27
455.294	42700.49
455.5	44455.6
455.705	45371.04
455.911	45084.33
456.117	44662.44
456.323	44990.12
456.529	43171.52
456.735	45958.81
456.941	45504.16
457.147	45889.18
457.352	45029.03
457.558	45700.76
457.764	46440.08
457.97	45971.1
458.176	45913.75
458.381	46980.74
458.587	45291.17
458.793	45588.13
458.999	44302
459.204	47920.76
459.41	47087.24
459.616	45479.58
459.821	45784.73
460.027	45508.25
460.233	45688.48
460.438	43998.9
460.644	44809.9
460.85	43767.48
461.055	43196.1
461.261	43067.08
461.466	40785.64
461.672	40064.75
461.878	42768.07
462.083	40695.53
462.289	39933.68
462.494	39634.68
462.7	38778.63
462.905	37277.47
463.111	39010.05
463.316	38915.84
463.522	38405.9
463.727	38043.41
463.932	38127.38
464.138	38057.74
464.343	37887.76
464.549	36853.54
464.754	38246.16
464.959	38031.12
465.165	37304.09
465.37	35784.5
465.575	34936.64
465.781	36732.71
465.986	36456.23
466.191	35141.44
466.397	34715.46
466.602	33505.11
466.807	34348.87
467.012	34670.4
467.218	34887.49
467.423	34113.36
467.628	34625.35
467.833	35850.03
468.038	35049.28
468.244	34182.99
468.449	35559.22
468.654	34666.31
468.859	34336.59
469.064	34506.57
469.269	33486.68
469.474	34137.93
469.679	35168.06
469.885	33970
470.09	34615.11
470.295	34862.91
470.5	33871.7
470.705	34606.92
470.91	33888.08
471.115	34320.2
471.32	35147.58
471.525	35440.44
471.73	34525
471.935	34565.96
472.139	34115.4
472.344	34627.4
472.549	34805.57
472.754	34840.39
472.959	34434.89
473.164	33621.84
473.369	33926.99
473.574	34967.36
473.778	34629.44
473.983	34942.78
474.188	35039.04
474.393	33970
474.598	34606.92
474.802	34385.74
475.007	33982.29
475.212	34912.06
475.417	33429.34
475.621	33724.24
475.826	34056.01
476.031	33388.38
476.235	33480.53
476.44	33890.13
476.645	33445.72
476.849	33488.73
477.054	33560.41
477.259	33103.71
477.463	33529.69
477.668	33011.55
477.872	33613.65
478.077	33165.15
478.282	32364.39
478.486	32659.3
478.691	32831.33
478.895	32679.78
479.1	33042.27
479.304	32831.33
479.509	32448.36
479.713	33206.11
479.918	32520.04
480.122	32044.91
480.326	32663.39
480.531	32466.79
480.735	32335.72
480.94	32679.78
481.144	33310.55
481.348	32182.12
481.553	32118.64
481.757	31682.42
481.961	32538.47
482.166	32782.18
482.37	32800.61
482.574	31819.63
482.778	31924.08
482.983	32827.23
483.187	32526.18
483.391	33111.9
483.595	32227.18
483.8	32272.23
484.004	33011.55
484.208	32900.96
484.412	32833.38
484.616	33369.94
484.821	33183.58
485.025	32540.52
485.229	33857.36
485.433	33705.81
485.637	33757.01
485.841	33093.47
486.045	33187.67
486.249	33793.87
486.453	33582.93
486.657	33744.72
486.861	34086.73
487.065	33161.05
487.269	33711.95
487.473	33847.12
487.677	34590.53
487.881	34967.36
488.085	34371.4
488.289	34727.75
488.493	34836.29
488.697	35430.2
488.901	35153.72
489.105	35338.04
489.309	35800.88
489.512	35563.32
489.716	35989.3
489.92	36218.67
490.124	35817.27
490.328	36706.09
490.531	36112.17
490.735	36577.06
490.939	36316.97
491.143	36632.36
491.346	36579.11
491.55	37412.63
491.754	37107.49
491.958	37545.75
492.161	37080.86
492.365	36937.51
492.569	37054.24
492.772	36386.6
492.976	37605.14
493.18	37543.7
493.383	37566.23
493.587	37594.9
493.79	37736.21
493.994	36779.81
494.197	37510.94
494.401	38027.03
494.605	37388.06
494.808	38233.87
495.012	38399.76
495.215	37967.63
495.419	38156.05
495.622	37975.83
495.825	38594.31
496.029	38147.86
496.232	38797.06
496.436	38483.72
496.639	38969.09
496.843	38717.19
497.046	39257.85
497.249	39390.97
497.453	39065.35
497.656	39300.86
497.859	39130.88
498.063	39280.38
498.266	39339.77
498.469	38807.3
498.673	39417.6
498.876	39411.45
499.079	39911.16
499.282	39390.97
499.485	40081.14
499.689	40085.23
499.892	40244.98
500.095	40335.09
500.298	40586.99
500.501	39782.13
500.705	40613.61
500.908	40787.69
501.111	40388.33
501.314	40638.19
501.517	40511.21
501.72	40802.02
501.923	40261.36
502.126	40873.7
502.329	40750.82
502.532	40810.21
502.735	40339.18
502.938	40865.51
503.141	40799.97
503.344	40849.13
503.547	40832.74
503.75	40605.42
503.953	41055.97
504.156	41400.03
504.359	40924.9
504.562	41055.97
504.765	41979.6
504.968	41963.22
505.17	42202.83
505.373	41795.29
505.576	42671.82
505.779	42208.98
505.982	41989.84
506.185	42557.13
506.387	42104.53
506.59	42483.41
506.793	43003.59
506.996	41688.79
507.198	43239.11
507.401	42401.49
507.604	42702.54
507.807	42739.4
508.009	42835.66
508.212	42354.38
508.415	42757.83
508.617	42714.83
508.82	42421.97
509.022	42039
509.225	43275.97
509.428	43142.85
509.63	43177.67
509.833	43124.42
510.035	43493.05
510.238	43005.64
510.44	43484.86
510.643	43810.49
510.845	43857.59
511.048	43062.98
511.25	43595.45
511.453	43769.53
511.655	44471.98
511.858	44062.39
512.06	43867.83
512.262	43796.15
512.465	43914.94
512.667	44455.6
512.87	44650.16
513.072	44504.75
513.274	44932.78
513.477	44555.95
513.679	44832.43
513.881	44922.54
514.084	44951.21
514.286	44949.16
514.488	44963.5
514.69	45555.36
514.893	45637.28
515.095	45291.17
515.297	45809.31
515.499	45391.52
515.701	45209.25
515.904	45518.49
516.106	45717.15
516.308	46235.28
516.51	46395.03
516.712	45702.81
516.914	45915.8
517.116	46294.67
517.318	45627.04
517.52	45991.58
517.722	45637.28
517.925	45899.42
518.127	46542.48
518.329	46386.83
518.531	45790.87
518.733	46778
518.935	46778
519.136	46247.57
519.338	46597.77
519.54	46468.75
519.742	46816.91
519.944	46659.21
520.146	47077
520.348	46888.59
520.55	46966.41
520.752	46866.06
520.954	47765.12
521.155	47263.36
521.357	47636.09
521.559	47623.81
521.761	48273.01
521.963	48019.06
522.164	48307.83
522.366	48094.84
522.568	48381.56
522.77	48191.09
522.971	49190.5
523.173	48543.34
523.375	48758.38
523.576	47967.87
523.778	48236.15
523.98	48739.95
524.181	49202.79
524.383	48830.06
524.584	49389.16
524.786	48633.46
524.988	49073.77
525.189	49137.26
525.391	48897.64
525.592	48842.35
525.794	49084.01
525.995	48604.78
526.197	48877.16
526.398	48989.8
526.6	49034.86
526.801	48858.73
527.003	49108.58
527.204	48604.78
527.406	48866.92
527.607	48932.46
527.808	49237.61
528.01	47638.14
528.211	48535.15
528.412	48977.51
528.614	48531.06
528.815	48680.56
529.016	49135.21
529.218	47978.11
529.419	48565.87
529.62	48250.49
529.822	48068.22
530.023	48363.12
530.224	48461.43
530.425	48369.27
530.626	48404.08
530.828	47953.53
531.029	48901.74
531.23	48823.92
531.431	48752.24
531.632	49456.74
531.833	49649.25
532.035	49634.91
532.236	49290.85
532.437	49512.03
532.638	49708.64
532.839	49847.9
533.04	50071.13
533.241	49446.5
533.442	50288.21
533.643	49649.25
533.844	49346.15
534.045	49190.5
534.246	48739.95
534.447	48569.97
534.648	48825.96
534.849	48754.29
535.05	48375.41
535.251	48334.45
535.451	48346.74
535.652	48117.37
535.853	48217.72
536.054	48082.55
536.255	48498.29
536.456	48135.8
536.657	48754.29
536.857	47998.58
537.058	48199.29
537.259	47965.82
537.46	47756.92
537.66	47300.23
537.861	47816.32
538.062	47462.02
538.263	47658.62
538.463	47122.05
538.664	47163.01
538.865	46952.07
539.065	47333
539.266	46958.22
539.466	47117.96
539.667	46382.74
539.868	47449.73
540.068	46593.68
540.269	46472.85
540.469	47404.67
540.67	46522
540.87	47052.42
541.071	46790.28
541.271	47027.85
541.472	47478.4
541.672	46798.48
541.873	46720.65
542.073	46614.16
542.274	47906.43
542.474	47511.17
542.675	47414.91
542.875	48256.63
543.075	48307.83
543.276	48666.22
543.476	49409.64
543.676	49432.16
543.877	49243.75
544.077	49411.68
544.277	49489.51
544.478	49370.72
544.678	49487.46
544.878	49202.79
545.078	49319.52
545.279	48367.22
545.479	48346.74
545.679	48342.64
545.879	47830.65
546.079	47752.83
546.28	47216.26
546.48	47040.14
546.68	47457.92
546.88	47017.61
547.08	46919.31
547.28	46798.48
547.48	46032.53
547.68	46102.17
547.88	45848.22
548.081	46177.94
548.281	45680.28
548.481	45543.07
548.681	46089.88
548.881	45835.93
549.081	46118.55
549.28	45749.92
549.48	46030.49
549.68	45520.54
549.88	46216.85
550.08	45979.29
550.28	46214.8
550.48	46554.77
550.68	47077
550.88	46610.06
551.08	46691.98
551.279	47355.52
551.479	47265.41
551.679	47953.53
551.879	47998.58
552.079	48350.84
552.278	47898.23
552.478	48627.31
552.678	48346.74
552.878	48621.17
553.077	48526.96
553.277	48010.87
553.477	48707.18
553.676	48389.75
553.876	48297.59
554.076	48199.29
554.275	48191.09
554.475	47945.34
554.674	48551.54
554.874	47941.24
555.074	47617.66
555.273	47683.2
555.473	47998.58
555.672	47824.51
555.872	46898.83
556.071	47298.18
556.271	47449.73
556.47	46876.3
556.67	46282.39
556.869	46857.87
557.068	46474.9
557.268	46648.97
557.467	46227.09
557.667	46634.64
557.866	46728.84
558.065	46452.37
558.265	46210.71
558.464	45706.91
558.663	46550.67
558.863	45995.67
559.062	46589.58
559.261	45727.39
559.461	47140.49
559.66	45706.91
559.859	46081.69
560.058	45909.66
560.258	46528.14
560.457	46270.1
560.656	47074.95
560.855	46814.86
561.054	47101.57
561.253	47199.88
561.453	47507.07
561.652	47306.37
561.851	47562.37
562.05	46923.4
562.249	47130.25
562.448	47447.68
562.647	47117.96
562.846	47382.15
563.045	47642.24
563.244	46405.27
563.443	47175.3
563.642	46782.09
563.841	47052.42
564.04	46855.82
564.239	46780.04
564.438	46642.83
564.637	47421.06
564.836	46970.5
565.035	46818.95
565.234	47068.81
565.432	46759.56
565.631	46945.93
565.83	46642.83
566.029	46808.72
566.228	46966.41
566.427	46610.06
566.625	46403.22
566.824	46046.87
567.023	46691.98
567.222	45567.65
567.42	46489.23
567.619	46323.35
567.818	46474.9
568.016	46560.91
568.215	46708.36
568.414	46495.38
568.612	46577.29
568.811	46341.78
569.01	46790.28
569.208	45950.62
569.407	46845.58
569.605	46028.44
569.804	46478.99
570.002	46038.68
570.201	46782.09
570.4	46102.17
570.598	46435.98
570.797	46134.93
570.995	45946.52
571.193	45745.82
571.392	46579.34
571.59	46083.73
571.789	46069.4
571.987	46171.8
572.186	46595.73
572.384	45807.26
572.582	46298.77
572.781	46216.85
572.979	45641.37
573.177	46110.36
573.376	45919.9
573.574	45581.98
573.772	46102.17
573.971	45352.61
574.169	45577.89
574.367	45663.9
574.565	46048.92
574.763	45670.04
574.962	45835.93
575.16	45672.09
575.358	46204.56
575.556	45231.78
575.754	46429.84
575.952	44996.26
576.151	45905.56
576.349	45393.57
576.547	45534.88
576.745	45905.56
576.943	45823.64
577.141	45407.9
577.339	45733.53
577.537	45342.37
577.735	45864.6
577.933	45481.63
578.131	45999.77
578.329	45944.47
578.527	45522.59
578.725	45481.63
578.923	45784.73
579.121	45412
579.319	45205.16
579.516	45692.57
579.714	45627.04
579.912	45368.99
580.11	45092.52
580.308	45211.3
580.506	45569.69
580.704	44668.59
580.901	45799.07
581.099	46007.96
581.297	45330.08
581.495	45137.57
581.692	45831.83
581.89	45575.84
582.088	45823.64
582.285	45448.86
582.483	45860.51
582.681	45549.21
582.878	45086.37
583.076	44791.47
583.274	45209.25
583.471	44727.98
583.669	45448.86
583.866	44646.06
584.064	44981.93
584.262	44314.29
584.459	44834.47
584.657	44394.16
584.854	45037.22
585.052	44215.99
585.249	45233.83
585.447	44822.19
585.644	44775.08
585.841	44586.67
586.039	45303.46
586.236	45029.03
586.434	45334.18
586.631	44998.31
586.828	45082.28
587.026	44857
587.223	44535.47
587.42	44521.13
587.618	45559.45
587.815	45024.93
588.012	44590.76
588.21	44676.78
588.407	45299.36
588.604	44691.12
588.801	44922.54
588.999	44922.54
589.196	44979.88
589.393	44660.4
589.59	44721.83
589.787	44601
589.984	44603.05
590.182	44361.39
590.379	45287.07
590.576	44496.56
590.773	44852.9
590.97	44390.06
591.167	44811.95
591.364	44306.1
591.561	44541.61
591.758	44385.97
591.955	45039.27
592.152	45149.86
592.349	44766.89
592.546	44455.6
592.743	44422.83
592.94	43759.29
593.137	44238.51
593.334	44306.1
593.531	44013.24
593.727	44471.98
593.924	44750.51
594.121	44152.5
594.318	44719.79
594.515	43939.51
594.712	44842.67
594.908	44367.54
595.105	44668.59
595.302	44084.92
595.499	44220.08
595.696	44185.27
595.892	43800.25
596.089	44328.62
596.286	44783.27
596.482	44775.08
596.679	43927.22
596.876	44355.25
597.072	44375.73
597.269	44580.53
597.466	44740.27
597.662	44299.95
597.859	44521.13
598.055	44455.6
598.252	44392.11
598.448	44588.72
598.645	44498.61
598.841	44226.23
599.038	44750.51
599.234	44605.1
599.431	44531.37
599.627	44664.49
599.824	45082.28
600.02	44695.21
600.217	44582.57
600.413	44580.53
600.609	44560.05
600.806	44902.06
601.002	44627.63
601.198	44046.01
601.395	44422.83
601.591	44717.74
601.787	44514.99
601.984	44209.84
602.18	44799.66
602.376	44414.64
602.572	44588.72
602.769	44775.08
602.965	44521.13
603.161	44842.67
603.357	44654.25
603.553	44578.48
603.75	45285.03
603.946	44770.99
604.142	45203.11
604.338	44091.06
604.534	44773.03
604.73	44553.9
604.926	44349.1
605.122	45371.04
605.318	45119.14
605.514	44807.85
605.71	45059.75
605.906	44914.34
606.102	44838.57
606.298	45287.07
606.494	45024.93
606.69	45229.73
606.886	45311.65
607.082	44766.89
607.278	45586.08
607.474	45246.11
607.67	45786.78
607.866	45065.89
608.062	45358.75
608.257	45252.26
608.453	45328.03
608.649	45491.87
608.845	44994.21
609.041	45067.94
609.236	45647.52
609.432	45567.65
609.628	45098.66
609.824	45471.39
610.019	45745.82
610.215	45612.7
610.411	45993.62
610.606	46395.03
610.802	46327.44
610.998	46472.85
611.193	46268.05
611.389	45985.43
611.584	46438.03
611.78	46274.2
611.976	46552.72
612.171	46831.24
612.367	47021.7
612.562	46759.56
612.758	45862.55
612.953	46440.08
613.149	47109.77
613.344	46573.2
613.539	47754.88
613.735	46798.48
613.93	47275.65
614.126	46898.83
614.321	47918.71
614.517	47818.36
614.712	48084.6
614.907	47705.73
615.103	47865.47
615.298	47218.31
615.493	48113.27
615.688	46851.72
615.884	48391.79
616.079	47206.02
616.274	47937.15
616.47	47535.74
616.665	48039.54
616.86	47748.73
617.055	48363.12
617.25	47814.27
617.445	48363.12
617.641	47240.84
617.836	48207.48
618.031	47543.94
618.226	48100.98
618.421	47681.15
618.616	48119.42
618.811	47277.7
619.006	48232.05
619.201	47392.39
619.396	47824.51
619.591	47654.53
619.786	48092.79
619.981	47109.77
620.176	48234.1
620.371	47799.93
620.566	48223.86
620.761	47621.76
620.956	48389.75
621.151	47464.07
621.346	47767.16
621.541	46966.41
621.735	47740.54
621.93	47314.56
622.125	47396.48
622.32	46511.76
622.515	47406.72
622.709	47001.22
622.904	47259.27
623.099	46655.12
623.294	47535.74
623.488	46687.88
623.683	46958.22
623.878	46161.56
624.072	46929.55
624.267	46491.28
624.462	46618.25
624.656	46077.59
624.851	46372.5
625.046	46104.21
625.24	46589.58
625.435	45835.93
625.629	46188.18
625.824	46003.86
626.018	45766.3
626.213	45301.41
626.407	46085.78
626.602	45000.36
626.796	45397.66
626.991	45440.67
627.185	45258.4
627.38	45033.13
627.574	44883.62
627.768	44490.41
627.963	44949.16
628.157	44359.34
628.352	44476.08
628.546	43781.82
628.74	44633.77
628.935	43808.44
629.129	44107.44
629.323	43669.18
629.517	44078.77
629.712	43454.14
629.906	43517.63
630.1	43263.68
630.294	43177.67
630.489	42612.43
630.683	43302.59
630.877	42434.25
631.071	42874.57
631.265	43040.45
631.459	42882.76
631.653	42411.73
631.848	42524.36
632.042	42319.57
632.236	42669.77
632.43	41764.57
632.624	42563.28
632.818	42243.79
633.012	42039
633.206	42032.85
633.4	42125.01
633.594	41641.69
633.788	41760.47
633.982	41719.51
634.176	42014.42
634.369	41096.93
634.563	40945.38
634.757	41037.54
634.951	40777.45
635.145	41051.87
635.339	40388.33
635.533	40236.78
635.726	40417
635.92	39702.26
636.114	40474.35
636.308	39898.87
636.501	40259.31
636.695	40517.36
636.889	40128.24
637.083	39927.54
637.276	39810.81
637.47	39698.17
637.664	39751.41
637.857	39819
638.051	40005.36
638.244	39696.12
638.438	39868.15
638.632	39341.82
638.825	39087.87
639.019	39565.05
639.212	39202.56
639.406	39053.06
639.599	38868.74
639.793	38582.02
639.986	38041.36
640.18	38575.88
640.373	38600.46
640.567	38033.17
640.76	37685.01
640.954	37697.3
641.147	37791.51
641.34	37687.06
641.534	37869.33
641.727	37508.89
641.92	37852.95
642.114	37486.36
642.307	37130.01
642.5	37553.94
642.694	36667.17
642.887	36693.8
643.08	37185.31
643.273	36634.41
643.467	36904.74
643.66	36271.92
643.853	36638.5
644.046	35508.02
644.239	36208.43
644.432	35602.23
644.626	36015.92
644.819	35923.76
645.012	36083.5
645.205	36558.63
645.398	36011.82
645.591	35514.17
645.784	35440.44
645.977	35309.37
646.17	35594.04
646.363	35276.6
646.556	35012.42
646.749	35194.68
646.942	35469.11
647.135	34889.54
647.328	35073.85
647.521	34953.02
647.714	34383.69
647.907	34094.93
648.099	34285.39
648.292	34010.96
648.485	33970
648.678	33515.35
648.871	33949.52
649.064	33820.5
649.256	33380.18
649.449	33353.56
649.642	33171.29
649.835	33167.2
650.027	33646.42
650.22	33025.89
650.413	32741.22
650.605	32831.33
650.798	32954.21
650.991	31901.55
651.183	32739.17
651.376	32331.62
651.568	32388.97
651.761	32130.92
651.954	32069.48
652.146	31985.52
652.339	31678.32
652.531	31692.66
652.724	31684.47
652.916	30908.29
653.109	31121.27
653.301	31201.15
653.494	31522.68
653.686	30775.17
653.879	31315.83
654.071	30955.39
654.263	30754.69
654.456	30717.82
654.648	30508.93
654.84	30062.47
655.033	29915.02
655.225	30136.2
655.417	29511.57
655.61	29878.16
655.802	30257.03
655.994	29661.07
656.186	29480.85
656.379	29282.2
656.571	29435.8
656.763	28915.61
656.955	28731.29
657.148	29009.82
657.34	28981.15
657.532	28422.05
657.724	28549.03
657.916	28506.02
658.108	28661.66
658.3	28360.61
658.492	28372.9
658.684	27977.64
658.876	27942.83
659.068	27713.45
659.26	27537.33
659.452	27848.62
659.644	27756.46
659.836	27449.27
660.028	27299.76
660.22	26912.7
660.412	27267
660.604	26568.64
660.796	26877.88
660.988	26525.63
661.18	26908.6
661.372	26480.58
661.563	26689.47
661.755	25731.02
661.947	26322.88
662.139	25857.99
662.331	26044.36
662.522	25763.79
662.714	25499.6
662.906	25212.88
663.097	25526.22
663.289	25161.69
663.481	24791
663.673	25122.77
663.864	24883.16
664.056	24911.83
664.247	25036.76
664.439	24983.51
664.631	24713.18
664.822	24592.35
665.014	24887.26
665.205	24436.7
665.397	24631.26
665.588	24600.54
665.78	24283.11
665.971	24193
666.163	24375.27
666.354	23934.95
666.546	24270.82
666.737	23650.28
666.929	23795.69
667.12	23640.04
667.311	24076.26
667.503	23545.84
667.694	23508.97
667.885	23369.71
668.077	23298.03
668.268	22849.53
668.459	22806.52
668.651	22872.06
668.842	23039.99
669.033	22681.6
669.224	22515.71
669.416	22538.24
669.607	22353.92
669.798	21919.75
669.989	21999.62
670.18	21600.27
670.371	21843.98
670.563	21532.68
670.754	21536.78
670.945	21127.19
671.136	21233.68
671.327	21006.36
671.518	21030.93
671.709	21080.08
671.9	21379.09
672.091	20936.73
672.282	20647.96
672.473	20408.35
672.664	20549.66
672.855	20398.11
673.046	20430.88
673.237	20504.6
673.428	20482.08
673.619	20269.09
673.809	19929.13
674	19851.3
674.191	20308
674.382	19871.78
674.573	20285.47
674.764	19841.06
674.954	19978.28
675.145	19736.62
675.336	19669.03
675.527	19365.93
675.717	19615.79
675.908	19587.11
676.099	19595.31
676.289	18880.57
676.48	18948.15
676.671	18712.63
676.861	18942
677.052	18661.43
677.243	18767.93
677.433	18661.43
677.624	18640.95
677.814	18554.94
678.005	18669.62
678.195	18432.06
678.386	18143.3
678.576	17727.56
678.767	17801.29
678.957	17655.88
679.148	18073.67
679.338	17510.47
679.529	17614.92
679.719	17373.26
679.909	17584.2
680.1	17008.72
680.29	17397.84
680.481	16930.9
680.671	16965.71
680.861	16799.83
681.052	17125.46
681.242	16560.22
681.432	16889.94
681.622	16605.27
681.813	16592.98
682.003	16728.15
682.193	16621.66
682.383	16535.64
682.573	16377.95
682.764	16220.25
682.954	16234.59
683.144	16140.38
683.334	16099.42
683.524	15738.98
683.714	16056.42
683.904	16226.4
684.094	15933.54
684.284	15679.59
684.474	15767.65
684.664	15751.27
684.854	15640.68
685.044	15413.35
685.234	15313
685.424	15333.48
685.614	15378.54
685.804	15282.28
685.994	14981.23
686.184	15290.48
686.374	14993.52
686.564	14289.02
686.753	14950.51
686.943	14221.44
687.133	14594.17
687.323	14356.6
687.513	14610.55
687.702	14215.29
687.892	13940.86
688.082	14239.87
688.272	14002.3
688.461	14028.93
688.651	14078.08
688.841	13803.65
689.03	13680.77
689.22	13645.96
689.41	13738.12
689.599	13496.46
689.789	13617.29
689.979	13463.69
690.168	13455.5
690.358	13197.45
690.547	13242.51
690.737	13346.95
690.926	13203.6
691.116	13039.76
691.305	13142.16
691.495	13013.13
691.684	13052.05
691.874	12896.4
692.063	12628.12
692.252	12726.42
692.442	12865.68
692.631	12679.32
692.82	12677.27
693.01	12750.99
693.199	12615.83
693.388	12320.92
693.578	12447.9
693.767	12292.25
693.956	12419.22
694.146	12093.6
694.335	12325.02
694.524	12204.19
694.713	12581.01
694.902	12155.04
695.092	12011.68
695.281	11749.54
695.47	11653.28
695.659	11884.7
695.848	11643.04
696.037	11448.49
696.226	11780.26
696.415	11561.12
696.604	11821.22
696.793	11499.69
696.982	11098.28
697.171	11737.25
697.36	11067.56
697.549	11024.56
697.738	10903.73
697.927	10932.4
698.116	10961.07
698.305	10690.74
698.494	10961.07
698.683	10580.15
698.872	10905.77
699.061	10553.52
699.25	10428.6
699.438	10569.91
699.627	10289.34
699.816	10395.83
700.005	10027.2
700.193	10117.31
700.382	10315.96
700.571	10133.69
700.76	10154.17
700.948	10047.68
701.137	9871.55
701.326	9914.56
701.514	9920.7
701.703	9814.21
701.892	9703.62
702.08	9945.28
702.269	9681.09
702.457	9375.94
702.646	9695.43
702.834	9326.79
703.023	9808.06
703.212	9584.84
703.4	9441.48
703.589	9081.03
703.777	9423.05
703.965	9142.47
704.154	9062.6
704.342	8925.39
704.531	9244.87
704.719	9277.64
704.907	9148.62
705.096	8890.57
705.284	8843.47
705.472	9087.18
705.661	8913.1
705.849	8790.22
706.037	8827.09
706.226	8784.08
706.414	8685.78
706.602	8454.36
706.79	8663.25
706.979	8431.83
707.167	8294.61
707.355	8104.15
707.543	8388.82
707.731	8261.85
707.919	8040.67
708.107	8024.28
708.296	7917.79
708.484	7719.14
708.672	7925.98
708.86	7887.07
709.048	7878.88
709.236	7758.05
709.424	7817.44
709.612	7723.23
709.8	7618.79
709.988	7717.09
710.176	7756
710.364	7698.66
710.551	7573.73
710.739	7522.53
710.927	7287.01
711.115	7481.57
711.303	7383.27
711.491	7500
711.679	7123.18
711.866	7131.37
712.054	7141.61
712.242	7137.51
712.43	6994.15
712.617	6828.27
712.805	7082.22
712.993	6916.33
713.181	6635.76
713.368	6877.42
713.556	7043.31
713.744	6791.41
713.931	7104.74
714.119	6734.06
714.306	6729.97
714.494	6654.19
714.682	6549.75
714.869	6463.73
715.057	6295.8
715.244	6187.25
715.432	6551.79
715.619	6347
715.807	6328.56
715.994	6306.04
716.182	6250.74
716.369	6205.69
716.556	6394.1
716.744	5931.26
716.931	5923.07
717.119	5986.55
717.306	5931.26
717.493	6160.63
717.681	5900.54
717.868	5814.52
718.055	5974.27
718.242	5851.39
718.43	5705.98
718.617	5654.78
718.804	5593.34
718.991	5632.26
719.179	5538.05
719.366	5439.75
719.553	5527.81
719.74	5474.56
719.927	5261.57
720.114	5347.59
720.301	5263.62
720.488	5140.74
720.676	4970.76
720.863	5228.81
721.05	5421.31
721.237	5237
721.424	5116.17
721.611	5009.67
721.798	4784.4
721.985	5040.39
722.172	5054.73
722.358	4909.32
722.545	4972.81
722.732	4962.57
722.919	4821.26
723.106	4829.45
723.293	4849.93
723.48	4731.15
723.667	4632.85
723.853	4841.74
724.04	4641.04
724.227	4682
724.414	4509.97
724.6	4489.49
724.787	4698.38
724.974	4845.84
725.161	4669.71
725.347	4231.44
725.534	4428.05
725.72	4378.9
725.907	4352.27
726.094	4227.35
726.28	4313.36
726.467	4182.29
726.653	4124.95
726.84	4219.16
727.027	4456.72
727.213	4188.44
727.4	4112.66
727.586	4180.25
727.773	4141.33
727.959	4038.94
728.145	3989.78
728.332	4002.07
728.518	3856.67
728.705	4204.82
728.891	3789.08
729.077	3868.95
729.264	3772.7
729.45	3760.41
729.636	3873.05
729.823	3746.08
730.009	3791.13
730.195	3793.18
730.382	3862.81
730.568	3584.29
730.754	3762.46
730.94	3576.09
731.126	3723.55
731.313	3596.57
731.499	3524.9
731.685	3688.73
731.871	3584.29
732.057	3555.62
732.243	3510.56
732.429	3483.94
732.615	3434.78
732.801	3416.35
732.987	3402.02
733.173	3494.18
733.359	3248.42
733.545	3211.56
733.731	3410.21
733.917	3344.67
734.103	3178.79
734.289	3268.9
734.475	3146.02
734.661	3438.88
734.847	3221.8
735.033	3158.31
735.219	3264.8
735.404	3068.2
735.59	2955.56
735.776	2900.27
735.962	3174.69
736.148	3295.52
736.333	3215.65
736.519	3070.25
736.705	3092.77
736.89	2978.09
737.076	2998.57
737.262	2795.82
737.447	2924.84
737.633	2806.06
737.819	2941.22
738.004	2830.63
738.19	2877.74
738.375	2912.55
738.561	2773.29
738.747	2847.02
738.932	2666.8
739.118	3014.95
739.303	2838.83
739.489	2701.61
739.674	2695.47
739.859	2650.41
740.045	2830.63
740.23	2591.02
740.416	2369.84
740.601	2548.01
740.786	2484.53
740.972	2324.79
741.157	2597.17
741.342	2404.66
741.528	2498.86
741.713	2519.34
741.898	2523.44
742.084	2552.11
742.269	2355.51
742.454	2425.14
742.639	2609.45
742.824	2349.36
743.01	2470.19
743.195	2412.85
743.38	2416.94
743.565	2277.68
743.75	2505.01
743.935	2279.73
744.12	2398.51
744.305	2160.95
744.49	2224.44
744.675	2089.27
744.86	2271.54
745.045	2273.59
745.23	2083.13
745.415	2117.94
745.6	2443.57
745.785	2148.66
745.97	2150.71
746.155	2115.89
746.34	2210.1
746.525	2216.24
746.71	2126.13
746.895	1939.77
747.079	1935.67
747.264	1972.54
747.449	2011.45
747.634	2066.74
747.819	2210.1
748.003	2042.17
748.188	1919.29
748.373	1974.58
748.557	2003.25
748.742	1974.58
748.927	1847.61
749.111	1884.47
749.296	1960.25
749.481	1939.77
749.665	1945.91
749.85	1798.46
750.034	1952.06
750.219	1892.66
750.404	1651
750.588	1790.27
750.773	1788.22
750.957	1790.27
751.141	1673.53
751.326	1700.16
751.51	1579.33
751.695	1749.31
751.879	1679.68
752.064	1882.42
752.248	1681.72
752.432	1827.13
752.617	1659.2
752.801	1782.07
752.985	1667.39
753.17	1661.24
753.354	1575.23
753.538	1507.65
753.722	1585.47
753.907	1503.55
754.091	1546.56
754.275	1556.8
754.459	1407.3
754.643	1421.63
754.828	1552.7
755.012	1448.26
755.196	1446.21
755.38	1605.95
755.564	1435.97
755.748	1454.4
755.932	1569.09
756.116	1462.59
756.3	1474.88
756.484	1339.71
756.668	1536.32
756.852	1227.07
757.036	1354.05
757.22	1325.38
757.404	1243.46
757.588	1376.58
757.772	1425.73
757.956	1206.59
758.14	1487.17
758.323	1290.56
758.507	1386.82
758.691	1177.92
758.875	1421.63
759.059	1462.59
759.242	1179.97
759.426	1304.9
759.61	1442.11
759.794	1159.49
759.977	1311.04
760.161	1624.38
760.345	1368.38
760.528	1407.3
760.712	1257.79
760.895	1196.36
761.079	1186.12
761.263	1091.91
761.446	1147.2
761.63	1167.68
761.813	1429.82
761.997	1098.05
762.18	1175.88
762.364	1206.59
762.547	1026.37
762.731	1083.72
762.914	1143.11
763.098	1134.92
763.281	1053
763.464	1030.47
763.648	1063.24
763.831	1034.57
764.015	1096
764.198	1130.82
764.381	1040.71
764.564	954.69
764.748	1110.34
764.931	1108.29
765.114	1083.72
765.297	1108.29
765.481	971.08
765.664	983.37
765.847	1036.61
766.03	1143.11
766.213	969.03
766.397	1036.61
766.58	966.98
766.763	1069.38
766.946	1007.94
767.129	960.84
767.312	958.79
767.495	1075.52
767.678	932.17
767.861	1018.18
768.044	921.93
768.227	969.03
768.41	928.07
768.593	1091.91
768.776	971.08
768.959	964.93
769.142	1102.15
769.324	913.74
769.507	958.79
769.69	928.07
769.873	1009.99
770.056	1274.18
770.239	969.03
770.421	1075.52
770.604	1067.33
770.787	848.2
770.97	954.69
771.152	749.9
771.335	1016.13
771.518	772.43
771.7	887.11
771.883	1134.92
772.066	868.68
772.248	1016.13
772.431	1016.13
772.613	1034.57
772.796	889.16
772.978	964.93
773.161	948.55
773.343	799.05
773.526	885.06
773.708	690.51
773.891	749.9
774.073	686.41
774.256	840.01
774.438	1046.85
774.621	833.86
774.803	962.89
774.985	844.1
775.168	944.45
775.35	727.37
775.532	930.12
775.715	713.03
775.897	985.41
776.079	794.95
776.261	846.15
776.444	901.45
776.626	803.15
776.808	872.78
776.99	641.36
777.173	794.95
777.355	797
777.537	653.64
777.719	733.51
777.901	758.09
778.083	680.27
778.265	631.12
778.447	831.82
778.629	698.7
778.811	741.71
778.993	848.2
779.175	870.73
779.357	805.19
779.539	624.97
779.721	723.27
779.903	749.9
780.085	760.14
780.267	700.75
780.449	667.98
780.631	774.47
780.812	903.5
780.994	672.08
781.176	667.98
781.358	612.68
781.54	651.6
781.721	772.43
781.903	676.17
782.085	604.49
782.267	852.3
782.448	438.61
782.63	631.12
782.812	645.45
782.993	717.13
783.175	647.5
783.357	584.01
783.538	627.02
783.72	584.01
783.901	659.79
784.083	586.06
784.264	567.63
784.446	475.47
784.627	364.88
784.809	553.29
784.99	397.65
785.172	667.98
785.353	541.01
785.535	549.2
785.716	444.75
785.897	446.8
786.079	356.69
786.26	518.48
786.441	543.05
786.623	348.5
786.804	430.41
786.985	397.65
787.167	504.14
787.348	463.18
787.529	543.05
787.71	579.92
787.891	491.85
788.073	454.99
788.254	403.79
788.435	692.55
788.616	430.41
788.797	332.11
788.978	467.28
789.159	395.6
789.34	483.66
789.522	450.89
789.703	350.54
789.884	508.24
790.065	514.38
790.246	723.27
790.427	411.98
790.607	520.53
790.788	487.76
790.969	330.06
791.15	563.53
791.331	358.74
791.512	344.4
791.693	305.49
791.874	354.64
792.054	606.54
792.235	487.76
792.416	274.77
792.597	297.3
792.778	434.51
792.958	317.78
793.139	459.09
793.32	346.45
793.5	217.43
793.681	467.28
793.862	471.37
794.042	334.16
794.223	266.58
794.404	332.11
794.584	229.71
794.765	403.79
794.945	414.03
795.126	438.61
795.306	485.71
795.487	307.54
795.667	280.91
795.848	360.78
796.028	381.26
796.209	414.03
796.389	502.09
796.57	311.63
796.75	211.28
796.93	362.83
797.111	299.34
797.291	256.34
797.471	469.33
797.652	280.91
797.832	207.19
798.012	414.03
798.192	323.92
798.373	223.57
798.553	328.02
798.733	332.11
798.913	233.81
799.093	360.78
799.274	237.91
799.454	315.73
799.634	409.94
799.814	389.46
799.994	385.36
800.174	293.2
800.354	278.87
800.534	209.23
800.714	287.06
800.894	102.74
801.074	135.51
801.254	186.71
801.434	323.92
801.614	203.09
801.794	168.27
801.974	3238.18
802.154	274.77
802.334	344.4
802.514	217.43
802.693	315.73
802.873	119.12
803.053	379.22
803.233	411.98
803.413	223.57
803.592	237.91
803.772	160.08
803.952	248.15
804.131	123.22
804.311	266.58
804.491	344.4
804.67	176.47
804.85	67.92
805.03	309.58
805.209	336.21
805.389	303.44
805.568	237.91
805.748	209.23
805.928	233.81
806.107	356.69
806.287	223.57
806.466	258.39
806.646	192.85
806.825	201.04
807.004	119.12
807.184	264.53
807.363	246.1
807.543	364.88
807.722	151.89
807.901	266.58
808.081	248.15
808.26	-32.43
808.439	237.91
808.619	135.51
808.798	96.6
808.977	194.9
809.156	299.34
809.336	244.05
809.515	242
809.694	176.47
809.873	168.27
810.052	188.75
810.231	371.02
810.411	282.96
810.59	270.67
810.769	229.71
810.948	246.1
811.127	29.01
811.306	127.32
811.485	65.88
811.664	321.87
811.843	276.82
812.022	246.1
812.201	184.66
812.38	61.78
812.559	102.74
812.737	196.95
812.916	61.78
813.095	69.97
813.274	315.73
813.453	160.08
813.632	201.04
813.811	289.1
813.989	2.39
814.168	217.43
814.347	178.51
814.526	192.85
814.704	338.26
814.883	340.3
815.062	55.64
815.24	158.03
815.419	86.36
815.598	164.18
815.776	-73.39
815.955	94.55
816.133	-69.29
816.312	252.24
816.49	74.07
816.669	192.85
816.847	135.51
817.026	117.08
817.204	233.81
817.383	123.22
817.561	123.22
817.74	280.91
817.918	127.32
818.097	102.74
818.275	67.92
818.453	188.75
818.632	112.98
818.81	78.16
818.988	121.17
819.167	29.01
819.345	155.99
819.523	69.97
819.701	194.9
819.879	237.91
820.058	94.55
820.236	102.74
820.414	182.61
820.592	127.32
820.77	117.08
820.948	33.11
821.127	141.65
821.305	248.15
821.483	78.16
821.661	207.19
821.839	198.99
822.017	18.77
822.195	102.74
822.373	166.23
822.551	90.45
822.729	227.67
822.907	84.31
823.085	137.56
823.262	213.33
823.44	59.73
823.618	108.88
823.796	67.92
823.974	94.55
824.152	22.87
824.329	125.27
824.507	190.8
824.685	166.23
824.863	209.23
825.04	51.54
825.218	176.47
825.396	98.64
825.574	162.13
825.751	201.04
825.929	115.03
826.107	49.49
826.284	192.85
826.462	82.26
826.639	-3.75
826.817	4.44
826.994	104.79
827.172	-5.8
827.349	225.62
827.527	96.6
827.704	117.08
827.882	186.71
828.059	35.16
828.237	123.22
828.414	139.6
828.591	-85.67
828.769	86.36
828.946	76.12
829.124	190.8
829.301	270.67
829.478	20.82
829.655	248.15
829.833	123.22
830.01	-136.87
830.187	207.19
830.364	119.12
830.542	237.91
830.719	184.66
830.896	242
831.073	215.38
831.25	129.36
831.427	110.93
831.604	61.78
831.782	110.93
831.959	211.28
832.136	12.63
832.313	164.18
832.49	31.06
832.667	160.08
832.844	18.77
833.021	242
833.198	207.19
833.374	123.22
833.551	110.93
833.728	22.87
833.905	217.43
834.082	-116.39
834.259	172.37
834.436	170.32
834.612	-71.34
834.789	196.95
834.966	117.08
835.143	172.37
835.319	14.68
835.496	158.03
835.673	131.41
835.85	184.66
836.026	155.99
836.203	231.76
836.38	0.34
836.556	-3.75
836.733	45.4
836.909	305.49
837.086	39.25
837.262	-93.87
837.439	84.31
837.616	-28.33
837.792	115.03
837.968	92.5
838.145	-116.39
838.321	10.58
838.498	20.82
838.674	184.66
838.851	180.56
839.027	-34.47
839.203	125.27
839.38	135.51
839.556	61.78
839.732	250.19
839.909	-22.19
840.085	127.32
840.261	12.63
840.437	26.96
840.614	35.16
840.79	188.75
840.966	166.23
841.142	196.95
841.318	51.54
841.494	82.26
841.671	285.01
841.847	49.49
842.023	0.34
842.199	158.03
842.375	270.67
842.551	-52.91
842.727	-22.19
842.903	233.81
843.079	-1.71
843.255	229.71
843.431	74.07
843.607	135.51
843.783	-116.39
843.959	59.73
844.134	-16.04
844.31	176.47
844.486	104.79
844.662	49.49
844.838	37.2
845.013	78.16
845.189	264.53
845.365	158.03
845.541	10.58
845.716	147.8
845.892	282.96
846.068	-1.71
846.244	33.11
846.419	0.34
846.595	49.49
846.77	-3.75
846.946	188.75
847.122	-32.43
847.297	29.01
847.473	323.92
847.648	-65.19
847.824	98.64
847.999	-106.15
848.175	12.63
848.35	184.66
848.526	295.25
848.701	141.65
848.876	143.7
849.052	196.95
849.227	57.68
849.403	110.93
849.578	49.49
849.753	51.54
849.929	117.08
850.104	-52.91
850.279	110.93
850.454	135.51
850.63	172.37
850.805	110.93
850.98	100.69
851.155	176.47
851.33	110.93
851.505	35.16
851.681	274.77
851.856	78.16
852.031	88.4
852.206	168.27
852.381	-13.99
852.556	4.44
852.731	43.35
852.906	266.58
853.081	139.6
853.256	168.27
853.431	65.88
853.606	-24.23
853.781	-65.19
853.956	-95.91
854.131	67.92
854.305	92.5
854.48	55.64
854.655	-46.76
854.83	-69.29
855.005	24.92
855.18	123.22
855.354	18.77
855.529	14.68
855.704	82.26
855.879	166.23
856.053	-38.57
856.228	90.45
856.403	24.92
856.577	215.38
856.752	-59.05
856.926	92.5
857.101	123.22
857.276	-65.19
857.45	102.74
857.625	119.12
857.799	94.55
857.974	43.35
858.148	-116.39
858.323	41.3
858.497	61.78
858.672	61.78
858.846	35.16
859.02	174.42
859.195	-36.52
859.369	90.45
859.543	24.92
859.718	106.84
859.892	127.32
860.066	102.74
860.241	33.11
860.415	51.54
860.589	16.73
860.763	12.63
860.938	26.96
861.112	117.08
861.286	-44.71
861.46	104.79
861.634	51.54
861.808	143.7
861.982	-7.85
862.157	-26.28
862.331	-22.19
862.505	-22.19
862.679	-118.44
862.853	51.54
863.027	6.49
863.201	143.7
863.375	-67.24
863.549	61.78
863.722	51.54
863.896	123.22
864.07	-3.75
864.244	112.98
864.418	196.95
864.592	61.78
864.766	98.64
864.939	29.01
865.113	16.73
865.287	112.98
865.461	-75.43
865.634	94.55
865.808	35.16
865.982	-5.8
866.156	12.63
866.329	-81.58
866.503	88.4
866.676	160.08
866.85	164.18
867.024	2.39
867.197	246.1
867.371	61.78
867.544	98.64
867.718	-65.19
867.891	270.67
868.065	-143.02
868.238	39.25
868.412	258.39
868.585	49.49
868.759	-20.14
868.932	76.12
869.105	-122.54
869.279	92.5
869.452	-69.29
869.625	203.09
869.799	78.16
869.972	-44.71
870.145	-18.09
870.319	196.95
870.492	39.25
870.665	16.73
870.838	8.53
871.011	-93.87
871.185	86.36
871.358	55.64
871.531	92.5
871.704	53.59
871.877	61.78
872.05	-9.9
872.223	-7.85
872.396	225.62
872.569	160.08
872.742	-52.91
872.915	90.45
873.088	86.36
873.261	-28.33
873.434	117.08
873.607	37.2
873.78	213.33
873.953	-52.91
874.126	72.02
874.299	149.84
874.471	12.63
874.644	-18.09
874.817	137.56
874.99	237.91
875.163	-44.71
875.335	94.55
875.508	43.35
875.681	155.99
875.853	43.35
876.026	41.3
876.199	164.18
876.371	94.55
876.544	143.7
876.717	123.22
876.889	-7.85
877.062	168.27
877.234	-38.57
877.407	16.73
877.579	151.89
877.752	80.21
877.924	194.9
878.097	119.12
878.269	24.92
878.442	37.2
878.614	209.23
878.786	49.49
878.959	57.68
879.131	84.31
879.303	-97.96
879.476	86.36
879.648	164.18
879.82	76.12
879.993	-83.63
880.165	-30.38
880.337	-104.11
880.509	92.5
880.681	-42.67
880.854	24.92
881.026	153.94
881.198	196.95
881.37	102.74
881.542	76.12
881.714	-5.8
881.886	-1.71
882.058	151.89
882.23	88.4
882.402	69.97
882.574	106.84
882.746	168.27
882.918	235.86
883.09	86.36
883.262	29.01
883.434	86.36
883.606	-73.39
883.778	16.73
883.95	180.56
884.122	37.2
884.293	215.38
884.465	88.4
884.637	225.62
884.809	-7.85
884.98	84.31
885.152	137.56
885.324	112.98
885.496	-32.43
885.667	-16.04
885.839	20.82
886.011	49.49
886.182	168.27
886.354	127.32
886.525	168.27
886.697	69.97
886.869	-20.14
887.04	86.36
887.212	250.19
887.383	225.62
887.555	151.89
887.726	16.73
887.897	4.44
888.069	12.63
888.24	141.65
888.412	51.54
888.583	90.45
888.754	-20.14
888.926	-151.21
889.097	88.4
889.268	-130.73
889.44	51.54
889.611	-85.67
889.782	-28.33
889.953	-106.15
890.125	174.42
890.296	-28.33
890.467	29.01
890.638	80.21
890.809	57.68
890.98	74.07
891.151	104.79
891.323	215.38
891.494	-48.81
891.665	74.07
891.836	59.73
892.007	106.84
892.178	67.92
892.349	53.59
892.52	47.44
892.691	33.11
892.862	-1.71
893.032	-167.59
893.203	43.35
893.374	67.92
893.545	12.63
893.716	14.68
893.887	176.47
894.057	26.96
894.228	20.82
894.399	-3.75
894.57	170.32
894.74	76.12
894.911	90.45
895.082	-1.71
895.253	-57
895.423	94.55
895.594	143.7
895.764	174.42
895.935	-114.34
896.106	98.64
896.276	-71.34
896.447	135.51
896.617	-52.91
896.788	-79.53
896.958	-50.86
897.129	33.11
897.299	-91.82
897.47	217.43
897.64	135.51
897.81	76.12
897.981	115.03
898.151	-40.62
898.322	45.4
898.492	108.88
898.662	-130.73
898.832	12.63
899.003	55.64
899.173	190.8
899.343	-16.04
899.513	-69.29
