Data from USB4F104151__56__13-05-40-642.txt Node

Date: Fri Mar 14 13:05:40 EDT 2025
User: louis
Spectrometer: USB4F10415
Trigger mode: 4
Integration Time (sec): 4.000000E-2
Scans to average: 1
Electric dark correction enabled: true
Nonlinearity correction enabled: false
Boxcar width: 0
XAxis mode: Wavelengths
Number of Pixels in Spectrum: 3648
>>>>>Begin Spectral Data<<<<<
178.204	-154.96
178.424	-154.96
178.644	-154.96
178.864	-222.55
179.084	-109.91
179.304	33.45
179.524	25.26
179.744	17.07
179.964	68.27
180.184	2.73
180.404	-56.66
180.624	-23.89
180.844	19.11
181.064	-46.42
181.283	15.02
181.503	-23.89
181.723	-30.04
181.943	-81.24
182.163	17.07
182.383	10.92
182.602	92.84
182.822	82.6
183.042	2.73
183.262	39.59
183.482	10.92
183.701	10.92
183.921	74.41
184.141	12.97
184.361	131.75
184.58	39.59
184.8	72.36
185.02	76.46
185.239	129.7
185.459	94.89
185.679	117.42
185.898	-9.56
186.118	86.7
186.338	74.41
186.557	51.88
186.777	-9.56
186.997	45.74
187.216	62.12
187.436	109.23
187.655	55.98
187.875	51.88
188.095	33.45
188.314	80.55
188.534	43.69
188.753	121.51
188.973	68.27
189.192	123.56
189.412	90.79
189.631	92.84
189.851	25.26
190.07	109.23
190.29	4.78
190.509	96.94
190.729	33.45
190.948	90.79
191.168	133.8
191.387	107.18
191.607	43.69
191.826	-1.37
192.045	23.21
192.265	88.75
192.484	19.11
192.704	-34.13
192.923	10.92
193.142	125.61
193.362	41.64
193.581	96.94
193.8	137.9
194.02	31.4
194.239	41.64
194.458	58.03
194.678	37.55
194.897	96.94
195.116	21.16
195.335	15.02
195.555	-9.56
195.774	8.87
195.993	27.31
196.212	15.02
196.432	-52.56
196.651	78.51
196.87	33.45
197.089	119.46
197.308	-27.99
197.528	141.99
197.747	66.22
197.966	58.03
198.185	109.23
198.404	60.07
198.623	64.17
198.842	129.7
199.062	88.75
199.281	35.5
199.5	76.46
199.719	80.55
199.938	37.55
200.157	125.61
200.376	133.8
200.595	80.55
200.814	17.07
201.033	21.16
201.252	64.17
201.471	72.36
201.69	129.7
201.909	60.07
202.128	137.9
202.347	31.4
202.566	55.98
202.785	86.7
203.004	-34.13
203.223	238.25
203.442	92.84
203.661	19.11
203.879	66.22
204.098	47.79
204.317	4.78
204.536	10.92
204.755	88.75
204.974	2.73
205.193	55.98
205.411	154.28
205.63	141.99
205.849	31.4
206.068	10.92
206.287	43.69
206.505	55.98
206.724	-71
206.943	12.97
207.162	39.59
207.381	68.27
207.599	8.87
207.818	-13.65
208.037	90.79
208.255	94.89
208.474	45.74
208.693	103.08
208.911	43.69
209.13	-32.08
209.349	66.22
209.567	80.55
209.786	156.33
210.005	82.6
210.223	15.02
210.442	2.73
210.661	137.9
210.879	76.46
211.098	98.99
211.316	74.41
211.535	8.87
211.753	23.21
211.972	66.22
212.191	15.02
212.409	80.55
212.628	60.07
212.846	51.88
213.065	109.23
213.283	86.7
213.502	-15.7
213.72	66.22
213.938	-1.37
214.157	90.79
214.375	39.59
214.594	41.64
214.812	115.37
215.031	33.45
215.249	35.5
215.467	92.84
215.686	51.88
215.904	78.51
216.122	35.5
216.341	135.85
216.559	76.46
216.778	58.03
216.996	96.94
217.214	60.07
217.432	-11.61
217.651	-15.7
217.869	74.41
218.087	37.55
218.306	8.87
218.524	88.75
218.742	-9.56
218.96	55.98
219.179	101.03
219.397	72.36
219.615	115.37
219.833	109.23
220.051	4.78
220.27	49.83
220.488	133.8
220.706	-1.37
220.924	17.07
221.142	8.87
221.36	64.17
221.578	27.31
221.796	92.84
222.015	33.45
222.233	74.41
222.451	141.99
222.669	33.45
222.887	6.83
223.105	-5.46
223.323	78.51
223.541	15.02
223.759	31.4
223.977	78.51
224.195	158.38
224.413	66.22
224.631	4.78
224.849	76.46
225.067	162.47
225.285	-17.75
225.503	17.07
225.721	25.26
225.939	23.21
226.157	64.17
226.375	137.9
226.592	101.03
226.81	27.31
227.028	117.42
227.246	88.75
227.464	101.03
227.682	41.64
227.9	62.12
228.117	4.78
228.335	12.97
228.553	-1.37
228.771	137.9
228.989	96.94
229.206	37.55
229.424	19.11
229.642	31.4
229.86	72.36
230.077	127.66
230.295	-13.65
230.513	107.18
230.731	105.13
230.948	51.88
231.166	121.51
231.384	39.59
231.601	37.55
231.819	139.94
232.037	47.79
232.254	47.79
232.472	64.17
232.689	0.68
232.907	78.51
233.125	31.4
233.342	41.64
233.56	43.69
233.777	74.41
233.995	17.07
234.213	141.99
234.43	19.11
234.648	64.17
234.865	-27.99
235.083	146.09
235.3	2.73
235.518	-13.65
235.735	92.84
235.953	103.08
236.17	98.99
236.388	8.87
236.605	39.59
236.822	47.79
237.04	39.59
237.257	60.07
237.475	33.45
237.692	33.45
237.909	39.59
238.127	64.17
238.344	64.17
238.562	39.59
238.779	51.88
238.996	-30.04
239.214	127.66
239.431	119.46
239.648	12.97
239.865	35.5
240.083	55.98
240.3	6.83
240.517	10.92
240.735	-21.85
240.952	76.46
241.169	0.68
241.386	49.83
241.603	19.11
241.821	82.6
242.038	88.75
242.255	115.37
242.472	6.83
242.689	121.51
242.907	131.75
243.124	62.12
243.341	23.21
243.558	19.11
243.775	68.27
243.992	-27.99
244.209	64.17
244.426	141.99
244.643	164.52
244.86	60.07
245.078	74.41
245.295	-17.75
245.512	80.55
245.729	27.31
245.946	72.36
246.163	6.83
246.38	23.21
246.597	53.93
246.814	33.45
247.031	43.69
247.248	117.42
247.464	49.83
247.681	62.12
247.898	76.46
248.115	113.32
248.332	-32.08
248.549	107.18
248.766	144.04
248.983	39.59
249.2	39.59
249.417	60.07
249.633	72.36
249.85	58.03
250.067	-5.46
250.284	78.51
250.501	111.27
250.717	64.17
250.934	0.68
251.151	19.11
251.368	25.26
251.585	25.26
251.801	47.79
252.018	-40.28
252.235	107.18
252.451	27.31
252.668	64.17
252.885	166.57
253.102	103.08
253.318	92.84
253.535	-9.56
253.752	27.31
253.968	62.12
254.185	19.11
254.401	17.07
254.618	47.79
254.835	0.68
255.051	119.46
255.268	76.46
255.484	88.75
255.701	66.22
255.917	84.65
256.134	-1.37
256.351	82.6
256.567	47.79
256.784	31.4
257	33.45
257.217	41.64
257.433	8.87
257.65	53.93
257.866	68.27
258.082	-54.61
258.299	62.12
258.515	74.41
258.732	-21.85
258.948	39.59
259.165	45.74
259.381	19.11
259.597	90.79
259.814	51.88
260.03	51.88
260.246	17.07
260.463	139.94
260.679	23.21
260.895	49.83
261.112	96.94
261.328	74.41
261.544	-15.7
261.761	150.18
261.977	21.16
262.193	-75.09
262.409	96.94
262.626	82.6
262.842	80.55
263.058	49.83
263.274	127.66
263.49	96.94
263.707	86.7
263.923	131.75
264.139	15.02
264.355	66.22
264.571	107.18
264.787	27.31
265.004	117.42
265.22	64.17
265.436	68.27
265.652	25.26
265.868	80.55
266.084	4.78
266.3	53.93
266.516	8.87
266.732	47.79
266.948	80.55
267.164	72.36
267.38	-42.32
267.596	76.46
267.812	107.18
268.028	115.37
268.244	115.37
268.46	119.46
268.676	31.4
268.892	131.75
269.108	31.4
269.324	70.31
269.54	-38.23
269.756	68.27
269.972	8.87
270.188	80.55
270.403	-5.46
270.619	41.64
270.835	88.75
271.051	76.46
271.267	-68.95
271.483	70.31
271.698	55.98
271.914	55.98
272.13	23.21
272.346	60.07
272.562	60.07
272.777	55.98
272.993	10.92
273.209	23.21
273.425	-5.46
273.64	27.31
273.856	17.07
274.072	66.22
274.287	49.83
274.503	62.12
274.719	119.46
274.934	0.68
275.15	45.74
275.366	105.13
275.581	62.12
275.797	55.98
276.012	15.02
276.228	135.85
276.444	31.4
276.659	74.41
276.875	35.5
277.09	41.64
277.306	25.26
277.521	55.98
277.737	47.79
277.952	160.42
278.168	92.84
278.383	76.46
278.599	121.51
278.814	15.02
279.03	105.13
279.245	76.46
279.461	62.12
279.676	76.46
279.892	6.83
280.107	72.36
280.322	-13.65
280.538	82.6
280.753	33.45
280.969	45.74
281.184	29.35
281.399	72.36
281.615	74.41
281.83	90.79
282.045	43.69
282.26	39.59
282.476	10.92
282.691	72.36
282.906	17.07
283.122	-1.37
283.337	113.32
283.552	72.36
283.767	23.21
283.983	109.23
284.198	125.61
284.413	53.93
284.628	6.83
284.843	31.4
285.058	43.69
285.274	92.84
285.489	43.69
285.704	23.21
285.919	21.16
286.134	43.69
286.349	80.55
286.564	90.79
286.779	103.08
286.995	60.07
287.21	10.92
287.425	72.36
287.64	66.22
287.855	101.03
288.07	-15.7
288.285	172.71
288.5	101.03
288.715	72.36
288.93	10.92
289.145	21.16
289.36	80.55
289.575	15.02
289.79	119.46
290.004	8.87
290.219	156.33
290.434	51.88
290.649	19.11
290.864	66.22
291.079	47.79
291.294	109.23
291.509	105.13
291.724	43.69
291.938	-7.51
292.153	55.98
292.368	19.11
292.583	21.16
292.798	49.83
293.012	64.17
293.227	74.41
293.442	0.68
293.657	101.03
293.871	90.79
294.086	137.9
294.301	68.27
294.516	76.46
294.73	82.6
294.945	-15.7
295.16	49.83
295.374	66.22
295.589	113.32
295.804	150.18
296.018	31.4
296.233	109.23
296.447	162.47
296.662	6.83
296.877	172.71
297.091	84.65
297.306	25.26
297.52	35.5
297.735	43.69
297.949	39.59
298.164	72.36
298.378	-13.65
298.593	25.26
298.807	62.12
299.022	58.03
299.236	80.55
299.451	19.11
299.665	37.55
299.88	76.46
300.094	23.21
300.309	23.21
300.523	76.46
300.737	123.56
300.952	92.84
301.166	121.51
301.381	17.07
301.595	8.87
301.809	35.5
302.024	53.93
302.238	23.21
302.452	74.41
302.667	39.59
302.881	90.79
303.095	51.88
303.309	101.03
303.524	27.31
303.738	101.03
303.952	88.75
304.166	47.79
304.381	-19.8
304.595	217.77
304.809	23.21
305.023	121.51
305.237	15.02
305.452	68.27
305.666	103.08
305.88	29.35
306.094	109.23
306.308	66.22
306.522	49.83
306.736	27.31
306.95	80.55
307.164	33.45
307.379	19.11
307.593	211.62
307.807	129.7
308.021	113.32
308.235	72.36
308.449	45.74
308.663	31.4
308.877	174.76
309.091	80.55
309.305	105.13
309.519	-17.75
309.733	47.79
309.947	49.83
310.161	86.7
310.374	74.41
310.588	80.55
310.802	-13.65
311.016	39.59
311.23	70.31
311.444	53.93
311.658	76.46
311.872	74.41
312.085	109.23
312.299	131.75
312.513	17.07
312.727	53.93
312.941	-17.75
313.154	21.16
313.368	121.51
313.582	84.65
313.796	49.83
314.009	66.22
314.223	131.75
314.437	74.41
314.651	82.6
314.864	0.68
315.078	47.79
315.292	8.87
315.505	45.74
315.719	21.16
315.933	105.13
316.146	68.27
316.36	15.02
316.573	80.55
316.787	92.84
317.001	-15.7
317.214	-34.13
317.428	88.75
317.641	-1.37
317.855	39.59
318.068	41.64
318.282	86.7
318.495	78.51
318.709	107.18
318.922	107.18
319.136	96.94
319.349	137.9
319.563	8.87
319.776	76.46
319.99	47.79
320.203	27.31
320.417	68.27
320.63	19.11
320.843	121.51
321.057	31.4
321.27	12.97
321.483	92.84
321.697	113.32
321.91	111.27
322.124	127.66
322.337	49.83
322.55	23.21
322.763	96.94
322.977	49.83
323.19	15.02
323.403	94.89
323.617	10.92
323.83	92.84
324.043	70.31
324.256	88.75
324.469	33.45
324.683	146.09
324.896	76.46
325.109	113.32
325.322	72.36
325.535	103.08
325.748	45.74
325.962	88.75
326.175	168.62
326.388	53.93
326.601	27.31
326.814	27.31
327.027	103.08
327.24	139.94
327.453	-13.65
327.666	96.94
327.879	49.83
328.092	58.03
328.305	105.13
328.518	-17.75
328.731	-17.75
328.944	88.75
329.157	70.31
329.37	27.31
329.583	76.46
329.796	105.13
330.009	66.22
330.222	55.98
330.435	111.27
330.648	64.17
330.861	82.6
331.073	8.87
331.286	131.75
331.499	80.55
331.712	-11.61
331.925	-27.99
332.138	58.03
332.35	101.03
332.563	53.93
332.776	121.51
332.989	84.65
333.202	49.83
333.414	51.88
333.627	58.03
333.84	-7.51
334.053	37.55
334.265	70.31
334.478	68.27
334.691	41.64
334.903	68.27
335.116	78.51
335.329	62.12
335.541	113.32
335.754	129.7
335.966	-11.61
336.179	68.27
336.392	111.27
336.604	92.84
336.817	88.75
337.029	12.97
337.242	66.22
337.454	98.99
337.667	90.79
337.88	139.94
338.092	103.08
338.305	111.27
338.517	76.46
338.729	60.07
338.942	64.17
339.154	17.07
339.367	29.35
339.579	101.03
339.792	27.31
340.004	121.51
340.217	27.31
340.429	80.55
340.641	45.74
340.854	2.73
341.066	39.59
341.278	84.65
341.491	121.51
341.703	96.94
341.915	-46.42
342.128	129.7
342.34	49.83
342.552	43.69
342.764	25.26
342.977	10.92
343.189	33.45
343.401	66.22
343.613	49.83
343.826	92.84
344.038	31.4
344.25	101.03
344.462	60.07
344.674	37.55
344.886	23.21
345.099	74.41
345.311	66.22
345.523	96.94
345.735	21.16
345.947	105.13
346.159	51.88
346.371	37.55
346.583	107.18
346.795	193.19
347.007	-15.7
347.219	15.02
347.431	31.4
347.643	105.13
347.855	66.22
348.067	74.41
348.279	49.83
348.491	23.21
348.703	45.74
348.915	80.55
349.127	-11.61
349.339	10.92
349.551	6.83
349.763	15.02
349.975	58.03
350.187	58.03
350.399	180.9
350.61	55.98
350.822	45.74
351.034	-15.7
351.246	41.64
351.458	113.32
351.669	105.13
351.881	125.61
352.093	82.6
352.305	58.03
352.517	2.73
352.728	121.51
352.94	94.89
353.152	133.8
353.363	45.74
353.575	101.03
353.787	131.75
353.999	66.22
354.21	131.75
354.422	-7.51
354.633	45.74
354.845	80.55
355.057	121.51
355.268	82.6
355.48	166.57
355.692	74.41
355.903	96.94
356.115	-34.13
356.326	47.79
356.538	135.85
356.749	62.12
356.961	137.9
357.172	39.59
357.384	-5.46
357.595	115.37
357.807	115.37
358.018	88.75
358.23	92.84
358.441	125.61
358.653	41.64
358.864	80.55
359.075	-27.99
359.287	98.99
359.498	137.9
359.709	62.12
359.921	58.03
360.132	6.83
360.344	60.07
360.555	10.92
360.766	115.37
360.977	74.41
361.189	90.79
361.4	17.07
361.611	96.94
361.823	80.55
362.034	135.85
362.245	23.21
362.456	51.88
362.667	144.04
362.879	53.93
363.09	80.55
363.301	31.4
363.512	74.41
363.723	21.16
363.935	74.41
364.146	43.69
364.357	96.94
364.568	-23.89
364.779	76.46
364.99	182.95
365.201	58.03
365.412	45.74
365.623	37.55
365.834	82.6
366.045	88.75
366.256	92.84
366.467	88.75
366.678	21.16
366.889	37.55
367.1	66.22
367.311	107.18
367.522	82.6
367.733	146.09
367.944	74.41
368.155	82.6
368.366	39.59
368.577	60.07
368.788	191.14
368.999	39.59
369.209	115.37
369.42	162.47
369.631	107.18
369.842	105.13
370.053	6.83
370.264	64.17
370.474	29.35
370.685	121.51
370.896	78.51
371.107	117.42
371.317	125.61
371.528	51.88
371.739	107.18
371.95	45.74
372.16	148.14
372.371	39.59
372.582	74.41
372.792	82.6
373.003	82.6
373.214	92.84
373.424	72.36
373.635	88.75
373.846	62.12
374.056	88.75
374.267	66.22
374.477	103.08
374.688	15.02
374.898	55.98
375.109	19.11
375.319	41.64
375.53	172.71
375.74	98.99
375.951	2.73
376.161	123.56
376.372	47.79
376.582	78.51
376.793	96.94
377.003	35.5
377.214	88.75
377.424	94.89
377.635	94.89
377.845	76.46
378.055	107.18
378.266	47.79
378.476	90.79
378.686	96.94
378.897	4.78
379.107	94.89
379.317	129.7
379.528	113.32
379.738	160.42
379.948	31.4
380.158	121.51
380.369	156.33
380.579	115.37
380.789	17.07
380.999	10.92
381.21	133.8
381.42	154.28
381.63	70.31
381.84	139.94
382.05	141.99
382.261	96.94
382.471	88.75
382.681	90.79
382.891	141.99
383.101	115.37
383.311	35.5
383.521	68.27
383.731	168.62
383.941	8.87
384.151	-15.7
384.361	33.45
384.571	72.36
384.781	94.89
384.991	150.18
385.201	86.7
385.411	4.78
385.621	86.7
385.831	76.46
386.041	123.56
386.251	60.07
386.461	125.61
386.671	43.69
386.881	92.84
387.091	111.27
387.301	127.66
387.511	98.99
387.72	117.42
387.93	76.46
388.14	41.64
388.35	105.13
388.56	148.14
388.769	189.1
388.979	41.64
389.189	35.5
389.399	94.89
389.609	76.46
389.818	103.08
390.028	82.6
390.238	137.9
390.447	166.57
390.657	62.12
390.867	84.65
391.076	72.36
391.286	121.51
391.496	80.55
391.705	35.5
391.915	141.99
392.125	107.18
392.334	74.41
392.544	119.46
392.753	92.84
392.963	80.55
393.172	121.51
393.382	101.03
393.591	127.66
393.801	66.22
394.01	129.7
394.22	98.99
394.429	111.27
394.639	88.75
394.848	98.99
395.058	94.89
395.267	121.51
395.477	141.99
395.686	96.94
395.895	168.62
396.105	129.7
396.314	129.7
396.524	162.47
396.733	58.03
396.942	178.86
397.152	154.28
397.361	139.94
397.57	121.51
397.78	139.94
397.989	127.66
398.198	180.9
398.407	141.99
398.617	84.65
398.826	139.94
399.035	117.42
399.244	101.03
399.453	146.09
399.663	49.83
399.872	125.61
400.081	107.18
400.29	228.01
400.499	80.55
400.708	174.76
400.917	88.75
401.127	60.07
401.336	137.9
401.545	248.49
401.754	164.52
401.963	252.58
402.172	82.6
402.381	113.32
402.59	170.66
402.799	92.84
403.008	137.9
403.217	174.76
403.426	236.2
403.635	170.66
403.844	213.67
404.053	256.68
404.262	158.38
404.471	256.68
404.68	209.58
404.888	129.7
405.097	154.28
405.306	207.53
405.515	205.48
405.724	205.48
405.933	232.1
406.142	240.3
406.35	232.1
406.559	230.06
406.768	207.53
406.977	295.59
407.185	283.3
407.394	268.97
407.603	238.25
407.812	314.02
408.02	297.64
408.229	275.11
408.438	299.69
408.646	164.52
408.855	244.39
409.064	309.93
409.272	311.97
409.481	359.08
409.69	260.77
409.898	326.31
410.107	395.94
410.315	400.04
410.524	400.04
410.733	397.99
410.941	436.9
411.15	484
411.358	510.63
411.567	500.39
411.775	461.48
411.984	436.9
412.192	479.91
412.401	486.05
412.609	602.79
412.818	574.11
413.026	537.25
413.234	524.96
413.443	666.27
413.651	647.84
413.86	584.35
414.068	744.1
414.276	705.18
414.485	690.85
414.693	776.86
414.901	916.12
415.11	789.15
415.318	791.2
415.526	793.25
415.734	860.83
415.943	869.02
416.151	1002.14
416.359	916.12
416.567	991.9
416.776	973.47
416.984	1047.19
417.192	1057.43
417.4	1088.15
417.608	1100.44
417.817	1118.87
418.025	1219.22
418.233	1317.53
418.441	1258.14
418.649	1309.33
418.857	1383.06
419.065	1401.49
419.273	1426.07
419.481	1612.43
419.689	1624.72
419.897	1618.58
420.105	1667.73
420.313	1827.47
420.521	1796.75
420.729	1782.42
420.937	1827.47
421.145	1966.73
421.353	2126.47
421.561	2185.87
421.769	2210.44
421.977	2265.74
422.185	2329.22
422.393	2439.81
422.601	2464.39
422.809	2521.73
423.017	2531.97
423.224	2714.24
423.432	2759.3
423.64	2628.23
423.848	3089.02
424.056	2984.57
424.263	3234.43
424.471	3185.27
424.679	3306.1
424.887	3449.46
425.094	3547.76
425.302	3515
425.51	3666.55
425.718	3746.42
425.925	3838.58
426.133	3981.93
426.341	4248.17
426.548	4375.14
426.756	4457.06
426.964	4528.74
427.171	4756.07
427.379	4817.51
427.586	4782.69
427.794	5065.31
428.001	5298.78
428.209	5603.93
428.417	5474.9
428.624	5786.19
428.832	5849.68
429.039	5882.45
429.247	5927.5
429.454	6376.01
429.662	6726.21
429.869	6203.98
430.076	6894.15
430.284	6683.2
430.491	6963.78
430.699	7225.92
430.906	7264.83
431.114	7412.28
431.321	7535.16
431.528	7707.19
431.736	8139.31
431.943	8460.84
432.15	8442.41
432.358	8505.9
432.565	8956.45
432.772	8874.53
432.979	9204.25
433.187	9452.06
433.394	9443.87
433.601	10148.37
433.808	10347.02
434.016	10258.96
434.223	10664.46
434.43	11203.07
434.637	11037.19
434.844	11817.46
435.052	11950.58
435.259	12046.83
435.466	11973.11
435.673	11942.39
435.88	12722.66
436.087	13205.99
436.294	13388.25
436.501	13093.35
436.708	13314.53
436.915	13705.69
437.122	14399.95
437.329	14373.33
437.537	14664.14
437.743	15126.98
437.95	14981.57
438.157	15636.92
438.364	16163.25
438.571	16163.25
438.778	16386.48
438.985	17854.87
439.192	17060.26
439.399	17482.14
439.606	17291.68
439.813	18282.9
440.02	19263.88
440.227	19151.24
440.433	18995.59
440.64	19632.51
440.847	19224.97
441.054	20074.87
441.261	21182.82
441.467	20715.89
441.674	21518.69
441.881	22155.61
442.088	22163.8
442.294	22075.74
442.501	22333.78
442.708	22907.21
442.914	23742.78
443.121	24781.1
443.328	24191.29
443.534	26112.28
443.741	24985.9
443.948	24946.99
444.154	26587.41
444.361	26599.7
444.568	26554.65
444.774	26622.23
444.981	26968.34
445.187	27953.41
445.394	29094.13
445.6	28416.25
445.807	31336.65
446.013	29796.58
446.22	30316.76
446.426	31852.74
446.633	32051.39
446.839	33071.28
447.046	31240.4
447.252	33214.64
447.459	33622.19
447.665	33224.88
447.871	34830.49
448.078	36010.12
448.284	34861.21
448.491	35403.92
448.697	37075.06
448.903	37752.94
449.11	37972.07
449.316	37003.38
449.522	37548.14
449.728	38996.06
449.935	39131.22
450.141	39204.95
450.347	39974.98
450.553	38836.31
450.76	39356.5
450.966	40572.99
451.172	40276.04
451.378	41506.87
451.584	40181.83
451.791	41648.18
451.997	41117.75
452.203	41900.08
452.409	42090.54
452.615	41730.09
452.821	40458.31
453.027	39882.83
453.233	42117.16
453.44	40544.32
453.646	41125.94
453.852	40994.87
454.058	41799.72
454.264	40626.24
454.47	41662.51
454.676	40435.78
454.882	41822.25
455.088	38406.24
455.294	38692.96
455.5	39383.12
455.705	39925.83
455.911	38047.85
456.117	37482.61
456.323	37009.53
456.529	35356.82
456.735	36671.61
456.941	35539.08
457.147	35023
457.352	34463.9
457.558	33996.96
457.764	33943.72
457.97	33364.14
458.176	32596.15
458.381	32741.56
458.587	31029.46
458.793	30636.25
458.999	29063.41
459.204	31215.82
459.41	30628.06
459.616	28449.02
459.821	28852.47
460.027	28238.08
460.233	27760.9
460.438	26493.21
460.644	26749.2
460.85	25923.87
461.055	25092.4
461.261	25123.12
461.466	23112.01
461.672	22718.8
461.878	24250.68
462.083	22262.1
462.289	22030.68
462.494	21889.37
462.7	20894.06
462.905	20580.72
463.111	21154.15
463.316	21133.67
463.522	20881.77
463.727	20986.22
463.932	20613.49
464.138	20220.28
464.343	20554.1
464.549	19753.34
464.754	20625.78
464.959	20302.2
465.165	20306.29
465.37	19325.32
465.575	18833.8
465.781	19894.65
465.986	19448.19
466.191	19032.46
466.397	18440.59
466.602	17582.49
466.807	18174.36
467.012	18602.38
467.218	18250.13
467.423	18061.72
467.628	18399.63
467.833	18798.99
468.038	17996.18
468.244	17734.04
468.449	18448.79
468.654	17742.24
468.859	17703.32
469.064	17555.87
469.269	17090.98
469.474	16873.9
469.679	17469.86
469.885	16800.17
470.09	17136.04
470.295	17074.6
470.5	16677.29
470.705	16652.72
470.91	16425.39
471.115	16208.31
471.32	16427.44
471.525	16535.98
471.73	15888.82
471.935	15884.73
472.139	15432.13
472.344	15755.71
472.549	15514.05
472.754	15065.54
472.959	15100.36
473.164	14694.86
473.369	14631.37
473.574	15172.04
473.778	14821.83
473.983	14807.5
474.188	14680.52
474.393	14088.66
474.598	13935.06
474.802	13973.97
475.007	14021.08
475.212	13640.15
475.417	13367.77
475.621	13328.86
475.826	13488.6
476.031	13115.87
476.235	12884.45
476.44	13171.17
476.645	12835.3
476.849	12861.93
477.054	12718.57
477.259	12526.06
477.463	12214.77
477.668	12241.39
477.872	12530.16
478.077	12120.56
478.282	11557.37
478.486	11799.03
478.691	11608.57
478.895	11614.71
479.1	11633.15
479.304	11616.76
479.509	11088.39
479.713	11516.41
479.918	11266.56
480.122	11016.71
480.326	11196.93
480.531	11295.23
480.735	10949.12
480.94	10914.31
481.144	11262.46
481.348	10795.53
481.553	10957.32
481.757	10625.54
481.961	10899.97
482.166	11014.66
482.37	10889.73
482.574	10531.34
482.778	10590.73
482.983	10908.16
483.187	10824.2
483.391	10705.42
483.595	10781.19
483.8	10662.41
484.004	10689.03
484.208	10777.09
484.412	10672.65
484.616	10603.02
484.821	10754.57
485.025	10480.14
485.229	10725.89
485.433	10428.94
485.637	10639.88
485.841	10557.96
486.045	10385.93
486.249	10744.33
486.453	10398.22
486.657	10562.06
486.861	10758.66
487.065	10453.52
487.269	10578.44
487.473	10551.82
487.677	10719.75
487.881	10824.2
488.085	10635.78
488.289	10877.44
488.493	10410.51
488.697	10768.9
488.901	10625.54
489.105	10705.42
489.309	10838.53
489.512	10787.33
489.716	10867.2
489.92	10803.72
490.124	10740.23
490.328	11076.1
490.531	11022.85
490.735	11057.67
490.939	11028.99
491.143	11155.97
491.346	10926.6
491.55	11117.06
491.754	10981.89
491.958	11282.94
492.161	11000.32
492.365	11244.03
492.569	11284.99
492.772	11145.73
492.976	11223.55
493.18	11268.61
493.383	11409.92
493.587	11577.85
493.79	11704.82
493.994	11330.05
494.197	11686.39
494.401	11770.36
494.605	12016.12
494.808	11940.34
495.012	12046.83
495.215	12061.17
495.419	12057.07
495.622	12024.31
495.825	12220.91
496.029	12552.68
496.232	12544.49
496.436	12618.22
496.639	12943.85
496.843	12771.82
497.046	12960.23
497.249	13162.98
497.453	13158.88
497.656	13359.58
497.859	13398.49
498.063	13494.75
498.266	13826.52
498.469	13765.08
498.673	13851.1
498.876	13990.36
499.079	14199.25
499.282	14148.05
499.485	14559.69
499.689	14580.17
499.892	15040.97
500.095	14881.22
500.298	15352.26
500.501	15120.84
500.705	15425.98
500.908	15835.58
501.111	15917.5
501.314	15800.76
501.517	16099.76
501.72	16067
501.923	15905.21
502.126	16777.64
502.329	16746.92
502.532	17031.59
502.735	16816.55
502.938	17729.95
503.141	17588.64
503.344	17508.77
503.547	18020.76
503.75	18080.15
503.953	18168.21
504.156	18473.36
504.359	18624.91
504.562	18860.43
504.765	19024.26
504.968	19210.63
505.17	19493.25
505.373	19417.47
505.576	19943.8
505.779	19845.5
505.982	20009.34
506.185	20732.27
506.387	20504.95
506.59	20572.53
506.793	21186.92
506.996	20916.59
507.198	21690.72
507.401	21616.99
507.604	21924.19
507.807	22305.11
508.009	22405.46
508.212	22374.74
508.415	22708.56
508.617	23382.34
508.82	23181.64
509.022	23206.22
509.225	23699.78
509.428	23718.21
509.63	24158.52
509.833	24054.08
510.035	25358.63
510.238	24723.76
510.44	24916.27
510.643	25141.55
510.845	25329.96
511.048	25694.5
511.25	25674.02
511.453	25913.63
511.655	27037.97
511.858	26630.42
512.06	26597.65
512.262	27154.7
512.465	26933.52
512.667	27470.09
512.87	27543.81
513.072	27697.41
513.274	28571.89
513.477	28752.12
513.679	28725.49
513.881	29042.93
514.084	29372.65
514.286	29409.51
514.488	29585.64
514.69	30499.03
514.893	30646.49
515.095	30529.75
515.297	31185.1
515.499	31101.14
515.701	31510.73
515.904	31658.18
516.106	32135.36
516.308	32260.29
516.51	32526.52
516.712	32817.33
516.914	33140.91
517.116	33773.74
517.318	33507.5
517.52	34179.23
517.722	33996.96
517.925	34459.8
518.127	34920.6
518.329	34947.22
518.531	34762.9
518.733	35715.21
518.935	35815.56
519.136	35862.66
519.338	36507.77
519.54	36397.18
519.742	36978.81
519.944	36894.84
520.146	37929.06
520.348	37609.58
520.55	37900.39
520.752	38387.81
520.954	38783.07
521.155	38215.78
521.357	39192.66
521.559	39340.11
521.761	39872.59
521.963	39696.46
522.164	40165.45
522.366	40058.95
522.568	40579.14
522.77	40572.99
522.971	41513.01
523.173	41041.98
523.375	41533.49
523.576	41584.69
523.778	41619.5
523.98	42479.65
524.181	42483.75
524.383	43010.07
524.584	43737.1
524.786	43497.49
524.988	43186.2
525.189	43622.42
525.391	43722.77
525.592	44308.49
525.794	44052.49
525.995	44470.28
526.197	44531.72
526.398	44308.49
526.6	44654.59
526.801	44906.49
527.003	44976.12
527.204	45182.97
527.406	45590.51
527.607	45703.15
527.808	46413.8
528.01	45322.23
528.211	45680.63
528.412	46297.06
528.614	46491.62
528.815	46217.19
529.016	46800.86
529.218	46135.27
529.419	46424.04
529.62	46759.91
529.822	46256.1
530.023	46606.31
530.224	47142.88
530.425	46944.22
530.626	46729.19
530.828	46682.08
531.029	48019.41
531.23	46987.23
531.431	47294.43
531.632	47462.36
531.833	47794.13
532.035	47775.7
532.236	47849.42
532.437	47822.8
532.638	47484.89
532.839	48084.94
533.04	48252.87
533.241	47849.42
533.442	48730.05
533.643	48027.6
533.844	48052.17
534.045	47964.11
534.246	47411.16
534.447	48150.48
534.648	48109.52
534.849	48504.77
535.05	47581.14
535.251	48119.76
535.451	47757.27
535.652	48814.02
535.853	47933.39
536.054	48097.23
536.255	48308.17
536.456	48205.77
536.657	48695.24
536.857	48265.16
537.058	47896.53
537.259	48265.16
537.46	48304.07
537.66	47939.54
537.861	48566.21
538.062	48160.72
538.263	48236.49
538.463	48125.9
538.664	48076.75
538.865	48517.06
539.065	48345.03
539.266	47998.93
539.466	48857.03
539.667	48017.36
539.868	48578.5
540.068	48455.62
540.269	48609.22
540.469	48347.08
540.67	47828.94
540.87	48451.53
541.071	47933.39
541.271	48443.34
541.472	47935.44
541.672	48052.17
541.873	48000.97
542.073	47624.15
542.274	48773.06
542.474	47957.97
542.675	47443.93
542.875	48224.2
543.075	47837.14
543.276	47452.12
543.476	48238.54
543.676	47685.59
543.877	47982.54
544.077	47925.2
544.277	47693.78
544.478	47609.81
544.678	48007.12
544.878	47359.96
545.078	48000.97
545.279	47425.49
545.479	47638.48
545.679	47992.78
545.879	47871.95
546.079	47644.63
546.28	47644.63
546.48	47544.28
546.68	48191.44
546.88	47880.14
547.08	47429.59
547.28	47671.25
547.48	47259.61
547.68	47783.89
547.88	47130.59
548.081	47814.61
548.281	47652.82
548.481	47562.71
548.681	47960.01
548.881	47349.72
549.081	47470.55
549.28	47388.63
549.48	47757.27
549.68	47325.14
549.88	48195.53
550.08	47337.43
550.28	47595.48
550.48	47669.2
550.68	47765.46
550.88	47298.52
551.08	47267.8
551.279	47607.76
551.479	46860.26
551.679	47605.72
551.879	46893.02
552.079	47431.64
552.278	47273.95
552.478	47785.94
552.678	47093.72
552.878	47065.05
553.077	47220.7
553.277	46807.01
553.477	47605.72
553.676	47089.63
553.876	46933.98
554.076	46870.5
554.275	46843.87
554.475	46563.3
554.674	47155.16
554.874	46827.49
555.074	46677.99
555.273	46837.73
555.473	46499.81
555.672	46305.26
555.872	46809.06
556.071	46540.77
556.271	46989.28
556.47	46428.13
556.67	46188.52
556.869	46415.85
557.068	46190.57
557.268	46485.48
557.467	46102.51
557.667	46264.3
557.866	46274.54
558.065	45950.96
558.265	45971.44
558.464	45756.4
558.663	46376.93
558.863	45785.07
559.062	46270.44
559.261	45776.88
559.461	46295.02
559.66	44933.12
559.859	45502.45
560.058	45271.03
560.258	45856.75
560.457	45113.34
560.656	45668.34
560.855	45379.57
561.054	45072.38
561.253	44795.9
561.453	45250.55
561.652	44943.36
561.851	45119.48
562.05	44787.71
562.249	44644.35
562.448	44843.01
562.647	44789.76
562.846	44662.79
563.045	44662.79
563.244	44070.92
563.443	45166.59
563.642	43911.18
563.841	44156.94
564.04	44122.12
564.239	44535.81
564.438	44193.8
564.637	43763.73
564.836	43864.08
565.035	43372.56
565.234	44070.92
565.432	43253.78
565.631	43458.58
565.83	43415.57
566.029	43204.63
566.228	43075.61
566.427	42903.58
566.625	42901.53
566.824	42610.72
567.023	43233.3
567.222	42053.67
567.42	42915.87
567.619	43032.6
567.818	42487.84
568.016	42661.92
568.215	42803.23
568.414	42326.05
568.612	42700.83
568.811	42491.94
569.01	42192.93
569.208	41805.87
569.407	41977.9
569.605	41771.05
569.804	42135.59
570.002	41639.98
570.201	41574.45
570.4	40867.9
570.598	41091.13
570.797	40945.72
570.995	40685.63
571.193	40032.33
571.392	41007.16
571.59	40577.09
571.789	40765.5
571.987	40523.84
572.186	40110.15
572.384	40126.53
572.582	40689.73
572.781	40247.36
572.979	39800.91
573.177	40208.45
573.376	40556.61
573.574	39563.34
573.772	40151.11
573.971	39630.93
574.169	39516.24
574.367	39538.77
574.565	39579.73
574.763	39096.41
574.962	39313.49
575.16	38907.99
575.358	39100.5
575.556	38699.1
575.754	39094.36
575.952	38410.34
576.151	38905.94
576.349	38035.56
576.547	38608.99
576.745	38576.22
576.943	38525.02
577.141	37927.02
577.339	38078.57
577.537	37859.43
577.735	38099.05
577.933	37769.32
578.131	37455.98
578.329	37666.92
578.527	37138.55
578.725	37560.43
578.923	37388.4
579.121	37380.21
579.319	37193.84
579.516	37281.91
579.714	37695.6
579.912	36925.56
580.11	36653.18
580.308	36806.78
580.506	36534.4
580.704	36321.41
580.901	36638.84
581.099	36577.4
581.297	36284.54
581.495	36219.01
581.692	36370.56
581.89	35768.46
582.088	36296.83
582.285	35668.11
582.483	36128.9
582.681	35995.78
582.878	35528.84
583.076	35184.79
583.274	35674.25
583.471	34996.37
583.669	35033.24
583.866	34840.73
584.064	35315.86
584.262	34689.18
584.459	34928.79
584.657	34379.93
584.854	35117.2
585.052	34222.24
585.249	34443.42
585.447	34453.66
585.644	34066.59
585.841	34347.17
586.039	34224.29
586.236	33783.98
586.434	33806.5
586.631	33435.82
586.828	33777.83
587.026	33534.12
587.223	33857.7
587.42	33628.33
587.618	33525.93
587.815	33038.51
588.012	33224.88
588.21	33233.07
588.407	33241.26
588.604	32858.29
588.801	32819.38
588.999	32745.65
589.196	32729.27
589.393	32592.06
589.59	32471.23
589.787	32184.51
589.984	32364.73
590.182	31998.15
590.379	32096.45
590.576	31766.73
590.773	32248
590.97	31871.17
591.167	31736.01
591.364	31627.46
591.561	31482.06
591.758	31508.68
591.955	31279.31
592.152	31203.53
592.349	31006.93
592.546	31418.57
592.743	31279.31
592.94	30736.6
593.137	31015.12
593.334	31187.15
593.531	30382.3
593.727	30585.05
593.924	30886.1
594.121	30386.39
594.318	30214.37
594.515	29802.72
594.712	30392.54
594.908	29673.7
595.105	30019.81
595.302	30226.65
595.499	29841.64
595.696	29665.51
595.892	29583.59
596.089	29651.17
596.286	29864.16
596.482	29444.33
596.679	29231.34
596.876	29110.51
597.072	28967.15
597.269	29196.53
597.466	28633.33
597.662	28844.27
597.859	29241.58
598.055	28743.92
598.252	28612.85
598.448	28795.12
598.645	28365.05
598.841	28172.54
599.038	28549.37
599.234	28129.53
599.431	28104.96
599.627	27973.89
599.824	28137.73
600.02	27836.67
600.217	27930.88
600.413	27658.5
600.609	27500.81
600.806	27662.6
601.002	27695.36
601.198	27173.13
601.395	27355.4
601.591	27332.87
601.787	27177.23
601.984	26962.19
602.18	27515.14
602.376	27248.91
602.572	26800.4
602.769	27078.93
602.965	26581.27
603.161	26603.8
603.357	26509.59
603.553	26435.86
603.75	26364.18
603.946	26278.17
604.142	26282.27
604.338	25934.11
604.534	26149.15
604.73	25733.41
604.926	26095.9
605.122	26333.46
605.318	25651.49
605.514	25569.57
605.71	25510.18
605.906	25532.71
606.102	25526.57
606.298	25649.44
606.494	25522.47
606.69	25657.64
606.886	25354.54
607.082	25002.29
607.278	25395.5
607.474	24668.47
607.67	25047.34
607.866	24711.47
608.062	25059.63
608.257	24668.47
608.453	24830.26
608.649	24670.51
608.845	24701.23
609.041	24484.15
609.236	24680.75
609.432	24410.42
609.628	24342.84
609.824	24549.68
610.019	24443.19
610.215	24277.3
610.411	24275.26
610.606	23978.3
610.802	24127.8
610.998	23996.73
611.193	24109.37
611.389	24070.46
611.584	23748.93
611.78	23474.5
611.976	23548.23
612.171	23716.16
612.367	23644.48
612.562	23689.54
612.758	23281.99
612.953	23232.84
613.149	23626.05
613.344	23476.55
613.539	23632.19
613.735	23540.04
613.93	23687.49
614.126	23044.43
614.321	23372.1
614.517	23308.61
614.712	23195.98
614.907	23136.59
615.103	23286.09
615.298	23038.28
615.493	23023.95
615.688	22735.18
615.884	23081.29
616.079	22532.43
616.274	22839.63
616.47	22925.64
616.665	22778.19
616.86	22415.7
617.055	22589.78
617.25	22434.13
617.445	22798.67
617.641	22296.92
617.836	22636.88
618.031	22243.67
618.226	22505.81
618.421	22147.42
618.616	22120.79
618.811	21829.98
619.006	22126.94
619.201	21469.54
619.396	22004.06
619.591	21412.2
619.786	21909.85
619.981	21143.91
620.176	21739.87
620.371	21270.89
620.566	21141.86
620.761	21287.27
620.956	21178.73
621.151	20885.87
621.346	21051.75
621.541	20719.98
621.735	20789.61
621.93	20543.86
622.125	20443.51
622.32	20169.08
622.515	20480.37
622.709	20310.39
622.904	20201.85
623.099	19642.75
623.294	20377.97
623.488	19798.4
623.683	20154.74
623.878	19632.51
624.072	19718.53
624.267	19693.95
624.462	19351.94
624.656	19456.39
624.851	19177.86
625.046	18856.33
625.24	18962.83
625.435	18868.62
625.629	18610.57
625.824	18618.77
626.018	18495.89
626.213	18203.03
626.407	18338.19
626.602	17955.22
626.796	18239.89
626.991	18456.98
627.185	17914.27
627.38	17930.65
627.574	17762.72
627.768	17660.32
627.963	17521.06
628.157	17367.46
628.352	17488.29
628.546	17334.69
628.74	17531.3
628.935	16970.15
629.129	17349.03
629.323	16968.1
629.517	16685.48
629.712	16763.31
629.906	16691.63
630.1	16409.01
630.294	16738.73
630.489	16374.19
630.683	16300.47
630.877	16302.51
631.071	16130.48
631.265	16202.16
631.459	15976.89
631.653	15782.33
631.848	15970.74
632.042	15774.14
632.236	15841.72
632.43	15446.46
632.624	15665.6
632.818	15632.83
633.012	15344.06
633.206	15397.31
633.4	15190.47
633.594	14746.06
633.788	15106.5
633.982	15165.89
634.176	15079.88
634.369	15010.25
634.563	14748.11
634.757	14594.51
634.951	14713.29
635.145	14651.85
635.339	14668.23
635.533	14283.22
635.726	14531.02
635.92	14283.22
636.114	14377.42
636.308	14242.26
636.501	14033.36
636.695	14164.43
636.889	13760.98
637.083	14098.9
637.276	13689.31
637.47	13662.68
637.664	13586.91
637.857	13664.73
638.051	13466.08
638.244	13388.25
638.438	13431.26
638.632	13341.15
638.825	13222.37
639.019	13081.06
639.212	13251.04
639.406	13025.76
639.599	12929.51
639.793	13072.87
639.986	12814.82
640.18	12700.14
640.373	12620.27
640.567	12452.33
640.76	12536.3
640.954	12272.11
641.147	12313.07
641.34	12306.93
641.534	12220.91
641.727	12143.09
641.92	12003.83
642.114	12161.52
642.307	12157.43
642.5	11999.73
642.694	11790.84
642.887	11751.93
643.08	11999.73
643.273	11870.71
643.467	11579.9
643.66	11704.82
643.853	11459.07
644.046	11532.79
644.239	11342.33
644.432	11504.12
644.626	11119.1
644.819	11229.7
645.012	11149.82
645.205	10996.23
645.398	10977.8
645.591	10908.16
645.784	11098.63
645.977	10676.74
646.17	10691.08
646.363	10744.33
646.556	10467.85
646.749	10502.67
646.942	10471.95
647.135	10652.17
647.328	10404.36
647.521	10295.82
647.714	10138.13
647.907	10375.69
648.099	10304.01
648.292	10457.61
648.485	10091.02
648.678	9935.38
648.871	9923.09
649.064	9902.61
649.256	10185.23
649.449	9871.89
649.642	9732.63
649.835	9730.58
650.027	9724.44
650.22	9685.53
650.413	9525.79
650.605	9558.55
650.798	9763.35
650.991	9435.67
651.183	9599.51
651.376	9507.35
651.568	9454.11
651.761	9380.38
651.954	9468.44
652.146	9320.99
652.339	9267.74
652.531	9261.6
652.724	9173.53
652.916	8962.59
653.109	8938.02
653.301	9126.43
653.494	9204.25
653.686	8784.42
653.879	8978.98
654.071	8747.56
654.263	8645.16
654.456	8692.26
654.648	8790.56
654.84	8571.43
655.033	8628.77
655.225	8387.11
655.417	8526.38
655.61	8352.3
655.802	8516.14
655.994	8438.31
656.186	8239.66
656.379	8286.76
656.571	8157.74
656.763	8079.92
656.955	8077.87
657.148	8221.23
657.34	7924.27
657.532	7864.88
657.724	8010.29
657.916	7799.35
658.108	7969.33
658.3	7787.06
658.492	7860.79
658.684	7787.06
658.876	7811.64
659.068	7731.76
659.26	7719.48
659.452	7715.38
659.644	7666.23
659.836	7524.92
660.028	7662.13
660.22	7449.15
660.412	7418.43
660.604	7408.19
660.796	7348.79
660.988	7340.6
661.18	7344.7
661.372	7344.7
661.563	7375.42
661.755	7303.74
661.947	7096.89
662.139	7144
662.331	7078.46
662.522	7236.16
662.714	7117.37
662.906	7191.1
663.097	6836.8
663.289	6910.53
663.481	6902.34
663.673	6855.23
663.864	6730.31
664.056	6969.92
664.247	6715.97
664.439	6877.76
664.631	6589
664.822	6666.82
665.014	6765.12
665.205	6646.34
665.397	6611.53
665.588	6627.91
665.78	6435.4
665.971	6480.46
666.163	6595.14
666.354	6560.33
666.546	6683.2
666.737	6273.61
666.929	6380.11
667.12	6462.02
667.311	6507.08
667.503	6251.08
667.694	6289.99
667.885	6150.73
668.077	6138.44
668.268	6193.74
668.459	6302.28
668.651	6253.13
668.842	6242.89
669.033	6140.49
669.224	6031.95
669.416	6388.3
669.607	6058.57
669.798	6113.87
669.989	6173.26
670.18	5915.22
670.371	5904.98
670.563	5769.81
670.754	5958.22
670.945	5671.51
671.136	5884.5
671.327	5732.95
671.518	5917.26
671.709	5984.85
671.9	5796.43
672.091	5907.02
672.282	5831.25
672.473	5859.92
672.664	5880.4
672.855	5786.19
673.046	5753.43
673.237	5892.69
673.428	5857.87
673.619	5763.67
673.809	5771.86
674	5853.78
674.191	5739.09
674.382	5651.03
674.573	5747.28
674.764	5534.29
674.954	5689.94
675.145	5593.69
675.336	5673.56
675.527	5808.72
675.717	5780.05
675.908	5603.93
676.099	5567.06
676.289	5567.06
676.48	5569.11
676.671	5526.1
676.861	5499.48
677.052	5522.01
677.243	5515.86
677.433	5536.34
677.624	5624.4
677.814	5585.49
678.005	5583.45
678.195	5544.53
678.386	5407.32
678.576	5405.27
678.767	5548.63
678.957	5405.27
679.148	5483.09
679.338	5423.7
679.529	5448.28
679.719	5505.62
679.909	5458.52
680.1	5444.18
680.29	5534.29
680.481	5286.49
680.671	5593.69
680.861	5476.95
681.052	5487.19
681.242	5382.74
681.432	5460.57
681.622	5349.98
681.813	5323.35
682.003	5470.81
682.193	5399.13
682.383	5528.15
682.573	5327.45
682.764	5266.01
682.954	5333.59
683.144	5327.45
683.334	5298.78
683.524	5479
683.714	5370.46
683.904	5263.96
684.094	5370.46
684.284	5309.02
684.474	5380.7
684.664	5255.77
684.854	5266.01
685.044	5145.18
685.234	5356.12
685.424	5141.08
685.614	5112.41
685.804	5132.89
685.994	5085.79
686.184	5247.58
686.374	5163.61
686.564	5139.04
686.753	5145.18
686.943	5061.21
687.133	5112.41
687.323	4983.39
687.513	5044.83
687.702	5151.32
687.892	4917.86
688.082	4964.96
688.272	4946.53
688.461	4946.53
688.651	4942.43
688.841	4831.84
689.03	4883.04
689.22	4745.83
689.41	4952.67
689.599	4774.5
689.789	4764.26
689.979	4692.58
690.168	4784.74
690.358	4682.34
690.547	4612.71
690.737	4680.29
690.926	4596.32
691.116	4536.93
691.305	4622.95
691.495	4602.47
691.684	4344.42
691.874	4457.06
692.063	4489.83
692.252	4432.49
692.442	4504.17
692.631	4518.5
692.82	4315.75
693.01	4373.1
693.199	4467.3
693.388	4225.64
693.578	4321.9
693.767	4299.37
693.956	4323.94
694.146	4315.75
694.335	4180.59
694.524	3998.32
694.713	4160.11
694.902	4219.5
695.092	4211.31
695.281	4170.35
695.47	3983.98
695.659	4201.07
695.848	4139.63
696.037	4059.76
696.226	4055.66
696.415	4061.8
696.604	4162.16
696.793	4158.06
696.982	4078.19
697.171	4082.28
697.36	4045.42
697.549	4123.24
697.738	3889.78
697.927	3967.6
698.116	4020.85
698.305	3957.36
698.494	4022.89
698.683	4029.04
698.872	4115.05
699.061	3963.5
699.25	4043.37
699.438	3998.32
699.627	3912.3
699.816	4043.37
700.005	3922.54
700.193	3953.26
700.382	3910.26
700.571	3940.97
700.76	4061.8
700.948	3963.5
701.137	3791.47
701.326	3830.38
701.514	3943.02
701.703	3914.35
701.892	3824.24
702.08	4014.7
702.269	3885.68
702.457	3994.22
702.646	3799.66
702.834	3961.45
703.023	3754.61
703.212	3875.44
703.4	3803.76
703.589	3820.14
703.777	3801.71
703.965	3832.43
704.154	3725.94
704.342	3795.57
704.531	3834.48
704.719	3754.61
704.907	4012.65
705.096	3721.84
705.284	3922.54
705.472	3842.67
705.661	3883.63
705.849	3940.97
706.037	3928.69
706.226	3818.1
706.414	3633.78
706.602	3824.24
706.79	3895.92
706.979	3752.56
707.167	3770.99
707.355	3768.95
707.543	3977.84
707.731	4010.61
707.919	4000.37
708.107	3848.82
708.296	3746.42
708.484	3828.34
708.672	3840.62
708.86	3887.73
709.048	3777.14
709.236	3914.35
709.424	3914.35
709.612	3963.5
709.8	3822.19
709.988	3916.4
710.176	3891.82
710.364	3926.64
710.551	3828.34
710.739	3912.3
710.927	3988.08
711.115	3983.98
711.303	3889.78
711.491	3957.36
711.679	3836.53
711.866	4043.37
712.054	3875.44
712.242	4014.7
712.43	4063.85
712.617	3947.12
712.805	3959.41
712.993	3938.93
713.181	3805.81
713.368	4010.61
713.556	3900.02
713.744	3840.62
713.931	4104.81
714.119	3934.83
714.306	3994.22
714.494	3887.73
714.682	4033.13
714.869	3871.34
715.057	3998.32
715.244	3840.62
715.432	4024.94
715.619	3967.6
715.807	3957.36
715.994	3955.31
716.182	3992.17
716.369	4022.89
716.556	4029.04
716.744	3891.82
716.931	3979.89
717.119	4067.95
717.306	4143.72
717.493	4039.28
717.681	4020.85
717.868	4125.29
718.055	4051.56
718.242	4063.85
718.43	4041.32
718.617	4127.34
718.804	4186.73
718.991	4350.57
719.179	4168.3
719.366	4094.57
719.553	4000.37
719.74	4016.75
719.927	4149.87
720.114	3949.17
720.301	4086.38
720.488	3938.93
720.676	4119.15
720.863	4237.93
721.05	4156.01
721.237	4117.1
721.424	4147.82
721.611	4180.59
721.798	4029.04
721.985	3965.55
722.172	4123.24
722.358	4088.43
722.545	4016.75
722.732	4153.96
722.919	4213.35
723.106	4170.35
723.293	4172.39
723.48	4289.13
723.667	4061.8
723.853	4176.49
724.04	4047.47
724.227	4235.88
724.414	4219.5
724.6	4151.92
724.787	4137.58
724.974	4145.77
725.161	4176.49
725.347	4121.2
725.534	4274.79
725.72	4164.2
725.907	4309.61
726.094	4258.41
726.28	4102.76
726.467	4113
726.653	4211.31
726.84	4162.16
727.027	4270.7
727.213	4108.91
727.4	4211.31
727.586	4270.7
727.773	4201.07
727.959	4131.44
728.145	4203.11
728.332	4070
728.518	4201.07
728.705	4205.16
728.891	4225.64
729.077	4149.87
729.264	4285.03
729.45	4237.93
729.636	4414.06
729.823	4119.15
730.009	4133.48
730.195	4287.08
730.382	4211.31
730.568	4162.16
730.754	4215.4
730.94	4315.75
731.126	4399.72
731.313	4340.33
731.499	4401.77
731.685	4295.27
731.871	4258.41
732.057	4356.71
732.243	4258.41
732.429	4305.51
732.615	4317.8
732.801	4285.03
732.987	4174.44
733.173	4182.63
733.359	4137.58
733.545	4192.87
733.731	4260.46
733.917	4135.53
734.103	4325.99
734.289	4291.18
734.475	3988.08
734.661	4364.9
734.847	4297.32
735.033	4137.58
735.219	4237.93
735.404	4321.9
735.59	4258.41
735.776	4102.76
735.962	4401.77
736.148	4305.51
736.333	4080.24
736.519	4199.02
736.705	4258.41
736.89	4250.22
737.076	4176.49
737.262	4203.11
737.447	4012.65
737.633	4086.38
737.819	4153.96
738.004	4108.91
738.19	4072.04
738.375	4072.04
738.561	4106.86
738.747	4141.68
738.932	4106.86
739.118	4166.25
739.303	4190.83
739.489	4125.29
739.674	4172.39
739.859	4004.46
740.045	4139.63
740.23	4188.78
740.416	4133.48
740.601	4049.52
740.786	4004.46
740.972	4047.47
741.157	3832.43
741.342	3951.21
741.528	4074.09
741.713	3889.78
741.898	3875.44
742.084	3873.39
742.269	3912.3
742.454	3852.91
742.639	3975.79
742.824	3932.78
743.01	3922.54
743.195	3973.74
743.38	3832.43
743.565	3789.42
743.75	3893.87
743.935	3953.26
744.12	3801.71
744.305	3666.55
744.49	3736.18
744.675	3758.71
744.86	3762.8
745.045	3820.14
745.23	3580.53
745.415	3730.03
745.6	3709.55
745.785	3537.52
745.97	3703.41
746.155	3650.16
746.34	3537.52
746.525	3553.91
746.71	3607.16
746.895	3308.15
747.079	3478.13
747.264	3422.84
747.449	3471.99
747.634	3478.13
747.819	3545.72
748.003	3435.13
748.188	3330.68
748.373	3418.74
748.557	3492.47
748.742	3349.11
748.927	3365.5
749.111	3271.29
749.296	3279.48
749.481	3373.69
749.665	3179.13
749.85	3281.53
750.034	3267.19
750.219	3195.51
750.404	3050.11
750.588	3207.8
750.773	2894.46
750.957	3074.68
751.141	3086.97
751.326	2994.81
751.51	3035.77
751.695	2943.61
751.879	3035.77
752.064	3011.2
752.248	2908.8
752.432	2982.53
752.617	2949.76
752.801	2808.45
752.985	2955.9
753.17	2882.17
753.354	2923.13
753.538	2839.17
753.722	2857.6
753.907	2824.83
754.091	2681.47
754.275	2761.34
754.459	2730.62
754.643	2796.16
754.828	2693.76
755.012	2767.49
755.196	2581.12
755.38	2626.18
755.564	2546.31
755.748	2488.96
755.932	2587.27
756.116	2529.92
756.3	2474.63
756.484	2472.58
756.668	2417.29
756.852	2368.13
757.036	2300.55
757.22	2415.24
757.404	2298.5
757.588	2345.61
757.772	2472.58
757.956	2329.22
758.14	2409.09
758.323	2275.98
758.507	2257.54
758.691	2239.11
758.875	2361.99
759.059	2337.41
759.242	2212.49
759.426	2214.54
759.61	2292.36
759.794	2271.88
759.977	2212.49
760.161	2241.16
760.345	2095.75
760.528	2136.71
760.712	2159.24
760.895	2007.69
761.079	2052.75
761.263	2153.1
761.446	2099.85
761.63	2099.85
761.813	2151.05
761.997	2038.41
762.18	2087.56
762.364	2030.22
762.547	1911.44
762.731	2058.89
762.914	1919.63
763.098	2040.46
763.281	1933.97
763.464	1944.2
763.648	1964.68
763.831	1946.25
764.015	2017.93
764.198	1981.07
764.381	1862.29
764.564	1895.05
764.748	1933.97
764.931	1907.34
765.114	1845.9
765.297	1858.19
765.481	1835.66
765.664	1917.58
765.847	1735.31
766.03	1972.88
766.213	1768.08
766.397	1743.5
766.58	1821.33
766.763	2030.22
766.946	1815.18
767.129	1729.17
767.312	1784.46
767.495	1774.22
767.678	1788.56
767.861	1663.63
768.044	1819.28
768.227	1698.45
768.41	1753.74
768.593	1796.75
768.776	1700.5
768.959	1569.43
769.142	1653.39
769.324	1651.35
769.507	1634.96
769.69	1604.24
769.873	1606.29
770.056	1632.91
770.239	1702.54
770.421	1649.3
770.604	1673.87
770.787	1450.64
770.97	1563.28
771.152	1620.63
771.335	1645.2
771.518	1544.85
771.7	1497.75
771.883	1485.46
772.066	1514.13
772.248	1555.09
772.431	1528.47
772.613	1501.84
772.796	1415.83
772.978	1505.94
773.161	1571.47
773.343	1458.84
773.526	1469.08
773.708	1342.1
773.891	1329.81
774.073	1401.49
774.256	1323.67
774.438	1565.33
774.621	1395.35
774.803	1440.4
774.985	1393.3
775.168	1335.96
775.35	1440.4
775.532	1452.69
775.715	1243.8
775.897	1333.91
776.079	1327.77
776.261	1264.28
776.444	1295
776.626	1299.09
776.808	1196.7
776.99	1260.18
777.173	1223.32
777.355	1292.95
777.537	1262.23
777.719	1170.07
777.901	1239.7
778.083	1268.38
778.265	1182.36
778.447	1178.26
778.629	1125.02
778.811	1090.2
778.993	1139.35
779.175	1125.02
779.357	1266.33
779.539	1069.72
779.721	1116.83
779.903	1120.92
780.085	1137.31
780.267	1118.87
780.449	1045.15
780.631	1131.16
780.812	1092.25
780.994	1010.33
781.176	973.47
781.358	1043.1
781.54	1082.01
781.721	924.32
781.903	1043.1
782.085	963.23
782.267	1010.33
782.448	944.8
782.63	873.12
782.812	991.9
782.993	981.66
783.175	879.26
783.357	1008.28
783.538	1000.09
783.72	852.64
783.901	928.41
784.083	975.52
784.264	934.56
784.446	819.87
784.627	932.51
784.809	854.69
784.99	819.87
785.172	918.17
785.353	850.59
785.535	809.63
785.716	793.25
785.897	733.86
786.079	754.34
786.26	826.01
786.441	797.34
786.623	709.28
786.804	844.45
786.985	930.46
787.167	772.77
787.348	805.53
787.529	797.34
787.71	850.59
787.891	799.39
788.073	729.76
788.254	744.1
788.435	764.57
788.616	737.95
788.797	701.09
788.978	733.86
789.159	637.6
789.34	643.74
789.522	754.34
789.703	670.37
789.884	662.18
790.065	729.76
790.246	760.48
790.427	670.37
790.607	688.8
790.788	721.57
790.969	660.13
791.15	668.32
791.331	633.51
791.512	678.56
791.693	656.03
791.874	653.98
792.054	772.77
792.235	604.83
792.416	529.06
792.597	619.17
792.778	598.69
792.958	639.65
793.139	645.79
793.32	596.64
793.5	580.26
793.681	588.45
793.862	625.31
794.042	615.07
794.223	524.96
794.404	531.11
794.584	465.57
794.765	549.54
794.945	533.15
795.126	606.88
795.306	651.94
795.487	563.87
795.667	465.57
795.848	680.61
796.028	516.77
796.209	453.28
796.389	481.96
796.57	514.72
796.75	494.24
796.93	572.07
797.111	486.05
797.291	473.76
797.471	430.76
797.652	553.63
797.832	418.47
798.012	522.91
798.192	484
798.373	453.28
798.553	471.72
798.733	524.96
798.913	406.18
799.093	467.62
799.274	553.63
799.454	473.76
799.634	488.1
799.814	445.09
799.994	496.29
800.174	461.48
800.354	518.82
800.534	443.04
800.714	471.72
800.894	471.72
801.074	414.37
801.254	457.38
801.434	426.66
801.614	467.62
801.794	426.66
801.974	1358.49
802.154	393.89
802.334	387.75
802.514	342.69
802.693	430.76
802.873	391.84
803.053	443.04
803.233	567.97
803.413	410.28
803.592	463.52
803.772	363.17
803.952	400.04
804.131	299.69
804.311	451.24
804.491	465.57
804.67	426.66
804.85	391.84
805.03	357.03
805.209	412.32
805.389	408.23
805.568	379.56
805.748	389.8
805.928	328.36
806.107	379.56
806.287	443.04
806.466	359.08
806.646	346.79
806.825	385.7
807.004	369.32
807.184	363.17
807.363	293.54
807.543	389.8
807.722	348.84
807.901	391.84
808.081	322.21
808.26	264.87
808.439	295.59
808.619	346.79
808.798	336.55
808.977	301.73
809.156	367.27
809.336	314.02
809.515	404.13
809.694	332.45
809.873	320.17
810.052	367.27
810.231	334.5
810.411	297.64
810.59	436.9
810.769	387.75
810.948	311.97
811.127	254.63
811.306	316.07
811.485	307.88
811.664	402.08
811.843	332.45
812.022	295.59
812.201	285.35
812.38	373.41
812.559	244.39
812.737	279.21
812.916	279.21
813.095	268.97
813.274	311.97
813.453	238.25
813.632	309.93
813.811	293.54
813.989	180.9
814.168	291.49
814.347	187.05
814.526	291.49
814.704	342.69
814.883	373.41
815.062	221.86
815.24	244.39
815.419	223.91
815.598	203.43
815.776	176.81
815.955	279.21
816.133	131.75
816.312	273.06
816.49	299.69
816.669	223.91
816.847	191.14
817.026	174.76
817.204	203.43
817.383	221.86
817.561	242.34
817.74	275.11
817.918	305.83
818.097	170.66
818.275	187.05
818.453	207.53
818.632	244.39
818.81	193.19
818.988	240.3
819.167	180.9
819.345	240.3
819.523	180.9
819.701	219.82
819.879	219.82
820.058	211.62
820.236	197.29
820.414	221.86
820.592	254.63
820.77	199.34
820.948	166.57
821.127	211.62
821.305	328.36
821.483	223.91
821.661	203.43
821.839	117.42
822.017	178.86
822.195	225.96
822.373	256.68
822.551	193.19
822.729	217.77
822.907	236.2
823.085	205.48
823.262	180.9
823.44	174.76
823.618	211.62
823.796	201.38
823.974	209.58
824.152	225.96
824.329	213.67
824.507	236.2
824.685	207.53
824.863	219.82
825.04	242.34
825.218	189.1
825.396	115.37
825.574	137.9
825.751	178.86
825.929	264.87
826.107	137.9
826.284	193.19
826.462	238.25
826.639	162.47
826.817	107.18
826.994	236.2
827.172	178.86
827.349	223.91
827.527	189.1
827.704	139.94
827.882	215.72
828.059	146.09
828.237	94.89
828.414	221.86
828.591	103.08
828.769	207.53
828.946	154.28
829.124	201.38
829.301	238.25
829.478	197.29
829.655	146.09
829.833	187.05
830.01	166.57
830.187	185
830.364	191.14
830.542	215.72
830.719	258.73
830.896	201.38
831.073	109.23
831.25	211.62
831.427	94.89
831.604	131.75
831.782	203.43
831.959	90.79
832.136	148.14
832.313	162.47
832.49	135.85
832.667	178.86
832.844	185
833.021	193.19
833.198	146.09
833.374	148.14
833.551	178.86
833.728	111.27
833.905	88.75
834.082	74.41
834.259	217.77
834.436	139.94
834.612	119.46
834.789	166.57
834.966	197.29
835.143	98.99
835.319	152.23
835.496	129.7
835.673	111.27
835.85	125.61
836.026	86.7
836.203	246.44
836.38	119.46
836.556	117.42
836.733	101.03
836.909	160.42
837.086	141.99
837.262	115.37
837.439	39.59
837.616	139.94
837.792	66.22
837.968	115.37
838.145	180.9
838.321	170.66
838.498	113.32
838.674	123.56
838.851	156.33
839.027	146.09
839.203	111.27
839.38	146.09
839.556	125.61
839.732	137.9
839.909	107.18
840.085	213.67
840.261	78.51
840.437	123.56
840.614	162.47
840.79	223.91
840.966	135.85
841.142	66.22
841.318	15.02
841.494	135.85
841.671	109.23
841.847	33.45
842.023	96.94
842.199	119.46
842.375	125.61
842.551	55.98
842.727	94.89
842.903	207.53
843.079	109.23
843.255	137.9
843.431	92.84
843.607	74.41
843.783	72.36
843.959	90.79
844.134	101.03
844.31	221.86
844.486	39.59
844.662	119.46
844.838	137.9
845.013	80.55
845.189	90.79
845.365	80.55
845.541	152.23
845.716	90.79
845.892	113.32
846.068	55.98
846.244	60.07
846.419	113.32
846.595	80.55
846.77	23.21
846.946	74.41
847.122	113.32
847.297	49.83
847.473	166.57
847.648	66.22
847.824	139.94
847.999	39.59
848.175	133.8
848.35	154.28
848.526	195.24
848.701	66.22
848.876	117.42
849.052	180.9
849.227	72.36
849.403	101.03
849.578	111.27
849.753	107.18
849.929	113.32
850.104	86.7
850.279	121.51
850.454	141.99
850.63	117.42
850.805	60.07
850.98	125.61
851.155	62.12
851.33	107.18
851.505	62.12
851.681	127.66
851.856	0.68
852.031	115.37
852.206	55.98
852.381	19.11
852.556	92.84
852.731	84.65
852.906	39.59
853.081	113.32
853.256	148.14
853.431	68.27
853.606	33.45
853.781	33.45
853.956	19.11
854.131	129.7
854.305	-11.61
854.48	8.87
854.655	35.5
854.83	80.55
855.005	68.27
855.18	101.03
855.354	60.07
855.529	72.36
855.704	39.59
855.879	74.41
856.053	55.98
856.228	82.6
856.403	80.55
856.577	76.46
856.752	47.79
856.926	39.59
857.101	119.46
857.276	2.73
857.45	137.9
857.625	133.8
857.799	23.21
857.974	117.42
858.148	17.07
858.323	92.84
858.497	62.12
858.672	-3.41
858.846	27.31
859.02	137.9
859.195	43.69
859.369	33.45
859.543	60.07
859.718	94.89
859.892	88.75
860.066	88.75
860.241	-19.8
860.415	45.74
860.589	58.03
860.763	41.64
860.938	-7.51
861.112	90.79
861.286	53.93
861.46	60.07
861.634	76.46
861.808	121.51
861.982	12.97
862.157	64.17
862.331	31.4
862.505	-17.75
862.679	25.26
862.853	105.13
863.027	-5.46
863.201	146.09
863.375	-1.37
863.549	51.88
863.722	82.6
863.896	43.69
864.07	64.17
864.244	41.64
864.418	72.36
864.592	72.36
864.766	119.46
864.939	47.79
865.113	96.94
865.287	154.28
865.461	-83.28
865.634	-32.08
865.808	49.83
865.982	66.22
866.156	-75.09
866.329	35.5
866.503	76.46
866.676	45.74
866.85	29.35
867.024	33.45
867.197	105.13
867.371	98.99
867.544	-17.75
867.718	-30.04
867.891	72.36
868.065	-21.85
868.238	58.03
868.412	33.45
868.585	23.21
868.759	-13.65
868.932	39.59
869.105	41.64
869.279	-25.94
869.452	41.64
869.625	96.94
869.799	72.36
869.972	33.45
870.145	88.75
870.319	141.99
870.492	15.02
870.665	78.51
870.838	37.55
871.011	-56.66
871.185	103.08
871.358	-42.32
871.531	107.18
871.704	41.64
871.877	35.5
872.05	60.07
872.223	21.16
872.396	64.17
872.569	105.13
872.742	35.5
872.915	35.5
873.088	64.17
873.261	64.17
873.434	21.16
873.607	29.35
873.78	58.03
873.953	55.98
874.126	68.27
874.299	37.55
874.471	51.88
874.644	47.79
874.817	78.51
874.99	121.51
875.163	10.92
875.335	58.03
875.508	-17.75
875.681	94.89
875.853	43.69
876.026	53.93
876.199	68.27
876.371	25.26
876.544	19.11
876.717	94.89
876.889	4.78
877.062	94.89
877.234	12.97
877.407	10.92
877.579	-23.89
877.752	4.78
877.924	105.13
878.097	-7.51
878.269	21.16
878.442	47.79
878.614	68.27
878.786	55.98
878.959	76.46
879.131	64.17
879.303	-87.38
879.476	72.36
879.648	98.99
879.82	117.42
879.993	21.16
880.165	23.21
880.337	29.35
880.509	49.83
880.681	-7.51
880.854	2.73
881.026	146.09
881.198	76.46
881.37	-21.85
881.542	123.56
881.714	74.41
881.886	19.11
882.058	27.31
882.23	12.97
882.402	35.5
882.574	39.59
882.746	76.46
882.918	35.5
883.09	4.78
883.262	6.83
883.434	53.93
883.606	-60.76
883.778	70.31
883.95	92.84
884.122	103.08
884.293	37.55
884.465	-1.37
884.637	51.88
884.809	23.21
884.98	-23.89
885.152	17.07
885.324	144.04
885.496	43.69
885.667	-5.46
885.839	-5.46
886.011	82.6
886.182	76.46
886.354	17.07
886.525	19.11
886.697	76.46
886.869	-30.04
887.04	-42.32
887.212	98.99
887.383	170.66
887.555	-13.65
887.726	-5.46
887.897	-7.51
888.069	4.78
888.24	60.07
888.412	-3.41
888.583	-25.94
888.754	4.78
888.926	-5.46
889.097	-13.65
889.268	68.27
889.44	47.79
889.611	-3.41
889.782	-30.04
889.953	4.78
890.125	92.84
890.296	-34.13
890.467	53.93
890.638	-91.48
890.809	35.5
890.98	-11.61
891.151	-1.37
891.323	92.84
891.494	74.41
891.665	-58.71
891.836	94.89
892.007	-9.56
892.178	72.36
892.349	82.6
892.52	27.31
892.691	12.97
892.862	-9.56
893.032	-7.51
893.203	2.73
893.374	43.69
893.545	68.27
893.716	-30.04
893.887	60.07
894.057	6.83
894.228	-5.46
894.399	12.97
894.57	101.03
894.74	119.46
894.911	60.07
895.082	17.07
895.253	23.21
895.423	29.35
895.594	23.21
895.764	78.51
895.935	-34.13
896.106	109.23
896.276	-34.13
896.447	49.83
896.617	21.16
896.788	-60.76
896.958	45.74
897.129	17.07
897.299	8.87
897.47	84.65
897.64	141.99
897.81	25.26
897.981	82.6
898.151	-50.52
898.322	23.21
898.492	33.45
898.662	-32.08
898.832	12.97
899.003	64.17
899.173	25.26
899.343	6.83
899.513	-17.75
