Data from USB4F104151__49__13-05-24-044.txt Node

Date: Fri Mar 14 13:05:24 EDT 2025
User: louis
Spectrometer: USB4F10415
Trigger mode: 4
Integration Time (sec): 4.000000E-2
Scans to average: 1
Electric dark correction enabled: true
Nonlinearity correction enabled: false
Boxcar width: 0
XAxis mode: Wavelengths
Number of Pixels in Spectrum: 3648
>>>>>Begin Spectral Data<<<<<
178.204	-141.99
178.424	-141.99
178.644	-141.99
178.864	-176.81
179.084	-221.86
179.304	23.89
179.524	-33.45
179.744	48.47
179.964	9.56
180.184	32.08
180.404	-10.92
180.624	-21.16
180.844	-4.78
181.064	-80.55
181.283	48.47
181.503	-49.83
181.723	38.23
181.943	-33.45
182.163	138.58
182.383	-23.21
182.602	81.24
182.822	97.62
183.042	81.24
183.262	-25.26
183.482	-23.21
183.701	58.71
183.921	25.94
184.141	-0.68
184.361	136.53
184.58	75.09
184.8	36.18
185.02	58.71
185.239	-0.68
185.459	-35.5
185.679	34.13
185.898	-43.69
186.118	95.57
186.338	-31.4
186.557	44.37
186.777	30.04
186.997	11.61
187.216	56.66
187.436	81.24
187.655	77.14
187.875	21.85
188.095	-29.35
188.314	32.08
188.534	85.33
188.753	-4.78
188.973	48.47
189.192	48.47
189.412	52.56
189.631	40.28
189.851	-6.83
190.07	44.37
190.29	-45.74
190.509	-35.5
190.729	11.61
190.948	15.7
191.168	292.18
191.387	64.85
191.607	38.23
191.826	58.71
192.045	-4.78
192.265	52.56
192.484	50.52
192.704	-31.4
192.923	-35.5
193.142	105.81
193.362	-15.02
193.581	32.08
193.8	91.48
194.02	19.8
194.239	23.89
194.458	144.72
194.678	9.56
194.897	73.04
195.116	-47.79
195.335	146.77
195.555	36.18
195.774	42.32
195.993	-8.87
196.212	118.1
196.432	3.41
196.651	56.66
196.87	58.71
197.089	159.06
197.308	-17.07
197.528	32.08
197.747	40.28
197.966	-39.59
198.185	89.43
198.404	48.47
198.623	64.85
198.842	89.43
199.062	83.28
199.281	52.56
199.5	17.75
199.719	36.18
199.938	128.34
200.157	58.71
200.376	40.28
200.595	-2.73
200.814	-21.16
201.033	-2.73
201.252	99.67
201.471	3.41
201.69	-15.02
201.909	15.7
202.128	62.8
202.347	48.47
202.566	73.04
202.785	32.08
203.004	-8.87
203.223	124.24
203.442	-4.78
203.661	-37.55
203.879	30.04
204.098	32.08
204.317	23.89
204.536	42.32
204.755	19.8
204.974	128.34
205.193	105.81
205.411	171.35
205.63	66.9
205.849	-17.07
206.068	7.51
206.287	3.41
206.505	107.86
206.724	40.28
206.943	15.7
207.162	-51.88
207.381	93.52
207.599	64.85
207.818	95.57
208.037	21.85
208.255	64.85
208.474	40.28
208.693	64.85
208.911	-21.16
209.13	-12.97
209.349	71
209.567	105.81
209.786	114
210.005	21.85
210.223	44.37
210.442	36.18
210.661	-4.78
210.879	-2.73
211.098	21.85
211.316	91.48
211.535	40.28
211.753	83.28
211.972	19.8
212.191	-90.79
212.409	-31.4
212.628	48.47
212.846	-17.07
213.065	73.04
213.283	56.66
213.502	15.7
213.72	81.24
213.938	68.95
214.157	3.41
214.375	40.28
214.594	-17.07
214.812	36.18
215.031	23.89
215.249	5.46
215.467	73.04
215.686	-49.83
215.904	38.23
216.122	79.19
216.341	114
216.559	32.08
216.778	93.52
216.996	32.08
217.214	-2.73
217.432	7.51
217.651	-37.55
217.869	34.13
218.087	56.66
218.306	-53.93
218.524	75.09
218.742	-76.46
218.96	-17.07
219.179	5.46
219.397	7.51
219.615	116.05
219.833	15.7
220.051	64.85
220.27	75.09
220.488	54.61
220.706	34.13
220.924	5.46
221.142	32.08
221.36	38.23
221.578	-15.02
221.796	19.8
222.015	44.37
222.233	9.56
222.451	50.52
222.669	-70.31
222.887	97.62
223.105	-37.55
223.323	50.52
223.541	95.57
223.759	-25.26
223.977	42.32
224.195	163.15
224.413	68.95
224.631	7.51
224.849	-25.26
225.067	148.82
225.285	48.47
225.503	32.08
225.721	-113.32
225.939	-0.68
226.157	60.76
226.375	146.77
226.592	-45.74
226.81	1.37
227.028	21.85
227.246	11.61
227.464	38.23
227.682	79.19
227.9	27.99
228.117	-12.97
228.335	25.94
228.553	89.43
228.771	93.52
228.989	34.13
229.206	58.71
229.424	30.04
229.642	23.89
229.86	21.85
230.077	62.8
230.295	-8.87
230.513	169.3
230.731	87.38
230.948	189.78
231.166	126.29
231.384	95.57
231.601	3.41
231.819	50.52
232.037	-45.74
232.254	15.7
232.472	23.89
232.689	-10.92
232.907	23.89
233.125	19.8
233.342	44.37
233.56	-12.97
233.777	109.91
233.995	19.8
234.213	146.77
234.43	-35.5
234.648	56.66
234.865	32.08
235.083	-0.68
235.3	58.71
235.518	107.86
235.735	68.95
235.953	109.91
236.17	-41.64
236.388	-51.88
236.605	44.37
236.822	13.65
237.04	71
237.257	13.65
237.475	3.41
237.692	1.37
237.909	79.19
238.127	73.04
238.344	48.47
238.562	32.08
238.779	30.04
238.996	-27.31
239.214	19.8
239.431	66.9
239.648	-4.78
239.865	71
240.083	27.99
240.3	19.8
240.517	44.37
240.735	66.9
240.952	97.62
241.169	54.61
241.386	7.51
241.603	23.89
241.821	-62.12
242.038	64.85
242.255	101.72
242.472	-35.5
242.689	40.28
242.907	142.68
243.124	50.52
243.341	-15.02
243.558	-68.27
243.775	-64.17
243.992	-25.26
244.209	19.8
244.426	179.54
244.643	23.89
244.86	50.52
245.078	68.95
245.295	66.9
245.512	73.04
245.729	11.61
245.946	58.71
246.163	7.51
246.38	15.7
246.597	-10.92
246.814	44.37
247.031	25.94
247.248	52.56
247.464	81.24
247.681	105.81
247.898	58.71
248.115	-4.78
248.332	5.46
248.549	97.62
248.766	77.14
248.983	42.32
249.2	7.51
249.417	83.28
249.633	-43.69
249.85	-49.83
250.067	87.38
250.284	27.99
250.501	30.04
250.717	-6.83
250.934	-4.78
251.151	34.13
251.368	3.41
251.585	83.28
251.801	42.32
252.018	-94.89
252.235	50.52
252.451	-21.16
252.668	60.76
252.885	5.46
253.102	122.2
253.318	52.56
253.535	-66.22
253.752	-4.78
253.968	42.32
254.185	23.89
254.401	-58.03
254.618	58.71
254.835	-31.4
255.051	99.67
255.268	1.37
255.484	46.42
255.701	56.66
255.917	-17.07
256.134	-41.64
256.351	128.34
256.567	-35.5
256.784	34.13
257	25.94
257.217	11.61
257.433	27.99
257.65	19.8
257.866	56.66
258.082	-25.26
258.299	-19.11
258.515	48.47
258.732	-33.45
258.948	44.37
259.165	62.8
259.381	-62.12
259.597	64.85
259.814	-6.83
260.03	-27.31
260.246	36.18
260.463	136.53
260.679	111.96
260.895	50.52
261.112	126.29
261.328	36.18
261.544	-41.64
261.761	75.09
261.977	-17.07
262.193	-82.6
262.409	126.29
262.626	81.24
262.842	19.8
263.058	-55.98
263.274	101.72
263.49	42.32
263.707	-4.78
263.923	40.28
264.139	-17.07
264.355	48.47
264.571	77.14
264.787	34.13
265.004	3.41
265.22	38.23
265.436	56.66
265.652	7.51
265.868	-8.87
266.084	-21.16
266.3	3.41
266.516	-43.69
266.732	50.52
266.948	-17.07
267.164	58.71
267.38	66.9
267.596	95.57
267.812	81.24
268.028	64.85
268.244	64.85
268.46	81.24
268.676	42.32
268.892	58.71
269.108	-17.07
269.324	-33.45
269.54	-10.92
269.756	91.48
269.972	-41.64
270.188	3.41
270.403	-10.92
270.619	-21.16
270.835	38.23
271.051	71
271.267	1.37
271.483	60.76
271.698	25.94
271.914	64.85
272.13	-29.35
272.346	11.61
272.562	101.72
272.777	60.76
272.993	42.32
273.209	81.24
273.425	68.95
273.64	27.99
273.856	40.28
274.072	36.18
274.287	3.41
274.503	52.56
274.719	124.24
274.934	66.9
275.15	-10.92
275.366	15.7
275.581	-19.11
275.797	-33.45
276.012	-8.87
276.228	79.19
276.444	-6.83
276.659	77.14
276.875	60.76
277.09	11.61
277.306	15.7
277.521	73.04
277.737	58.71
277.952	54.61
278.168	-2.73
278.383	-6.83
278.599	95.57
278.814	118.1
279.03	56.66
279.245	64.85
279.461	-2.73
279.676	60.76
279.892	-41.64
280.107	-39.59
280.322	19.8
280.538	91.48
280.753	73.04
280.969	34.13
281.184	38.23
281.399	46.42
281.615	-25.26
281.83	25.94
282.045	-68.27
282.26	19.8
282.476	42.32
282.691	120.15
282.906	68.95
283.122	-21.16
283.337	-29.35
283.552	146.77
283.767	-0.68
283.983	40.28
284.198	5.46
284.413	48.47
284.628	9.56
284.843	-6.83
285.058	1.37
285.274	44.37
285.489	21.85
285.704	66.9
285.919	7.51
286.134	64.85
286.349	66.9
286.564	-15.02
286.779	101.72
286.995	44.37
287.21	-21.16
287.425	58.71
287.64	-6.83
287.855	114
288.07	9.56
288.285	60.76
288.5	54.61
288.715	81.24
288.93	-35.5
289.145	42.32
289.36	66.9
289.575	1.37
289.79	56.66
290.004	-6.83
290.219	79.19
290.434	48.47
290.649	1.37
290.864	66.9
291.079	105.81
291.294	40.28
291.509	64.85
291.724	77.14
291.938	73.04
292.153	30.04
292.368	21.85
292.583	-2.73
292.798	-8.87
293.012	1.37
293.227	34.13
293.442	-58.03
293.657	99.67
293.871	32.08
294.086	7.51
294.301	97.62
294.516	85.33
294.73	36.18
294.945	-70.31
295.16	36.18
295.374	30.04
295.589	15.7
295.804	34.13
296.018	5.46
296.233	79.19
296.447	38.23
296.662	23.89
296.877	54.61
297.091	138.58
297.306	25.94
297.52	23.89
297.735	60.76
297.949	114
298.164	21.85
298.378	-8.87
298.593	-25.26
298.807	30.04
299.022	-33.45
299.236	48.47
299.451	85.33
299.665	-45.74
299.88	87.38
300.094	-8.87
300.309	32.08
300.523	17.75
300.737	-15.02
300.952	3.41
301.166	48.47
301.381	56.66
301.595	-25.26
301.809	40.28
302.024	23.89
302.238	-47.79
302.452	66.9
302.667	-6.83
302.881	146.77
303.095	89.43
303.309	58.71
303.524	-35.5
303.738	-10.92
303.952	-17.07
304.166	83.28
304.381	-70.31
304.595	122.2
304.809	17.75
305.023	62.8
305.237	-19.11
305.452	42.32
305.666	73.04
305.88	50.52
306.094	34.13
306.308	-74.41
306.522	73.04
306.736	9.56
306.95	11.61
307.164	30.04
307.379	-21.16
307.593	165.2
307.807	83.28
308.021	-0.68
308.235	15.7
308.449	17.75
308.663	-19.11
308.877	91.48
309.091	1.37
309.305	40.28
309.519	-25.26
309.733	56.66
309.947	-117.42
310.161	44.37
310.374	-23.21
310.588	36.18
310.802	34.13
311.016	42.32
311.23	36.18
311.444	-23.21
311.658	64.85
311.872	58.71
312.085	60.76
312.299	81.24
312.513	34.13
312.727	64.85
312.941	-10.92
313.154	122.2
313.368	-4.78
313.582	30.04
313.796	40.28
314.009	73.04
314.223	126.29
314.437	17.75
314.651	89.43
314.864	77.14
315.078	-21.16
315.292	-0.68
315.505	-17.07
315.719	66.9
315.933	-23.21
316.146	93.52
316.36	-49.83
316.573	44.37
316.787	36.18
317.001	-0.68
317.214	103.76
317.428	11.61
317.641	-105.13
317.855	48.47
318.068	7.51
318.282	9.56
318.495	130.39
318.709	91.48
318.922	73.04
319.136	114
319.349	30.04
319.563	17.75
319.776	15.7
319.99	-33.45
320.203	75.09
320.417	42.32
320.63	109.91
320.843	79.19
321.057	99.67
321.27	23.89
321.483	25.94
321.697	73.04
321.91	-39.59
322.124	-2.73
322.337	-33.45
322.55	5.46
322.763	56.66
322.977	32.08
323.19	42.32
323.403	64.85
323.617	89.43
323.83	23.89
324.043	25.94
324.256	97.62
324.469	91.48
324.683	23.89
324.896	40.28
325.109	40.28
325.322	46.42
325.535	15.7
325.748	85.33
325.962	-98.99
326.175	40.28
326.388	132.44
326.601	97.62
326.814	-4.78
327.027	42.32
327.24	122.2
327.453	-60.07
327.666	30.04
327.879	77.14
328.092	109.91
328.305	68.95
328.518	-35.5
328.731	44.37
328.944	40.28
329.157	73.04
329.37	11.61
329.583	105.81
329.796	120.15
330.009	23.89
330.222	27.99
330.435	122.2
330.648	32.08
330.861	99.67
331.073	73.04
331.286	77.14
331.499	27.99
331.712	-6.83
331.925	-12.97
332.138	7.51
332.35	81.24
332.563	3.41
332.776	79.19
332.989	36.18
333.202	71
333.414	48.47
333.627	9.56
333.84	62.8
334.053	-37.55
334.265	56.66
334.478	50.52
334.691	50.52
334.903	34.13
335.116	7.51
335.329	66.9
335.541	81.24
335.754	75.09
335.966	50.52
336.179	21.85
336.392	9.56
336.604	23.89
336.817	93.52
337.029	77.14
337.242	-74.41
337.454	138.58
337.667	27.99
337.88	83.28
338.092	52.56
338.305	75.09
338.517	56.66
338.729	134.48
338.942	116.05
339.154	17.75
339.367	-105.13
339.579	85.33
339.792	19.8
340.004	34.13
340.217	40.28
340.429	58.71
340.641	32.08
340.854	42.32
341.066	91.48
341.278	87.38
341.491	77.14
341.703	38.23
341.915	-29.35
342.128	5.46
342.34	48.47
342.552	-6.83
342.764	71
342.977	52.56
343.189	89.43
343.401	-19.11
343.613	38.23
343.826	165.2
344.038	-84.65
344.25	66.9
344.462	75.09
344.674	99.67
344.886	50.52
345.099	5.46
345.311	-2.73
345.523	27.99
345.735	-37.55
345.947	-6.83
346.159	52.56
346.371	71
346.583	38.23
346.795	93.52
347.007	-8.87
347.219	-41.64
347.431	40.28
347.643	73.04
347.855	17.75
348.067	9.56
348.279	17.75
348.491	93.52
348.703	-15.02
348.915	38.23
349.127	52.56
349.339	56.66
349.551	46.42
349.763	54.61
349.975	17.75
350.187	64.85
350.399	50.52
350.61	99.67
350.822	50.52
351.034	75.09
351.246	64.85
351.458	30.04
351.669	32.08
351.881	85.33
352.093	34.13
352.305	148.82
352.517	42.32
352.728	21.85
352.94	68.95
353.152	48.47
353.363	9.56
353.575	34.13
353.787	79.19
353.999	132.44
354.21	21.85
354.422	46.42
354.633	-10.92
354.845	32.08
355.057	83.28
355.268	81.24
355.48	46.42
355.692	89.43
355.903	3.41
356.115	40.28
356.326	-53.93
356.538	75.09
356.749	68.95
356.961	83.28
357.172	9.56
357.384	32.08
357.595	97.62
357.807	50.52
358.018	54.61
358.23	27.99
358.441	42.32
358.653	46.42
358.864	60.76
359.075	36.18
359.287	34.13
359.498	105.81
359.709	44.37
359.921	-35.5
360.132	19.8
360.344	32.08
360.555	11.61
360.766	73.04
360.977	73.04
361.189	36.18
361.4	101.72
361.611	95.57
361.823	46.42
362.034	73.04
362.245	36.18
362.456	-12.97
362.667	15.7
362.879	23.89
363.09	30.04
363.301	-2.73
363.512	-2.73
363.723	36.18
363.935	-4.78
364.146	48.47
364.357	23.89
364.568	19.8
364.779	27.99
364.99	42.32
365.201	-10.92
365.412	75.09
365.623	-68.27
365.834	50.52
366.045	7.51
366.256	79.19
366.467	25.94
366.678	66.9
366.889	58.71
367.1	38.23
367.311	101.72
367.522	91.48
367.733	54.61
367.944	25.94
368.155	25.94
368.366	44.37
368.577	95.57
368.788	38.23
368.999	-37.55
369.209	60.76
369.42	109.91
369.631	93.52
369.842	93.52
370.053	40.28
370.264	85.33
370.474	89.43
370.685	60.76
370.896	118.1
371.107	58.71
371.317	91.48
371.528	97.62
371.739	32.08
371.95	40.28
372.16	48.47
372.371	60.76
372.582	58.71
372.792	-41.64
373.003	93.52
373.214	27.99
373.424	15.7
373.635	1.37
373.846	11.61
374.056	95.57
374.267	81.24
374.477	-23.21
374.688	-0.68
374.898	73.04
375.109	152.92
375.319	71
375.53	40.28
375.74	50.52
375.951	17.75
376.161	66.9
376.372	105.81
376.582	-12.97
376.793	62.8
377.003	68.95
377.214	48.47
377.424	77.14
377.635	62.8
377.845	-55.98
378.055	11.61
378.266	5.46
378.476	1.37
378.686	34.13
378.897	34.13
379.107	44.37
379.317	54.61
379.528	46.42
379.738	122.2
379.948	40.28
380.158	114
380.369	19.8
380.579	85.33
380.789	85.33
380.999	34.13
381.21	13.65
381.42	132.44
381.63	17.75
381.84	62.8
382.05	75.09
382.261	111.96
382.471	148.82
382.681	40.28
382.891	77.14
383.101	97.62
383.311	3.41
383.521	23.89
383.731	60.76
383.941	42.32
384.151	60.76
384.361	60.76
384.571	27.99
384.781	50.52
384.991	91.48
385.201	140.63
385.411	97.62
385.621	93.52
385.831	7.51
386.041	64.85
386.251	48.47
386.461	73.04
386.671	81.24
386.881	105.81
387.091	48.47
387.301	97.62
387.511	50.52
387.72	105.81
387.93	64.85
388.14	-62.12
388.35	101.72
388.56	89.43
388.769	138.58
388.979	52.56
389.189	30.04
389.399	124.24
389.609	150.87
389.818	99.67
390.028	38.23
390.238	85.33
390.447	-41.64
390.657	118.1
390.867	134.48
391.076	-19.11
391.286	52.56
391.496	32.08
391.705	56.66
391.915	120.15
392.125	122.2
392.334	56.66
392.544	109.91
392.753	81.24
392.963	87.38
393.172	79.19
393.382	116.05
393.591	116.05
393.801	91.48
394.01	195.92
394.22	60.76
394.429	7.51
394.639	54.61
394.848	111.96
395.058	101.72
395.267	85.33
395.477	140.63
395.686	114
395.895	171.35
396.105	154.96
396.314	122.2
396.524	81.24
396.733	122.2
396.942	140.63
397.152	91.48
397.361	97.62
397.57	79.19
397.78	91.48
397.989	32.08
398.198	122.2
398.407	93.52
398.617	68.95
398.826	150.87
399.035	34.13
399.244	146.77
399.453	103.76
399.663	75.09
399.872	56.66
400.081	34.13
400.29	89.43
400.499	75.09
400.708	128.34
400.917	83.28
401.127	77.14
401.336	46.42
401.545	140.63
401.754	144.72
401.963	128.34
402.172	79.19
402.381	64.85
402.59	87.38
402.799	122.2
403.008	167.25
403.217	157.01
403.426	118.1
403.635	75.09
403.844	50.52
404.053	17.75
404.262	44.37
404.471	169.3
404.68	124.24
404.888	124.24
405.097	99.67
405.306	138.58
405.515	206.16
405.724	58.71
405.933	118.1
406.142	171.35
406.35	146.77
406.559	138.58
406.768	114
406.977	253.27
407.185	200.02
407.394	165.2
407.603	46.42
407.812	232.79
408.02	179.54
408.229	89.43
408.438	265.55
408.646	99.67
408.855	165.2
409.064	185.68
409.272	179.54
409.481	283.99
409.69	173.39
409.898	253.27
410.107	183.63
410.315	232.79
410.524	283.99
410.733	286.03
410.941	261.46
411.15	374.1
411.358	355.66
411.567	320.85
411.775	378.19
411.984	335.18
412.192	380.24
412.401	365.9
412.609	415.06
412.818	496.97
413.026	480.59
413.234	427.34
413.443	359.76
413.651	443.73
413.86	521.55
414.068	582.99
414.276	605.52
414.485	533.84
414.693	607.56
414.901	660.81
415.11	601.42
415.318	642.38
415.526	623.95
415.734	679.24
415.943	681.29
416.151	671.05
416.359	726.35
416.567	816.46
416.776	879.94
416.984	773.45
417.192	777.55
417.4	857.42
417.608	802.12
417.817	830.79
418.025	955.72
418.233	968.01
418.441	984.39
418.649	972.1
418.857	1166.66
419.065	1174.85
419.273	1039.69
419.481	1262.91
419.689	1174.85
419.897	1350.98
420.105	1281.35
420.313	1365.31
420.521	1393.98
420.729	1457.47
420.937	1471.81
421.145	1498.43
421.353	1604.92
421.561	1682.75
421.769	1762.62
421.977	1688.89
422.185	1662.27
422.393	1916.22
422.601	1918.26
422.809	1867.06
423.017	2063.67
423.224	1989.94
423.432	2000.18
423.64	2153.78
423.848	2350.39
424.056	2194.74
424.263	2454.83
424.471	2438.45
424.679	2585.9
424.887	2643.24
425.094	2770.22
425.302	2735.4
425.51	2929.96
425.718	2753.84
425.925	2907.43
426.133	3015.98
426.341	3296.55
426.548	3341.6
426.756	3396.9
426.964	3454.24
427.171	3673.37
427.379	3573.02
427.586	3677.47
427.794	3976.47
428.001	4001.05
428.209	4085.02
428.417	4322.58
428.624	4476.18
428.832	4334.87
429.039	4316.44
429.247	4412.69
429.454	4812.04
429.662	5096.71
429.869	4754.7
430.076	5383.43
430.284	5072.14
430.491	5348.61
430.699	5600.51
430.906	5627.14
431.114	5469.44
431.321	5885.18
431.528	5915.9
431.736	6284.53
431.943	6647.02
432.15	6487.28
432.358	6657.26
432.565	6708.46
432.772	6847.72
432.979	7195.88
433.187	7347.43
433.394	7218.41
433.601	7865.57
433.808	7875.81
434.016	7933.15
434.223	8053.98
434.43	8471.76
434.637	8346.84
434.844	8987.85
435.052	9166.03
435.259	9264.33
435.466	9286.86
435.673	9131.21
435.88	9774.27
436.087	10509.49
436.294	10378.42
436.501	9962.69
436.708	10245.31
436.915	10521.78
437.122	10927.28
437.329	11107.5
437.537	11488.42
437.743	11570.34
437.95	11355.3
438.157	12014.75
438.364	12395.67
438.571	12450.97
438.778	12545.17
438.985	13685.89
439.192	13087.89
439.399	13755.52
439.606	13198.48
439.813	14099.58
440.02	14982.26
440.227	14414.97
440.433	14488.7
440.64	15015.02
440.847	15107.18
441.054	15244.4
441.261	16129.12
441.467	15928.42
441.674	16215.13
441.881	16763.99
442.088	16761.94
442.294	16569.43
442.501	17445.96
442.708	17550.41
442.914	18136.13
443.121	19201.07
443.328	18816.05
443.534	19821.61
443.741	19176.5
443.948	19184.69
444.154	20319.26
444.361	20364.32
444.568	20567.07
444.774	20556.83
444.981	20704.28
445.187	21398.54
445.394	22217.73
445.6	22000.65
445.807	24232.93
446.013	23172.08
446.22	23077.88
446.426	24624.09
446.633	24816.6
446.839	25459.66
447.046	24179.68
447.252	25813.96
447.459	25463.76
447.665	25545.68
447.871	26790.84
448.078	27982.76
448.284	26680.25
448.491	27599.79
448.697	28435.36
448.903	29234.07
449.11	29363.09
449.316	28695.46
449.522	29062.04
449.728	30305.16
449.935	29948.81
450.141	30270.34
450.347	31075.2
450.553	30094.22
450.76	30352.26
450.966	31116.15
451.172	31224.7
451.378	31755.12
451.584	31337.34
451.791	32060.27
451.997	32197.48
452.203	32744.29
452.409	32615.27
452.615	32168.81
452.821	31114.11
453.027	30698.37
453.233	32426.85
453.44	31044.48
453.646	31699.83
453.852	32082.8
454.058	32531.3
454.264	31611.76
454.47	32224.11
454.676	31247.22
454.882	32547.68
455.088	29445.01
455.294	30335.88
455.5	30407.56
455.705	31101.82
455.911	29891.47
456.117	29287.32
456.323	28603.3
456.529	27157.43
456.735	28709.79
456.941	27827.12
457.147	27040.7
457.352	26440.64
457.558	26164.17
457.764	26371.01
457.97	25914.31
458.176	25424.85
458.381	25166.81
458.587	23962.6
458.793	23868.39
458.999	22774.78
459.204	24503.26
459.41	23813.1
459.616	22105.09
459.821	22045.7
460.027	21980.17
460.233	21875.72
460.438	20370.46
460.644	20655.13
460.85	19655.72
461.055	19493.93
461.261	19385.39
461.466	18158.66
461.672	17636.42
461.878	18607.16
462.083	17531.98
462.289	17218.64
462.494	16952.4
462.7	16237.66
462.905	15934.56
463.111	16256.09
463.316	16417.88
463.522	16041.06
463.727	15909.99
463.932	15875.17
464.138	15684.71
464.343	15758.44
464.549	15309.93
464.754	15955.04
464.959	15484.01
465.165	15494.25
465.37	14924.91
465.575	14433.4
465.781	15223.92
465.986	15576.17
466.191	14660.73
466.397	14468.22
466.602	13808.77
466.807	14412.92
467.012	14357.63
467.218	14146.69
467.423	14253.18
467.628	14048.38
467.833	14572.66
468.038	14161.02
468.244	13567.11
468.449	14238.84
468.654	13624.45
468.859	13747.33
469.064	13653.12
469.269	13038.73
469.474	13151.37
469.679	13350.03
469.885	12991.63
470.09	13094.03
470.295	13053.07
470.5	12682.39
470.705	13132.94
470.91	12741.78
471.115	12229.79
471.32	12795.03
471.525	12543.13
471.73	12328.09
471.935	12246.17
472.139	11881.63
472.344	11988.13
472.549	11781.28
472.754	11893.92
472.959	11627.68
473.164	11371.69
473.369	11099.31
473.574	11697.31
473.778	11644.07
473.983	11300.01
474.188	11472.04
474.393	10726.58
474.598	10595.51
474.802	10740.91
475.007	10710.19
475.212	10695.86
475.417	10294.46
475.621	10486.97
475.826	10429.62
476.031	10212.54
476.235	9884.86
476.44	10233.02
476.645	9823.42
476.849	9934.01
477.054	9940.16
477.259	9575.62
477.463	9856.19
477.668	9395.4
477.872	9555.14
478.077	9551.04
478.282	9020.62
478.486	9020.62
478.691	9006.28
478.895	8889.55
479.1	9084.11
479.304	9028.81
479.509	8746.19
479.713	8940.75
479.918	8553.68
480.122	8643.79
480.326	8639.7
480.531	8598.74
480.735	8649.94
480.94	8479.96
481.144	8459.48
481.348	8129.75
481.553	8414.42
481.757	8101.08
481.961	8191.19
482.166	8504.53
482.37	8324.31
482.574	8162.52
482.778	8277.21
482.983	8469.72
483.187	8256.73
483.391	8256.73
483.595	8213.72
483.8	8172.76
484.004	8334.55
484.208	8293.59
484.412	8338.65
484.616	8361.17
484.821	8301.78
485.025	8006.88
485.229	8209.62
485.433	8322.26
485.637	8129.75
485.841	8207.58
486.045	8187.1
486.249	8371.41
486.453	8279.25
486.657	8283.35
486.861	8348.89
487.065	8166.62
487.269	8348.89
487.473	8072.41
487.677	8320.21
487.881	8291.54
488.085	8240.34
488.289	8361.17
488.493	8254.68
488.697	8400.09
488.901	8295.64
489.105	8326.36
489.309	8125.66
489.512	8512.72
489.716	8271.06
489.92	8420.56
490.124	8584.4
490.328	8570.07
490.531	8318.17
490.735	8471.76
490.939	8406.23
491.143	8398.04
491.346	8434.9
491.55	8553.68
491.754	8494.29
491.958	8731.86
492.161	8711.38
492.365	8635.6
492.569	8586.45
492.772	8660.18
492.976	8666.32
493.18	8551.63
493.383	8879.31
493.587	8938.7
493.79	9086.15
493.994	8936.65
494.197	9002.19
494.401	9151.69
494.605	9219.27
494.808	9163.98
495.012	9211.08
495.215	9432.26
495.419	9559.24
495.622	9360.58
495.825	9731.26
496.029	9542.85
496.232	9710.79
496.436	9716.93
496.639	9954.49
496.843	9737.41
497.046	10073.28
497.249	10167.48
497.453	10325.18
497.656	10345.66
497.859	10398.9
498.063	10282.17
498.266	10648.75
498.469	10689.71
498.673	10640.56
498.876	10818.74
499.079	11052.2
499.282	10982.57
499.485	11275.43
499.689	11304.1
499.892	11386.02
500.095	11646.12
500.298	11787.43
500.501	11611.3
500.705	12070.05
500.908	12024.99
501.111	12272.79
501.314	12248.22
501.517	12541.08
501.72	12534.93
501.923	12602.52
502.126	12969.1
502.329	12899.47
502.532	13018.25
502.735	13182.09
502.938	13452.42
503.141	13288.59
503.344	13857.92
503.547	13948.03
503.75	13948.03
503.953	14204.03
504.156	14328.95
504.359	14277.76
504.562	14523.51
504.765	14695.54
504.968	14916.72
505.17	15129.71
505.373	15182.96
505.576	15400.04
505.779	15533.16
505.982	15600.74
506.185	15907.94
506.387	15873.12
506.59	16024.67
506.793	16327.77
506.996	16311.39
507.198	16618.58
507.401	16561.24
507.604	17126.48
507.807	17163.34
508.009	17226.83
508.212	17466.44
508.415	17417.29
508.617	17681.48
508.82	17753.16
509.022	17941.57
509.225	18416.7
509.428	18414.65
509.63	18580.54
509.833	18824.25
510.035	19219.5
510.238	19242.03
510.44	19395.63
510.643	19629.1
510.845	19856.42
511.048	19602.47
511.25	20110.37
511.453	20089.89
511.655	20880.41
511.858	20691.99
512.06	20724.76
512.262	21236.75
512.465	21099.54
512.667	21414.93
512.87	21795.85
513.072	21535.76
513.274	22217.73
513.477	22125.57
513.679	22809.59
513.881	22610.94
514.084	23167.99
514.286	22813.69
514.488	23151.6
514.69	23706.6
514.893	24073.19
515.095	23823.34
515.297	24241.12
515.499	24261.6
515.701	24378.34
515.904	24800.22
516.106	25213.91
516.308	25463.76
516.51	25590.73
516.712	25746.38
516.914	25799.63
517.116	26252.23
517.318	26418.11
517.52	26725.31
517.722	26586.05
517.925	27192.25
518.127	27595.7
518.329	27556.78
518.531	27548.59
518.733	28005.29
518.935	28625.82
519.136	28203.94
519.338	28521.38
519.54	28431.27
519.742	28971.93
519.944	28892.06
520.146	29946.76
520.348	29946.76
520.55	29780.88
520.752	30063.5
520.954	30497.67
521.155	30335.88
521.357	31019.9
521.559	30911.36
521.761	31218.55
521.963	31474.55
522.164	31548.28
522.366	31669.11
522.568	32336.74
522.77	31955.82
522.971	32680.8
523.173	32428.9
523.375	32940.89
523.576	32906.08
523.778	32715.62
523.98	33436.5
524.181	33940.3
524.383	33663.83
524.584	33868.62
524.786	34376.52
524.988	33846.1
525.189	34423.62
525.391	34833.22
525.592	35064.64
525.794	34894.66
525.995	35115.84
526.197	35150.65
526.398	35427.13
526.6	35625.78
526.801	35760.95
527.003	35945.26
527.204	35676.98
527.406	36156.21
527.607	36252.46
527.808	36629.29
528.01	36274.99
528.211	36621.09
528.412	36885.28
528.614	36815.65
528.815	36778.79
529.016	37591.83
529.218	36811.56
529.419	37262.11
529.62	36780.84
529.822	37399.32
530.023	37411.61
530.224	37444.38
530.425	37387.03
530.626	37438.23
530.828	37079.84
531.029	38085.39
531.23	37602.07
531.431	37423.9
531.632	37690.13
531.833	37841.68
532.035	37929.75
532.236	37802.77
532.437	38066.96
532.638	37698.33
532.839	38193.93
533.04	38357.77
533.241	38093.58
533.442	38513.42
533.643	38566.66
533.844	38140.69
534.045	38499.08
534.246	38351.63
534.447	38779.65
534.648	38464.27
534.849	38585.1
535.05	38619.91
535.251	38695.69
535.451	38386.44
535.652	38730.5
535.853	38896.39
536.054	38740.74
536.255	38857.48
536.456	38478.6
536.657	39041.79
536.857	38482.7
537.058	38333.2
537.259	38877.96
537.46	38654.73
537.66	38628.1
537.861	38826.76
538.062	38613.77
538.263	38968.07
538.463	38724.36
538.664	38509.32
538.865	38607.62
539.065	39074.56
539.266	38589.19
539.466	39090.94
539.667	38071.06
539.868	39230.21
540.068	38550.28
540.269	38398.73
540.469	39009.03
540.67	38423.31
540.87	38716.17
541.071	38972.16
541.271	38722.31
541.472	38513.42
541.672	38818.57
541.873	38558.47
542.073	38011.67
542.274	38990.59
542.474	38789.89
542.675	38181.65
542.875	38812.42
543.075	38779.65
543.276	38081.3
543.476	38918.92
543.676	38288.14
543.877	38558.47
544.077	38732.55
544.277	38722.31
544.478	38378.25
544.678	39017.22
544.878	38517.51
545.078	38564.62
545.279	38058.77
545.479	37931.79
545.679	38804.23
545.879	38415.12
546.079	38787.85
546.28	38136.59
546.48	38376.2
546.68	38462.22
546.88	38693.64
547.08	38122.26
547.28	38234.89
547.48	38015.76
547.68	38673.16
547.88	38198.03
548.081	38318.86
548.281	38179.6
548.481	38232.85
548.681	38558.47
548.881	38202.13
549.081	38159.12
549.28	37849.88
549.48	38451.98
549.68	38136.59
549.88	38796.04
550.08	37997.33
550.28	38120.21
550.48	38017.81
550.68	38404.88
550.88	38013.71
551.08	37827.35
551.279	38140.69
551.479	37817.11
551.679	37677.85
551.879	37837.59
552.079	38316.81
552.278	38030.1
552.478	37976.85
552.678	37798.68
552.878	38318.86
553.077	37806.87
553.277	37610.26
553.477	38411.02
553.676	37745.43
553.876	37561.11
554.076	37665.56
554.275	37937.94
554.475	37364.51
554.674	38398.73
554.874	37706.52
555.074	37370.65
555.273	37700.37
555.473	37866.26
555.672	37559.06
555.872	37530.39
556.071	37794.58
556.271	37571.35
556.47	37387.03
556.67	37102.37
556.869	37397.27
557.068	37567.26
557.268	37296.92
557.467	37407.51
557.667	37313.31
557.866	37030.69
558.065	36682.53
558.265	36938.53
558.464	36940.58
558.663	37141.28
558.863	36688.68
559.062	36913.95
559.261	36686.63
559.461	37038.88
559.66	36346.67
559.859	36815.65
560.058	36496.17
560.258	36764.45
560.457	36371.24
560.656	36571.94
560.855	36649.77
561.054	36197.17
561.253	36010.8
561.453	36231.98
561.652	36158.25
561.851	36205.36
562.05	35924.79
562.249	35765.04
562.448	36008.75
562.647	35941.17
562.846	35621.69
563.045	35916.59
563.244	35382.07
563.443	35607.35
563.642	35435.32
563.841	35429.18
564.04	35160.89
564.239	35597.11
564.438	35062.59
564.637	35101.5
564.836	35392.31
565.035	35052.35
565.234	34937.66
565.432	34767.68
565.631	34480.97
565.83	34853.7
566.029	34411.34
566.228	34630.47
566.427	34521.93
566.625	34128.72
566.824	33772.37
567.023	34210.64
567.222	33715.03
567.42	34126.67
567.619	34179.92
567.818	33854.29
568.016	33971.02
568.215	34120.52
568.414	33575.76
568.612	33645.4
568.811	33450.84
569.01	33575.76
569.208	33008.48
569.407	33639.25
569.605	33008.48
569.804	33467.22
570.002	32748.39
570.201	32738.15
570.4	32566.12
570.598	32944.99
570.797	32486.25
570.995	32428.9
571.193	32383.85
571.392	32811.87
571.59	32131.95
571.789	32349.03
571.987	31982.45
572.186	32373.61
572.384	32119.66
572.582	32267.11
572.781	31880.05
572.979	31611.76
573.177	31681.39
573.376	31695.73
573.574	31425.4
573.772	31832.94
573.971	31503.22
574.169	30954.36
574.367	31034.24
574.565	31193.98
574.763	31216.5
574.962	31120.25
575.16	30905.21
575.358	31101.82
575.556	30454.66
575.754	30929.79
575.952	30395.27
576.151	30464.9
576.349	30071.69
576.547	30593.92
576.745	30354.31
576.943	30335.88
577.141	29981.58
577.339	29815.69
577.537	29852.56
577.735	30569.35
577.933	29944.72
578.131	30057.35
578.329	29631.38
578.527	29397.91
578.725	29789.07
578.923	29625.23
579.121	29457.3
579.319	29311.89
579.516	29461.4
579.714	29213.59
579.912	29078.43
580.11	29143.96
580.308	28920.73
580.506	28830.62
580.704	28584.87
580.901	28707.74
581.099	28640.16
581.297	28482.47
581.495	28498.85
581.692	28437.41
581.89	28238.76
582.088	28486.56
582.285	28386.21
582.483	28326.82
582.681	28070.82
582.878	28283.81
583.076	27843.5
583.274	27642.8
583.471	27835.31
583.669	27675.57
583.866	27659.18
584.064	27716.53
584.262	27495.35
584.459	27567.02
584.657	27227.06
584.854	27487.15
585.052	27057.08
585.249	27040.7
585.447	27286.45
585.644	26708.93
585.841	26694.59
586.039	27417.52
586.236	26631.1
586.434	26694.59
586.631	26655.68
586.828	26729.41
587.026	26493.89
587.223	26235.85
587.42	26289.09
587.618	26026.95
587.815	26168.26
588.012	26045.38
588.21	25813.96
588.407	25938.89
588.604	25992.14
588.801	25732.04
588.999	25670.61
589.196	25304.02
589.393	25273.3
589.59	25541.58
589.787	25281.49
589.984	25203.67
590.182	25027.54
590.379	25338.83
590.576	24923.1
590.773	25334.74
590.97	24591.33
591.167	25119.7
591.364	24642.53
591.561	25045.98
591.758	24798.17
591.955	24308.71
592.152	25066.45
592.349	24511.46
592.546	24644.57
592.743	24533.98
592.94	24337.38
593.137	24214.5
593.334	24458.21
593.531	23882.73
593.727	24333.28
593.924	24105.96
594.121	23596.01
594.318	23976.94
594.515	23708.65
594.712	23860.2
594.908	23561.2
595.105	23593.97
595.302	23483.38
595.499	23356.4
595.696	23192.56
595.892	22969.33
596.089	23497.71
596.286	23167.99
596.482	22834.17
596.679	23200.76
596.876	22979.57
597.072	22758.39
597.269	22785.02
597.466	22547.45
597.662	22529.02
597.859	22248.45
598.055	22266.88
598.252	22361.09
598.448	22113.28
598.645	22524.93
598.841	21937.16
599.038	22137.86
599.234	22209.54
599.431	21693.45
599.627	21894.15
599.824	22021.13
600.02	21818.38
600.217	21875.72
600.413	21681.16
600.609	21672.97
600.806	21664.78
601.002	21658.63
601.198	21226.51
601.395	21160.98
601.591	21144.59
601.787	21062.68
601.984	21222.42
602.18	21341.2
602.376	20839.45
602.572	21072.92
602.769	21183.51
602.965	20855.83
603.161	20892.69
603.357	20855.83
603.553	20812.82
603.75	20591.64
603.946	20460.57
604.142	20562.97
604.338	20366.37
604.534	20429.85
604.73	20243.49
604.926	20038.69
605.122	20395.04
605.318	19856.42
605.514	19932.2
605.71	19618.86
605.906	19913.77
606.102	19797.03
606.298	19733.54
606.494	19940.39
606.69	19788.84
606.886	19538.99
607.082	19584.04
607.278	19704.87
607.474	19334.19
607.67	19764.26
607.866	19141.68
608.062	19674.15
608.257	19160.11
608.453	19465.26
608.649	19199.02
608.845	19276.85
609.041	19266.61
609.236	19352.62
609.432	19004.47
609.628	19035.19
609.824	18957.36
610.019	18574.39
610.215	18998.32
610.411	19055.67
610.606	18766.9
610.802	18519.1
610.998	18648.12
611.193	18723.9
611.389	18762.81
611.584	18529.34
611.78	18744.38
611.976	18506.81
612.171	18519.1
612.367	18357.31
612.562	18551.87
612.758	18185.28
612.953	17851.46
613.149	18435.13
613.344	18285.63
613.539	18277.44
613.735	18197.57
613.93	18121.79
614.126	18060.35
614.321	18228.29
614.517	17998.91
614.712	18082.88
614.907	17763.4
615.103	18138.18
615.298	17554.51
615.493	17982.53
615.688	17689.67
615.884	18060.35
616.079	17925.19
616.274	17960
616.47	17779.78
616.665	17525.83
616.86	17675.34
617.055	17429.58
617.25	17581.13
617.445	17400.91
617.641	17366.09
617.836	17071.18
618.031	17155.15
618.226	17386.57
618.421	17153.1
618.616	17329.23
618.811	17202.25
619.006	17327.18
619.201	16815.19
619.396	16870.48
619.591	16661.59
619.786	16749.65
619.981	16542.81
620.176	16620.63
620.371	16587.86
620.566	16424.03
620.761	16411.74
620.956	16688.21
621.151	16313.44
621.346	16381.02
621.541	16082.02
621.735	16557.14
621.93	16041.06
622.125	16004.19
622.32	15383.66
622.515	16020.58
622.709	15633.51
622.904	15656.04
623.099	15869.03
623.294	15776.87
623.488	15383.66
623.683	15375.47
623.878	15281.26
624.072	15039.6
624.267	15377.51
624.462	14990.45
624.656	14707.83
624.851	14992.5
625.046	14812.28
625.24	14793.84
625.435	14599.29
625.629	14644.34
625.824	14486.65
626.018	14513.27
626.213	14191.74
626.407	14249.08
626.602	14146.69
626.796	14296.19
626.991	14140.54
627.185	13896.83
627.38	13905.03
627.574	13538.44
627.768	13747.33
627.963	13802.63
628.157	13458.57
628.352	13577.35
628.546	13335.69
628.74	13659.27
628.935	13307.02
629.129	13520.01
629.323	12874.9
629.517	13012.11
629.712	12934.29
629.906	12952.72
630.1	12844.18
630.294	13124.75
630.489	12561.56
630.683	13081.74
630.877	12623
631.071	12508.31
631.265	12510.36
631.459	12455.06
631.653	12367
631.848	12223.64
632.042	12262.55
632.236	12440.73
632.43	12186.78
632.624	12063.9
632.818	12121.24
633.012	11687.07
633.206	11977.89
633.4	11795.62
633.594	11732.13
633.788	11629.73
633.982	11814.05
634.176	11553.96
634.369	11748.51
634.563	11549.86
634.757	11199.66
634.951	11297.96
635.145	11304.1
635.339	11062.44
635.533	11009.2
635.726	11173.03
635.92	10783.92
636.114	10955.95
636.308	11109.55
636.501	10900.65
636.695	11052.2
636.889	10804.4
637.083	10693.81
637.276	10718.39
637.47	10519.73
637.664	10523.83
637.857	10489.01
638.051	10693.81
638.244	10396.85
638.438	10407.09
638.632	10233.02
638.825	10106.04
639.019	10124.47
639.212	9989.31
639.406	10013.88
639.599	9917.63
639.793	10097.85
639.986	9974.97
640.18	9813.18
640.373	9837.76
640.567	9579.72
640.76	9833.66
640.954	9434.31
641.147	9602.24
641.34	9622.72
641.534	9487.56
641.727	9592
641.92	9405.64
642.114	9256.14
642.307	9323.72
642.5	9280.71
642.694	8983.76
642.887	9166.03
643.08	9170.12
643.273	9151.69
643.467	9153.74
643.66	8860.88
643.853	8875.21
644.046	8862.93
644.239	8801.49
644.432	8715.47
644.626	8604.88
644.819	8805.58
645.012	8557.78
645.205	8719.57
645.398	8551.63
645.591	8309.97
645.784	8461.52
645.977	8301.78
646.17	8465.62
646.363	8355.03
646.556	8232.15
646.749	8107.23
646.942	8156.38
647.135	8035.55
647.328	7937.24
647.521	8152.28
647.714	7802.08
647.907	7978.2
648.099	7900.38
648.292	7935.2
648.485	7765.21
648.678	7847.13
648.871	7703.78
649.064	7681.25
649.256	7615.71
649.449	7578.85
649.642	7617.76
649.835	7617.76
650.027	7423.2
650.22	7462.12
650.413	7519.46
650.605	7478.5
650.798	7318.76
650.991	7304.42
651.183	7316.71
651.376	7029.99
651.568	7355.62
651.761	7169.26
651.954	7120.1
652.146	7105.77
652.339	7120.1
652.531	7140.58
652.724	6984.94
652.916	6814.96
653.109	6847.72
653.301	6911.21
653.494	6956.27
653.686	6733.04
653.879	6847.72
654.071	6778.09
654.263	6585.58
654.456	6634.74
654.648	6819.05
654.84	6567.15
655.033	6403.32
655.225	6477.04
655.417	6472.95
655.61	6495.47
655.802	6536.43
655.994	6507.76
656.186	6458.61
656.379	6487.28
656.571	6442.23
656.763	6198.52
656.955	6227.19
657.148	6190.33
657.34	6221.05
657.532	6075.64
657.724	6135.03
657.916	6184.18
658.108	6038.78
658.3	6028.54
658.492	6118.65
658.684	6006.01
658.876	5981.43
659.068	5913.85
659.26	5915.9
659.452	5928.19
659.644	5786.88
659.836	5786.88
660.028	5776.64
660.22	5743.87
660.412	5874.94
660.604	5571.84
660.796	5715.2
660.988	5752.06
661.18	5446.91
661.372	5604.61
661.563	5686.53
661.755	5631.23
661.947	5512.45
662.139	5379.33
662.331	5453.06
662.522	5504.26
662.714	5356.8
662.906	5340.42
663.097	5352.71
663.289	5324.04
663.481	5348.61
663.673	5432.58
663.864	5270.79
664.056	5258.5
664.247	5111.05
664.439	5250.31
664.631	5041.42
664.822	5168.39
665.014	5061.9
665.205	5260.55
665.397	5098.76
665.588	5149.96
665.78	5147.91
665.971	5074.18
666.163	5006.6
666.354	5156.1
666.546	4799.76
666.737	4799.76
666.929	4853
667.12	4930.83
667.311	4967.69
667.503	4885.77
667.694	5086.47
667.885	4832.52
668.077	4867.34
668.268	4785.42
668.459	4703.5
668.651	4848.91
668.842	4717.84
669.033	4703.5
669.224	4734.22
669.416	4803.85
669.607	4619.53
669.798	4537.62
669.989	4873.48
670.18	4590.86
670.371	4660.49
670.563	4478.22
670.754	4648.21
670.945	4549.9
671.136	4576.53
671.327	4467.99
671.518	4556.05
671.709	4508.94
671.9	4490.51
672.091	4547.86
672.282	4594.96
672.473	4470.03
672.664	4490.51
672.855	4472.08
673.046	4609.3
673.237	4586.77
673.428	4330.77
673.619	4304.15
673.809	4431.12
674	4431.12
674.191	4533.52
674.382	4365.59
674.573	4302.1
674.764	4209.94
674.954	4478.22
675.145	4443.41
675.336	4404.5
675.527	4349.2
675.717	4257.04
675.908	4183.32
676.099	4322.58
676.289	4482.32
676.48	4177.17
676.671	4193.56
676.861	4353.3
677.052	4390.16
677.243	4189.46
677.433	4283.67
677.624	4279.57
677.814	4185.37
678.005	4263.19
678.195	4269.33
678.386	4269.33
678.576	4162.84
678.767	4232.47
678.957	4209.94
679.148	4316.44
679.338	4261.14
679.529	4226.32
679.719	4308.24
679.909	4338.96
680.1	4381.97
680.29	4287.76
680.481	4097.3
680.671	4234.52
680.861	4314.39
681.052	4384.02
681.242	4283.67
681.432	4291.86
681.622	4158.74
681.813	4211.99
682.003	4281.62
682.193	4015.38
682.383	4248.85
682.573	4259.09
682.764	4240.66
682.954	4142.36
683.144	4097.3
683.334	4171.03
683.524	4195.61
683.714	4291.86
683.904	4085.02
684.094	4152.6
684.284	4080.92
684.474	4246.8
684.664	4162.84
684.854	4097.3
685.044	4203.8
685.234	4160.79
685.424	4072.73
685.614	3984.66
685.804	3992.86
685.994	3982.62
686.184	4097.3
686.374	3955.99
686.564	4070.68
686.753	4152.6
686.943	4152.6
687.133	3972.38
687.323	4029.72
687.513	3933.47
687.702	3886.36
687.892	3900.7
688.082	4015.38
688.272	3876.12
688.461	3931.42
688.651	3892.51
688.841	4017.43
689.03	3945.75
689.22	3888.41
689.41	3792.16
689.599	3720.48
689.789	3835.16
689.979	3710.24
690.168	3777.82
690.358	3700
690.547	3718.43
690.737	3685.66
690.926	3689.76
691.116	3523.87
691.305	3626.27
691.495	3530.02
691.684	3579.17
691.874	3546.4
692.063	3532.06
692.252	3503.39
692.442	3595.55
692.631	3403.04
692.82	3454.24
693.01	3480.86
693.199	3491.1
693.388	3349.79
693.578	3345.7
693.767	3552.54
693.956	3470.62
694.146	3294.5
694.335	3382.56
694.524	3304.74
694.713	3339.55
694.902	3435.81
695.092	3386.66
695.281	3271.97
695.47	3390.75
695.659	3349.79
695.848	3222.82
696.037	3302.69
696.226	3372.32
696.415	3218.72
696.604	3491.1
696.793	3298.6
696.982	3362.08
697.171	3319.07
697.36	3218.72
697.549	3097.89
697.738	3296.55
697.927	3349.79
698.116	3218.72
698.305	3331.36
698.494	3198.24
698.683	3140.9
698.872	3235.11
699.061	3222.82
699.25	3237.16
699.438	3118.37
699.627	3147.05
699.816	3362.08
700.005	3128.61
700.193	3196.2
700.382	3304.74
700.571	3063.08
700.76	3175.72
700.948	3286.31
701.137	3269.92
701.326	3235.11
701.514	3087.65
701.703	3081.51
701.892	3292.45
702.08	3300.64
702.269	3239.2
702.457	3157.29
702.646	3247.4
702.834	3196.2
703.023	3190.05
703.212	3185.96
703.4	3136.81
703.589	3202.34
703.777	3220.77
703.965	3050.79
704.154	3224.87
704.342	3274.02
704.531	3093.8
704.719	3177.76
704.907	3306.79
705.096	3194.15
705.284	3235.11
705.472	3153.19
705.661	3175.72
705.849	3355.94
706.037	3237.16
706.226	3253.54
706.414	3185.96
706.602	3269.92
706.79	3325.22
706.979	3159.33
707.167	3296.55
707.355	3177.76
707.543	3355.94
707.731	3425.57
707.919	3173.67
708.107	3280.16
708.296	3171.62
708.484	3112.23
708.672	3218.72
708.86	3329.31
709.048	3288.36
709.236	3218.72
709.424	3278.12
709.612	3204.39
709.8	3265.83
709.988	3245.35
710.176	3237.16
710.364	3374.37
710.551	3345.7
710.739	3357.99
710.927	3263.78
711.115	3333.41
711.303	3306.79
711.491	3413.28
711.679	3370.27
711.866	3300.64
712.054	3382.56
712.242	3310.88
712.43	3507.49
712.617	3384.61
712.805	3206.44
712.993	3392.8
713.181	3421.47
713.368	3546.4
713.556	3343.65
713.744	3259.68
713.931	3593.5
714.119	3470.62
714.306	3523.87
714.494	3472.67
714.682	3417.38
714.869	3339.55
715.057	3540.26
715.244	3509.54
715.432	3441.95
715.619	3294.5
715.807	3454.24
715.994	3476.77
716.182	3411.23
716.369	3376.42
716.556	3423.52
716.744	3448.1
716.931	3476.77
717.119	3601.69
717.306	3597.6
717.493	3478.82
717.681	3429.66
717.868	3509.54
718.055	3560.73
718.242	3513.63
718.43	3570.97
718.617	3525.92
718.804	3398.95
718.991	3618.08
719.179	3546.4
719.366	3568.93
719.553	3450.14
719.74	3607.84
719.927	3603.74
720.114	3605.79
720.301	3489.06
720.488	3532.06
720.676	3517.73
720.863	3577.12
721.05	3732.76
721.237	3489.06
721.424	3650.85
721.611	3659.04
721.798	3644.7
721.985	3554.59
722.172	3644.7
722.358	3570.97
722.545	3605.79
722.732	3532.06
722.919	3681.57
723.106	3648.8
723.293	3745.05
723.48	3570.97
723.667	3544.35
723.853	3714.33
724.04	3618.08
724.227	3700
724.414	3611.93
724.6	3597.6
724.787	3663.13
724.974	3708.19
725.161	3646.75
725.347	3630.37
725.534	3650.85
725.72	3685.66
725.907	3765.53
726.094	3736.86
726.28	3786.01
726.467	3607.84
726.653	3730.72
726.84	3802.4
727.027	3822.88
727.213	3683.61
727.4	3726.62
727.586	3706.14
727.773	3583.26
727.959	3841.31
728.145	3845.4
728.332	3833.11
728.518	3663.13
728.705	3671.33
728.891	3722.52
729.077	3779.87
729.264	3581.21
729.45	3693.85
729.636	3931.42
729.823	3691.81
730.009	3683.61
730.195	3712.28
730.382	3693.85
730.568	3616.03
730.754	3718.43
730.94	3845.4
731.126	3781.92
731.313	3781.92
731.499	3861.79
731.685	3927.32
731.871	3837.21
732.057	3773.72
732.243	3759.39
732.429	3761.44
732.615	3863.83
732.801	3790.11
732.987	3829.02
733.173	3867.93
733.359	3607.84
733.545	3876.12
733.731	3749.15
733.917	3771.68
734.103	3837.21
734.289	3919.13
734.475	3792.16
734.661	3882.27
734.847	3728.67
735.033	3732.76
735.219	3671.33
735.404	3845.4
735.59	3804.44
735.776	3667.23
735.962	3845.4
736.148	3808.54
736.333	3726.62
736.519	3765.53
736.705	3753.24
736.89	3906.84
737.076	3970.33
737.262	3745.05
737.447	3759.39
737.633	3687.71
737.819	3691.81
738.004	3806.49
738.19	3583.26
738.375	3665.18
738.561	3763.48
738.747	3718.43
738.932	3630.37
739.118	3769.63
739.303	3728.67
739.489	3601.69
739.674	3681.57
739.859	3685.66
740.045	3743
740.23	3634.46
740.416	3687.71
740.601	3689.76
740.786	3671.33
740.972	3525.92
741.157	3591.45
741.342	3337.51
741.528	3652.89
741.713	3589.41
741.898	3591.45
742.084	3548.45
742.269	3601.69
742.454	3573.02
742.639	3503.39
742.824	3441.95
743.01	3509.54
743.195	3472.67
743.38	3470.62
743.565	3466.53
743.75	3409.19
743.935	3398.95
744.12	3329.31
744.305	3360.03
744.49	3456.29
744.675	3390.75
744.86	3464.48
745.045	3351.84
745.23	3439.9
745.415	3247.4
745.6	3323.17
745.785	3353.89
745.97	3425.57
746.155	3308.83
746.34	3155.24
746.525	3239.2
746.71	3206.44
746.895	3122.47
747.079	3097.89
747.264	3126.57
747.449	3325.22
747.634	3200.29
747.819	2985.26
748.003	3122.47
748.188	3071.27
748.373	3013.93
748.557	3003.69
748.742	2958.63
748.927	2968.87
749.111	2964.78
749.296	2966.82
749.481	2909.48
749.665	2864.43
749.85	2792.75
750.034	2845.99
750.219	2837.8
750.404	2858.28
750.588	2743.6
750.773	2645.29
750.957	2755.88
751.141	2792.75
751.326	2776.36
751.51	2663.72
751.695	2782.51
751.879	2696.49
752.064	2819.37
752.248	2676.01
752.432	2704.68
752.617	2671.92
752.801	2637.1
752.985	2542.89
753.17	2579.76
753.354	2534.7
753.538	2579.76
753.722	2559.28
753.907	2438.45
754.091	2407.73
754.275	2460.98
754.459	2508.08
754.643	2487.6
754.828	2467.12
755.012	2340.15
755.196	2360.63
755.38	2317.62
755.564	2338.1
755.748	2467.12
755.932	2317.62
756.116	2278.71
756.3	2223.41
756.484	2170.16
756.668	2229.56
756.852	2082.1
757.036	2190.64
757.22	2241.84
757.404	2098.49
757.588	2078.01
757.772	2161.97
757.956	2211.12
758.14	2153.78
758.323	2227.51
758.507	2037.05
758.691	1994.04
758.875	2075.96
759.059	2129.2
759.242	1973.56
759.426	1959.22
759.61	1944.89
759.794	2022.71
759.977	2012.47
760.161	1987.89
760.345	2071.86
760.528	1934.65
760.712	1963.32
760.895	1862.97
761.079	1985.85
761.263	1850.68
761.446	1994.04
761.63	1869.11
761.813	1830.2
761.997	1836.35
762.18	1905.98
762.364	1899.83
762.547	1776.95
762.731	1699.13
762.914	1826.11
763.098	1834.3
763.281	1838.39
763.464	1832.25
763.648	1860.92
763.831	1606.97
764.015	1692.99
764.198	1760.57
764.381	1735.99
764.564	1779
764.748	1629.5
764.931	1776.95
765.114	1664.32
765.297	1666.36
765.481	1604.92
765.664	1615.16
765.847	1697.08
766.03	1828.15
766.213	1600.83
766.397	1652.03
766.58	1596.73
766.763	1656.12
766.946	1584.45
767.129	1529.15
767.312	1531.2
767.495	1578.3
767.678	1580.35
767.861	1514.81
768.044	1574.21
768.227	1629.5
768.41	1525.05
768.593	1582.4
768.776	1490.24
768.959	1396.03
769.142	1482.05
769.324	1525.05
769.507	1455.42
769.69	1412.42
769.873	1525.05
770.056	1404.22
770.239	1377.6
770.421	1506.62
770.604	1531.2
770.787	1441.09
770.97	1389.89
771.152	1453.38
771.335	1412.42
771.518	1416.51
771.7	1469.76
771.883	1469.76
772.066	1273.15
772.248	1275.2
772.431	1379.65
772.613	1267.01
772.796	1363.26
772.978	1262.91
773.161	1375.55
773.343	1312.07
773.526	1269.06
773.708	1166.66
773.891	1219.91
774.073	1334.59
774.256	1174.85
774.438	1203.52
774.621	1254.72
774.803	1248.58
774.985	1178.95
775.168	1201.47
775.35	1152.32
775.532	1224
775.715	1181
775.897	1217.86
776.079	1117.51
776.261	1125.7
776.444	1203.52
776.626	1129.8
776.808	1109.32
776.99	1127.75
777.173	1154.37
777.355	1072.45
777.537	1160.52
777.719	996.68
777.901	1097.03
778.083	1017.16
778.265	1039.69
778.447	1008.97
778.629	1066.31
778.811	1015.11
778.993	1047.88
779.175	998.73
779.357	1111.36
779.539	953.67
779.721	931.14
779.903	990.53
780.085	965.96
780.267	1006.92
780.449	963.91
780.631	972.1
780.812	1047.88
780.994	824.65
781.176	933.19
781.358	877.9
781.54	914.76
781.721	982.34
781.903	886.09
782.085	748.87
782.267	849.22
782.448	838.98
782.63	843.08
782.812	855.37
782.993	871.75
783.175	853.32
783.357	771.4
783.538	814.41
783.72	748.87
783.901	795.98
784.083	798.03
784.264	804.17
784.446	734.54
784.627	724.3
784.809	697.67
784.99	765.26
785.172	763.21
785.353	677.2
785.535	718.15
785.716	712.01
785.897	757.07
786.079	752.97
786.26	785.74
786.441	750.92
786.623	648.52
786.804	542.03
786.985	695.63
787.167	632.14
787.348	693.58
787.529	705.87
787.71	707.91
787.891	724.3
788.073	660.81
788.254	662.86
788.435	666.96
788.616	679.24
788.797	505.17
788.978	574.8
789.159	669
789.34	646.48
789.522	597.32
789.703	562.51
789.884	585.04
790.065	638.28
790.246	619.85
790.427	615.76
790.607	650.57
790.788	589.13
790.969	576.84
791.15	630.09
791.331	503.12
791.512	558.41
791.693	488.78
791.874	482.64
792.054	634.19
792.235	597.32
792.416	474.45
792.597	462.16
792.778	566.6
792.958	464.21
793.139	535.89
793.32	591.18
793.5	494.93
793.681	568.65
793.862	478.54
794.042	476.49
794.223	431.44
794.404	464.21
794.584	413.01
794.765	486.73
794.945	482.64
795.126	470.35
795.306	466.25
795.487	447.82
795.667	511.31
795.848	458.06
796.028	511.31
796.209	591.18
796.389	445.77
796.57	417.1
796.75	458.06
796.93	417.1
797.111	423.25
797.291	400.72
797.471	492.88
797.652	320.85
797.832	427.34
798.012	494.93
798.192	378.19
798.373	394.58
798.553	370
798.733	410.96
798.913	361.81
799.093	400.72
799.274	410.96
799.454	423.25
799.634	482.64
799.814	460.11
799.994	341.33
800.174	349.52
800.354	396.62
800.534	275.79
800.714	447.82
800.894	353.62
801.074	400.72
801.254	361.81
801.434	322.9
801.614	345.42
801.794	433.49
801.974	1293.63
802.154	351.57
802.334	355.66
802.514	339.28
802.693	312.66
802.873	320.85
803.053	361.81
803.233	329.04
803.413	335.18
803.592	347.47
803.772	329.04
803.952	361.81
804.131	329.04
804.311	394.58
804.491	372.05
804.67	279.89
804.85	228.69
805.03	349.52
805.209	361.81
805.389	355.66
805.568	286.03
805.748	378.19
805.928	335.18
806.107	370
806.287	392.53
806.466	335.18
806.646	320.85
806.825	335.18
807.004	316.75
807.184	351.57
807.363	322.9
807.543	265.55
807.722	326.99
807.901	267.6
808.081	384.34
808.26	253.27
808.439	302.42
808.619	341.33
808.798	310.61
808.977	279.89
809.156	374.1
809.336	296.27
809.515	333.14
809.694	171.35
809.873	191.83
810.052	222.55
810.231	236.88
810.411	288.08
810.59	306.51
810.769	312.66
810.948	263.51
811.127	222.55
811.306	288.08
811.485	228.69
811.664	290.13
811.843	298.32
812.022	243.03
812.201	265.55
812.38	277.84
812.559	271.7
812.737	245.07
812.916	169.3
813.095	257.36
813.274	273.75
813.453	171.35
813.632	230.74
813.811	292.18
813.989	181.59
814.168	277.84
814.347	165.2
814.526	200.02
814.704	251.22
814.883	265.55
815.062	181.59
815.24	251.22
815.419	245.07
815.598	263.51
815.776	243.03
815.955	197.97
816.133	132.44
816.312	208.21
816.49	208.21
816.669	214.35
816.847	214.35
817.026	261.46
817.204	152.92
817.383	228.69
817.561	163.15
817.74	214.35
817.918	173.39
818.097	202.07
818.275	185.68
818.453	234.83
818.632	126.29
818.81	218.45
818.988	163.15
819.167	157.01
819.345	191.83
819.523	107.86
819.701	195.92
819.879	228.69
820.058	224.59
820.236	197.97
820.414	187.73
820.592	152.92
820.77	210.26
820.948	159.06
821.127	187.73
821.305	130.39
821.483	136.53
821.661	146.77
821.839	197.97
822.017	187.73
822.195	173.39
822.373	245.07
822.551	173.39
822.729	220.5
822.907	167.25
823.085	171.35
823.262	130.39
823.44	181.59
823.618	114
823.796	157.01
823.974	202.07
824.152	152.92
824.329	132.44
824.507	191.83
824.685	173.39
824.863	126.29
825.04	240.98
825.218	101.72
825.396	144.72
825.574	105.81
825.751	185.68
825.929	187.73
826.107	89.43
826.284	195.92
826.462	234.83
826.639	146.77
826.817	64.85
826.994	87.38
827.172	40.28
827.349	189.78
827.527	173.39
827.704	214.35
827.882	189.78
828.059	181.59
828.237	130.39
828.414	181.59
828.591	111.96
828.769	95.57
828.946	146.77
829.124	222.55
829.301	247.12
829.478	179.54
829.655	75.09
829.833	189.78
830.01	66.9
830.187	109.91
830.364	103.76
830.542	167.25
830.719	236.88
830.896	200.02
831.073	122.2
831.25	56.66
831.427	93.52
831.604	68.95
831.782	144.72
831.959	91.48
832.136	146.77
832.313	93.52
832.49	154.96
832.667	79.19
832.844	7.51
833.021	191.83
833.198	101.72
833.374	130.39
833.551	167.25
833.728	34.13
833.905	126.29
834.082	60.76
834.259	44.37
834.436	173.39
834.612	9.56
834.789	21.85
834.966	81.24
835.143	228.69
835.319	-31.4
835.496	109.91
835.673	122.2
835.85	230.74
836.026	107.86
836.203	189.78
836.38	42.32
836.556	48.47
836.733	99.67
836.909	146.77
837.086	62.8
837.262	36.18
837.439	130.39
837.616	128.34
837.792	97.62
837.968	97.62
838.145	116.05
838.321	73.04
838.498	89.43
838.674	101.72
838.851	89.43
839.027	44.37
839.203	154.96
839.38	107.86
839.556	142.68
839.732	111.96
839.909	54.61
840.085	150.87
840.261	46.42
840.437	171.35
840.614	150.87
840.79	114
840.966	181.59
841.142	-8.87
841.318	105.81
841.494	40.28
841.671	175.44
841.847	32.08
842.023	56.66
842.199	27.99
842.375	136.53
842.551	46.42
842.727	32.08
842.903	183.63
843.079	38.23
843.255	122.2
843.431	109.91
843.607	142.68
843.783	-72.36
843.959	75.09
844.134	120.15
844.31	179.54
844.486	34.13
844.662	25.94
844.838	73.04
845.013	62.8
845.189	73.04
845.365	81.24
845.541	73.04
845.716	64.85
845.892	79.19
846.068	114
846.244	68.95
846.419	97.62
846.595	42.32
846.77	48.47
846.946	81.24
847.122	58.71
847.297	64.85
847.473	91.48
847.648	42.32
847.824	85.33
847.999	-0.68
848.175	-10.92
848.35	66.9
848.526	77.14
848.701	19.8
848.876	105.81
849.052	-12.97
849.227	73.04
849.403	62.8
849.578	73.04
849.753	77.14
849.929	114
850.104	-15.02
850.279	58.71
850.454	23.89
850.63	27.99
850.805	44.37
850.98	120.15
851.155	50.52
851.33	73.04
851.505	36.18
851.681	52.56
851.856	54.61
852.031	75.09
852.206	99.67
852.381	73.04
852.556	44.37
852.731	75.09
852.906	157.01
853.081	23.89
853.256	64.85
853.431	-17.07
853.606	3.41
853.781	23.89
853.956	17.75
854.131	58.71
854.305	58.71
854.48	-35.5
854.655	42.32
854.83	-4.78
855.005	27.99
855.18	40.28
855.354	64.85
855.529	73.04
855.704	7.51
855.879	56.66
856.053	103.76
856.228	46.42
856.403	25.94
856.577	44.37
856.752	7.51
856.926	87.38
857.101	52.56
857.276	105.81
857.45	11.61
857.625	68.95
857.799	89.43
857.974	64.85
858.148	-23.21
858.323	97.62
858.497	34.13
858.672	9.56
858.846	32.08
859.02	44.37
859.195	52.56
859.369	44.37
859.543	42.32
859.718	-23.21
859.892	32.08
860.066	44.37
860.241	25.94
860.415	11.61
860.589	60.76
860.763	-6.83
860.938	17.75
861.112	99.67
861.286	15.7
861.46	32.08
861.634	-8.87
861.808	7.51
861.982	-15.02
862.157	-21.16
862.331	-35.5
862.505	-21.16
862.679	-19.11
862.853	30.04
863.027	60.76
863.201	109.91
863.375	13.65
863.549	46.42
863.722	44.37
863.896	15.7
864.07	25.94
864.244	42.32
864.418	23.89
864.592	23.89
864.766	27.99
864.939	44.37
865.113	40.28
865.287	23.89
865.461	36.18
865.634	11.61
865.808	-15.02
865.982	-10.92
866.156	60.76
866.329	-21.16
866.503	52.56
866.676	71
866.85	1.37
867.024	9.56
867.197	46.42
867.371	66.9
867.544	17.75
867.718	-51.88
867.891	66.9
868.065	-111.27
868.238	40.28
868.412	77.14
868.585	23.89
868.759	60.76
868.932	56.66
869.105	-25.26
869.279	50.52
869.452	-4.78
869.625	89.43
869.799	-27.31
869.972	42.32
870.145	34.13
870.319	15.7
870.492	36.18
870.665	38.23
870.838	30.04
871.011	-17.07
871.185	75.09
871.358	-19.11
871.531	81.24
871.704	-68.27
871.877	-2.73
872.05	-33.45
872.223	-58.03
872.396	23.89
872.569	64.85
872.742	-53.93
872.915	46.42
873.088	9.56
873.261	7.51
873.434	46.42
873.607	-6.83
873.78	42.32
873.953	-33.45
874.126	-10.92
874.299	15.7
874.471	36.18
874.644	77.14
874.817	38.23
874.99	50.52
875.163	-29.35
875.335	38.23
875.508	-12.97
875.681	15.7
875.853	-0.68
876.026	13.65
876.199	64.85
876.371	34.13
876.544	27.99
876.717	40.28
876.889	-10.92
877.062	50.52
877.234	-41.64
877.407	-37.55
877.579	36.18
877.752	-23.21
877.924	58.71
878.097	11.61
878.269	38.23
878.442	19.8
878.614	17.75
878.786	15.7
878.959	25.94
879.131	25.94
879.303	-74.41
879.476	23.89
879.648	17.75
879.82	54.61
879.993	23.89
880.165	64.85
880.337	-25.26
880.509	85.33
880.681	-15.02
880.854	-0.68
881.026	60.76
881.198	77.14
881.37	-103.08
881.542	-23.21
881.714	1.37
881.886	-33.45
882.058	30.04
882.23	13.65
882.402	-84.65
882.574	50.52
882.746	79.19
882.918	73.04
883.09	-17.07
883.262	-8.87
883.434	-2.73
883.606	-33.45
883.778	9.56
883.95	81.24
884.122	-17.07
884.293	75.09
884.465	17.75
884.637	64.85
884.809	-58.03
884.98	23.89
885.152	-41.64
885.324	87.38
885.496	-4.78
885.667	-27.31
885.839	7.51
886.011	48.47
886.182	118.1
886.354	83.28
886.525	-68.27
886.697	9.56
886.869	-64.17
887.04	-6.83
887.212	9.56
887.383	81.24
887.555	13.65
887.726	-0.68
887.897	-33.45
888.069	32.08
888.24	-6.83
888.412	-17.07
888.583	7.51
888.754	1.37
888.926	-33.45
889.097	-10.92
889.268	-58.03
889.44	-27.31
889.611	-4.78
889.782	-12.97
889.953	23.89
890.125	34.13
890.296	34.13
890.467	-66.22
890.638	9.56
890.809	-45.74
890.98	-15.02
891.151	15.7
891.323	50.52
891.494	-12.97
891.665	-25.26
891.836	19.8
892.007	58.71
892.178	54.61
892.349	17.75
892.52	-4.78
892.691	42.32
892.862	-53.93
893.032	-33.45
893.203	5.46
893.374	-4.78
893.545	58.71
893.716	54.61
893.887	52.56
894.057	-68.27
894.228	-55.98
894.399	-58.03
894.57	62.8
894.74	-76.46
894.911	-21.16
895.082	23.89
895.253	-39.59
895.423	-23.21
895.594	23.89
895.764	-2.73
895.935	-10.92
896.106	-45.74
896.276	-53.93
896.447	1.37
896.617	-21.16
896.788	-27.31
896.958	-15.02
897.129	1.37
897.299	-25.26
897.47	50.52
897.64	36.18
897.81	-39.59
897.981	-41.64
898.151	-17.07
898.322	68.95
898.492	1.37
898.662	5.46
898.832	40.28
899.003	-4.78
899.173	15.7
899.343	-12.97
899.513	17.75
