Data from USB4F104151__48__13-05-23-604.txt Node

Date: Fri Mar 14 13:05:23 EDT 2025
User: louis
Spectrometer: USB4F10415
Trigger mode: 4
Integration Time (sec): 4.000000E-2
Scans to average: 1
Electric dark correction enabled: true
Nonlinearity correction enabled: false
Boxcar width: 0
XAxis mode: Wavelengths
Number of Pixels in Spectrum: 3648
>>>>>Begin Spectral Data<<<<<
178.204	-155.13
178.424	-155.13
178.644	-155.13
178.864	-208.38
179.084	-208.38
179.304	-54.78
179.524	-3.58
179.744	-32.26
179.964	0.51
180.184	-46.59
180.404	49.66
180.624	-9.73
180.844	-34.3
181.064	4.61
181.283	8.7
181.503	23.04
181.723	94.72
181.943	-32.26
182.163	102.91
182.383	16.9
182.602	49.66
182.822	53.76
183.042	51.71
183.262	-34.3
183.482	43.52
183.701	-89.6
183.921	16.9
184.141	-26.11
184.361	68.09
184.58	96.77
184.8	33.28
185.02	25.09
185.239	51.71
185.459	43.52
185.679	20.99
185.898	-26.11
186.118	0.51
186.338	16.9
186.557	76.29
186.777	-22.02
186.997	78.33
187.216	18.94
187.436	33.28
187.655	-19.97
187.875	18.94
188.095	49.66
188.314	0.51
188.534	141.82
188.753	-1.54
188.973	0.51
189.192	98.81
189.412	88.57
189.631	35.33
189.851	-7.68
190.07	90.62
190.29	-60.93
190.509	-19.97
190.729	78.33
190.948	51.71
191.168	207.36
191.387	59.9
191.607	16.9
191.826	20.99
192.045	20.99
192.265	23.04
192.484	76.29
192.704	-1.54
192.923	-44.54
193.142	92.67
193.362	41.47
193.581	20.99
193.8	18.94
194.02	127.49
194.239	66.05
194.458	-77.31
194.678	10.75
194.897	43.52
195.116	84.48
195.335	61.95
195.555	49.66
195.774	-5.63
195.993	64
196.212	123.39
196.432	-44.54
196.651	49.66
196.87	23.04
197.089	172.54
197.308	-17.92
197.528	0.51
197.747	39.42
197.966	47.62
198.185	53.76
198.404	-15.87
198.623	47.62
198.842	-1.54
199.062	98.81
199.281	74.24
199.5	57.86
199.719	-11.78
199.938	109.05
200.157	86.53
200.376	94.72
200.595	39.42
200.814	72.19
201.033	39.42
201.252	92.67
201.471	-1.54
201.69	41.47
201.909	-32.26
202.128	72.19
202.347	49.66
202.566	80.38
202.785	74.24
203.004	-13.82
203.223	70.14
203.442	33.28
203.661	-28.16
203.879	111.1
204.098	66.05
204.317	-7.68
204.536	2.56
204.755	111.1
204.974	125.44
205.193	33.28
205.411	125.44
205.63	78.33
205.849	47.62
206.068	33.28
206.287	-44.54
206.505	82.43
206.724	25.09
206.943	74.24
207.162	35.33
207.381	74.24
207.599	25.09
207.818	16.9
208.037	-1.54
208.255	47.62
208.474	0.51
208.693	41.47
208.911	-19.97
209.13	82.43
209.349	47.62
209.567	74.24
209.786	117.25
210.005	10.75
210.223	35.33
210.442	27.14
210.661	16.9
210.879	0.51
211.098	12.8
211.316	39.42
211.535	107.01
211.753	33.28
211.972	20.99
212.191	8.7
212.409	57.86
212.628	14.85
212.846	-5.63
213.065	41.47
213.283	68.09
213.502	45.57
213.72	-36.35
213.938	6.66
214.157	66.05
214.375	-26.11
214.594	-7.68
214.812	51.71
215.031	104.96
215.249	68.09
215.467	-5.63
215.686	-7.68
215.904	43.52
216.122	0.51
216.341	16.9
216.559	27.14
216.778	12.8
216.996	66.05
217.214	49.66
217.432	20.99
217.651	76.29
217.869	-24.06
218.087	51.71
218.306	-32.26
218.524	59.9
218.742	25.09
218.96	4.61
219.179	12.8
219.397	41.47
219.615	90.62
219.833	51.71
220.051	16.9
220.27	47.62
220.488	107.01
220.706	47.62
220.924	27.14
221.142	43.52
221.36	59.9
221.578	41.47
221.796	16.9
222.015	4.61
222.233	43.52
222.451	131.58
222.669	37.38
222.887	35.33
223.105	-3.58
223.323	61.95
223.541	10.75
223.759	76.29
223.977	4.61
224.195	80.38
224.413	41.47
224.631	-13.82
224.849	59.9
225.067	29.18
225.285	102.91
225.503	-44.54
225.721	86.53
225.939	41.47
226.157	-15.87
226.375	166.4
226.592	0.51
226.81	82.43
227.028	29.18
227.246	86.53
227.464	29.18
227.682	-24.06
227.9	41.47
228.117	102.91
228.335	57.86
228.553	10.75
228.771	53.76
228.989	84.48
229.206	29.18
229.424	-13.82
229.642	45.57
229.86	41.47
230.077	2.56
230.295	18.94
230.513	66.05
230.731	-9.73
230.948	100.86
231.166	109.05
231.384	-24.06
231.601	41.47
231.819	86.53
232.037	-7.68
232.254	41.47
232.472	16.9
232.689	-24.06
232.907	107.01
233.125	18.94
233.342	33.28
233.56	-7.68
233.777	-9.73
233.995	23.04
234.213	47.62
234.43	-1.54
234.648	61.95
234.865	16.9
235.083	102.91
235.3	-28.16
235.518	104.96
235.735	57.86
235.953	66.05
236.17	-3.58
236.388	4.61
236.605	-3.58
236.822	49.66
237.04	86.53
237.257	2.56
237.475	33.28
237.692	25.09
237.909	20.99
238.127	31.23
238.344	25.09
238.562	-30.21
238.779	20.99
238.996	-71.17
239.214	20.99
239.431	115.2
239.648	-50.69
239.865	33.28
240.083	41.47
240.3	49.66
240.517	16.9
240.735	29.18
240.952	41.47
241.169	98.81
241.386	57.86
241.603	18.94
241.821	31.23
242.038	57.86
242.255	29.18
242.472	8.7
242.689	104.96
242.907	35.33
243.124	41.47
243.341	20.99
243.558	-5.63
243.775	-32.26
243.992	59.9
244.209	20.99
244.426	35.33
244.643	43.52
244.86	-22.02
245.078	-13.82
245.295	41.47
245.512	25.09
245.729	35.33
245.946	82.43
246.163	31.23
246.38	33.28
246.597	12.8
246.814	92.67
247.031	61.95
247.248	-9.73
247.464	16.9
247.681	41.47
247.898	12.8
248.115	66.05
248.332	-30.21
248.549	78.33
248.766	82.43
248.983	76.29
249.2	66.05
249.417	133.63
249.633	-5.63
249.85	-1.54
250.067	-26.11
250.284	51.71
250.501	57.86
250.717	45.57
250.934	10.75
251.151	35.33
251.368	59.9
251.585	102.91
251.801	27.14
252.018	-56.83
252.235	131.58
252.451	16.9
252.668	25.09
252.885	80.38
253.102	49.66
253.318	45.57
253.535	-15.87
253.752	-42.5
253.968	33.28
254.185	-7.68
254.401	72.19
254.618	61.95
254.835	8.7
255.051	100.86
255.268	86.53
255.484	33.28
255.701	-11.78
255.917	0.51
256.134	-36.35
256.351	117.25
256.567	-34.3
256.784	41.47
257	18.94
257.217	66.05
257.433	18.94
257.65	100.86
257.866	84.48
258.082	-15.87
258.299	84.48
258.515	64
258.732	37.38
258.948	41.47
259.165	25.09
259.381	-9.73
259.597	-13.82
259.814	49.66
260.03	18.94
260.246	12.8
260.463	90.62
260.679	76.29
260.895	-15.87
261.112	78.33
261.328	6.66
261.544	-5.63
261.761	90.62
261.977	-9.73
262.193	0.51
262.409	-28.16
262.626	59.9
262.842	27.14
263.058	-17.92
263.274	10.75
263.49	45.57
263.707	-28.16
263.923	8.7
264.139	16.9
264.355	70.14
264.571	23.04
264.787	123.39
265.004	123.39
265.22	80.38
265.436	0.51
265.652	0.51
265.868	-15.87
266.084	8.7
266.3	33.28
266.516	49.66
266.732	86.53
266.948	-19.97
267.164	2.56
267.38	-19.97
267.596	25.09
267.812	107.01
268.028	84.48
268.244	0.51
268.46	64
268.676	18.94
268.892	-9.73
269.108	-56.83
269.324	-62.98
269.54	-44.54
269.756	96.77
269.972	-32.26
270.188	-3.58
270.403	0.51
270.619	68.09
270.835	33.28
271.051	-48.64
271.267	10.75
271.483	23.04
271.698	76.29
271.914	66.05
272.13	25.09
272.346	10.75
272.562	82.43
272.777	98.81
272.993	-9.73
273.209	20.99
273.425	14.85
273.64	8.7
273.856	31.23
274.072	76.29
274.287	4.61
274.503	55.81
274.719	96.77
274.934	4.61
275.15	43.52
275.366	51.71
275.581	-1.54
275.797	51.71
276.012	-46.59
276.228	20.99
276.444	113.15
276.659	80.38
276.875	-73.21
277.09	4.61
277.306	-15.87
277.521	82.43
277.737	94.72
277.952	23.04
278.168	51.71
278.383	10.75
278.599	10.75
278.814	78.33
279.03	98.81
279.245	137.73
279.461	49.66
279.676	-11.78
279.892	-9.73
280.107	10.75
280.322	-42.5
280.538	18.94
280.753	41.47
280.969	72.19
281.184	74.24
281.399	29.18
281.615	61.95
281.83	43.52
282.045	-81.41
282.26	18.94
282.476	-22.02
282.691	59.9
282.906	16.9
283.122	25.09
283.337	53.76
283.552	53.76
283.767	16.9
283.983	49.66
284.198	-22.02
284.413	-15.87
284.628	-48.64
284.843	2.56
285.058	18.94
285.274	18.94
285.489	0.51
285.704	-5.63
285.919	10.75
286.134	72.19
286.349	49.66
286.564	-38.4
286.779	55.81
286.995	90.62
287.21	-5.63
287.425	8.7
287.64	25.09
287.855	72.19
288.07	-44.54
288.285	27.14
288.5	14.85
288.715	23.04
288.93	-13.82
289.145	16.9
289.36	94.72
289.575	-1.54
289.79	53.76
290.004	35.33
290.219	92.67
290.434	-44.54
290.649	68.09
290.864	-17.92
291.079	27.14
291.294	31.23
291.509	27.14
291.724	39.42
291.938	39.42
292.153	23.04
292.368	18.94
292.583	23.04
292.798	115.2
293.012	98.81
293.227	66.05
293.442	8.7
293.657	82.43
293.871	25.09
294.086	70.14
294.301	107.01
294.516	66.05
294.73	18.94
294.945	-5.63
295.16	35.33
295.374	82.43
295.589	115.2
295.804	-9.73
296.018	90.62
296.233	123.39
296.447	59.9
296.662	6.66
296.877	57.86
297.091	-1.54
297.306	66.05
297.52	4.61
297.735	123.39
297.949	29.18
298.164	47.62
298.378	57.86
298.593	-19.97
298.807	57.86
299.022	35.33
299.236	180.73
299.451	23.04
299.665	-15.87
299.88	31.23
300.094	10.75
300.309	-13.82
300.523	68.09
300.737	41.47
300.952	18.94
301.166	115.2
301.381	-30.21
301.595	-38.4
301.809	51.71
302.024	20.99
302.238	-7.68
302.452	76.29
302.667	43.52
302.881	59.9
303.095	29.18
303.309	35.33
303.524	82.43
303.738	109.05
303.952	-40.45
304.166	80.38
304.381	-83.45
304.595	123.39
304.809	39.42
305.023	35.33
305.237	-13.82
305.452	8.7
305.666	-9.73
305.88	80.38
306.094	18.94
306.308	49.66
306.522	66.05
306.736	-17.92
306.95	49.66
307.164	41.47
307.379	39.42
307.593	92.67
307.807	96.77
308.021	-5.63
308.235	49.66
308.449	0.51
308.663	-7.68
308.877	119.29
309.091	41.47
309.305	57.86
309.519	14.85
309.733	59.9
309.947	-24.06
310.161	154.11
310.374	82.43
310.588	78.33
310.802	10.75
311.016	78.33
311.23	23.04
311.444	-101.89
311.658	27.14
311.872	16.9
312.085	10.75
312.299	90.62
312.513	82.43
312.727	4.61
312.941	-28.16
313.154	92.67
313.368	0.51
313.582	82.43
313.796	70.14
314.009	57.86
314.223	100.86
314.437	39.42
314.651	-7.68
314.864	86.53
315.078	-42.5
315.292	37.38
315.505	70.14
315.719	14.85
315.933	20.99
316.146	-17.92
316.36	39.42
316.573	102.91
316.787	51.71
317.001	61.95
317.214	-22.02
317.428	111.1
317.641	43.52
317.855	20.99
318.068	-22.02
318.282	-5.63
318.495	90.62
318.709	61.95
318.922	41.47
319.136	82.43
319.349	51.71
319.563	-48.64
319.776	51.71
319.99	12.8
320.203	12.8
320.417	66.05
320.63	31.23
320.843	117.25
321.057	57.86
321.27	2.56
321.483	-15.87
321.697	45.57
321.91	43.52
322.124	86.53
322.337	33.28
322.55	-17.92
322.763	20.99
322.977	45.57
323.19	-9.73
323.403	-24.06
323.617	31.23
323.83	94.72
324.043	-26.11
324.256	43.52
324.469	27.14
324.683	2.56
324.896	68.09
325.109	66.05
325.322	-44.54
325.535	90.62
325.748	4.61
325.962	66.05
326.175	20.99
326.388	-7.68
326.601	96.77
326.814	27.14
327.027	98.81
327.24	39.42
327.453	-40.45
327.666	57.86
327.879	82.43
328.092	45.57
328.305	84.48
328.518	27.14
328.731	39.42
328.944	10.75
329.157	86.53
329.37	100.86
329.583	6.66
329.796	90.62
330.009	25.09
330.222	90.62
330.435	100.86
330.648	43.52
330.861	23.04
331.073	172.54
331.286	100.86
331.499	-13.82
331.712	33.28
331.925	-9.73
332.138	-7.68
332.35	86.53
332.563	84.48
332.776	23.04
332.989	-3.58
333.202	53.76
333.414	16.9
333.627	53.76
333.84	33.28
334.053	-3.58
334.265	25.09
334.478	33.28
334.691	53.76
334.903	27.14
335.116	4.61
335.329	18.94
335.541	27.14
335.754	78.33
335.966	72.19
336.179	-50.69
336.392	27.14
336.604	66.05
336.817	43.52
337.029	53.76
337.242	82.43
337.454	88.57
337.667	51.71
337.88	41.47
338.092	-15.87
338.305	61.95
338.517	-24.06
338.729	76.29
338.942	137.73
339.154	-1.54
339.367	-36.35
339.579	59.9
339.792	6.66
340.004	123.39
340.217	66.05
340.429	35.33
340.641	2.56
340.854	6.66
341.066	-9.73
341.278	51.71
341.491	102.91
341.703	66.05
341.915	6.66
342.128	-9.73
342.34	27.14
342.552	16.9
342.764	29.18
342.977	113.15
343.189	59.9
343.401	2.56
343.613	-17.92
343.826	59.9
344.038	-24.06
344.25	-17.92
344.462	10.75
344.674	82.43
344.886	29.18
345.099	20.99
345.311	41.47
345.523	70.14
345.735	-58.88
345.947	98.81
346.159	76.29
346.371	74.24
346.583	61.95
346.795	147.97
347.007	31.23
347.219	-22.02
347.431	94.72
347.643	160.25
347.855	33.28
348.067	49.66
348.279	51.71
348.491	20.99
348.703	57.86
348.915	-22.02
349.127	29.18
349.339	100.86
349.551	70.14
349.763	59.9
349.975	102.91
350.187	66.05
350.399	74.24
350.61	66.05
350.822	96.77
351.034	27.14
351.246	61.95
351.458	123.39
351.669	78.33
351.881	74.24
352.093	49.66
352.305	147.97
352.517	49.66
352.728	115.2
352.94	45.57
353.152	139.77
353.363	8.7
353.575	55.81
353.787	115.2
353.999	107.01
354.21	141.82
354.422	-50.69
354.633	61.95
354.845	-48.64
355.057	74.24
355.268	27.14
355.48	25.09
355.692	-30.21
355.903	-11.78
356.115	-22.02
356.326	-58.88
356.538	96.77
356.749	-60.93
356.961	78.33
357.172	18.94
357.384	35.33
357.595	162.3
357.807	115.2
358.018	-15.87
358.23	29.18
358.441	143.87
358.653	-13.82
358.864	29.18
359.075	-26.11
359.287	107.01
359.498	139.77
359.709	117.25
359.921	14.85
360.132	23.04
360.344	70.14
360.555	-67.07
360.766	66.05
360.977	12.8
361.189	98.81
361.4	109.05
361.611	59.9
361.823	47.62
362.034	33.28
362.245	-15.87
362.456	74.24
362.667	96.77
362.879	10.75
363.09	55.81
363.301	41.47
363.512	51.71
363.723	14.85
363.935	66.05
364.146	131.58
364.357	4.61
364.568	82.43
364.779	29.18
364.99	121.34
365.201	-9.73
365.412	127.49
365.623	45.57
365.834	82.43
366.045	72.19
366.256	27.14
366.467	92.67
366.678	70.14
366.889	104.96
367.1	84.48
367.311	150.01
367.522	-1.54
367.733	109.05
367.944	-30.21
368.155	51.71
368.366	59.9
368.577	90.62
368.788	100.86
368.999	-50.69
369.209	117.25
369.42	84.48
369.631	168.45
369.842	-11.78
370.053	0.51
370.264	31.23
370.474	78.33
370.685	-9.73
370.896	57.86
371.107	107.01
371.317	57.86
371.528	0.51
371.739	86.53
371.95	102.91
372.16	57.86
372.371	-9.73
372.582	66.05
372.792	37.38
373.003	115.2
373.214	82.43
373.424	94.72
373.635	23.04
373.846	113.15
374.056	90.62
374.267	51.71
374.477	55.81
374.688	25.09
374.898	-24.06
375.109	68.09
375.319	53.76
375.53	102.91
375.74	76.29
375.951	76.29
376.161	104.96
376.372	29.18
376.582	29.18
376.793	61.95
377.003	-13.82
377.214	18.94
377.424	88.57
377.635	68.09
377.845	49.66
378.055	92.67
378.266	57.86
378.476	33.28
378.686	96.77
378.897	18.94
379.107	57.86
379.317	33.28
379.528	51.71
379.738	70.14
379.948	-26.11
380.158	33.28
380.369	76.29
380.579	45.57
380.789	31.23
380.999	92.67
381.21	117.25
381.42	121.34
381.63	61.95
381.84	16.9
382.05	66.05
382.261	51.71
382.471	49.66
382.681	51.71
382.891	98.81
383.101	53.76
383.311	25.09
383.521	-22.02
383.731	100.86
383.941	20.99
384.151	88.57
384.361	-32.26
384.571	74.24
384.781	49.66
384.991	168.45
385.201	176.64
385.411	182.78
385.621	70.14
385.831	66.05
386.041	8.7
386.251	68.09
386.461	72.19
386.671	49.66
386.881	12.8
387.091	18.94
387.301	49.66
387.511	88.57
387.72	80.38
387.93	68.09
388.14	-7.68
388.35	129.53
388.56	57.86
388.769	74.24
388.979	107.01
389.189	29.18
389.399	107.01
389.609	25.09
389.818	121.34
390.028	82.43
390.238	78.33
390.447	76.29
390.657	74.24
390.867	-15.87
391.076	-28.16
391.286	-5.63
391.496	41.47
391.705	100.86
391.915	92.67
392.125	129.53
392.334	64
392.544	96.77
392.753	47.62
392.963	68.09
393.172	66.05
393.382	35.33
393.591	115.2
393.801	43.52
394.01	133.63
394.22	51.71
394.429	66.05
394.639	64
394.848	109.05
395.058	6.66
395.267	90.62
395.477	88.57
395.686	92.67
395.895	100.86
396.105	137.73
396.314	53.76
396.524	96.77
396.733	37.38
396.942	129.53
397.152	166.4
397.361	127.49
397.57	59.9
397.78	78.33
397.989	90.62
398.198	184.83
398.407	90.62
398.617	61.95
398.826	8.7
399.035	84.48
399.244	51.71
399.453	57.86
399.663	135.68
399.872	-19.97
400.081	88.57
400.29	119.29
400.499	61.95
400.708	139.77
400.917	109.05
401.127	74.24
401.336	49.66
401.545	158.21
401.754	115.2
401.963	100.86
402.172	88.57
402.381	107.01
402.59	59.9
402.799	121.34
403.008	74.24
403.217	119.29
403.426	145.92
403.635	37.38
403.844	174.59
404.053	176.64
404.262	127.49
404.471	213.5
404.68	82.43
404.888	156.16
405.097	64
405.306	186.88
405.515	227.84
405.724	127.49
405.933	141.82
406.142	182.78
406.35	154.11
406.559	113.15
406.768	143.87
406.977	264.7
407.185	180.73
407.394	158.21
407.603	156.16
407.812	240.12
408.02	209.4
408.229	182.78
408.438	104.96
408.646	205.31
408.855	270.84
409.064	244.22
409.272	217.6
409.481	254.46
409.69	252.41
409.898	270.84
410.107	184.83
410.315	268.8
410.524	348.67
410.733	213.5
410.941	248.32
411.15	315.9
411.358	336.38
411.567	406.01
411.775	336.38
411.984	385.53
412.192	371.19
412.401	379.39
412.609	408.06
412.818	412.15
413.026	369.15
413.234	485.88
413.443	455.16
413.651	424.44
413.86	473.59
414.068	528.89
414.276	578.04
414.485	512.5
414.693	492.02
414.901	705.01
415.11	532.98
415.318	649.72
415.526	616.95
415.734	631.29
415.943	627.19
416.151	725.49
416.359	707.06
416.567	782.84
416.776	754.16
416.984	817.65
417.192	872.95
417.4	831.99
417.608	827.89
417.817	831.99
418.025	844.28
418.233	1016.3
418.441	1028.59
418.649	1047.02
418.857	1067.5
419.065	1094.13
419.273	1090.03
419.481	1108.46
419.689	1180.14
419.897	1204.72
420.105	1352.17
420.313	1319.4
420.521	1389.03
420.729	1401.32
420.937	1389.03
421.145	1501.67
421.353	1513.96
421.561	1616.36
421.769	1749.48
421.977	1692.13
422.185	1731.05
422.393	1841.64
422.601	1966.56
422.809	1898.98
423.017	1937.89
423.224	2089.44
423.432	2099.68
423.64	2042.34
423.848	2343.39
424.056	2175.45
424.263	2445.79
424.471	2427.35
424.679	2539.99
424.887	2480.6
425.094	2773.46
425.302	2722.26
425.51	2666.97
425.718	2781.65
425.925	2945.49
426.133	3070.42
426.341	3244.49
426.548	3262.93
426.756	3250.64
426.964	3404.24
427.171	3498.44
427.379	3711.43
427.586	3592.65
427.794	3787.21
428.001	3834.31
428.209	4127.17
428.417	4098.5
428.624	4477.37
428.832	4434.36
429.039	4479.42
429.247	4344.25
429.454	4843.96
429.662	4983.22
429.869	4733.37
430.076	5015.99
430.284	4889.01
430.491	5153.2
430.699	5343.66
430.906	5530.03
431.114	5587.37
431.321	5740.97
431.528	5986.72
431.736	6242.72
431.943	6603.16
432.15	6381.98
432.358	6330.78
432.565	6896.02
432.772	6754.71
432.979	7109.01
433.187	7192.98
433.394	7231.89
433.601	7590.28
433.808	7602.57
434.016	7850.38
434.223	8079.75
434.43	8554.88
434.637	8231.3
434.844	8905.08
435.052	8956.28
435.259	8974.71
435.466	8954.23
435.673	8931.7
435.88	9836.91
436.087	10156.39
436.294	10086.76
436.501	9767.27
436.708	10279.27
436.915	10494.3
437.122	11039.06
437.329	11016.54
437.537	11286.87
437.743	11442.51
437.95	11530.58
438.157	12013.9
438.364	12314.95
438.571	12280.13
438.778	12323.14
438.985	13392.18
439.192	12976.44
439.399	13291.83
439.606	12960.06
439.813	13799.73
440.02	14700.83
440.227	14498.08
440.433	14289.19
440.64	14788.89
440.847	14831.9
441.054	15022.36
441.261	15972.62
441.467	15681.81
441.674	16171.27
441.881	16877.82
442.088	16707.84
442.294	16374.02
442.501	16867.58
442.708	17486.07
442.914	17930.48
443.121	18628.84
443.328	18092.27
443.534	19368.15
443.741	19175.64
443.948	18643.17
444.154	20164.81
444.361	19994.83
444.568	20107.47
444.774	20291.79
444.981	20062.41
445.187	21094.59
445.394	22145.2
445.6	21283
445.807	23720.09
446.013	22610.09
446.22	23007.39
446.426	24000.66
446.633	24656.01
446.839	25225.34
447.046	24180.88
447.252	25464.96
447.459	25428.09
447.665	25270.4
447.871	26579.05
448.078	27564.12
448.284	26112.11
448.491	27258.98
448.697	28217.43
448.903	28811.34
449.11	28690.51
449.316	28643.4
449.522	29009.99
449.728	29550.65
449.935	29718.59
450.141	29507.65
450.347	30222.39
450.553	29401.15
450.76	29927.48
450.966	31100.97
451.172	30478.38
451.378	31326.24
451.584	30918.7
451.791	31688.73
451.997	31543.33
452.203	32237.59
452.409	32055.32
452.615	32266.26
452.821	30562.35
453.027	30527.53
453.233	32118.81
453.44	30670.89
453.646	31010.85
453.852	31203.36
454.058	31772.7
454.264	30728.24
454.47	31676.44
454.676	30795.82
454.882	31879.19
455.088	29251.65
455.294	29360.19
455.5	30398.51
455.705	30810.15
455.911	29177.92
456.117	28831.82
456.323	28215.38
456.529	26640.49
456.735	27742.3
456.941	27390.05
457.147	26884.2
457.352	26312.81
457.558	25944.18
457.764	25774.2
457.97	25387.13
458.176	24823.94
458.381	24815.75
458.587	23752.85
458.793	23679.13
458.999	22528.17
459.204	23969.94
459.41	23322.78
459.616	21784.76
459.821	21975.22
460.027	21809.33
460.233	21213.37
460.438	20424.9
460.644	20433.1
460.85	19521.75
461.055	19421.4
461.261	19333.34
461.466	17946.86
461.672	17193.21
461.878	18307.3
462.083	17484.02
462.289	16926.97
462.494	16775.42
462.7	15956.24
462.905	15513.88
463.111	16124.17
463.316	16165.13
463.522	15986.96
463.727	15614.23
463.932	15628.56
464.138	15675.66
464.343	15851.79
464.549	15098.14
464.754	15745.3
464.959	15646.99
465.165	15431.96
465.37	14856.48
465.575	14340.39
465.781	14991.64
465.986	15122.71
466.191	14321.96
466.397	14170.41
466.602	13496.63
466.807	13943.08
467.012	14211.37
467.218	14002.47
467.423	13906.22
467.628	13994.28
467.833	14569.76
468.038	13932.84
468.244	13427
468.449	14141.74
468.654	13734.19
468.859	13556.02
469.064	13764.91
469.269	12869.95
469.474	13107.51
469.679	13207.86
469.885	12933.43
470.09	13281.59
470.295	12992.83
470.5	12648.77
470.705	12710.21
470.91	12456.26
471.115	12448.07
471.32	12489.03
471.525	12566.85
471.73	12163.4
471.935	12224.84
472.139	11696.46
472.344	11966.79
472.549	11862.35
472.754	11766.09
472.959	11319.64
473.164	11272.53
473.369	10916.19
473.574	11563.34
473.778	11268.44
473.983	11256.15
474.188	11153.75
474.393	10516.83
474.598	10770.78
474.802	10662.24
475.007	10570.08
475.212	10608.99
475.417	10262.88
475.621	10445.15
475.826	10295.65
476.031	10137.96
476.235	9861.48
476.44	10013.03
476.645	9879.91
476.849	9724.27
477.054	9662.83
477.259	9470.32
477.463	9863.53
477.668	9421.17
477.872	9349.49
478.077	9111.92
478.282	9017.72
478.486	9019.77
478.691	8835.45
478.895	8923.51
479.1	8870.26
479.304	8917.37
479.509	8530.3
479.713	8616.32
479.918	8417.66
480.122	8399.23
480.326	8518.01
480.531	8604.03
480.735	8548.73
480.94	8477.05
481.144	8653.18
481.348	8325.5
481.553	8317.31
481.757	8249.73
481.961	8311.17
482.166	8208.77
482.37	8284.55
482.574	8020.36
482.778	7965.06
482.983	8292.74
483.187	8380.8
483.391	8200.58
483.595	7960.97
483.8	8114.56
484.004	8262.02
484.208	8276.35
484.412	8247.68
484.616	8137.09
484.821	8290.69
485.025	8032.65
485.229	8120.71
485.433	8145.28
485.637	8176
485.841	8237.44
486.045	8126.85
486.249	8016.26
486.453	8089.99
486.657	8137.09
486.861	8356.22
487.065	7920.01
487.269	8262.02
487.473	8059.27
487.677	8184.2
487.881	8202.63
488.085	8120.71
488.289	8298.88
488.493	8096.13
488.697	8401.28
488.901	8153.48
489.105	8380.8
489.309	8196.48
489.512	8309.12
489.716	8219.01
489.92	8376.7
490.124	8178.05
490.328	8446.34
490.531	8221.06
490.735	8503.68
490.939	8360.32
491.143	8286.59
491.346	8302.98
491.55	8593.79
491.754	8444.29
491.958	8442.24
492.161	8472.96
492.365	8825.21
492.569	8530.3
492.772	8468.86
492.976	8688
493.18	8784.25
493.383	8804.73
493.587	8714.62
493.79	8763.77
493.994	8857.98
494.197	8870.26
494.401	9005.43
494.605	9083.25
494.808	9351.54
495.012	9040.25
495.215	9372.02
495.419	9304.43
495.622	9208.18
495.825	9562.48
496.029	9519.47
496.232	9548.14
496.436	9507.18
496.639	9955.69
496.843	9787.75
497.046	9929.06
497.249	10209.64
497.453	10119.53
497.656	10178.92
497.859	10281.32
498.063	10379.62
498.266	10508.64
498.469	10373.47
498.673	10572.13
498.876	10821.98
499.079	10971.48
499.282	10666.33
499.485	11223.38
499.689	11094.36
499.892	11051.35
500.095	11250
500.298	11620.69
500.501	11506
500.705	11661.65
500.908	12032.33
501.111	12069.19
501.314	12263.75
501.517	12271.94
501.72	12314.95
501.923	12513.6
502.126	12638.53
502.329	12910.91
502.532	13060.41
502.735	12884.28
502.938	13396.28
503.141	13322.55
503.344	13508.91
503.547	13623.6
503.75	13865.26
503.953	13945.13
504.156	14008.62
504.359	14145.83
504.562	14260.52
504.765	14481.7
504.968	14786.85
505.17	14909.72
505.373	14704.93
505.576	15460.63
505.779	15155.48
505.982	15356.18
506.185	15630.61
506.387	15718.67
506.59	15720.72
506.793	16224.52
506.996	16181.51
507.198	16793.86
507.401	16572.68
507.604	16711.94
507.807	16779.52
508.009	17080.57
508.212	17230.07
508.415	17283.32
508.617	17580.28
508.82	17850.61
509.022	17774.83
509.225	18247.91
509.428	18391.27
509.63	18491.62
509.833	18610.4
510.035	19151.07
510.238	19046.62
510.44	19185.88
510.643	19366.1
510.845	19560.66
511.048	19536.09
511.25	19880.14
511.453	20101.33
511.655	20476.1
511.858	20377.8
512.06	20564.17
512.262	20971.71
512.465	20725.96
512.667	21145.79
512.87	21713.08
513.072	21467.32
513.274	21602.49
513.477	22028.46
513.679	21997.74
513.881	22397.1
514.084	22741.16
514.286	22714.53
514.488	22941.86
514.69	23324.83
514.893	23685.27
515.095	23552.15
515.297	24019.09
515.499	24041.62
515.701	24166.54
515.904	24543.37
516.106	24744.07
516.308	25036.93
516.51	25120.9
516.712	25241.73
516.914	25178.24
517.116	25946.23
517.318	26001.52
517.52	26511.47
517.722	26163.31
517.925	26951.78
518.127	27060.32
518.329	27080.8
518.531	26943.59
518.733	27426.91
518.935	28074.07
519.136	28119.12
519.338	28115.03
519.54	28356.69
519.742	28520.52
519.944	28782.66
520.146	29333.57
520.348	29225.03
520.55	29620.28
520.752	29485.12
520.954	30113.84
521.155	29960.25
521.357	30406.7
521.559	30541.87
521.761	31064.1
521.963	30820.39
522.164	31576.09
522.366	31565.85
522.568	31858.71
522.77	31883.29
522.971	32311.31
523.173	31946.78
523.375	32460.82
523.576	32536.59
523.778	32731.15
523.98	32972.81
524.181	33497.09
524.383	33325.06
524.584	33763.32
524.786	33546.24
524.988	33755.13
525.189	34271.22
525.391	34082.81
525.592	34574.32
525.794	34641.9
525.995	34830.32
526.197	34822.12
526.398	34578.42
526.6	35248.1
526.801	35221.48
527.003	35538.91
527.204	35596.26
527.406	35690.46
527.607	35792.86
527.808	35854.3
528.01	35760.09
528.211	36003.8
528.412	36665.3
528.614	36556.75
528.815	36845.52
529.016	36954.06
529.218	36374.48
529.419	36808.65
529.62	36771.79
529.822	36587.47
530.023	36806.61
530.224	36970.44
530.425	37089.23
530.626	36724.69
530.828	36980.68
531.029	37795.78
531.23	37005.26
531.431	37074.89
531.632	37531.59
531.833	37730.24
532.035	37535.68
532.236	37892.03
532.437	37826.49
532.638	37795.78
532.839	37744.58
533.04	38096.83
533.241	37803.97
533.442	38557.62
533.643	38203.32
533.844	37646.27
534.045	37953.47
534.246	38019
534.447	38051.77
534.648	37656.51
534.849	38430.65
535.05	37720
535.251	38131.64
535.451	37939.13
535.652	38463.41
535.853	38248.38
536.054	38549.43
536.255	38295.48
536.456	37928.89
536.657	39106.48
536.857	38252.47
537.058	38197.18
537.259	38834.1
537.46	38485.94
537.66	38399.93
537.861	38240.18
538.062	38248.38
538.263	37990.33
538.463	38051.77
538.664	38195.13
538.865	38494.13
539.065	38549.43
539.266	38082.49
539.466	38365.11
539.667	37736.38
539.868	38641.59
540.068	38248.38
540.269	38227.9
540.469	38756.27
540.67	38229.94
540.87	38240.18
541.071	38565.81
541.271	38428.6
541.472	38614.96
541.672	38195.13
541.873	38215.61
542.073	37609.41
542.274	38535.09
542.474	38524.85
542.675	38053.82
542.875	38217.66
543.075	38068.16
543.276	37711.81
543.476	38387.64
543.676	38178.75
543.877	38119.35
544.077	38526.9
544.277	38084.54
544.478	37943.23
544.678	37965.76
544.878	37552.07
545.078	38004.67
545.279	37728.19
545.479	37967.8
545.679	37664.71
545.879	37904.32
546.079	37986.24
546.28	38014.91
546.48	37423.04
546.68	38262.71
546.88	38139.83
547.08	38240.18
547.28	38102.97
547.48	37429.19
547.68	37832.64
547.88	37562.31
548.081	37969.85
548.281	37734.34
548.481	37494.72
548.681	38031.29
548.881	37896.13
549.081	37754.82
549.28	37599.17
549.48	38252.47
549.68	37672.9
549.88	38481.84
550.08	37289.93
550.28	38137.79
550.48	37447.62
550.68	38533.04
550.88	37679.04
551.08	37763.01
551.279	37662.66
551.479	37560.26
551.679	37926.85
551.879	37390.28
552.079	38260.66
552.278	37398.47
552.478	37541.83
552.678	37687.23
552.878	37836.73
553.077	37597.12
553.277	37124.04
553.477	37904.32
553.676	37076.94
553.876	37679.04
554.076	37300.17
554.275	37371.85
554.475	36917.2
554.674	37490.63
554.874	37318.6
555.074	37343.17
555.273	37267.4
555.473	37552.07
555.672	37339.08
555.872	37115.85
556.071	37015.5
556.271	37402.57
556.47	36978.64
556.67	36698.06
556.869	36636.62
557.068	37380.04
557.268	36702.16
557.467	36372.44
557.667	36894.67
557.866	36648.91
558.065	36544.47
558.265	36919.24
558.464	36222.94
558.663	36702.16
558.863	36265.94
559.062	36845.52
559.261	35930.08
559.461	36722.64
559.66	35991.51
559.859	36257.75
560.058	36290.52
560.258	36224.98
560.457	35686.37
560.656	36229.08
560.855	35639.26
561.054	36161.5
561.253	35889.12
561.453	35882.97
561.652	35592.16
561.851	35899.36
562.05	35694.56
562.249	35401.7
562.448	35813.34
562.647	35117.03
562.846	35848.16
563.045	35465.19
563.244	35258.34
563.443	35667.94
563.642	34955.24
563.841	35041.26
564.04	34689.01
564.239	34824.17
564.438	34734.06
564.637	34586.61
564.836	34727.92
565.035	34564.08
565.234	34467.83
565.432	34760.69
565.631	33798.14
565.83	34418.67
566.029	34211.83
566.228	34029.56
566.427	33990.65
566.625	34021.37
566.824	33409.03
567.023	33769.47
567.222	33521.66
567.42	33955.83
567.619	33536
567.818	33320.96
568.016	33402.88
568.215	33601.54
568.414	33087.5
568.612	33624.06
568.811	33280
569.01	33671.17
569.208	33038.34
569.407	33204.23
569.605	32600.08
569.804	33087.5
570.002	32538.64
570.201	32413.71
570.4	32221.2
570.598	32743.44
570.797	31801.37
570.995	32235.54
571.193	31944.73
571.392	32374.8
571.59	31733.79
571.789	32071.7
571.987	31772.7
572.186	31961.11
572.384	31586.33
572.582	31662.11
572.781	31428.64
572.979	31115.3
573.177	31871
573.376	31522.85
573.574	30910.5
573.772	31354.91
573.971	30867.5
574.169	31186.98
574.367	30763.05
574.565	31090.73
574.763	30750.76
574.962	30697.52
575.16	30453.81
575.358	30924.84
575.556	30330.93
575.754	30384.18
575.952	30222.39
576.151	30306.35
576.349	30050.36
576.547	29726.78
576.745	30048.31
576.943	30081.08
577.141	29857.85
577.339	29669.44
577.537	29536.32
577.735	29579.32
577.933	29429.82
578.131	29560.89
578.329	29239.36
578.527	28874.82
578.725	29476.93
578.923	29210.69
579.121	29163.59
579.319	28856.39
579.516	29024.33
579.714	29245.51
579.912	28721.23
580.11	28676.17
580.308	28485.71
580.506	28436.56
580.704	28143.7
580.901	28680.27
581.099	28776.52
581.297	28026.96
581.495	28405.84
581.692	28340.3
581.89	28104.79
582.088	28258.38
582.285	27684.95
582.483	27816.02
582.681	27940.95
582.878	27574.36
583.076	27820.12
583.274	28008.53
583.471	27215.97
583.669	27533.4
583.866	27443.29
584.064	27422.81
584.262	26581.1
584.459	27607.13
584.657	26871.91
584.854	27175.01
585.052	26593.39
585.249	27002.98
585.447	26728.55
585.644	26572.91
585.841	26544.23
586.039	26855.53
586.236	26267.76
586.434	26353.77
586.631	26251.38
586.828	26054.77
587.026	26431.6
587.223	25868.41
587.42	26067.06
587.618	25907.32
587.815	26052.72
588.012	25743.48
588.21	25522.3
588.407	26007.67
588.604	25401.47
588.801	25561.21
588.999	25139.33
589.196	25460.86
589.393	25038.98
589.59	25268.35
589.787	25299.07
589.984	24905.86
590.182	25071.75
590.379	24850.56
590.576	24512.65
590.773	24813.7
590.97	24574.09
591.167	24699.02
591.364	24305.81
591.561	24438.92
591.758	24502.41
591.955	24354.96
592.152	24352.91
592.349	24266.89
592.546	23900.31
592.743	24207.5
592.94	24014.99
593.137	23918.74
593.334	24035.47
593.531	23218.33
593.727	23644.31
593.924	23611.54
594.121	23394.46
594.318	23591.06
594.515	23550.1
594.712	23492.76
594.908	23337.12
595.105	23124.13
595.302	22806.69
595.499	23230.62
595.696	23005.34
595.892	22491.3
596.089	23279.77
596.286	23103.65
596.482	22554.79
596.679	22794.4
596.876	22792.36
597.072	22591.66
597.269	22567.08
597.466	22479.02
597.662	22309.04
597.859	22157.49
598.055	22300.84
598.252	21801.14
598.448	21989.55
598.645	22044.85
598.841	21743.8
599.038	22169.77
599.234	21962.93
599.431	21821.62
599.627	21618.87
599.824	21844.15
600.02	21438.65
600.217	21643.45
600.413	21452.98
600.609	21213.37
600.806	21196.99
601.002	21342.39
601.198	21276.86
601.395	21029.06
601.591	20914.37
601.787	21065.92
601.984	20922.56
602.18	21004.48
602.376	20793.54
602.572	20584.65
602.769	20764.87
602.965	20308.17
603.161	20992.19
603.357	20340.94
603.553	20041.93
603.75	20394.18
603.946	20138.19
604.142	20437.19
604.338	19986.64
604.534	20025.55
604.73	19960.02
604.926	19693.78
605.122	20017.36
605.318	19718.36
605.514	19923.15
605.71	19740.88
605.906	19759.31
606.102	19603.67
606.298	19802.32
606.494	19802.32
606.69	19787.99
606.886	19626.2
607.082	19312.86
607.278	19456.22
607.474	19345.62
607.67	19519.7
607.866	19026.14
608.062	19216.6
608.257	19171.55
608.453	18854.11
608.649	19138.78
608.845	18940.13
609.041	19052.77
609.236	18958.56
609.432	18548.96
609.628	18524.39
609.824	18725.09
610.019	18501.86
610.215	18630.88
610.411	18911.46
610.606	18536.68
610.802	18327.78
610.998	18489.57
611.193	18446.57
611.389	18383.08
611.584	18297.06
611.78	18401.51
611.976	18278.63
612.171	18473.19
612.367	18381.03
612.562	18018.54
612.758	17875.18
612.953	18063.6
613.149	17987.82
613.344	17776.88
613.539	18317.54
613.735	17959.15
613.93	18051.31
614.126	17826.03
614.321	18442.47
614.517	17877.23
614.712	17817.84
614.907	17875.18
615.103	17735.92
615.298	17635.57
615.493	17727.73
615.688	17381.62
615.884	17780.98
616.079	17520.88
616.274	17701.11
616.47	17391.86
616.665	17391.86
616.86	17375.48
617.055	17207.55
617.25	17244.41
617.445	17250.55
617.641	17000.7
617.836	17211.64
618.031	16974.08
618.226	16945.41
618.421	16849.15
618.616	16943.36
618.811	16863.49
619.006	16849.15
619.201	16601.35
619.396	16625.92
619.591	16365.83
619.786	16484.61
619.981	16521.48
620.176	16423.17
620.371	16363.78
620.566	16453.89
620.761	16007.44
620.956	16320.77
621.151	15989
621.346	16087.31
621.541	15982.86
621.735	15989
621.93	15673.62
622.125	15931.66
622.32	15425.81
622.515	15477.01
622.709	15593.75
622.904	15540.5
623.099	15407.38
623.294	15270.17
623.488	15188.25
623.683	15057.18
623.878	15032.6
624.072	15122.71
624.267	14879
624.462	14694.69
624.656	14651.68
624.851	15018.27
625.046	14536.99
625.24	14858.53
625.435	14362.92
625.629	14293.29
625.824	14328.1
626.018	14135.59
626.213	14059.82
626.407	14108.97
626.602	13850.92
626.796	13916.46
626.991	13885.74
627.185	14035.24
627.38	13861.16
627.574	13556.02
627.768	13429.04
627.963	13498.67
628.157	13521.2
628.352	13453.62
628.546	13158.71
628.74	13257.01
628.935	13232.44
629.129	13080.89
629.323	12953.91
629.517	12927.29
629.712	12882.24
629.906	12831.04
630.1	12937.53
630.294	12773.69
630.489	12652.86
630.683	12558.66
630.877	12345.67
631.071	12331.33
631.265	12400.96
631.459	12321.09
631.653	12208.45
631.848	12110.15
632.042	11993.42
632.236	12312.9
632.43	12036.42
632.624	12013.9
632.818	12067.14
633.012	11616.59
633.206	11661.65
633.4	11950.41
633.594	11735.37
633.788	11589.97
633.982	11602.25
634.176	11438.42
634.369	11448.66
634.563	11262.29
634.757	11309.4
634.951	11190.61
635.145	11067.74
635.339	11045.21
635.533	11229.52
635.726	10969.43
635.92	10731.87
636.114	10881.37
636.308	10744.16
636.501	10883.42
636.695	10840.41
636.889	10608.99
637.083	10522.98
637.276	10496.35
637.47	10391.91
637.664	10426.72
637.857	10379.62
638.051	10328.42
638.244	10273.12
638.438	10150.25
638.632	10260.84
638.825	9943.4
639.019	10297.7
639.212	9941.35
639.406	9980.26
639.599	9896.3
639.793	9775.47
639.986	9585.01
640.18	9865.58
640.373	9642.35
640.567	9632.11
640.76	9689.45
640.954	9388.4
641.147	9382.26
641.34	9347.44
641.534	9406.83
641.727	9412.98
641.92	9382.26
642.114	9351.54
642.307	9144.69
642.5	9179.51
642.694	8927.61
642.887	8888.7
643.08	9171.32
643.273	9009.53
643.467	8810.87
643.66	8778.11
643.853	8735.1
644.046	8741.24
644.239	8696.19
644.432	8833.4
644.626	8520.06
644.819	8632.7
645.012	8511.87
645.205	8485.25
645.398	8657.28
645.591	8391.04
645.784	8479.1
645.977	8210.82
646.17	8429.95
646.363	8206.72
646.556	8133
646.749	8128.9
646.942	8202.63
647.135	8069.51
647.328	7739.79
647.521	7883.14
647.714	7831.94
647.907	7973.25
648.099	7829.9
648.292	7731.59
648.485	7979.4
648.678	7612.81
648.871	7741.83
649.064	7573.9
649.256	7678.35
649.449	7477.65
649.642	7432.59
649.835	7508.37
650.027	7403.92
650.22	7405.97
650.413	7303.57
650.605	7225.75
650.798	7170.45
650.991	7276.94
651.183	7248.27
651.376	6984.09
651.568	7180.69
651.761	7016.85
651.954	7074.2
652.146	6867.35
652.339	7020.95
652.531	6920.6
652.724	6941.08
652.916	6707.61
653.109	6984.09
653.301	6687.13
653.494	6926.74
653.686	6756.76
653.879	6791.58
654.071	6625.69
654.263	6701.47
654.456	6594.97
654.648	6584.73
654.84	6527.39
655.033	6517.15
655.225	6447.52
655.417	6418.85
655.61	6558.11
655.802	6504.86
655.994	6453.66
656.186	6388.13
656.379	6218.15
656.571	6207.91
656.763	6228.38
656.955	6271.39
657.148	6257.06
657.34	6128.03
657.532	6027.68
657.724	6087.08
657.916	6080.93
658.108	5915.05
658.3	5882.28
658.492	5923.24
658.684	5841.32
658.876	5935.53
659.068	5788.07
659.26	5853.61
659.452	5892.52
659.644	5702.06
659.836	5646.76
660.028	5839.27
660.22	5718.44
660.412	5681.58
660.604	5570.99
660.796	5788.07
660.988	5700.01
661.18	5476.78
661.372	5425.58
661.563	5558.7
661.755	5411.25
661.947	5507.5
662.139	5425.58
662.331	5511.6
662.522	5503.4
662.714	5484.97
662.906	5296.56
663.097	5247.41
663.289	5267.89
663.481	5325.23
663.673	5147.06
663.864	4989.36
664.056	5325.23
664.247	5274.03
664.439	5222.83
664.631	5251.5
664.822	5200.3
665.014	5124.53
665.205	5091.76
665.397	5018.04
665.588	4983.22
665.78	5015.99
665.971	4989.36
666.163	4968.88
666.354	4917.68
666.546	4884.92
666.737	4809.14
666.929	4843.96
667.12	4819.38
667.311	4979.12
667.503	4698.55
667.694	4759.99
667.885	4780.47
668.077	4813.24
668.268	4612.54
668.459	4630.97
668.651	4731.32
668.842	4608.44
669.033	4604.35
669.224	4751.8
669.416	4669.88
669.607	4604.35
669.798	4622.78
669.989	4759.99
670.18	4565.43
670.371	4659.64
670.563	4514.24
670.754	4544.95
670.945	4530.62
671.136	4547
671.327	4424.12
671.518	4669.88
671.709	4442.56
671.9	4489.66
672.091	4583.87
672.282	4454.84
672.473	4592.06
672.664	4342.21
672.855	4356.54
673.046	4465.08
673.237	4393.4
673.428	4452.8
673.619	4325.82
673.809	4311.49
674	4321.73
674.191	4481.47
674.382	4329.92
674.573	4295.1
674.764	4231.62
674.954	4309.44
675.145	4141.5
675.336	4342.21
675.527	4207.04
675.717	4311.49
675.908	4194.75
676.099	4139.46
676.289	4235.71
676.48	4204.99
676.671	4211.14
676.861	4334.01
677.052	4276.67
677.243	4233.66
677.433	4213.18
677.624	4106.69
677.814	4241.86
678.005	4276.67
678.195	4235.71
678.386	4145.6
678.576	4145.6
678.767	4264.38
678.957	4219.33
679.148	4243.9
679.338	4336.06
679.529	4157.89
679.719	4245.95
679.909	4295.1
680.1	4211.14
680.29	4192.7
680.481	4141.5
680.671	4123.07
680.861	4295.1
681.052	4268.48
681.242	4270.53
681.432	4186.56
681.622	4227.52
681.813	4133.31
682.003	4121.03
682.193	3989.96
682.383	4192.7
682.573	4219.33
682.764	4192.7
682.954	4139.46
683.144	4112.83
683.334	4047.3
683.524	4297.15
683.714	4215.23
683.904	4143.55
684.094	4049.35
684.284	4104.64
684.474	4121.03
684.664	4075.97
684.854	4159.94
685.044	3852.74
685.234	4164.03
685.424	4104.64
685.614	4045.25
685.804	4086.21
685.994	4051.39
686.184	4012.48
686.374	4127.17
686.564	3940.8
686.753	3903.94
686.943	3992
687.133	3901.89
687.323	3928.52
687.513	3901.89
687.702	3826.12
687.892	3817.93
688.082	3895.75
688.272	3942.85
688.461	3852.74
688.651	3918.28
688.841	3721.67
689.03	3807.69
689.22	3768.77
689.41	3766.73
689.599	3774.92
689.789	3740.1
689.979	3701.19
690.168	3727.82
690.358	3629.51
690.547	3627.46
690.737	3664.33
690.926	3719.62
691.116	3367.37
691.305	3549.64
691.495	3580.36
691.684	3557.83
691.874	3488.2
692.063	3590.6
692.252	3490.25
692.442	3484.11
692.631	3422.67
692.82	3408.33
693.01	3441.1
693.199	3342.8
693.388	3457.48
693.578	3363.28
693.767	3416.52
693.956	3449.29
694.146	3391.95
694.335	3320.27
694.524	3211.73
694.713	3342.8
694.902	3260.88
695.092	3285.45
695.281	3330.51
695.47	3228.11
695.659	3301.84
695.848	3195.34
696.037	3140.05
696.226	3334.61
696.415	3166.67
696.604	3301.84
696.793	3359.18
696.982	3244.49
697.171	3236.3
697.36	3168.72
697.549	3129.81
697.738	3211.73
697.927	3123.66
698.116	3181.01
698.305	3142.1
698.494	3279.31
698.683	3181.01
698.872	3295.69
699.061	3189.2
699.25	3176.91
699.438	3277.26
699.627	3250.64
699.816	3185.1
700.005	3074.51
700.193	3224.01
700.382	3183.06
700.571	3031.51
700.76	3117.52
700.948	3258.83
701.137	3240.4
701.326	3197.39
701.514	3025.36
701.703	2968.02
701.892	3131.86
702.08	3252.69
702.269	3049.94
702.457	3199.44
702.646	3176.91
702.834	3230.16
703.023	3187.15
703.212	3295.69
703.4	3203.54
703.589	3178.96
703.777	3189.2
703.965	3056.08
704.154	3267.02
704.342	3066.32
704.531	3267.02
704.719	3138
704.907	3242.45
705.096	3140.05
705.284	3166.67
705.472	3105.23
705.661	3181.01
705.849	3195.34
706.037	3197.39
706.226	3242.45
706.414	3350.99
706.602	3138
706.79	3201.49
706.979	3193.3
707.167	3238.35
707.355	3103.18
707.543	3232.21
707.731	3205.58
707.919	3267.02
708.107	3174.86
708.296	3297.74
708.484	3336.65
708.672	3178.96
708.86	3232.21
709.048	3301.84
709.236	3342.8
709.424	3195.34
709.612	3275.21
709.8	3135.95
709.988	3203.54
710.176	3291.6
710.364	3301.84
710.551	3324.37
710.739	3299.79
710.927	3344.84
711.115	3383.76
711.303	3426.76
711.491	3320.27
711.679	3377.61
711.866	3410.38
712.054	3357.13
712.242	3365.32
712.43	3365.32
712.617	3410.38
712.805	3324.37
712.993	3430.86
713.181	3353.04
713.368	3262.93
713.556	3264.97
713.744	3269.07
713.931	3496.39
714.119	3580.36
714.306	3236.3
714.494	3451.34
714.682	3535.31
714.869	3416.52
715.057	3367.37
715.244	3348.94
715.432	3482.06
715.619	3334.61
715.807	3318.22
715.994	3379.66
716.182	3449.29
716.369	3371.47
716.556	3461.58
716.744	3318.22
716.931	3441.1
717.119	3604.94
717.306	3533.26
717.493	3434.96
717.681	3424.72
717.868	3410.38
718.055	3490.25
718.242	3580.36
718.43	3572.17
718.617	3480.01
718.804	3486.15
718.991	3578.31
719.179	3574.22
719.366	3592.65
719.553	3514.83
719.74	3494.35
719.927	3531.21
720.114	3443.15
720.301	3498.44
720.488	3475.91
720.676	3549.64
720.863	3563.98
721.05	3582.41
721.237	3580.36
721.424	3527.11
721.611	3670.47
721.798	3529.16
721.985	3574.22
722.172	3566.03
722.358	3572.17
722.545	3602.89
722.732	3533.26
722.919	3781.06
723.106	3572.17
723.293	3473.87
723.48	3621.32
723.667	3598.79
723.853	3623.37
724.04	3748.29
724.227	3609.03
724.414	3449.29
724.6	3662.28
724.787	3639.75
724.974	3836.36
725.161	3736.01
725.347	3566.03
725.534	3598.79
725.72	3566.03
725.907	3779.01
726.094	3781.06
726.28	3613.13
726.467	3666.38
726.653	3660.23
726.84	3678.66
727.027	3678.66
727.213	3731.91
727.4	3721.67
727.586	3514.83
727.773	3627.46
727.959	3682.76
728.145	3662.28
728.332	3654.09
728.518	3740.1
728.705	3727.82
728.891	3770.82
729.077	3869.12
729.264	3711.43
729.45	3670.47
729.636	3736.01
729.823	3762.63
730.009	3754.44
730.195	3799.49
730.382	3776.97
730.568	3701.19
730.754	3819.97
730.94	3758.53
731.126	3736.01
731.313	3817.93
731.499	3764.68
731.685	3805.64
731.871	3686.86
732.057	3783.11
732.243	3766.73
732.429	3858.89
732.615	3606.98
732.801	3707.34
732.987	3770.82
733.173	3787.21
733.359	3754.44
733.545	3748.29
733.731	3785.16
733.917	3895.75
734.103	3760.58
734.289	3815.88
734.475	3799.49
734.661	3797.45
734.847	3783.11
735.033	3748.29
735.219	3770.82
735.404	3828.17
735.59	3758.53
735.776	3633.61
735.962	3674.57
736.148	3715.53
736.333	3785.16
736.519	3654.09
736.705	3744.2
736.89	3688.9
737.076	3680.71
737.262	3660.23
737.447	3664.33
737.633	3604.94
737.819	3822.02
738.004	3672.52
738.19	3707.34
738.375	3703.24
738.561	3727.82
738.747	3541.45
738.932	3621.32
739.118	3731.91
739.303	3768.77
739.489	3752.39
739.674	3568.07
739.859	3613.13
740.045	3676.62
740.23	3791.3
740.416	3596.75
740.601	3582.41
740.786	3525.07
740.972	3539.4
741.157	3504.59
741.342	3563.98
741.528	3615.18
741.713	3617.22
741.898	3416.52
742.084	3473.87
742.269	3496.39
742.454	3641.8
742.639	3535.31
742.824	3598.79
743.01	3439.05
743.195	3484.11
743.38	3453.39
743.565	3498.44
743.75	3412.43
743.935	3410.38
744.12	3449.29
744.305	3277.26
744.49	3437
744.675	3406.28
744.86	3344.84
745.045	3248.59
745.23	3244.49
745.415	3287.5
745.6	3416.52
745.785	3256.78
745.97	3291.6
746.155	3226.06
746.34	3330.51
746.525	3246.54
746.71	3158.48
746.895	3215.82
747.079	3260.88
747.264	3113.42
747.449	3088.85
747.634	3049.94
747.819	3064.27
748.003	2990.55
748.188	3074.51
748.373	3127.76
748.557	3017.17
748.742	2882
748.927	3150.29
749.111	2935.25
749.296	3027.41
749.481	2978.26
749.665	2873.81
749.85	2765.27
750.034	2953.68
750.219	2873.81
750.404	2806.23
750.588	2669.02
750.773	2677.21
750.957	2654.68
751.141	2716.12
751.326	2818.52
751.51	2773.46
751.695	2709.97
751.879	2617.82
752.064	2732.5
752.248	2599.38
752.432	2664.92
752.617	2718.17
752.801	2572.76
752.985	2589.14
753.17	2654.68
753.354	2486.75
753.538	2521.56
753.722	2410.97
753.907	2456.03
754.091	2470.36
754.275	2449.88
754.459	2421.21
754.643	2402.78
754.828	2421.21
755.012	2286.05
755.196	2453.98
755.38	2257.37
755.564	2382.3
755.748	2343.39
755.932	2277.85
756.116	2255.33
756.3	2257.37
756.484	2243.04
756.668	2200.03
756.852	2046.43
757.036	2138.59
757.22	2081.25
757.404	2058.72
757.588	2134.5
757.772	2038.24
757.956	2068.96
758.14	2191.84
758.323	1933.79
758.507	1958.37
758.691	2040.29
758.875	2013.67
759.059	2087.39
759.242	1946.08
759.426	2111.97
759.61	2003.43
759.794	1978.85
759.977	2025.95
760.161	2083.3
760.345	1892.84
760.528	1987.04
760.712	1800.68
760.895	1855.97
761.079	1929.7
761.263	1872.36
761.446	1726.95
761.63	1896.93
761.813	1808.87
761.997	1776.1
762.18	1843.68
762.364	1726.95
762.547	1731.05
762.731	1706.47
762.914	1722.85
763.098	1794.53
763.281	1827.3
763.464	1804.77
763.648	1724.9
763.831	1778.15
764.015	1681.89
764.198	1806.82
764.381	1802.72
764.564	1714.66
764.748	1642.98
764.931	1776.1
765.114	1747.43
765.297	1714.66
765.481	1638.89
765.664	1681.89
765.847	1538.54
766.03	1632.74
766.213	1647.08
766.397	1618.41
766.58	1511.91
766.763	1618.41
766.946	1550.82
767.129	1577.45
767.312	1587.69
767.495	1540.58
767.678	1497.58
767.861	1561.06
768.044	1462.76
768.227	1493.48
768.41	1499.63
768.593	1556.97
768.776	1583.59
768.959	1473
769.142	1579.5
769.324	1393.13
769.507	1491.43
769.69	1427.95
769.873	1501.67
770.056	1591.78
770.239	1458.67
770.421	1470.95
770.604	1425.9
770.787	1446.38
770.97	1382.89
771.152	1376.75
771.335	1333.74
771.518	1401.32
771.7	1440.23
771.883	1403.37
772.066	1368.56
772.248	1325.55
772.431	1337.84
772.613	1378.79
772.796	1325.55
772.978	1249.77
773.161	1403.37
773.343	1229.29
773.526	1264.11
773.708	1249.77
773.891	1233.39
774.073	1337.84
774.256	1245.68
774.438	1337.84
774.621	1214.96
774.803	1159.66
774.985	1135.09
775.168	1298.92
775.35	1174
775.532	1229.29
775.715	1182.19
775.897	1180.14
776.079	1133.04
776.261	1159.66
776.444	1094.13
776.626	1055.22
776.808	1126.89
776.99	1044.98
777.173	1059.31
777.355	1128.94
777.537	1067.5
777.719	1137.13
777.901	1102.32
778.083	1075.7
778.265	999.92
778.447	1075.7
778.629	1040.88
778.811	1008.11
778.993	1008.11
779.175	1020.4
779.357	1034.74
779.539	911.86
779.721	932.34
779.903	1036.78
780.085	940.53
780.267	903.67
780.449	999.92
780.631	975.35
780.812	1130.99
780.994	885.23
781.176	854.51
781.358	893.43
781.54	840.18
781.721	942.58
781.903	930.29
782.085	920.05
782.267	911.86
782.448	897.52
782.63	817.65
782.812	877.04
782.993	854.51
783.175	782.84
783.357	776.69
783.538	807.41
783.72	780.79
783.901	758.26
784.083	901.62
784.264	778.74
784.446	635.38
784.627	698.87
784.809	729.59
784.99	741.88
785.172	739.83
785.353	752.12
785.535	788.98
785.716	731.64
785.897	684.53
786.079	784.88
786.26	684.53
786.441	754.16
786.623	682.49
786.804	682.49
786.985	666.1
787.167	668.15
787.348	659.96
787.529	770.55
787.71	737.78
787.891	649.72
788.073	608.76
788.254	573.94
788.435	707.06
788.616	723.44
788.797	606.71
788.978	557.56
789.159	565.75
789.34	543.22
789.522	668.15
789.703	549.37
789.884	588.28
790.065	575.99
790.246	698.87
790.427	582.14
790.607	662.01
790.788	696.82
790.969	588.28
791.15	524.79
791.331	655.86
791.512	481.78
791.693	487.93
791.874	541.18
792.054	621.05
792.235	610.81
792.416	496.12
792.597	516.6
792.778	555.51
792.958	596.47
793.139	471.54
793.32	483.83
793.5	492.02
793.681	594.42
793.862	512.5
794.042	541.18
794.223	473.59
794.404	530.94
794.584	418.3
794.765	451.07
794.945	473.59
795.126	522.74
795.306	539.13
795.487	494.07
795.667	479.74
795.848	430.59
796.028	463.35
796.209	471.54
796.389	541.18
796.57	473.59
796.75	428.54
796.93	459.26
797.111	440.83
797.291	494.07
797.471	467.45
797.652	453.11
797.832	317.95
798.012	422.39
798.192	320
798.373	311.8
798.553	315.9
798.733	430.59
798.913	346.62
799.093	311.8
799.274	322.04
799.454	461.3
799.634	500.22
799.814	369.15
799.994	342.52
800.174	442.87
800.354	383.48
800.534	313.85
800.714	354.81
800.894	328.19
801.074	369.15
801.254	354.81
801.434	444.92
801.614	332.28
801.794	389.63
801.974	1305.07
802.154	342.52
802.334	395.77
802.514	311.8
802.693	379.39
802.873	381.43
803.053	418.3
803.233	336.38
803.413	350.71
803.592	307.71
803.772	326.14
803.952	342.52
804.131	360.95
804.311	440.83
804.491	446.97
804.67	252.41
804.85	270.84
805.03	324.09
805.209	410.11
805.389	274.94
805.568	315.9
805.748	315.9
805.928	213.5
806.107	324.09
806.287	360.95
806.466	340.47
806.646	242.17
806.825	295.42
807.004	315.9
807.184	342.52
807.363	401.91
807.543	266.75
807.722	295.42
807.901	291.32
808.081	264.7
808.26	279.04
808.439	311.8
808.619	287.23
808.798	291.32
808.977	289.28
809.156	322.04
809.336	244.22
809.515	258.56
809.694	211.45
809.873	164.35
810.052	371.19
810.231	360.95
810.411	270.84
810.59	367.1
810.769	211.45
810.948	309.76
811.127	180.73
811.306	324.09
811.485	270.84
811.664	307.71
811.843	297.47
812.022	281.08
812.201	309.76
812.38	225.79
812.559	139.77
812.737	150.01
812.916	184.83
813.095	197.12
813.274	174.59
813.453	242.17
813.632	272.89
813.811	248.32
813.989	229.88
814.168	180.73
814.347	166.4
814.526	231.93
814.704	303.61
814.883	254.46
815.062	141.82
815.24	297.47
815.419	172.54
815.598	240.12
815.776	203.26
815.955	209.4
816.133	205.31
816.312	252.41
816.49	182.78
816.669	195.07
816.847	231.93
817.026	119.29
817.204	221.69
817.383	213.5
817.561	215.55
817.74	250.36
817.918	152.06
818.097	240.12
818.275	219.64
818.453	246.27
818.632	199.16
818.81	209.4
818.988	258.56
819.167	133.63
819.345	188.93
819.523	172.54
819.701	246.27
819.879	211.45
820.058	143.87
820.236	223.74
820.414	184.83
820.592	162.3
820.77	213.5
820.948	174.59
821.127	205.31
821.305	188.93
821.483	242.17
821.661	213.5
821.839	162.3
822.017	184.83
822.195	172.54
822.373	215.55
822.551	164.35
822.729	135.68
822.907	164.35
823.085	256.51
823.262	221.69
823.44	168.45
823.618	201.21
823.796	166.4
823.974	166.4
824.152	129.53
824.329	139.77
824.507	92.67
824.685	145.92
824.863	131.58
825.04	145.92
825.218	156.16
825.396	162.3
825.574	170.49
825.751	225.79
825.929	147.97
826.107	86.53
826.284	131.58
826.462	195.07
826.639	74.24
826.817	88.57
826.994	121.34
827.172	133.63
827.349	172.54
827.527	240.12
827.704	141.82
827.882	174.59
828.059	127.49
828.237	164.35
828.414	131.58
828.591	156.16
828.769	160.25
828.946	119.29
829.124	172.54
829.301	260.6
829.478	74.24
829.655	133.63
829.833	221.69
830.01	121.34
830.187	135.68
830.364	123.39
830.542	115.2
830.719	137.73
830.896	152.06
831.073	186.88
831.25	160.25
831.427	123.39
831.604	121.34
831.782	2.56
831.959	174.59
832.136	94.72
832.313	242.17
832.49	82.43
832.667	156.16
832.844	41.47
833.021	150.01
833.198	104.96
833.374	133.63
833.551	104.96
833.728	74.24
833.905	188.93
834.082	27.14
834.259	37.38
834.436	147.97
834.612	109.05
834.789	176.64
834.966	98.81
835.143	107.01
835.319	8.7
835.496	223.74
835.673	98.81
835.85	186.88
836.026	76.29
836.203	125.44
836.38	59.9
836.556	68.09
836.733	66.05
836.909	160.25
837.086	88.57
837.262	139.77
837.439	92.67
837.616	76.29
837.792	164.35
837.968	190.97
838.145	-17.92
838.321	102.91
838.498	76.29
838.674	119.29
838.851	123.39
839.027	92.67
839.203	100.86
839.38	90.62
839.556	100.86
839.732	111.1
839.909	94.72
840.085	78.33
840.261	10.75
840.437	186.88
840.614	84.48
840.79	25.09
840.966	61.95
841.142	135.68
841.318	51.71
841.494	133.63
841.671	51.71
841.847	78.33
842.023	113.15
842.199	121.34
842.375	197.12
842.551	98.81
842.727	-15.87
842.903	164.35
843.079	45.57
843.255	111.1
843.431	64
843.607	94.72
843.783	-7.68
843.959	57.86
844.134	135.68
844.31	94.72
844.486	45.57
844.662	102.91
844.838	53.76
845.013	84.48
845.189	133.63
845.365	86.53
845.541	82.43
845.716	23.04
845.892	111.1
846.068	70.14
846.244	64
846.419	53.76
846.595	49.66
846.77	-13.82
846.946	102.91
847.122	80.38
847.297	-5.63
847.473	164.35
847.648	37.38
847.824	84.48
847.999	35.33
848.175	74.24
848.35	59.9
848.526	45.57
848.701	119.29
848.876	59.9
849.052	98.81
849.227	37.38
849.403	23.04
849.578	86.53
849.753	168.45
849.929	76.29
850.104	43.52
850.279	59.9
850.454	117.25
850.63	82.43
850.805	12.8
850.98	92.67
851.155	-30.21
851.33	41.47
851.505	-1.54
851.681	135.68
851.856	49.66
852.031	49.66
852.206	100.86
852.381	-7.68
852.556	113.15
852.731	84.48
852.906	53.76
853.081	86.53
853.256	113.15
853.431	-1.54
853.606	14.85
853.781	23.04
853.956	-24.06
854.131	45.57
854.305	43.52
854.48	25.09
854.655	33.28
854.83	25.09
855.005	6.66
855.18	-1.54
855.354	-1.54
855.529	100.86
855.704	-34.3
855.879	64
856.053	-3.58
856.228	55.81
856.403	16.9
856.577	92.67
856.752	-62.98
856.926	33.28
857.101	78.33
857.276	51.71
857.45	125.44
857.625	86.53
857.799	33.28
857.974	66.05
858.148	2.56
858.323	8.7
858.497	53.76
858.672	47.62
858.846	-93.69
859.02	23.04
859.195	10.75
859.369	74.24
859.543	70.14
859.718	43.52
859.892	57.86
860.066	59.9
860.241	66.05
860.415	107.01
860.589	45.57
860.763	66.05
860.938	115.2
861.112	68.09
861.286	-7.68
861.46	55.81
861.634	107.01
861.808	51.71
861.982	35.33
862.157	37.38
862.331	-50.69
862.505	-1.54
862.679	27.14
862.853	4.61
863.027	109.05
863.201	139.77
863.375	-24.06
863.549	18.94
863.722	10.75
863.896	-5.63
864.07	-5.63
864.244	37.38
864.418	76.29
864.592	129.53
864.766	-32.26
864.939	10.75
865.113	-7.68
865.287	25.09
865.461	0.51
865.634	41.47
865.808	29.18
865.982	109.05
866.156	-30.21
866.329	33.28
866.503	57.86
866.676	61.95
866.85	27.14
867.024	4.61
867.197	66.05
867.371	49.66
867.544	55.81
867.718	-32.26
867.891	4.61
868.065	-19.97
868.238	35.33
868.412	-1.54
868.585	41.47
868.759	49.66
868.932	74.24
869.105	16.9
869.279	25.09
869.452	-24.06
869.625	70.14
869.799	4.61
869.972	-9.73
870.145	-24.06
870.319	6.66
870.492	98.81
870.665	20.99
870.838	-62.98
871.011	-81.41
871.185	41.47
871.358	27.14
871.531	2.56
871.704	16.9
871.877	109.05
872.05	-32.26
872.223	49.66
872.396	96.77
872.569	66.05
872.742	-28.16
872.915	37.38
873.088	-65.02
873.261	-13.82
873.434	43.52
873.607	123.39
873.78	68.09
873.953	-73.21
874.126	18.94
874.299	31.23
874.471	-44.54
874.644	-28.16
874.817	14.85
874.99	72.19
875.163	-34.3
875.335	55.81
875.508	-83.45
875.681	82.43
875.853	18.94
876.026	94.72
876.199	47.62
876.371	18.94
876.544	-5.63
876.717	100.86
876.889	25.09
877.062	35.33
877.234	-56.83
877.407	57.86
877.579	27.14
877.752	8.7
877.924	27.14
878.097	113.15
878.269	18.94
878.442	39.42
878.614	-5.63
878.786	64
878.959	-5.63
879.131	8.7
879.303	-50.69
879.476	35.33
879.648	-3.58
879.82	-28.16
879.993	4.61
880.165	-62.98
880.337	-19.97
880.509	90.62
880.681	-17.92
880.854	-62.98
881.026	66.05
881.198	117.25
881.37	12.8
881.542	66.05
881.714	-11.78
881.886	41.47
882.058	92.67
882.23	-1.54
882.402	0.51
882.574	70.14
882.746	18.94
882.918	82.43
883.09	-34.3
883.262	-60.93
883.434	-13.82
883.606	-40.45
883.778	-36.35
883.95	100.86
884.122	-17.92
884.293	-11.78
884.465	57.86
884.637	72.19
884.809	-15.87
884.98	2.56
885.152	33.28
885.324	35.33
885.496	-22.02
885.667	-42.5
885.839	43.52
886.011	33.28
886.182	53.76
886.354	0.51
886.525	96.77
886.697	68.09
886.869	-13.82
887.04	31.23
887.212	41.47
887.383	51.71
887.555	-13.82
887.726	14.85
887.897	35.33
888.069	-5.63
888.24	-7.68
888.412	-56.83
888.583	51.71
888.754	8.7
888.926	-48.64
889.097	-38.4
889.268	-124.41
889.44	-15.87
889.611	-103.93
889.782	-93.69
889.953	-32.26
890.125	25.09
890.296	-67.07
890.467	-32.26
890.638	33.28
890.809	53.76
890.98	12.8
891.151	25.09
891.323	55.81
891.494	61.95
891.665	16.9
891.836	-52.74
892.007	33.28
892.178	37.38
892.349	-54.78
892.52	16.9
892.691	16.9
892.862	-42.5
893.032	-105.98
893.203	16.9
893.374	66.05
893.545	39.42
893.716	-42.5
893.887	4.61
894.057	2.56
894.228	4.61
894.399	-46.59
894.57	70.14
894.74	68.09
894.911	-7.68
895.082	-15.87
895.253	-81.41
895.423	-44.54
895.594	98.81
895.764	37.38
895.935	-24.06
896.106	27.14
896.276	98.81
896.447	-32.26
896.617	27.14
896.788	-34.3
896.958	-22.02
897.129	4.61
897.299	-19.97
897.47	141.82
897.64	64
897.81	-26.11
897.981	-42.5
898.151	0.51
898.322	8.7
898.492	25.09
898.662	0.51
898.832	-73.21
899.003	27.14
899.173	80.38
899.343	-79.36
899.513	-60.93
