Data from USB4F104151__0__13-04-07-015.txt Node

Date: Fri Mar 14 13:04:07 EDT 2025
User: louis
Spectrometer: USB4F10415
Trigger mode: 4
Integration Time (sec): 4.000000E-2
Scans to average: 1
Electric dark correction enabled: true
Nonlinearity correction enabled: false
Boxcar width: 0
XAxis mode: Wavelengths
Number of Pixels in Spectrum: 3648
>>>>>Begin Spectral Data<<<<<
178.204	-184.49
178.424	-184.49
178.644	-184.49
178.864	-200.87
179.084	-123.05
179.304	-28.84
179.524	-0.17
179.744	-53.42
179.964	126.8
180.184	18.26
180.404	1.88
180.624	42.84
180.844	-8.36
181.064	-39.08
181.283	-71.85
181.503	-30.89
181.723	42.84
181.943	-49.32
182.163	77.65
182.383	59.22
182.602	46.93
182.822	40.79
183.042	46.93
183.262	-45.23
183.482	14.17
183.701	-12.46
183.921	77.65
184.141	36.69
184.361	36.69
184.58	48.98
184.8	26.45
185.02	75.6
185.239	38.74
185.459	53.08
185.679	8.02
185.898	-47.27
186.118	63.32
186.338	12.12
186.557	53.08
186.777	-43.18
186.997	10.07
187.216	5.97
187.436	65.36
187.655	-47.27
187.875	36.69
188.095	-28.84
188.314	24.4
188.534	-10.41
188.753	36.69
188.973	-59.56
189.192	87.89
189.412	36.69
189.631	12.12
189.851	-24.75
190.07	-10.41
190.29	-2.22
190.509	-37.03
190.729	16.21
190.948	12.12
191.168	161.62
191.387	44.88
191.607	-98.47
191.826	40.79
192.045	30.55
192.265	48.98
192.484	53.08
192.704	5.97
192.923	-4.27
193.142	137.04
193.362	1.88
193.581	-10.41
193.8	24.4
194.02	53.08
194.239	-32.94
194.458	22.36
194.678	-12.46
194.897	5.97
195.116	12.12
195.335	36.69
195.555	16.21
195.774	16.21
195.993	3.93
196.212	5.97
196.432	-53.42
196.651	32.6
196.87	55.12
197.089	112.47
197.308	-4.27
197.528	46.93
197.747	-84.14
197.966	-55.47
198.185	106.32
198.404	-22.7
198.623	126.8
198.842	63.32
199.062	81.75
199.281	34.64
199.5	18.26
199.719	55.12
199.938	38.74
200.157	-2.22
200.376	-30.89
200.595	-4.27
200.814	5.97
201.033	-49.32
201.252	32.6
201.471	77.65
201.69	53.08
201.909	-16.55
202.128	-2.22
202.347	14.17
202.566	34.64
202.785	36.69
203.004	10.07
203.223	137.04
203.442	55.12
203.661	-45.23
203.879	-67.75
204.098	28.5
204.317	32.6
204.536	85.84
204.755	89.94
204.974	-8.36
205.193	-10.41
205.411	106.32
205.63	83.8
205.849	71.51
206.068	-4.27
206.287	-2.22
206.505	-32.94
206.724	53.08
206.943	-55.47
207.162	26.45
207.381	-10.41
207.599	-28.84
207.818	38.74
208.037	20.31
208.255	-41.13
208.474	-32.94
208.693	48.98
208.911	-4.27
209.13	3.93
209.349	87.89
209.567	-10.41
209.786	28.5
210.005	20.31
210.223	44.88
210.442	-26.79
210.661	67.41
210.879	-6.31
211.098	79.7
211.316	-16.55
211.535	48.98
211.753	108.37
211.972	-16.55
212.191	44.88
212.409	-20.65
212.628	59.22
212.846	-0.17
213.065	30.55
213.283	44.88
213.502	-20.65
213.72	28.5
213.938	48.98
214.157	-20.65
214.375	73.56
214.594	-18.6
214.812	5.97
215.031	8.02
215.249	20.31
215.467	-18.6
215.686	34.64
215.904	40.79
216.122	5.97
216.341	55.12
216.559	-43.18
216.778	83.8
216.996	16.21
217.214	28.5
217.432	-8.36
217.651	-43.18
217.869	-45.23
218.087	5.97
218.306	16.21
218.524	59.22
218.742	-22.7
218.96	-20.65
219.179	-32.94
219.397	-18.6
219.615	130.9
219.833	53.08
220.051	22.36
220.27	89.94
220.488	128.85
220.706	-32.94
220.924	-8.36
221.142	44.88
221.36	104.28
221.578	-24.75
221.796	-2.22
222.015	-24.75
222.233	42.84
222.451	71.51
222.669	3.93
222.887	1.88
223.105	-34.99
223.323	14.17
223.541	12.12
223.759	44.88
223.977	22.36
224.195	28.5
224.413	36.69
224.631	-32.94
224.849	26.45
225.067	-32.94
225.285	-0.17
225.503	-2.22
225.721	-37.03
225.939	12.12
226.157	-20.65
226.375	116.56
226.592	-65.71
226.81	-32.94
227.028	94.04
227.246	57.17
227.464	-43.18
227.682	44.88
227.9	102.23
228.117	-34.99
228.335	53.08
228.553	22.36
228.771	12.12
228.989	-32.94
229.206	16.21
229.424	-4.27
229.642	3.93
229.86	-10.41
230.077	61.27
230.295	-12.46
230.513	44.88
230.731	18.26
230.948	26.45
231.166	38.74
231.384	-16.55
231.601	-18.6
231.819	-2.22
232.037	-10.41
232.254	-37.03
232.472	44.88
232.689	14.17
232.907	10.07
233.125	12.12
233.342	26.45
233.56	-4.27
233.777	-26.79
233.995	61.27
234.213	40.79
234.43	48.98
234.648	67.41
234.865	16.21
235.083	-12.46
235.3	-20.65
235.518	-30.89
235.735	26.45
235.953	40.79
236.17	-55.47
236.388	-10.41
236.605	-37.03
236.822	5.97
237.04	16.21
237.257	12.12
237.475	-86.19
237.692	32.6
237.909	34.64
238.127	14.17
238.344	24.4
238.562	-4.27
238.779	-96.43
238.996	-92.33
239.214	-43.18
239.431	28.5
239.648	-2.22
239.865	61.27
240.083	-0.17
240.3	81.75
240.517	-51.37
240.735	-2.22
240.952	-4.27
241.169	55.12
241.386	28.5
241.603	3.93
241.821	-2.22
242.038	67.41
242.255	30.55
242.472	5.97
242.689	59.22
242.907	38.74
243.124	20.31
243.341	36.69
243.558	-0.17
243.775	16.21
243.992	-18.6
244.209	-28.84
244.426	87.89
244.643	5.97
244.86	-6.31
245.078	14.17
245.295	-0.17
245.512	-2.22
245.729	-4.27
245.946	116.56
246.163	12.12
246.38	24.4
246.597	-51.37
246.814	-32.94
247.031	-112.81
247.248	75.6
247.464	32.6
247.681	12.12
247.898	77.65
248.115	46.93
248.332	-45.23
248.549	71.51
248.766	61.27
248.983	-6.31
249.2	-10.41
249.417	34.64
249.633	-69.8
249.85	1.88
250.067	-8.36
250.284	-18.6
250.501	73.56
250.717	53.08
250.934	-37.03
251.151	30.55
251.368	38.74
251.585	38.74
251.801	26.45
252.018	-92.33
252.235	48.98
252.451	36.69
252.668	8.02
252.885	28.5
253.102	-32.94
253.318	28.5
253.535	-8.36
253.752	-26.79
253.968	-24.75
254.185	-24.75
254.401	-4.27
254.618	77.65
254.835	16.21
255.051	48.98
255.268	34.64
255.484	59.22
255.701	16.21
255.917	77.65
256.134	-10.41
256.351	65.36
256.567	3.93
256.784	104.28
257	-26.79
257.217	-34.99
257.433	69.46
257.65	87.89
257.866	12.12
258.082	-77.99
258.299	-14.51
258.515	-14.51
258.732	-53.42
258.948	5.97
259.165	18.26
259.381	28.5
259.597	-12.46
259.814	5.97
260.03	-67.75
260.246	-30.89
260.463	75.6
260.679	-20.65
260.895	5.97
261.112	12.12
261.328	12.12
261.544	-12.46
261.761	100.18
261.977	18.26
262.193	5.97
262.409	-30.89
262.626	-34.99
262.842	-16.55
263.058	-37.03
263.274	-8.36
263.49	53.08
263.707	3.93
263.923	-2.22
264.139	3.93
264.355	32.6
264.571	53.08
264.787	38.74
265.004	63.32
265.22	48.98
265.436	67.41
265.652	8.02
265.868	5.97
266.084	-6.31
266.3	24.4
266.516	-4.27
266.732	14.17
266.948	10.07
267.164	1.88
267.38	42.84
267.596	28.5
267.812	83.8
268.028	20.31
268.244	-12.46
268.46	16.21
268.676	-20.65
268.892	-8.36
269.108	-57.51
269.324	-57.51
269.54	-43.18
269.756	18.26
269.972	-53.42
270.188	-26.79
270.403	-45.23
270.619	-77.99
270.835	85.84
271.051	53.08
271.267	-22.7
271.483	-55.47
271.698	71.51
271.914	-20.65
272.13	-22.7
272.346	-69.8
272.562	-28.84
272.777	118.61
272.993	-32.94
273.209	44.88
273.425	-4.27
273.64	-34.99
273.856	106.32
274.072	-88.23
274.287	-57.51
274.503	36.69
274.719	8.02
274.934	53.08
275.15	-18.6
275.366	-24.75
275.581	-37.03
275.797	-20.65
276.012	-49.32
276.228	12.12
276.444	34.64
276.659	-45.23
276.875	14.17
277.09	34.64
277.306	-24.75
277.521	30.55
277.737	28.5
277.952	5.97
278.168	-12.46
278.383	-61.61
278.599	5.97
278.814	34.64
279.03	-69.8
279.245	75.6
279.461	-4.27
279.676	81.75
279.892	-16.55
280.107	-20.65
280.322	-57.51
280.538	12.12
280.753	-45.23
280.969	81.75
281.184	-12.46
281.399	22.36
281.615	5.97
281.83	-32.94
282.045	3.93
282.26	-16.55
282.476	42.84
282.691	38.74
282.906	65.36
283.122	36.69
283.337	-24.75
283.552	14.17
283.767	30.55
283.983	34.64
284.198	87.89
284.413	-4.27
284.628	-61.61
284.843	-26.79
285.058	12.12
285.274	-18.6
285.489	-59.56
285.704	18.26
285.919	22.36
286.134	5.97
286.349	-71.85
286.564	12.12
286.779	96.08
286.995	-49.32
287.21	36.69
287.425	38.74
287.64	48.98
287.855	-37.03
288.07	-82.09
288.285	98.13
288.5	32.6
288.715	-10.41
288.93	16.21
289.145	-24.75
289.36	34.64
289.575	38.74
289.79	20.31
290.004	-51.37
290.219	14.17
290.434	-2.22
290.649	-32.94
290.864	-12.46
291.079	-8.36
291.294	22.36
291.509	8.02
291.724	-51.37
291.938	20.31
292.153	12.12
292.368	14.17
292.583	26.45
292.798	3.93
293.012	32.6
293.227	-4.27
293.442	3.93
293.657	28.5
293.871	83.8
294.086	5.97
294.301	57.17
294.516	-51.37
294.73	40.79
294.945	-20.65
295.16	-45.23
295.374	73.56
295.589	94.04
295.804	-18.6
296.018	67.41
296.233	46.93
296.447	126.8
296.662	-28.84
296.877	77.65
297.091	44.88
297.306	16.21
297.52	-16.55
297.735	-47.27
297.949	63.32
298.164	42.84
298.378	53.08
298.593	12.12
298.807	-32.94
299.022	-4.27
299.236	-0.17
299.451	-32.94
299.665	10.07
299.88	16.21
300.094	-4.27
300.309	5.97
300.523	12.12
300.737	14.17
300.952	-12.46
301.166	42.84
301.381	-55.47
301.595	18.26
301.809	-45.23
302.024	30.55
302.238	-39.08
302.452	94.04
302.667	1.88
302.881	55.12
303.095	114.52
303.309	28.5
303.524	57.17
303.738	26.45
303.952	-24.75
304.166	55.12
304.381	-84.14
304.595	71.51
304.809	-26.79
305.023	59.22
305.237	-24.75
305.452	30.55
305.666	104.28
305.88	-4.27
306.094	44.88
306.308	38.74
306.522	22.36
306.736	1.88
306.95	61.27
307.164	-86.19
307.379	22.36
307.593	46.93
307.807	87.89
308.021	14.17
308.235	24.4
308.449	-4.27
308.663	-47.27
308.877	77.65
309.091	16.21
309.305	94.04
309.519	-75.95
309.733	42.84
309.947	-12.46
310.161	75.6
310.374	40.79
310.588	36.69
310.802	-24.75
311.016	12.12
311.23	44.88
311.444	-65.71
311.658	38.74
311.872	-0.17
312.085	83.8
312.299	36.69
312.513	57.17
312.727	91.99
312.941	-28.84
313.154	-2.22
313.368	61.27
313.582	38.74
313.796	30.55
314.009	34.64
314.223	14.17
314.437	63.32
314.651	81.75
314.864	-4.27
315.078	5.97
315.292	16.21
315.505	-4.27
315.719	55.12
315.933	24.4
316.146	-2.22
316.36	-45.23
316.573	77.65
316.787	-28.84
317.001	-12.46
317.214	28.5
317.428	-4.27
317.641	22.36
317.855	-14.51
318.068	16.21
318.282	-37.03
318.495	85.84
318.709	53.08
318.922	38.74
319.136	61.27
319.349	44.88
319.563	-20.65
319.776	98.13
319.99	44.88
320.203	32.6
320.417	-37.03
320.63	22.36
320.843	143.19
321.057	-18.6
321.27	65.36
321.483	-28.84
321.697	73.56
321.91	-14.51
322.124	34.64
322.337	44.88
322.55	26.45
322.763	16.21
322.977	-12.46
323.19	-77.99
323.403	-4.27
323.617	-34.99
323.83	69.46
324.043	22.36
324.256	38.74
324.469	-157.86
324.683	34.64
324.896	-10.41
325.109	53.08
325.322	24.4
325.535	8.02
325.748	61.27
325.962	-45.23
326.175	20.31
326.388	30.55
326.601	12.12
326.814	-2.22
327.027	38.74
327.24	85.84
327.453	-20.65
327.666	57.17
327.879	85.84
328.092	-26.79
328.305	51.03
328.518	-30.89
328.731	44.88
328.944	-8.36
329.157	55.12
329.37	12.12
329.583	137.04
329.796	40.79
330.009	-55.47
330.222	8.02
330.435	20.31
330.648	55.12
330.861	55.12
331.073	-12.46
331.286	75.6
331.499	-43.18
331.712	-8.36
331.925	112.47
332.138	1.88
332.35	34.64
332.563	20.31
332.776	12.12
332.989	10.07
333.202	5.97
333.414	67.41
333.627	55.12
333.84	14.17
334.053	104.28
334.265	44.88
334.478	108.37
334.691	22.36
334.903	-8.36
335.116	26.45
335.329	-82.09
335.541	3.93
335.754	26.45
335.966	-24.75
336.179	-8.36
336.392	51.03
336.604	-12.46
336.817	67.41
337.029	-65.71
337.242	81.75
337.454	34.64
337.667	-34.99
337.88	81.75
338.092	-10.41
338.305	32.6
338.517	5.97
338.729	-2.22
338.942	55.12
339.154	-2.22
339.367	-51.37
339.579	-22.7
339.792	-28.84
340.004	10.07
340.217	34.64
340.429	20.31
340.641	-75.95
340.854	55.12
341.066	-37.03
341.278	85.84
341.491	155.47
341.703	32.6
341.915	-116.9
342.128	71.51
342.34	26.45
342.552	-69.8
342.764	24.4
342.977	-28.84
343.189	-69.8
343.401	18.26
343.613	-28.84
343.826	38.74
344.038	-45.23
344.25	-6.31
344.462	53.08
344.674	22.36
344.886	5.97
345.099	42.84
345.311	94.04
345.523	22.36
345.735	-53.42
345.947	36.69
346.159	-39.08
346.371	-18.6
346.583	-18.6
346.795	3.93
347.007	5.97
347.219	-20.65
347.431	36.69
347.643	26.45
347.855	-10.41
348.067	65.36
348.279	-14.51
348.491	48.98
348.703	79.7
348.915	61.27
349.127	12.12
349.339	12.12
349.551	-30.89
349.763	87.89
349.975	-32.94
350.187	34.64
350.399	102.23
350.61	61.27
350.822	8.02
351.034	-28.84
351.246	-20.65
351.458	-30.89
351.669	83.8
351.881	85.84
352.093	48.98
352.305	10.07
352.517	30.55
352.728	-26.79
352.94	32.6
353.152	71.51
353.363	-39.08
353.575	42.84
353.787	-20.65
353.999	10.07
354.21	81.75
354.422	-2.22
354.633	22.36
354.845	32.6
355.057	12.12
355.268	34.64
355.48	77.65
355.692	-4.27
355.903	59.22
356.115	38.74
356.326	-22.7
356.538	44.88
356.749	75.6
356.961	55.12
357.172	32.6
357.384	-51.37
357.595	171.86
357.807	3.93
358.018	-28.84
358.23	16.21
358.441	114.52
358.653	3.93
358.864	-0.17
359.075	-2.22
359.287	44.88
359.498	-0.17
359.709	14.17
359.921	14.17
360.132	57.17
360.344	-10.41
360.555	-8.36
360.766	75.6
360.977	89.94
361.189	40.79
361.4	-0.17
361.611	112.47
361.823	126.8
362.034	-34.99
362.245	-8.36
362.456	24.4
362.667	28.5
362.879	-45.23
363.09	10.07
363.301	22.36
363.512	44.88
363.723	44.88
363.935	10.07
364.146	26.45
364.357	10.07
364.568	89.94
364.779	67.41
364.99	139.09
365.201	1.88
365.412	46.93
365.623	-32.94
365.834	16.21
366.045	-34.99
366.256	65.36
366.467	20.31
366.678	8.02
366.889	10.07
367.1	63.32
367.311	14.17
367.522	14.17
367.733	53.08
367.944	94.04
368.155	-51.37
368.366	61.27
368.577	98.13
368.788	42.84
368.999	-30.89
369.209	-26.79
369.42	61.27
369.631	91.99
369.842	40.79
370.053	14.17
370.264	67.41
370.474	14.17
370.685	44.88
370.896	32.6
371.107	63.32
371.317	12.12
371.528	-65.71
371.739	44.88
371.95	104.28
372.16	87.89
372.371	36.69
372.582	-37.03
372.792	34.64
373.003	91.99
373.214	48.98
373.424	-28.84
373.635	26.45
373.846	100.18
374.056	65.36
374.267	71.51
374.477	12.12
374.688	-121
374.898	42.84
375.109	20.31
375.319	61.27
375.53	57.17
375.74	-12.46
375.951	48.98
376.161	3.93
376.372	77.65
376.582	12.12
376.793	-32.94
377.003	-51.37
377.214	14.17
377.424	81.75
377.635	26.45
377.845	-51.37
378.055	22.36
378.266	-4.27
378.476	-6.31
378.686	30.55
378.897	30.55
379.107	28.5
379.317	32.6
379.528	61.27
379.738	77.65
379.948	-10.41
380.158	153.43
380.369	-8.36
380.579	40.79
380.789	-10.41
380.999	81.75
381.21	79.7
381.42	30.55
381.63	-0.17
381.84	22.36
382.05	110.42
382.261	110.42
382.471	106.32
382.681	-14.51
382.891	130.9
383.101	57.17
383.311	-84.14
383.521	26.45
383.731	-4.27
383.941	81.75
384.151	22.36
384.361	65.36
384.571	81.75
384.781	46.93
384.991	53.08
385.201	30.55
385.411	81.75
385.621	14.17
385.831	34.64
386.041	61.27
386.251	69.46
386.461	85.84
386.671	96.08
386.881	32.6
387.091	-20.65
387.301	87.89
387.511	-4.27
387.72	71.51
387.93	57.17
388.14	-37.03
388.35	36.69
388.56	71.51
388.769	1.88
388.979	-4.27
389.189	-51.37
389.399	8.02
389.609	10.07
389.818	71.51
390.028	-34.99
390.238	14.17
390.447	-2.22
390.657	-26.79
390.867	-14.51
391.076	20.31
391.286	46.93
391.496	38.74
391.705	5.97
391.915	79.7
392.125	44.88
392.334	48.98
392.544	28.5
392.753	-8.36
392.963	63.32
393.172	57.17
393.382	12.12
393.591	53.08
393.801	28.5
394.01	130.9
394.22	71.51
394.429	40.79
394.639	77.65
394.848	12.12
395.058	28.5
395.267	10.07
395.477	67.41
395.686	57.17
395.895	69.46
396.105	216.91
396.314	85.84
396.524	28.5
396.733	46.93
396.942	40.79
397.152	20.31
397.361	87.89
397.57	51.03
397.78	53.08
397.989	120.66
398.198	65.36
398.407	81.75
398.617	16.21
398.826	26.45
399.035	32.6
399.244	161.62
399.453	65.36
399.663	130.9
399.872	118.61
400.081	63.32
400.29	51.03
400.499	32.6
400.708	69.46
400.917	40.79
401.127	44.88
401.336	-20.65
401.545	106.32
401.754	102.23
401.963	91.99
402.172	87.89
402.381	79.7
402.59	53.08
402.799	91.99
403.008	94.04
403.217	71.51
403.426	98.13
403.635	12.12
403.844	16.21
404.053	77.65
404.262	94.04
404.471	147.28
404.68	71.51
404.888	110.42
405.097	135
405.306	100.18
405.515	126.8
405.724	155.47
405.933	73.56
406.142	126.8
406.35	208.72
406.559	100.18
406.768	48.98
406.977	188.24
407.185	137.04
407.394	118.61
407.603	167.76
407.812	126.8
408.02	124.76
408.229	118.61
408.438	161.62
408.646	175.95
408.855	198.48
409.064	171.86
409.272	135
409.481	169.81
409.69	175.95
409.898	147.28
410.107	227.15
410.315	282.45
410.524	243.54
410.733	255.83
410.941	171.86
411.15	278.35
411.358	241.49
411.567	347.98
411.775	264.02
411.984	329.55
412.192	276.31
412.401	257.87
412.609	368.46
412.818	366.42
413.026	372.56
413.234	304.98
413.443	401.23
413.651	300.88
413.86	382.8
414.068	407.38
414.276	444.24
414.485	393.04
414.693	466.77
414.901	560.97
415.11	528.21
415.318	474.96
415.526	560.97
415.734	503.63
415.943	511.82
416.151	603.98
416.359	565.07
416.567	601.93
416.776	663.37
416.984	706.38
417.192	722.76
417.4	659.28
417.608	651.08
417.817	726.86
418.025	714.57
418.233	905.03
418.441	778.06
418.649	773.96
418.857	907.08
419.065	919.37
419.273	851.78
419.481	980.81
419.689	1103.68
419.897	1001.29
420.105	1085.25
420.313	1130.31
420.521	1218.37
420.729	1124.16
420.937	1087.3
421.145	1285.95
421.353	1468.22
421.561	1525.57
421.769	1331.01
421.977	1376.06
422.185	1453.89
422.393	1484.61
422.601	1697.6
422.809	1599.29
423.017	1541.95
423.224	1748.79
423.432	1793.85
423.64	1732.41
423.848	1924.92
424.056	1840.95
424.263	2035.51
424.471	2119.48
424.679	2103.09
424.887	1994.55
425.094	2236.21
425.302	2205.49
425.51	2340.66
425.718	2490.16
425.925	2363.19
426.133	2494.26
426.341	2830.12
426.548	2862.89
426.756	2914.09
426.964	2848.55
427.171	3122.98
427.379	3227.43
427.586	3114.79
427.794	3266.34
428.001	3510.05
428.209	3530.53
428.417	3604.25
428.624	3774.24
428.832	3790.62
429.039	3860.25
429.247	3716.89
429.454	4054.81
429.662	4405.01
429.869	4052.76
430.076	4445.97
430.284	4210.45
430.491	4525.84
430.699	4732.69
430.906	4671.25
431.114	4658.96
431.321	5107.46
431.528	5019.4
431.736	5502.72
431.943	5486.34
432.15	5420.8
432.358	5455.62
432.565	5719.81
432.772	5744.38
432.979	6010.62
433.187	5949.18
433.394	6211.32
433.601	6592.24
433.808	6602.48
434.016	6438.64
434.223	6936.3
434.43	7173.86
434.637	7130.86
434.844	7634.66
435.052	7765.73
435.259	7702.24
435.466	7601.89
435.673	7775.97
435.88	8292.05
436.087	8539.86
436.294	8591.06
436.501	8582.87
436.708	8607.44
436.915	9037.52
437.122	9252.55
437.329	9246.41
437.537	9606.85
437.743	9856.7
437.95	9645.76
438.157	10170.04
438.364	10245.82
438.571	10444.47
438.778	10446.52
438.985	11396.78
439.192	11062.96
439.399	11564.71
439.606	11130.54
439.813	11904.67
440.02	12377.75
440.227	12496.53
440.433	12320.41
440.64	12578.45
440.847	12480.15
441.054	13080.21
441.261	13788.8
441.467	13411.98
441.674	13565.57
441.881	14102.14
442.088	14071.42
442.294	13997.7
442.501	14409.34
442.708	14917.23
442.914	15306.35
443.121	15937.12
443.328	15441.51
443.534	16629.34
443.741	16150.11
443.948	15900.26
444.154	17282.64
444.361	17147.47
444.568	17184.34
444.774	17204.81
444.981	17430.09
445.187	17735.24
445.394	18705.98
445.6	18499.13
445.807	19961.38
446.013	19549.74
446.22	19734.06
446.426	20317.73
446.633	20571.68
446.839	21671.43
447.046	20186.66
447.252	21728.78
447.459	22015.49
447.665	21691.91
447.871	22441.47
448.078	23711.21
448.284	22496.77
448.491	23053.81
448.697	23694.83
448.903	24471.01
449.11	24597.98
449.316	23860.71
449.522	24374.75
449.728	25261.52
449.935	25447.89
450.141	25116.12
450.347	25585.1
450.553	25388.5
450.76	25353.68
450.966	26041.8
451.172	25718.22
451.378	26561.98
451.584	26305.99
451.791	26865.08
451.997	26621.38
452.203	26987.96
452.409	27536.82
452.615	27125.18
452.821	26179.01
453.027	25918.92
453.233	26789.31
453.44	25888.2
453.646	26545.6
453.852	26371.52
454.058	26451.39
454.264	25955.79
454.47	26752.45
454.676	25867.72
454.882	26650.05
455.088	24348.13
455.294	24585.69
455.5	25150.93
455.705	25267.67
455.911	24499.68
456.117	24040.93
456.323	23680.49
456.529	22330.88
456.735	23236.08
456.941	22734.33
457.147	22138.37
457.352	21751.31
457.558	21351.95
457.764	21427.73
457.97	21055
458.176	20647.45
458.381	20352.54
458.587	19621.42
458.793	19527.21
458.999	18411.07
459.204	19766.82
459.41	19467.82
459.616	18075.2
459.821	17890.88
460.027	17946.18
460.233	17770.05
460.438	16909.91
460.644	16871
460.85	16182.88
461.055	15951.46
461.261	15933.03
461.466	14659.19
461.672	14356.09
461.878	14964.34
462.083	14483.06
462.289	13995.65
462.494	13794.95
462.7	13209.23
462.905	12643.99
463.111	13467.27
463.316	13493.9
463.522	13024.91
463.727	13020.81
463.932	13110.93
464.138	12738.19
464.343	12949.14
464.549	12519.06
464.754	13026.96
464.959	12717.72
465.165	12617.36
465.37	12410.52
465.575	11894.43
465.781	12469.91
465.986	12320.41
466.191	12078.75
466.397	11949.73
466.602	11163.31
466.807	11566.76
467.012	11906.72
467.218	11636.39
467.423	11400.87
467.628	11724.45
467.833	12185.24
468.038	11558.56
468.244	11290.28
468.449	11660.96
468.654	11447.97
468.859	11472.55
469.064	11112.11
469.269	10651.31
469.474	10600.12
469.679	11101.87
469.885	10671.79
470.09	11034.28
470.295	10845.87
470.5	10395.32
470.705	10579.64
470.91	10348.22
471.115	10239.67
471.32	10421.94
471.525	10448.57
471.73	10188.47
471.935	10194.62
472.139	9541.32
472.344	9889.47
472.549	9916.09
472.754	9764.54
472.959	9572.04
473.164	9240.26
473.369	9279.18
473.574	9596.61
473.778	9371.33
473.983	9506.5
474.188	9172.68
474.393	8883.92
474.598	8826.57
474.802	8953.55
475.007	8711.89
475.212	8904.4
475.417	8470.23
475.621	8378.07
475.826	8257.24
476.031	8318.68
476.235	8122.07
476.44	8351.45
476.645	8281.81
476.849	8130.27
477.054	8015.58
477.259	7937.76
477.463	7997.15
477.668	7763.68
477.872	7982.81
478.077	7667.42
478.282	7571.17
478.486	7339.75
478.691	7335.65
478.895	7349.99
479.1	7302.89
479.304	7360.23
479.509	7227.11
479.713	7366.37
479.918	7020.27
480.122	7096.04
480.326	7053.03
480.531	7196.39
480.735	7147.24
480.94	6909.68
481.144	7175.91
481.348	6792.94
481.553	7022.31
481.757	6797.04
481.961	6805.23
482.166	6776.56
482.37	6938.35
482.574	6876.91
482.778	6686.45
482.983	7014.12
483.187	6856.43
483.391	6854.38
483.595	6924.01
483.8	6610.67
484.004	6872.81
484.208	6758.13
484.412	6895.34
484.616	6858.48
484.821	6917.87
485.025	6674.16
485.229	6944.49
485.433	6821.61
485.637	6967.02
485.841	6797.04
486.045	6672.11
486.249	6881
486.453	6684.4
486.657	6846.19
486.861	6938.35
487.065	6737.65
487.269	6944.49
487.473	6479.6
487.677	6866.67
487.881	6977.26
488.085	6702.83
488.289	6854.38
488.493	6917.87
488.697	6950.64
488.901	6915.82
489.105	6926.06
489.309	6858.48
489.512	6930.16
489.716	6924.01
489.92	6997.74
490.124	6901.48
490.328	7081.71
490.531	6960.88
490.735	6979.31
490.939	7067.37
491.143	7096.04
491.346	7032.55
491.55	7229.16
491.754	7151.34
491.958	7083.75
492.161	7048.94
492.365	7171.82
492.569	7167.72
492.772	7180.01
492.976	7331.56
493.18	7313.13
493.383	7593.7
493.587	7495.39
493.79	7509.73
493.994	7415.52
494.197	7665.38
494.401	7562.98
494.605	7599.84
494.808	7659.23
495.012	7796.45
495.215	7851.74
495.419	8105.69
495.622	7900.89
495.825	8029.91
496.029	8087.26
496.232	8294.1
496.436	8062.68
496.639	8326.87
496.843	8283.86
497.046	8412.88
497.249	8572.63
497.453	8640.21
497.656	8629.97
497.859	8660.69
498.063	9107.15
498.266	9027.28
498.469	8885.97
498.673	8785.62
498.876	9342.66
499.079	9174.73
499.282	9565.89
499.485	9684.67
499.689	9653.95
499.892	9809.6
500.095	9731.78
500.298	9780.93
500.501	9684.67
500.705	10213.05
500.908	10106.56
501.111	10233.53
501.314	10553.01
501.517	10620.6
501.72	10622.64
501.923	10358.46
502.126	10888.88
502.329	11206.31
502.532	11015.85
502.735	11294.38
502.938	11648.68
503.141	11499.17
503.344	11548.33
503.547	11470.5
503.75	11921.06
503.953	11974.3
504.156	12398.23
504.359	12146.33
504.562	12275.35
504.765	12543.64
504.968	12471.96
505.17	12736.15
505.373	12672.66
505.576	12942.99
505.779	13219.47
505.982	13207.18
506.185	13481.61
506.387	13635.21
506.59	13739.65
506.793	13917.82
506.996	13958.78
507.198	14339.71
507.401	14139.01
507.604	14360.19
507.807	14755.44
508.009	14745.2
508.212	14749.3
508.415	14810.74
508.617	15076.98
508.82	15095.41
509.022	15162.99
509.225	15699.56
509.428	15715.94
509.63	15855.2
509.833	15801.96
510.035	16313.95
510.238	16438.87
510.44	16481.88
510.643	16797.27
510.845	16756.31
511.048	16905.81
511.25	17124.94
511.453	17061.46
511.655	17671.75
511.858	17569.35
512.06	17661.51
512.262	17878.6
512.465	17790.53
512.667	18146.88
512.87	18382.4
513.072	18513.47
513.274	18535.99
513.477	19088.95
513.679	19177.01
513.881	19412.53
514.084	19584.55
514.286	19717.67
514.488	19777.06
514.69	19977.76
514.893	20321.82
515.095	20532.76
515.297	20641.31
515.499	20815.38
515.701	20989.46
515.904	21069.33
516.106	21194.26
516.308	21431.82
516.51	21589.52
516.712	21990.92
516.914	22085.12
517.116	22451.71
517.318	22488.57
517.52	22576.64
517.722	22777.34
517.925	22885.88
518.127	23340.53
518.329	23653.87
518.531	23569.9
518.733	24251.88
518.935	23846.38
519.136	24135.14
519.338	24387.04
519.54	24507.87
519.742	24542.69
519.944	24995.29
520.146	25374.16
520.348	25648.59
520.55	25652.69
520.752	25439.7
520.954	26535.36
521.155	25931.21
521.357	26402.24
521.559	26729.92
521.761	27356.6
521.963	26717.63
522.164	26971.58
522.366	27354.55
522.568	27561.39
522.77	27323.83
522.971	28145.06
523.173	28134.82
523.375	28179.88
523.576	28489.12
523.778	28519.84
523.98	28620.19
524.181	28927.39
524.383	28779.93
524.584	29478.29
524.786	29296.02
524.988	29255.06
525.189	29969.8
525.391	30066.06
525.592	29668.75
525.794	30131.59
525.995	30244.23
526.197	30086.54
526.398	30420.36
526.6	30827.9
526.801	30881.15
527.003	30903.68
527.204	31069.56
527.406	31202.68
527.607	31018.36
527.808	31653.23
528.01	31067.52
528.211	31446.39
528.412	31991.15
528.614	32042.35
528.815	32068.97
529.016	32546.15
529.218	31585.65
529.419	32148.84
529.62	32111.98
529.822	32337.26
530.023	32501.09
530.224	32920.93
530.425	32460.13
530.626	32343.4
530.828	32445.8
531.029	33305.95
531.23	32533.86
531.431	32927.07
531.632	33080.67
531.833	33318.23
532.035	33127.77
532.236	33232.22
532.437	33705.3
532.638	33039.71
532.839	33176.92
533.04	33353.05
533.241	33049.95
533.442	33842.51
533.643	33273.18
533.844	33434.97
534.045	33582.42
534.246	33150.3
534.447	33570.13
534.648	33514.84
534.849	33463.64
535.05	33445.21
535.251	33729.87
535.451	33285.47
535.652	33473.88
535.853	33623.38
536.054	33451.35
536.255	33727.83
536.456	33232.22
536.657	33877.33
536.857	33400.15
537.058	33330.52
537.259	33856.85
537.46	33916.24
537.66	33596.76
537.861	33621.33
538.062	33776.98
538.263	33420.63
538.463	33394.01
538.664	33555.8
538.865	33783.12
539.065	34075.98
539.266	33543.51
539.466	33836.37
539.667	33504.6
539.868	33731.92
540.068	33713.49
540.269	33510.74
540.469	33779.03
540.67	33248.6
540.87	33871.18
541.071	33451.35
541.271	33715.54
541.472	33819.99
541.672	33680.72
541.873	33623.38
542.073	33504.6
542.274	34035.02
542.474	33733.97
542.675	33047.9
542.875	33557.85
543.075	33314.14
543.276	33330.52
543.476	33781.07
543.676	33377.62
543.877	33459.54
544.077	33723.73
544.277	33213.79
544.478	33025.37
544.678	33508.69
544.878	33299.8
545.078	33580.37
545.279	33264.99
545.479	33531.22
545.679	33914.19
545.879	33213.79
546.079	33242.46
546.28	33473.88
546.48	32898.4
546.68	33598.8
546.88	33385.82
547.08	33506.65
547.28	33172.83
547.48	33193.31
547.68	33244.51
547.88	33105.24
548.081	33066.33
548.281	33205.59
548.481	33156.44
548.681	33494.36
548.881	33475.93
549.081	33209.69
549.28	33230.17
549.48	33056.09
549.68	33056.09
549.88	33551.7
550.08	32953.69
550.28	33080.67
550.48	33160.54
550.68	33412.44
550.88	33252.7
551.08	33189.21
551.279	33275.23
551.479	32912.74
551.679	33373.53
551.879	32996.7
552.079	33023.33
552.278	33037.66
552.478	33226.07
552.678	32988.51
552.878	33140.06
553.077	32689.51
553.277	32796
553.477	33449.3
553.676	33230.17
553.876	33238.36
554.076	32955.74
554.275	32486.76
554.475	32714.08
554.674	33092.96
554.874	32740.71
555.074	32742.75
555.273	32812.38
555.473	32615.78
555.672	32478.57
555.872	32634.21
556.071	32767.33
556.271	32628.07
556.47	32497
556.67	32296.3
556.869	32570.72
557.068	32425.32
557.268	32507.24
557.467	32470.37
557.667	32494.95
557.866	32480.61
558.065	32265.58
558.265	31976.81
558.464	31794.54
558.663	32202.09
558.863	31925.61
559.062	32339.3
559.261	31917.42
559.461	32253.29
559.66	31585.65
559.859	31769.97
560.058	31464.82
560.258	31595.89
560.457	31473.01
560.656	31829.36
560.855	31790.45
561.054	31778.16
561.253	31040.89
561.453	31413.62
561.652	31507.83
561.851	31833.46
562.05	31276.41
562.249	31018.36
562.448	31264.12
562.647	31016.32
562.846	30979.45
563.045	30997.88
563.244	30508.42
563.443	30961.02
563.642	30272.9
563.841	30444.93
564.04	30342.53
564.239	30645.63
564.438	30530.95
564.637	30741.89
564.836	30383.49
565.035	29959.56
565.234	30250.38
565.432	30156.17
565.631	29945.23
565.83	30242.18
566.029	29644.18
566.228	29975.95
566.427	30094.73
566.625	29347.22
566.824	29242.78
567.023	29498.77
567.222	29160.86
567.42	29588.88
567.619	29423
567.818	29367.7
568.016	29210.01
568.215	29353.37
568.414	28886.43
568.612	29476.24
568.811	29019.55
569.01	28798.37
569.208	28687.78
569.407	29013.4
569.605	28429.73
569.804	28710.3
570.002	28143.02
570.201	28235.17
570.4	28286.37
570.598	27995.56
570.797	28077.48
570.995	27991.47
571.193	27655.6
571.392	27905.45
571.59	27960.75
571.789	27817.39
571.987	27577.78
572.186	27854.25
572.384	27436.47
572.582	27397.56
572.781	27225.53
572.979	26897.85
573.177	27420.08
573.376	27340.21
573.574	27200.95
573.772	27151.8
573.971	26865.08
574.169	26951.1
574.367	27030.97
574.565	27174.33
574.763	26580.42
574.962	26691.01
575.16	26447.3
575.358	26461.63
575.556	26351.04
575.754	26516.93
575.952	26316.23
576.151	26357.19
576.349	25923.02
576.547	25609.68
576.745	25984.46
576.943	25900.49
577.141	25953.74
577.339	25750.99
577.537	25392.59
577.735	25480.66
577.933	25462.22
578.131	25374.16
578.329	25363.92
578.527	25257.43
578.725	25138.65
578.923	25296.34
579.121	25343.44
579.319	24868.31
579.516	25167.32
579.714	25081.3
579.912	24911.32
580.11	24694.24
580.308	24585.69
580.506	24563.17
580.704	24520.16
580.901	24620.51
581.099	24763.87
581.297	24161.76
581.495	24251.88
581.692	24456.67
581.89	24258.02
582.088	24135.14
582.285	24024.55
582.483	24298.98
582.681	24200.68
582.878	23932.39
583.076	23461.36
583.274	24110.57
583.471	23922.15
583.669	23692.78
583.866	23688.68
584.064	23709.16
584.262	23176.69
584.459	23496.17
584.657	23223.79
584.854	23717.36
585.052	22826.49
585.249	23145.97
585.447	23238.13
585.644	22830.58
585.841	23121.4
586.039	23129.59
586.236	22785.53
586.434	22550.01
586.631	22576.64
586.828	22580.73
587.026	22638.08
587.223	22578.68
587.42	22218.24
587.618	22334.98
587.815	22150.66
588.012	22042.12
588.21	22007.3
588.407	22040.07
588.604	21931.53
588.801	22058.5
588.999	21755.4
589.196	21917.19
589.393	21638.67
589.59	21710.35
589.787	21702.15
589.984	21718.54
590.182	21399.05
590.379	21595.66
590.576	21444.11
590.773	21417.49
590.97	21016.08
591.167	21198.35
591.364	20864.53
591.561	21319.18
591.758	21007.89
591.955	20770.33
592.152	21263.89
592.349	20856.34
592.546	20899.35
592.743	20889.11
592.94	20182.56
593.137	20663.83
593.334	20626.97
593.531	20080.16
593.727	20176.42
593.924	20356.64
594.121	20401.69
594.318	20170.27
594.515	20098.59
594.712	20352.54
594.908	19940.9
595.105	20225.57
595.302	19787.3
595.499	19820.07
595.696	19879.46
595.892	19754.54
596.089	20026.92
596.286	19689
596.482	19406.38
596.679	19457.58
596.876	19623.47
597.072	19531.31
597.269	19209.78
597.466	19197.49
597.662	19289.65
597.859	19316.27
598.055	19058.23
598.252	19164.72
598.448	18955.83
598.645	18988.6
598.841	18736.7
599.038	18843.19
599.234	18804.28
599.431	18699.83
599.627	18200.13
599.824	18546.23
600.02	18824.76
600.217	18533.95
600.413	18624.06
600.609	18142.78
600.806	18611.77
601.002	18261.57
601.198	18267.71
601.395	18073.15
601.591	18249.28
601.787	18060.87
601.984	18034.24
602.18	18071.11
602.376	17757.77
602.572	17847.88
602.769	17729.09
602.965	17428.04
603.161	17690.18
603.357	17555.02
603.553	17557.07
603.75	17649.22
603.946	17444.43
604.142	17350.22
604.338	17317.45
604.534	17507.91
604.73	16946.77
604.926	17018.45
605.122	17292.88
605.318	16967.25
605.514	16891.48
605.71	16899.67
605.906	17145.42
606.102	16971.35
606.298	16719.45
606.494	16864.85
606.69	16651.86
606.886	16914
607.082	16625.24
607.278	16557.66
607.474	16178.78
607.67	16666.2
607.866	16100.96
608.062	16803.41
608.257	16367.2
608.453	16191.07
608.649	16418.39
608.845	16301.66
609.041	16272.99
609.236	16227.93
609.432	16139.87
609.628	16229.98
609.824	16031.33
610.019	15982.18
610.215	16322.14
610.411	16105.06
610.606	16027.23
610.802	15912.55
610.998	15973.99
611.193	15984.23
611.389	15855.2
611.584	15769.19
611.78	15597.16
611.976	15740.52
612.171	15814.24
612.367	15744.61
612.562	15717.99
612.758	15539.82
612.953	15423.08
613.149	15709.8
613.344	15502.95
613.539	15578.73
613.735	15402.6
613.93	15371.88
614.126	15412.84
614.321	15480.43
614.517	15445.61
614.712	15312.49
614.907	15185.52
615.103	15345.26
615.298	15122.03
615.493	15267.44
615.688	15201.9
615.884	15343.21
616.079	14827.12
616.274	15281.77
616.47	14954.1
616.665	14900.85
616.86	14851.7
617.055	15083.12
617.25	14939.76
617.445	15085.17
617.641	14757.49
617.836	14790.26
618.031	14550.65
618.226	14761.59
618.421	14626.42
618.616	14700.15
618.811	14618.23
619.006	14552.7
619.201	14274.17
619.396	14306.94
619.591	14247.55
619.786	14380.67
619.981	14118.53
620.176	14311.03
620.371	14038.66
620.566	14044.8
620.761	14112.38
620.956	13651.59
621.151	13809.28
621.346	14028.42
621.541	13598.34
621.735	13979.26
621.93	13563.53
622.125	13698.69
622.32	13340.3
622.515	13409.93
622.709	13328.01
622.904	13246.09
623.099	13274.76
623.294	13405.83
623.488	12936.85
623.683	13006.48
623.878	12865.17
624.072	13039.25
624.267	12902.03
624.462	12627.6
624.656	12539.54
624.851	12699.28
625.046	12471.96
625.24	12476.05
625.435	12412.57
625.629	12361.37
625.824	12496.53
626.018	12170.91
626.213	12062.37
626.407	12177.05
626.602	11982.49
626.796	12185.24
626.991	12193.44
627.185	11673.25
627.38	11818.66
627.574	11714.21
627.768	11644.58
627.963	11507.37
628.157	11370.15
628.352	11632.29
628.546	11325.1
628.74	11374.25
628.935	11245.23
629.129	11484.84
629.323	10944.17
629.517	11198.12
629.712	10798.77
629.906	11110.06
630.1	10743.47
630.294	10956.46
630.489	10579.64
630.683	10841.78
630.877	10501.81
631.071	10778.29
631.265	10698.42
631.459	10467
631.653	10493.62
631.848	10540.72
632.042	10368.7
632.236	10510
632.43	10202.81
632.624	10213.05
632.818	10352.31
633.012	10086.08
633.206	10026.68
633.4	9975.49
633.594	9875.13
633.788	9842.37
633.982	9846.46
634.176	9883.33
634.369	9705.15
634.563	9866.94
634.757	9682.63
634.951	9635.52
635.145	9531.08
635.339	9610.95
635.533	9340.61
635.726	9367.24
635.92	9301.7
636.114	9160.39
636.308	9105.1
636.501	9164.49
636.695	9170.63
636.889	8820.43
637.083	9053.9
637.276	9080.52
637.47	9035.47
637.664	8951.5
637.857	8994.51
638.051	8804.05
638.244	8777.42
638.438	8650.45
638.632	8732.37
638.825	8681.17
639.019	8470.23
639.212	8642.26
639.406	8517.33
639.599	8519.38
639.793	8494.8
639.986	8363.73
640.18	8210.14
640.373	8500.95
640.567	8097.5
640.76	8380.12
640.954	8054.49
641.147	8138.46
641.34	8060.63
641.534	8003.29
641.727	8117.98
641.92	7853.79
642.114	7831.26
642.307	7894.75
642.5	7839.45
642.694	7597.79
642.887	7761.63
643.08	7698.14
643.273	7614.18
643.467	7644.9
643.66	7456.48
643.853	7468.77
644.046	7378.66
644.239	7464.68
644.432	7354.09
644.626	7419.62
644.819	7190.25
645.012	7427.81
645.205	7372.52
645.398	7202.54
645.591	7034.6
645.784	6971.11
645.977	7048.94
646.17	7180.01
646.363	6999.79
646.556	6874.86
646.749	6946.54
646.942	6973.16
647.135	6840.04
647.328	6737.65
647.521	6862.57
647.714	6479.6
647.907	6774.51
648.099	6604.53
648.292	6799.09
648.485	6582
648.678	6741.74
648.871	6516.47
649.064	6385.4
649.256	6563.57
649.449	6432.5
649.642	6432.5
649.835	6260.47
650.027	6428.4
650.22	6381.3
650.413	6373.11
650.605	6166.26
650.798	6170.36
650.991	6174.46
651.183	6168.31
651.376	6092.54
651.568	6133.5
651.761	6196.98
651.954	6063.86
652.146	6084.34
652.339	5930.75
652.531	5975.8
652.724	5934.84
652.916	5809.92
653.109	5932.79
653.301	5916.41
653.494	5940.99
653.686	5744.38
653.879	5773.05
654.071	5883.64
654.263	5674.75
654.456	5590.78
654.648	5660.41
654.84	5457.67
655.033	5433.09
655.225	5607.17
655.417	5385.99
655.61	5680.89
655.802	5574.4
655.994	5510.91
656.186	5474.05
656.379	5441.28
656.571	5318.4
656.763	5412.61
656.955	5361.41
657.148	5285.64
657.34	5222.15
657.532	5216.01
657.724	5281.54
657.916	5213.96
658.108	5150.47
658.3	5054.22
658.492	5066.5
658.684	5129.99
658.876	5113.61
659.068	5175.05
659.26	4945.67
659.452	4824.84
659.644	4982.54
659.836	5013.26
660.028	4884.23
660.22	4896.52
660.412	5000.97
660.604	4853.52
660.796	4880.14
660.988	4820.75
661.18	4802.32
661.372	4550.42
661.563	4888.33
661.755	4792.08
661.947	4648.72
662.139	4554.51
662.331	4525.84
662.522	4689.68
662.714	4615.95
662.906	4554.51
663.097	4534.03
663.289	4411.15
663.481	4620.05
663.673	4611.85
663.864	4491.02
664.056	4546.32
664.247	4288.28
664.439	4501.26
664.631	4445.97
664.822	4517.65
665.014	4503.31
665.205	4415.25
665.397	4362
665.588	4343.57
665.78	4302.61
665.971	4337.43
666.163	4269.84
666.354	4355.86
666.546	4275.99
666.737	4327.19
666.929	4077.34
667.12	4241.17
667.311	4177.69
667.503	4208.41
667.694	4155.16
667.885	4210.45
668.077	4206.36
668.268	4075.29
668.459	4151.06
668.651	4067.1
668.842	4019.99
669.033	4024.09
669.224	4013.85
669.416	4146.97
669.607	4085.53
669.798	3880.73
669.989	4060.95
670.18	3981.08
670.371	4011.8
670.563	3911.45
670.754	4120.34
670.945	3946.27
671.136	3958.55
671.327	3974.94
671.518	3962.65
671.709	3952.41
671.9	4042.52
672.091	3843.87
672.282	4042.52
672.473	3882.78
672.664	3815.2
672.855	3817.24
673.046	3997.46
673.237	3933.98
673.428	3845.91
673.619	3833.63
673.809	3792.67
674	3958.55
674.191	3839.77
674.382	3819.29
674.573	3768.09
674.764	3958.55
674.954	3837.72
675.145	3956.5
675.336	3843.87
675.527	3798.81
675.717	3870.49
675.908	3815.2
676.099	3895.07
676.289	3874.59
676.48	3839.77
676.671	3720.99
676.861	3903.26
677.052	3788.57
677.243	3663.65
677.433	3733.28
677.624	3927.83
677.814	3829.53
678.005	3919.64
678.195	3835.67
678.386	3858.2
678.576	3723.04
678.767	3860.25
678.957	3780.38
679.148	3845.91
679.338	3878.68
679.529	3821.34
679.719	3866.39
679.909	3772.19
680.1	3886.87
680.29	3847.96
680.481	3649.31
680.671	3886.87
680.861	3927.83
681.052	3782.43
681.242	3764
681.432	3952.41
681.622	3718.94
681.813	3794.72
682.003	3850.01
682.193	3882.78
682.383	3766.04
682.573	3913.5
682.764	3723.04
682.954	3831.58
683.144	3950.36
683.334	3835.67
683.524	3845.91
683.714	3811.1
683.904	3743.52
684.094	3837.72
684.284	3852.06
684.474	3825.43
684.664	3852.06
684.854	3671.84
685.044	3741.47
685.234	3751.71
685.424	3790.62
685.614	3606.3
685.804	3782.43
685.994	3677.98
686.184	3708.7
686.374	3772.19
686.564	3551.01
686.753	3626.78
686.943	3573.53
687.133	3651.36
687.323	3594.01
687.513	3600.16
687.702	3501.86
687.892	3634.97
688.082	3532.58
688.272	3514.14
688.461	3551.01
688.651	3657.5
688.841	3413.79
689.03	3407.65
689.22	3444.51
689.41	3424.03
689.599	3485.47
689.789	3292.96
689.979	3440.42
690.168	3378.98
690.358	3376.93
690.547	3272.48
690.737	3301.15
690.926	3292.96
691.116	3194.66
691.305	3268.39
691.495	3381.03
691.684	3321.63
691.874	3329.83
692.063	3340.07
692.252	3276.58
692.442	3286.82
692.631	3184.42
692.82	3211.04
693.01	3102.5
693.199	3043.11
693.388	3155.75
693.578	3018.54
693.767	3079.97
693.956	2981.67
694.146	3157.8
694.335	2993.96
694.524	3053.35
694.713	3196.71
694.902	3118.89
695.092	3061.54
695.281	3135.27
695.47	2987.82
695.659	3045.16
695.848	2998.06
696.037	2983.72
696.226	3028.78
696.415	2987.82
696.604	2930.47
696.793	3030.82
696.982	2946.86
697.171	2846.51
697.36	2926.38
697.549	2901.8
697.738	2920.23
697.927	2879.27
698.116	2871.08
698.305	2961.19
698.494	2977.58
698.683	2879.27
698.872	2928.42
699.061	2948.9
699.25	2881.32
699.438	2922.28
699.627	3018.54
699.816	3026.73
700.005	3026.73
700.193	2838.31
700.382	2946.86
700.571	2983.72
700.76	2860.84
700.948	2897.71
701.137	2901.8
701.326	2993.96
701.514	2817.83
701.703	3002.15
701.892	2953
702.08	3028.78
702.269	2977.58
702.457	2844.46
702.646	3010.34
702.834	2981.67
703.023	2914.09
703.212	2871.08
703.4	3075.88
703.589	2905.9
703.777	3026.73
703.965	2897.71
704.154	2987.82
704.342	2823.98
704.531	2932.52
704.719	2971.43
704.907	3004.2
705.096	2948.9
705.284	2852.65
705.472	3071.78
705.661	3061.54
705.849	3049.25
706.037	2930.47
706.226	3030.82
706.414	3028.78
706.602	3006.25
706.79	2912.04
706.979	2936.62
707.167	3125.03
707.355	3024.68
707.543	3170.08
707.731	3182.37
707.919	2922.28
708.107	3082.02
708.296	2987.82
708.484	2922.28
708.672	3137.32
708.86	3092.26
709.048	3118.89
709.236	3082.02
709.424	3112.74
709.612	3043.11
709.8	3092.26
709.988	2981.67
710.176	3141.41
710.364	2967.34
710.551	3067.69
710.739	3202.85
710.927	3110.69
711.115	3090.21
711.303	3096.36
711.491	3108.65
711.679	3174.18
711.866	3192.61
712.054	3133.22
712.242	3155.75
712.43	3264.29
712.617	3102.5
712.805	3215.14
712.993	3315.49
713.181	3071.78
713.368	3239.72
713.556	3213.09
713.744	3145.51
713.931	3315.49
714.119	3155.75
714.306	3104.55
714.494	3321.63
714.682	3243.81
714.869	3303.2
715.057	3178.28
715.244	3292.96
715.432	3389.22
715.619	3202.85
715.807	3245.86
715.994	3305.25
716.182	3303.2
716.369	3331.87
716.556	3323.68
716.744	3219.24
716.931	3335.97
717.119	3493.66
717.306	3442.46
717.493	3354.4
717.681	3329.83
717.868	3219.24
718.055	3432.22
718.242	3335.97
718.43	3452.7
718.617	3467.04
718.804	3338.02
718.991	3456.8
719.179	3428.13
719.366	3362.59
719.553	3329.83
719.74	3307.3
719.927	3321.63
720.114	3520.29
720.301	3501.86
720.488	3495.71
720.676	3483.42
720.863	3421.99
721.05	3708.7
721.237	3548.96
721.424	3475.23
721.611	3520.29
721.798	3348.26
721.985	3487.52
722.172	3508
722.358	3591.97
722.545	3776.28
722.732	3553.06
722.919	3600.16
723.106	3495.71
723.293	3585.82
723.48	3583.77
723.667	3518.24
723.853	3514.14
724.04	3594.01
724.227	3534.62
724.414	3677.98
724.6	3393.31
724.787	3628.83
724.974	3575.58
725.161	3579.68
725.347	3624.73
725.534	3641.12
725.72	3542.82
725.907	3557.15
726.094	3673.89
726.28	3536.67
726.467	3524.38
726.653	3630.88
726.84	3653.41
727.027	3700.51
727.213	3608.35
727.4	3696.41
727.586	3632.93
727.773	3657.5
727.959	3684.13
728.145	3696.41
728.332	3542.82
728.518	3677.98
728.705	3811.1
728.891	3688.22
729.077	3641.12
729.264	3702.56
729.45	3741.47
729.636	3800.86
729.823	3600.16
730.009	3749.66
730.195	3747.61
730.382	3686.17
730.568	3727.13
730.754	3688.22
730.94	3637.02
731.126	3895.07
731.313	3751.71
731.499	3731.23
731.685	3684.13
731.871	3712.8
732.057	3637.02
732.243	3872.54
732.429	3675.93
732.615	3786.52
732.801	3829.53
732.987	3786.52
733.173	3729.18
733.359	3766.04
733.545	3815.2
733.731	3731.23
733.917	3796.76
734.103	3749.66
734.289	3807
734.475	3614.49
734.661	3772.19
734.847	3823.39
735.033	3880.73
735.219	3698.46
735.404	3782.43
735.59	3649.31
735.776	3714.84
735.962	3698.46
736.148	3835.67
736.333	3825.43
736.519	3727.13
736.705	3647.26
736.89	3852.06
737.076	3610.4
737.262	3585.82
737.447	3819.29
737.633	3665.69
737.819	3794.72
738.004	3655.45
738.19	3798.81
738.375	3757.85
738.561	3831.58
738.747	3634.97
738.932	3714.84
739.118	3610.4
739.303	3548.96
739.489	3755.8
739.674	3542.82
739.859	3643.17
740.045	3673.89
740.23	3708.7
740.416	3462.94
740.601	3587.87
740.786	3645.21
740.972	3600.16
741.157	3528.48
741.342	3643.17
741.528	3634.97
741.713	3438.37
741.898	3616.54
742.084	3587.87
742.269	3538.72
742.454	3454.75
742.639	3608.35
742.824	3403.55
743.01	3526.43
743.195	3450.66
743.38	3571.49
743.565	3477.28
743.75	3370.79
743.935	3235.62
744.12	3436.32
744.305	3288.87
744.49	3424.03
744.675	3348.26
744.86	3297.06
745.045	3348.26
745.23	3282.72
745.415	3424.03
745.6	3407.65
745.785	3217.19
745.97	3309.35
746.155	3200.8
746.34	3307.3
746.525	3290.92
746.71	3206.95
746.895	3102.5
747.079	3305.25
747.264	3059.49
747.449	3190.56
747.634	3170.08
747.819	3110.69
748.003	3018.54
748.188	2967.34
748.373	2989.86
748.557	3032.87
748.742	2938.66
748.927	2981.67
749.111	3014.44
749.296	2961.19
749.481	2854.7
749.665	3143.46
749.85	2936.62
750.034	2950.95
750.219	2881.32
750.404	2934.57
750.588	2715.44
750.773	2826.03
750.957	2785.07
751.141	2832.17
751.326	2672.43
751.51	2676.52
751.695	2623.28
751.879	2866.99
752.064	2760.49
752.248	2656.04
752.432	2701.1
752.617	2703.15
752.801	2572.08
752.985	2467.63
753.17	2592.56
753.354	2572.08
753.538	2553.65
753.722	2408.24
753.907	2514.73
754.091	2504.5
754.275	2531.12
754.459	2387.76
754.643	2453.3
754.828	2357.04
755.012	2418.48
755.196	2293.55
755.38	2322.23
755.564	2262.83
755.748	2305.84
755.932	2369.33
756.116	2252.59
756.3	2275.12
756.484	2193.2
756.668	2236.21
756.852	2047.8
757.036	2182.96
757.22	2137.91
757.404	2125.62
757.588	2228.02
757.772	2144.05
757.956	2125.62
758.14	2236.21
758.323	2019.13
758.507	2084.66
758.691	2117.43
758.875	2068.28
759.059	2144.05
759.242	2008.89
759.426	1914.68
759.61	1969.98
759.794	1845.05
759.977	1933.11
760.161	2027.32
760.345	1945.4
760.528	1853.24
760.712	1951.54
760.895	1912.63
761.079	1910.58
761.263	1754.94
761.446	1861.43
761.63	1756.99
761.813	1890.1
761.997	1826.62
762.18	1728.31
762.364	1894.2
762.547	1742.65
762.731	1791.8
762.914	1763.13
763.098	1750.84
763.281	1763.13
763.464	1687.36
763.648	1783.61
763.831	1736.51
764.015	1797.95
764.198	1783.61
764.381	1636.16
764.564	1775.42
764.748	1636.16
764.931	1673.02
765.114	1660.73
765.297	1769.27
765.481	1636.16
765.664	1627.96
765.847	1722.17
766.03	1611.58
766.213	1617.72
766.397	1677.12
766.58	1515.33
766.763	1621.82
766.946	1621.82
767.129	1578.81
767.312	1552.19
767.495	1578.81
767.678	1513.28
767.861	1609.53
768.044	1558.33
768.227	1509.18
768.41	1582.91
768.593	1570.62
768.776	1550.14
768.959	1464.13
769.142	1478.46
769.324	1548.09
769.507	1380.16
769.69	1503.04
769.873	1410.88
770.056	1570.62
770.239	1396.54
770.421	1525.57
770.604	1552.19
770.787	1453.89
770.97	1396.54
771.152	1333.06
771.335	1515.33
771.518	1331.01
771.7	1445.7
771.883	1431.36
772.066	1310.53
772.248	1371.97
772.431	1460.03
772.613	1335.1
772.796	1308.48
772.978	1318.72
773.161	1314.63
773.343	1302.34
773.526	1304.39
773.708	1238.85
773.891	1128.26
774.073	1302.34
774.256	1177.41
774.438	1306.43
774.621	1195.84
774.803	1259.33
774.985	1244.99
775.168	1216.32
775.35	1214.27
775.532	1226.56
775.715	1253.19
775.897	1234.75
776.079	1136.45
776.261	1101.64
776.444	1150.79
776.626	1191.75
776.808	1029.96
776.99	1197.89
777.173	1087.3
777.355	1091.4
777.537	1097.54
777.719	1187.65
777.901	1138.5
778.083	1013.57
778.265	1068.87
778.447	1089.35
778.629	1027.91
778.811	1011.53
778.993	1052.49
779.175	984.9
779.357	1095.49
779.539	1005.38
779.721	970.57
779.903	964.42
780.085	986.95
780.267	976.71
780.449	970.57
780.631	954.18
780.812	1079.11
780.994	855.88
781.176	905.03
781.358	970.57
781.54	974.66
781.721	900.94
781.903	915.27
782.085	888.65
782.267	935.75
782.448	794.44
782.63	855.88
782.812	833.35
782.993	870.22
783.175	833.35
783.357	788.3
783.538	808.78
783.72	784.2
783.901	868.17
784.083	806.73
784.264	765.77
784.446	759.63
784.627	720.71
784.809	808.78
784.99	806.73
785.172	765.77
785.353	743.24
785.535	759.63
785.716	761.67
785.897	679.75
786.079	687.95
786.26	798.54
786.441	683.85
786.623	726.86
786.804	653.13
786.985	716.62
787.167	718.67
787.348	694.09
787.529	694.09
787.71	683.85
787.891	649.04
788.073	694.09
788.254	716.62
788.435	728.91
788.616	679.75
788.797	661.32
788.978	552.78
789.159	644.94
789.34	593.74
789.522	556.88
789.703	620.36
789.884	649.04
790.065	536.4
790.246	638.8
790.427	616.27
790.607	628.56
790.788	622.41
790.969	597.84
791.15	560.97
791.331	634.7
791.512	503.63
791.693	493.39
791.874	462.67
792.054	581.45
792.235	632.65
792.416	513.87
792.597	479.05
792.778	573.26
792.958	487.25
793.139	493.39
793.32	460.62
793.5	452.43
793.681	567.12
793.862	569.16
794.042	550.73
794.223	464.72
794.404	483.15
794.584	425.81
794.765	393.04
794.945	454.48
795.126	520.01
795.306	397.14
795.487	440.14
795.667	474.96
795.848	474.96
796.028	415.57
796.209	520.01
796.389	487.25
796.57	499.53
796.75	466.77
796.93	380.75
797.111	436.05
797.291	479.05
797.471	431.95
797.652	446.29
797.832	380.75
798.012	544.59
798.192	399.18
798.373	399.18
798.553	341.84
798.733	438.09
798.913	458.57
799.093	411.47
799.274	440.14
799.454	434
799.634	458.57
799.814	360.27
799.994	376.66
800.174	452.43
800.354	413.52
800.534	376.66
800.714	370.51
800.894	384.85
801.074	364.37
801.254	356.18
801.434	350.03
801.614	358.22
801.794	261.97
801.974	1177.41
802.154	309.07
802.334	352.08
802.514	304.98
802.693	366.42
802.873	335.7
803.053	298.83
803.233	362.32
803.413	347.98
803.592	266.07
803.772	323.41
803.952	257.87
804.131	356.18
804.311	388.94
804.491	343.89
804.67	309.07
804.85	325.46
805.03	421.71
805.209	333.65
805.389	313.17
805.568	350.03
805.748	350.03
805.928	317.26
806.107	354.13
806.287	300.88
806.466	331.6
806.646	307.02
806.825	311.12
807.004	268.11
807.184	266.07
807.363	315.22
807.543	304.98
807.722	290.64
807.901	309.07
808.081	448.33
808.26	266.07
808.439	343.89
808.619	286.54
808.798	241.49
808.977	331.6
809.156	352.08
809.336	225.11
809.515	259.92
809.694	235.35
809.873	237.39
810.052	319.31
810.231	278.35
810.411	335.7
810.59	360.27
810.769	169.81
810.948	264.02
811.127	159.57
811.306	243.54
811.485	227.15
811.664	282.45
811.843	233.3
812.022	245.59
812.201	304.98
812.38	259.92
812.559	167.76
812.737	261.97
812.916	173.91
813.095	206.67
813.274	204.63
813.453	282.45
813.632	251.73
813.811	235.35
813.989	202.58
814.168	165.71
814.347	204.63
814.526	216.91
814.704	307.02
814.883	304.98
815.062	171.86
815.24	311.12
815.419	223.06
815.598	163.67
815.776	165.71
815.955	218.96
816.133	149.33
816.312	225.11
816.49	194.39
816.669	200.53
816.847	178
817.026	182.1
817.204	180.05
817.383	155.47
817.561	155.47
817.74	182.1
817.918	239.44
818.097	223.06
818.275	186.19
818.453	192.34
818.632	180.05
818.81	167.76
818.988	186.19
819.167	178
819.345	229.2
819.523	196.43
819.701	278.35
819.879	210.77
820.058	151.38
820.236	200.53
820.414	186.19
820.592	153.43
820.77	180.05
820.948	161.62
821.127	114.52
821.305	98.13
821.483	157.52
821.661	198.48
821.839	159.57
822.017	218.96
822.195	114.52
822.373	251.73
822.551	204.63
822.729	225.11
822.907	143.19
823.085	204.63
823.262	202.58
823.44	147.28
823.618	122.71
823.796	208.72
823.974	130.9
824.152	151.38
824.329	135
824.507	149.33
824.685	169.81
824.863	169.81
825.04	157.52
825.218	167.76
825.396	120.66
825.574	145.24
825.751	143.19
825.929	241.49
826.107	120.66
826.284	212.82
826.462	118.61
826.639	77.65
826.817	161.62
826.994	122.71
827.172	28.5
827.349	307.02
827.527	186.19
827.704	102.23
827.882	161.62
828.059	51.03
828.237	116.56
828.414	132.95
828.591	71.51
828.769	120.66
828.946	149.33
829.124	180.05
829.301	204.63
829.478	173.91
829.655	159.57
829.833	151.38
830.01	94.04
830.187	77.65
830.364	71.51
830.542	77.65
830.719	182.1
830.896	87.89
831.073	120.66
831.25	149.33
831.427	110.42
831.604	141.14
831.782	98.13
831.959	114.52
832.136	102.23
832.313	102.23
832.49	173.91
832.667	188.24
832.844	163.67
833.021	175.95
833.198	36.69
833.374	128.85
833.551	48.98
833.728	130.9
833.905	157.52
834.082	61.27
834.259	77.65
834.436	225.11
834.612	44.88
834.789	151.38
834.966	135
835.143	65.36
835.319	18.26
835.496	81.75
835.673	137.04
835.85	91.99
836.026	145.24
836.203	102.23
836.38	122.71
836.556	44.88
836.733	116.56
836.909	153.43
837.086	61.27
837.262	89.94
837.439	188.24
837.616	42.84
837.792	126.8
837.968	151.38
838.145	55.12
838.321	89.94
838.498	122.71
838.674	167.76
838.851	77.65
839.027	169.81
839.203	63.32
839.38	16.21
839.556	28.5
839.732	175.95
839.909	-28.84
840.085	120.66
840.261	-10.41
840.437	69.46
840.614	32.6
840.79	102.23
840.966	59.22
841.142	51.03
841.318	38.74
841.494	40.79
841.671	104.28
841.847	30.55
842.023	102.23
842.199	36.69
842.375	67.41
842.551	14.17
842.727	28.5
842.903	110.42
843.079	61.27
843.255	143.19
843.431	20.31
843.607	122.71
843.783	-63.66
843.959	151.38
844.134	-20.65
844.31	126.8
844.486	16.21
844.662	57.17
844.838	32.6
845.013	143.19
845.189	100.18
845.365	69.46
845.541	71.51
845.716	100.18
845.892	83.8
846.068	12.12
846.244	81.75
846.419	22.36
846.595	28.5
846.77	10.07
846.946	83.8
847.122	55.12
847.297	108.37
847.473	3.93
847.648	24.4
847.824	38.74
847.999	-16.55
848.175	46.93
848.35	18.26
848.526	81.75
848.701	28.5
848.876	63.32
849.052	116.56
849.227	24.4
849.403	77.65
849.578	22.36
849.753	81.75
849.929	87.89
850.104	-45.23
850.279	63.32
850.454	79.7
850.63	53.08
850.805	85.84
850.98	91.99
851.155	28.5
851.33	98.13
851.505	44.88
851.681	69.46
851.856	22.36
852.031	110.42
852.206	59.22
852.381	-84.14
852.556	34.64
852.731	55.12
852.906	65.36
853.081	98.13
853.256	63.32
853.431	48.98
853.606	-6.31
853.781	-14.51
853.956	-6.31
854.131	28.5
854.305	69.46
854.48	-45.23
854.655	-8.36
854.83	44.88
855.005	24.4
855.18	-28.84
855.354	-41.13
855.529	91.99
855.704	-2.22
855.879	126.8
856.053	-45.23
856.228	26.45
856.403	44.88
856.577	24.4
856.752	-2.22
856.926	85.84
857.101	-10.41
857.276	-20.65
857.45	44.88
857.625	65.36
857.799	-49.32
857.974	18.26
858.148	-34.99
858.323	-41.13
858.497	14.17
858.672	32.6
858.846	-49.32
859.02	114.52
859.195	-37.03
859.369	-10.41
859.543	87.89
859.718	32.6
859.892	36.69
860.066	-18.6
860.241	65.36
860.415	-20.65
860.589	-37.03
860.763	-57.51
860.938	-26.79
861.112	12.12
861.286	-14.51
861.46	81.75
861.634	-12.46
861.808	100.18
861.982	-10.41
862.157	-4.27
862.331	26.45
862.505	30.55
862.679	-4.27
862.853	77.65
863.027	28.5
863.201	83.8
863.375	36.69
863.549	28.5
863.722	-4.27
863.896	110.42
864.07	-14.51
864.244	26.45
864.418	22.36
864.592	104.28
864.766	69.46
864.939	42.84
865.113	-59.56
865.287	-43.18
865.461	-0.17
865.634	24.4
865.808	-14.51
865.982	-16.55
866.156	-26.79
866.329	-57.51
866.503	36.69
866.676	30.55
866.85	-34.99
867.024	1.88
867.197	59.22
867.371	65.36
867.544	1.88
867.718	-53.42
867.891	36.69
868.065	-45.23
868.238	-2.22
868.412	-10.41
868.585	5.97
868.759	14.17
868.932	-4.27
869.105	-61.61
869.279	44.88
869.452	-39.08
869.625	38.74
869.799	22.36
869.972	-98.47
870.145	-10.41
870.319	20.31
870.492	-8.36
870.665	34.64
870.838	-73.9
871.011	-67.75
871.185	-49.32
871.358	20.31
871.531	-10.41
871.704	5.97
871.877	-26.79
872.05	-12.46
872.223	-16.55
872.396	53.08
872.569	-16.55
872.742	-57.51
872.915	-28.84
873.088	-39.08
873.261	-49.32
873.434	20.31
873.607	-2.22
873.78	75.6
873.953	-77.99
874.126	81.75
874.299	22.36
874.471	-43.18
874.644	20.31
874.817	18.26
874.99	57.17
875.163	-92.33
875.335	42.84
875.508	16.21
875.681	36.69
875.853	-75.95
876.026	-14.51
876.199	22.36
876.371	3.93
876.544	-14.51
876.717	-37.03
876.889	-22.7
877.062	-37.03
877.234	14.17
877.407	-20.65
877.579	40.79
877.752	46.93
877.924	69.46
878.097	-37.03
878.269	-18.6
878.442	38.74
878.614	34.64
878.786	16.21
878.959	18.26
879.131	-2.22
879.303	-16.55
879.476	22.36
879.648	42.84
879.82	-45.23
879.993	22.36
880.165	-53.42
880.337	-80.04
880.509	28.5
880.681	44.88
880.854	-14.51
881.026	-57.51
881.198	96.08
881.37	-8.36
881.542	-8.36
881.714	42.84
881.886	-0.17
882.058	-8.36
882.23	-47.27
882.402	-18.6
882.574	24.4
882.746	77.65
882.918	-8.36
883.09	20.31
883.262	12.12
883.434	-6.31
883.606	-32.94
883.778	-80.04
883.95	16.21
884.122	-30.89
884.293	-10.41
884.465	-12.46
884.637	34.64
884.809	-6.31
884.98	-80.04
885.152	-24.75
885.324	38.74
885.496	-49.32
885.667	12.12
885.839	-22.7
886.011	-4.27
886.182	20.31
886.354	94.04
886.525	5.97
886.697	14.17
886.869	-75.95
887.04	-32.94
887.212	-4.27
887.383	143.19
887.555	8.02
887.726	-71.85
887.897	-2.22
888.069	-22.7
888.24	-34.99
888.412	-82.09
888.583	-53.42
888.754	30.55
888.926	-8.36
889.097	-98.47
889.268	-24.75
889.44	-28.84
889.611	-63.66
889.782	-82.09
889.953	28.5
890.125	24.4
890.296	-88.23
890.467	20.31
890.638	-28.84
890.809	-34.99
890.98	-39.08
891.151	-4.27
891.323	5.97
891.494	61.27
891.665	-0.17
891.836	-61.61
892.007	20.31
892.178	38.74
892.349	24.4
892.52	-10.41
892.691	8.02
892.862	-10.41
893.032	-34.99
893.203	-12.46
893.374	-10.41
893.545	38.74
893.716	-114.86
893.887	77.65
894.057	-47.27
894.228	-34.99
894.399	-51.37
894.57	55.12
894.74	-4.27
894.911	10.07
895.082	-12.46
895.253	-53.42
895.423	-43.18
895.594	96.08
895.764	34.64
895.935	-55.47
896.106	-12.46
896.276	5.97
896.447	-43.18
896.617	59.22
896.788	-18.6
896.958	-47.27
897.129	-20.65
897.299	-67.75
897.47	-18.6
897.64	16.21
897.81	-37.03
897.981	-28.84
898.151	-16.55
898.322	12.12
898.492	-6.31
898.662	8.02
898.832	-43.18
899.003	-34.99
899.173	-45.23
899.343	12.12
899.513	-32.94
