Data from USB4F104151__43__13-05-16-325.txt Node

Date: Fri Mar 14 13:05:16 EDT 2025
User: louis
Spectrometer: USB4F10415
Trigger mode: 4
Integration Time (sec): 4.000000E-2
Scans to average: 1
Electric dark correction enabled: true
Nonlinearity correction enabled: false
Boxcar width: 0
XAxis mode: Wavelengths
Number of Pixels in Spectrum: 3648
>>>>>Begin Spectral Data<<<<<
178.204	-150.7
178.424	-150.7
178.644	-150.7
178.864	-230.57
179.084	-124.07
179.304	-19.63
179.524	-29.87
179.744	39.76
179.964	56.15
180.184	33.62
180.404	-7.34
180.624	-50.35
180.844	31.57
181.064	-29.87
181.283	0.85
181.503	-31.91
181.723	7
181.943	-60.59
182.163	95.06
182.383	62.29
182.602	-52.39
182.822	88.92
183.042	95.06
183.262	-31.91
183.482	41.81
183.701	-17.58
183.921	25.43
184.141	11.09
184.361	72.53
184.58	7
184.8	56.15
185.02	19.29
185.239	82.77
185.459	-15.53
185.679	23.38
185.898	-58.54
186.118	76.63
186.338	29.52
186.557	95.06
186.777	109.4
186.997	64.34
187.216	25.43
187.436	93.01
187.655	13.14
187.875	56.15
188.095	43.86
188.314	-25.77
188.534	129.88
188.753	13.14
188.973	-15.53
189.192	133.97
189.412	78.68
189.631	54.1
189.851	7
190.07	72.53
190.29	-54.44
190.509	-11.43
190.729	-15.53
190.948	47.96
191.168	133.97
191.387	80.72
191.607	4.95
191.826	27.48
192.045	45.91
192.265	4.95
192.484	-38.06
192.704	56.15
192.923	-91.31
193.142	144.21
193.362	37.72
193.581	72.53
193.8	58.2
194.02	62.29
194.239	-1.19
194.458	80.72
194.678	41.81
194.897	56.15
195.116	21.33
195.335	72.53
195.555	45.91
195.774	25.43
195.993	72.53
196.212	11.09
196.432	133.97
196.651	-29.87
196.87	21.33
197.089	127.83
197.308	15.19
197.528	27.48
197.747	0.85
197.966	-25.77
198.185	60.24
198.404	56.15
198.623	-33.96
198.842	103.25
199.062	117.59
199.281	31.57
199.5	-68.78
199.719	47.96
199.938	76.63
200.157	41.81
200.376	29.52
200.595	37.72
200.814	11.09
201.033	-58.54
201.252	66.39
201.471	58.2
201.69	29.52
201.909	47.96
202.128	107.35
202.347	21.33
202.566	7
202.785	47.96
203.004	-1.19
203.223	152.4
203.442	9.05
203.661	-11.43
203.879	2.9
204.098	54.1
204.317	31.57
204.536	23.38
204.755	50
204.974	54.1
205.193	43.86
205.411	123.73
205.63	152.4
205.849	70.48
206.068	62.29
206.287	-50.35
206.505	31.57
206.724	47.96
206.943	11.09
207.162	39.76
207.381	37.72
207.599	-36.01
207.818	50
208.037	60.24
208.255	64.34
208.474	35.67
208.693	-38.06
208.911	-21.67
209.13	-13.48
209.349	35.67
209.567	-7.34
209.786	41.81
210.005	97.11
210.223	21.33
210.442	15.19
210.661	23.38
210.879	39.76
211.098	37.72
211.316	54.1
211.535	107.35
211.753	13.14
211.972	17.24
212.191	13.14
212.409	19.29
212.628	-11.43
212.846	23.38
213.065	35.67
213.283	111.44
213.502	25.43
213.72	-27.82
213.938	62.29
214.157	21.33
214.375	54.1
214.594	15.19
214.812	15.19
215.031	41.81
215.249	47.96
215.467	21.33
215.686	43.86
215.904	60.24
216.122	86.87
216.341	17.24
216.559	93.01
216.778	4.95
216.996	80.72
217.214	-13.48
217.432	31.57
217.651	-60.59
217.869	-7.34
218.087	23.38
218.306	-15.53
218.524	-40.11
218.742	-29.87
218.96	21.33
219.179	-13.48
219.397	23.38
219.615	131.92
219.833	60.24
220.051	-17.58
220.27	150.36
220.488	21.33
220.706	9.05
220.924	31.57
221.142	4.95
221.36	-13.48
221.578	54.1
221.796	37.72
222.015	-15.53
222.233	-19.63
222.451	152.4
222.669	9.05
222.887	-27.82
223.105	-46.25
223.323	37.72
223.541	-11.43
223.759	52.05
223.977	21.33
224.195	66.39
224.413	-11.43
224.631	68.44
224.849	31.57
225.067	127.83
225.285	105.3
225.503	17.24
225.721	-91.31
225.939	54.1
226.157	-7.34
226.375	193.36
226.592	39.76
226.81	-52.39
227.028	23.38
227.246	140.12
227.464	47.96
227.682	76.63
227.9	47.96
228.117	70.48
228.335	54.1
228.553	50
228.771	95.06
228.989	17.24
229.206	29.52
229.424	-33.96
229.642	17.24
229.86	15.19
230.077	101.2
230.295	60.24
230.513	113.49
230.731	54.1
230.948	115.54
231.166	70.48
231.384	21.33
231.601	13.14
231.819	152.4
232.037	15.19
232.254	-79.02
232.472	13.14
232.689	21.33
232.907	60.24
233.125	72.53
233.342	131.92
233.56	95.06
233.777	21.33
233.995	37.72
234.213	54.1
234.43	86.87
234.648	17.24
234.865	27.48
235.083	80.72
235.3	39.76
235.518	-5.29
235.735	84.82
235.953	74.58
236.17	21.33
236.388	-9.39
236.605	19.29
236.822	7
237.04	64.34
237.257	68.44
237.475	-9.39
237.692	70.48
237.909	-21.67
238.127	-27.82
238.344	78.68
238.562	156.5
238.779	7
238.996	-1.19
239.214	-5.29
239.431	60.24
239.648	15.19
239.865	4.95
240.083	70.48
240.3	127.83
240.517	-1.19
240.735	70.48
240.952	58.2
241.169	84.82
241.386	37.72
241.603	70.48
241.821	-5.29
242.038	72.53
242.255	45.91
242.472	29.52
242.689	97.11
242.907	111.44
243.124	21.33
243.341	-7.34
243.558	-3.24
243.775	15.19
243.992	2.9
244.209	19.29
244.426	154.45
244.643	80.72
244.86	11.09
245.078	90.96
245.295	80.72
245.512	-52.39
245.729	-7.34
245.946	41.81
246.163	41.81
246.38	9.05
246.597	17.24
246.814	29.52
247.031	-23.72
247.248	72.53
247.464	74.58
247.681	-13.48
247.898	21.33
248.115	70.48
248.332	-50.35
248.549	64.34
248.766	60.24
248.983	103.25
249.2	54.1
249.417	31.57
249.633	21.33
249.85	117.59
250.067	31.57
250.284	4.95
250.501	37.72
250.717	50
250.934	13.14
251.151	23.38
251.368	21.33
251.585	31.57
251.801	25.43
252.018	-36.01
252.235	86.87
252.451	13.14
252.668	-31.91
252.885	62.29
253.102	-15.53
253.318	25.43
253.535	-33.96
253.752	27.48
253.968	-13.48
254.185	-15.53
254.401	58.2
254.618	54.1
254.835	54.1
255.051	123.73
255.268	60.24
255.484	43.86
255.701	19.29
255.917	105.3
256.134	-19.63
256.351	43.86
256.567	-11.43
256.784	-1.19
257	-3.24
257.217	109.4
257.433	70.48
257.65	109.4
257.866	166.74
258.082	-27.82
258.299	-11.43
258.515	97.11
258.732	66.39
258.948	4.95
259.165	76.63
259.381	15.19
259.597	62.29
259.814	13.14
260.03	-13.48
260.246	33.62
260.463	45.91
260.679	-5.29
260.895	7
261.112	52.05
261.328	21.33
261.544	93.01
261.761	168.79
261.977	27.48
262.193	41.81
262.409	50
262.626	43.86
262.842	62.29
263.058	7
263.274	107.35
263.49	31.57
263.707	4.95
263.923	86.87
264.139	15.19
264.355	62.29
264.571	90.96
264.787	19.29
265.004	88.92
265.22	-7.34
265.436	64.34
265.652	-36.01
265.868	29.52
266.084	103.25
266.3	-38.06
266.516	7
266.732	19.29
266.948	41.81
267.164	56.15
267.38	99.16
267.596	9.05
267.812	82.77
268.028	148.31
268.244	-31.91
268.46	-5.29
268.676	9.05
268.892	4.95
269.108	-21.67
269.324	35.67
269.54	13.14
269.756	41.81
269.972	-11.43
270.188	9.05
270.403	-23.72
270.619	21.33
270.835	-21.67
271.051	-52.39
271.267	9.05
271.483	29.52
271.698	50
271.914	45.91
272.13	90.96
272.346	78.68
272.562	60.24
272.777	119.64
272.993	47.96
273.209	64.34
273.425	0.85
273.64	4.95
273.856	37.72
274.072	-1.19
274.287	23.38
274.503	45.91
274.719	35.67
274.934	27.48
275.15	-7.34
275.366	47.96
275.581	-44.2
275.797	-17.58
276.012	93.01
276.228	15.19
276.444	109.4
276.659	88.92
276.875	31.57
277.09	62.29
277.306	-36.01
277.521	146.26
277.737	-1.19
277.952	2.9
278.168	37.72
278.383	21.33
278.599	52.05
278.814	115.54
279.03	23.38
279.245	80.72
279.461	13.14
279.676	41.81
279.892	11.09
280.107	-9.39
280.322	39.76
280.538	56.15
280.753	-31.91
280.969	52.05
281.184	35.67
281.399	80.72
281.615	52.05
281.83	60.24
282.045	-11.43
282.26	-48.3
282.476	50
282.691	107.35
282.906	56.15
283.122	70.48
283.337	-5.29
283.552	99.16
283.767	68.44
283.983	103.25
284.198	45.91
284.413	4.95
284.628	-19.63
284.843	29.52
285.058	74.58
285.274	62.29
285.489	0.85
285.704	4.95
285.919	50
286.134	70.48
286.349	54.1
286.564	-48.3
286.779	78.68
286.995	33.62
287.21	-105.64
287.425	-21.67
287.64	13.14
287.855	33.62
288.07	-23.72
288.285	52.05
288.5	54.1
288.715	93.01
288.93	25.43
289.145	-62.63
289.36	35.67
289.575	29.52
289.79	39.76
290.004	-36.01
290.219	21.33
290.434	25.43
290.649	-5.29
290.864	9.05
291.079	-58.54
291.294	13.14
291.509	47.96
291.724	99.16
291.938	21.33
292.153	54.1
292.368	11.09
292.583	78.68
292.798	76.63
293.012	39.76
293.227	119.64
293.442	37.72
293.657	7
293.871	113.49
294.086	31.57
294.301	113.49
294.516	76.63
294.73	41.81
294.945	-19.63
295.16	35.67
295.374	68.44
295.589	29.52
295.804	-17.58
296.018	25.43
296.233	62.29
296.447	23.38
296.662	60.24
296.877	82.77
297.091	54.1
297.306	29.52
297.52	-11.43
297.735	68.44
297.949	-66.73
298.164	90.96
298.378	-5.29
298.593	4.95
298.807	-7.34
299.022	107.35
299.236	109.4
299.451	2.9
299.665	35.67
299.88	37.72
300.094	66.39
300.309	58.2
300.523	13.14
300.737	62.29
300.952	15.19
301.166	41.81
301.381	2.9
301.595	37.72
301.809	7
302.024	-54.44
302.238	23.38
302.452	62.29
302.667	52.05
302.881	125.78
303.095	117.59
303.309	25.43
303.524	29.52
303.738	45.91
303.952	-29.87
304.166	52.05
304.381	21.33
304.595	62.29
304.809	-83.11
305.023	62.29
305.237	-19.63
305.452	21.33
305.666	31.57
305.88	60.24
306.094	70.48
306.308	21.33
306.522	56.15
306.736	93.01
306.95	19.29
307.164	13.14
307.379	-3.24
307.593	56.15
307.807	66.39
308.021	64.34
308.235	33.62
308.449	21.33
308.663	9.05
308.877	70.48
309.091	41.81
309.305	29.52
309.519	-76.97
309.733	64.34
309.947	-93.35
310.161	82.77
310.374	80.72
310.588	111.44
310.802	41.81
311.016	70.48
311.23	64.34
311.444	-5.29
311.658	17.24
311.872	43.86
312.085	58.2
312.299	123.73
312.513	76.63
312.727	31.57
312.941	9.05
313.154	-36.01
313.368	-29.87
313.582	103.25
313.796	52.05
314.009	54.1
314.223	21.33
314.437	54.1
314.651	119.64
314.864	0.85
315.078	-9.39
315.292	13.14
315.505	-7.34
315.719	2.9
315.933	-46.25
316.146	-31.91
316.36	-33.96
316.573	95.06
316.787	-11.43
317.001	60.24
317.214	15.19
317.428	70.48
317.641	37.72
317.855	62.29
318.068	64.34
318.282	60.24
318.495	54.1
318.709	-13.48
318.922	64.34
319.136	52.05
319.349	119.64
319.563	4.95
319.776	21.33
319.99	45.91
320.203	15.19
320.417	41.81
320.63	37.72
320.843	66.39
321.057	2.9
321.27	21.33
321.483	39.76
321.697	45.91
321.91	82.77
322.124	37.72
322.337	31.57
322.55	35.67
322.763	58.2
322.977	21.33
323.19	31.57
323.403	72.53
323.617	60.24
323.83	72.53
324.043	119.64
324.256	64.34
324.469	-42.15
324.683	17.24
324.896	-52.39
325.109	72.53
325.322	29.52
325.535	103.25
325.748	95.06
325.962	9.05
326.175	29.52
326.388	31.57
326.601	47.96
326.814	-5.29
327.027	64.34
327.24	47.96
327.453	-54.44
327.666	-31.91
327.879	93.01
328.092	95.06
328.305	70.48
328.518	-52.39
328.731	-9.39
328.944	58.2
329.157	29.52
329.37	21.33
329.583	162.64
329.796	95.06
330.009	25.43
330.222	21.33
330.435	95.06
330.648	78.68
330.861	39.76
331.073	78.68
331.286	111.44
331.499	13.14
331.712	15.19
331.925	29.52
332.138	-19.63
332.35	119.64
332.563	-46.25
332.776	-31.91
332.989	-13.48
333.202	123.73
333.414	27.48
333.627	50
333.84	21.33
334.053	-17.58
334.265	45.91
334.478	13.14
334.691	86.87
334.903	50
335.116	25.43
335.329	37.72
335.541	33.62
335.754	80.72
335.966	-70.83
336.179	17.24
336.392	4.95
336.604	15.19
336.817	72.53
337.029	62.29
337.242	47.96
337.454	111.44
337.667	21.33
337.88	101.2
338.092	58.2
338.305	76.63
338.517	15.19
338.729	95.06
338.942	54.1
339.154	29.52
339.367	-44.2
339.579	78.68
339.792	-46.25
340.004	86.87
340.217	-11.43
340.429	78.68
340.641	15.19
340.854	25.43
341.066	-21.67
341.278	37.72
341.491	86.87
341.703	-66.73
341.915	27.48
342.128	62.29
342.34	29.52
342.552	4.95
342.764	11.09
342.977	39.76
343.189	64.34
343.401	-9.39
343.613	9.05
343.826	29.52
344.038	-21.67
344.25	52.05
344.462	33.62
344.674	21.33
344.886	2.9
345.099	86.87
345.311	80.72
345.523	-9.39
345.735	50
345.947	97.11
346.159	35.67
346.371	35.67
346.583	17.24
346.795	78.68
347.007	-5.29
347.219	47.96
347.431	66.39
347.643	136.02
347.855	45.91
348.067	64.34
348.279	47.96
348.491	45.91
348.703	7
348.915	70.48
349.127	-11.43
349.339	41.81
349.551	-17.58
349.763	103.25
349.975	129.88
350.187	113.49
350.399	181.07
350.61	64.34
350.822	29.52
351.034	62.29
351.246	70.48
351.458	-5.29
351.669	62.29
351.881	62.29
352.093	168.79
352.305	99.16
352.517	-9.39
352.728	54.1
352.94	19.29
353.152	47.96
353.363	9.05
353.575	13.14
353.787	95.06
353.999	58.2
354.21	78.68
354.422	-33.96
354.633	15.19
354.845	33.62
355.057	-29.87
355.268	115.54
355.48	11.09
355.692	13.14
355.903	58.2
356.115	-29.87
356.326	7
356.538	33.62
356.749	103.25
356.961	105.3
357.172	21.33
357.384	-11.43
357.595	148.31
357.807	45.91
358.018	9.05
358.23	47.96
358.441	121.68
358.653	37.72
358.864	41.81
359.075	-15.53
359.287	45.91
359.498	90.96
359.709	29.52
359.921	76.63
360.132	-3.24
360.344	66.39
360.555	33.62
360.766	-27.82
360.977	-27.82
361.189	45.91
361.4	58.2
361.611	62.29
361.823	25.43
362.034	72.53
362.245	-25.77
362.456	78.68
362.667	33.62
362.879	31.57
363.09	25.43
363.301	25.43
363.512	58.2
363.723	64.34
363.935	68.44
364.146	162.64
364.357	21.33
364.568	43.86
364.779	-19.63
364.99	45.91
365.201	-31.91
365.412	68.44
365.623	-48.3
365.834	17.24
366.045	21.33
366.256	101.2
366.467	70.48
366.678	58.2
366.889	-25.77
367.1	74.58
367.311	109.4
367.522	45.91
367.733	70.48
367.944	45.91
368.155	31.57
368.366	25.43
368.577	54.1
368.788	56.15
368.999	62.29
369.209	166.74
369.42	150.36
369.631	113.49
369.842	25.43
370.053	27.48
370.264	113.49
370.474	62.29
370.685	95.06
370.896	45.91
371.107	90.96
371.317	0.85
371.528	-3.24
371.739	56.15
371.95	9.05
372.16	99.16
372.371	-52.39
372.582	58.2
372.792	80.72
373.003	21.33
373.214	9.05
373.424	68.44
373.635	-1.19
373.846	129.88
374.056	13.14
374.267	15.19
374.477	25.43
374.688	13.14
374.898	68.44
375.109	107.35
375.319	86.87
375.53	131.92
375.74	31.57
375.951	7
376.161	82.77
376.372	25.43
376.582	45.91
376.793	88.92
377.003	19.29
377.214	-38.06
377.424	47.96
377.635	21.33
377.845	58.2
378.055	47.96
378.266	17.24
378.476	97.11
378.686	74.58
378.897	-7.34
379.107	56.15
379.317	64.34
379.528	33.62
379.738	127.83
379.948	4.95
380.158	66.39
380.369	15.19
380.579	66.39
380.789	45.91
380.999	76.63
381.21	103.25
381.42	156.5
381.63	-27.82
381.84	115.54
382.05	64.34
382.261	66.39
382.471	66.39
382.681	-15.53
382.891	127.83
383.101	115.54
383.311	86.87
383.521	11.09
383.731	23.38
383.941	103.25
384.151	-15.53
384.361	31.57
384.571	43.86
384.781	86.87
384.991	152.4
385.201	78.68
385.411	86.87
385.621	13.14
385.831	74.58
386.041	70.48
386.251	113.49
386.461	109.4
386.671	62.29
386.881	27.48
387.091	72.53
387.301	58.2
387.511	119.64
387.72	50
387.93	125.78
388.14	-25.77
388.35	11.09
388.56	72.53
388.769	80.72
388.979	23.38
389.189	31.57
389.399	19.29
389.609	60.24
389.818	95.06
390.028	133.97
390.238	47.96
390.447	13.14
390.657	31.57
390.867	68.44
391.076	-27.82
391.286	107.35
391.496	70.48
391.705	45.91
391.915	111.44
392.125	136.02
392.334	88.92
392.544	129.88
392.753	78.68
392.963	-11.43
393.172	41.81
393.382	52.05
393.591	174.93
393.801	35.67
394.01	84.82
394.22	99.16
394.429	56.15
394.639	25.43
394.848	74.58
395.058	27.48
395.267	99.16
395.477	88.92
395.686	127.83
395.895	172.88
396.105	142.16
396.314	64.34
396.524	164.69
396.733	41.81
396.942	113.49
397.152	117.59
397.361	86.87
397.57	78.68
397.78	15.19
397.989	127.83
398.198	162.64
398.407	99.16
398.617	107.35
398.826	54.1
399.035	52.05
399.244	52.05
399.453	47.96
399.663	66.39
399.872	121.68
400.081	74.58
400.29	131.92
400.499	31.57
400.708	129.88
400.917	148.31
401.127	76.63
401.336	164.69
401.545	164.69
401.754	174.93
401.963	146.26
402.172	107.35
402.381	78.68
402.59	146.26
402.799	179.03
403.008	181.07
403.217	195.41
403.426	103.25
403.635	82.77
403.844	117.59
404.053	70.48
404.262	136.02
404.471	236.37
404.68	144.21
404.888	168.79
405.097	211.79
405.306	136.02
405.515	164.69
405.724	144.21
405.933	164.69
406.142	129.88
406.35	199.51
406.559	176.98
406.768	144.21
406.977	326.48
407.185	197.46
407.394	176.98
407.603	131.92
407.812	271.19
408.02	275.28
408.229	162.64
408.438	199.51
408.646	209.75
408.855	201.55
409.064	205.65
409.272	232.27
409.481	244.56
409.69	258.9
409.898	320.34
410.107	295.76
410.315	318.29
410.524	209.75
410.733	303.95
410.941	342.86
411.15	377.68
411.358	293.71
411.567	437.07
411.775	383.82
411.984	369.49
412.192	387.92
412.401	422.73
412.609	492.37
412.818	516.94
413.026	387.92
413.234	447.31
413.443	473.93
413.651	537.42
413.86	586.57
414.068	555.85
414.276	631.63
414.485	648.01
414.693	650.06
414.901	760.65
415.11	668.49
415.318	752.46
415.526	772.94
415.734	760.65
415.943	740.17
416.151	693.07
416.359	777.03
416.567	791.37
416.776	801.61
416.984	922.44
417.192	822.09
417.4	897.86
417.608	873.29
417.817	957.25
418.025	1078.08
418.233	1176.39
418.441	1078.08
418.649	1145.67
418.857	1190.72
419.065	1274.69
419.273	1223.49
419.481	1192.77
419.689	1291.07
419.897	1440.58
420.105	1530.69
420.313	1565.5
420.521	1489.73
420.729	1626.94
420.937	1569.6
421.145	1651.52
421.353	1850.17
421.561	1817.4
421.769	1925.94
421.977	1948.47
422.185	1872.7
422.393	2167.6
422.601	2159.41
422.809	2151.22
423.017	2315.06
423.224	2249.52
423.432	2222.9
423.64	2329.39
423.848	2560.81
424.056	2466.61
424.263	2753.32
424.471	2702.12
424.679	2773.8
424.887	2956.07
425.094	2945.83
425.302	2937.64
425.51	3021.61
425.718	3275.56
425.925	3289.89
426.133	3416.87
426.341	3715.87
426.548	3701.53
426.756	3715.87
426.964	3930.91
427.171	4029.21
427.379	4061.98
427.586	4240.15
427.794	4299.54
428.001	4561.68
428.209	4770.57
428.417	4637.45
428.624	5008.14
428.832	4899.59
429.039	4995.85
429.247	4889.35
429.454	5559.04
429.662	5853.95
429.869	5407.49
430.076	5792.51
430.284	5731.07
430.491	5829.37
430.699	6374.13
430.906	6136.57
431.114	6456.05
431.321	6546.16
431.528	6806.25
431.736	7138.02
431.943	7467.75
432.15	7295.72
432.358	7385.83
432.565	7789.28
432.772	7774.94
432.979	7957.21
433.187	8159.96
433.394	8110.81
433.601	8762.06
433.808	9056.97
434.016	8891.09
434.223	9114.31
434.43	9618.11
434.637	9654.98
434.844	10248.89
435.052	10183.35
435.259	10394.29
435.466	10347.19
435.673	10191.55
435.88	11111.08
436.087	11414.18
436.294	11690.66
436.501	11238.06
436.708	11449
436.915	11723.43
437.122	12415.64
437.329	12096.16
437.537	12939.92
437.743	12886.67
437.95	13011.6
438.157	13623.94
438.364	13914.75
438.571	13791.87
438.778	14211.71
438.985	15399.53
439.192	14711.41
439.399	15188.59
439.606	14871.15
439.813	15899.23
440.02	17023.57
440.227	16413.27
440.433	16368.22
440.64	16972.37
440.847	16947.79
441.054	17201.74
441.261	18270.78
441.467	17990.21
441.674	18393.66
441.881	19028.53
442.088	18819.64
442.294	18819.64
442.501	19153.46
442.708	19698.22
442.914	20351.52
443.121	21565.96
443.328	20640.28
443.534	22233.6
443.741	21715.47
443.948	21367.31
444.154	22977.01
444.361	22852.09
444.568	22897.14
444.774	23001.59
444.981	23288.31
445.187	24007.14
445.394	24992.22
445.6	24959.45
445.807	26900.92
446.013	25874.89
446.22	26087.88
446.426	27279.8
446.633	27568.56
446.839	28527.01
447.046	27525.55
447.252	29106.59
447.459	28850.59
447.665	28746.14
447.871	30230.92
448.078	31596.92
448.284	30030.22
448.491	30585.22
448.697	31965.55
448.903	32651.62
449.11	32674.15
449.316	32002.41
449.522	32842.08
449.728	33517.91
449.935	33915.22
450.141	33941.84
450.347	34732.36
450.553	33487.19
450.76	34150.73
450.966	35309.88
451.172	34738.5
451.378	35746.1
451.584	34982.21
451.791	36155.69
451.997	36106.54
452.203	36712.74
452.409	36665.64
452.615	36243.76
452.821	34834.75
453.027	34683.2
453.233	36866.34
453.44	35187
453.646	35993.9
453.852	35813.68
454.058	36690.21
454.264	34965.82
454.47	35948.85
454.676	34976.06
454.882	36028.72
455.088	33163.61
455.294	33632.6
455.5	34224.46
455.705	34865.47
455.911	33153.37
456.117	32635.24
456.323	32106.86
456.529	30431.62
456.735	31564.15
456.941	31138.17
457.147	30714.24
457.352	29911.44
457.558	29581.71
457.764	29458.84
457.97	28995.99
458.176	28170.66
458.381	28168.62
458.587	27079.1
458.793	26808.76
458.999	25565.65
459.204	27066.81
459.41	26638.78
459.616	24674.78
459.821	24771.04
460.027	24584.67
460.233	24046.05
460.438	23198.2
460.644	23405.04
460.85	22448.64
461.055	22014.47
461.261	21606.92
461.466	20118.05
461.672	19421.74
461.878	20970.01
462.083	19827.24
462.289	19225.14
462.494	18919.99
462.7	18307.65
462.905	17570.38
463.111	18340.41
463.316	18475.58
463.522	17881.67
463.727	18022.98
463.932	18160.19
464.138	17523.27
464.343	17592.9
464.549	17173.07
464.754	17812.04
464.959	17566.28
465.165	17680.97
465.37	16767.57
465.575	16339.55
465.781	17050.19
465.986	16886.36
466.191	16530.01
466.397	16372.32
466.602	15364.71
466.807	16050.78
467.012	16013.92
467.218	15952.48
467.423	15546.98
467.628	15796.84
467.833	16515.67
468.038	15901.28
468.244	15420.01
468.449	15880.8
468.654	15340.14
468.859	15174.25
469.064	15467.11
469.269	14785.14
469.474	14901.87
469.679	14989.94
469.885	14447.22
470.09	14770.8
470.295	14762.61
470.5	14383.74
470.705	14537.34
470.91	14195.32
471.115	14164.61
471.32	14162.56
471.525	14201.47
471.73	14160.51
471.935	13677.19
472.139	13243.02
472.344	13429.38
472.549	13357.71
472.754	13468.3
472.959	13066.89
473.164	12872.34
473.369	12712.6
473.574	13171.34
473.778	12698.26
473.983	12546.71
474.188	12685.97
474.393	12145.31
474.598	12180.12
474.802	12198.56
475.007	12114.59
475.212	12055.2
475.417	11586.21
475.621	11836.06
475.826	11588.26
476.031	11500.2
476.235	11170.47
476.44	11274.92
476.645	11279.02
476.849	11096.75
477.054	10777.26
477.259	10670.77
477.463	10771.12
477.668	10429.11
477.872	10736.31
478.077	10400.44
478.282	10457.78
478.486	10117.82
478.691	10060.48
478.895	9958.08
479.1	10005.18
479.304	10222.27
479.509	9894.59
479.713	10005.18
479.918	9497.28
480.122	9452.23
480.326	9773.76
480.531	9689.79
480.735	9548.48
480.94	9468.61
481.144	9607.87
481.348	9292.49
481.553	9417.41
481.757	9030.35
481.961	9362.12
482.166	9370.31
482.37	9355.97
482.574	9104.07
482.778	9337.54
482.983	9558.72
483.187	9233.1
483.391	9339.59
483.595	9161.42
483.8	9304.78
484.004	9138.89
484.208	9472.71
484.412	9212.62
484.616	9282.25
484.821	9140.94
485.025	9130.7
485.229	9220.81
485.433	9312.97
485.637	9315.02
485.841	9196.23
486.045	9095.88
486.249	9177.8
486.453	9294.54
486.657	9269.96
486.861	9298.63
487.065	9112.27
487.269	9249.48
487.473	9097.93
487.677	9122.51
487.881	9265.86
488.085	9005.77
488.289	9323.21
488.493	9272.01
488.697	9487.04
488.901	9259.72
489.105	9286.34
489.309	9274.06
489.512	9257.67
489.716	9231.05
489.92	9204.42
490.124	9202.38
490.328	9564.87
490.531	9401.03
490.735	9405.13
490.939	9564.87
491.143	9343.69
491.346	9368.26
491.55	9581.25
491.754	9597.63
491.958	9695.94
492.161	9689.79
492.365	9843.39
492.569	9591.49
492.772	9718.47
492.976	9753.28
493.18	9775.81
493.383	9994.94
493.587	10015.42
493.79	10031.8
493.994	9927.36
494.197	10236.6
494.401	10369.72
494.605	10134.2
494.808	10414.77
495.012	10271.42
495.215	10539.7
495.419	10480.31
495.622	10474.17
495.825	10719.92
496.029	10627.76
496.232	11012.78
496.436	10971.82
496.639	11170.47
496.843	10789.55
497.046	11410.09
497.249	11416.23
497.453	11494.05
497.656	11539.11
497.859	11328.17
498.063	11684.52
498.266	11631.27
498.469	11823.78
498.673	12036.77
498.876	12120.73
499.079	12161.69
499.282	12307.1
499.485	12679.83
499.689	12542.61
499.892	12933.78
500.095	12958.35
500.298	13118.09
500.501	12853.91
500.705	13335.18
500.908	13736.58
501.111	13669
501.314	13767.3
501.517	13849.22
501.72	13884.03
501.923	14103.17
502.126	14492.28
502.329	14654.07
502.532	14856.82
502.735	14717.56
502.938	15188.59
503.141	15168.11
503.344	15323.76
503.547	15557.22
503.75	15516.26
503.953	15745.64
504.156	16007.78
504.359	15938.15
504.562	16087.65
504.765	16413.27
504.968	16788.05
505.17	16976.47
505.373	16755.29
505.576	17226.32
505.779	17402.44
505.982	17537.61
506.185	18014.79
506.387	17965.64
506.59	17853
506.793	18401.85
506.996	18176.58
507.198	19067.44
507.401	18723.38
507.604	18889.27
507.807	19153.46
508.009	19442.22
508.212	19632.68
508.415	19874.34
508.617	20208.16
508.82	20165.15
509.022	20144.67
509.225	20634.14
509.428	20539.93
509.63	20646.43
509.833	20843.03
510.035	21383.7
510.238	21232.15
510.44	21598.73
510.643	22020.61
510.845	22098.44
511.048	21916.17
511.25	22434.3
511.453	22290.95
511.655	23357.94
511.858	23228.91
512.06	23142.9
512.262	23147
512.465	23644.65
512.667	23636.46
512.87	23824.87
513.072	24103.4
513.274	24566.24
513.477	24408.54
513.679	25113.05
513.881	25352.66
514.084	25633.23
514.286	25532.88
514.488	25852.36
514.69	26089.93
514.893	26311.11
515.095	26485.19
515.297	26964.41
515.499	26810.81
515.701	27431.35
515.904	27568.56
516.106	27802.03
516.308	27890.09
516.51	28193.19
516.712	28690.85
516.914	29024.67
517.116	29090.2
517.318	29057.43
517.52	29073.82
517.722	29567.38
517.925	29884.81
518.127	30267.78
518.329	30372.23
518.531	30435.72
518.733	31236.47
518.935	31111.55
519.136	31318.39
519.338	31631.73
519.54	31859.06
519.742	31857.01
519.944	32395.62
520.146	32588.13
520.348	32895.33
520.55	32997.73
520.752	33440.09
520.954	34046.29
521.155	33468.76
521.357	34066.77
521.559	34371.91
521.761	34842.95
521.963	34527.56
522.164	34888
522.366	34881.86
522.568	35295.55
522.77	35461.43
522.971	35717.43
523.173	35860.79
523.375	36327.72
523.576	36364.59
523.778	36409.64
523.98	36890.91
524.181	36782.37
524.383	36794.66
524.584	37421.34
524.786	37562.65
524.988	37552.41
525.189	38035.73
525.391	38457.61
525.592	38668.55
525.794	38365.45
525.995	38570.25
526.197	38662.41
526.398	38809.86
526.6	39135.49
526.801	39319.81
527.003	39377.15
527.204	39483.64
527.406	39782.65
527.607	39819.51
527.808	39727.35
528.01	39610.62
528.211	40175.86
528.412	40763.62
528.614	40366.32
528.815	40366.32
529.016	41236.7
529.218	40489.2
529.419	41455.84
529.62	41099.49
529.822	40956.13
530.023	40677.61
530.224	40915.17
530.425	41169.12
530.626	40720.62
530.828	40673.51
531.029	42045.65
531.23	41494.75
531.431	41461.98
531.632	41785.56
531.833	41783.51
532.035	41814.23
532.236	42064.08
532.437	41996.5
532.638	41959.64
532.839	42006.74
533.04	42002.64
533.241	41337.05
533.442	42199.25
533.643	42330.32
533.844	42100.95
534.045	42406.09
534.246	41998.55
534.447	42799.3
534.648	41765.08
534.849	42166.48
535.05	41789.66
535.251	42242.26
535.451	41965.78
535.652	42537.16
535.853	42232.02
536.054	42393.81
536.255	42383.57
536.456	42211.54
536.657	42686.67
536.857	42205.39
537.058	42289.36
537.259	42629.32
537.46	42561.74
537.66	42389.71
537.861	42358.99
538.062	42352.85
538.263	42442.96
538.463	41894.1
538.664	42102.99
538.865	42664.14
539.065	42934.47
539.266	42080.47
539.466	42811.59
539.667	42160.34
539.868	42780.87
540.068	42483.92
540.269	42113.23
540.469	42404.05
540.67	42172.63
540.87	42375.37
541.071	42399.95
541.271	42614.99
541.472	42268.88
541.672	42211.54
541.873	41853.14
542.073	41611.48
542.274	42479.82
542.474	42358.99
542.675	42164.43
542.875	42402
543.075	42307.79
543.276	41644.25
543.476	42438.86
543.676	42121.43
543.877	42195.15
544.077	42279.12
544.277	41537.76
544.478	42236.11
544.678	42283.22
544.878	42178.77
545.078	42244.3
545.279	42094.8
545.479	42010.84
545.679	42199.25
545.879	42461.39
546.079	42258.64
546.28	42225.87
546.48	42014.93
546.68	42340.56
546.88	42084.56
547.08	41769.18
547.28	41705.69
547.48	41513.18
547.68	41939.16
547.88	41812.18
548.081	42100.95
548.281	42291.41
548.481	41566.43
548.681	41820.38
548.881	41947.35
549.081	41799.9
549.28	41697.5
549.48	42066.13
549.68	41666.78
549.88	42275.02
550.08	41599.19
550.28	41593.05
550.48	41695.45
550.68	42258.64
550.88	41380.06
551.08	41744.6
551.279	41894.1
551.479	41248.99
551.679	41787.61
551.879	41453.79
552.079	41316.57
552.278	41539.8
552.478	41820.38
552.678	41722.07
552.878	41656.54
553.077	41828.57
553.277	41347.29
553.477	41879.77
553.676	41406.69
553.876	41593.05
554.076	41187.55
554.275	41234.66
554.475	40931.56
554.674	41382.11
554.874	41072.87
555.074	41201.89
555.273	41236.7
555.473	41744.6
555.672	41021.67
555.872	40712.42
556.071	41160.93
556.271	41513.18
556.47	41308.38
556.67	40796.39
556.869	40990.95
557.068	40708.33
557.268	40870.12
557.467	40704.23
557.667	40753.38
557.866	40782.06
558.065	40419.56
558.265	40376.56
558.464	40591.59
558.663	40677.61
558.863	40034.55
559.062	40929.51
559.261	40050.93
559.461	40378.61
559.66	39610.62
559.859	40102.13
560.058	39389.44
560.258	39983.35
560.457	39657.72
560.656	40196.34
560.855	39829.75
561.054	39729.4
561.253	39436.54
561.453	40030.45
561.652	39565.56
561.851	39614.71
562.05	39485.69
562.249	38988.03
562.448	39704.82
562.647	39497.98
562.846	39348.48
563.045	38908.16
563.244	38871.3
563.443	39495.93
563.642	38836.48
563.841	38781.19
564.04	38824.2
564.239	38867.2
564.438	38371.6
564.637	38519.05
564.836	38809.86
565.035	38435.08
565.234	38238.48
565.432	38093.07
565.631	37972.24
565.83	38420.75
566.029	37927.19
566.228	37572.89
566.427	37761.3
566.625	37724.44
566.824	37507.35
567.023	37769.49
567.222	37153.05
567.42	37744.92
567.619	37081.38
567.818	37355.8
568.016	37052.7
568.215	37427.48
568.414	36667.69
568.612	37171.49
568.811	36843.81
569.01	37036.32
569.208	36546.86
569.407	36819.24
569.605	36362.54
569.804	36950.31
570.002	36387.11
570.201	36620.58
570.4	36024.62
570.598	36301.1
570.797	35957.04
570.995	36110.64
571.193	35373.37
571.392	36049.2
571.59	35393.85
571.789	35655.99
571.987	35647.8
572.186	35582.26
572.384	35201.34
572.582	35502.39
572.781	35230.01
572.979	34668.87
573.177	35301.69
573.376	35443
573.574	34615.62
573.772	34873.67
573.971	34580.81
574.169	34961.73
574.367	34265.42
574.565	34384.2
574.763	34425.16
574.962	34480.46
575.16	33900.88
575.358	34373.96
575.556	33734.99
575.754	34171.21
575.952	33661.27
576.151	34093.39
576.349	33747.28
576.547	33505.62
576.745	33616.21
576.943	33548.63
577.141	33354.07
577.339	33665.36
577.537	33175.9
577.735	33282.39
577.933	32977.25
578.131	33046.88
578.329	33323.35
578.527	32776.55
578.725	33110.36
578.923	32590.18
579.121	32557.41
579.319	32575.84
579.516	32311.66
579.714	32563.56
579.912	32207.21
580.11	31693.17
580.308	32078.19
580.506	32162.15
580.704	31484.28
580.901	31922.54
581.099	32006.51
581.297	31752.56
581.495	31170.94
581.692	31877.49
581.89	31408.5
582.088	31680.88
582.285	31250.81
582.483	30919.04
582.681	31330.68
582.878	31089.02
583.076	30665.09
583.274	31144.31
583.471	30626.18
583.669	30962.04
583.866	30699.9
584.064	30851.45
584.262	30390.66
584.459	30615.94
584.657	30218.63
584.854	30394.76
585.052	30032.27
585.249	30026.12
585.447	30314.89
585.644	30007.69
585.841	30237.06
586.039	30017.93
586.236	29643.15
586.434	29587.86
586.631	29258.13
586.828	29565.33
587.026	29522.32
587.223	29458.84
587.42	29276.57
587.618	29409.68
587.815	28688.8
588.012	28928.41
588.21	28828.06
588.407	28842.4
588.604	28899.74
588.801	28813.73
588.999	28422.56
589.196	28561.83
589.393	28522.91
589.59	28469.67
589.787	28295.59
589.984	28113.32
590.182	28094.89
590.379	28232.1
590.576	27922.86
590.773	28025.26
590.97	27593.14
591.167	27994.54
591.364	27556.27
591.561	27670.96
591.758	27593.14
591.955	27331
592.152	27396.53
592.349	27369.91
592.546	27242.93
592.743	27361.72
592.94	26595.78
593.137	27027.9
593.334	27062.71
593.531	26909.11
593.727	26876.35
593.924	26835.39
594.121	26491.33
594.318	26337.73
594.515	26337.73
594.712	26771.9
594.908	26470.85
595.105	26321.35
595.302	25907.66
595.499	26137.03
595.696	26001.86
595.892	25758.16
596.089	25932.23
596.286	25891.27
596.482	25588.17
596.679	25768.4
596.876	25680.33
597.072	25348.56
597.269	25698.77
597.466	25242.07
597.662	25448.91
597.859	24945.11
598.055	25233.88
598.252	24943.06
598.448	24916.44
598.645	24750.56
598.841	24887.77
599.038	24904.15
599.234	25055.7
599.431	24314.34
599.627	24508.9
599.824	24560.09
600.02	24312.29
600.217	24416.74
600.413	24201.7
600.609	23904.74
600.806	24177.12
601.002	24027.62
601.198	23767.53
601.395	23615.98
601.591	23812.59
601.787	23927.27
601.984	23413.23
602.18	23806.44
602.376	23527.92
602.572	23548.4
602.769	23359.98
602.965	22989.3
603.161	23245.3
603.357	23048.69
603.553	23065.08
603.75	23108.08
603.946	22870.52
604.142	22684.16
604.338	22608.38
604.534	22743.55
604.73	22567.42
604.926	22649.34
605.122	22481.41
605.318	22581.76
605.514	22766.07
605.71	22217.22
605.906	22204.93
606.102	22452.73
606.298	22376.96
606.494	22155.78
606.69	22043.14
606.886	21965.32
607.082	22041.09
607.278	22022.66
607.474	21555.72
607.67	21713.42
607.866	21475.85
608.062	21834.25
608.257	21750.28
608.453	21830.15
608.649	21647.88
608.845	21631.5
609.041	21426.7
609.236	21627.4
609.432	21510.67
609.628	21273.1
609.824	21146.13
610.019	21189.14
610.215	20877.85
610.411	21029.4
610.606	21152.27
610.802	21115.41
610.998	21029.4
611.193	21211.67
611.389	20865.56
611.584	20734.49
611.78	20566.56
611.976	20726.3
612.171	20818.46
612.367	20550.17
612.562	20693.53
612.758	20447.77
612.953	20372
613.149	20625.95
613.344	20580.89
613.539	20640.28
613.735	20306.46
613.93	20451.87
614.126	20087.33
614.321	20382.24
614.517	20462.11
614.712	20349.47
614.907	20054.56
615.103	20025.89
615.298	19864.1
615.493	20140.58
615.688	19839.53
615.884	20105.76
616.079	19673.64
616.274	19825.19
616.47	19802.66
616.665	19839.53
616.86	19382.83
617.055	19642.92
617.25	19546.67
617.445	19991.08
617.641	19341.87
617.836	19698.22
618.031	19092.02
618.226	19679.79
618.421	19309.1
618.616	19223.09
618.811	19042.87
619.006	19345.97
619.201	18876.98
619.396	19155.51
619.591	18793.01
619.786	18963
619.981	18815.54
620.176	18833.97
620.371	18723.38
620.566	18655.8
620.761	18498.11
620.956	18457.15
621.151	18182.72
621.346	18375.23
621.541	18084.42
621.735	18379.32
621.93	17709.64
622.125	17998.4
622.32	17613.38
622.515	17996.35
622.709	17619.53
622.904	17803.85
623.099	17541.71
623.294	17445.45
623.488	17232.46
623.683	17564.23
623.878	17117.78
624.072	17031.76
624.267	17142.35
624.462	16751.19
624.656	16626.26
624.851	16857.68
625.046	16761.43
625.24	16917.08
625.435	16652.89
625.629	16560.73
625.824	16441.95
626.018	16063.07
626.213	15970.91
626.407	16112.22
626.602	15753.83
626.796	16128.61
626.991	15708.77
627.185	15667.81
627.38	15782.5
627.574	15350.38
627.768	15348.33
627.963	15299.18
628.157	15221.36
628.352	15176.3
628.546	15032.94
628.74	15141.49
628.935	15184.49
629.129	14871.15
629.323	14822
629.517	14856.82
629.712	14559.86
629.906	14617.21
630.1	14465.66
630.294	14619.25
630.489	14523
630.683	14211.71
630.877	14142.08
631.071	14109.31
631.265	13869.7
631.459	13972.1
631.653	13869.7
631.848	13892.23
632.042	13677.19
632.236	13771.4
632.43	13757.06
632.624	13843.07
632.818	13400.71
633.012	13382.28
633.206	13572.74
633.4	13413
633.594	13208.2
633.788	12982.93
633.982	13331.08
634.176	13073.04
634.369	13085.33
634.563	12704.4
634.757	12763.79
634.951	12962.45
635.145	12948.11
635.339	12745.36
635.533	12591.77
635.726	12421.78
635.92	12350.1
636.114	12448.41
636.308	12343.96
636.501	12464.79
636.695	12178.08
636.889	12032.67
637.083	12171.93
637.276	11809.44
637.47	11973.28
637.664	11885.22
637.857	11788.96
638.051	11872.93
638.244	11635.36
638.438	11786.91
638.632	11727.52
638.825	11524.77
639.019	11504.29
639.212	11367.08
639.406	11291.31
639.599	11178.67
639.793	11260.59
639.986	11076.27
640.18	11127.47
640.373	11172.52
640.567	10943.15
640.76	10867.38
640.954	10781.36
641.147	10646.19
641.34	10638
641.534	10787.5
641.727	10703.54
641.92	10681.01
642.114	10425.01
642.307	10697.39
642.5	10422.97
642.694	10152.63
642.887	10156.73
643.08	10355.38
643.273	10117.82
643.467	10175.16
643.66	10095.29
643.853	9990.84
644.046	9845.44
644.239	10056.38
644.432	9788.1
644.626	9974.46
644.819	9802.43
645.012	9880.25
645.205	9771.71
645.398	9618.11
645.591	9624.26
645.784	9595.59
645.977	9327.3
646.17	9583.3
646.363	9384.65
646.556	9235.14
646.749	9169.61
646.942	9294.54
647.135	9206.47
647.328	9059.02
647.521	9200.33
647.714	8944.33
647.907	8876.75
648.099	8956.62
648.292	9036.49
648.485	8901.33
648.678	8774.35
648.871	8676.05
649.064	8569.55
649.256	8635.09
649.449	8510.16
649.642	8633.04
649.835	8518.36
650.027	8313.56
650.22	8653.52
650.413	8358.61
650.605	8299.22
650.798	8307.41
650.991	8436.44
651.183	8288.98
651.376	8227.54
651.568	8327.89
651.761	8159.96
651.954	8000.22
652.146	8047.32
652.339	8194.78
652.531	8028.89
652.724	8090.33
652.916	7881.44
653.109	7879.39
653.301	7914.2
653.494	7813.85
653.686	7639.78
653.879	7846.62
654.071	7776.99
654.263	7738.08
654.456	7672.54
654.648	7516.9
654.84	7303.91
655.033	7344.87
655.225	7557.86
655.417	7285.48
655.61	7533.28
655.802	7363.3
655.994	7348.97
656.186	7379.68
656.379	7330.53
656.571	7279.33
656.763	7181.03
656.955	7201.51
657.148	7156.46
657.34	7103.21
657.532	6929.13
657.724	7009
657.916	6886.12
658.108	6814.45
658.3	6839.02
658.492	6937.32
658.684	6648.56
658.876	6804.21
659.068	6804.21
659.26	6548.21
659.452	6736.62
659.644	6730.48
659.836	6677.23
660.028	6603.5
660.22	6386.42
660.412	6413.04
660.604	6476.53
660.796	6378.23
660.988	6494.96
661.18	6425.33
661.372	6486.77
661.563	6466.29
661.755	6243.06
661.947	6281.97
662.139	6312.69
662.331	6208.25
662.522	6189.81
662.714	5982.97
662.906	6142.71
663.097	6284.02
663.289	5911.29
663.481	6017.79
663.673	5915.39
663.864	5970.68
664.056	6062.84
664.247	5866.24
664.439	5982.97
664.631	5950.2
664.822	5954.3
665.014	5810.94
665.205	5784.32
665.397	5544.7
665.588	5765.89
665.78	5815.04
665.971	5628.67
666.163	5735.17
666.354	5774.08
666.546	5624.58
666.737	5640.96
666.929	5524.23
667.12	5526.27
667.311	5516.03
667.503	5479.17
667.694	5473.03
667.885	5413.63
668.077	5520.13
668.268	5370.63
668.459	5569.28
668.651	5427.97
668.842	5452.55
669.033	5315.33
669.224	5174.02
669.416	5413.63
669.607	5247.75
669.798	5116.68
669.989	5288.71
670.18	5321.48
670.371	5321.48
670.563	5137.16
670.754	5229.32
670.945	5147.4
671.136	5194.5
671.327	5151.49
671.518	5229.32
671.709	5192.45
671.9	5182.21
672.091	5151.49
672.282	5096.2
672.473	5036.81
672.664	5196.55
672.855	5042.95
673.046	5120.78
673.237	5126.92
673.428	5042.95
673.619	5073.67
673.809	5024.52
674	4944.65
674.191	4881.16
674.382	4979.47
674.573	4903.69
674.764	5065.48
674.954	5128.97
675.145	4944.65
675.336	4889.35
675.527	4803.34
675.717	4979.47
675.908	4928.27
676.099	4879.11
676.289	4971.27
676.48	4657.93
676.671	5042.95
676.861	4956.94
677.052	4883.21
677.243	4694.8
677.433	4809.48
677.624	4879.11
677.814	4786.96
678.005	4684.56
678.195	4885.26
678.386	4776.72
678.576	4838.16
678.767	4526.86
678.957	4731.66
679.148	4707.09
679.338	4748.04
679.529	4789
679.719	4772.62
679.909	4918.03
680.1	4795.15
680.29	4657.93
680.481	4633.36
680.671	4707.09
680.861	4752.14
681.052	4539.15
681.242	4602.64
681.432	4901.64
681.622	4635.41
681.813	4610.83
682.003	4485.9
682.193	4711.18
682.383	4733.71
682.573	4727.57
682.764	4647.69
682.954	4741.9
683.144	4713.23
683.334	4670.22
683.524	4616.97
683.714	4551.44
683.904	4594.45
684.094	4653.84
684.284	4651.79
684.474	4645.65
684.664	4659.98
684.854	4631.31
685.044	4582.16
685.234	4477.71
685.424	4594.45
685.614	4467.47
685.804	4424.47
685.994	4594.45
686.184	4518.67
686.374	4375.31
686.564	4397.84
686.753	4322.07
686.943	4283.16
687.133	4358.93
687.323	4191
687.513	4455.19
687.702	4340.5
687.892	4197.14
688.082	4268.82
688.272	4348.69
688.461	4330.26
688.651	4371.22
688.841	4199.19
689.03	4291.35
689.22	4156.18
689.41	4197.14
689.599	4137.75
689.789	4104.98
689.979	4168.47
690.168	4109.08
690.358	3916.57
690.547	4072.22
690.737	4029.21
690.926	4016.92
691.116	3894.04
691.305	4057.88
691.495	3945.24
691.684	4010.78
691.874	3877.66
692.063	3920.67
692.252	3941.15
692.442	3805.98
692.631	3914.52
692.82	3863.32
693.01	3746.59
693.199	3744.54
693.388	3572.51
693.578	3674.91
693.767	3711.77
693.956	3744.54
694.146	3689.25
694.335	3603.23
694.524	3758.88
694.713	3681.05
694.902	3670.81
695.092	3668.77
695.281	3482.4
695.47	3715.87
695.659	3701.53
695.848	3480.35
696.037	3586.85
696.226	3717.92
696.415	3500.83
696.604	3654.43
696.793	3537.7
696.982	3517.22
697.171	3638.05
697.36	3504.93
697.549	3525.41
697.738	3572.51
697.927	3412.77
698.116	3521.31
698.305	3410.72
698.494	3433.25
698.683	3461.92
698.872	3400.48
699.061	3420.96
699.25	3363.62
699.438	3494.69
699.627	3470.11
699.816	3312.42
700.005	3318.56
700.193	3332.9
700.382	3547.94
700.571	3412.77
700.76	3361.57
700.948	3406.63
701.137	3427.11
701.326	3592.99
701.514	3298.08
701.703	3463.97
701.892	3513.12
702.08	3611.42
702.269	3439.39
702.457	3359.52
702.646	3382.05
702.834	3412.77
703.023	3404.58
703.212	3437.34
703.4	3412.77
703.589	3394.34
703.777	3498.78
703.965	3341.09
704.154	3377.95
704.342	3287.84
704.531	3404.58
704.719	3314.47
704.907	3484.45
705.096	3322.66
705.284	3443.49
705.472	3431.2
705.661	3463.97
705.849	3406.63
706.037	3308.32
706.226	3513.12
706.414	3562.27
706.602	3349.28
706.79	3388.19
706.979	3353.38
707.167	3445.54
707.355	3353.38
707.543	3441.44
707.731	3502.88
707.919	3545.89
708.107	3384.1
708.296	3412.77
708.484	3443.49
708.672	3355.43
708.86	3396.39
709.048	3463.97
709.236	3447.58
709.424	3455.78
709.612	3334.95
709.8	3506.98
709.988	3484.45
710.176	3429.15
710.364	3486.5
710.551	3527.46
710.739	3474.21
710.927	3433.25
711.115	3396.39
711.303	3504.93
711.491	3484.45
711.679	3496.74
711.866	3629.85
712.054	3545.89
712.242	3461.92
712.43	3531.55
712.617	3504.93
712.805	3619.61
712.993	3392.29
713.181	3322.66
713.368	3511.07
713.556	3361.57
713.744	3425.06
713.931	3613.47
714.119	3547.94
714.306	3447.58
714.494	3617.57
714.682	3523.36
714.869	3568.41
715.057	3570.46
715.244	3537.7
715.432	3605.28
715.619	3584.8
715.807	3703.58
715.994	3480.35
716.182	3504.93
716.369	3638.05
716.556	3572.51
716.744	3535.65
716.931	3646.24
717.119	3564.32
717.306	3445.54
717.493	3525.41
717.681	3629.85
717.868	3767.07
718.055	3662.62
718.242	3515.17
718.43	3574.56
718.617	3595.04
718.804	3611.42
718.991	3607.33
719.179	3724.06
719.366	3701.53
719.553	3592.99
719.74	3797.79
719.927	3697.44
720.114	3711.77
720.301	3648.29
720.488	3574.56
720.676	3578.65
720.863	3644.19
721.05	3697.44
721.237	3740.44
721.424	3672.86
721.611	3691.29
721.798	3627.81
721.985	3453.73
722.172	3699.48
722.358	3627.81
722.545	3742.49
722.732	3595.04
722.919	3785.5
723.106	3734.3
723.293	3693.34
723.48	3656.48
723.667	3654.43
723.853	3638.05
724.04	3846.94
724.227	3638.05
724.414	3709.72
724.6	3795.74
724.787	3726.11
724.974	3826.46
725.161	3769.12
725.347	3615.52
725.534	3803.93
725.72	3765.02
725.907	3736.35
726.094	3900.19
726.28	3576.61
726.467	3650.33
726.653	3693.34
726.84	3705.63
727.027	3918.62
727.213	3691.29
727.4	3734.3
727.586	3816.22
727.773	3760.92
727.959	3758.88
728.145	3750.68
728.332	3734.3
728.518	3689.25
728.705	3775.26
728.891	3715.87
729.077	3717.92
729.264	3846.94
729.45	3640.09
729.636	3779.36
729.823	3859.23
730.009	3732.25
730.195	3771.16
730.382	3699.48
730.568	3699.48
730.754	3793.69
730.94	3799.84
731.126	3750.68
731.313	3748.64
731.499	3848.99
731.685	3660.57
731.871	3797.79
732.057	3685.15
732.243	3828.51
732.429	3783.45
732.615	3861.27
732.801	3697.44
732.987	3926.81
733.173	3672.86
733.359	3758.88
733.545	3742.49
733.731	3709.72
733.917	3904.28
734.103	3867.42
734.289	3832.6
734.475	3756.83
734.661	3894.04
734.847	3896.09
735.033	3681.05
735.219	3699.48
735.404	3713.82
735.59	3740.44
735.776	3879.71
735.962	3832.6
736.148	3863.32
736.333	3937.05
736.519	3746.59
736.705	3703.58
736.89	3722.01
737.076	3617.57
737.262	3717.92
737.447	3728.16
737.633	3722.01
737.819	3699.48
738.004	3685.15
738.19	3732.25
738.375	3519.26
738.561	3750.68
738.747	3636
738.932	3631.9
739.118	3789.6
739.303	3621.66
739.489	3650.33
739.674	3629.85
739.859	3683.1
740.045	3685.15
740.23	3640.09
740.416	3545.89
740.601	3609.37
740.786	3601.18
740.972	3535.65
741.157	3515.17
741.342	3486.5
741.528	3722.01
741.713	3617.57
741.898	3490.59
742.084	3545.89
742.269	3457.82
742.454	3445.54
742.639	3474.21
742.824	3476.26
743.01	3535.65
743.195	3574.56
743.38	3480.35
743.565	3443.49
743.75	3406.63
743.935	3519.26
744.12	3447.58
744.305	3336.99
744.49	3373.86
744.675	3343.14
744.86	3371.81
745.045	3326.75
745.23	3230.5
745.415	3300.13
745.6	3226.4
745.785	3232.55
745.97	3267.36
746.155	3214.12
746.34	3332.9
746.525	3265.32
746.71	3248.93
746.895	3134.25
747.079	3095.33
747.264	2976.55
747.449	3130.15
747.634	3070.76
747.819	3117.86
748.003	3019.56
748.188	3019.56
748.373	3089.19
748.557	2994.98
748.742	2915.11
748.927	2917.16
749.111	2884.39
749.296	2894.63
749.481	2892.59
749.665	2904.87
749.85	2786.09
750.034	2900.78
750.219	2759.47
750.404	2749.23
750.588	2855.72
750.773	2673.45
750.957	2710.32
751.141	2698.03
751.326	2708.27
751.51	2612.01
751.695	2601.77
751.879	2634.54
752.064	2698.03
752.248	2732.84
752.432	2708.27
752.617	2593.58
752.801	2597.68
752.985	2579.25
753.17	2544.43
753.354	2544.43
753.538	2593.58
753.722	2417.46
753.907	2536.24
754.091	2417.46
754.275	2341.68
754.459	2278.19
754.643	2300.72
754.828	2450.22
755.012	2341.68
755.196	2378.55
755.38	2267.95
755.564	2372.4
755.748	2282.29
755.932	2210.61
756.116	2175.8
756.3	2257.71
756.484	2261.81
756.668	2198.32
756.852	2159.41
757.036	2188.08
757.22	2167.6
757.404	2044.73
757.588	2087.73
757.772	2104.12
757.956	2132.79
758.14	2093.88
758.323	2052.92
758.507	2163.51
758.691	2079.54
758.875	2122.55
759.059	2200.37
759.242	2011.96
759.426	1930.04
759.61	1909.56
759.794	2011.96
759.977	1962.81
760.161	1948.47
760.345	1930.04
760.528	1907.51
760.712	1932.09
760.895	1831.74
761.079	1895.22
761.263	1946.42
761.446	1811.26
761.63	1878.84
761.813	1887.03
761.997	1751.87
762.18	1798.97
762.364	1848.12
762.547	1733.43
762.731	1760.06
762.914	1727.29
763.098	1731.39
763.281	1807.16
763.464	1657.66
763.648	1780.54
763.831	1721.15
764.015	1692.48
764.198	1700.67
764.381	1725.24
764.564	1770.3
764.748	1762.11
764.931	1770.3
765.114	1628.99
765.297	1696.57
765.481	1557.31
765.664	1643.32
765.847	1571.65
766.03	1672
766.213	1626.94
766.397	1540.93
766.58	1555.26
766.763	1538.88
766.946	1534.78
767.129	1602.36
767.312	1573.69
767.495	1573.69
767.678	1551.17
767.861	1506.11
768.044	1528.64
768.227	1561.41
768.41	1475.39
768.593	1446.72
768.776	1397.57
768.959	1497.92
769.142	1497.92
769.324	1463.1
769.507	1491.77
769.69	1506.11
769.873	1450.82
770.056	1504.06
770.239	1424.19
770.421	1370.94
770.604	1473.34
770.787	1348.42
770.97	1329.99
771.152	1377.09
771.335	1440.58
771.518	1325.89
771.7	1362.75
771.883	1360.7
772.066	1358.66
772.248	1252.16
772.431	1405.76
772.613	1299.27
772.796	1266.5
772.978	1293.12
773.161	1418.05
773.343	1315.65
773.526	1098.56
773.708	1205.06
773.891	1215.3
774.073	1286.98
774.256	1291.07
774.438	1358.66
774.621	1147.72
774.803	1235.78
774.985	1209.15
775.168	1258.31
775.35	1127.24
775.532	1135.43
775.715	1145.67
775.897	1225.54
776.079	1178.44
776.261	1233.73
776.444	1178.44
776.626	1157.96
776.808	1186.63
776.99	1112.9
777.173	1082.18
777.355	1035.08
777.537	1143.62
777.719	1143.62
777.901	1047.37
778.083	1086.28
778.265	998.21
778.447	1035.08
778.629	969.54
778.811	1055.56
778.993	1098.56
779.175	1133.38
779.357	979.78
779.539	949.06
779.721	967.49
779.903	987.97
780.085	981.83
780.267	1000.26
780.449	944.97
780.631	1008.45
780.812	975.69
780.994	875.34
781.176	871.24
781.358	955.21
781.54	871.24
781.721	869.19
781.903	893.77
782.085	824.14
782.267	957.25
782.448	820.04
782.63	916.3
782.812	897.86
782.993	840.52
783.175	873.29
783.357	848.71
783.538	873.29
783.72	793.42
783.901	906.06
784.083	813.9
784.264	711.5
784.446	770.89
784.627	865.1
784.809	688.97
784.99	713.55
785.172	817.99
785.353	693.07
785.535	779.08
785.716	756.55
785.897	611.15
786.079	693.07
786.26	717.64
786.441	744.27
786.623	631.63
786.804	693.07
786.985	580.43
787.167	731.98
787.348	621.39
787.529	658.25
787.71	731.98
787.891	621.39
788.073	629.58
788.254	660.3
788.435	668.49
788.616	707.4
788.797	607.05
788.978	582.48
789.159	658.25
789.34	592.72
789.522	586.57
789.703	480.08
789.884	613.2
790.065	668.49
790.246	670.54
790.427	596.81
790.607	643.92
790.788	570.19
790.969	543.57
791.15	568.14
791.331	607.05
791.512	451.41
791.693	533.33
791.874	521.04
792.054	568.14
792.235	559.95
792.416	498.51
792.597	478.03
792.778	486.22
792.958	523.09
793.139	516.94
793.32	527.18
793.5	506.7
793.681	537.42
793.862	566.09
794.042	529.23
794.223	441.17
794.404	502.61
794.584	457.55
794.765	451.41
794.945	506.7
795.126	537.42
795.306	514.89
795.487	457.55
795.667	531.28
795.848	512.85
796.028	459.6
796.209	441.17
796.389	441.17
796.57	502.61
796.75	418.64
796.93	418.64
797.111	420.69
797.291	406.35
797.471	432.97
797.652	410.45
797.832	420.69
798.012	457.55
798.192	449.36
798.373	422.73
798.553	385.87
798.733	430.93
798.913	373.58
799.093	365.39
799.274	406.35
799.454	392.02
799.634	490.32
799.814	351.06
799.994	359.25
800.174	379.73
800.354	342.86
800.534	340.82
800.714	459.6
800.894	381.78
801.074	383.82
801.254	344.91
801.434	412.5
801.614	369.49
801.794	340.82
801.974	1274.69
802.154	365.39
802.334	379.73
802.514	396.11
802.693	437.07
802.873	381.78
803.053	432.97
803.233	357.2
803.413	320.34
803.592	353.1
803.772	375.63
803.952	394.06
804.131	291.66
804.311	371.54
804.491	410.45
804.67	262.99
804.85	250.71
805.03	389.97
805.209	303.95
805.389	389.97
805.568	363.34
805.748	211.79
805.928	308.05
806.107	365.39
806.287	289.62
806.466	299.86
806.646	260.95
806.825	318.29
807.004	306
807.184	299.86
807.363	324.43
807.543	322.38
807.722	248.66
807.901	361.3
808.081	312.14
808.26	258.9
808.439	342.86
808.619	299.86
808.798	316.24
808.977	277.33
809.156	318.29
809.336	226.13
809.515	312.14
809.694	314.19
809.873	277.33
810.052	256.85
810.231	234.32
810.411	293.71
810.59	297.81
810.769	211.79
810.948	299.86
811.127	224.08
811.306	275.28
811.485	234.32
811.664	383.82
811.843	162.64
812.022	273.23
812.201	238.42
812.38	262.99
812.559	203.6
812.737	269.14
812.916	195.41
813.095	258.9
813.274	273.23
813.453	275.28
813.632	328.53
813.811	228.18
813.989	176.98
814.168	265.04
814.347	150.36
814.526	252.75
814.704	299.86
814.883	293.71
815.062	160.59
815.24	189.27
815.419	193.36
815.598	258.9
815.776	203.6
815.955	285.52
816.133	160.59
816.312	142.16
816.49	136.02
816.669	181.07
816.847	248.66
817.026	254.8
817.204	230.23
817.383	176.98
817.561	181.07
817.74	162.64
817.918	181.07
818.097	242.51
818.275	222.03
818.453	228.18
818.632	195.41
818.81	152.4
818.988	215.89
819.167	146.26
819.345	199.51
819.523	222.03
819.701	176.98
819.879	219.99
820.058	191.31
820.236	215.89
820.414	197.46
820.592	179.03
820.77	174.93
820.948	179.03
821.127	213.84
821.305	246.61
821.483	84.82
821.661	228.18
821.839	158.55
822.017	168.79
822.195	215.89
822.373	172.88
822.551	136.02
822.729	170.83
822.907	168.79
823.085	232.27
823.262	166.74
823.44	148.31
823.618	115.54
823.796	201.55
823.974	95.06
824.152	209.75
824.329	146.26
824.507	168.79
824.685	176.98
824.863	168.79
825.04	152.4
825.218	203.6
825.396	185.17
825.574	185.17
825.751	160.59
825.929	187.22
826.107	185.17
826.284	148.31
826.462	168.79
826.639	138.07
826.817	80.72
826.994	160.59
827.172	144.21
827.349	189.27
827.527	179.03
827.704	152.4
827.882	146.26
828.059	142.16
828.237	131.92
828.414	148.31
828.591	52.05
828.769	97.11
828.946	72.53
829.124	160.59
829.301	109.4
829.478	136.02
829.655	90.96
829.833	109.4
830.01	9.05
830.187	146.26
830.364	111.44
830.542	90.96
830.719	72.53
830.896	88.92
831.073	176.98
831.25	127.83
831.427	174.93
831.604	146.26
831.782	107.35
831.959	72.53
832.136	119.64
832.313	125.78
832.49	95.06
832.667	203.6
832.844	95.06
833.021	164.69
833.198	70.48
833.374	103.25
833.551	113.49
833.728	168.79
833.905	111.44
834.082	56.15
834.259	31.57
834.436	127.83
834.612	119.64
834.789	211.79
834.966	50
835.143	144.21
835.319	56.15
835.496	117.59
835.673	52.05
835.85	146.26
836.026	121.68
836.203	146.26
836.38	97.11
836.556	176.98
836.733	95.06
836.909	90.96
837.086	66.39
837.262	19.29
837.439	131.92
837.616	9.05
837.792	45.91
837.968	103.25
838.145	41.81
838.321	99.16
838.498	68.44
838.674	54.1
838.851	181.07
839.027	80.72
839.203	78.68
839.38	133.97
839.556	39.76
839.732	82.77
839.909	72.53
840.085	146.26
840.261	86.87
840.437	68.44
840.614	84.82
840.79	107.35
840.966	123.73
841.142	70.48
841.318	56.15
841.494	105.3
841.671	86.87
841.847	35.67
842.023	7
842.199	133.97
842.375	131.92
842.551	29.52
842.727	39.76
842.903	140.12
843.079	58.2
843.255	97.11
843.431	29.52
843.607	47.96
843.783	-81.07
843.959	97.11
844.134	29.52
844.31	160.59
844.486	25.43
844.662	41.81
844.838	27.48
845.013	127.83
845.189	80.72
845.365	62.29
845.541	103.25
845.716	103.25
845.892	64.34
846.068	70.48
846.244	9.05
846.419	60.24
846.595	148.31
846.77	17.24
846.946	129.88
847.122	-23.72
847.297	21.33
847.473	127.83
847.648	33.62
847.824	101.2
847.999	-17.58
848.175	45.91
848.35	58.2
848.526	150.36
848.701	103.25
848.876	70.48
849.052	45.91
849.227	107.35
849.403	29.52
849.578	23.38
849.753	62.29
849.929	64.34
850.104	50
850.279	107.35
850.454	4.95
850.63	82.77
850.805	125.78
850.98	23.38
851.155	23.38
851.33	105.3
851.505	-5.29
851.681	88.92
851.856	21.33
852.031	82.77
852.206	54.1
852.381	41.81
852.556	-23.72
852.731	68.44
852.906	74.58
853.081	35.67
853.256	80.72
853.431	17.24
853.606	13.14
853.781	4.95
853.956	-25.77
854.131	50
854.305	29.52
854.48	-15.53
854.655	39.76
854.83	-31.91
855.005	-13.48
855.18	60.24
855.354	-9.39
855.529	93.01
855.704	19.29
855.879	127.83
856.053	45.91
856.228	136.02
856.403	39.76
856.577	72.53
856.752	9.05
856.926	29.52
857.101	72.53
857.276	-5.29
857.45	31.57
857.625	74.58
857.799	58.2
857.974	35.67
858.148	-5.29
858.323	60.24
858.497	15.19
858.672	45.91
858.846	21.33
859.02	99.16
859.195	-3.24
859.369	56.15
859.543	127.83
859.718	23.38
859.892	111.44
860.066	56.15
860.241	-25.77
860.415	31.57
860.589	15.19
860.763	21.33
860.938	-36.01
861.112	35.67
861.286	35.67
861.46	127.83
861.634	50
861.808	97.11
861.982	-42.15
862.157	15.19
862.331	23.38
862.505	15.19
862.679	-13.48
862.853	2.9
863.027	4.95
863.201	103.25
863.375	-13.48
863.549	62.29
863.722	-15.53
863.896	109.4
864.07	37.72
864.244	68.44
864.418	56.15
864.592	52.05
864.766	93.01
864.939	80.72
865.113	-25.77
865.287	84.82
865.461	-62.63
865.634	-15.53
865.808	25.43
865.982	17.24
866.156	35.67
866.329	-25.77
866.503	-17.58
866.676	90.96
866.85	21.33
867.024	45.91
867.197	62.29
867.371	31.57
867.544	27.48
867.718	4.95
867.891	103.25
868.065	-48.3
868.238	54.1
868.412	35.67
868.585	-25.77
868.759	15.19
868.932	19.29
869.105	-31.91
869.279	25.43
869.452	15.19
869.625	82.77
869.799	54.1
869.972	-27.82
870.145	-38.06
870.319	129.88
870.492	74.58
870.665	11.09
870.838	4.95
871.011	-60.59
871.185	-31.91
871.358	-5.29
871.531	72.53
871.704	7
871.877	52.05
872.05	23.38
872.223	-36.01
872.396	4.95
872.569	93.01
872.742	21.33
872.915	78.68
873.088	-19.63
873.261	27.48
873.434	-36.01
873.607	101.2
873.78	43.86
873.953	-9.39
874.126	31.57
874.299	47.96
874.471	13.14
874.644	23.38
874.817	21.33
874.99	-7.34
875.163	-5.29
875.335	-25.77
875.508	-19.63
875.681	-21.67
875.853	17.24
876.026	60.24
876.199	-19.63
876.371	43.86
876.544	-36.01
876.717	13.14
876.889	-19.63
877.062	54.1
877.234	-48.3
877.407	68.44
877.579	45.91
877.752	13.14
877.924	35.67
878.097	-3.24
878.269	35.67
878.442	47.96
878.614	52.05
878.786	0.85
878.959	-19.63
879.131	-21.67
879.303	-50.35
879.476	-21.67
879.648	33.62
879.82	60.24
879.993	-66.73
880.165	25.43
880.337	-13.48
880.509	68.44
880.681	-19.63
880.854	21.33
881.026	-38.06
881.198	41.81
881.37	0.85
881.542	0.85
881.714	-33.96
881.886	-64.68
882.058	50
882.23	39.76
882.402	-31.91
882.574	-29.87
882.746	86.87
882.918	-19.63
883.09	62.29
883.262	-19.63
883.434	-54.44
883.606	-23.72
883.778	74.58
883.95	-58.54
884.122	-38.06
884.293	37.72
884.465	29.52
884.637	-11.43
884.809	-76.97
884.98	70.48
885.152	29.52
885.324	62.29
885.496	0.85
885.667	41.81
885.839	15.19
886.011	93.01
886.182	64.34
886.354	64.34
886.525	21.33
886.697	62.29
886.869	4.95
887.04	58.2
887.212	82.77
887.383	33.62
887.555	11.09
887.726	-29.87
887.897	-46.25
888.069	29.52
888.24	45.91
888.412	-1.19
888.583	21.33
888.754	25.43
888.926	-109.74
889.097	31.57
889.268	-46.25
889.44	33.62
889.611	-64.68
889.782	25.43
889.953	0.85
890.125	15.19
890.296	56.15
890.467	4.95
890.638	-3.24
890.809	-19.63
890.98	11.09
891.151	58.2
891.323	-9.39
891.494	-1.19
891.665	60.24
891.836	9.05
892.007	0.85
892.178	-21.67
892.349	-21.67
892.52	-15.53
892.691	50
892.862	15.19
893.032	-11.43
893.203	0.85
893.374	-9.39
893.545	68.44
893.716	-64.68
893.887	47.96
894.057	0.85
894.228	-58.54
894.399	56.15
894.57	54.1
894.74	-54.44
894.911	-11.43
895.082	-17.58
895.253	-54.44
895.423	-74.92
895.594	70.48
895.764	45.91
895.935	-46.25
896.106	84.82
896.276	-13.48
896.447	76.63
896.617	-83.11
896.788	-52.39
896.958	-99.5
897.129	-42.15
897.299	9.05
897.47	23.38
897.64	45.91
897.81	45.91
897.981	-3.24
898.151	-52.39
898.322	-3.24
898.492	15.19
898.662	-13.48
898.832	-38.06
899.003	37.72
899.173	82.77
899.343	9.05
899.513	-11.43
