Data from USB4F104151__98__13-06-32-236.txt Node

Date: Fri Mar 14 13:06:32 EDT 2025
User: louis
Spectrometer: USB4F10415
Trigger mode: 4
Integration Time (sec): 4.000000E-2
Scans to average: 1
Electric dark correction enabled: true
Nonlinearity correction enabled: false
Boxcar width: 0
XAxis mode: Wavelengths
Number of Pixels in Spectrum: 3648
>>>>>Begin Spectral Data<<<<<
178.204	-213.5
178.424	-213.5
178.644	-213.5
178.864	-123.39
179.084	-203.26
179.304	-18.94
179.524	-72.19
179.744	-23.04
179.964	67.07
180.184	-35.33
180.404	15.87
180.624	44.54
180.844	-53.76
181.064	3.58
181.283	-33.28
181.503	32.26
181.723	73.21
181.943	-96.77
182.163	81.41
182.383	-6.66
182.602	79.36
182.822	138.75
183.042	89.6
183.262	71.17
183.482	24.06
183.701	58.88
183.921	34.3
184.141	11.78
184.361	138.75
184.58	-10.75
184.8	62.98
185.02	44.54
185.239	77.31
185.459	22.02
185.679	67.07
185.898	5.63
186.118	65.02
186.338	38.4
186.557	91.65
186.777	9.73
186.997	46.59
187.216	50.69
187.436	97.79
187.655	62.98
187.875	95.74
188.095	69.12
188.314	105.98
188.534	101.89
188.753	5.63
188.973	144.89
189.192	140.8
189.412	11.78
189.631	-10.75
189.851	36.35
190.07	108.03
190.29	38.4
190.509	24.06
190.729	56.83
190.948	50.69
191.168	142.85
191.387	32.26
191.607	105.98
191.826	69.12
192.045	46.59
192.265	87.55
192.484	30.21
192.704	-59.9
192.923	73.21
193.142	167.42
193.362	85.5
193.581	56.83
193.8	73.21
194.02	108.03
194.239	-31.23
194.458	30.21
194.678	11.78
194.897	-10.75
195.116	52.74
195.335	22.02
195.555	56.83
195.774	22.02
195.993	97.79
196.212	62.98
196.432	11.78
196.651	28.16
196.87	-41.47
197.089	187.9
197.308	50.69
197.528	79.36
197.747	-35.33
197.966	79.36
198.185	138.75
198.404	56.83
198.623	15.87
198.842	89.6
199.062	54.78
199.281	77.31
199.5	17.92
199.719	32.26
199.938	42.5
200.157	50.69
200.376	7.68
200.595	48.64
200.814	73.21
201.033	34.3
201.252	52.74
201.471	42.5
201.69	67.07
201.909	56.83
202.128	105.98
202.347	38.4
202.566	32.26
202.785	-0.51
203.004	-16.9
203.223	173.57
203.442	34.3
203.661	-16.9
203.879	81.41
204.098	105.98
204.317	71.17
204.536	73.21
204.755	62.98
204.974	32.26
205.193	69.12
205.411	128.51
205.63	83.45
205.849	-2.56
206.068	71.17
206.287	67.07
206.505	77.31
206.724	77.31
206.943	75.26
207.162	-61.95
207.381	69.12
207.599	71.17
207.818	38.4
208.037	38.4
208.255	65.02
208.474	65.02
208.693	71.17
208.911	-10.75
209.13	67.07
209.349	11.78
209.567	46.59
209.786	132.61
210.005	58.88
210.223	3.58
210.442	-33.28
210.661	5.63
210.879	56.83
211.098	24.06
211.316	71.17
211.535	-29.18
211.753	81.41
211.972	48.64
212.191	65.02
212.409	42.5
212.628	79.36
212.846	79.36
213.065	40.45
213.283	146.94
213.502	77.31
213.72	34.3
213.938	-2.56
214.157	26.11
214.375	48.64
214.594	34.3
214.812	114.17
215.031	54.78
215.249	114.17
215.467	32.26
215.686	58.88
215.904	62.98
216.122	48.64
216.341	97.79
216.559	5.63
216.778	71.17
216.996	32.26
217.214	13.82
217.432	69.12
217.651	40.45
217.869	65.02
218.087	46.59
218.306	19.97
218.524	26.11
218.742	40.45
218.96	171.52
219.179	15.87
219.397	75.26
219.615	136.7
219.833	54.78
220.051	-12.8
220.27	30.21
220.488	95.74
220.706	-16.9
220.924	48.64
221.142	38.4
221.36	40.45
221.578	116.22
221.796	81.41
222.015	-12.8
222.233	15.87
222.451	50.69
222.669	44.54
222.887	71.17
223.105	67.07
223.323	71.17
223.541	40.45
223.759	38.4
223.977	3.58
224.195	1.54
224.413	65.02
224.631	-0.51
224.849	50.69
225.067	103.93
225.285	89.6
225.503	79.36
225.721	-10.75
225.939	58.88
226.157	99.84
226.375	144.89
226.592	-2.56
226.81	24.06
227.028	75.26
227.246	58.88
227.464	77.31
227.682	28.16
227.9	128.51
228.117	71.17
228.335	77.31
228.553	99.84
228.771	38.4
228.989	19.97
229.206	50.69
229.424	7.68
229.642	9.73
229.86	40.45
230.077	30.21
230.295	48.64
230.513	93.69
230.731	30.21
230.948	134.65
231.166	136.7
231.384	32.26
231.601	-35.33
231.819	148.99
232.037	24.06
232.254	15.87
232.472	26.11
232.689	75.26
232.907	54.78
233.125	108.03
233.342	48.64
233.56	32.26
233.777	30.21
233.995	54.78
234.213	75.26
234.43	93.69
234.648	-33.28
234.865	71.17
235.083	24.06
235.3	9.73
235.518	165.37
235.735	108.03
235.953	77.31
236.17	30.21
236.388	60.93
236.605	7.68
236.822	120.32
237.04	103.93
237.257	54.78
237.475	73.21
237.692	124.41
237.909	87.55
238.127	26.11
238.344	99.84
238.562	48.64
238.779	54.78
238.996	30.21
239.214	42.5
239.431	71.17
239.648	40.45
239.865	56.83
240.083	110.08
240.3	73.21
240.517	81.41
240.735	130.56
240.952	93.69
241.169	124.41
241.386	165.37
241.603	36.35
241.821	83.45
242.038	54.78
242.255	73.21
242.472	36.35
242.689	-8.7
242.907	116.22
243.124	34.3
243.341	54.78
243.558	54.78
243.775	-8.7
243.992	52.74
244.209	22.02
244.426	56.83
244.643	38.4
244.86	22.02
245.078	132.61
245.295	79.36
245.512	62.98
245.729	11.78
245.946	71.17
246.163	65.02
246.38	95.74
246.597	67.07
246.814	73.21
247.031	40.45
247.248	40.45
247.464	77.31
247.681	60.93
247.898	79.36
248.115	73.21
248.332	-4.61
248.549	95.74
248.766	97.79
248.983	40.45
249.2	30.21
249.417	124.41
249.633	24.06
249.85	56.83
250.067	159.23
250.284	91.65
250.501	54.78
250.717	116.22
250.934	9.73
251.151	-8.7
251.368	-4.61
251.585	50.69
251.801	17.92
252.018	11.78
252.235	81.41
252.451	-6.66
252.668	9.73
252.885	112.13
253.102	67.07
253.318	-8.7
253.535	19.97
253.752	-2.56
253.968	75.26
254.185	-18.94
254.401	58.88
254.618	87.55
254.835	42.5
255.051	38.4
255.268	54.78
255.484	40.45
255.701	71.17
255.917	116.22
256.134	32.26
256.351	65.02
256.567	22.02
256.784	69.12
257	-33.28
257.217	42.5
257.433	110.08
257.65	67.07
257.866	15.87
258.082	-18.94
258.299	5.63
258.515	24.06
258.732	-18.94
258.948	-6.66
259.165	75.26
259.381	7.68
259.597	58.88
259.814	71.17
260.03	56.83
260.246	24.06
260.463	58.88
260.679	56.83
260.895	79.36
261.112	128.51
261.328	83.45
261.544	79.36
261.761	114.17
261.977	36.35
262.193	1.54
262.409	38.4
262.626	3.58
262.842	79.36
263.058	-35.33
263.274	69.12
263.49	54.78
263.707	144.89
263.923	79.36
264.139	24.06
264.355	44.54
264.571	5.63
264.787	75.26
265.004	56.83
265.22	15.87
265.436	24.06
265.652	67.07
265.868	105.98
266.084	60.93
266.3	52.74
266.516	32.26
266.732	95.74
266.948	40.45
267.164	-18.94
267.38	54.78
267.596	40.45
267.812	81.41
268.028	46.59
268.244	79.36
268.46	32.26
268.676	40.45
268.892	32.26
269.108	50.69
269.324	83.45
269.54	-12.8
269.756	54.78
269.972	38.4
270.188	58.88
270.403	-14.85
270.619	81.41
270.835	99.84
271.051	118.27
271.267	-27.14
271.483	26.11
271.698	62.98
271.914	95.74
272.13	65.02
272.346	30.21
272.562	30.21
272.777	122.37
272.993	99.84
273.209	62.98
273.425	13.82
273.64	-51.71
273.856	42.5
274.072	36.35
274.287	-6.66
274.503	118.27
274.719	56.83
274.934	17.92
275.15	-27.14
275.366	130.56
275.581	50.69
275.797	40.45
276.012	54.78
276.228	-2.56
276.444	89.6
276.659	73.21
276.875	-18.94
277.09	40.45
277.306	17.92
277.521	69.12
277.737	52.74
277.952	22.02
278.168	38.4
278.383	38.4
278.599	36.35
278.814	52.74
279.03	19.97
279.245	148.99
279.461	77.31
279.676	103.93
279.892	73.21
280.107	-10.75
280.322	22.02
280.538	69.12
280.753	-18.94
280.969	77.31
281.184	3.58
281.399	161.28
281.615	62.98
281.83	122.37
282.045	15.87
282.26	7.68
282.476	32.26
282.691	40.45
282.906	105.98
283.122	-16.9
283.337	-59.9
283.552	15.87
283.767	81.41
283.983	56.83
284.198	-10.75
284.413	79.36
284.628	-20.99
284.843	30.21
285.058	65.02
285.274	54.78
285.489	46.59
285.704	114.17
285.919	-4.61
286.134	40.45
286.349	40.45
286.564	122.37
286.779	85.5
286.995	19.97
287.21	1.54
287.425	85.5
287.64	-10.75
287.855	79.36
288.07	-6.66
288.285	54.78
288.5	128.51
288.715	24.06
288.93	56.83
289.145	24.06
289.36	85.5
289.575	1.54
289.79	54.78
290.004	95.74
290.219	89.6
290.434	1.54
290.649	146.94
290.864	34.3
291.079	7.68
291.294	13.82
291.509	19.97
291.724	122.37
291.938	93.69
292.153	69.12
292.368	-2.56
292.583	34.3
292.798	-4.61
293.012	50.69
293.227	136.7
293.442	46.59
293.657	28.16
293.871	132.61
294.086	89.6
294.301	93.69
294.516	73.21
294.73	97.79
294.945	40.45
295.16	5.63
295.374	69.12
295.589	77.31
295.804	91.65
296.018	87.55
296.233	163.33
296.447	1.54
296.662	62.98
296.877	136.7
297.091	89.6
297.306	17.92
297.52	13.82
297.735	62.98
297.949	79.36
298.164	105.98
298.378	60.93
298.593	-39.42
298.807	-27.14
299.022	50.69
299.236	24.06
299.451	26.11
299.665	116.22
299.88	26.11
300.094	134.65
300.309	54.78
300.523	87.55
300.737	97.79
300.952	34.3
301.166	60.93
301.381	24.06
301.595	17.92
301.809	44.54
302.024	34.3
302.238	30.21
302.452	34.3
302.667	13.82
302.881	103.93
303.095	81.41
303.309	103.93
303.524	38.4
303.738	38.4
303.952	-74.24
304.166	77.31
304.381	34.3
304.595	114.17
304.809	22.02
305.023	95.74
305.237	-23.04
305.452	54.78
305.666	99.84
305.88	5.63
306.094	46.59
306.308	65.02
306.522	7.68
306.736	112.13
306.95	-6.66
307.164	99.84
307.379	-25.09
307.593	99.84
307.807	108.03
308.021	110.08
308.235	5.63
308.449	-4.61
308.663	24.06
308.877	122.37
309.091	36.35
309.305	42.5
309.519	40.45
309.733	112.13
309.947	-100.86
310.161	226.81
310.374	95.74
310.588	73.21
310.802	38.4
311.016	77.31
311.23	114.17
311.444	-57.86
311.658	77.31
311.872	58.88
312.085	153.09
312.299	89.6
312.513	79.36
312.727	40.45
312.941	13.82
313.154	87.55
313.368	58.88
313.582	116.22
313.796	15.87
314.009	48.64
314.223	83.45
314.437	169.47
314.651	112.13
314.864	69.12
315.078	5.63
315.292	40.45
315.505	-29.18
315.719	89.6
315.933	118.27
316.146	15.87
316.36	28.16
316.573	44.54
316.787	132.61
317.001	32.26
317.214	22.02
317.428	17.92
317.641	-4.61
317.855	87.55
318.068	40.45
318.282	54.78
318.495	130.56
318.709	103.93
318.922	87.55
319.136	122.37
319.349	112.13
319.563	56.83
319.776	153.09
319.99	38.4
320.203	73.21
320.417	95.74
320.63	52.74
320.843	157.18
321.057	79.36
321.27	-18.94
321.483	87.55
321.697	54.78
321.91	73.21
322.124	83.45
322.337	91.65
322.55	62.98
322.763	48.64
322.977	11.78
323.19	54.78
323.403	105.98
323.617	46.59
323.83	91.65
324.043	36.35
324.256	112.13
324.469	-4.61
324.683	83.45
324.896	36.35
325.109	40.45
325.322	34.3
325.535	38.4
325.748	58.88
325.962	79.36
326.175	116.22
326.388	60.93
326.601	79.36
326.814	52.74
327.027	32.26
327.24	185.85
327.453	-55.81
327.666	32.26
327.879	54.78
328.092	112.13
328.305	13.82
328.518	40.45
328.731	69.12
328.944	54.78
329.157	44.54
329.37	38.4
329.583	185.85
329.796	112.13
330.009	-41.47
330.222	50.69
330.435	91.65
330.648	134.65
330.861	62.98
331.073	42.5
331.286	56.83
331.499	81.41
331.712	46.59
331.925	65.02
332.138	3.58
332.35	114.17
332.563	89.6
332.776	144.89
332.989	36.35
333.202	54.78
333.414	13.82
333.627	52.74
333.84	85.5
334.053	56.83
334.265	28.16
334.478	15.87
334.691	122.37
334.903	128.51
335.116	32.26
335.329	71.17
335.541	62.98
335.754	99.84
335.966	32.26
336.179	44.54
336.392	-23.04
336.604	93.69
336.817	142.85
337.029	108.03
337.242	118.27
337.454	87.55
337.667	87.55
337.88	163.33
338.092	69.12
338.305	50.69
338.517	38.4
338.729	165.37
338.942	120.32
339.154	-14.85
339.367	24.06
339.579	105.98
339.792	91.65
340.004	124.41
340.217	50.69
340.429	124.41
340.641	58.88
340.854	-0.51
341.066	5.63
341.278	151.04
341.491	91.65
341.703	40.45
341.915	5.63
342.128	79.36
342.34	36.35
342.552	85.5
342.764	62.98
342.977	56.83
343.189	95.74
343.401	89.6
343.613	26.11
343.826	97.79
344.038	-33.28
344.25	48.64
344.462	38.4
344.674	-0.51
344.886	108.03
345.099	126.46
345.311	67.07
345.523	75.26
345.735	9.73
345.947	108.03
346.159	54.78
346.371	73.21
346.583	114.17
346.795	189.95
347.007	7.68
347.219	81.41
347.431	118.27
347.643	73.21
347.855	22.02
348.067	89.6
348.279	30.21
348.491	69.12
348.703	95.74
348.915	97.79
349.127	34.3
349.339	40.45
349.551	79.36
349.763	62.98
349.975	48.64
350.187	132.61
350.399	87.55
350.61	153.09
350.822	75.26
351.034	105.98
351.246	34.3
351.458	91.65
351.669	95.74
351.881	132.61
352.093	99.84
352.305	151.04
352.517	140.8
352.728	116.22
352.94	50.69
353.152	56.83
353.363	120.32
353.575	75.26
353.787	103.93
353.999	89.6
354.21	62.98
354.422	13.82
354.633	9.73
354.845	73.21
355.057	99.84
355.268	91.65
355.48	118.27
355.692	105.98
355.903	118.27
356.115	17.92
356.326	15.87
356.538	42.5
356.749	101.89
356.961	128.51
357.172	69.12
357.384	93.69
357.595	130.56
357.807	62.98
358.018	73.21
358.23	-25.09
358.441	124.41
358.653	62.98
358.864	81.41
359.075	58.88
359.287	105.98
359.498	120.32
359.709	67.07
359.921	101.89
360.132	52.74
360.344	40.45
360.555	26.11
360.766	38.4
360.977	7.68
361.189	83.45
361.4	81.41
361.611	101.89
361.823	67.07
362.034	128.51
362.245	17.92
362.456	7.68
362.667	142.85
362.879	83.45
363.09	3.58
363.301	93.69
363.512	116.22
363.723	91.65
363.935	13.82
364.146	167.42
364.357	83.45
364.568	124.41
364.779	36.35
364.99	73.21
365.201	7.68
365.412	136.7
365.623	22.02
365.834	17.92
366.045	30.21
366.256	153.09
366.467	110.08
366.678	103.93
366.889	-20.99
367.1	97.79
367.311	163.33
367.522	71.17
367.733	167.42
367.944	132.61
368.155	126.46
368.366	32.26
368.577	128.51
368.788	108.03
368.999	-12.8
369.209	97.79
369.42	122.37
369.631	196.09
369.842	99.84
370.053	46.59
370.264	153.09
370.474	103.93
370.685	85.5
370.896	69.12
371.107	-23.04
371.317	71.17
371.528	56.83
371.739	91.65
371.95	120.32
372.16	118.27
372.371	15.87
372.582	77.31
372.792	142.85
373.003	73.21
373.214	89.6
373.424	79.36
373.635	28.16
373.846	163.33
374.056	140.8
374.267	32.26
374.477	87.55
374.688	46.59
374.898	108.03
375.109	-8.7
375.319	54.78
375.53	165.37
375.74	81.41
375.951	114.17
376.161	132.61
376.372	99.84
376.582	179.71
376.793	120.32
377.003	67.07
377.214	58.88
377.424	87.55
377.635	42.5
377.845	58.88
378.055	101.89
378.266	3.58
378.476	144.89
378.686	114.17
378.897	130.56
379.107	89.6
379.317	118.27
379.528	54.78
379.738	30.21
379.948	54.78
380.158	112.13
380.369	60.93
380.579	56.83
380.789	122.37
380.999	62.98
381.21	103.93
381.42	144.89
381.63	52.74
381.84	95.74
382.05	83.45
382.261	124.41
382.471	95.74
382.681	114.17
382.891	114.17
383.101	136.7
383.311	5.63
383.521	-12.8
383.731	67.07
383.941	112.13
384.151	112.13
384.361	95.74
384.571	130.56
384.781	140.8
384.991	173.57
385.201	153.09
385.411	122.37
385.621	108.03
385.831	110.08
386.041	103.93
386.251	75.26
386.461	79.36
386.671	101.89
386.881	83.45
387.091	62.98
387.301	181.76
387.511	26.11
387.72	157.18
387.93	87.55
388.14	62.98
388.35	148.99
388.56	128.51
388.769	132.61
388.979	67.07
389.189	67.07
389.399	32.26
389.609	151.04
389.818	130.56
390.028	40.45
390.238	75.26
390.447	54.78
390.657	97.79
390.867	62.98
391.076	15.87
391.286	105.98
391.496	165.37
391.705	7.68
391.915	124.41
392.125	120.32
392.334	171.52
392.544	179.71
392.753	75.26
392.963	114.17
393.172	89.6
393.382	118.27
393.591	181.76
393.801	42.5
394.01	144.89
394.22	85.5
394.429	146.94
394.639	101.89
394.848	87.55
395.058	114.17
395.267	71.17
395.477	132.61
395.686	214.52
395.895	179.71
396.105	218.62
396.314	85.5
396.524	179.71
396.733	44.54
396.942	118.27
397.152	146.94
397.361	175.61
397.57	126.46
397.78	120.32
397.989	136.7
398.198	245.24
398.407	65.02
398.617	91.65
398.826	120.32
399.035	202.24
399.244	161.28
399.453	177.66
399.663	103.93
399.872	179.71
400.081	153.09
400.29	179.71
400.499	165.37
400.708	187.9
400.917	216.57
401.127	112.13
401.336	183.81
401.545	222.72
401.754	224.76
401.963	118.27
402.172	101.89
402.381	179.71
402.59	114.17
402.799	175.61
403.008	212.48
403.217	144.89
403.426	204.28
403.635	97.79
403.844	169.47
404.053	171.52
404.262	247.29
404.471	216.57
404.68	226.81
404.888	239.1
405.097	79.36
405.306	181.76
405.515	253.44
405.724	165.37
405.933	259.58
406.142	292.35
406.35	185.85
406.559	185.85
406.768	247.29
406.977	329.21
407.185	259.58
407.394	288.25
407.603	286.2
407.812	253.44
408.02	372.22
408.229	333.31
408.438	343.55
408.646	284.16
408.855	318.97
409.064	396.79
409.272	376.31
409.481	398.84
409.69	404.99
409.898	349.69
410.107	392.7
410.315	488.95
410.524	429.56
410.733	433.66
410.941	468.47
411.15	519.67
411.358	441.85
411.567	613.88
411.775	464.38
411.984	466.42
412.192	593.4
412.401	607.73
412.609	744.95
412.818	734.71
413.026	710.13
413.234	626.17
413.443	736.76
413.651	656.89
413.86	673.27
414.068	824.82
414.276	820.72
414.485	773.62
414.693	904.69
414.901	978.42
415.11	972.27
415.318	939.51
415.526	1005.04
415.734	998.9
415.943	1064.43
416.151	1103.34
416.359	1105.39
416.567	1115.63
416.776	1197.55
416.984	1285.61
417.192	1320.43
417.4	1244.65
417.608	1285.61
417.817	1291.76
418.025	1519.08
418.233	1637.86
418.441	1431.02
418.649	1615.34
418.857	1664.49
419.065	1687.01
419.273	1699.3
419.481	1787.36
419.689	1900
419.897	1971.68
420.105	1928.67
420.313	2082.27
420.521	2211.29
420.729	2219.49
420.937	2221.53
421.145	2266.59
421.353	2428.38
421.561	2606.55
421.769	2534.87
421.977	2637.27
422.185	2678.23
422.393	2821.59
422.601	2997.71
422.809	3003.86
423.017	3026.39
423.224	3177.94
423.432	3280.33
423.64	3272.14
423.848	3630.54
424.056	3415.5
424.263	3706.31
424.471	3808.71
424.679	3966.4
424.887	3990.98
425.094	4160.96
425.302	4226.5
425.51	4447.68
425.718	4429.24
425.925	4529.59
426.133	4718.01
426.341	4978.1
426.548	5332.4
426.756	5131.7
426.964	5184.94
427.171	5576.11
427.379	5645.74
427.586	5741.99
427.794	5834.15
428.001	6288.8
428.209	6448.54
428.417	6434.21
428.624	6870.42
428.832	7083.41
429.039	6917.53
429.247	6866.33
429.454	7329.17
429.662	8181.12
429.869	7542.16
430.076	7763.34
430.284	7849.35
430.491	8009.09
430.699	8557.95
430.906	8775.03
431.114	8795.51
431.321	9147.76
431.528	9176.44
431.736	9786.73
431.943	10358.11
432.15	9803.11
432.358	10200.42
432.565	10487.14
432.772	10605.92
432.979	11122.01
433.187	11394.39
433.394	11363.67
433.601	11881.8
433.808	12109.13
434.016	12197.19
434.223	12537.15
434.43	13487.41
434.637	13180.21
434.844	13733.17
435.052	14015.79
435.259	14191.91
435.466	14312.74
435.673	14118.18
435.88	15123.74
436.087	15830.29
436.294	15832.33
436.501	15617.3
436.708	15942.92
436.915	16299.27
437.122	17302.78
437.329	17042.68
437.537	17466.61
437.743	17741.04
437.95	17831.15
438.157	18717.92
438.364	19395.8
438.571	19354.84
438.778	19360.98
438.985	21122.24
439.192	20100.3
439.399	20987.07
439.606	20702.4
439.813	21382.33
440.02	22914.21
440.227	22537.38
440.433	22320.3
440.64	23327.9
440.847	23086.24
441.054	23719.06
441.261	25222.27
441.467	24790.15
441.674	25465.98
441.881	26170.48
442.088	25869.43
442.294	25807.99
442.501	26711.14
442.708	27130.98
442.914	28171.35
443.121	29340.74
443.328	28587.08
443.534	30585.9
443.741	29805.63
443.948	29301.82
444.154	31605.79
444.361	31147.04
444.568	31302.69
444.774	31601.69
444.981	31669.28
445.187	33211.4
445.394	34284.53
445.6	33401.86
445.807	37063.63
446.013	35494.88
446.22	36086.75
446.426	37485.51
446.633	37979.07
446.839	39193.51
447.046	37632.96
447.252	39631.78
447.459	39779.23
447.665	39682.98
447.871	41126.8
448.078	42699.64
448.284	40672.15
448.491	42032
448.697	43395.95
448.903	44352.35
449.11	44788.56
449.316	44118.88
449.522	44563.29
449.728	45929.28
449.935	46441.28
450.141	46082.88
450.347	46996.27
450.553	45919.04
450.76	46469.95
450.966	48323.36
451.172	47354.67
451.378	48540.44
451.584	47436.59
451.791	48841.49
451.997	49185.55
452.203	49720.07
452.409	49736.46
452.615	49298.19
452.821	47649.58
453.027	47065.91
453.233	49681.16
453.44	47936.29
453.646	48540.44
453.852	48481.05
454.058	49027.86
454.264	47751.98
454.47	49158.93
454.676	47450.92
454.882	49269.52
455.088	45132.62
455.294	45599.56
455.5	46549.82
455.705	46983.99
455.911	45220.69
456.117	44383.07
456.323	43735.91
456.529	41620.36
456.735	43627.37
456.941	42290.04
457.147	41563.01
457.352	40143.77
457.558	39961.5
457.764	40416.15
457.97	39150.51
458.176	38390.71
458.381	38349.75
458.587	36643.79
458.793	36883.41
458.999	34724.85
459.204	36836.3
459.41	36037.59
459.616	33596.42
459.821	33799.16
460.027	34065.4
460.233	32873.48
460.438	31570.97
460.644	31519.78
460.85	30475.31
461.055	29684.8
461.261	29627.45
461.466	27458.65
461.672	26588.27
461.878	28626
462.083	26735.72
462.289	26287.21
462.494	25750.65
462.7	24886.4
462.905	24134.8
463.111	25119.87
463.316	24870.02
463.522	24450.19
463.727	24538.25
463.932	24423.56
464.138	24163.47
464.343	24654.98
464.549	23585.94
464.754	24325.26
464.959	24312.97
465.165	24081.55
465.37	22842.53
465.575	22387.88
465.781	23319.71
465.986	23532.7
466.191	22848.68
466.397	22209.71
466.602	21062.85
466.807	22074.54
467.012	21834.93
467.218	21730.48
467.423	21388.47
467.628	21679.29
467.833	22443.18
468.038	21601.46
468.244	21136.57
468.449	22004.91
468.654	21175.48
468.859	21191.87
469.064	20882.63
469.269	19936.46
469.474	20372.68
469.679	20655.3
469.885	20047.05
470.09	20364.49
470.295	20620.49
470.5	19641.56
470.705	19797.2
470.91	19479.77
471.115	19148
471.32	19199.2
471.525	19600.6
471.73	19107.04
471.935	18636
472.139	18285.8
472.344	18322.66
472.549	18314.47
472.754	18171.11
472.959	17962.22
473.164	17390.84
473.369	17306.87
473.574	17689.84
473.778	17571.06
473.983	17478.9
474.188	17546.48
474.393	16577.8
474.598	16774.4
474.802	16477.44
475.007	16219.4
475.212	16485.64
475.417	15736.08
475.621	16033.04
475.826	16059.66
476.031	15437.08
476.235	15330.58
476.44	15441.17
476.645	15179.03
476.849	15035.67
477.054	14691.62
477.259	14777.63
477.463	15025.43
477.668	14562.59
477.872	14822.69
478.077	14267.69
478.282	13763.89
478.486	14013.74
478.691	13911.34
478.895	13821.23
479.1	13702.45
479.304	13718.83
479.509	13335.86
479.713	13653.3
479.918	13231.41
480.122	12993.85
480.326	13286.71
480.531	13237.56
480.735	13227.32
480.94	12993.85
481.144	13348.15
481.348	12723.52
481.553	12879.16
481.757	12694.85
481.961	12836.16
482.166	12860.73
482.37	12950.84
482.574	12440.9
482.778	12463.43
482.983	12911.93
483.187	12760.38
483.391	12723.52
483.595	12758.33
483.8	12475.71
484.004	12434.75
484.208	12586.3
484.412	12852.54
484.616	12420.42
484.821	12528.96
485.025	12588.35
485.229	12764.48
485.433	12545.34
485.637	12557.63
485.841	12457.28
486.045	12627.26
486.249	12682.56
486.453	12520.77
486.657	12584.26
486.861	12686.65
487.065	12406.08
487.269	12770.62
487.473	12479.81
487.677	12672.32
487.881	12936.51
488.085	12453.19
488.289	12846.4
488.493	12692.8
488.697	12780.86
488.901	12754.24
489.105	12784.96
489.309	12942.65
489.512	12778.81
489.716	12739.9
489.92	12866.88
490.124	12711.23
490.328	12983.61
490.531	12916.03
490.735	13008.19
490.939	12993.85
491.143	13063.48
491.346	13057.34
491.55	13245.75
491.754	13309.24
491.958	13385.01
492.161	13184.31
492.365	13346.1
492.569	13016.38
492.772	13376.82
492.976	13270.33
493.18	13425.97
493.383	13749.55
493.587	13630.77
493.79	13864.24
493.994	13489.46
494.197	14021.93
494.401	14060.84
494.605	13886.76
494.808	14335.27
495.012	14351.65
495.215	14159.14
495.419	14386.47
495.622	14161.19
495.825	14695.71
496.029	14628.13
496.232	14849.31
496.436	14974.24
496.639	15443.22
496.843	15080.73
497.046	15414.55
497.249	15398.17
497.453	15920.4
497.656	16012.56
497.859	15916.3
498.063	16063.75
498.266	16207.11
498.469	16211.21
498.673	16491.78
498.876	16672
499.079	16952.57
499.282	16930.05
499.485	17222.91
499.689	17335.54
499.892	17626.36
500.095	17542.39
500.298	17966.32
500.501	17863.92
500.705	18306.28
500.908	18533.61
501.111	18599.14
501.314	19016.93
501.517	18943.2
501.72	19389.66
501.923	19234.01
502.126	19711.19
502.329	19907.79
502.532	20272.33
502.735	20251.85
502.938	20327.63
503.141	20577.48
503.344	21060.8
503.547	20909.25
503.75	21286.08
503.953	21443.77
504.156	21574.84
504.359	21945.52
504.562	22217.9
504.765	22588.58
504.968	22670.5
505.17	22916.26
505.373	23129.25
505.576	23559.32
505.779	23671.96
505.982	23788.69
506.185	24179.86
506.387	24220.81
506.59	24466.57
506.793	24779.91
506.996	24863.88
507.198	25521.27
507.401	25394.3
507.604	25869.43
507.807	26334.32
508.009	26635.37
508.212	26739.82
508.415	26737.77
508.617	26997.86
508.82	27176.03
509.022	27442.27
509.225	28148.82
509.428	28087.38
509.63	28431.44
509.833	28503.12
510.035	29246.53
510.238	28904.52
510.44	29396.03
510.643	29690.94
510.845	30102.58
511.048	30268.47
511.25	30256.18
511.453	30501.93
511.655	31800.35
511.858	31398.94
512.06	31562.78
512.262	31702.04
512.465	32005.14
512.667	32144.41
512.87	32699.41
513.072	32705.55
513.274	33434.63
513.477	33657.85
513.679	33793.02
513.881	34333.68
514.084	34655.22
514.286	34720.75
514.488	34800.62
514.69	35609.57
514.893	35640.29
515.095	36045.79
515.297	36488.15
515.499	36395.99
515.701	37299.14
515.904	37456.84
516.106	37413.83
516.308	37579.71
516.51	38284.22
516.712	38235.06
516.914	39160.75
517.116	40082.33
517.318	39390.12
517.52	39947.17
517.722	39756.71
517.925	40358.81
518.127	40811.41
518.329	40854.42
518.531	40768.4
518.733	41821.06
518.935	41837.44
519.136	42077.05
519.338	42462.07
519.54	42539.89
519.742	43217.77
519.944	43428.71
520.146	43961.19
520.348	44198.75
520.55	44319.58
520.752	44575.58
520.954	45017.94
521.155	44624.73
521.357	45841.22
521.559	45728.58
521.761	46699.32
521.963	46046.02
522.164	46654.26
522.366	47043.38
522.568	47262.51
522.77	47278.89
522.971	48341.79
523.173	47819.56
523.375	48063.27
523.576	48315.17
523.778	47979.3
523.98	49259.28
524.181	49130.26
524.383	49120.02
524.584	49765.13
524.786	49429.26
524.988	49502.99
525.189	50739.96
525.391	50385.66
525.592	50742.01
525.794	50836.22
525.995	51094.26
526.197	51018.49
526.398	51233.52
526.6	51411.7
526.801	51858.15
527.003	52128.48
527.204	51727.08
527.406	52245.22
527.607	52611.81
527.808	52781.79
528.01	52478.69
528.211	52400.86
528.412	53699.28
528.614	53060.31
528.815	53439.18
529.016	53564.11
529.218	53064.41
529.419	52931.29
529.62	53981.9
529.822	53430.99
530.023	54020.81
530.224	54219.46
530.425	54000.33
530.626	53715.66
530.828	53633.74
531.029	55157.43
531.23	53785.29
531.431	54233.8
531.632	54268.61
531.833	54749.88
532.035	54293.19
532.236	54534.85
532.437	54657.73
532.638	54545.09
532.839	55007.93
533.04	55104.18
533.241	54506.18
533.442	55118.52
533.643	55143.09
533.844	55112.38
534.045	54764.22
534.246	54602.43
534.447	55161.53
534.648	54903.48
534.849	55280.31
535.05	54878.91
535.251	55196.34
535.451	54969.02
535.652	55454.39
535.853	54860.47
536.054	55229.11
536.255	55145.14
536.456	54577.86
536.657	55636.66
536.857	55308.98
537.058	55116.47
537.259	55165.62
537.46	54991.54
537.66	55077.56
537.861	54995.64
538.062	54889.15
538.263	55380.66
538.463	54883
538.664	54821.56
538.865	55034.55
539.065	55286.45
539.266	54383.3
539.466	55405.23
539.667	54608.57
539.868	55583.41
540.068	54907.58
540.269	54739.64
540.469	55343.8
540.67	54803.13
540.87	55139
541.071	54848.19
541.271	54878.91
541.472	54837.95
541.672	54520.51
541.873	54960.83
542.073	54262.47
542.274	55280.31
542.474	54952.63
542.675	54379.2
542.875	54969.02
543.075	54592.19
543.276	54250.18
543.476	55397.04
543.676	54577.86
543.877	54913.72
544.077	54661.82
544.277	54725.31
544.478	54727.36
544.678	54971.07
544.878	54643.39
545.078	55124.66
545.279	54328
545.479	54328
545.679	54784.7
545.879	54368.96
546.079	54282.95
546.28	54465.22
546.48	53854.92
546.68	54698.69
546.88	54827.71
547.08	54178.5
547.28	54274.76
547.48	53852.87
547.68	54690.49
547.88	54373.06
548.081	54649.53
548.281	54112.97
548.481	54211.27
548.681	54278.85
548.881	54346.43
549.081	54350.53
549.28	54536.9
549.48	54387.39
549.68	53895.88
549.88	54479.55
550.08	53742.28
550.28	54192.84
550.48	54301.38
550.68	54461.12
550.88	54057.67
551.08	53773
551.279	54135.49
551.479	53670.61
551.679	54403.78
551.879	53551.82
552.079	53883.59
552.278	53996.23
552.478	53840.59
552.678	53742.28
552.878	54125.25
553.077	53512.91
553.277	53820.11
553.477	54033.1
553.676	54096.58
553.876	54024.9
554.076	53293.78
554.275	53686.99
554.475	53175
554.674	53695.18
554.874	53617.36
555.074	53261.01
555.273	53265.11
555.473	53639.89
555.672	53168.85
555.872	53607.12
556.071	53408.47
556.271	53635.79
556.47	52896.47
556.67	52947.67
556.869	52622.05
557.068	53232.34
557.268	52712.16
557.467	52863.71
557.667	52978.39
557.866	52875.99
558.065	52474.59
558.265	52685.53
558.464	52484.83
558.663	52968.15
558.863	52099.81
559.062	52742.88
559.261	52280.03
559.461	52599.52
559.66	52194.02
559.859	52079.33
560.058	51907.3
560.258	52019.94
560.457	51737.32
560.656	52241.12
560.855	51921.64
561.054	52134.63
561.253	51579.63
561.453	51698.41
561.652	51845.86
561.851	52210.4
562.05	51536.62
562.249	51172.08
562.448	51409.65
562.647	51299.06
562.846	50938.61
563.045	51038.97
563.244	50787.07
563.443	51573.49
563.642	50725.63
563.841	50723.58
564.04	50911.99
564.239	50858.74
564.438	50524.93
564.637	50782.97
564.836	50512.64
565.035	50172.67
565.234	50309.89
565.432	50033.41
565.631	49709.83
565.83	49834.76
566.029	49842.95
566.228	49537.8
566.427	49419.02
566.625	49718.03
566.824	49029.91
567.023	49640.2
567.222	48849.69
567.42	49558.28
567.619	49199.89
567.818	49079.06
568.016	48947.99
568.215	49261.33
568.414	48898.84
568.612	49066.77
568.811	48741.14
569.01	48571.16
569.208	48227.1
569.407	48610.07
569.605	48026.4
569.804	48431.9
570.002	47686.44
570.201	47860.52
570.4	47932.2
570.598	47272.75
570.797	47506.22
570.995	47850.28
571.193	47203.12
571.392	47481.64
571.59	47018.8
571.789	47045.43
571.987	46744.37
572.186	47096.63
572.384	46783.29
572.582	46891.83
572.781	46762.81
572.979	46418.75
573.177	46517.05
573.376	46435.13
573.574	46574.39
573.772	46578.49
573.971	46054.21
574.169	45898.56
574.367	45675.34
574.565	46109.5
574.763	45544.27
574.962	45286.22
575.16	45409.1
575.358	45437.77
575.556	45187.92
575.754	45382.48
575.952	44733.27
576.151	45525.83
576.349	44344.16
576.547	44559.19
576.745	44569.43
576.943	44710.74
577.141	44602.2
577.339	44530.52
577.537	44329.82
577.735	44254.04
577.933	44229.47
578.131	44389.21
578.329	44043.1
578.527	43344.75
578.725	43651.94
578.923	43484.01
579.121	43074.41
579.319	43385.71
579.516	43242.35
579.714	43086.7
579.912	42955.63
580.11	42902.39
580.308	43187.05
580.506	43215.72
580.704	42136.45
580.901	42847.09
581.099	42828.66
581.297	42365.82
581.495	42027.9
581.692	42417.02
581.89	42128.25
582.088	42140.54
582.285	41743.24
582.483	42023.81
582.681	41749.38
582.878	41622.4
583.076	41329.55
583.274	42066.81
583.471	40823.7
583.669	41327.5
583.866	41018.25
584.064	41266.06
584.262	40645.52
584.459	41178
584.657	40813.46
584.854	40831.89
585.052	40115.1
585.249	40477.59
585.447	40250.27
585.644	40020.89
585.841	40252.31
586.039	40301.47
586.236	39676.83
586.434	39678.88
586.631	39607.2
586.828	39711.65
587.026	39631.78
587.223	39656.35
587.42	39039.92
587.618	39076.78
587.815	38800.3
588.012	38669.23
588.21	38626.23
588.407	39046.06
588.604	37952.44
588.801	38286.26
588.999	38570.93
589.196	38304.7
589.393	38056.89
589.59	38112.19
589.787	38058.94
589.984	37581.76
590.182	37768.13
590.379	38060.99
590.576	37471.17
590.773	37293
590.97	37135.31
591.167	37213.13
591.364	36846.54
591.561	36654.03
591.758	36578.26
591.955	36961.23
592.152	36836.3
592.349	36457.43
592.546	36930.51
592.743	36498.39
592.94	35806.17
593.137	35912.67
593.334	36641.74
593.531	35941.34
593.727	36113.37
593.924	35795.93
594.121	35726.3
594.318	35955.68
594.515	35443.68
594.712	35566.56
594.908	35562.47
595.105	35267.56
595.302	34819.05
595.499	35214.31
595.696	35210.21
595.892	34784.24
596.089	35054.57
596.286	34765.81
596.482	34753.52
596.679	34360.31
596.876	34743.28
597.072	34360.31
597.269	34159.61
597.466	33887.23
597.662	33963
597.859	33948.67
598.055	33952.76
598.252	33526.78
598.448	33473.54
598.645	33557.5
598.841	33354.76
599.038	33188.87
599.234	33100.81
599.431	33037.32
599.627	32597.01
599.824	33096.71
600.02	32902.15
600.217	32810
600.413	32521.23
600.609	32089.11
600.806	32334.87
601.002	32572.43
601.198	32259.09
601.395	31806.49
601.591	31880.22
601.787	32183.32
601.984	31994.9
602.18	31910.94
602.376	31861.79
602.572	31423.52
602.769	31523.87
602.965	31519.78
603.161	31325.22
603.357	31302.69
603.553	31116.33
603.75	31400.99
603.946	31167.52
604.142	30868.52
604.338	30252.08
604.534	30948.39
604.73	30491.69
604.926	30471.22
605.122	30628.91
605.318	30080.05
605.514	29885.5
605.71	29668.41
605.906	29912.12
606.102	29717.56
606.298	29744.19
606.494	29533.25
606.69	29682.75
606.886	29471.81
607.082	29213.76
607.278	29596.73
607.474	29236.29
607.67	29408.32
607.866	28875.85
608.062	29662.27
608.257	28951.62
608.453	28822.6
608.649	29035.59
608.845	28664.91
609.041	28904.52
609.236	28820.55
609.432	28712.01
609.628	28744.78
609.824	29072.45
610.019	28509.26
610.215	28902.47
610.411	28933.19
610.606	28705.87
610.802	28509.26
610.998	28871.75
611.193	28111.96
611.389	28197.97
611.584	28183.63
611.78	27905.11
611.976	28181.59
612.171	28091.48
612.367	27962.45
612.562	27612.25
612.758	27399.26
612.953	27475.04
613.149	27683.93
613.344	27204.7
613.539	27468.89
613.735	27403.36
613.93	27630.68
614.126	27120.74
614.321	27685.98
614.517	27325.54
614.712	27124.83
614.907	27227.23
615.103	27282.53
615.298	27274.34
615.493	27403.36
615.688	27040.87
615.884	27253.86
616.079	26752.1
616.274	26825.83
616.47	26891.37
616.665	26774.63
616.86	26465.39
617.055	26862.69
617.25	26150
617.445	27214.94
617.641	25894
617.836	26360.94
618.031	26104.95
618.226	26258.54
618.421	26088.56
618.616	26225.78
618.811	25908.34
619.006	26215.54
619.201	25640.06
619.396	25814.13
619.591	25326.72
619.786	25599.1
619.981	24958.08
620.176	25640.06
620.371	25158.78
620.566	24845.44
620.761	25164.93
620.956	25187.46
621.151	24380.56
621.346	24931.46
621.541	24353.93
621.735	24583.3
621.93	23979.15
622.125	24231.05
622.32	23817.36
622.515	23737.49
622.709	24091.79
622.904	23782.55
623.099	23575.7
623.294	23731.35
623.488	23264.41
623.683	23473.31
623.878	22846.63
624.072	23223.45
624.267	23063.71
624.462	23106.72
624.656	22711.46
624.851	22654.12
625.046	22400.17
625.24	22135.98
625.435	22262.96
625.629	22054.06
625.824	21890.23
626.018	22097.07
626.213	21746.87
626.407	21566.65
626.602	21300.41
626.796	21517.5
626.991	21476.54
627.185	21175.48
627.38	21361.85
627.574	21146.81
627.768	20569.29
627.963	20964.54
628.157	20542.66
628.352	20460.74
628.546	20212.94
628.74	20561.09
628.935	20225.23
629.129	20430.02
629.323	20002
629.517	19762.39
629.712	19866.83
629.906	19731.67
630.1	19299.55
630.294	19479.77
630.489	19399.9
630.683	19512.53
630.877	19004.64
631.071	18828.51
631.265	18947.29
631.459	18701.54
631.653	18765.03
631.848	18697.44
632.042	18513.13
632.236	18457.83
632.43	18253.03
632.624	18306.28
632.818	18367.72
633.012	17945.84
633.206	17767.66
633.4	17943.79
633.594	17681.65
633.788	17732.85
633.982	17743.09
634.176	17769.71
634.369	17368.31
634.563	17341.69
634.757	17315.06
634.951	17310.97
635.145	17009.92
635.339	17290.49
635.533	16995.58
635.726	17194.23
635.92	16712.96
636.114	16809.22
636.308	16585.99
636.501	16342.28
636.695	16725.25
636.889	16465.16
637.083	16258.31
637.276	16110.86
637.47	16121.1
637.664	16088.33
637.857	15842.57
638.051	15758.61
638.244	15656.21
638.438	15729.94
638.632	15443.22
638.825	15480.08
639.019	15365.4
639.212	15375.64
639.406	15463.7
639.599	15181.08
639.793	15267.1
639.986	15013.15
640.18	15060.25
640.373	14886.17
640.567	14900.51
640.76	14855.45
640.954	14578.98
641.147	14406.95
641.34	14452
641.534	14499.11
641.727	14427.43
641.92	14267.69
642.114	14183.72
642.307	14030.12
642.5	14120.23
642.694	13950.25
642.887	13554.99
643.08	13839.66
643.273	13565.23
643.467	13796.65
643.66	13616.43
643.853	13557.04
644.046	13466.93
644.239	13423.92
644.432	13335.86
644.626	13147.45
644.819	13149.5
645.012	13149.5
645.205	13096.25
645.398	13038.91
645.591	12963.13
645.784	12780.86
645.977	12709.18
646.17	12752.19
646.363	12531.01
646.556	12221.77
646.749	12549.44
646.942	12453.19
647.135	12508.48
647.328	12551.49
647.521	12254.53
647.714	11994.44
647.907	12131.65
648.099	12123.46
648.292	12055.88
648.485	12035.4
648.678	11869.51
648.871	11857.23
649.064	11795.79
649.256	11859.28
649.449	11771.21
649.642	11500.88
649.835	11425.11
650.027	11212.12
650.22	11384.15
650.413	11281.75
650.605	11502.93
650.798	11199.83
650.991	11189.59
651.183	10995.03
651.376	11046.23
651.568	11021.66
651.761	11013.46
651.954	10980.7
652.146	11025.75
652.339	10507.62
652.531	10923.35
652.724	10732.89
652.916	10300.77
653.109	10534.24
653.301	10569.05
653.494	10431.84
653.686	10313.06
653.879	10417.51
654.071	10394.98
654.263	10245.48
654.456	10188.13
654.648	10360.16
654.84	10057.06
655.033	10081.64
655.225	9923.94
655.417	9897.32
655.61	9805.16
655.802	9966.95
655.994	9760.11
656.186	9741.68
656.379	9559.41
656.571	9962.86
656.763	9565.55
656.955	9454.96
657.148	9522.54
657.34	9614.7
657.532	9266.55
657.724	9377.14
657.916	9356.66
658.108	9213.3
658.3	9012.6
658.492	9239.92
658.684	9223.54
658.876	9172.34
659.068	9057.65
659.26	8906.1
659.452	8930.68
659.644	8994.17
659.836	8932.73
660.028	8867.19
660.22	8646.01
660.412	8795.51
660.604	8662.4
660.796	8598.91
660.988	8580.48
661.18	8746.36
661.372	8340.86
661.563	8570.24
661.755	8449.41
661.947	8484.22
662.139	8424.83
662.331	8215.94
662.522	8267.14
662.714	8271.23
662.906	8252.8
663.097	8230.27
663.289	8150.4
663.481	7953.8
663.673	8162.69
663.864	7904.65
664.056	7871.88
664.247	7902.6
664.439	7830.92
664.631	7925.13
664.822	7683.47
665.014	7980.42
665.205	7587.21
665.397	7755.15
665.588	7732.62
665.78	7550.35
665.971	7511.44
666.163	7615.88
666.354	7427.47
666.546	7593.36
666.737	7384.46
666.929	7493.01
667.12	7476.62
667.311	7462.29
667.503	7253.39
667.694	7402.9
667.885	7243.15
668.077	7157.14
668.268	7282.06
668.459	7175.57
668.651	7013.78
668.842	7075.22
669.033	7013.78
669.224	6997.4
669.416	7196.05
669.607	7044.5
669.798	7069.08
669.989	6964.63
670.18	7132.56
670.371	6935.96
670.563	6790.55
670.754	6997.4
670.945	6759.83
671.136	6641.05
671.327	6737.31
671.518	6833.56
671.709	6946.2
671.9	6888.85
672.091	6800.79
672.282	6686.11
672.473	6587.8
672.664	6833.56
672.855	6573.47
673.046	6731.16
673.237	6649.24
673.428	6483.36
673.619	6608.28
673.809	6567.32
674	6542.75
674.191	6636.95
674.382	6481.31
674.573	6385.05
674.764	6530.46
674.954	6423.97
675.145	6286.75
675.336	6436.25
675.527	6274.46
675.717	6362.53
675.908	6380.96
676.099	6387.1
676.289	6344.1
676.48	6208.93
676.671	6317.47
676.861	6479.26
677.052	6229.41
677.243	6327.71
677.433	6206.88
677.624	6331.81
677.814	6104.48
678.005	6249.89
678.195	6219.17
678.386	6157.73
678.576	6264.22
678.767	6219.17
678.957	6346.14
679.148	6376.86
679.338	6221.22
679.529	6208.93
679.719	6235.55
679.909	6161.83
680.1	6276.51
680.29	6122.91
680.481	6059.43
680.671	6043.04
680.861	6055.33
681.052	6127.01
681.242	6014.37
681.432	6206.88
681.622	5909.93
681.813	6051.24
682.003	5983.65
682.193	5957.03
682.383	6090.15
682.573	5959.08
682.764	5930.41
682.954	6079.91
683.144	5932.45
683.334	5774.76
683.524	5991.84
683.714	5891.49
683.904	5807.53
684.094	6032.8
684.284	5817.77
684.474	6018.47
684.664	5854.63
684.854	5774.76
685.044	5772.71
685.234	5727.66
685.424	5936.55
685.614	5701.03
685.804	5754.28
685.994	5832.1
686.184	5608.87
686.374	5840.29
686.564	5668.27
686.753	5797.29
686.943	5541.29
687.133	5584.3
687.323	5506.48
687.513	5658.03
687.702	5510.57
687.892	5531.05
688.082	5535.15
688.272	5363.12
688.461	5453.23
688.651	5551.53
688.841	5422.51
689.03	5264.82
689.22	5299.63
689.41	5203.38
689.599	5270.96
689.789	5291.44
689.979	5367.21
690.168	5168.56
690.358	5137.84
690.547	5182.9
690.737	5193.14
690.926	5076.4
691.116	5133.75
691.305	5135.79
691.495	5084.59
691.684	5074.35
691.874	4984.24
692.063	5041.59
692.252	5012.92
692.442	5074.35
692.631	4851.13
692.82	4875.7
693.01	4861.37
693.199	4775.35
693.388	4718.01
693.578	4840.89
693.767	4736.44
693.956	4670.9
694.146	4779.45
694.335	4738.49
694.524	4804.02
694.713	4738.49
694.902	4545.98
695.092	4763.06
695.281	4613.56
695.47	4634.04
695.659	4558.27
695.848	4634.04
696.037	4529.59
696.226	4423.1
696.415	4511.16
696.604	4564.41
696.793	4464.06
696.982	4597.18
697.171	4658.62
697.36	4492.73
697.549	4480.44
697.738	4498.88
697.927	4339.13
698.116	4586.94
698.305	4265.41
698.494	4441.53
698.683	4437.44
698.872	4527.55
699.061	4388.29
699.25	4505.02
699.438	4462.01
699.627	4455.87
699.816	4466.11
700.005	4523.45
700.193	4513.21
700.382	4316.61
700.571	4369.85
700.76	4451.77
700.948	4384.19
701.137	4404.67
701.326	4281.79
701.514	4363.71
701.703	4232.64
701.892	4332.99
702.08	4427.2
702.269	4287.93
702.457	4324.8
702.646	4363.71
702.834	4341.18
703.023	4304.32
703.212	4322.75
703.4	4427.2
703.589	4373.95
703.777	4470.2
703.965	4265.41
704.154	4341.18
704.342	4279.74
704.531	4232.64
704.719	4160.96
704.907	4472.25
705.096	4163.01
705.284	4285.89
705.472	4124.1
705.661	4236.74
705.849	4312.51
706.037	4330.94
706.226	4267.45
706.414	4271.55
706.602	4306.37
706.79	4357.57
706.979	4347.33
707.167	4404.67
707.355	4187.58
707.543	4322.75
707.731	4191.68
707.919	4398.52
708.107	4306.37
708.296	4246.98
708.484	4257.22
708.672	4253.12
708.86	4298.17
709.048	4322.75
709.236	4249.02
709.424	4423.1
709.612	4224.45
709.8	4316.61
709.988	4369.85
710.176	4437.44
710.364	4263.36
710.551	4300.22
710.739	4308.41
710.927	4376
711.115	4300.22
711.303	4398.52
711.491	4361.66
711.679	4269.5
711.866	4332.99
712.054	4171.2
712.242	4263.36
712.43	4529.59
712.617	4337.09
712.805	4312.51
712.993	4318.65
713.181	4251.07
713.368	4388.29
713.556	4343.23
713.744	4371.9
713.931	4425.15
714.119	4326.85
714.306	4400.57
714.494	4363.71
714.682	4310.46
714.869	4232.64
715.057	4269.5
715.244	4199.87
715.432	4416.96
715.619	4390.33
715.807	4261.31
715.994	4363.71
716.182	4500.92
716.369	4386.24
716.556	4478.4
716.744	4357.57
716.931	4294.08
717.119	4408.76
717.306	4455.87
717.493	4439.48
717.681	4431.29
717.868	4453.82
718.055	4378.05
718.242	4359.61
718.43	4277.69
718.617	4359.61
718.804	4257.22
718.991	4488.64
719.179	4355.52
719.366	4433.34
719.553	4388.29
719.74	4398.52
719.927	4402.62
720.114	4341.18
720.301	4378.05
720.488	4246.98
720.676	4242.88
720.863	4457.92
721.05	4494.78
721.237	4490.68
721.424	4363.71
721.611	4421.05
721.798	4289.98
721.985	4357.57
722.172	4535.74
722.358	4513.21
722.545	4384.19
722.732	4343.23
722.919	4462.01
723.106	4347.33
723.293	4349.37
723.48	4457.92
723.667	4390.33
723.853	4429.24
724.04	4529.59
724.227	4406.72
724.414	4435.39
724.6	4396.48
724.787	4513.21
724.974	4457.92
725.161	4361.66
725.347	4359.61
725.534	4371.9
725.72	4507.07
725.907	4517.31
726.094	4482.49
726.28	4378.05
726.467	4328.89
726.653	4459.96
726.84	4429.24
727.027	4568.51
727.213	4429.24
727.4	4353.47
727.586	4455.87
727.773	4435.39
727.959	4568.51
728.145	4478.4
728.332	4398.52
728.518	4373.95
728.705	4453.82
728.891	4447.68
729.077	4468.16
729.264	4349.37
729.45	4445.63
729.636	4384.19
729.823	4261.31
730.009	4435.39
730.195	4474.3
730.382	4459.96
730.568	4519.36
730.754	4445.63
730.94	4451.77
731.126	4445.63
731.313	4474.3
731.499	4402.62
731.685	4412.86
731.871	4384.19
732.057	4529.59
732.243	4416.96
732.429	4355.52
732.615	4447.68
732.801	4357.57
732.987	4521.4
733.173	4419
733.359	4578.75
733.545	4445.63
733.731	4302.27
733.917	4478.4
734.103	4447.68
734.289	4421.05
734.475	4357.57
734.661	4394.43
734.847	4505.02
735.033	4376
735.219	4433.34
735.404	4300.22
735.59	4439.48
735.776	4515.26
735.962	4412.86
736.148	4353.47
736.333	4304.32
736.519	4378.05
736.705	4351.42
736.89	4337.09
737.076	4380.09
737.262	4361.66
737.447	4357.57
737.633	4097.47
737.819	4380.09
738.004	4339.13
738.19	4322.75
738.375	4201.92
738.561	4365.76
738.747	4255.17
738.932	4066.75
739.118	4312.51
739.303	4382.14
739.489	4242.88
739.674	4353.47
739.859	4113.86
740.045	4208.06
740.23	4218.3
740.416	3995.08
740.601	4224.45
740.786	4283.84
740.972	4060.61
741.157	4087.23
741.342	4009.41
741.528	4052.42
741.713	4122.05
741.898	4064.71
742.084	4060.61
742.269	4007.36
742.454	3982.79
742.639	4142.53
742.824	3874.24
743.01	4048.32
743.195	4160.96
743.38	4017.6
743.565	3954.12
743.75	4128.19
743.935	4052.42
744.12	4025.79
744.305	3890.63
744.49	3841.48
744.675	3982.79
744.86	3878.34
745.045	3747.27
745.23	3831.24
745.415	3798.47
745.6	3835.33
745.785	3857.86
745.97	3753.41
746.155	3667.4
746.34	3771.85
746.525	3665.35
746.71	3745.22
746.895	3542.47
747.079	3579.34
747.264	3519.95
747.449	3567.05
747.634	3687.88
747.819	3577.29
748.003	3536.33
748.188	3524.04
748.373	3460.56
748.557	3474.89
748.742	3491.27
748.927	3487.18
749.111	3370.44
749.296	3454.41
749.481	3347.92
749.665	3329.49
749.85	3298.77
750.034	3358.16
750.219	3362.25
750.404	3147.22
750.588	3247.57
750.773	3136.98
750.957	3280.33
751.141	3194.32
751.326	3089.87
751.51	2950.61
751.695	3036.63
751.879	3227.09
752.064	3169.74
752.248	2913.75
752.432	3012.05
752.617	3081.68
752.801	2954.71
752.985	2903.51
753.17	3018.19
753.354	2840.02
753.538	2907.6
753.722	2913.75
753.907	2866.64
754.091	2719.19
754.275	2792.92
754.459	2768.34
754.643	2629.08
754.828	2837.97
755.012	2825.68
755.196	2739.67
755.38	2676.18
755.564	2684.38
755.748	2663.9
755.932	2672.09
756.116	2604.5
756.3	2600.41
756.484	2563.54
756.668	2561.5
756.852	2475.48
757.036	2471.39
757.22	2442.71
757.404	2520.54
757.588	2506.2
757.772	2530.78
757.956	2416.09
758.14	2422.24
758.323	2420.19
758.507	2364.89
758.691	2416.09
758.875	2323.93
759.059	2414.04
759.242	2115.04
759.426	2268.64
759.61	2299.36
759.794	2260.45
759.977	2297.31
760.161	2285.02
760.345	2356.7
760.528	2366.94
760.712	2215.39
760.895	2143.71
761.079	2053.6
761.263	2141.66
761.446	2145.76
761.63	2102.75
761.813	2192.86
761.997	2184.67
762.18	1992.16
762.364	2026.98
762.547	1918.43
762.731	2145.76
762.914	2047.46
763.098	2149.86
763.281	2000.35
763.464	1953.25
763.648	1988.07
763.831	1961.44
764.015	1992.16
764.198	2012.64
764.381	1996.26
764.564	2024.93
764.748	2031.07
764.931	1883.62
765.114	1969.63
765.297	1951.2
765.481	1865.19
765.664	1887.72
765.847	1889.76
766.03	1908.19
766.213	1867.24
766.397	1943.01
766.58	1848.8
766.763	1842.66
766.946	1793.51
767.129	1783.27
767.312	1832.42
767.495	1758.69
767.678	1799.65
767.861	1824.23
768.044	1897.96
768.227	1797.6
768.41	1824.23
768.593	1832.42
768.776	1658.34
768.959	1787.36
769.142	1803.75
769.324	1725.93
769.507	1707.49
769.69	1756.65
769.873	1705.45
770.056	1719.78
770.239	1701.35
770.421	1580.52
770.604	1658.34
770.787	1588.71
770.97	1744.36
771.152	1617.38
771.335	1545.7
771.518	1551.85
771.7	1609.19
771.883	1637.86
772.066	1574.38
772.248	1457.64
772.431	1529.32
772.613	1529.32
772.796	1514.98
772.978	1455.59
773.161	1459.69
773.343	1564.14
773.526	1488.36
773.708	1406.44
773.891	1330.67
774.073	1437.16
774.256	1312.24
774.438	1533.42
774.621	1385.96
774.803	1484.27
774.985	1365.48
775.168	1400.3
775.35	1424.87
775.532	1398.25
775.715	1377.77
775.897	1457.64
776.079	1361.39
776.261	1342.96
776.444	1336.81
776.626	1338.86
776.808	1250.8
776.99	1232.37
777.173	1279.47
777.355	1357.29
777.537	1326.57
777.719	1138.16
777.901	1222.13
778.083	1136.11
778.265	1287.66
778.447	1203.69
778.629	1146.35
778.811	1115.63
778.993	1191.41
779.175	1132.01
779.357	1168.88
779.539	1080.82
779.721	1041.9
779.903	1209.84
780.085	1185.26
780.267	1054.19
780.449	1150.45
780.631	1199.6
780.812	1111.54
780.994	1105.39
781.176	980.47
781.358	1066.48
781.54	1076.72
781.721	1091.06
781.903	1117.68
782.085	1019.38
782.267	1041.9
782.448	923.12
782.63	966.13
782.812	994.8
782.993	978.42
783.175	998.9
783.357	951.79
783.538	1013.23
783.72	927.22
783.901	900.59
784.083	910.83
784.264	951.79
784.446	921.07
784.627	855.54
784.809	890.35
784.99	951.79
785.172	888.31
785.353	833.01
785.535	959.99
785.716	851.44
785.897	857.59
786.079	884.21
786.26	857.59
786.441	857.59
786.623	835.06
786.804	744.95
786.985	798.2
787.167	812.53
787.348	837.11
787.529	826.87
787.71	857.59
787.891	724.47
788.073	796.15
788.254	699.89
788.435	747
788.616	744.95
788.797	718.33
788.978	749.04
789.159	763.38
789.34	783.86
789.522	722.42
789.703	703.99
789.884	761.33
790.065	687.61
790.246	759.28
790.427	695.8
790.607	695.8
790.788	792.05
790.969	656.89
791.15	697.85
791.331	613.88
791.512	583.16
791.693	710.13
791.874	620.02
792.054	736.76
792.235	591.35
792.416	677.37
792.597	632.31
792.778	693.75
792.958	595.45
793.139	720.37
793.32	628.21
793.5	650.74
793.681	548.34
793.862	603.64
794.042	624.12
794.223	529.91
794.404	564.73
794.584	517.62
794.765	507.38
794.945	505.34
795.126	660.98
795.306	671.22
795.487	640.5
795.667	495.1
795.848	603.64
796.028	589.3
796.209	574.97
796.389	597.49
796.57	486.9
796.75	468.47
796.93	572.92
797.111	538.1
797.291	525.82
797.471	572.92
797.652	472.57
797.832	394.75
798.012	497.14
798.192	536.06
798.373	538.1
798.553	484.86
798.733	519.67
798.913	499.19
799.093	515.58
799.274	427.51
799.454	574.97
799.634	503.29
799.814	447.99
799.994	425.47
800.174	503.29
800.354	478.71
800.534	462.33
800.714	491
800.894	374.27
801.074	404.99
801.254	433.66
801.434	454.14
801.614	525.82
801.794	417.27
801.974	1258.99
802.154	447.99
802.334	366.07
802.514	398.84
802.693	468.47
802.873	429.56
803.053	501.24
803.233	525.82
803.413	404.99
803.592	454.14
803.772	402.94
803.952	443.9
804.131	290.3
804.311	445.95
804.491	447.99
804.67	361.98
804.85	345.59
805.03	396.79
805.209	482.81
805.389	269.82
805.568	374.27
805.748	339.45
805.928	413.18
806.107	357.88
806.287	374.27
806.466	421.37
806.646	353.79
806.825	368.12
807.004	402.94
807.184	300.54
807.363	368.12
807.543	345.59
807.722	366.07
807.901	450.04
808.081	333.31
808.26	269.82
808.439	376.31
808.619	302.59
808.798	382.46
808.977	400.89
809.156	433.66
809.336	368.12
809.515	353.79
809.694	380.41
809.873	339.45
810.052	333.31
810.231	382.46
810.411	425.47
810.59	390.65
810.769	349.69
810.948	419.32
811.127	286.2
811.306	247.29
811.485	294.4
811.664	366.07
811.843	278.01
812.022	269.82
812.201	280.06
812.38	273.92
812.559	376.31
812.737	259.58
812.916	245.24
813.095	218.62
813.274	251.39
813.453	314.88
813.632	325.12
813.811	333.31
813.989	241.15
814.168	296.44
814.347	275.96
814.526	333.31
814.704	312.83
814.883	335.35
815.062	278.01
815.24	386.55
815.419	269.82
815.598	304.64
815.776	245.24
815.955	144.89
816.133	202.24
816.312	310.78
816.49	216.57
816.669	210.43
816.847	241.15
817.026	280.06
817.204	232.96
817.383	271.87
817.561	163.33
817.74	306.68
817.918	224.76
818.097	261.63
818.275	142.85
818.453	237.05
818.632	261.63
818.81	245.24
818.988	200.19
819.167	202.24
819.345	243.2
819.523	245.24
819.701	278.01
819.879	212.48
820.058	228.86
820.236	241.15
820.414	177.66
820.592	189.95
820.77	220.67
820.948	210.43
821.127	155.13
821.305	230.91
821.483	206.33
821.661	267.77
821.839	194.05
822.017	187.9
822.195	212.48
822.373	218.62
822.551	179.71
822.729	243.2
822.907	220.67
823.085	206.33
823.262	161.28
823.44	245.24
823.618	136.7
823.796	206.33
823.974	181.76
824.152	210.43
824.329	144.89
824.507	210.43
824.685	189.95
824.863	185.85
825.04	171.52
825.218	284.16
825.396	173.57
825.574	187.9
825.751	247.29
825.929	212.48
826.107	185.85
826.284	177.66
826.462	185.85
826.639	120.32
826.817	128.51
826.994	202.24
827.172	202.24
827.349	253.44
827.527	226.81
827.704	169.47
827.882	280.06
828.059	204.28
828.237	99.84
828.414	204.28
828.591	110.08
828.769	122.37
828.946	171.52
829.124	226.81
829.301	214.52
829.478	179.71
829.655	130.56
829.833	165.37
830.01	44.54
830.187	226.81
830.364	185.85
830.542	183.81
830.719	169.47
830.896	222.72
831.073	171.52
831.25	151.04
831.427	155.13
831.604	142.85
831.782	192
831.959	159.23
832.136	163.33
832.313	185.85
832.49	132.61
832.667	65.02
832.844	155.13
833.021	220.67
833.198	169.47
833.374	110.08
833.551	142.85
833.728	128.51
833.905	116.22
834.082	122.37
834.259	151.04
834.436	216.57
834.612	97.79
834.789	157.18
834.966	114.17
835.143	163.33
835.319	50.69
835.496	101.89
835.673	108.03
835.85	212.48
836.026	171.52
836.203	142.85
836.38	99.84
836.556	105.98
836.733	69.12
836.909	181.76
837.086	79.36
837.262	-2.56
837.439	103.93
837.616	128.51
837.792	153.09
837.968	116.22
838.145	85.5
838.321	71.17
838.498	38.4
838.674	69.12
838.851	138.75
839.027	132.61
839.203	79.36
839.38	134.65
839.556	128.51
839.732	101.89
839.909	155.13
840.085	83.45
840.261	128.51
840.437	144.89
840.614	69.12
840.79	101.89
840.966	99.84
841.142	138.75
841.318	204.28
841.494	116.22
841.671	157.18
841.847	142.85
842.023	46.59
842.199	148.99
842.375	198.14
842.551	40.45
842.727	136.7
842.903	128.51
843.079	103.93
843.255	122.37
843.431	120.32
843.607	56.83
843.783	-68.09
843.959	40.45
844.134	130.56
844.31	114.17
844.486	91.65
844.662	40.45
844.838	79.36
845.013	105.98
845.189	62.98
845.365	105.98
845.541	62.98
845.716	171.52
845.892	87.55
846.068	132.61
846.244	99.84
846.419	93.69
846.595	58.88
846.77	46.59
846.946	95.74
847.122	1.54
847.297	99.84
847.473	118.27
847.648	-4.61
847.824	165.37
847.999	-0.51
848.175	32.26
848.35	56.83
848.526	89.6
848.701	52.74
848.876	40.45
849.052	58.88
849.227	99.84
849.403	116.22
849.578	73.21
849.753	34.3
849.929	132.61
850.104	3.58
850.279	93.69
850.454	71.17
850.63	146.94
850.805	28.16
850.98	91.65
851.155	42.5
851.33	112.13
851.505	17.92
851.681	163.33
851.856	46.59
852.031	112.13
852.206	142.85
852.381	91.65
852.556	38.4
852.731	108.03
852.906	218.62
853.081	93.69
853.256	28.16
853.431	122.37
853.606	97.79
853.781	11.78
853.956	13.82
854.131	91.65
854.305	67.07
854.48	42.5
854.655	62.98
854.83	69.12
855.005	1.54
855.18	58.88
855.354	-8.7
855.529	71.17
855.704	124.41
855.879	101.89
856.053	5.63
856.228	118.27
856.403	97.79
856.577	1.54
856.752	62.98
856.926	48.64
857.101	58.88
857.276	44.54
857.45	24.06
857.625	79.36
857.799	9.73
857.974	-0.51
858.148	-2.56
858.323	75.26
858.497	11.78
858.672	36.35
858.846	58.88
859.02	79.36
859.195	15.87
859.369	103.93
859.543	103.93
859.718	30.21
859.892	54.78
860.066	112.13
860.241	-18.94
860.415	42.5
860.589	-8.7
860.763	15.87
860.938	71.17
861.112	95.74
861.286	103.93
861.46	26.11
861.634	19.97
861.808	73.21
861.982	17.92
862.157	42.5
862.331	24.06
862.505	38.4
862.679	22.02
862.853	132.61
863.027	36.35
863.201	114.17
863.375	69.12
863.549	108.03
863.722	87.55
863.896	87.55
864.07	52.74
864.244	81.41
864.418	54.78
864.592	97.79
864.766	48.64
864.939	5.63
865.113	52.74
865.287	146.94
865.461	48.64
865.634	65.02
865.808	58.88
865.982	11.78
866.156	87.55
866.329	67.07
866.503	148.99
866.676	122.37
866.85	-23.04
867.024	91.65
867.197	30.21
867.371	89.6
867.544	69.12
867.718	-59.9
867.891	97.79
868.065	26.11
868.238	5.63
868.412	144.89
868.585	87.55
868.759	46.59
868.932	-0.51
869.105	15.87
869.279	40.45
869.452	-2.56
869.625	103.93
869.799	30.21
869.972	28.16
870.145	-41.47
870.319	71.17
870.492	-33.28
870.665	-4.61
870.838	38.4
871.011	-31.23
871.185	7.68
871.358	50.69
871.531	112.13
871.704	24.06
871.877	-12.8
872.05	-35.33
872.223	3.58
872.396	112.13
872.569	44.54
872.742	-4.61
872.915	-18.94
873.088	38.4
873.261	30.21
873.434	103.93
873.607	-14.85
873.78	48.64
873.953	1.54
874.126	19.97
874.299	89.6
874.471	85.5
874.644	54.78
874.817	34.3
874.99	81.41
875.163	38.4
875.335	67.07
875.508	1.54
875.681	93.69
875.853	34.3
876.026	38.4
876.199	15.87
876.371	11.78
876.544	52.74
876.717	26.11
876.889	-55.81
877.062	13.82
877.234	5.63
877.407	-0.51
877.579	34.3
877.752	97.79
877.924	67.07
878.097	67.07
878.269	-27.14
878.442	83.45
878.614	-4.61
878.786	54.78
878.959	40.45
879.131	22.02
879.303	-64
879.476	-16.9
879.648	54.78
879.82	34.3
879.993	-29.18
880.165	-0.51
880.337	38.4
880.509	17.92
880.681	-41.47
880.854	-20.99
881.026	60.93
881.198	54.78
881.37	-2.56
881.542	22.02
881.714	1.54
881.886	24.06
882.058	-12.8
882.23	56.83
882.402	60.93
882.574	24.06
882.746	56.83
882.918	50.69
883.09	130.56
883.262	83.45
883.434	79.36
883.606	13.82
883.778	22.02
883.95	-10.75
884.122	11.78
884.293	65.02
884.465	22.02
884.637	9.73
884.809	-8.7
884.98	73.21
885.152	9.73
885.324	95.74
885.496	5.63
885.667	56.83
885.839	19.97
886.011	95.74
886.182	34.3
886.354	114.17
886.525	81.41
886.697	38.4
886.869	-18.94
887.04	-6.66
887.212	116.22
887.383	95.74
887.555	1.54
887.726	28.16
887.897	-16.9
888.069	-39.42
888.24	22.02
888.412	87.55
888.583	-31.23
888.754	22.02
888.926	-18.94
889.097	3.58
889.268	-20.99
889.44	-10.75
889.611	-59.9
889.782	24.06
889.953	24.06
890.125	142.85
890.296	-6.66
890.467	85.5
890.638	73.21
890.809	26.11
890.98	26.11
891.151	120.32
891.323	85.5
891.494	38.4
891.665	15.87
891.836	52.74
892.007	77.31
892.178	-2.56
892.349	138.75
892.52	-84.48
892.691	-43.52
892.862	-29.18
893.032	-117.25
893.203	32.26
893.374	36.35
893.545	32.26
893.716	40.45
893.887	13.82
894.057	-39.42
894.228	42.5
894.399	24.06
894.57	67.07
894.74	40.45
894.911	13.82
895.082	19.97
895.253	-59.9
895.423	3.58
895.594	75.26
895.764	34.3
895.935	38.4
896.106	-4.61
896.276	-16.9
896.447	50.69
896.617	1.54
896.788	1.54
896.958	-27.14
897.129	-14.85
897.299	-10.75
897.47	-0.51
897.64	46.59
897.81	42.5
897.981	7.68
898.151	36.35
898.322	-20.99
898.492	-0.51
898.662	26.11
898.832	3.58
899.003	-0.51
899.173	67.07
899.343	-18.94
899.513	-61.95
