Data from USB4F104151__16__13-04-30-569.txt Node

Date: Fri Mar 14 13:04:30 EDT 2025
User: louis
Spectrometer: USB4F10415
Trigger mode: 4
Integration Time (sec): 4.000000E-2
Scans to average: 1
Electric dark correction enabled: true
Nonlinearity correction enabled: false
Boxcar width: 0
XAxis mode: Wavelengths
Number of Pixels in Spectrum: 3648
>>>>>Begin Spectral Data<<<<<
178.204	-176.98
178.424	-176.98
178.644	-176.98
178.864	-164.69
179.084	-164.69
179.304	-2.9
179.524	-25.43
179.744	-15.19
179.964	-4.95
180.184	-41.81
180.404	76.97
180.624	83.11
180.844	-23.38
181.064	-54.1
181.283	9.39
181.503	23.72
181.723	-25.43
181.943	-23.38
182.163	44.2
182.383	46.25
182.602	38.06
182.822	70.83
183.042	72.87
183.262	-35.67
183.482	40.11
183.701	-50
183.921	40.11
184.141	-31.57
184.361	21.67
184.58	33.96
184.8	66.73
185.02	85.16
185.239	-9.05
185.459	19.63
185.679	64.68
185.898	13.48
186.118	101.55
186.338	-17.24
186.557	42.15
186.777	-41.81
186.997	7.34
187.216	-27.48
187.436	109.74
187.655	60.59
187.875	48.3
188.095	-23.38
188.314	60.59
188.534	109.74
188.753	27.82
188.973	-39.76
189.192	89.26
189.412	85.16
189.631	48.3
189.851	38.06
190.07	81.07
190.29	3.24
190.509	19.63
190.729	38.06
190.948	113.83
191.168	177.32
191.387	15.53
191.607	-21.33
191.826	46.25
192.045	3.24
192.265	31.91
192.484	29.87
192.704	-13.14
192.923	15.53
193.142	171.18
193.362	21.67
193.581	146.6
193.8	83.11
194.02	152.74
194.239	15.53
194.458	52.39
194.678	46.25
194.897	-39.76
195.116	36.01
195.335	74.92
195.555	72.87
195.774	-33.62
195.993	36.01
196.212	-29.52
196.432	27.82
196.651	7.34
196.87	-31.57
197.089	95.4
197.308	15.53
197.528	81.07
197.747	-27.48
197.966	48.3
198.185	25.77
198.404	3.24
198.623	72.87
198.842	50.35
199.062	97.45
199.281	105.64
199.5	-4.95
199.719	3.24
199.938	134.31
200.157	46.25
200.376	72.87
200.595	89.26
200.814	42.15
201.033	-0.85
201.252	146.6
201.471	38.06
201.69	87.21
201.909	46.25
202.128	23.72
202.347	72.87
202.566	23.72
202.785	52.39
203.004	-0.85
203.223	60.59
203.442	81.07
203.661	40.11
203.879	7.34
204.098	33.96
204.317	13.48
204.536	50.35
204.755	72.87
204.974	130.22
205.193	58.54
205.411	199.85
205.63	60.59
205.849	64.68
206.068	-2.9
206.287	79.02
206.505	29.87
206.724	50.35
206.943	-9.05
207.162	-19.29
207.381	7.34
207.599	66.73
207.818	50.35
208.037	21.67
208.255	17.58
208.474	33.96
208.693	9.39
208.911	54.44
209.13	15.53
209.349	107.69
209.567	56.49
209.786	91.31
210.005	52.39
210.223	3.24
210.442	-0.85
210.661	7.34
210.879	17.58
211.098	56.49
211.316	-39.76
211.535	64.68
211.753	-13.14
211.972	27.82
212.191	-13.14
212.409	-17.24
212.628	-7
212.846	27.82
213.065	119.98
213.283	134.31
213.502	54.44
213.72	25.77
213.938	-9.05
214.157	9.39
214.375	124.07
214.594	-17.24
214.812	21.67
215.031	23.72
215.249	38.06
215.467	79.02
215.686	-41.81
215.904	48.3
216.122	-47.96
216.341	68.78
216.559	99.5
216.778	93.35
216.996	48.3
217.214	103.59
217.432	-17.24
217.651	50.35
217.869	33.96
218.087	46.25
218.306	60.59
218.524	56.49
218.742	-29.52
218.96	56.49
219.179	38.06
219.397	66.73
219.615	113.83
219.833	70.83
220.051	23.72
220.27	85.16
220.488	70.83
220.706	25.77
220.924	48.3
221.142	23.72
221.36	23.72
221.578	56.49
221.796	-15.19
222.015	17.58
222.233	36.01
222.451	101.55
222.669	-93.01
222.887	68.78
223.105	-25.43
223.323	-0.85
223.541	19.63
223.759	-23.38
223.977	17.58
224.195	68.78
224.413	93.35
224.631	97.45
224.849	52.39
225.067	68.78
225.285	46.25
225.503	-19.29
225.721	-37.72
225.939	42.15
226.157	-47.96
226.375	124.07
226.592	29.87
226.81	7.34
227.028	-9.05
227.246	136.36
227.464	58.54
227.682	48.3
227.9	48.3
228.117	83.11
228.335	42.15
228.553	36.01
228.771	64.68
228.989	54.44
229.206	113.83
229.424	11.43
229.642	13.48
229.86	9.39
230.077	107.69
230.295	13.48
230.513	25.77
230.731	-21.33
230.948	3.24
231.166	109.74
231.384	-11.09
231.601	36.01
231.819	126.12
232.037	-0.85
232.254	-21.33
232.472	107.69
232.689	-19.29
232.907	83.11
233.125	-50
233.342	17.58
233.56	-39.76
233.777	27.82
233.995	97.45
234.213	95.4
234.43	-15.19
234.648	38.06
234.865	48.3
235.083	15.53
235.3	13.48
235.518	27.82
235.735	122.02
235.953	87.21
236.17	89.26
236.388	-23.38
236.605	50.35
236.822	113.83
237.04	50.35
237.257	17.58
237.475	-45.91
237.692	83.11
237.909	9.39
238.127	70.83
238.344	56.49
238.562	17.58
238.779	-13.14
238.996	23.72
239.214	48.3
239.431	50.35
239.648	-2.9
239.865	111.78
240.083	42.15
240.3	15.53
240.517	38.06
240.735	66.73
240.952	140.46
241.169	54.44
241.386	38.06
241.603	-66.39
241.821	29.87
242.038	60.59
242.255	7.34
242.472	-64.34
242.689	17.58
242.907	50.35
243.124	54.44
243.341	-52.05
243.558	40.11
243.775	38.06
243.992	-35.67
244.209	109.74
244.426	136.36
244.643	17.58
244.86	23.72
245.078	40.11
245.295	-7
245.512	50.35
245.729	-11.09
245.946	-4.95
246.163	97.45
246.38	11.43
246.597	64.68
246.814	72.87
247.031	64.68
247.248	31.91
247.464	72.87
247.681	33.96
247.898	17.58
248.115	109.74
248.332	-54.1
248.549	58.54
248.766	31.91
248.983	85.16
249.2	15.53
249.417	83.11
249.633	-25.43
249.85	91.31
250.067	46.25
250.284	-35.67
250.501	60.59
250.717	-15.19
250.934	-2.9
251.151	-29.52
251.368	46.25
251.585	72.87
251.801	27.82
252.018	-54.1
252.235	7.34
252.451	-31.57
252.668	25.77
252.885	113.83
253.102	38.06
253.318	-21.33
253.535	27.82
253.752	64.68
253.968	54.44
254.185	-33.62
254.401	-4.95
254.618	50.35
254.835	58.54
255.051	46.25
255.268	44.2
255.484	15.53
255.701	40.11
255.917	101.55
256.134	11.43
256.351	27.82
256.567	9.39
256.784	81.07
257	-31.57
257.217	101.55
257.433	-13.14
257.65	130.22
257.866	56.49
258.082	-35.67
258.299	-76.63
258.515	11.43
258.732	17.58
258.948	3.24
259.165	85.16
259.381	33.96
259.597	56.49
259.814	56.49
260.03	54.44
260.246	40.11
260.463	81.07
260.679	76.97
260.895	-33.62
261.112	9.39
261.328	23.72
261.544	38.06
261.761	128.17
261.977	40.11
262.193	40.11
262.409	142.5
262.626	23.72
262.842	97.45
263.058	-17.24
263.274	124.07
263.49	-2.9
263.707	58.54
263.923	3.24
264.139	-64.34
264.355	1.19
264.571	60.59
264.787	13.48
265.004	15.53
265.22	105.64
265.436	-0.85
265.652	9.39
265.868	42.15
266.084	-9.05
266.3	-0.85
266.516	13.48
266.732	15.53
266.948	87.21
267.164	48.3
267.38	103.59
267.596	-9.05
267.812	44.2
268.028	29.87
268.244	-41.81
268.46	33.96
268.676	29.87
268.892	33.96
269.108	15.53
269.324	3.24
269.54	15.53
269.756	44.2
269.972	21.67
270.188	76.97
270.403	-13.14
270.619	81.07
270.835	56.49
271.051	-45.91
271.267	25.77
271.483	44.2
271.698	-2.9
271.914	11.43
272.13	48.3
272.346	62.63
272.562	60.59
272.777	56.49
272.993	-54.1
273.209	-17.24
273.425	42.15
273.64	-29.52
273.856	48.3
274.072	46.25
274.287	7.34
274.503	76.97
274.719	62.63
274.934	89.26
275.15	-17.24
275.366	33.96
275.581	-31.57
275.797	36.01
276.012	-21.33
276.228	-15.19
276.444	27.82
276.659	40.11
276.875	1.19
277.09	15.53
277.306	93.35
277.521	9.39
277.737	38.06
277.952	36.01
278.168	-7
278.383	42.15
278.599	74.92
278.814	36.01
279.03	48.3
279.245	113.83
279.461	-15.19
279.676	42.15
279.892	5.29
280.107	38.06
280.322	-21.33
280.538	101.55
280.753	58.54
280.969	29.87
281.184	13.48
281.399	97.45
281.615	40.11
281.83	48.3
282.045	17.58
282.26	23.72
282.476	85.16
282.691	89.26
282.906	21.67
283.122	29.87
283.337	-11.09
283.552	74.92
283.767	-11.09
283.983	62.63
284.198	36.01
284.413	42.15
284.628	-66.39
284.843	81.07
285.058	40.11
285.274	97.45
285.489	19.63
285.704	52.39
285.919	38.06
286.134	64.68
286.349	54.44
286.564	-47.96
286.779	109.74
286.995	72.87
287.21	-33.62
287.425	66.73
287.64	-33.62
287.855	56.49
288.07	-50
288.285	72.87
288.5	33.96
288.715	56.49
288.93	72.87
289.145	-9.05
289.36	48.3
289.575	-13.14
289.79	54.44
290.004	56.49
290.219	19.63
290.434	87.21
290.649	23.72
290.864	1.19
291.079	-39.76
291.294	62.63
291.509	93.35
291.724	-15.19
291.938	19.63
292.153	3.24
292.368	-13.14
292.583	15.53
292.798	54.44
293.012	36.01
293.227	56.49
293.442	-17.24
293.657	97.45
293.871	62.63
294.086	54.44
294.301	89.26
294.516	64.68
294.73	48.3
294.945	17.58
295.16	-23.38
295.374	29.87
295.589	117.93
295.804	-17.24
296.018	-4.95
296.233	79.02
296.447	31.91
296.662	40.11
296.877	44.2
297.091	13.48
297.306	46.25
297.52	-17.24
297.735	-4.95
297.949	74.92
298.164	44.2
298.378	-2.9
298.593	25.77
298.807	-31.57
299.022	1.19
299.236	107.69
299.451	7.34
299.665	66.73
299.88	36.01
300.094	50.35
300.309	23.72
300.523	31.91
300.737	107.69
300.952	36.01
301.166	46.25
301.381	5.29
301.595	11.43
301.809	15.53
302.024	58.54
302.238	-13.14
302.452	95.4
302.667	97.45
302.881	44.2
303.095	89.26
303.309	56.49
303.524	-4.95
303.738	72.87
303.952	-23.38
304.166	60.59
304.381	-115.54
304.595	83.11
304.809	-7
305.023	23.72
305.237	93.35
305.452	60.59
305.666	62.63
305.88	62.63
306.094	17.58
306.308	23.72
306.522	148.65
306.736	103.59
306.95	-4.95
307.164	97.45
307.379	40.11
307.593	91.31
307.807	87.21
308.021	66.73
308.235	101.55
308.449	15.53
308.663	-0.85
308.877	99.5
309.091	-19.29
309.305	101.55
309.519	-21.33
309.733	48.3
309.947	-19.29
310.161	17.58
310.374	23.72
310.588	68.78
310.802	19.63
311.016	23.72
311.23	66.73
311.444	68.78
311.658	42.15
311.872	130.22
312.085	81.07
312.299	31.91
312.513	56.49
312.727	23.72
312.941	-19.29
313.154	13.48
313.368	-0.85
313.582	31.91
313.796	-0.85
314.009	25.77
314.223	83.11
314.437	52.39
314.651	42.15
314.864	33.96
315.078	-0.85
315.292	36.01
315.505	33.96
315.719	60.59
315.933	60.59
316.146	-47.96
316.36	50.35
316.573	29.87
316.787	21.67
317.001	21.67
317.214	-11.09
317.428	64.68
317.641	-17.24
317.855	42.15
318.068	64.68
318.282	-37.72
318.495	179.37
318.709	66.73
318.922	-7
319.136	140.46
319.349	21.67
319.563	-17.24
319.776	5.29
319.99	17.58
320.203	103.59
320.417	40.11
320.63	76.97
320.843	148.65
321.057	64.68
321.27	81.07
321.483	85.16
321.697	122.02
321.91	79.02
322.124	93.35
322.337	-11.09
322.55	64.68
322.763	89.26
322.977	52.39
323.19	-15.19
323.403	52.39
323.617	44.2
323.83	79.02
324.043	33.96
324.256	87.21
324.469	-43.86
324.683	146.6
324.896	36.01
325.109	105.64
325.322	33.96
325.535	109.74
325.748	1.19
325.962	29.87
326.175	87.21
326.388	36.01
326.601	40.11
326.814	103.59
327.027	122.02
327.24	93.35
327.453	-23.38
327.666	60.59
327.879	79.02
328.092	138.41
328.305	93.35
328.518	66.73
328.731	-37.72
328.944	7.34
329.157	46.25
329.37	56.49
329.583	105.64
329.796	160.94
330.009	9.39
330.222	5.29
330.435	109.74
330.648	58.54
330.861	74.92
331.073	76.97
331.286	60.59
331.499	50.35
331.712	-33.62
331.925	19.63
332.138	81.07
332.35	101.55
332.563	-25.43
332.776	115.88
332.989	-15.19
333.202	31.91
333.414	70.83
333.627	15.53
333.84	17.58
334.053	81.07
334.265	7.34
334.478	17.58
334.691	56.49
334.903	3.24
335.116	33.96
335.329	27.82
335.541	66.73
335.754	83.11
335.966	-47.96
336.179	72.87
336.392	107.69
336.604	38.06
336.817	60.59
337.029	60.59
337.242	87.21
337.454	89.26
337.667	119.98
337.88	68.78
338.092	44.2
338.305	85.16
338.517	-13.14
338.729	97.45
338.942	68.78
339.154	52.39
339.367	9.39
339.579	66.73
339.792	46.25
340.004	44.2
340.217	21.67
340.429	93.35
340.641	-13.14
340.854	76.97
341.066	-13.14
341.278	74.92
341.491	128.17
341.703	25.77
341.915	15.53
342.128	113.83
342.34	19.63
342.552	48.3
342.764	29.87
342.977	46.25
343.189	87.21
343.401	54.44
343.613	-19.29
343.826	5.29
344.038	99.5
344.25	19.63
344.462	62.63
344.674	68.78
344.886	62.63
345.099	48.3
345.311	79.02
345.523	31.91
345.735	1.19
345.947	117.93
346.159	64.68
346.371	-31.57
346.583	38.06
346.795	109.74
347.007	40.11
347.219	91.31
347.431	70.83
347.643	29.87
347.855	-45.91
348.067	89.26
348.279	-19.29
348.491	27.82
348.703	5.29
348.915	-9.05
349.127	40.11
349.339	85.16
349.551	31.91
349.763	68.78
349.975	33.96
350.187	89.26
350.399	83.11
350.61	93.35
350.822	-17.24
351.034	-9.05
351.246	68.78
351.458	101.55
351.669	160.94
351.881	134.31
352.093	38.06
352.305	150.7
352.517	66.73
352.728	156.84
352.94	7.34
353.152	95.4
353.363	1.19
353.575	44.2
353.787	91.31
353.999	-37.72
354.21	148.65
354.422	-7
354.633	23.72
354.845	109.74
355.057	36.01
355.268	31.91
355.48	38.06
355.692	7.34
355.903	3.24
356.115	-35.67
356.326	-52.05
356.538	64.68
356.749	81.07
356.961	130.22
357.172	50.35
357.384	9.39
357.595	124.07
357.807	33.96
358.018	36.01
358.23	-4.95
358.441	158.89
358.653	126.12
358.864	19.63
359.075	48.3
359.287	27.82
359.498	79.02
359.709	70.83
359.921	58.54
360.132	64.68
360.344	33.96
360.555	60.59
360.766	81.07
360.977	81.07
361.189	79.02
361.4	33.96
361.611	128.17
361.823	179.37
362.034	44.2
362.245	-31.57
362.456	85.16
362.667	60.59
362.879	81.07
363.09	111.78
363.301	113.83
363.512	11.43
363.723	48.3
363.935	107.69
364.146	50.35
364.357	72.87
364.568	19.63
364.779	83.11
364.99	91.31
365.201	58.54
365.412	140.46
365.623	25.77
365.834	36.01
366.045	58.54
366.256	64.68
366.467	58.54
366.678	-25.43
366.889	-4.95
367.1	50.35
367.311	64.68
367.522	-9.05
367.733	60.59
367.944	91.31
368.155	52.39
368.366	79.02
368.577	122.02
368.788	189.61
368.999	33.96
369.209	83.11
369.42	117.93
369.631	126.12
369.842	87.21
370.053	11.43
370.264	52.39
370.474	52.39
370.685	50.35
370.896	113.83
371.107	136.36
371.317	21.67
371.528	36.01
371.739	17.58
371.95	89.26
372.16	87.21
372.371	23.72
372.582	101.55
372.792	113.83
373.003	126.12
373.214	68.78
373.424	105.64
373.635	23.72
373.846	191.66
374.056	21.67
374.267	68.78
374.477	56.49
374.688	50.35
374.898	70.83
375.109	66.73
375.319	66.73
375.53	99.5
375.74	36.01
375.951	81.07
376.161	101.55
376.372	62.63
376.582	27.82
376.793	56.49
377.003	40.11
377.214	68.78
377.424	29.87
377.635	89.26
377.845	27.82
378.055	113.83
378.266	15.53
378.476	83.11
378.686	17.58
378.897	40.11
379.107	91.31
379.317	130.22
379.528	9.39
379.738	105.64
379.948	115.88
380.158	140.46
380.369	79.02
380.579	-41.81
380.789	27.82
380.999	124.07
381.21	74.92
381.42	101.55
381.63	13.48
381.84	68.78
382.05	72.87
382.261	109.74
382.471	74.92
382.681	25.77
382.891	142.5
383.101	122.02
383.311	58.54
383.521	68.78
383.731	119.98
383.941	105.64
384.151	-4.95
384.361	19.63
384.571	60.59
384.781	95.4
384.991	144.55
385.201	130.22
385.411	76.97
385.621	66.73
385.831	60.59
386.041	113.83
386.251	115.88
386.461	119.98
386.671	95.4
386.881	97.45
387.091	85.16
387.301	93.35
387.511	13.48
387.72	91.31
387.93	93.35
388.14	27.82
388.35	11.43
388.56	124.07
388.769	79.02
388.979	50.35
389.189	81.07
389.399	56.49
389.609	89.26
389.818	152.74
390.028	97.45
390.238	68.78
390.447	-0.85
390.657	83.11
390.867	111.78
391.076	79.02
391.286	52.39
391.496	31.91
391.705	105.64
391.915	162.98
392.125	89.26
392.334	117.93
392.544	138.41
392.753	105.64
392.963	101.55
393.172	27.82
393.382	-47.96
393.591	119.98
393.801	83.11
394.01	197.8
394.22	62.63
394.429	72.87
394.639	48.3
394.848	160.94
395.058	76.97
395.267	89.26
395.477	66.73
395.686	31.91
395.895	160.94
396.105	187.56
396.314	62.63
396.524	56.49
396.733	72.87
396.942	97.45
397.152	148.65
397.361	156.84
397.57	87.21
397.78	83.11
397.989	115.88
398.198	154.79
398.407	72.87
398.617	97.45
398.826	81.07
399.035	60.59
399.244	68.78
399.453	83.11
399.663	91.31
399.872	171.18
400.081	60.59
400.29	167.08
400.499	83.11
400.708	111.78
400.917	76.97
401.127	160.94
401.336	107.69
401.545	140.46
401.754	246.95
401.963	224.42
402.172	138.41
402.381	138.41
402.59	115.88
402.799	154.79
403.008	152.74
403.217	197.8
403.426	203.94
403.635	134.31
403.844	179.37
404.053	85.16
404.262	171.18
404.471	193.7
404.68	197.8
404.888	179.37
405.097	236.71
405.306	167.08
405.515	156.84
405.724	222.38
405.933	201.9
406.142	232.62
406.35	279.72
406.559	189.61
406.768	214.18
406.977	238.76
407.185	222.38
407.394	216.23
407.603	191.66
407.812	214.18
408.02	347.3
408.229	273.57
408.438	238.76
408.646	167.08
408.855	310.44
409.064	289.96
409.272	257.19
409.481	335.01
409.69	267.43
409.898	306.34
410.107	382.12
410.315	404.64
410.524	332.97
410.733	470.18
410.941	306.34
411.15	468.13
411.358	443.56
411.567	504.99
411.775	433.32
411.984	468.13
412.192	541.86
412.401	562.34
412.609	648.35
412.818	638.11
413.026	611.49
413.234	578.72
413.443	623.78
413.651	568.48
413.86	715.94
414.068	736.42
414.276	742.56
414.485	715.94
414.693	777.37
414.901	863.39
415.11	896.16
415.318	814.24
415.526	949.4
415.734	894.11
415.943	857.25
416.151	1021.08
416.359	943.26
416.567	926.88
416.776	1139.87
416.984	1193.11
417.192	1272.98
417.4	1232.02
417.608	1195.16
417.817	1240.22
418.025	1260.7
418.233	1334.42
418.441	1287.32
418.649	1424.53
418.857	1528.98
419.065	1635.47
419.273	1524.88
419.481	1604.75
419.689	1739.92
419.897	1741.97
420.105	1868.94
420.313	1784.98
420.521	1979.53
420.729	2045.07
420.937	1969.29
421.145	2104.46
421.353	2219.14
421.561	2243.72
421.769	2321.54
421.977	2323.59
422.185	2497.67
422.393	2550.92
422.601	2772.1
422.809	2671.75
423.017	2684.03
423.224	2890.88
423.432	3054.72
423.64	2950.27
423.848	3300.47
424.056	3271.8
424.263	3472.5
424.471	3529.84
424.679	3531.89
424.887	3556.47
425.094	3716.21
425.302	3708.02
425.51	3816.56
425.718	4160.62
425.925	4002.93
426.133	4351.08
426.341	4482.15
426.548	4734.05
426.756	4766.82
426.964	4895.84
427.171	5125.21
427.379	5137.5
427.586	5219.42
427.794	5389.4
428.001	5588.05
428.209	5909.58
428.417	5807.19
428.624	6378.57
428.832	6206.54
429.039	6257.74
429.247	6272.07
429.454	6818.88
429.662	7308.35
429.869	6747.2
430.076	7398.46
430.284	6890.56
430.491	7461.94
430.699	7928.88
430.906	7881.78
431.114	8006.7
431.321	8201.26
431.528	8457.26
431.736	8901.67
431.943	9356.32
432.15	9038.88
432.358	9116.7
432.565	9495.58
432.772	9524.25
432.979	10124.3
433.187	10288.14
433.394	10322.96
433.601	10984.45
433.808	11181.06
434.016	11023.36
434.223	11465.72
434.43	12164.08
434.637	11903.99
434.844	12684.27
435.052	12884.97
435.259	12903.4
435.466	12932.07
435.673	12852.2
435.88	13741.02
436.087	14482.38
436.294	14470.09
436.501	13990.87
436.708	14347.22
436.915	14658.51
437.122	15385.54
437.329	15530.94
437.537	15973.3
437.743	16321.46
437.95	16243.63
438.157	16972.71
438.364	17415.07
438.571	17494.94
438.778	17699.74
438.985	19004.3
439.192	18385.81
439.399	19104.65
439.606	18494.35
439.813	19934.07
440.02	20794.22
440.227	20501.36
440.433	20530.03
440.64	20951.91
440.847	20638.58
441.054	21453.67
441.261	23065.42
441.467	22348.63
441.674	23149.39
441.881	24013.63
442.088	23780.16
442.294	23329.61
442.501	24050.49
442.708	24585.01
442.914	25746.21
443.121	26888.98
443.328	26180.38
443.534	27607.81
443.741	27093.77
443.948	26731.28
444.154	28683
444.361	28617.46
444.568	28383.99
444.774	28812.02
444.981	28732.15
445.187	29700.84
445.394	31019.73
445.6	30733.01
445.807	33573.55
446.013	32627.38
446.22	33061.55
446.426	33782.44
446.633	34620.06
446.839	36219.52
447.046	34380.45
447.252	36139.65
447.459	36262.53
447.665	36002.44
447.871	37669.48
448.078	39111.25
448.284	37024.37
448.491	38494.82
448.697	39782.99
448.903	40741.44
449.11	40720.96
449.316	40047.18
449.522	41060.92
449.728	42089
449.935	42304.04
450.141	41951.79
450.347	43379.22
450.553	42254.89
450.76	41998.89
450.966	43678.22
451.172	43416.08
451.378	44679.68
451.584	44010
451.791	44519.94
451.997	44476.93
452.203	45423.09
452.409	45408.76
452.615	44933.63
452.821	43403.8
453.027	43348.5
453.233	45494.77
453.44	43543.06
453.646	44292.61
453.852	44440.07
454.058	44917.25
454.264	43500.05
454.47	44562.95
454.676	43244.05
454.882	45251.06
455.088	41177.65
455.294	41800.24
455.5	42564.13
455.705	42994.2
455.911	41226.81
456.117	40583.74
456.323	40137.29
456.529	37993.06
456.735	39686.73
456.941	38507.1
457.147	38191.72
457.352	37057.14
457.558	36590.2
457.764	36221.57
457.97	35861.13
458.176	34914.97
458.381	34955.93
458.587	33231.54
458.793	33551.02
458.999	31746.76
459.204	33925.8
459.41	33069.75
459.616	31191.76
459.821	30855.89
460.027	30837.46
460.233	30055.14
460.438	28494.58
460.644	29070.06
460.85	27769.6
461.055	27194.12
461.261	27239.18
461.466	25217.83
461.672	24142.65
461.878	26075.93
462.083	24427.32
462.289	23839.55
462.494	23835.45
462.7	22479.7
462.905	21838.69
463.111	22926.16
463.316	22856.53
463.522	22365.01
463.727	22213.46
463.932	22520.66
464.138	21881.69
464.343	22154.07
464.549	21633.89
464.754	22385.49
464.959	21826.4
465.165	21834.59
465.37	20732.78
465.575	20444.02
465.781	21283.69
465.986	21341.03
466.191	20495.22
466.397	20128.63
466.602	19143.56
466.807	20036.47
467.012	19794.81
467.218	19770.24
467.423	19563.39
467.628	19612.54
467.833	20794.22
468.038	19954.55
468.244	19186.57
468.449	19848.06
468.654	19473.28
468.859	18877.32
469.064	19075.98
469.269	18557.84
469.474	18336.66
469.679	18934.67
469.885	17982.36
470.09	18520.98
470.295	18410.39
470.5	17980.31
470.705	17820.57
470.91	17695.64
471.115	17349.54
471.32	17902.49
471.525	17736.6
471.73	16993.19
471.935	16952.23
472.139	16571.31
472.344	16561.07
472.549	16739.24
472.754	16321.46
472.959	16235.44
473.164	15678.4
473.369	15578.04
473.574	16468.91
473.778	15991.73
473.983	15924.15
474.188	15801.27
474.393	14959.56
474.598	15358.91
474.802	15012.81
475.007	14762.95
475.212	14973.89
475.417	14418.89
475.621	14504.91
475.826	14681.03
476.031	14138.32
476.235	13992.92
476.44	14150.61
476.645	13679.58
476.849	13894.61
477.054	13556.7
477.259	13614.04
477.463	13609.95
477.668	13120.48
477.872	13128.67
478.077	12723.18
478.282	12530.67
478.486	12561.39
478.691	12454.89
478.895	12606.44
479.1	12440.56
479.304	12534.76
479.509	12043.25
479.713	12258.29
479.918	12071.92
480.122	11815.93
480.326	12129.27
480.531	12131.31
480.735	11877.37
480.94	11893.75
481.144	12133.36
481.348	11494.4
481.553	11582.46
481.757	11473.92
481.961	11639.8
482.166	11553.79
482.37	11766.78
482.574	11299.84
482.778	11453.44
482.983	11664.38
483.187	11660.28
483.391	11604.99
483.595	11453.44
483.8	11361.28
484.004	11549.69
484.208	11607.03
484.412	11455.48
484.616	11297.79
484.821	11555.83
485.025	11324.41
485.229	11424.76
485.433	11336.7
485.637	11529.21
485.841	11398.14
486.045	11330.56
486.249	11437.05
486.453	11316.22
486.657	11478.01
486.861	11424.76
487.065	11215.87
487.269	11428.86
487.473	11262.97
487.677	11375.61
487.881	11422.72
488.085	11658.23
488.289	11672.57
488.493	11361.28
488.697	11619.32
488.901	11518.97
489.105	11435
489.309	11543.55
489.512	11561.98
489.716	11748.34
489.92	11566.07
490.124	11668.47
490.328	11944.95
490.531	11609.08
490.735	11967.48
490.939	11688.95
491.143	11721.72
491.346	11836.41
491.55	11840.5
491.754	11926.52
491.958	12051.44
492.161	11852.79
492.365	12080.11
492.569	12033.01
492.772	12004.34
492.976	11881.46
493.18	12114.93
493.383	12383.21
493.587	12233.71
493.79	12446.7
493.994	12313.58
494.197	12647.4
494.401	12579.82
494.605	12559.34
494.808	12790.76
495.012	13013.99
495.215	12895.21
495.419	13038.56
495.622	12934.12
495.825	13212.64
496.029	13310.94
496.232	13343.71
496.436	13525.98
496.639	13646.81
496.843	13839.32
497.046	13921.24
497.249	14275.54
497.453	14195.67
497.656	14109.65
497.859	14472.14
498.063	14492.62
498.266	14824.39
498.469	14539.72
498.673	14711.75
498.876	15203.27
499.079	15322.05
499.282	15252.42
499.485	15653.82
499.689	15508.41
499.892	16030.65
500.095	15883.19
500.298	16391.09
500.501	16284.59
500.705	16552.88
500.908	16974.76
501.111	17030.05
501.314	16907.18
501.517	17492.9
501.72	17722.27
501.923	17349.54
502.126	17914.78
502.329	18045.85
502.532	18303.89
502.735	17927.07
502.938	18570.13
503.141	18733.96
503.344	18707.34
503.547	19121.03
503.75	19403.65
503.953	19671.93
504.156	19571.58
504.359	19960.7
504.562	19852.16
504.765	20372.34
504.968	20923.24
505.17	20933.48
505.373	20865.9
505.576	21494.63
505.779	21427.04
505.982	21820.25
506.185	22121.31
506.387	21877.6
506.59	22094.68
506.793	22795.09
506.996	22428.5
507.198	23296.84
507.401	23223.11
507.604	23307.08
507.807	23896.89
508.009	24007.48
508.212	24380.21
508.415	24097.59
508.617	24560.44
508.82	24949.55
509.022	24892.21
509.225	25559.84
509.428	25346.86
509.63	25688.87
509.833	26116.89
510.035	26653.46
510.238	26403.61
510.44	26407.7
510.643	27179.79
510.845	27169.55
511.048	27237.13
511.25	27841.28
511.453	28275.45
511.655	29012.72
511.858	28427
512.06	29027.06
512.262	28838.64
512.465	28832.5
512.667	29526.76
512.87	29573.86
513.072	29889.25
513.274	30364.38
513.477	30638.81
513.679	31058.64
513.881	31185.61
514.084	31677.13
514.286	31658.7
514.488	31765.19
514.69	32651.96
514.893	32496.31
515.095	32520.89
515.297	33243.82
515.499	33133.23
515.701	33585.83
515.904	34151.07
516.106	34316.96
516.308	34568.86
516.51	34620.06
516.712	34874.01
516.914	35203.73
517.116	36024.96
517.318	36166.27
517.52	36248.19
517.722	36430.46
517.925	36452.99
518.127	37493.36
518.329	37483.12
518.531	37155.44
518.733	38107.75
518.935	38210.15
519.136	38423.14
519.338	38990.42
519.54	38820.44
519.742	39561.81
519.944	39742.03
520.146	40055.37
520.348	40219.2
520.55	40415.81
520.752	40718.91
520.954	41470.51
521.155	41083.45
521.357	42033.71
521.559	42080.81
521.761	42523.17
521.963	42525.22
522.164	42764.83
522.366	42734.11
522.568	43078.17
522.77	43239.96
522.971	44157.45
523.173	43682.32
523.375	44444.16
523.576	44257.8
523.778	44468.74
523.98	44759.55
524.181	45277.69
524.383	45289.98
524.584	46197.23
524.786	45926.89
524.988	45527.54
525.189	46457.32
525.391	46406.12
525.592	46639.59
525.794	46922.21
525.995	47096.28
526.197	46909.92
526.398	47438.29
526.6	47378.9
526.801	48069.07
527.003	47808.98
527.204	48026.06
527.406	48493
527.607	48214.47
527.808	49164.73
528.01	47927.76
528.211	48931.26
528.412	49361.34
528.614	49164.73
528.815	49050.05
529.016	49770.93
529.218	49183.16
529.419	49834.42
529.62	49824.18
529.822	49400.25
530.023	50055.6
530.224	49748.4
530.425	49699.25
530.626	49488.31
530.828	49570.23
531.029	50438.57
531.23	49697.2
531.431	49889.71
531.632	50493.86
531.833	50299.31
532.035	50280.88
532.236	51036.58
532.437	50958.75
532.638	50153.9
532.839	50813.35
533.04	50882.98
533.241	50327.98
533.442	51169.69
533.643	50946.47
533.844	51136.93
534.045	51397.02
534.246	50463.14
534.447	51042.72
534.648	50964.9
534.849	51474.84
535.05	50516.39
535.251	50680.23
535.451	51030.43
535.652	51233.18
535.853	50878.88
536.054	51106.21
536.255	51237.28
536.456	50667.94
536.657	51632.53
536.857	50780.58
537.058	50491.82
537.259	51057.06
537.46	51040.67
537.66	50555.3
537.861	51224.99
538.062	51079.58
538.263	51462.55
538.463	50805.16
538.664	50799.01
538.865	51026.34
539.065	51296.67
539.266	50788.77
539.466	51710.36
539.667	50608.55
539.868	51370.39
540.068	51294.62
540.269	51251.61
540.469	51235.23
540.67	51128.73
540.87	51521.94
541.071	51089.82
541.271	51470.75
541.472	50909.6
541.672	51057.06
541.873	51196.32
542.073	50631.08
542.274	51349.92
542.474	50700.71
542.675	50653.61
542.875	51292.57
543.075	51179.93
543.276	50252.2
543.476	51186.08
543.676	50928.03
543.877	51122.59
544.077	51057.06
544.277	50735.52
544.478	50448.81
544.678	51229.08
544.878	50710.95
545.078	50960.8
545.279	50645.41
545.479	50469.29
545.679	50858.4
545.879	50661.8
546.079	50729.38
546.28	50489.77
546.48	50143.66
546.68	50807.2
546.88	50854.31
547.08	50719.14
547.28	50610.6
547.48	50301.36
547.68	50649.51
547.88	50133.42
548.081	50672.04
548.281	50504.1
548.481	50319.79
548.681	51003.81
548.881	50495.91
549.081	50229.68
549.28	50520.49
549.48	50964.9
549.68	50256.3
549.88	50991.52
550.08	50094.51
550.28	50260.4
550.48	49916.34
550.68	50493.86
550.88	50201
551.08	50024.88
551.279	50811.3
551.479	50190.76
551.679	49885.62
551.879	50319.79
552.079	50500.01
552.278	50188.72
552.478	50254.25
552.678	50094.51
552.878	50151.85
553.077	49863.09
553.277	49953.2
553.477	50354.6
553.676	50248.11
553.876	50530.73
554.076	49691.06
554.275	50002.35
554.475	49248.7
554.674	49951.15
554.874	49729.97
555.074	49402.3
555.273	49756.6
555.473	49934.77
555.672	49265.08
555.872	49404.34
556.071	49492.41
556.271	49912.24
556.47	49473.98
556.67	48984.51
556.869	49230.27
557.068	49490.36
557.268	48976.32
557.467	49318.33
557.667	49287.61
557.866	49060.29
558.065	49088.96
558.265	49355.19
558.464	48886.21
558.663	49043.9
558.863	48540.1
559.062	49207.74
559.261	48275.91
559.461	49238.46
559.66	47978.96
559.859	48433.61
560.058	48257.48
560.258	48572.87
560.457	48241.1
560.656	48318.92
560.855	47788.5
561.054	48347.59
561.253	47655.38
561.453	47970.77
561.652	48216.52
561.851	48234.95
562.05	47798.74
562.249	47530.45
562.448	47823.31
562.647	47608.28
562.846	47469.01
563.045	47649.24
563.244	46774.75
563.443	47843.79
563.642	46860.77
563.841	47430.1
564.04	46858.72
564.239	47235.55
564.438	46615.01
564.637	47331.8
564.836	46977.5
565.035	46033.39
565.234	46508.52
565.432	46658.02
565.631	46189.03
565.83	46369.26
566.029	46068.2
566.228	46043.63
566.427	46092.78
566.625	45820.4
566.824	45398.52
567.023	45670.9
567.222	45210.1
567.42	45576.69
567.619	45572.6
567.818	45380.09
568.016	45097.47
568.215	45533.68
568.414	45093.37
568.612	45226.49
568.811	45091.32
569.01	44982.78
569.208	44188.17
569.407	45013.5
569.605	44139.02
569.804	44294.66
570.002	44694.02
570.201	44192.26
570.4	43837.97
570.598	43960.84
570.797	43692.56
570.995	43848.21
571.193	43498
571.392	44007.95
571.59	43160.09
571.789	43414.04
571.987	43379.22
572.186	43391.51
572.384	42693.15
572.582	43512.34
572.781	43074.07
572.979	42850.84
573.177	42828.32
573.376	42891.8
573.574	42443.3
573.772	42484.26
573.971	42117.67
574.169	42107.43
574.367	41816.62
574.565	42572.32
574.763	41845.29
574.962	41527.86
575.16	41185.85
575.358	41626.16
575.556	41079.35
575.754	41871.92
575.952	41196.09
576.151	41605.68
576.349	40639.04
576.547	40911.42
576.745	41235
576.943	41087.54
577.141	41032.25
577.339	40987.19
577.537	40802.88
577.735	40503.87
577.933	40075.85
578.131	40284.74
578.329	40282.69
578.527	39903.82
578.725	39809.61
578.923	40481.34
579.121	39850.57
579.319	39633.49
579.516	40034.89
579.714	39424.59
579.912	39688.78
580.11	39615.05
580.308	39258.71
580.506	39111.25
580.704	38609.5
580.901	39000.66
581.099	39307.86
581.297	38441.57
581.495	38750.81
581.692	38548.06
581.89	38285.92
582.088	38634.08
582.285	38478.43
582.483	38636.13
582.681	38253.15
582.878	38244.96
583.076	37505.65
583.274	38212.2
583.471	37640.81
583.669	37757.55
583.866	37522.03
584.064	37800.55
584.262	36975.22
584.459	37184.12
584.657	36926.07
584.854	37565.04
585.052	36938.36
585.249	36450.94
585.447	37245.55
585.644	36313.73
585.841	36479.61
586.039	36887.16
586.236	36106.88
586.434	36475.52
586.631	36211.33
586.828	36137.6
587.026	36450.94
587.223	35809.93
587.42	35826.31
587.618	35689.1
587.815	35865.22
588.012	35619.47
588.21	35531.4
588.407	35568.27
588.604	35457.68
588.801	35119.76
588.999	35089.04
589.196	34656.92
589.393	34921.11
589.59	34396.83
589.787	34716.31
589.984	34570.91
590.182	34351.77
590.379	34814.62
590.576	34400.93
590.773	34413.21
590.97	34110.11
591.167	34321.05
591.364	33759.91
591.561	33847.97
591.758	33649.32
591.955	33823.4
592.152	33880.74
592.349	33198.77
592.546	33575.59
592.743	33262.26
592.94	33059.51
593.137	33108.66
593.334	33022.64
593.531	32615.1
593.727	33190.58
593.924	32713.4
594.121	32418.49
594.318	32617.14
594.515	32336.57
594.712	33172.14
594.908	32160.45
595.105	32232.13
595.302	32068.29
595.499	32205.5
595.696	32078.53
595.892	31666.89
596.089	31709.89
596.286	31816.39
596.482	31484.62
596.679	31466.19
596.876	31380.17
597.072	31308.49
597.269	31113.94
597.466	30921.43
597.662	31013.59
597.859	30763.73
598.055	31156.94
598.252	30649.05
598.448	30698.2
598.645	30692.05
598.841	30270.17
599.038	30497.5
599.234	30360.28
599.431	30153.44
599.627	29850.34
599.824	30251.74
600.02	30116.58
600.217	30022.37
600.413	29596.39
600.609	29596.39
600.806	29704.93
601.002	29651.69
601.198	29422.31
601.395	29588.2
601.591	29117.17
601.787	29258.48
601.984	29256.43
602.18	29256.43
602.376	28975.86
602.572	28936.95
602.769	28830.45
602.965	28461.82
603.161	28695.28
603.357	28654.33
603.553	28355.32
603.75	28168.96
603.946	28195.58
604.142	28312.31
604.338	27994.88
604.534	28285.69
604.73	27902.72
604.926	27790.08
605.122	27861.76
605.318	27714.31
605.514	27306.76
605.71	27503.37
605.906	27380.49
606.102	27317
606.298	27507.46
606.494	27116.3
606.69	27443.98
606.886	27339.53
607.082	27003.66
607.278	27226.89
607.474	26893.07
607.67	27214.6
607.866	26682.13
608.062	26917.65
608.257	26641.17
608.453	26825.49
608.649	26852.11
608.845	26594.07
609.041	26522.39
609.236	26594.07
609.432	26297.11
609.628	26229.53
609.824	26155.8
610.019	26221.34
610.215	26237.72
610.411	26020.64
610.606	26131.23
610.802	26241.82
610.998	25760.55
611.193	25883.42
611.389	25711.39
611.584	25496.36
611.78	25578.28
611.976	25776.93
612.171	25764.64
612.367	25496.36
612.562	25275.18
612.758	25127.72
612.953	25353
613.149	25379.62
613.344	25217.83
613.539	25455.4
613.735	25117.48
613.93	25496.36
614.126	25156.39
614.321	25170.73
614.517	25285.42
614.712	25051.95
614.907	24828.72
615.103	25105.2
615.298	24738.61
615.493	25002.8
615.688	24632.11
615.884	25047.85
616.079	24675.12
616.274	24689.46
616.47	24339.26
616.665	24703.79
616.86	24322.87
617.055	24429.37
617.25	24419.13
617.445	24478.52
617.641	23907.13
617.836	24095.55
618.031	23987
618.226	24675.12
618.421	23853.89
618.616	24345.4
618.811	23593.79
619.006	24165.18
619.201	23397.19
619.396	23782.21
619.591	23143.24
619.786	23436.1
619.981	23065.42
620.176	23397.19
620.371	22850.38
620.566	22803.28
620.761	22479.7
620.956	23014.22
621.151	22434.64
621.346	22682.45
621.541	22416.21
621.735	22551.38
621.93	22293.33
622.125	22444.88
622.32	22016.86
622.515	22100.83
622.709	21975.9
622.904	21656.42
623.099	21678.94
623.294	21619.55
623.488	21455.72
623.683	21418.85
623.878	21111.66
624.072	21465.96
624.267	21191.53
624.462	21017.45
624.656	20927.34
624.851	20923.24
625.046	20562.8
625.24	20431.73
625.435	20548.47
625.629	20437.87
625.824	20138.87
626.018	20177.78
626.213	19602.3
626.407	19786.62
626.602	19583.87
626.796	19792.76
626.991	19551.1
627.185	19510.14
627.38	19348.36
627.574	19241.86
627.768	19139.46
627.963	19035.02
628.157	18723.72
628.352	18924.43
628.546	18512.78
628.74	18811.79
628.935	18348.95
629.129	18437.01
629.323	18129.81
629.517	18078.61
629.712	18123.67
629.906	17933.21
630.1	17929.11
630.294	17982.36
630.489	17918.87
630.683	17752.99
630.877	17566.62
631.071	17560.48
631.265	17621.92
631.459	17429.41
631.653	16948.14
631.848	17206.18
632.042	17003.43
632.236	17083.3
632.43	16849.83
632.624	17013.67
632.818	16622.51
633.012	16540.59
633.206	16313.27
633.4	16409.52
633.594	16638.89
633.788	16237.49
633.982	16151.48
634.176	16341.94
634.369	15948.73
634.563	16206.77
634.757	15784.89
634.951	15963.06
635.145	15942.58
635.339	15948.73
635.533	15477.69
635.726	15664.06
635.92	15446.97
636.114	15264.71
636.308	15287.23
636.501	15303.62
636.695	14971.85
636.889	15023.05
637.083	14945.22
637.276	14793.67
637.47	14523.34
637.664	14740.43
637.857	14912.46
638.051	14603.21
638.244	14470.09
638.438	14437.33
638.632	14384.08
638.825	14347.22
639.019	14418.89
639.212	13921.24
639.406	14238.67
639.599	14054.36
639.793	13966.29
639.986	13857.75
640.18	13915.09
640.373	13695.96
640.567	13468.64
640.76	13741.02
640.954	13165.54
641.147	13284.32
641.34	13138.91
641.534	13071.33
641.727	13001.7
641.92	13190.11
642.114	12755.94
642.307	13157.35
642.5	12968.93
642.694	12762.09
642.887	12741.61
643.08	12825.57
643.273	12712.94
643.467	12524.52
643.66	12426.22
643.853	12426.22
644.046	12356.59
644.239	12307.44
644.432	12377.07
644.626	12059.63
644.819	12147.7
645.012	11990
645.205	12186.61
645.398	12258.29
645.591	11881.46
645.784	11858.93
645.977	11576.31
646.17	11918.32
646.363	11643.9
646.556	11713.53
646.749	11547.64
646.942	11328.51
647.135	11451.39
647.328	11600.89
647.521	11168.77
647.714	11045.89
647.907	11131.9
648.099	11023.36
648.292	11123.71
648.485	11095.04
648.678	10888.2
648.871	10753.03
649.064	10804.23
649.256	10988.55
649.449	10781.7
649.642	10554.38
649.835	10558.47
650.027	10480.65
650.22	10550.28
650.413	10394.64
650.605	10501.13
650.798	10259.47
650.991	10173.46
651.183	10169.36
651.376	10091.54
651.568	10114.06
651.761	9925.65
651.954	10402.83
652.146	10091.54
652.339	10003.47
652.531	9939.99
652.724	9944.08
652.916	9507.87
653.109	9858.07
653.301	9538.59
653.494	9735.19
653.686	9393.18
653.879	9774.1
654.071	9683.99
654.263	9432.09
654.456	9176.09
654.648	9692.18
654.84	9208.86
655.033	9204.77
655.225	9253.92
655.417	9012.26
655.61	9131.04
655.802	9081.89
655.994	8928.29
656.186	9151.52
656.379	8870.95
656.571	8854.56
656.763	8817.7
656.955	8762.4
657.148	8899.62
657.34	8637.48
657.532	8664.1
657.724	8635.43
657.916	8590.38
658.108	8639.53
658.3	8510.5
658.492	8565.8
658.684	8197.17
658.876	8268.84
659.068	8244.27
659.26	8311.85
659.452	8260.65
659.644	8242.22
659.836	8340.52
660.028	8049.71
660.22	8168.49
660.412	8088.62
660.604	7949.36
660.796	8084.53
660.988	7996.46
661.18	7859.25
661.372	7857.2
661.563	7857.2
661.755	7892.02
661.947	7642.17
662.139	7752.76
662.331	7625.78
662.522	7740.47
662.714	7644.21
662.906	7552.06
663.097	7617.59
663.289	7470.14
663.481	7367.74
663.673	7496.76
663.864	7242.81
664.056	7332.92
664.247	7431.23
664.439	7183.42
664.631	7390.27
664.822	7316.54
665.014	7355.45
665.205	7115.84
665.397	7222.33
665.588	7154.75
665.78	7009.34
665.971	7052.35
666.163	7234.62
666.354	7009.34
666.546	7027.78
666.737	6874.18
666.929	6906.95
667.12	6923.33
667.311	6861.89
667.503	6685.76
667.694	6937.66
667.885	6845.51
668.077	6933.57
668.268	6587.46
668.459	6886.47
668.651	6706.24
668.842	6767.68
669.033	6634.57
669.224	6552.65
669.416	6700.1
669.607	6503.5
669.798	6595.65
669.989	6581.32
670.18	6431.82
670.371	6399.05
670.563	6409.29
670.754	6489.16
670.945	6421.58
671.136	6497.35
671.327	6382.67
671.518	6515.78
671.709	6339.66
671.9	6394.95
672.091	6310.99
672.282	6169.68
672.473	6249.55
672.664	6233.16
672.855	6364.23
673.046	6259.79
673.237	6274.12
673.428	6165.58
673.619	6403.14
673.809	6093.9
674	6128.72
674.191	6093.9
674.382	6253.64
674.573	6243.4
674.764	6192.2
674.954	6290.51
675.145	6134.86
675.336	6192.2
675.527	6110.29
675.717	6155.34
675.908	6024.27
676.099	6022.22
676.289	6028.37
676.48	5735.51
676.671	5938.26
676.861	5973.07
677.052	5921.87
677.243	6106.19
677.433	5942.35
677.624	5897.3
677.814	5995.6
678.005	5971.02
678.195	5854.29
678.386	5889.1
678.576	5665.88
678.767	5844.05
678.957	5907.54
679.148	5950.54
679.338	5825.62
679.529	5903.44
679.719	5854.29
679.909	5903.44
680.1	5919.82
680.29	5909.58
680.481	5844.05
680.671	5864.53
680.861	5708.88
681.052	5817.43
681.242	5780.56
681.432	5981.26
681.622	5729.36
681.813	5913.68
682.003	5835.86
682.193	5684.31
682.383	5776.47
682.573	6001.74
682.764	5862.48
682.954	5708.88
683.144	5827.67
683.334	5577.81
683.524	5764.18
683.714	5649.49
683.904	5610.58
684.094	5786.71
684.284	5764.18
684.474	5602.39
684.664	5643.35
684.854	5459.03
685.044	5669.97
685.234	5446.74
685.424	5653.59
685.614	5477.46
685.804	5561.43
685.994	5557.33
686.184	5450.84
686.374	5481.56
686.564	5444.7
686.753	5401.69
686.943	5291.1
687.133	5221.47
687.323	5194.84
687.513	5362.78
687.702	5315.67
687.892	5031.01
688.082	5213.28
688.272	5241.95
688.461	5092.44
688.651	5295.19
688.841	5170.27
689.03	5231.71
689.22	5100.64
689.41	5037.15
689.599	5149.79
689.789	4910.18
689.979	5047.39
690.168	5063.77
690.358	4922.46
690.547	4809.83
690.737	5006.43
690.926	4740.19
691.116	4727.91
691.305	4871.26
691.495	4760.67
691.684	4988
691.874	4775.01
692.063	4727.91
692.252	4693.09
692.442	4828.26
692.631	4486.25
692.82	4529.25
693.01	4586.6
693.199	4547.69
693.388	4387.94
693.578	4463.72
693.767	4645.99
693.956	4510.82
694.146	4420.71
694.335	4381.8
694.524	4279.4
694.713	4516.97
694.902	4443.24
695.092	4275.31
695.281	4293.74
695.47	4365.42
695.659	4203.63
695.848	4119.66
696.037	4254.83
696.226	4318.31
696.415	4246.63
696.604	4365.42
696.793	4310.12
696.982	4170.86
697.171	4351.08
697.36	4152.43
697.549	4144.24
697.738	4117.61
697.927	4258.92
698.116	4224.11
698.305	4193.39
698.494	4203.63
698.683	4064.36
698.872	4271.21
699.061	4078.7
699.25	4066.41
699.438	4119.66
699.627	4037.74
699.816	4056.17
700.005	4058.22
700.193	4111.47
700.382	4215.91
700.571	4017.26
700.76	4021.36
700.948	4138.09
701.137	4088.94
701.326	4021.36
701.514	3931.25
701.703	4033.65
701.892	4039.79
702.08	4074.6
702.269	4156.52
702.457	3935.34
702.646	3988.59
702.834	4025.45
703.023	4105.32
703.212	3992.69
703.4	4043.88
703.589	3988.59
703.777	4029.55
703.965	3914.86
704.154	3951.73
704.342	3947.63
704.531	4052.08
704.719	3882.1
704.907	3851.38
705.096	3878
705.284	3914.86
705.472	3892.34
705.661	3843.18
705.849	4029.55
706.037	4107.37
706.226	4119.66
706.414	3935.34
706.602	4107.37
706.79	3859.57
706.979	3959.92
707.167	4082.8
707.355	3923.05
707.543	4068.46
707.731	4027.5
707.919	3953.77
708.107	4093.04
708.296	3898.48
708.484	3990.64
708.672	4021.36
708.86	3968.11
709.048	3933.29
709.236	3937.39
709.424	3939.44
709.612	3894.38
709.8	3910.77
709.988	4054.12
710.176	3992.69
710.364	3900.53
710.551	4062.32
710.739	4035.69
710.927	3984.49
711.115	3904.62
711.303	4146.28
711.491	3974.25
711.679	4029.55
711.866	4107.37
712.054	4107.37
712.242	3982.45
712.43	4148.33
712.617	4015.21
712.805	4080.75
712.993	3980.4
713.181	3869.81
713.368	3990.64
713.556	4021.36
713.744	3890.29
713.931	3990.64
714.119	4035.69
714.306	4168.81
714.494	4027.5
714.682	4066.41
714.869	4095.08
715.057	4111.47
715.244	3994.73
715.432	4189.29
715.619	4082.8
715.807	4142.19
715.994	3970.16
716.182	4103.28
716.369	4142.19
716.556	4252.78
716.744	4127.85
716.931	4142.19
717.119	4201.58
717.306	4283.5
717.493	4066.41
717.681	4213.87
717.868	4097.13
718.055	4217.96
718.242	4185.19
718.43	4279.4
718.617	4228.2
718.804	4140.14
718.991	4193.39
719.179	4076.65
719.366	4240.49
719.553	4328.55
719.74	4314.22
719.927	4097.13
720.114	4160.62
720.301	4045.93
720.488	4127.85
720.676	4168.81
720.863	4371.56
721.05	4271.21
721.237	4232.3
721.424	4156.52
721.611	4263.02
721.798	4107.37
721.985	4047.98
722.172	4215.91
722.358	4293.74
722.545	4160.62
722.732	4291.69
722.919	4023.41
723.106	4121.71
723.293	4211.82
723.48	4185.19
723.667	4275.31
723.853	4123.76
724.04	4310.12
724.227	4179.05
724.414	4138.09
724.6	4138.09
724.787	4338.79
724.974	4441.19
725.161	4236.39
725.347	4271.21
725.534	4197.48
725.72	4322.41
725.907	4275.31
726.094	4220.01
726.28	4236.39
726.467	4164.72
726.653	4250.73
726.84	4258.92
727.027	4430.95
727.213	4273.26
727.4	4320.36
727.586	4277.35
727.773	4359.27
727.959	4236.39
728.145	4363.37
728.332	4316.26
728.518	4172.91
728.705	4299.88
728.891	4291.69
729.077	4293.74
729.264	4271.21
729.45	4236.39
729.636	4422.76
729.823	4236.39
730.009	4340.84
730.195	4449.38
730.382	4287.59
730.568	4320.36
730.754	4316.26
730.94	4156.52
731.126	4242.54
731.313	4209.77
731.499	4351.08
731.685	4359.27
731.871	4377.7
732.057	4318.31
732.243	4392.04
732.429	4293.74
732.615	4275.31
732.801	4340.84
732.987	4277.35
733.173	4308.07
733.359	4355.18
733.545	4316.26
733.731	4291.69
733.917	4287.59
734.103	4355.18
734.289	4326.5
734.475	4301.93
734.661	4441.19
734.847	4291.69
735.033	4191.34
735.219	4226.15
735.404	4375.66
735.59	4105.32
735.776	4279.4
735.962	4361.32
736.148	4138.09
736.333	4267.11
736.519	4172.91
736.705	4201.58
736.89	4107.37
737.076	4293.74
737.262	4220.01
737.447	4183.15
737.633	4205.67
737.819	4088.94
738.004	4193.39
738.19	4211.82
738.375	4179.05
738.561	4260.97
738.747	4074.6
738.932	4228.2
739.118	4287.59
739.303	4082.8
739.489	4195.43
739.674	4154.48
739.859	4062.32
740.045	4082.8
740.23	4154.48
740.416	4009.07
740.601	4156.52
740.786	4025.45
740.972	4195.43
741.157	3935.34
741.342	3912.81
741.528	4025.45
741.713	4054.12
741.898	4062.32
742.084	4066.41
742.269	4093.04
742.454	4019.31
742.639	3949.68
742.824	3906.67
743.01	3953.77
743.195	3964.01
743.38	3902.58
743.565	3865.71
743.75	3720.31
743.935	3820.66
744.12	4050.03
744.305	3781.74
744.49	3861.62
744.675	3710.07
744.86	3730.55
745.045	3624.05
745.23	3654.77
745.415	3720.31
745.6	3685.49
745.785	3585.14
745.97	3775.6
746.155	3677.3
746.34	3603.57
746.525	3646.58
746.71	3624.05
746.895	3486.84
747.079	3552.37
747.264	3409.01
747.449	3497.08
747.634	3540.08
747.819	3431.54
748.003	3529.84
748.188	3382.39
748.373	3470.45
748.557	3376.25
748.742	3357.82
748.927	3314.81
749.111	3337.34
749.296	3327.1
749.481	3189.88
749.665	3243.13
749.85	3155.07
750.034	2966.65
750.219	3150.97
750.404	3146.87
750.588	3259.51
750.773	3067
750.957	3161.21
751.141	3161.21
751.326	3101.82
751.51	3095.68
751.695	3015.8
751.879	2970.75
752.064	3050.62
752.248	3050.62
752.432	2960.51
752.617	2946.17
752.801	2925.69
752.985	2907.26
753.17	2798.72
753.354	2913.41
753.538	2784.38
753.722	2905.21
753.907	2763.9
754.091	2667.65
754.275	2729.09
754.459	2747.52
754.643	2802.82
754.828	2749.57
755.012	2665.6
755.196	2610.31
755.38	2563.2
755.564	2655.36
755.748	2561.16
755.932	2638.98
756.116	2534.53
756.3	2532.48
756.484	2550.92
756.668	2444.42
756.852	2448.52
757.036	2483.33
757.22	2563.2
757.404	2444.42
757.588	2348.17
757.772	2419.85
757.956	2505.86
758.14	2358.41
758.323	2284.68
758.507	2452.61
758.691	2317.45
758.875	2245.77
759.059	2307.21
759.242	2215.05
759.426	2229.38
759.61	2200.71
759.794	2159.75
759.977	2251.91
760.161	2182.28
760.345	2237.58
760.528	2249.86
760.712	2145.42
760.895	2210.95
761.079	2110.6
761.263	2110.6
761.446	2016.4
761.63	2139.27
761.813	2047.12
761.997	2043.02
762.18	2000.01
762.364	2057.36
762.547	2022.54
762.731	2016.4
762.914	2069.64
763.098	1963.15
763.281	2024.59
763.464	2034.83
763.648	1881.23
763.831	2088.07
764.015	1948.81
764.198	1977.48
764.381	1936.53
764.564	2032.78
764.748	1866.89
764.931	2018.44
765.114	1762.45
765.297	1918.09
765.481	1825.93
765.664	1799.31
765.847	1909.9
766.03	1961.1
766.213	1907.85
766.397	1807.5
766.58	1746.06
766.763	1885.33
766.946	1827.98
767.129	1733.78
767.312	1701.01
767.495	1819.79
767.678	1752.21
767.861	1834.13
768.044	1784.98
768.227	1760.4
768.41	1733.78
768.593	1729.68
768.776	1764.5
768.959	1707.15
769.142	1791.12
769.324	1690.77
769.507	1682.58
769.69	1649.81
769.873	1729.68
770.056	1744.02
770.239	1610.9
770.421	1737.87
770.604	1537.17
770.787	1588.37
770.97	1596.56
771.152	1547.41
771.335	1655.95
771.518	1500.31
771.7	1631.38
771.883	1590.42
772.066	1576.08
772.248	1475.73
772.431	1518.74
772.613	1535.12
772.796	1389.72
772.978	1520.79
773.161	1485.97
773.343	1477.78
773.526	1453.2
773.708	1387.67
773.891	1315.99
774.073	1404.05
774.256	1457.3
774.438	1430.68
774.621	1471.64
774.803	1453.2
774.985	1330.33
775.168	1354.9
775.35	1359
775.532	1281.18
775.715	1318.04
775.897	1359
776.079	1385.62
776.261	1254.55
776.444	1254.55
776.626	1248.41
776.808	1332.37
776.99	1270.94
777.173	1236.12
777.355	1209.5
777.537	1252.5
777.719	1283.22
777.901	1107.1
778.083	1221.78
778.265	1123.48
778.447	1232.02
778.629	1166.49
778.811	1232.02
778.993	1146.01
779.175	1150.11
779.357	1146.01
779.539	1121.43
779.721	1137.82
779.903	1127.58
780.085	1182.87
780.267	1111.19
780.449	1191.06
780.631	1049.75
780.812	1156.25
780.994	1027.23
781.176	1092.76
781.358	1096.86
781.54	1023.13
781.721	967.84
781.903	1076.38
782.085	918.68
782.267	1025.18
782.448	935.07
782.63	1010.84
782.812	1021.08
782.993	904.35
783.175	984.22
783.357	973.98
783.538	967.84
783.72	871.58
783.901	912.54
784.083	943.26
784.264	900.25
784.446	935.07
784.627	961.69
784.809	881.82
784.99	838.81
785.172	933.02
785.353	847.01
785.535	955.55
785.716	760.99
785.897	887.97
786.079	812.19
786.26	877.73
786.441	791.71
786.623	779.42
786.804	851.1
786.985	672.93
787.167	769.18
787.348	773.28
787.529	789.66
787.71	890.01
787.891	763.04
788.073	689.31
788.254	691.36
788.435	717.98
788.616	842.91
788.797	648.35
788.978	668.83
789.159	722.08
789.34	707.74
789.522	695.46
789.703	662.69
789.884	638.11
790.065	648.35
790.246	758.94
790.427	654.5
790.607	763.04
790.788	648.35
790.969	674.98
791.15	685.22
791.331	656.54
791.512	605.35
791.693	631.97
791.874	666.78
792.054	679.07
792.235	652.45
792.416	582.82
792.597	677.02
792.778	656.54
792.958	654.5
793.139	636.06
793.32	492.71
793.5	558.24
793.681	611.49
793.862	689.31
794.042	543.91
794.223	611.49
794.404	560.29
794.584	466.08
794.765	548
794.945	543.91
795.126	488.61
795.306	634.02
795.487	464.04
795.667	556.19
795.848	572.58
796.028	457.89
796.209	521.38
796.389	472.23
796.57	537.76
796.75	488.61
796.93	619.68
797.111	418.98
797.291	588.96
797.471	523.43
797.652	416.93
797.832	488.61
798.012	494.76
798.192	556.19
798.373	455.84
798.553	494.76
798.733	500.9
798.913	455.84
799.093	367.78
799.274	437.41
799.454	410.79
799.634	507.04
799.814	433.32
799.994	517.28
800.174	453.8
800.354	507.04
800.534	488.61
800.714	539.81
800.894	412.84
801.074	371.88
801.254	328.87
801.434	349.35
801.614	363.69
801.794	375.97
801.974	1338.52
802.154	367.78
802.334	445.6
802.514	427.17
802.693	402.6
802.873	375.97
803.053	447.65
803.233	373.92
803.413	363.69
803.592	390.31
803.772	318.63
803.952	459.94
804.131	273.57
804.311	361.64
804.491	386.21
804.67	369.83
804.85	326.82
805.03	345.25
805.209	394.4
805.389	361.64
805.568	441.51
805.748	386.21
805.928	330.92
806.107	347.3
806.287	396.45
806.466	371.88
806.646	404.64
806.825	343.21
807.004	402.6
807.184	357.54
807.363	375.97
807.543	322.73
807.722	298.15
807.901	457.89
808.081	326.82
808.26	246.95
808.439	322.73
808.619	304.29
808.798	302.25
808.977	326.82
809.156	343.21
809.336	375.97
809.515	392.36
809.694	347.3
809.873	296.1
810.052	349.35
810.231	287.91
810.411	310.44
810.59	304.29
810.769	269.48
810.948	359.59
811.127	238.76
811.306	279.72
811.485	279.72
811.664	339.11
811.843	306.34
812.022	322.73
812.201	261.29
812.38	273.57
812.559	197.8
812.737	214.18
812.916	236.71
813.095	271.53
813.274	271.53
813.453	246.95
813.632	267.43
813.811	292.01
813.989	300.2
814.168	289.96
814.347	165.03
814.526	261.29
814.704	244.9
814.883	249
815.062	236.71
815.24	263.33
815.419	269.48
815.598	255.14
815.776	216.23
815.955	220.33
816.133	142.5
816.312	294.05
816.49	236.71
816.669	322.73
816.847	263.33
817.026	255.14
817.204	167.08
817.383	251.05
817.561	208.04
817.74	238.76
817.918	220.33
818.097	175.27
818.275	214.18
818.453	183.46
818.632	167.08
818.81	214.18
818.988	197.8
819.167	267.43
819.345	218.28
819.523	255.14
819.701	220.33
819.879	279.72
820.058	107.69
820.236	222.38
820.414	240.81
820.592	238.76
820.77	265.38
820.948	156.84
821.127	154.79
821.305	165.03
821.483	210.09
821.661	255.14
821.839	150.7
822.017	236.71
822.195	162.98
822.373	234.66
822.551	140.46
822.729	214.18
822.907	216.23
823.085	148.65
823.262	136.36
823.44	195.75
823.618	203.94
823.796	183.46
823.974	197.8
824.152	185.51
824.329	162.98
824.507	216.23
824.685	154.79
824.863	144.55
825.04	205.99
825.218	230.57
825.396	130.22
825.574	122.02
825.751	115.88
825.929	187.56
826.107	117.93
826.284	189.61
826.462	185.51
826.639	197.8
826.817	91.31
826.994	187.56
827.172	160.94
827.349	294.05
827.527	111.78
827.704	195.75
827.882	138.41
828.059	173.22
828.237	173.22
828.414	142.5
828.591	87.21
828.769	208.04
828.946	119.98
829.124	146.6
829.301	228.52
829.478	124.07
829.655	132.26
829.833	220.33
830.01	31.91
830.187	99.5
830.364	162.98
830.542	189.61
830.719	191.66
830.896	212.14
831.073	79.02
831.25	142.5
831.427	203.94
831.604	162.98
831.782	132.26
831.959	117.93
832.136	122.02
832.313	185.51
832.49	140.46
832.667	173.22
832.844	52.39
833.021	195.75
833.198	138.41
833.374	175.27
833.551	201.9
833.728	93.35
833.905	212.14
834.082	56.49
834.259	249
834.436	154.79
834.612	79.02
834.789	181.42
834.966	115.88
835.143	134.31
835.319	40.11
835.496	124.07
835.673	85.16
835.85	115.88
836.026	179.37
836.203	130.22
836.38	117.93
836.556	124.07
836.733	87.21
836.909	220.33
837.086	54.44
837.262	93.35
837.439	115.88
837.616	76.97
837.792	128.17
837.968	97.45
838.145	56.49
838.321	89.26
838.498	117.93
838.674	160.94
838.851	25.77
839.027	60.59
839.203	105.64
839.38	146.6
839.556	31.91
839.732	117.93
839.909	52.39
840.085	124.07
840.261	23.72
840.437	54.44
840.614	42.15
840.79	187.56
840.966	122.02
841.142	122.02
841.318	64.68
841.494	179.37
841.671	150.7
841.847	119.98
842.023	42.15
842.199	171.18
842.375	140.46
842.551	113.83
842.727	50.35
842.903	134.31
843.079	46.25
843.255	212.14
843.431	81.07
843.607	119.98
843.783	-43.86
843.959	173.22
844.134	64.68
844.31	101.55
844.486	79.02
844.662	113.83
844.838	107.69
845.013	81.07
845.189	83.11
845.365	107.69
845.541	130.22
845.716	72.87
845.892	187.56
846.068	83.11
846.244	68.78
846.419	156.84
846.595	17.58
846.77	48.3
846.946	-9.05
847.122	101.55
847.297	27.82
847.473	134.31
847.648	46.25
847.824	93.35
847.999	-29.52
848.175	132.26
848.35	95.4
848.526	89.26
848.701	95.4
848.876	91.31
849.052	138.41
849.227	56.49
849.403	13.48
849.578	9.39
849.753	81.07
849.929	111.78
850.104	27.82
850.279	54.44
850.454	87.21
850.63	93.35
850.805	21.67
850.98	81.07
851.155	50.35
851.33	58.54
851.505	-21.33
851.681	126.12
851.856	19.63
852.031	-33.62
852.206	58.54
852.381	40.11
852.556	56.49
852.731	33.96
852.906	165.03
853.081	38.06
853.256	74.92
853.431	56.49
853.606	83.11
853.781	48.3
853.956	42.15
854.131	40.11
854.305	31.91
854.48	40.11
854.655	-27.48
854.83	74.92
855.005	122.02
855.18	23.72
855.354	-9.05
855.529	117.93
855.704	66.73
855.879	50.35
856.053	40.11
856.228	160.94
856.403	46.25
856.577	72.87
856.752	-33.62
856.926	15.53
857.101	95.4
857.276	-19.29
857.45	68.78
857.625	64.68
857.799	72.87
857.974	81.07
858.148	11.43
858.323	89.26
858.497	33.96
858.672	60.59
858.846	31.91
859.02	46.25
859.195	21.67
859.369	9.39
859.543	21.67
859.718	74.92
859.892	46.25
860.066	89.26
860.241	-7
860.415	42.15
860.589	29.87
860.763	56.49
860.938	52.39
861.112	66.73
861.286	33.96
861.46	21.67
861.634	31.91
861.808	150.7
861.982	-25.43
862.157	93.35
862.331	-27.48
862.505	-9.05
862.679	-11.09
862.853	-0.85
863.027	46.25
863.201	66.73
863.375	15.53
863.549	56.49
863.722	-0.85
863.896	40.11
864.07	11.43
864.244	-35.67
864.418	56.49
864.592	25.77
864.766	56.49
864.939	11.43
865.113	31.91
865.287	23.72
865.461	-27.48
865.634	52.39
865.808	17.58
865.982	5.29
866.156	50.35
866.329	25.77
866.503	-7
866.676	60.59
866.85	17.58
867.024	99.5
867.197	31.91
867.371	54.44
867.544	62.63
867.718	19.63
867.891	60.59
868.065	-68.44
868.238	-2.9
868.412	36.01
868.585	27.82
868.759	38.06
868.932	68.78
869.105	-21.33
869.279	11.43
869.452	31.91
869.625	17.58
869.799	7.34
869.972	31.91
870.145	68.78
870.319	-76.63
870.492	11.43
870.665	7.34
870.838	33.96
871.011	-0.85
871.185	60.59
871.358	-39.76
871.531	33.96
871.704	33.96
871.877	29.87
872.05	-9.05
872.223	7.34
872.396	42.15
872.569	40.11
872.742	5.29
872.915	56.49
873.088	54.44
873.261	-21.33
873.434	-37.72
873.607	15.53
873.78	126.12
873.953	-45.91
874.126	-0.85
874.299	31.91
874.471	42.15
874.644	-19.29
874.817	95.4
874.99	89.26
875.163	79.02
875.335	122.02
875.508	-47.96
875.681	109.74
875.853	54.44
876.026	-68.44
876.199	27.82
876.371	7.34
876.544	-4.95
876.717	-113.49
876.889	9.39
877.062	31.91
877.234	27.82
877.407	-31.57
877.579	11.43
877.752	11.43
877.924	-0.85
878.097	-9.05
878.269	42.15
878.442	27.82
878.614	40.11
878.786	68.78
878.959	42.15
879.131	-31.57
879.303	-37.72
879.476	27.82
879.648	99.5
879.82	33.96
879.993	-60.24
880.165	46.25
880.337	31.91
880.509	42.15
880.681	-35.67
880.854	-47.96
881.026	72.87
881.198	107.69
881.37	33.96
881.542	-64.34
881.714	-4.95
881.886	-33.62
882.058	-0.85
882.23	15.53
882.402	11.43
882.574	27.82
882.746	72.87
882.918	44.2
883.09	-15.19
883.262	-9.05
883.434	64.68
883.606	-47.96
883.778	-13.14
883.95	175.27
884.122	-23.38
884.293	-4.95
884.465	-35.67
884.637	36.01
884.809	-25.43
884.98	38.06
885.152	-21.33
885.324	-0.85
885.496	44.2
885.667	-62.29
885.839	-35.67
886.011	-31.57
886.182	70.83
886.354	44.2
886.525	62.63
886.697	60.59
886.869	-45.91
887.04	-25.43
887.212	95.4
887.383	56.49
887.555	50.35
887.726	-23.38
887.897	-17.24
888.069	-23.38
888.24	9.39
888.412	-7
888.583	-66.39
888.754	-0.85
888.926	-47.96
889.097	-52.05
889.268	-70.48
889.44	29.87
889.611	-25.43
889.782	-64.34
889.953	-23.38
890.125	64.68
890.296	-17.24
890.467	-19.29
890.638	-2.9
890.809	-43.86
890.98	-41.81
891.151	15.53
891.323	56.49
891.494	23.72
891.665	-2.9
891.836	-15.19
892.007	-7
892.178	5.29
892.349	21.67
892.52	-41.81
892.691	25.77
892.862	-84.82
893.032	-25.43
893.203	11.43
893.374	52.39
893.545	-25.43
893.716	-88.92
893.887	-4.95
894.057	-74.58
894.228	-39.76
894.399	3.24
894.57	48.3
894.74	42.15
894.911	38.06
895.082	-15.19
895.253	54.44
895.423	-17.24
895.594	13.48
895.764	17.58
895.935	-78.68
896.106	27.82
896.276	76.97
896.447	-47.96
896.617	-31.57
896.788	1.19
896.958	27.82
897.129	-13.14
897.299	54.44
897.47	99.5
897.64	76.97
897.81	-9.05
897.981	-7
898.151	-7
898.322	-29.52
898.492	-4.95
898.662	-60.24
898.832	-45.91
899.003	-13.14
899.173	-0.85
899.343	1.19
899.513	-2.9
