Data from USB4F104151__69__13-05-58-320.txt Node

Date: Fri Mar 14 13:05:58 EDT 2025
User: louis
Spectrometer: USB4F10415
Trigger mode: 4
Integration Time (sec): 4.000000E-2
Scans to average: 1
Electric dark correction enabled: true
Nonlinearity correction enabled: false
Boxcar width: 0
XAxis mode: Wavelengths
Number of Pixels in Spectrum: 3648
>>>>>Begin Spectral Data<<<<<
178.204	-145.75
178.424	-145.75
178.644	-145.75
178.864	-176.47
179.084	-289.1
179.304	-20.82
179.524	-45.4
179.744	-31.06
179.964	91.82
180.184	-6.49
180.404	30.38
180.624	3.75
180.844	22.19
181.064	-16.73
181.283	-12.63
181.503	5.8
181.723	-20.82
181.943	-37.2
182.163	149.16
182.383	1.71
182.602	67.24
182.822	151.21
183.042	44.71
183.262	73.39
183.482	1.71
183.701	73.39
183.921	50.86
184.141	-12.63
184.361	50.86
184.58	16.04
184.8	28.33
185.02	153.26
185.239	3.75
185.459	36.52
185.679	69.29
185.898	-72.02
186.118	122.54
186.338	67.24
186.557	89.77
186.777	59.05
186.997	36.52
187.216	30.38
187.436	75.43
187.655	79.53
187.875	34.47
188.095	46.76
188.314	63.15
188.534	97.96
188.753	63.15
188.973	28.33
189.192	97.96
189.412	9.9
189.631	65.19
189.851	18.09
190.07	81.58
190.29	38.57
190.509	36.52
190.729	91.82
190.948	67.24
191.168	194.22
191.387	100.01
191.607	89.77
191.826	81.58
192.045	50.86
192.265	22.19
192.484	63.15
192.704	93.87
192.923	30.38
193.142	165.54
193.362	163.5
193.581	108.2
193.8	13.99
194.02	145.06
194.239	112.3
194.458	67.24
194.678	46.76
194.897	65.19
195.116	81.58
195.335	81.58
195.555	63.15
195.774	65.19
195.993	134.82
196.212	42.67
196.432	112.3
196.651	122.54
196.87	63.15
197.089	181.93
197.308	77.48
197.528	155.3
197.747	59.05
197.966	71.34
198.185	85.67
198.404	75.43
198.623	71.34
198.842	28.33
199.062	95.91
199.281	69.29
199.5	44.71
199.719	87.72
199.938	63.15
200.157	48.81
200.376	48.81
200.595	85.67
200.814	38.57
201.033	44.71
201.252	151.21
201.471	85.67
201.69	26.28
201.909	16.04
202.128	157.35
202.347	59.05
202.566	173.74
202.785	50.86
203.004	-18.77
203.223	108.2
203.442	134.82
203.661	-14.68
203.879	63.15
204.098	159.4
204.317	46.76
204.536	81.58
204.755	108.2
204.974	77.48
205.193	63.15
205.411	231.08
205.63	54.95
205.849	42.67
206.068	52.91
206.287	-16.73
206.505	138.92
206.724	9.9
206.943	28.33
207.162	46.76
207.381	67.24
207.599	26.28
207.818	77.48
208.037	20.14
208.255	-2.39
208.474	97.96
208.693	77.48
208.911	54.95
209.13	22.19
209.349	52.91
209.567	130.73
209.786	81.58
210.005	91.82
210.223	93.87
210.442	28.33
210.661	79.53
210.879	52.91
211.098	124.58
211.316	61.1
211.535	153.26
211.753	20.14
211.972	26.28
212.191	16.04
212.409	85.67
212.628	85.67
212.846	59.05
213.065	54.95
213.283	75.43
213.502	3.75
213.72	34.47
213.938	32.43
214.157	28.33
214.375	120.49
214.594	20.14
214.812	93.87
215.031	69.29
215.249	-6.49
215.467	108.2
215.686	61.1
215.904	118.44
216.122	71.34
216.341	140.97
216.559	42.67
216.778	85.67
216.996	54.95
217.214	59.05
217.432	42.67
217.651	46.76
217.869	36.52
218.087	1.71
218.306	-6.49
218.524	112.3
218.742	52.91
218.96	85.67
219.179	116.39
219.397	128.68
219.615	179.88
219.833	91.82
220.051	-10.58
220.27	71.34
220.488	28.33
220.706	87.72
220.924	83.63
221.142	67.24
221.36	54.95
221.578	102.06
221.796	28.33
222.015	93.87
222.233	63.15
222.451	192.17
222.669	13.99
222.887	30.38
223.105	24.23
223.323	38.57
223.541	-14.68
223.759	143.02
223.977	-18.77
224.195	138.92
224.413	79.53
224.631	75.43
224.849	67.24
225.067	177.83
225.285	-8.53
225.503	16.04
225.721	-67.92
225.939	34.47
226.157	16.04
226.375	106.15
226.592	77.48
226.81	85.67
227.028	83.63
227.246	104.11
227.464	67.24
227.682	100.01
227.9	-18.77
228.117	118.44
228.335	71.34
228.553	5.8
228.771	54.95
228.989	22.19
229.206	120.49
229.424	44.71
229.642	136.87
229.86	-4.44
230.077	59.05
230.295	71.34
230.513	122.54
230.731	104.11
230.948	145.06
231.166	120.49
231.384	9.9
231.601	1.71
231.819	81.58
232.037	48.81
232.254	-35.16
232.472	59.05
232.689	22.19
232.907	54.95
233.125	59.05
233.342	50.86
233.56	38.57
233.777	34.47
233.995	30.38
234.213	104.11
234.43	67.24
234.648	59.05
234.865	67.24
235.083	83.63
235.3	26.28
235.518	67.24
235.735	177.83
235.953	100.01
236.17	7.85
236.388	-22.87
236.605	36.52
236.822	91.82
237.04	120.49
237.257	73.39
237.475	89.77
237.692	61.1
237.909	34.47
238.127	40.62
238.344	83.63
238.562	52.91
238.779	-22.87
238.996	42.67
239.214	44.71
239.431	169.64
239.648	16.04
239.865	71.34
240.083	67.24
240.3	83.63
240.517	34.47
240.735	20.14
240.952	97.96
241.169	85.67
241.386	50.86
241.603	-4.44
241.821	3.75
242.038	89.77
242.255	36.52
242.472	54.95
242.689	155.3
242.907	122.54
243.124	18.09
243.341	11.95
243.558	-33.11
243.775	63.15
243.992	9.9
244.209	32.43
244.426	95.91
244.643	167.59
244.86	-33.11
245.078	91.82
245.295	-2.39
245.512	28.33
245.729	87.72
245.946	52.91
246.163	79.53
246.38	89.77
246.597	81.58
246.814	173.74
247.031	71.34
247.248	104.11
247.464	42.67
247.681	-20.82
247.898	79.53
248.115	85.67
248.332	-6.49
248.549	30.38
248.766	132.78
248.983	175.78
249.2	34.47
249.417	42.67
249.633	34.47
249.85	149.16
250.067	-4.44
250.284	20.14
250.501	63.15
250.717	97.96
250.934	-14.68
251.151	24.23
251.368	42.67
251.585	16.04
251.801	-22.87
252.018	24.23
252.235	91.82
252.451	42.67
252.668	97.96
252.885	48.81
253.102	106.15
253.318	57
253.535	52.91
253.752	32.43
253.968	48.81
254.185	75.43
254.401	134.82
254.618	59.05
254.835	28.33
255.051	71.34
255.268	22.19
255.484	65.19
255.701	36.52
255.917	145.06
256.134	16.04
256.351	57
256.567	-49.49
256.784	116.39
257	-8.53
257.217	124.58
257.433	122.54
257.65	65.19
257.866	5.8
258.082	44.71
258.299	36.52
258.515	44.71
258.732	63.15
258.948	52.91
259.165	-12.63
259.381	44.71
259.597	153.26
259.814	81.58
260.03	13.99
260.246	71.34
260.463	91.82
260.679	157.35
260.895	34.47
261.112	114.34
261.328	93.87
261.544	9.9
261.761	118.44
261.977	44.71
262.193	-96.6
262.409	50.86
262.626	75.43
262.842	34.47
263.058	9.9
263.274	77.48
263.49	36.52
263.707	67.24
263.923	54.95
264.139	-10.58
264.355	89.77
264.571	91.82
264.787	48.81
265.004	130.73
265.22	32.43
265.436	18.09
265.652	69.29
265.868	57
266.084	42.67
266.3	69.29
266.516	48.81
266.732	20.14
266.948	50.86
267.164	44.71
267.38	112.3
267.596	59.05
267.812	198.31
268.028	95.91
268.244	54.95
268.46	20.14
268.676	9.9
268.892	75.43
269.108	24.23
269.324	20.14
269.54	-16.73
269.756	42.67
269.972	3.75
270.188	122.54
270.403	-6.49
270.619	71.34
270.835	69.29
271.051	83.63
271.267	13.99
271.483	-43.35
271.698	65.19
271.914	50.86
272.13	77.48
272.346	65.19
272.562	-0.34
272.777	79.53
272.993	7.85
273.209	50.86
273.425	77.48
273.64	-43.35
273.856	32.43
274.072	9.9
274.287	63.15
274.503	118.44
274.719	122.54
274.934	46.76
275.15	18.09
275.366	13.99
275.581	-14.68
275.797	54.95
276.012	93.87
276.228	69.29
276.444	104.11
276.659	108.2
276.875	91.82
277.09	54.95
277.306	110.25
277.521	79.53
277.737	63.15
277.952	87.72
278.168	87.72
278.383	22.19
278.599	61.1
278.814	44.71
279.03	91.82
279.245	128.68
279.461	32.43
279.676	100.01
279.892	-65.88
280.107	3.75
280.322	9.9
280.538	67.24
280.753	32.43
280.969	110.25
281.184	147.11
281.399	97.96
281.615	-4.44
281.83	18.09
282.045	-41.3
282.26	50.86
282.476	9.9
282.691	140.97
282.906	13.99
283.122	97.96
283.337	46.76
283.552	100.01
283.767	34.47
283.983	120.49
284.198	40.62
284.413	79.53
284.628	73.39
284.843	1.71
285.058	132.78
285.274	114.34
285.489	61.1
285.704	91.82
285.919	116.39
286.134	95.91
286.349	77.48
286.564	85.67
286.779	192.17
286.995	100.01
287.21	11.95
287.425	151.21
287.64	16.04
287.855	36.52
288.07	63.15
288.285	128.68
288.5	87.72
288.715	143.02
288.93	114.34
289.145	34.47
289.36	118.44
289.575	18.09
289.79	22.19
290.004	97.96
290.219	57
290.434	65.19
290.649	40.62
290.864	61.1
291.079	40.62
291.294	104.11
291.509	11.95
291.724	108.2
291.938	18.09
292.153	79.53
292.368	52.91
292.583	50.86
292.798	136.87
293.012	89.77
293.227	24.23
293.442	104.11
293.657	63.15
293.871	61.1
294.086	116.39
294.301	198.31
294.516	95.91
294.73	34.47
294.945	1.71
295.16	106.15
295.374	102.06
295.589	102.06
295.804	22.19
296.018	40.62
296.233	124.58
296.447	161.45
296.662	34.47
296.877	79.53
297.091	48.81
297.306	73.39
297.52	30.38
297.735	85.67
297.949	108.2
298.164	-10.58
298.378	67.24
298.593	57
298.807	52.91
299.022	81.58
299.236	89.77
299.451	-37.2
299.665	13.99
299.88	50.86
300.094	16.04
300.309	79.53
300.523	95.91
300.737	18.09
300.952	44.71
301.166	110.25
301.381	5.8
301.595	69.29
301.809	77.48
302.024	38.57
302.238	-2.39
302.452	100.01
302.667	48.81
302.881	118.44
303.095	32.43
303.309	120.49
303.524	91.82
303.738	87.72
303.952	42.67
304.166	104.11
304.381	-10.58
304.595	69.29
304.809	-18.77
305.023	175.78
305.237	18.09
305.452	3.75
305.666	145.06
305.88	100.01
306.094	65.19
306.308	81.58
306.522	-31.06
306.736	61.1
306.95	65.19
307.164	95.91
307.379	-2.39
307.593	140.97
307.807	95.91
308.021	91.82
308.235	130.73
308.449	-2.39
308.663	122.54
308.877	175.78
309.091	75.43
309.305	102.06
309.519	9.9
309.733	183.98
309.947	59.05
310.161	149.16
310.374	65.19
310.588	36.52
310.802	34.47
311.016	95.91
311.23	114.34
311.444	30.38
311.658	91.82
311.872	-14.68
312.085	149.16
312.299	34.47
312.513	93.87
312.727	36.52
312.941	46.76
313.154	91.82
313.368	106.15
313.582	79.53
313.796	40.62
314.009	32.43
314.223	132.78
314.437	67.24
314.651	54.95
314.864	30.38
315.078	26.28
315.292	-31.06
315.505	26.28
315.719	7.85
315.933	112.3
316.146	87.72
316.36	91.82
316.573	149.16
316.787	52.91
317.001	44.71
317.214	16.04
317.428	63.15
317.641	36.52
317.855	13.99
318.068	59.05
318.282	196.26
318.495	91.82
318.709	-6.49
318.922	85.67
319.136	128.68
319.349	147.11
319.563	59.05
319.776	67.24
319.99	18.09
320.203	63.15
320.417	173.74
320.63	91.82
320.843	179.88
321.057	67.24
321.27	93.87
321.483	75.43
321.697	36.52
321.91	75.43
322.124	73.39
322.337	83.63
322.55	73.39
322.763	112.3
322.977	79.53
323.19	18.09
323.403	52.91
323.617	106.15
323.83	77.48
324.043	104.11
324.256	91.82
324.469	67.24
324.683	140.97
324.896	59.05
325.109	22.19
325.322	-16.73
325.535	124.58
325.748	59.05
325.962	59.05
326.175	100.01
326.388	54.95
326.601	50.86
326.814	20.14
327.027	32.43
327.24	116.39
327.453	-2.39
327.666	124.58
327.879	140.97
328.092	77.48
328.305	54.95
328.518	126.63
328.731	159.4
328.944	91.82
329.157	106.15
329.37	157.35
329.583	91.82
329.796	214.7
330.009	13.99
330.222	104.11
330.435	124.58
330.648	93.87
330.861	77.48
331.073	77.48
331.286	106.15
331.499	79.53
331.712	44.71
331.925	67.24
332.138	67.24
332.35	116.39
332.563	30.38
332.776	116.39
332.989	83.63
333.202	87.72
333.414	114.34
333.627	48.81
333.84	54.95
334.053	67.24
334.265	57
334.478	59.05
334.691	93.87
334.903	85.67
335.116	-2.39
335.329	130.73
335.541	75.43
335.754	134.82
335.966	24.23
336.179	95.91
336.392	20.14
336.604	104.11
336.817	32.43
337.029	83.63
337.242	59.05
337.454	104.11
337.667	59.05
337.88	89.77
338.092	7.85
338.305	59.05
338.517	26.28
338.729	126.63
338.942	118.44
339.154	20.14
339.367	11.95
339.579	63.15
339.792	61.1
340.004	85.67
340.217	65.19
340.429	122.54
340.641	52.91
340.854	26.28
341.066	32.43
341.278	93.87
341.491	83.63
341.703	97.96
341.915	54.95
342.128	71.34
342.34	95.91
342.552	89.77
342.764	97.96
342.977	69.29
343.189	149.16
343.401	38.57
343.613	77.48
343.826	110.25
344.038	57
344.25	73.39
344.462	7.85
344.674	71.34
344.886	132.78
345.099	16.04
345.311	87.72
345.523	63.15
345.735	20.14
345.947	132.78
346.159	93.87
346.371	124.58
346.583	42.67
346.795	132.78
347.007	20.14
347.219	132.78
347.431	91.82
347.643	177.83
347.855	34.47
348.067	52.91
348.279	-24.92
348.491	54.95
348.703	22.19
348.915	97.96
349.127	116.39
349.339	63.15
349.551	48.81
349.763	181.93
349.975	67.24
350.187	22.19
350.399	200.36
350.61	114.34
350.822	9.9
351.034	89.77
351.246	44.71
351.458	95.91
351.669	100.01
351.881	108.2
352.093	59.05
352.305	124.58
352.517	169.64
352.728	122.54
352.94	163.5
353.152	91.82
353.363	52.91
353.575	100.01
353.787	157.35
353.999	46.76
354.21	151.21
354.422	63.15
354.633	89.77
354.845	97.96
355.057	-8.53
355.268	122.54
355.48	216.74
355.692	-10.58
355.903	165.54
356.115	116.39
356.326	50.86
356.538	85.67
356.749	79.53
356.961	116.39
357.172	26.28
357.384	67.24
357.595	149.16
357.807	1.71
358.018	11.95
358.23	85.67
358.441	120.49
358.653	132.78
358.864	50.86
359.075	-29.01
359.287	120.49
359.498	106.15
359.709	118.44
359.921	44.71
360.132	124.58
360.344	50.86
360.555	40.62
360.766	46.76
360.977	126.63
361.189	110.25
361.4	48.81
361.611	93.87
361.823	183.98
362.034	151.21
362.245	87.72
362.456	34.47
362.667	161.45
362.879	34.47
363.09	83.63
363.301	124.58
363.512	124.58
363.723	50.86
363.935	118.44
364.146	95.91
364.357	87.72
364.568	93.87
364.779	54.95
364.99	124.58
365.201	-45.4
365.412	112.3
365.623	48.81
365.834	97.96
366.045	149.16
366.256	196.26
366.467	54.95
366.678	83.63
366.889	91.82
367.1	112.3
367.311	87.72
367.522	7.85
367.733	116.39
367.944	75.43
368.155	67.24
368.366	79.53
368.577	138.92
368.788	151.21
368.999	50.86
369.209	120.49
369.42	181.93
369.631	218.79
369.842	71.34
370.053	91.82
370.264	173.74
370.474	77.48
370.685	108.2
370.896	59.05
371.107	124.58
371.317	126.63
371.528	106.15
371.739	163.5
371.95	140.97
372.16	120.49
372.371	79.53
372.582	77.48
372.792	50.86
373.003	54.95
373.214	89.77
373.424	93.87
373.635	65.19
373.846	222.89
374.056	63.15
374.267	71.34
374.477	145.06
374.688	30.38
374.898	54.95
375.109	54.95
375.319	73.39
375.53	165.54
375.74	97.96
375.951	61.1
376.161	200.36
376.372	108.2
376.582	-10.58
376.793	97.96
377.003	38.57
377.214	67.24
377.424	48.81
377.635	9.9
377.845	75.43
378.055	145.06
378.266	22.19
378.476	85.67
378.686	140.97
378.897	143.02
379.107	67.24
379.317	155.3
379.528	54.95
379.738	110.25
379.948	108.2
380.158	97.96
380.369	108.2
380.579	54.95
380.789	122.54
380.999	120.49
381.21	85.67
381.42	126.63
381.63	85.67
381.84	114.34
382.05	169.64
382.261	130.73
382.471	95.91
382.681	28.33
382.891	140.97
383.101	112.3
383.311	132.78
383.521	28.33
383.731	85.67
383.941	122.54
384.151	159.4
384.361	102.06
384.571	54.95
384.781	102.06
384.991	214.7
385.201	200.36
385.411	159.4
385.621	59.05
385.831	140.97
386.041	57
386.251	57
386.461	3.75
386.671	138.92
386.881	61.1
387.091	231.08
387.301	147.11
387.511	100.01
387.72	102.06
387.93	163.5
388.14	3.75
388.35	83.63
388.56	161.45
388.769	114.34
388.979	85.67
389.189	112.3
389.399	79.53
389.609	136.87
389.818	204.46
390.028	85.67
390.238	130.73
390.447	97.96
390.657	118.44
390.867	83.63
391.076	40.62
391.286	95.91
391.496	134.82
391.705	100.01
391.915	175.78
392.125	34.47
392.334	79.53
392.544	194.22
392.753	124.58
392.963	118.44
393.172	120.49
393.382	73.39
393.591	198.31
393.801	124.58
394.01	280.23
394.22	118.44
394.429	91.82
394.639	161.45
394.848	159.4
395.058	120.49
395.267	91.82
395.477	81.58
395.686	165.54
395.895	261.8
396.105	239.27
396.314	102.06
396.524	104.11
396.733	71.34
396.942	210.6
397.152	167.59
397.361	114.34
397.57	145.06
397.78	136.87
397.989	173.74
398.198	200.36
398.407	95.91
398.617	124.58
398.826	128.68
399.035	128.68
399.244	210.6
399.453	155.3
399.663	163.5
399.872	186.02
400.081	124.58
400.29	274.09
400.499	165.54
400.708	198.31
400.917	233.13
401.127	116.39
401.336	130.73
401.545	218.79
401.754	190.12
401.963	239.27
402.172	140.97
402.381	188.07
402.59	198.31
402.799	183.98
403.008	204.46
403.217	200.36
403.426	202.41
403.635	91.82
403.844	175.78
404.053	194.22
404.262	177.83
404.471	321.19
404.68	204.46
404.888	263.85
405.097	233.13
405.306	247.46
405.515	274.09
405.724	216.74
405.933	241.32
406.142	235.18
406.35	276.13
406.559	222.89
406.768	255.65
406.977	343.72
407.185	302.76
407.394	337.57
407.603	335.53
407.812	251.56
408.02	380.58
408.229	394.92
408.438	308.9
408.646	237.22
408.855	370.34
409.064	360.1
409.272	452.26
409.481	386.72
409.69	384.68
409.898	390.82
410.107	405.16
410.315	532.13
410.524	468.64
410.733	466.6
410.941	503.46
411.15	542.37
411.358	534.18
411.567	630.43
411.775	564.9
411.984	503.46
412.192	667.3
412.401	640.67
412.609	640.67
412.818	700.06
413.026	609.95
413.234	738.98
413.443	773.79
413.651	732.83
413.86	779.93
414.068	837.28
414.276	915.1
414.485	876.19
414.693	962.2
414.901	915.1
415.11	947.87
415.318	933.53
415.526	1050.27
415.734	1074.84
415.943	999.07
416.151	1160.86
416.359	1109.66
416.567	1191.58
416.776	1275.54
416.984	1359.51
417.192	1392.28
417.4	1296.02
417.608	1357.46
417.817	1474.2
418.025	1429.14
418.233	1625.75
418.441	1640.08
418.649	1568.4
418.857	1820.3
419.065	1822.35
419.273	1760.91
419.481	1830.54
419.689	1914.51
419.897	2000.52
420.105	2076.3
420.313	2092.68
420.521	2117.26
420.729	2264.71
420.937	2250.38
421.145	2365.06
421.353	2535.04
421.561	2580.1
421.769	2623.11
421.977	2688.64
422.185	2614.91
422.393	2905.73
422.601	3155.58
422.809	3108.48
423.017	3278.46
423.224	3237.5
423.432	3413.62
423.64	3405.43
423.848	3751.54
424.056	3593.84
424.263	3886.7
424.471	3868.27
424.679	4114.03
424.887	4081.26
425.094	4175.47
425.302	4367.98
425.51	4410.98
425.718	4546.15
425.925	4685.41
426.133	4736.61
426.341	5101.15
426.548	5381.72
426.756	5342.81
426.964	5531.22
427.171	5598.81
427.379	6004.3
427.586	5774.93
427.794	6194.76
428.001	6299.21
428.209	6641.22
428.417	6585.93
428.624	7061.05
428.832	6940.22
429.039	7005.76
429.247	7038.53
429.454	7720.5
429.662	7986.74
429.869	7636.53
430.076	8349.23
430.284	7976.5
430.491	8388.14
430.699	8834.6
430.906	8889.89
431.114	8730.15
431.321	9442.84
431.528	9272.86
431.736	9954.83
431.943	10368.52
432.15	10180.11
432.358	10290.7
432.565	10739.21
432.772	10808.84
432.979	11361.79
433.187	11398.65
433.394	11531.77
433.601	12318.19
433.808	12609
434.016	12463.6
434.223	13116.9
434.43	13805.02
434.637	13483.48
434.844	14167.51
435.052	14458.32
435.259	14607.82
435.466	14568.91
435.673	14542.28
435.88	15592.89
436.087	16180.66
436.294	16213.43
436.501	16027.06
436.708	16268.72
436.915	16678.32
437.122	17567.13
437.329	17524.13
437.537	18275.73
437.743	18701.71
437.95	18300.31
438.157	19105.16
438.364	19821.95
438.571	19479.94
438.778	19838.33
438.985	21720.42
439.192	20837.74
439.399	21384.55
439.606	21177.7
439.813	22052.19
440.02	23790.91
440.227	23160.14
440.433	22990.16
440.64	23475.52
440.847	23524.68
441.054	24143.16
441.261	25842.98
441.467	25443.62
441.674	26105.12
441.881	27262.22
442.088	26844.43
442.294	26850.58
442.501	27327.75
442.708	28136.7
442.914	28847.35
443.121	30063.84
443.328	29527.27
443.534	31141.07
443.741	30368.99
443.948	29990.11
444.154	32109.76
444.361	32113.86
444.568	32636.09
444.774	32814.26
444.981	33068.21
445.187	33834.15
445.394	35509.39
445.6	34684.06
445.807	37809.26
446.013	36594.81
446.22	37360.75
446.426	38540.38
446.633	38911.06
446.839	40123.46
447.046	38507.62
447.252	40700.99
447.459	40590.4
447.665	40670.27
447.871	42505.25
448.078	44420.1
448.284	42259.49
448.491	42865.69
448.697	45071.35
448.903	45448.18
449.11	45661.17
449.316	45351.93
449.522	46220.27
449.728	47139.8
449.935	47381.46
450.141	47403.99
450.347	48524.23
450.553	47274.97
450.76	47866.83
450.966	49200.06
451.172	48810.95
451.378	50015.15
451.584	49011.65
451.791	49798.07
451.997	49771.44
452.203	50887.59
452.409	51139.49
452.615	50359.21
452.821	48958.4
453.027	48411.59
453.233	51139.49
453.44	49257.4
453.646	49515.45
453.852	49867.7
454.058	50832.29
454.264	49112
454.47	49941.42
454.676	49208.25
454.882	50252.72
455.088	46492.65
455.294	47031.26
455.5	47551.45
455.705	48282.57
455.911	46267.37
456.117	45779.95
456.323	44964.86
456.529	42513.44
456.735	44487.68
456.941	43308.05
457.147	42673.18
457.352	41624.62
457.558	40825.92
457.764	41217.08
457.97	40596.54
458.176	39584.85
458.381	39572.56
458.587	37600.36
458.793	37758.06
458.999	35767.43
459.204	38225
459.41	37112.95
459.616	34909.33
459.821	34614.43
460.027	34817.18
460.233	34000.04
460.438	32144.58
460.644	32988.34
460.85	30876.88
461.055	30534.87
461.261	30674.13
461.466	27901.18
461.672	27163.92
461.878	29388.01
462.083	27344.14
462.289	26936.59
462.494	26776.85
462.7	25363.75
462.905	24755.5
463.111	25961.76
463.316	25754.91
463.522	25177.39
463.727	25247.02
463.932	25023.79
464.138	24954.16
464.343	25085.23
464.549	24141.11
464.754	24925.49
464.959	24714.55
465.165	24503.6
465.37	23907.65
465.575	22914.38
465.781	24016.19
465.986	23786.82
466.191	23078.22
466.397	22623.57
466.602	21683.55
466.807	22398.29
467.012	22619.47
467.218	22709.58
467.423	21767.52
467.628	22240.6
467.833	23072.07
468.038	22334.81
468.244	21863.77
468.449	22814.03
468.654	21507.43
468.859	21575.01
469.064	21775.71
469.269	20364.66
469.474	21075.31
469.679	21249.38
469.885	20639.09
470.09	20696.43
470.295	20657.52
470.5	20143.48
470.705	20557.17
470.91	19914.11
471.115	19821.95
471.32	20145.53
471.525	19754.37
471.73	19588.48
471.935	19473.79
472.139	18935.18
472.344	18830.73
472.549	18812.3
472.754	18501.01
472.959	18191.77
473.164	18009.5
473.369	17687.96
473.574	18451.86
473.778	17878.43
473.983	18187.67
474.188	17798.56
474.393	17044.9
474.598	17155.49
474.802	16879.02
475.007	16590.25
475.212	16862.63
475.417	16403.89
475.621	16201.14
475.826	16399.79
476.031	15885.75
476.235	15607.23
476.44	15975.86
476.645	15781.31
476.849	15672.76
477.054	15467.97
477.259	15384
477.463	15125.96
477.668	14794.18
477.872	14980.55
478.077	14947.78
478.282	14398.93
478.486	14267.86
478.691	14325.2
478.895	14290.38
479.1	13960.66
479.304	14177.75
479.509	13821.4
479.713	13983.19
479.918	13602.27
480.122	13467.1
480.326	13872.6
480.531	13577.69
480.735	13454.81
480.94	13463.01
481.144	13712.86
481.348	12944.87
481.553	13262.3
481.757	12879.33
481.961	13364.7
482.166	13456.86
482.37	13190.63
482.574	12908.01
482.778	13133.28
482.983	13534.68
483.187	13157.86
483.391	13282.78
483.595	13086.18
483.8	12891.62
484.004	12881.38
484.208	13151.71
484.412	12965.35
484.616	13045.22
484.821	12981.73
485.025	12783.08
485.229	13227.49
485.433	13077.99
485.637	13094.37
485.841	13161.95
486.045	12887.53
486.249	12930.53
486.453	12889.57
486.657	13120.99
486.861	13184.48
487.065	12580.33
487.269	12858.85
487.473	12811.75
487.677	13164
487.881	12912.1
488.085	12951.01
488.289	13116.9
488.493	13125.09
488.697	13129.19
488.901	13092.32
489.105	13084.13
489.309	13129.19
489.512	13047.27
489.716	13172.19
489.92	12967.4
490.124	13082.08
490.328	13587.93
490.531	13168.1
490.735	13241.82
490.939	13327.84
491.143	13221.34
491.346	13245.92
491.55	13618.65
491.754	13657.56
491.958	13716.95
492.161	13469.15
492.365	13893.08
492.569	13620.7
492.772	13616.6
492.976	13888.98
493.18	13792.73
493.383	13923.8
493.587	13940.18
493.79	14204.37
493.994	14167.51
494.197	14243.28
494.401	14192.08
494.605	14347.73
494.808	14749.13
495.012	14476.75
495.215	14747.08
495.419	14960.07
495.622	14738.89
495.825	14996.93
496.029	14861.77
496.232	15359.42
496.436	15177.16
496.639	15650.24
496.843	15732.15
497.046	16018.87
497.249	16178.61
497.453	16217.52
497.656	16293.3
497.859	16225.72
498.063	16383.41
498.266	16909.74
498.469	16821.67
498.673	16936.36
498.876	17288.61
499.079	17292.71
499.282	17366.43
499.485	18177.43
499.689	17698.2
499.892	18285.97
500.095	18136.47
500.298	18584.98
500.501	18587.02
500.705	18972.04
500.908	19082.63
501.111	19424.64
501.314	19428.74
501.517	19625.34
501.72	20120.95
501.923	19813.76
502.126	20575.6
502.329	20884.84
502.532	20579.7
502.735	20630.9
502.938	21314.92
503.141	21417.32
503.344	21779.81
503.547	21562.72
503.75	22017.37
503.953	22400.34
504.156	22766.93
504.359	22797.65
504.562	22973.77
504.765	23369.03
504.968	23600.45
505.17	23840.06
505.373	23569.73
505.576	23838.01
505.779	24278.33
505.982	24472.89
506.185	25058.6
506.387	24855.86
506.59	24997.17
506.793	25685.28
506.996	25578.79
507.198	26477.85
507.401	26088.73
507.604	26696.98
507.807	27125
508.009	27247.88
508.212	27493.64
508.415	27639.04
508.617	28091.65
508.82	28144.89
509.022	28376.31
509.225	29068.53
509.428	29187.31
509.63	29560.04
509.833	29445.35
510.035	30170.33
510.238	29963.49
510.44	30346.46
510.643	31001.81
510.845	30989.52
511.048	30833.88
511.25	31661.26
511.453	31556.81
511.655	32855.22
511.858	31976.64
512.06	32521.4
512.262	32904.37
512.465	33019.06
512.667	33465.52
512.87	33582.25
513.072	33997.99
513.274	34299.04
513.477	34839.7
513.679	35132.56
513.881	35144.85
514.084	35265.68
514.286	35361.94
514.488	35757.19
514.69	37071.99
514.893	36445.31
515.095	37231.73
515.297	37348.46
515.499	37813.35
515.701	38163.56
515.904	38685.79
516.106	38679.64
516.308	39117.91
516.51	39238.74
516.712	39222.36
516.914	39433.3
517.116	40238.15
517.318	40236.1
517.52	41024.57
517.722	40459.33
517.925	41544.75
518.127	41587.76
518.329	41817.13
518.531	42198.05
518.733	42728.48
518.935	43039.77
519.136	42855.45
519.338	43652.11
519.54	43865.1
519.742	44293.13
519.944	44389.38
520.146	44999.68
520.348	45052.92
520.55	45415.41
520.752	45634.55
520.954	46242.79
521.155	46087.15
521.357	46607.33
521.559	47029.21
521.761	47512.53
521.963	47549.4
522.164	47754.19
522.366	48061.39
522.568	48247.75
522.77	48503.75
522.971	49089.47
523.173	48851.91
523.375	49073.09
523.576	49068.99
523.778	48937.92
523.98	50125.74
524.181	50166.7
524.383	50312.11
524.584	50650.02
524.786	50930.59
524.988	50412.46
525.189	51188.64
525.391	51041.18
525.592	51600.28
525.794	52335.5
525.995	51739.54
526.197	52059.02
526.398	52663.18
526.6	52568.97
526.801	52835.2
527.003	52556.68
527.204	52990.85
527.406	53324.67
527.607	53406.59
527.808	53801.85
528.01	53003.14
528.211	53486.46
528.412	54877.03
528.614	53865.33
528.815	54592.36
529.016	54891.37
529.218	54127.47
529.419	54381.42
529.62	54565.74
529.822	54917.99
530.023	54612.84
530.224	54600.55
530.425	54864.74
530.626	54791.01
530.828	54139.76
531.029	55417.69
531.23	54938.47
531.431	55169.89
531.632	55126.88
531.833	55495.52
532.035	55427.93
532.236	55384.93
532.437	55821.14
532.638	55231.33
532.839	55901.01
533.04	56197.97
533.241	55227.23
533.442	56349.52
533.643	56075.09
533.844	55882.58
534.045	56015.7
534.246	55456.6
534.447	56195.92
534.648	55403.36
534.849	55755.61
535.05	55505.76
535.251	56163.15
535.451	55901.01
535.652	56087.38
535.853	55759.7
536.054	55944.02
536.255	56148.82
536.456	55616.35
536.657	56564.56
536.857	55909.21
537.058	55913.3
537.259	56011.6
537.46	56400.72
537.66	55700.31
537.861	56054.61
538.062	55937.88
538.263	56329.04
538.463	55741.27
538.664	55706.46
538.865	56060.76
539.065	56316.75
539.266	55419.74
539.466	56288.08
539.667	55329.63
539.868	56181.59
540.068	55919.45
540.269	55688.02
540.469	55657.31
540.67	55808.86
540.87	56093.52
541.071	56068.95
541.271	56146.77
541.472	55397.21
541.672	55493.47
541.873	55638.87
542.073	55552.86
542.274	56114
542.474	55585.63
542.675	54827.88
542.875	55610.2
543.075	55583.58
543.276	55335.77
543.476	55737.18
543.676	55704.41
543.877	55798.62
544.077	55536.48
544.277	55331.68
544.478	55145.31
544.678	55501.66
544.878	55817.05
545.078	55573.34
545.279	54905.7
545.479	55214.94
545.679	55645.02
545.879	55405.41
546.079	55602.01
546.28	55137.12
546.48	54950.76
546.68	55675.74
546.88	55391.07
547.08	55204.7
547.28	54885.22
547.48	54442.86
547.68	55280.48
547.88	55030.63
548.081	55389.02
548.281	55636.83
548.481	54850.41
548.681	55104.35
548.881	55673.69
549.081	54944.61
549.28	55096.16
549.48	55640.92
549.68	55225.18
549.88	55616.35
550.08	54885.22
550.28	55413.6
550.48	54668.14
550.68	55741.27
550.88	54909.8
551.08	55102.31
551.279	54891.37
551.479	54559.59
551.679	55061.35
551.879	54655.85
552.079	55028.58
552.278	54246.25
552.478	54748.01
552.678	54047.6
552.878	55151.46
553.077	54682.47
553.277	54098.8
553.477	55192.42
553.676	54164.34
553.876	54438.76
554.076	54643.56
554.275	54197.1
554.475	54166.38
554.674	54510.44
554.874	54477.68
555.074	54106.99
555.273	54719.34
555.473	54588.27
555.672	53875.57
555.872	54055.79
556.071	54061.94
556.271	54627.18
556.47	54023.03
556.67	53713.78
556.869	54063.99
557.068	54156.14
557.268	53556.09
557.467	54025.07
557.667	53986.16
557.866	53470.07
558.065	53420.92
558.265	53339
558.464	53123.97
558.663	54195.06
558.863	53078.91
559.062	53934.96
559.261	53326.72
559.461	53648.25
559.66	52888.45
559.859	53166.98
560.058	52642.7
560.258	53496.7
560.457	52775.81
560.656	53271.42
560.855	52548.49
561.054	53298.05
561.253	52362.12
561.453	52734.85
561.652	52632.46
561.851	52689.8
562.05	52378.51
562.249	52128.66
562.448	52614.02
562.647	51919.76
562.846	52220.81
563.045	52401.04
563.244	51903.38
563.443	52286.35
563.642	51286.94
563.841	51815.32
564.04	51884.95
564.239	51987.35
564.438	51280.8
564.637	51518.36
564.836	51913.62
565.035	51239.84
565.234	51196.83
565.432	51016.61
565.631	50883.49
565.83	51475.35
566.029	50817.96
566.228	50916.26
566.427	51149.73
566.625	50512.81
566.824	50129.84
567.023	50559.91
567.222	49879.99
567.42	50383.79
567.619	50580.39
567.818	49949.62
568.016	49767.35
568.215	50246.57
568.414	49439.67
568.612	50355.11
568.811	49808.31
569.01	49929.14
569.208	49492.92
569.407	49275.83
569.605	48892.86
569.804	49664.95
570.002	49056.7
570.201	48870.34
570.4	48913.34
570.598	48675.78
570.797	48360.39
570.995	48413.64
571.193	48331.72
571.392	48731.08
571.59	48436.17
571.789	48075.73
571.987	48143.31
572.186	47875.02
572.384	48143.31
572.582	48210.89
572.781	48061.39
572.979	47242.2
573.177	47602.64
573.376	48067.53
573.574	47223.77
573.772	47438.81
573.971	47115.23
574.169	47291.35
574.367	47000.54
574.565	46906.33
574.763	46627.81
574.962	46746.59
575.16	46509.03
575.358	46799.84
575.556	45992.94
575.754	46777.31
575.952	46255.08
576.151	46423.01
576.349	45745.14
576.547	45552.63
576.745	45706.23
576.943	45868.01
577.141	45804.53
577.339	45669.36
577.537	45235.19
577.735	45556.72
577.933	44983.29
578.131	45108.22
578.329	44956.67
578.527	44760.06
578.725	44657.67
578.923	44876.8
579.121	44745.73
579.319	44241.93
579.516	45108.22
579.714	44106.76
579.912	44084.23
580.11	44311.56
580.308	43889.68
580.506	44299.27
580.704	43578.39
580.901	43664.4
581.099	44127.24
581.297	43488.28
581.495	43658.26
581.692	43619.35
581.89	43400.21
582.088	43502.61
582.285	43213.85
582.483	43252.76
582.681	42808.35
582.878	42720.29
583.076	42423.33
583.274	42902.56
583.471	42257.45
583.669	42431.52
583.866	41843.76
584.064	42136.62
584.262	41507.89
584.459	42081.32
584.657	42052.65
584.854	42161.19
585.052	41149.49
585.249	41980.97
585.447	41477.17
585.644	41382.96
585.841	41462.83
586.039	42005.55
586.236	40660.03
586.434	41118.78
586.631	40956.99
586.828	40715.33
587.026	40963.13
587.223	40428.61
587.42	40576.06
587.618	40956.99
587.815	39951.43
588.012	40322.12
588.21	39953.48
588.407	40559.68
588.604	40100.93
588.801	39777.36
588.999	39726.16
589.196	39672.91
589.393	39322.71
589.59	39275.6
589.787	39285.84
589.984	38884.44
590.182	39011.42
590.379	39113.81
590.576	38923.35
590.773	38722.65
590.97	38800.47
591.167	38427.74
591.364	38020.2
591.561	38538.33
591.758	38218.85
591.955	37684.33
592.152	38308.96
592.349	37649.52
592.546	38012.01
592.743	37606.51
592.94	37299.31
593.137	37678.19
593.334	37573.74
593.531	36852.86
593.727	37336.18
593.924	37102.71
594.121	36422.78
594.318	36879.48
594.515	36531.33
594.712	36975.73
594.908	36785.27
595.105	36549.76
595.302	35912.84
595.499	36248.71
595.696	35933.32
595.892	35726.47
596.089	36033.67
596.286	36463.74
596.482	35660.94
596.679	35468.43
596.876	35992.71
597.072	35210.39
597.269	35458.19
597.466	35275.92
597.662	34878.61
597.859	35032.21
598.055	35038.36
598.252	34622.62
598.448	34763.93
598.645	34675.87
598.841	34376.86
599.038	34247.84
599.234	34583.71
599.431	33924.26
599.627	33864.87
599.824	34337.95
600.02	33834.15
600.217	34344.09
600.413	33969.32
600.609	33402.03
600.806	33490.09
601.002	33412.27
601.198	33555.63
601.395	33129.65
601.591	33051.83
601.787	33242.29
601.984	33223.86
602.18	33180.85
602.376	32781.49
602.572	32797.88
602.769	32883.89
602.965	32513.21
603.161	32666.81
603.357	32554.17
603.553	31941.83
603.75	32537.79
603.946	32132.29
604.142	32326.85
604.338	31573.19
604.534	31898.82
604.73	31376.59
604.926	31720.65
605.122	31622.34
605.318	31136.98
605.514	31347.92
605.71	31030.48
605.906	31255.76
606.102	31126.74
606.298	31235.28
606.494	30831.83
606.69	30815.44
606.886	30919.89
607.082	30440.67
607.278	30856.4
607.474	30266.59
607.67	30622.94
607.866	30127.33
608.062	30584.02
608.257	30182.62
608.453	30110.94
608.649	30487.77
608.845	29912.29
609.041	29889.76
609.236	30137.57
609.432	29555.94
609.628	30006.5
609.824	29768.93
610.019	29283.56
610.215	29613.29
610.411	29938.91
610.606	29641.96
610.802	29562.09
610.998	29572.33
611.193	29721.83
611.389	29033.71
611.584	28914.93
611.78	29064.43
611.976	29070.58
612.171	29246.7
612.367	29222.12
612.562	29211.88
612.758	28355.83
612.953	28730.61
613.149	28935.41
613.344	28859.63
613.539	29236.46
613.735	28738.8
613.93	28542.2
614.126	28519.67
614.321	28888.31
614.517	28757.24
614.712	28212.48
614.907	28183.8
615.103	28321.02
615.298	28120.32
615.493	28404.99
615.688	27755.78
615.884	28417.27
616.079	27702.53
616.274	28048.64
616.47	27608.33
616.665	28120.32
616.86	27849.99
617.055	27788.55
617.25	27682.05
617.445	27956.48
617.641	27370.76
617.836	27571.46
618.031	27278.6
618.226	27413.77
618.421	27153.68
618.616	27294.99
618.811	26909.97
619.006	27391.24
619.201	26602.77
619.396	26832.15
619.591	26223.9
619.786	26815.76
619.981	26567.96
620.176	26453.27
620.371	26236.19
620.566	26338.58
620.761	26070.3
620.956	25920.8
621.151	25910.56
621.346	26074.4
621.541	25683.23
621.735	25867.55
621.93	25193.77
622.125	25009.45
622.32	25134.38
622.515	25144.62
622.709	24997.17
622.904	24739.12
623.099	24438.07
623.294	24720.69
623.488	24022.33
623.683	24524.08
623.878	24077.63
624.072	24323.38
624.267	23985.47
624.462	23893.31
624.656	23590.21
624.851	24053.05
625.046	23172.43
625.24	23424.33
625.435	23135.56
625.629	23344.45
625.824	23170.38
626.018	22793.55
626.213	22512.98
626.407	22760.78
626.602	22197.59
626.796	22392.15
626.991	22334.81
627.185	22254.94
627.38	21882.2
627.574	21816.67
627.768	21923.16
627.963	21521.76
628.157	21503.33
628.352	21732.7
628.546	21042.54
628.74	21521.76
628.935	21058.92
629.129	21304.68
629.323	20833.64
629.517	20632.94
629.712	20776.3
629.906	20747.63
630.1	20256.12
630.294	20344.18
630.489	20247.93
630.683	20383.09
630.877	19881.34
631.071	19787.13
631.265	19557.76
631.459	19604.86
631.653	19643.77
631.848	19572.1
632.042	19547.52
632.236	19496.32
632.43	19002.76
632.624	19273.09
632.818	18988.42
633.012	18820.49
633.206	18843.02
633.4	19041.67
633.594	18627.98
633.788	18576.78
633.982	18795.92
634.176	18509.2
634.369	18064.79
634.563	18390.42
634.757	17843.61
634.951	18025.88
635.145	17900.95
635.339	17753.5
635.533	17909.15
635.726	17644.96
635.92	17474.98
636.114	17474.98
636.308	17296.8
636.501	17188.26
636.695	17284.51
636.889	17118.63
637.083	17083.81
637.276	16975.27
637.47	16856.49
637.664	16829.87
637.857	16762.28
638.051	16586.16
638.244	16698.8
638.438	16344.5
638.632	16461.23
638.825	16197.04
639.019	16205.24
639.212	16006.58
639.406	15930.81
639.599	15965.62
639.793	16061.88
639.986	15797.69
640.18	15805.88
640.373	15713.72
640.567	15719.87
640.76	15379.9
640.954	15107.52
641.147	15156.68
641.34	14865.86
641.534	15027.65
641.727	15132.1
641.92	15054.28
642.114	14845.38
642.307	14906.82
642.5	14693.83
642.694	14785.99
642.887	14599.63
643.08	14851.53
643.273	14380.5
643.467	14230.99
643.66	14446.03
643.853	14329.3
644.046	14050.77
644.239	13936.09
644.432	13907.41
644.626	13895.13
644.819	13821.4
645.012	13786.58
645.205	13731.29
645.398	13592.03
645.591	13626.84
645.784	13583.84
645.977	13549.02
646.17	13325.79
646.363	13237.73
646.556	12891.62
646.749	13127.14
646.942	13118.95
647.135	12930.53
647.328	12891.62
647.521	12891.62
647.714	12817.9
647.907	12807.66
648.099	12711.4
648.292	12547.56
648.485	12715.5
648.678	12625.39
648.871	12291.57
649.064	12226.03
649.256	12443.12
649.449	12266.99
649.642	12115.44
649.835	12099.06
650.027	12043.76
650.22	11871.73
650.413	11859.45
650.605	11849.21
650.798	11826.68
650.991	11740.66
651.183	11824.63
651.376	11714.04
651.568	11666.94
651.761	11478.52
651.954	11746.81
652.146	11306.49
652.339	11300.35
652.531	11402.75
652.724	11273.73
652.916	10993.15
653.109	10931.72
653.301	11097.6
653.494	11068.93
653.686	10659.34
653.879	11085.31
654.071	10937.86
654.263	10798.6
654.456	10786.31
654.648	10874.37
654.84	10569.23
655.033	10501.64
655.225	10573.32
655.417	10544.65
655.61	10601.99
655.802	10411.53
655.994	10188.3
656.186	10368.52
656.379	10151.44
656.571	10139.15
656.763	10133.01
656.955	10063.38
657.148	10102.29
657.34	10124.82
657.532	9827.86
657.724	9930.26
657.916	9864.72
658.108	9891.35
658.3	9700.89
658.492	9881.11
658.684	9455.13
658.876	9698.84
659.068	9553.43
659.26	9627.16
659.452	9461.27
659.644	9432.6
659.836	9260.57
660.028	9465.37
660.22	9217.57
660.412	9131.55
660.604	9008.67
660.796	9184.8
660.988	9152.03
661.18	9131.55
661.372	8740.39
661.563	9217.57
661.755	8875.56
661.947	8861.22
662.139	8801.83
662.331	8566.31
662.522	8685.09
662.714	8775.2
662.906	8549.93
663.097	8658.47
663.289	8441.39
663.481	8492.59
663.673	8453.67
663.864	8384.04
664.056	8273.45
664.247	8451.63
664.439	8351.28
664.631	8455.72
664.822	8281.64
665.014	8255.02
665.205	8082.99
665.397	8158.77
665.588	8089.14
665.78	8275.5
665.971	7886.39
666.163	7968.31
666.354	8085.04
666.546	8205.87
666.737	7923.25
666.929	7812.66
667.12	7892.53
667.311	7620.15
667.503	7724.6
667.694	8009.26
667.885	7575.1
668.077	7740.98
668.268	7597.62
668.459	7546.42
668.651	7611.96
668.842	7542.33
669.033	7661.11
669.224	7540.28
669.416	7796.28
669.607	7579.19
669.798	7364.15
669.989	7472.7
670.18	7310.91
670.371	7325.24
670.563	7435.83
670.754	7456.31
670.945	7315
671.136	7257.66
671.327	7228.99
671.518	7286.33
671.709	7384.63
671.9	7429.69
672.091	7253.56
672.282	7149.12
672.473	7022.14
672.664	7333.43
672.855	7130.69
673.046	7038.53
673.237	7067.2
673.428	6891.07
673.619	6972.99
673.809	6897.22
674	6960.7
674.191	6768.2
674.382	6987.33
674.573	6895.17
674.764	6907.46
674.954	7044.67
675.145	6727.24
675.336	6764.1
675.527	6833.73
675.717	6833.73
675.908	6698.56
676.099	6805.06
676.289	6637.13
676.48	6776.39
676.671	6878.79
676.861	6721.09
677.052	6841.92
677.243	6721.09
677.433	6581.83
677.624	6686.28
677.814	6633.03
678.005	6592.07
678.195	6762.05
678.386	6639.17
678.576	6477.38
678.767	6477.38
678.957	6774.34
679.148	6764.1
679.338	6637.13
679.529	6444.62
679.719	6477.38
679.909	6620.74
680.1	6516.3
680.29	6729.28
680.481	6608.45
680.671	6461
680.861	6415.94
681.052	6628.93
681.242	6487.62
681.432	6573.64
681.622	6594.12
681.813	6286.92
682.003	6399.56
682.193	6243.92
682.383	6256.2
682.573	6321.74
682.764	6366.79
682.954	6229.58
683.144	6422.09
683.334	6176.33
683.524	6174.28
683.714	6461
683.904	6473.29
684.094	6227.53
684.284	6288.97
684.474	6413.9
684.664	6211.15
684.854	6047.31
685.044	6159.95
685.234	6239.82
685.424	6272.59
685.614	6008.4
685.804	6164.04
685.994	6102.61
686.184	6237.77
686.374	6106.7
686.564	6110.8
686.753	5996.11
686.943	5983.82
687.133	5893.71
687.323	5996.11
687.513	6006.35
687.702	5926.48
687.892	5899.86
688.082	5719.64
688.272	5838.42
688.461	5789.27
688.651	5848.66
688.841	5719.64
689.03	5705.3
689.22	5514.84
689.41	5672.53
689.599	5523.03
689.789	5766.74
689.979	5514.84
690.168	5498.45
690.358	5668.44
690.547	5344.86
690.737	5488.21
690.926	5516.89
691.116	5394.01
691.305	5344.86
691.495	5457.5
691.684	5273.18
691.874	5279.32
692.063	5295.71
692.252	5215.84
692.442	5178.97
692.631	5105.24
692.82	5066.33
693.01	5092.96
693.199	5092.96
693.388	4998.75
693.578	4947.55
693.767	4933.22
693.956	4925.02
694.146	4830.82
694.335	4808.29
694.524	4886.11
694.713	4968.03
694.902	4863.58
695.092	4914.78
695.281	4730.47
695.47	4752.99
695.659	4720.23
695.848	4621.92
696.037	4785.76
696.226	4640.36
696.415	4599.4
696.604	4646.5
696.793	4607.59
696.982	4595.3
697.171	4527.72
697.36	4537.96
697.549	4572.77
697.738	4413.03
697.927	4372.07
698.116	4574.82
698.305	4523.62
698.494	4511.33
698.683	4425.32
698.872	4601.44
699.061	4347.5
699.25	4648.55
699.438	4458.09
699.627	4474.47
699.816	4525.67
700.005	4464.23
700.193	4505.19
700.382	4273.77
700.571	4492.9
700.76	4355.69
700.948	4439.65
701.137	4492.9
701.326	4419.18
701.514	4341.35
701.703	4497
701.892	4185.71
702.08	4451.94
702.269	4521.57
702.457	4236.91
702.646	4236.91
702.834	4273.77
703.023	4220.52
703.212	4286.06
703.4	4292.2
703.589	4234.86
703.777	4292.2
703.965	4253.29
704.154	4324.97
704.342	4300.39
704.531	4232.81
704.719	4206.19
704.907	4355.69
705.096	4177.51
705.284	4257.39
705.472	4249.19
705.661	4181.61
705.849	4406.89
706.037	4261.48
706.226	4316.78
706.414	4318.82
706.602	4038.25
706.79	4327.02
706.979	4138.6
707.167	4038.25
707.355	4193.9
707.543	4294.25
707.731	4359.78
707.919	4173.42
708.107	4099.69
708.296	4316.78
708.484	4118.12
708.672	4269.67
708.86	4189.8
709.048	4263.53
709.236	4171.37
709.424	4277.87
709.612	4228.71
709.8	4265.58
709.988	4230.76
710.176	4400.74
710.364	4310.63
710.551	4195.95
710.739	4171.37
710.927	4154.99
711.115	4294.25
711.303	4384.36
711.491	4314.73
711.679	4206.19
711.866	4247.15
712.054	4329.06
712.242	4236.91
712.43	4249.19
712.617	4355.69
712.805	4357.74
712.993	4271.72
713.181	4294.25
713.368	4525.67
713.556	4324.97
713.744	4052.59
713.931	4337.26
714.119	4263.53
714.306	4310.63
714.494	4245.1
714.682	4079.21
714.869	4306.54
715.057	4341.35
715.244	4208.23
715.432	4406.89
715.619	4257.39
715.807	4255.34
715.994	4447.85
716.182	4394.6
716.369	4251.24
716.556	4372.07
716.744	4173.42
716.931	4284.01
717.119	4331.11
717.306	4517.48
717.493	4288.11
717.681	4300.39
717.868	4542.05
718.055	4335.21
718.242	4374.12
718.43	4525.67
718.617	4331.11
718.804	4390.5
718.991	4363.88
719.179	4349.54
719.366	4425.32
719.553	4464.23
719.74	4339.3
719.927	4400.74
720.114	4384.36
720.301	4540.01
720.488	4425.32
720.676	4357.74
720.863	4363.88
721.05	4548.2
721.237	4376.17
721.424	4351.59
721.611	4482.66
721.798	4273.77
721.985	4236.91
722.172	4503.14
722.358	4378.22
722.545	4439.65
722.732	4380.26
722.919	4458.09
723.106	4251.24
723.293	4376.17
723.48	4462.18
723.667	4427.37
723.853	4460.13
724.04	4595.3
724.227	4425.32
724.414	4470.37
724.6	4386.41
724.787	4634.21
724.974	4476.52
725.161	4482.66
725.347	4447.85
725.534	4605.54
725.72	4492.9
725.907	4535.91
726.094	4574.82
726.28	4351.59
726.467	4394.6
726.653	4482.66
726.84	4546.15
727.027	4597.35
727.213	4546.15
727.4	4466.28
727.586	4671.08
727.773	4517.48
727.959	4476.52
728.145	4523.62
728.332	4509.29
728.518	4482.66
728.705	4566.63
728.891	4488.81
729.077	4730.47
729.264	4568.68
729.45	4550.25
729.636	4728.42
729.823	4775.52
730.009	4554.34
730.195	4636.26
730.382	4623.97
730.568	4488.81
730.754	4433.51
730.94	4501.09
731.126	4576.87
731.313	4499.05
731.499	4560.49
731.685	4634.21
731.871	4531.81
732.057	4664.93
732.243	4671.08
732.429	4664.93
732.615	4646.5
732.801	4515.43
732.987	4666.98
733.173	4523.62
733.359	4671.08
733.545	4658.79
733.731	4490.85
733.917	4523.62
734.103	4552.29
734.289	4578.92
734.475	4478.57
734.661	4591.2
734.847	4580.96
735.033	4482.66
735.219	4603.49
735.404	4533.86
735.59	4550.25
735.776	4615.78
735.962	4515.43
736.148	4638.31
736.333	4382.31
736.519	4382.31
736.705	4490.85
736.89	4644.45
737.076	4488.81
737.262	4599.4
737.447	4497
737.633	4509.29
737.819	4703.84
738.004	4472.42
738.19	4456.04
738.375	4374.12
738.561	4576.87
738.747	4388.46
738.932	4392.55
739.118	4449.89
739.303	4453.99
739.489	4351.59
739.674	4523.62
739.859	4431.46
740.045	4468.33
740.23	4478.57
740.416	4372.07
740.601	4460.13
740.786	4310.63
740.972	4275.82
741.157	4378.22
741.342	4197.99
741.528	4279.91
741.713	4279.91
741.898	4300.39
742.084	4179.56
742.269	4228.71
742.454	4365.93
742.639	4259.43
742.824	4337.26
743.01	4269.67
743.195	4206.19
743.38	4210.28
743.565	4142.7
743.75	4122.22
743.935	4132.46
744.12	4138.6
744.305	3987.05
744.49	3968.62
744.675	4077.16
744.86	3925.61
745.045	4058.73
745.23	4060.78
745.415	4075.12
745.6	4128.36
745.785	3993.2
745.97	3948.14
746.155	3933.81
746.34	3966.57
746.525	3948.14
746.71	4013.68
746.895	3835.5
747.079	3849.84
747.264	3784.3
747.449	3894.9
747.634	3726.96
747.819	3763.83
748.003	3772.02
748.188	3763.83
748.373	3743.35
748.557	3653.23
748.742	3640.95
748.927	3698.29
749.111	3520.12
749.296	3552.88
749.481	3423.86
749.665	3468.92
749.85	3395.19
750.034	3509.88
750.219	3501.69
750.404	3583.6
750.588	3442.29
750.773	3456.63
750.957	3387
751.141	3325.56
751.326	3321.46
751.51	3200.63
751.695	3149.43
751.879	3249.79
752.064	3321.46
752.248	3229.31
752.432	3231.35
752.617	3225.21
752.801	3110.52
752.985	3241.59
753.17	3133.05
753.354	3169.91
753.538	3006.08
753.722	2848.38
753.907	2860.67
754.091	2936.45
754.275	2979.45
754.459	2991.74
754.643	3063.42
754.828	2946.69
755.012	3049.08
755.196	2983.55
755.38	2854.53
755.564	2829.95
755.748	2778.75
755.932	2881.15
756.116	2852.48
756.3	2760.32
756.484	2823.81
756.668	2756.22
756.852	2662.02
757.036	2641.54
757.22	2594.44
757.404	2668.16
757.588	2565.76
757.772	2664.07
757.956	2608.77
758.14	2557.57
758.323	2446.98
758.507	2584.2
758.691	2500.23
758.875	2494.08
759.059	2563.72
759.242	2432.65
759.426	2578.05
759.61	2375.3
759.794	2348.68
759.977	2520.71
760.161	2520.71
760.345	2395.78
760.528	2342.53
760.712	2350.73
760.895	2442.89
761.079	2336.39
761.263	2293.38
761.446	2213.51
761.63	2291.34
761.813	2182.79
761.997	2258.57
762.18	2178.7
762.364	2297.48
762.547	2115.21
762.731	2051.72
762.914	2190.99
763.098	2057.87
763.281	2176.65
763.464	2180.75
763.648	2133.64
763.831	2172.55
764.015	2125.45
764.198	2127.5
764.381	2125.45
764.564	1951.37
764.748	2164.36
764.931	2037.39
765.114	1980.04
765.297	2055.82
765.481	2041.48
765.664	1996.43
765.847	1963.66
766.03	2035.34
766.213	2045.58
766.397	1947.28
766.58	1982.09
766.763	1889.93
766.946	1959.56
767.129	2012.81
767.312	1926.8
767.495	1986.19
767.678	1869.45
767.861	1910.41
768.044	1803.92
768.227	1857.17
768.41	1853.07
768.593	1824.4
768.776	1908.37
768.959	1898.13
769.142	1918.61
769.324	1775.25
769.507	1857.17
769.69	1697.42
769.873	1789.58
770.056	1894.03
770.239	1789.58
770.421	1787.54
770.604	1789.58
770.787	1767.06
770.97	1797.78
771.152	1705.62
771.335	1703.57
771.518	1623.7
771.7	1670.8
771.883	1705.62
772.066	1662.61
772.248	1695.38
772.431	1726.1
772.613	1629.84
772.796	1726.1
772.978	1715.86
773.161	1705.62
773.343	1599.12
773.526	1590.93
773.708	1625.75
773.891	1580.69
774.073	1527.44
774.256	1529.49
774.438	1545.88
774.621	1513.11
774.803	1621.65
774.985	1480.34
775.168	1482.39
775.35	1541.78
775.532	1568.4
775.715	1556.11
775.897	1504.92
776.079	1445.52
776.261	1439.38
776.444	1461.91
776.626	1429.14
776.808	1349.27
776.99	1396.37
777.173	1388.18
777.355	1287.83
777.537	1345.17
777.719	1349.27
777.901	1259.16
778.083	1326.74
778.265	1265.3
778.447	1281.69
778.629	1347.22
778.811	1246.87
778.993	1382.04
779.175	1316.5
779.357	1263.26
779.539	1214.1
779.721	1191.58
779.903	1162.9
780.085	1185.43
780.267	1156.76
780.449	1185.43
780.631	1167
780.812	1267.35
780.994	1128.09
781.176	1060.51
781.358	1183.38
781.54	1050.27
781.721	1187.48
781.903	1189.53
782.085	1003.16
782.267	1095.32
782.448	1052.31
782.63	1040.03
782.812	1123.99
782.993	1132.19
783.175	1083.03
783.357	1054.36
783.538	1095.32
783.72	921.24
783.901	988.83
784.083	1083.03
784.264	1015.45
784.446	921.24
784.627	935.58
784.809	994.97
784.99	964.25
785.172	958.11
785.353	951.96
785.535	947.87
785.716	904.86
785.897	931.48
786.079	863.9
786.26	857.76
786.441	947.87
786.623	796.32
786.804	880.29
786.985	822.94
787.167	919.2
787.348	898.72
787.529	884.38
787.71	843.42
787.891	845.47
788.073	833.18
788.254	833.18
788.435	921.24
788.616	804.51
788.797	736.93
788.978	853.66
789.159	784.03
789.34	767.65
789.522	808.61
789.703	841.37
789.884	820.89
790.065	784.03
790.246	822.94
790.427	738.98
790.607	767.65
790.788	790.17
790.969	763.55
791.15	708.26
791.331	745.12
791.512	695.97
791.693	636.58
791.874	667.3
792.054	818.85
792.235	771.74
792.416	605.86
792.597	698.02
792.778	732.83
792.958	642.72
793.139	679.58
793.32	743.07
793.5	669.34
793.681	681.63
793.862	648.86
794.042	583.33
794.223	650.91
794.404	702.11
794.584	673.44
794.765	587.43
794.945	663.2
795.126	630.43
795.306	603.81
795.487	652.96
795.667	577.19
795.848	616.1
796.028	528.03
796.209	648.86
796.389	577.19
796.57	616.1
796.75	511.65
796.93	640.67
797.111	452.26
797.291	530.08
797.471	566.95
797.652	560.8
797.832	538.27
798.012	558.75
798.192	458.4
798.373	554.66
798.553	540.32
798.733	509.6
798.913	579.23
799.093	460.45
799.274	577.19
799.454	521.89
799.634	546.47
799.814	523.94
799.994	562.85
800.174	472.74
800.354	495.27
800.534	427.68
800.714	538.27
800.894	433.83
801.074	511.65
801.254	499.36
801.434	517.79
801.614	442.02
801.794	448.16
801.974	1420.95
802.154	468.64
802.334	454.31
802.514	394.92
802.693	472.74
802.873	439.97
803.053	599.71
803.233	499.36
803.413	419.49
803.592	489.12
803.772	405.16
803.952	472.74
804.131	460.45
804.311	519.84
804.491	536.23
804.67	450.21
804.85	366.25
805.03	417.44
805.209	542.37
805.389	409.25
805.568	444.07
805.748	421.54
805.928	478.88
806.107	507.55
806.287	384.68
806.466	454.31
806.646	509.6
806.825	374.44
807.004	507.55
807.184	337.57
807.363	413.35
807.543	407.2
807.722	413.35
807.901	417.44
808.081	468.64
808.26	394.92
808.439	339.62
808.619	296.61
808.798	376.48
808.977	458.4
809.156	446.12
809.336	427.68
809.515	431.78
809.694	413.35
809.873	360.1
810.052	343.72
810.231	380.58
810.411	366.25
810.59	435.88
810.769	284.33
810.948	353.96
811.127	239.27
811.306	384.68
811.485	362.15
811.664	435.88
811.843	339.62
812.022	345.77
812.201	302.76
812.38	276.13
812.559	345.77
812.737	343.72
812.916	265.89
813.095	345.77
813.274	372.39
813.453	349.86
813.632	388.77
813.811	362.15
813.989	292.52
814.168	364.2
814.347	294.57
814.526	292.52
814.704	366.25
814.883	368.29
815.062	292.52
815.24	290.47
815.419	245.41
815.598	315.05
815.776	214.7
815.955	308.9
816.133	220.84
816.312	253.61
816.49	304.81
816.669	272.04
816.847	269.99
817.026	255.65
817.204	265.89
817.383	296.61
817.561	265.89
817.74	272.04
817.918	249.51
818.097	249.51
818.275	257.7
818.453	356.01
818.632	267.94
818.81	251.56
818.988	247.46
819.167	269.99
819.345	218.79
819.523	302.76
819.701	265.89
819.879	319.14
820.058	284.33
820.236	206.5
820.414	274.09
820.592	292.52
820.77	253.61
820.948	280.23
821.127	235.18
821.305	290.47
821.483	255.65
821.661	288.42
821.839	226.98
822.017	212.65
822.195	302.76
822.373	321.19
822.551	220.84
822.729	290.47
822.907	243.37
823.085	259.75
823.262	272.04
823.44	208.55
823.618	259.75
823.796	208.55
823.974	173.74
824.152	181.93
824.329	231.08
824.507	304.81
824.685	218.79
824.863	206.5
825.04	194.22
825.218	177.83
825.396	167.59
825.574	290.47
825.751	222.89
825.929	313
826.107	132.78
826.284	278.18
826.462	216.74
826.639	177.83
826.817	173.74
826.994	214.7
827.172	157.35
827.349	263.85
827.527	302.76
827.704	173.74
827.882	200.36
828.059	255.65
828.237	222.89
828.414	173.74
828.591	120.49
828.769	239.27
828.946	97.96
829.124	231.08
829.301	196.26
829.478	173.74
829.655	136.87
829.833	198.31
830.01	173.74
830.187	210.6
830.364	147.11
830.542	208.55
830.719	224.94
830.896	151.21
831.073	179.88
831.25	151.21
831.427	165.54
831.604	251.56
831.782	93.87
831.959	200.36
832.136	212.65
832.313	206.5
832.49	132.78
832.667	196.26
832.844	196.26
833.021	214.7
833.198	116.39
833.374	157.35
833.551	147.11
833.728	206.5
833.905	169.64
834.082	106.15
834.259	126.63
834.436	198.31
834.612	190.12
834.789	198.31
834.966	204.46
835.143	102.06
835.319	128.68
835.496	130.73
835.673	192.17
835.85	231.08
836.026	134.82
836.203	235.18
836.38	100.01
836.556	155.3
836.733	95.91
836.909	319.14
837.086	157.35
837.262	85.67
837.439	149.16
837.616	104.11
837.792	57
837.968	140.97
838.145	143.02
838.321	143.02
838.498	132.78
838.674	134.82
838.851	161.45
839.027	126.63
839.203	95.91
839.38	149.16
839.556	83.63
839.732	151.21
839.909	59.05
840.085	218.79
840.261	145.06
840.437	114.34
840.614	104.11
840.79	208.55
840.966	93.87
841.142	181.93
841.318	134.82
841.494	71.34
841.671	77.48
841.847	102.06
842.023	126.63
842.199	233.13
842.375	140.97
842.551	77.48
842.727	132.78
842.903	155.3
843.079	112.3
843.255	143.02
843.431	89.77
843.607	132.78
843.783	30.38
843.959	149.16
844.134	65.19
844.31	214.7
844.486	87.72
844.662	91.82
844.838	126.63
845.013	149.16
845.189	159.4
845.365	112.3
845.541	93.87
845.716	222.89
845.892	155.3
846.068	83.63
846.244	71.34
846.419	126.63
846.595	97.96
846.77	81.58
846.946	61.1
847.122	77.48
847.297	44.71
847.473	206.5
847.648	71.34
847.824	143.02
847.999	-29.01
848.175	153.26
848.35	77.48
848.526	177.83
848.701	136.87
848.876	136.87
849.052	116.39
849.227	140.97
849.403	61.1
849.578	128.68
849.753	85.67
849.929	114.34
850.104	24.23
850.279	116.39
850.454	134.82
850.63	116.39
850.805	91.82
850.98	192.17
851.155	132.78
851.33	116.39
851.505	73.39
851.681	91.82
851.856	67.24
852.031	13.99
852.206	110.25
852.381	46.76
852.556	46.76
852.731	59.05
852.906	173.74
853.081	140.97
853.256	104.11
853.431	95.91
853.606	71.34
853.781	22.19
853.956	140.97
854.131	108.2
854.305	52.91
854.48	81.58
854.655	65.19
854.83	65.19
855.005	71.34
855.18	112.3
855.354	-22.87
855.529	34.47
855.704	85.67
855.879	63.15
856.053	81.58
856.228	130.73
856.403	95.91
856.577	73.39
856.752	91.82
856.926	9.9
857.101	24.23
857.276	67.24
857.45	40.62
857.625	108.2
857.799	79.53
857.974	112.3
858.148	-4.44
858.323	77.48
858.497	67.24
858.672	-31.06
858.846	93.87
859.02	28.33
859.195	73.39
859.369	-14.68
859.543	13.99
859.718	65.19
859.892	71.34
860.066	-31.06
860.241	54.95
860.415	46.76
860.589	81.58
860.763	110.25
860.938	50.86
861.112	38.57
861.286	69.29
861.46	-14.68
861.634	108.2
861.808	108.2
861.982	108.2
862.157	95.91
862.331	20.14
862.505	28.33
862.679	9.9
862.853	65.19
863.027	67.24
863.201	140.97
863.375	-31.06
863.549	69.29
863.722	122.54
863.896	59.05
864.07	59.05
864.244	89.77
864.418	59.05
864.592	87.72
864.766	42.67
864.939	73.39
865.113	18.09
865.287	149.16
865.461	85.67
865.634	106.15
865.808	67.24
865.982	69.29
866.156	-10.58
866.329	13.99
866.503	104.11
866.676	83.63
866.85	83.63
867.024	83.63
867.197	65.19
867.371	108.2
867.544	50.86
867.718	54.95
867.891	34.47
868.065	79.53
868.238	44.71
868.412	97.96
868.585	28.33
868.759	16.04
868.932	54.95
869.105	9.9
869.279	118.44
869.452	-18.77
869.625	59.05
869.799	38.57
869.972	20.14
870.145	93.87
870.319	95.91
870.492	-12.63
870.665	-31.06
870.838	-22.87
871.011	5.8
871.185	79.53
871.358	71.34
871.531	85.67
871.704	40.62
871.877	22.19
872.05	52.91
872.223	112.3
872.396	132.78
872.569	69.29
872.742	1.71
872.915	28.33
873.088	30.38
873.261	22.19
873.434	30.38
873.607	-2.39
873.78	85.67
873.953	1.71
874.126	34.47
874.299	48.81
874.471	3.75
874.644	42.67
874.817	132.78
874.99	167.59
875.163	20.14
875.335	28.33
875.508	77.48
875.681	97.96
875.853	32.43
876.026	-31.06
876.199	52.91
876.371	42.67
876.544	-16.73
876.717	50.86
876.889	42.67
877.062	81.58
877.234	22.19
877.407	44.71
877.579	46.76
877.752	48.81
877.924	95.91
878.097	-26.96
878.269	65.19
878.442	69.29
878.614	97.96
878.786	16.04
878.959	26.28
879.131	147.11
879.303	30.38
879.476	120.49
879.648	75.43
879.82	102.06
879.993	22.19
880.165	3.75
880.337	-57.68
880.509	100.01
880.681	-45.4
880.854	-55.64
881.026	104.11
881.198	112.3
881.37	83.63
881.542	11.95
881.714	65.19
881.886	9.9
882.058	75.43
882.23	11.95
882.402	-14.68
882.574	1.71
882.746	69.29
882.918	50.86
883.09	57
883.262	65.19
883.434	26.28
883.606	9.9
883.778	16.04
883.95	106.15
884.122	-47.44
884.293	26.28
884.465	38.57
884.637	11.95
884.809	-22.87
884.98	3.75
885.152	104.11
885.324	26.28
885.496	-6.49
885.667	54.95
885.839	9.9
886.011	97.96
886.182	-55.64
886.354	75.43
886.525	34.47
886.697	16.04
886.869	1.71
887.04	73.39
887.212	93.87
887.383	36.52
887.555	13.99
887.726	30.38
887.897	59.05
888.069	11.95
888.24	50.86
888.412	57
888.583	-12.63
888.754	67.24
888.926	-16.73
889.097	1.71
889.268	22.19
889.44	63.15
889.611	-57.68
889.782	-26.96
889.953	9.9
890.125	69.29
890.296	-12.63
890.467	1.71
890.638	-2.39
890.809	44.71
890.98	22.19
891.151	28.33
891.323	28.33
891.494	67.24
891.665	11.95
891.836	-4.44
892.007	52.91
892.178	83.63
892.349	65.19
892.52	46.76
892.691	34.47
892.862	44.71
893.032	3.75
893.203	87.72
893.374	-37.2
893.545	34.47
893.716	28.33
893.887	46.76
894.057	-6.49
894.228	42.67
894.399	-100.69
894.57	42.67
894.74	1.71
894.911	-4.44
895.082	24.23
895.253	97.96
895.423	-4.44
895.594	67.24
895.764	83.63
895.935	16.04
896.106	38.57
896.276	57
896.447	108.2
896.617	-53.59
896.788	-84.31
896.958	-29.01
897.129	36.52
897.299	46.76
897.47	95.91
897.64	16.04
897.81	85.67
897.981	36.52
898.151	-2.39
898.322	-45.4
898.492	36.52
898.662	1.71
898.832	30.38
899.003	-31.06
899.173	18.09
899.343	-10.58
899.513	5.8
