Data from USB4F104151__73__13-06-02-040.txt Node

Date: Fri Mar 14 13:06:02 EDT 2025
User: louis
Spectrometer: USB4F10415
Trigger mode: 4
Integration Time (sec): 4.000000E-2
Scans to average: 1
Electric dark correction enabled: true
Nonlinearity correction enabled: false
Boxcar width: 0
XAxis mode: Wavelengths
Number of Pixels in Spectrum: 3648
>>>>>Begin Spectral Data<<<<<
178.204	-208.89
178.424	-208.89
178.644	-208.89
178.864	-184.32
179.084	-141.31
179.304	4.1
179.524	22.53
179.744	0
179.964	-36.86
180.184	4.1
180.404	81.92
180.624	-47.1
180.844	2.05
181.064	-24.58
181.283	-16.38
181.503	-38.91
181.723	49.15
181.943	-22.53
182.163	90.11
182.383	-28.67
182.602	28.67
182.822	34.82
183.042	92.16
183.262	22.53
183.482	-92.16
183.701	-30.72
183.921	-20.48
184.141	-22.53
184.361	14.34
184.58	96.25
184.8	55.3
185.02	14.34
185.239	40.96
185.459	-20.48
185.679	22.53
185.898	-24.58
186.118	45.06
186.338	67.58
186.557	51.2
186.777	-94.21
186.997	-32.77
187.216	16.38
187.436	114.69
187.655	22.53
187.875	51.2
188.095	-4.1
188.314	12.29
188.534	79.87
188.753	-20.48
188.973	75.77
189.192	75.77
189.412	32.77
189.631	26.62
189.851	-34.82
190.07	65.53
190.29	-34.82
190.509	-8.19
190.729	-8.19
190.948	43.01
191.168	186.37
191.387	100.35
191.607	-16.38
191.826	49.15
192.045	-28.67
192.265	-10.24
192.484	8.19
192.704	75.77
192.923	16.38
193.142	149.5
193.362	49.15
193.581	49.15
193.8	51.2
194.02	131.07
194.239	45.06
194.458	86.01
194.678	40.96
194.897	59.39
195.116	57.34
195.335	-22.53
195.555	108.54
195.774	63.49
195.993	10.24
196.212	-8.19
196.432	-22.53
196.651	-8.19
196.87	49.15
197.089	106.49
197.308	100.35
197.528	92.16
197.747	26.62
197.966	-6.14
198.185	186.37
198.404	-26.62
198.623	49.15
198.842	53.25
199.062	45.06
199.281	110.59
199.5	96.25
199.719	51.2
199.938	63.49
200.157	81.92
200.376	79.87
200.595	45.06
200.814	102.4
201.033	-45.06
201.252	49.15
201.471	-28.67
201.69	32.77
201.909	-14.34
202.128	73.73
202.347	4.1
202.566	20.48
202.785	-55.3
203.004	-16.38
203.223	155.65
203.442	53.25
203.661	61.44
203.879	34.82
204.098	71.68
204.317	-22.53
204.536	53.25
204.755	6.14
204.974	86.01
205.193	32.77
205.411	122.88
205.63	98.3
205.849	69.63
206.068	10.24
206.287	24.58
206.505	43.01
206.724	-16.38
206.943	30.72
207.162	32.77
207.381	36.86
207.599	-20.48
207.818	49.15
208.037	10.24
208.255	6.14
208.474	10.24
208.693	49.15
208.911	0
209.13	10.24
209.349	86.01
209.567	0
209.786	26.62
210.005	61.44
210.223	24.58
210.442	-79.87
210.661	-40.96
210.879	63.49
211.098	71.68
211.316	12.29
211.535	94.21
211.753	49.15
211.972	16.38
212.191	8.19
212.409	32.77
212.628	43.01
212.846	-45.06
213.065	20.48
213.283	14.34
213.502	2.05
213.72	-6.14
213.938	61.44
214.157	12.29
214.375	55.3
214.594	38.91
214.812	34.82
215.031	49.15
215.249	67.58
215.467	12.29
215.686	16.38
215.904	-16.38
216.122	20.48
216.341	63.49
216.559	-32.77
216.778	75.77
216.996	57.34
217.214	26.62
217.432	-12.29
217.651	-36.86
217.869	28.67
218.087	10.24
218.306	63.49
218.524	81.92
218.742	2.05
218.96	-20.48
219.179	-2.05
219.397	83.97
219.615	165.89
219.833	-16.38
220.051	-26.62
220.27	69.63
220.488	-4.1
220.706	83.97
220.924	-18.43
221.142	-24.58
221.36	73.73
221.578	-73.73
221.796	14.34
222.015	24.58
222.233	20.48
222.451	106.49
222.669	-24.58
222.887	47.1
223.105	-10.24
223.323	49.15
223.541	12.29
223.759	26.62
223.977	49.15
224.195	75.77
224.413	98.3
224.631	43.01
224.849	-24.58
225.067	110.59
225.285	30.72
225.503	-4.1
225.721	-40.96
225.939	-32.77
226.157	20.48
226.375	167.93
226.592	-71.68
226.81	12.29
227.028	98.3
227.246	147.45
227.464	12.29
227.682	116.73
227.9	43.01
228.117	40.96
228.335	24.58
228.553	10.24
228.771	16.38
228.989	59.39
229.206	6.14
229.424	45.06
229.642	51.2
229.86	36.86
230.077	69.63
230.295	-8.19
230.513	43.01
230.731	65.53
230.948	4.1
231.166	106.49
231.384	-28.67
231.601	-18.43
231.819	75.77
232.037	30.72
232.254	-77.82
232.472	-22.53
232.689	-22.53
232.907	92.16
233.125	102.4
233.342	-8.19
233.56	36.86
233.777	-22.53
233.995	0
234.213	49.15
234.43	8.19
234.648	69.63
234.865	57.34
235.083	36.86
235.3	32.77
235.518	75.77
235.735	112.64
235.953	34.82
236.17	-20.48
236.388	67.58
236.605	4.1
236.822	10.24
237.04	169.98
237.257	43.01
237.475	32.77
237.692	73.73
237.909	-16.38
238.127	65.53
238.344	10.24
238.562	98.3
238.779	-47.1
238.996	0
239.214	36.86
239.431	51.2
239.648	20.48
239.865	65.53
240.083	-8.19
240.3	6.14
240.517	75.77
240.735	49.15
240.952	-2.05
241.169	61.44
241.386	83.97
241.603	40.96
241.821	-22.53
242.038	47.1
242.255	65.53
242.472	26.62
242.689	65.53
242.907	122.88
243.124	-28.67
243.341	18.43
243.558	0
243.775	-43.01
243.992	16.38
244.209	-47.1
244.426	38.91
244.643	-8.19
244.86	24.58
245.078	69.63
245.295	20.48
245.512	65.53
245.729	-43.01
245.946	172.03
246.163	16.38
246.38	69.63
246.597	49.15
246.814	6.14
247.031	-4.1
247.248	16.38
247.464	8.19
247.681	53.25
247.898	38.91
248.115	77.82
248.332	-22.53
248.549	90.11
248.766	133.12
248.983	0
249.2	-26.62
249.417	126.97
249.633	36.86
249.85	26.62
250.067	-4.1
250.284	112.64
250.501	88.06
250.717	59.39
250.934	-2.05
251.151	36.86
251.368	10.24
251.585	45.06
251.801	106.49
252.018	-16.38
252.235	61.44
252.451	-6.14
252.668	4.1
252.885	100.35
253.102	90.11
253.318	47.1
253.535	24.58
253.752	16.38
253.968	0
254.185	0
254.401	94.21
254.618	-34.82
254.835	10.24
255.051	96.25
255.268	73.73
255.484	108.54
255.701	2.05
255.917	73.73
256.134	-36.86
256.351	24.58
256.567	30.72
256.784	14.34
257	30.72
257.217	-47.1
257.433	83.97
257.65	34.82
257.866	120.83
258.082	-14.34
258.299	-4.1
258.515	73.73
258.732	-24.58
258.948	-32.77
259.165	81.92
259.381	40.96
259.597	40.96
259.814	16.38
260.03	32.77
260.246	96.25
260.463	-45.06
260.679	18.43
260.895	-8.19
261.112	122.88
261.328	-26.62
261.544	-26.62
261.761	38.91
261.977	-38.91
262.193	-24.58
262.409	51.2
262.626	73.73
262.842	26.62
263.058	-51.2
263.274	40.96
263.49	75.77
263.707	108.54
263.923	94.21
264.139	67.58
264.355	32.77
264.571	96.25
264.787	88.06
265.004	100.35
265.22	59.39
265.436	18.43
265.652	12.29
265.868	73.73
266.084	-28.67
266.3	26.62
266.516	12.29
266.732	51.2
266.948	-32.77
267.164	59.39
267.38	131.07
267.596	16.38
267.812	77.82
268.028	-40.96
268.244	0
268.46	36.86
268.676	26.62
268.892	59.39
269.108	24.58
269.324	20.48
269.54	53.25
269.756	47.1
269.972	-38.91
270.188	32.77
270.403	-30.72
270.619	32.77
270.835	51.2
271.051	65.53
271.267	-14.34
271.483	24.58
271.698	61.44
271.914	2.05
272.13	-45.06
272.346	71.68
272.562	69.63
272.777	63.49
272.993	34.82
273.209	10.24
273.425	-67.58
273.64	32.77
273.856	47.1
274.072	18.43
274.287	47.1
274.503	20.48
274.719	86.01
274.934	20.48
275.15	4.1
275.366	24.58
275.581	-55.3
275.797	73.73
276.012	55.3
276.228	106.49
276.444	43.01
276.659	83.97
276.875	-40.96
277.09	32.77
277.306	-10.24
277.521	-6.14
277.737	-45.06
277.952	34.82
278.168	57.34
278.383	-30.72
278.599	32.77
278.814	57.34
279.03	102.4
279.245	118.78
279.461	83.97
279.676	28.67
279.892	-12.29
280.107	20.48
280.322	10.24
280.538	-30.72
280.753	32.77
280.969	65.53
281.184	-32.77
281.399	124.93
281.615	-2.05
281.83	73.73
282.045	-20.48
282.26	24.58
282.476	8.19
282.691	120.83
282.906	20.48
283.122	-57.34
283.337	0
283.552	-18.43
283.767	-14.34
283.983	59.39
284.198	26.62
284.413	-22.53
284.628	-65.54
284.843	-38.91
285.058	69.63
285.274	55.3
285.489	-43.01
285.704	47.1
285.919	-18.43
286.134	73.73
286.349	-4.1
286.564	22.53
286.779	122.88
286.995	63.49
287.21	45.06
287.425	100.35
287.64	14.34
287.855	47.1
288.07	12.29
288.285	38.91
288.5	81.92
288.715	92.16
288.93	24.58
289.145	-28.67
289.36	59.39
289.575	32.77
289.79	92.16
290.004	-6.14
290.219	116.73
290.434	14.34
290.649	40.96
290.864	36.86
291.079	43.01
291.294	36.86
291.509	8.19
291.724	-18.43
291.938	-18.43
292.153	-16.38
292.368	47.1
292.583	98.3
292.798	63.49
293.012	-14.34
293.227	75.77
293.442	18.43
293.657	122.88
293.871	71.68
294.086	-16.38
294.301	69.63
294.516	53.25
294.73	106.49
294.945	26.62
295.16	73.73
295.374	118.78
295.589	24.58
295.804	24.58
296.018	77.82
296.233	47.1
296.447	59.39
296.662	81.92
296.877	69.63
297.091	57.34
297.306	77.82
297.52	57.34
297.735	57.34
297.949	12.29
298.164	69.63
298.378	8.19
298.593	-6.14
298.807	14.34
299.022	-28.67
299.236	57.34
299.451	43.01
299.665	83.97
299.88	53.25
300.094	16.38
300.309	8.19
300.523	20.48
300.737	-30.72
300.952	18.43
301.166	-10.24
301.381	38.91
301.595	108.54
301.809	45.06
302.024	88.06
302.238	-16.38
302.452	81.92
302.667	-14.34
302.881	124.93
303.095	90.11
303.309	-40.96
303.524	12.29
303.738	-16.38
303.952	-26.62
304.166	83.97
304.381	-20.48
304.595	24.58
304.809	34.82
305.023	59.39
305.237	-14.34
305.452	-6.14
305.666	88.06
305.88	43.01
306.094	75.77
306.308	30.72
306.522	67.58
306.736	26.62
306.95	92.16
307.164	14.34
307.379	83.97
307.593	16.38
307.807	90.11
308.021	47.1
308.235	22.53
308.449	26.62
308.663	163.84
308.877	92.16
309.091	24.58
309.305	90.11
309.519	-12.29
309.733	104.45
309.947	-16.38
310.161	86.01
310.374	8.19
310.588	53.25
310.802	34.82
311.016	40.96
311.23	16.38
311.444	34.82
311.658	67.58
311.872	-2.05
312.085	102.4
312.299	86.01
312.513	75.77
312.727	49.15
312.941	-40.96
313.154	-2.05
313.368	-38.91
313.582	2.05
313.796	79.87
314.009	36.86
314.223	0
314.437	10.24
314.651	108.54
314.864	-32.77
315.078	-45.06
315.292	32.77
315.505	6.14
315.719	20.48
315.933	90.11
316.146	30.72
316.36	0
316.573	90.11
316.787	2.05
317.001	18.43
317.214	-8.19
317.428	112.64
317.641	-6.14
317.855	102.4
318.068	8.19
318.282	86.01
318.495	126.97
318.709	102.4
318.922	59.39
319.136	63.49
319.349	-4.1
319.563	14.34
319.776	43.01
319.99	49.15
320.203	92.16
320.417	32.77
320.63	28.67
320.843	100.35
321.057	18.43
321.27	59.39
321.483	53.25
321.697	126.97
321.91	36.86
322.124	-18.43
322.337	16.38
322.55	-45.06
322.763	26.62
322.977	59.39
323.19	26.62
323.403	10.24
323.617	24.58
323.83	-20.48
324.043	-49.15
324.256	18.43
324.469	2.05
324.683	57.34
324.896	14.34
325.109	75.77
325.322	57.34
325.535	43.01
325.748	40.96
325.962	57.34
326.175	26.62
326.388	49.15
326.601	90.11
326.814	65.53
327.027	43.01
327.24	145.41
327.453	-86.01
327.666	40.96
327.879	32.77
328.092	0
328.305	55.3
328.518	92.16
328.731	8.19
328.944	98.3
329.157	83.97
329.37	-12.29
329.583	122.88
329.796	86.01
330.009	-2.05
330.222	102.4
330.435	-12.29
330.648	-28.67
330.861	110.59
331.073	96.25
331.286	75.77
331.499	59.39
331.712	2.05
331.925	30.72
332.138	26.62
332.35	73.73
332.563	2.05
332.776	135.17
332.989	18.43
333.202	67.58
333.414	53.25
333.627	53.25
333.84	112.64
334.053	-65.54
334.265	16.38
334.478	22.53
334.691	43.01
334.903	81.92
335.116	32.77
335.329	26.62
335.541	43.01
335.754	100.35
335.966	45.06
336.179	83.97
336.392	12.29
336.604	34.82
336.817	63.49
337.029	96.25
337.242	36.86
337.454	90.11
337.667	-26.62
337.88	40.96
338.092	90.11
338.305	2.05
338.517	38.91
338.729	77.82
338.942	4.1
339.154	-8.19
339.367	63.49
339.579	90.11
339.792	16.38
340.004	59.39
340.217	-18.43
340.429	63.49
340.641	26.62
340.854	86.01
341.066	-47.1
341.278	86.01
341.491	157.69
341.703	73.73
341.915	28.67
342.128	43.01
342.34	47.1
342.552	49.15
342.764	59.39
342.977	51.2
343.189	69.63
343.401	28.67
343.613	98.3
343.826	122.88
344.038	-32.77
344.25	94.21
344.462	45.06
344.674	51.2
344.886	81.92
345.099	75.77
345.311	43.01
345.523	-34.82
345.735	-18.43
345.947	59.39
346.159	51.2
346.371	4.1
346.583	-4.1
346.795	167.93
347.007	18.43
347.219	98.3
347.431	-53.25
347.643	63.49
347.855	43.01
348.067	83.97
348.279	45.06
348.491	24.58
348.703	63.49
348.915	51.2
349.127	126.97
349.339	69.63
349.551	36.86
349.763	71.68
349.975	79.87
350.187	90.11
350.399	114.69
350.61	120.83
350.822	14.34
351.034	36.86
351.246	-12.29
351.458	139.26
351.669	79.87
351.881	88.06
352.093	57.34
352.305	57.34
352.517	28.67
352.728	57.34
352.94	75.77
353.152	102.4
353.363	26.62
353.575	141.31
353.787	77.82
353.999	90.11
354.21	169.98
354.422	18.43
354.633	59.39
354.845	-8.19
355.057	24.58
355.268	63.49
355.48	116.73
355.692	40.96
355.903	2.05
356.115	8.19
356.326	2.05
356.538	143.36
356.749	79.87
356.961	94.21
357.172	10.24
357.384	18.43
357.595	92.16
357.807	114.69
358.018	4.1
358.23	79.87
358.441	118.78
358.653	63.49
358.864	69.63
359.075	40.96
359.287	137.21
359.498	-2.05
359.709	81.92
359.921	69.63
360.132	12.29
360.344	-16.38
360.555	-28.67
360.766	190.46
360.977	59.39
361.189	100.35
361.4	43.01
361.611	151.55
361.823	43.01
362.034	32.77
362.245	-16.38
362.456	77.82
362.667	90.11
362.879	36.86
363.09	104.45
363.301	102.4
363.512	108.54
363.723	65.53
363.935	26.62
364.146	118.78
364.357	-6.14
364.568	20.48
364.779	2.05
364.99	108.54
365.201	-8.19
365.412	108.54
365.623	-18.43
365.834	94.21
366.045	61.44
366.256	73.73
366.467	81.92
366.678	43.01
366.889	-20.48
367.1	67.58
367.311	122.88
367.522	45.06
367.733	69.63
367.944	65.53
368.155	126.97
368.366	24.58
368.577	88.06
368.788	141.31
368.999	34.82
369.209	8.19
369.42	61.44
369.631	143.36
369.842	71.68
370.053	47.1
370.264	106.49
370.474	81.92
370.685	36.86
370.896	61.44
371.107	118.78
371.317	114.69
371.528	141.31
371.739	110.59
371.95	49.15
372.16	36.86
372.371	36.86
372.582	69.63
372.792	86.01
373.003	67.58
373.214	-51.2
373.424	137.21
373.635	129.02
373.846	88.06
374.056	75.77
374.267	69.63
374.477	-2.05
374.688	53.25
374.898	69.63
375.109	102.4
375.319	71.68
375.53	24.58
375.74	92.16
375.951	49.15
376.161	67.58
376.372	92.16
376.582	10.24
376.793	90.11
377.003	73.73
377.214	69.63
377.424	139.26
377.635	51.2
377.845	100.35
378.055	92.16
378.266	-8.19
378.476	40.96
378.686	20.48
378.897	81.92
379.107	55.3
379.317	61.44
379.528	73.73
379.738	59.39
379.948	28.67
380.158	112.64
380.369	16.38
380.579	81.92
380.789	51.2
380.999	122.88
381.21	139.26
381.42	120.83
381.63	67.58
381.84	65.53
382.05	40.96
382.261	83.97
382.471	96.25
382.681	24.58
382.891	61.44
383.101	77.82
383.311	45.06
383.521	106.49
383.731	75.77
383.941	100.35
384.151	108.54
384.361	104.45
384.571	135.17
384.781	67.58
384.991	120.83
385.201	212.99
385.411	131.07
385.621	106.49
385.831	61.44
386.041	106.49
386.251	90.11
386.461	184.32
386.671	65.53
386.881	69.63
387.091	30.72
387.301	73.73
387.511	-22.53
387.72	106.49
387.93	114.69
388.14	38.91
388.35	55.3
388.56	118.78
388.769	71.68
388.979	63.49
389.189	47.1
389.399	71.68
389.609	83.97
389.818	180.22
390.028	75.77
390.238	86.01
390.447	77.82
390.657	83.97
390.867	65.53
391.076	-47.1
391.286	116.73
391.496	63.49
391.705	67.58
391.915	161.79
392.125	126.97
392.334	71.68
392.544	36.86
392.753	106.49
392.963	32.77
393.172	133.12
393.382	10.24
393.591	172.03
393.801	102.4
394.01	88.06
394.22	157.69
394.429	106.49
394.639	116.73
394.848	55.3
395.058	92.16
395.267	155.65
395.477	147.45
395.686	172.03
395.895	92.16
396.105	120.83
396.314	129.02
396.524	75.77
396.733	98.3
396.942	86.01
397.152	102.4
397.361	135.17
397.57	77.82
397.78	71.68
397.989	135.17
398.198	174.08
398.407	133.12
398.617	163.84
398.826	137.21
399.035	151.55
399.244	212.99
399.453	116.73
399.663	73.73
399.872	159.74
400.081	104.45
400.29	118.78
400.499	122.88
400.708	159.74
400.917	129.02
401.127	165.89
401.336	178.17
401.545	196.61
401.754	157.69
401.963	153.6
402.172	159.74
402.381	114.69
402.59	141.31
402.799	163.84
403.008	229.37
403.217	135.17
403.426	182.27
403.635	165.89
403.844	88.06
404.053	172.03
404.262	108.54
404.471	188.41
404.68	202.75
404.888	192.51
405.097	149.5
405.306	147.45
405.515	223.23
405.724	196.61
405.933	180.22
406.142	223.23
406.35	241.66
406.559	219.13
406.768	135.17
406.977	339.96
407.185	247.8
407.394	305.15
407.603	245.76
407.812	303.1
408.02	342.01
408.229	376.83
408.438	264.19
408.646	223.23
408.855	292.86
409.064	425.98
409.272	264.19
409.481	335.87
409.69	346.11
409.898	356.35
410.107	403.45
410.315	378.87
410.524	382.97
410.733	438.27
410.941	419.83
411.15	497.66
411.358	458.75
411.567	425.98
411.775	405.5
411.984	542.71
412.192	600.05
412.401	577.53
412.609	632.82
412.818	608.25
413.026	634.87
413.234	595.96
413.443	686.07
413.651	575.48
413.86	722.93
414.068	784.37
414.276	761.84
414.485	772.08
414.693	854
414.901	919.54
415.11	923.63
415.318	837.62
415.526	925.68
415.734	985.07
415.943	1042.42
416.151	1134.57
416.359	1023.98
416.567	1030.13
416.776	1159.15
416.984	1232.88
417.192	1286.12
417.4	1267.69
417.608	1214.45
417.817	1329.13
418.025	1398.76
418.233	1542.12
418.441	1351.66
418.649	1476.59
418.857	1675.24
419.065	1677.29
419.273	1601.51
419.481	1695.72
419.689	1939.43
419.897	1914.85
420.105	1738.73
420.313	2004.96
420.521	2144.22
420.729	2062.3
420.937	2222.05
421.145	2287.58
421.353	2359.26
421.561	2588.63
421.769	2578.39
421.977	2584.54
422.185	2682.84
422.393	2762.71
422.601	2881.49
422.809	2777.05
423.017	2926.55
423.224	3043.28
423.432	3170.26
423.64	3235.79
423.848	3514.31
424.056	3432.4
424.263	3616.71
424.471	3649.48
424.679	3770.31
424.887	3962.82
425.094	3880.9
425.302	4163.52
425.51	4239.3
425.718	4335.55
425.925	4493.24
426.133	4460.48
426.341	4655.03
426.548	5074.87
426.756	4970.42
426.964	5044.15
427.171	5345.2
427.379	5492.65
427.586	5500.84
427.794	5808.04
428.001	5990.31
428.209	6102.95
428.417	6172.58
428.624	6686.62
428.832	6645.66
429.039	6635.42
429.247	6653.85
429.454	7282.58
429.662	7724.94
429.869	7260.05
430.076	7724.94
430.284	7526.29
430.491	7829.38
430.699	8241.03
430.906	8427.39
431.114	8454.01
431.321	8923
431.528	8923
431.736	9580.4
431.943	9930.6
432.15	9434.99
432.358	9781.1
432.565	10190.69
432.772	10094.44
432.979	10809.18
433.187	10880.86
433.394	11122.52
433.601	11628.37
433.808	11718.48
434.016	11736.91
434.223	12269.38
434.43	13162.3
434.637	12756.8
434.844	13725.49
435.052	13815.6
435.259	13596.46
435.466	13909.8
435.673	13805.36
435.88	14536.48
436.087	15384.34
436.294	15208.22
436.501	14919.45
436.708	15068.95
436.915	15992.59
437.122	16746.24
437.329	16506.63
437.537	17035
437.743	17297.14
437.95	17436.41
438.157	17987.31
438.364	18564.84
438.571	18607.84
438.778	18726.63
438.985	20489.93
439.192	19963.6
439.399	20223.69
439.606	19965.65
439.813	21135.04
440.02	22441.64
440.227	21890.74
440.433	21485.24
440.64	22484.65
440.847	22120.11
441.054	22720.17
441.261	24510.09
441.467	23953.04
441.674	24563.34
441.881	25648.76
442.088	25210.5
442.294	25108.1
442.501	25902.71
442.708	26021.49
442.914	27315.81
443.121	28413.52
443.328	27876.95
443.534	29666.88
443.741	29236.8
443.948	28204.63
444.154	30565.93
444.361	30316.08
444.568	30774.83
444.774	30662.19
444.981	30785.07
445.187	31675.93
445.394	33009.16
445.6	32822.8
445.807	36087.26
446.013	34717.17
446.22	34971.11
446.426	36191.7
446.633	36754.9
446.839	38178.23
447.046	35921.37
447.252	38237.62
447.459	38679.99
447.665	38501.81
447.871	40236.44
448.078	41995.65
448.284	39693.73
448.491	40951.18
448.697	42610.04
448.903	43226.48
449.11	43654.5
449.316	42769.78
449.522	43636.07
449.728	44879.19
449.935	45258.06
450.141	44950.87
450.347	46087.49
450.553	44674.39
450.76	45618.5
450.966	46978.36
451.172	46120.26
451.378	46996.79
451.584	46368.06
451.791	47762.73
451.997	47451.44
452.203	48590.11
452.409	48340.25
452.615	47983.91
452.821	46107.97
453.027	45940.03
453.233	48667.93
453.44	46800.18
453.646	46933.3
453.852	47205.68
454.058	48583.96
454.264	46818.61
454.47	47658.28
454.676	46611.77
454.882	48280.86
455.088	43992.42
455.294	45004.11
455.5	45288.78
455.705	45514.06
455.911	44070.24
456.117	43132.27
456.323	42810.74
456.529	40760.72
456.735	42425.72
456.941	41340.3
457.147	40394.14
457.352	39443.88
457.558	39120.3
457.764	39415.21
457.97	38258.1
458.176	37696.96
458.381	37684.67
458.587	35571.17
458.793	36040.15
458.999	33943.03
459.204	36718.03
459.41	35167.72
459.616	33076.74
459.821	33062.41
460.027	32906.76
460.233	32265.75
460.438	30629.42
460.644	31233.57
460.85	29523.52
461.055	29095.49
461.261	29277.76
461.466	26723.94
461.672	25998.96
461.878	28149.33
462.083	25978.48
462.289	25335.42
462.494	25284.22
462.7	24397.45
462.905	23735.96
463.111	24186.51
463.316	24424.08
463.522	24141.46
463.727	23834.26
463.932	23998.1
464.138	23932.56
464.343	23789.2
464.549	23088.8
464.754	23727.77
464.959	23651.99
465.165	23307.93
465.37	22580.9
465.575	21784.24
465.781	22881.95
465.986	22662.82
466.191	21788.34
466.397	21628.6
466.602	20512.45
466.807	21524.15
467.012	21409.47
467.218	21163.71
467.423	21012.16
467.628	21137.09
467.833	21958.32
468.038	21053.12
468.244	20377.29
468.449	21313.21
468.654	20547.27
468.859	20258.51
469.064	20446.92
469.269	19523.29
469.474	19943.12
469.679	20131.53
469.885	19713.75
470.09	20170.44
470.295	19779.28
470.5	19295.96
470.705	19457.75
470.91	19283.67
471.115	18970.33
471.32	19234.52
471.525	18933.47
471.73	18654.95
471.935	18405.1
472.139	17706.74
472.344	17968.88
472.549	17843.95
472.754	17700.59
472.959	17395.45
473.164	17184.51
473.369	16711.42
473.574	17645.3
473.778	17116.92
473.983	17032.96
474.188	17137.4
474.393	16176.91
474.598	16015.12
474.802	16303.88
475.007	16123.66
475.212	16004.88
475.417	15353.62
475.621	15376.15
475.826	15283.99
476.031	15165.21
476.235	15073.05
476.44	15218.46
476.645	14819.1
476.849	14903.07
477.054	14585.63
477.259	14522.15
477.463	14516
477.668	14313.25
477.872	14147.37
478.077	13987.63
478.282	13522.74
478.486	13678.38
478.691	13442.87
478.895	13291.32
479.1	13201.21
479.304	13608.75
479.509	12955.45
479.713	13395.76
479.918	13104.95
480.122	12668.73
480.326	12996.41
480.531	12650.3
480.735	12805.95
480.94	12846.91
481.144	12740.41
481.348	12556.1
481.553	12322.63
481.757	12177.22
481.961	12476.23
482.166	12404.55
482.37	12425.03
482.574	12236.61
482.778	12293.96
482.983	12527.42
483.187	12271.43
483.391	12386.11
483.595	12326.72
483.8	12410.69
484.004	12138.31
484.208	12410.69
484.412	12431.17
484.616	12431.17
484.821	12445.51
485.025	12142.41
485.229	12314.44
485.433	12281.67
485.637	12312.39
485.841	12271.43
486.045	12089.16
486.249	12214.09
486.453	12230.47
486.657	12410.69
486.861	12318.53
487.065	11894.6
487.269	12236.61
487.473	12076.87
487.677	12156.74
487.881	12529.47
488.085	12373.83
488.289	12527.42
488.493	12203.85
488.697	12197.7
488.901	12332.87
489.105	12355.4
489.309	12615.49
489.512	12494.66
489.716	12318.53
489.92	12508.99
490.124	12449.6
490.328	12586.82
490.531	12459.84
490.735	12810.04
490.939	12586.82
491.143	12470.08
491.346	12863.29
491.55	12842.81
491.754	12875.58
491.958	12957.5
492.161	12771.13
492.365	12822.33
492.569	12830.52
492.772	13016.89
492.976	13133.62
493.18	13070.14
493.383	13205.3
493.587	13315.89
493.79	13358.9
493.994	13248.31
494.197	13451.06
494.401	13471.54
494.605	13498.16
494.808	13645.62
495.012	13903.66
495.215	14055.21
495.419	14073.64
495.622	13989.67
495.825	14139.18
496.029	14315.3
496.232	14642.98
496.436	14405.41
496.639	14702.37
496.843	14749.47
497.046	14962.46
497.249	14987.04
497.453	15236.89
497.656	15306.52
497.859	15669.01
498.063	15634.19
498.266	15818.51
498.469	15695.63
498.673	15961.87
498.876	16119.56
499.079	16437
499.282	16346.89
499.485	16860.93
499.689	16807.68
499.892	17108.73
500.095	17231.61
500.298	17645.3
500.501	17270.52
500.705	17770.22
500.908	18038.51
501.111	18116.33
501.314	18251.5
501.517	18548.45
501.72	18603.75
501.923	18910.94
502.126	19121.88
502.329	19386.07
502.532	19234.52
502.735	19711.7
502.938	19916.5
503.141	20258.51
503.344	20512.45
503.547	20750.02
503.75	20745.92
503.953	21094.08
504.156	21180.09
504.359	21331.64
504.562	21575.35
504.765	22009.52
504.968	21989.04
505.17	22406.83
505.373	22359.72
505.576	22777.51
505.779	23213.73
505.982	23203.49
506.185	23680.66
506.387	23756.44
506.59	23869.08
506.793	24088.21
506.996	24135.31
507.198	24848
507.401	24577.67
507.604	24977.03
507.807	25679.48
508.009	25759.35
508.212	25673.34
508.415	26091.12
508.617	26596.97
508.82	26601.07
509.022	26644.07
509.225	27498.08
509.428	27424.35
509.63	27565.66
509.833	27813.46
510.035	28556.88
510.238	28360.27
510.44	28534.35
510.643	29175.36
510.845	29453.89
511.048	29025.86
511.25	29390.4
511.453	30045.75
511.655	30983.72
511.858	30567.98
512.06	30668.33
512.262	31127.08
512.465	30815.79
512.667	31469.09
512.87	31999.51
513.072	31981.08
513.274	32347.67
513.477	32927.24
513.679	33119.75
513.881	33230.34
514.084	33676.8
514.286	33433.09
514.488	33777.15
514.69	34598.38
514.893	34958.83
515.095	34813.42
515.297	35487.2
515.499	35364.32
515.701	35808.73
515.904	36001.24
516.106	36214.23
516.308	36558.29
516.51	36986.32
516.712	36437.46
516.914	37410.25
517.116	38200.76
517.318	38104.51
517.52	37909.95
517.722	38292.92
517.925	39085.48
518.127	39443.88
518.329	39533.99
518.531	39912.86
518.733	40066.46
518.935	40283.55
519.136	40447.38
519.338	40998.29
519.54	41254.28
519.742	41516.42
519.944	41491.85
520.146	42296.7
520.348	42730.87
520.55	42661.24
520.752	42810.74
520.954	43246.96
521.155	43122.03
521.357	43779.43
521.559	43629.93
521.761	44805.46
521.963	44563.8
522.164	44526.94
522.366	44711.25
522.568	45438.28
522.77	45571.4
522.971	46079.3
523.173	45501.77
523.375	46357.82
523.576	46447.93
523.778	46646.58
523.98	47062.32
524.181	47172.91
524.383	46980.4
524.584	47607.08
524.786	47433
524.988	48141.6
525.189	48442.65
525.391	48620.83
525.592	48846.1
525.794	48819.48
525.995	48784.66
526.197	49007.89
526.398	49065.24
526.6	49550.6
526.801	49712.39
527.003	50056.45
527.204	49751.3
527.406	50128.13
527.607	50371.84
527.808	50547.96
528.01	49939.72
528.211	50197.76
528.412	50967.8
528.614	51055.86
528.815	51010.81
529.016	51604.72
529.218	51014.9
529.419	51301.62
529.62	51524.85
529.822	51158.26
530.023	51700.97
530.224	51160.31
530.425	51668.2
530.626	51338.48
530.828	51072.24
531.029	52081.89
531.23	51211.51
531.431	51860.71
531.632	52075.75
531.833	52038.89
532.035	52206.82
532.236	51846.38
532.437	52520.16
532.638	52194.53
532.839	52092.13
533.04	52507.87
533.241	51770.6
533.442	52690.14
533.643	52724.96
533.844	52139.24
534.045	52651.23
534.246	52061.41
534.447	52573.41
534.648	52239.59
534.849	52458.72
535.05	52051.17
535.251	52434.14
535.451	52536.54
535.652	52851.93
535.853	52518.11
536.054	52292.83
536.255	52497.63
536.456	52176.1
536.657	52907.22
536.857	52540.64
537.058	52237.54
537.259	52714.72
537.46	52358.37
537.66	52346.08
537.861	52358.37
538.062	52362.46
538.263	52452.58
538.463	52231.39
538.664	52231.39
538.865	52808.92
539.065	52501.73
539.266	52309.22
539.466	52663.52
539.667	51938.54
539.868	52972.76
540.068	52278.5
540.269	52102.37
540.469	52671.71
540.67	52262.11
540.87	52331.75
541.071	52079.85
541.271	52905.18
541.472	52378.85
541.672	52380.9
541.873	52065.51
542.073	51821.8
542.274	52786.39
542.474	52161.76
542.675	51666.16
542.875	52487.39
543.075	52315.36
543.276	51377.39
543.476	52675.8
543.676	52399.33
543.877	52346.08
544.077	51786.99
544.277	51569.9
544.478	52088.04
544.678	52145.38
544.878	51948.78
545.078	51836.14
545.279	51592.43
545.479	51737.83
545.679	52323.55
545.879	51905.77
546.079	51881.19
546.28	52286.69
546.48	51617
546.68	51991.78
546.88	51850.47
547.08	51967.21
547.28	51893.48
547.48	51252.47
547.68	51893.48
547.88	51737.83
548.081	51793.13
548.281	51922.15
548.481	51680.49
548.681	52026.6
548.881	51606.76
549.081	51617
549.28	51195.12
549.48	51610.86
549.68	51469.55
549.88	52002.02
550.08	51205.36
550.28	51502.32
550.48	51205.36
550.68	52231.39
550.88	51012.85
551.08	51121.4
551.279	51506.41
551.479	51166.45
551.679	51780.84
551.879	50965.75
552.079	51621.1
552.278	51109.11
552.478	51373.3
552.678	51285.23
552.878	51590.38
553.077	50928.89
553.277	50521.34
553.477	51571.95
553.676	51299.57
553.876	51082.48
554.076	50869.5
554.275	51014.9
554.475	50693.37
554.674	50861.3
554.874	50961.65
555.074	50849.02
555.273	50867.45
555.473	51156.21
555.672	50509.05
555.872	50760.95
556.071	50595.07
556.271	51184.88
556.47	50918.65
556.67	50072.84
556.869	50474.24
557.068	50898.17
557.268	49835.27
557.467	50472.19
557.667	50603.26
557.866	50328.83
558.065	50066.69
558.265	49919.24
558.464	49861.9
558.663	50271.49
558.863	49634.57
559.062	50296.06
559.261	49521.93
559.461	49874.18
559.66	49552.65
559.859	49616.14
560.058	49542.41
560.258	49722.63
560.457	48979.22
560.656	49974.53
560.855	49233.17
561.054	49710.35
561.253	49028.37
561.453	49308.94
561.652	49216.78
561.851	49419.53
562.05	49446.16
562.249	48362.78
562.448	49186.07
562.647	48885.01
562.846	48739.61
563.045	48653.59
563.244	48528.67
563.443	49149.2
563.642	48454.94
563.841	49083.67
564.04	48596.25
564.239	49274.13
564.438	48373.02
564.637	48350.49
564.836	48057.63
565.035	47523.11
565.234	48129.31
565.432	48049.44
565.631	47957.28
565.83	47744.3
566.029	47600.94
566.228	47162.67
566.427	47664.42
566.625	47566.12
566.824	47156.53
567.023	47297.84
567.222	46837.05
567.42	47277.36
567.619	47158.58
567.818	46712.12
568.016	46869.81
568.215	47103.28
568.414	46624.06
568.612	46863.67
568.811	46492.99
569.01	46814.52
569.208	46062.91
569.407	46492.99
569.605	46024
569.804	46390.59
570.002	45518.15
570.201	45653.32
570.4	46177.6
570.598	45444.43
570.797	45862.21
570.995	45157.71
571.193	44920.15
571.392	45505.87
571.59	45204.81
571.789	45233.49
571.987	45198.67
572.186	44850.52
572.384	44834.13
572.582	45004.11
572.781	44948.82
572.979	44627.29
573.177	44602.71
573.376	45045.07
573.574	44531.03
573.772	44563.8
573.971	44629.33
574.169	44117.34
574.367	43777.38
574.565	43912.55
574.763	44301.66
574.962	43793.76
575.16	43398.51
575.358	43652.45
575.556	42968.43
575.754	44072.29
575.952	42800.5
576.151	43281.77
576.349	43201.9
576.547	43185.52
576.745	43175.28
576.943	43138.41
577.141	42628.47
577.339	43048.3
577.537	42452.34
577.735	42431.86
577.933	42098.05
578.131	42333.56
578.329	41981.31
578.527	41495.94
578.725	42108.29
578.923	41971.07
579.121	41833.86
579.319	41809.28
579.516	41932.16
579.714	41446.79
579.912	41563.53
580.11	41213.32
580.308	41399.69
580.506	41405.83
580.704	40752.53
580.901	40947.09
581.099	41360.78
581.297	40594.84
581.495	40740.24
581.692	40971.66
581.89	40277.4
582.088	40871.31
582.285	40238.49
582.483	40805.78
582.681	40117.66
582.878	40283.55
583.076	39742.88
583.274	40459.67
583.471	39951.77
583.669	39935.39
583.866	39687.59
584.064	40062.36
584.262	39480.74
584.459	39712.16
584.657	39114.16
584.854	39482.79
585.052	38686.13
585.249	38968.75
585.447	38720.95
585.644	38884.78
585.841	38815.15
586.039	39118.25
586.236	38321.59
586.434	38581.68
586.631	38530.48
586.828	38536.63
587.026	38213.05
587.223	38444.47
587.42	37938.62
587.618	37916.09
587.815	37445.06
588.012	37586.37
588.21	37232.07
588.407	37555.65
588.604	37330.37
588.801	37293.51
588.999	36949.45
589.196	37010.89
589.393	37111.24
589.59	36879.82
589.787	36584.91
589.984	36259.29
590.182	36257.24
590.379	36439.51
590.576	36009.43
590.773	36507.09
590.97	36060.63
591.167	36183.51
591.364	35479.01
591.561	35790.3
591.758	35732.96
591.955	35460.58
592.152	35761.63
592.349	35730.91
592.546	35640.8
592.743	35321.32
592.94	34647.54
593.137	35132.9
593.334	35315.17
593.531	34461.17
593.727	34944.49
593.924	34721.26
594.121	34512.37
594.318	34557.42
594.515	34217.46
594.712	34788.85
594.908	34033.14
595.105	34377.2
595.302	33807.87
595.499	33719.81
595.696	34000.38
595.892	34043.38
596.089	33476.1
596.286	33994.23
596.482	33326.6
596.679	33596.93
596.876	33539.58
597.072	33291.78
597.269	33248.77
597.466	32835.08
597.662	32927.24
597.859	32321.04
598.055	33281.54
598.252	32308.76
598.448	32423.44
598.645	32724.49
598.841	32310.8
599.038	32710.16
599.234	32536.08
599.431	31989.27
599.627	31880.73
599.824	32192.02
600.02	31659.55
600.217	31862.3
600.413	31608.35
600.609	31280.67
600.806	31563.29
601.002	31209
601.198	30993.96
601.395	31206.95
601.591	31071.78
601.787	30815.79
601.984	30846.51
602.18	31118.89
602.376	30383.66
602.572	30443.06
602.769	30559.79
602.965	30543.41
603.161	30262.83
603.357	30101.04
603.553	30203.44
603.75	29830.71
603.946	29881.91
604.142	29996.6
604.338	29496.89
604.534	29658.68
604.73	29515.33
604.926	29472.32
605.122	29931.06
605.318	29335.1
605.514	29437.5
605.71	29197.89
605.906	29177.41
606.102	29038.15
606.298	29197.89
606.494	28878.41
606.69	28974.66
606.886	28872.26
607.082	28638.79
607.278	28759.63
607.474	28153.43
607.67	28485.2
607.866	28243.54
608.062	28671.56
608.257	28180.05
608.453	28483.15
608.649	28542.54
608.845	27727.45
609.041	28008.02
609.236	28098.13
609.432	28069.46
609.628	27866.71
609.824	27743.83
610.019	27455.07
610.215	27858.52
610.411	27666.01
610.606	27676.25
610.802	27772.5
610.998	27752.02
611.193	27577.95
611.389	27356.77
611.584	27145.83
611.78	27047.52
611.976	27151.97
612.171	27260.51
612.367	27074.15
612.562	27332.19
612.758	26601.07
612.953	26322.54
613.149	27233.89
613.344	26472.04
613.539	27016.8
613.735	27053.67
613.93	26920.55
614.126	26494.57
614.321	26812.01
614.517	26691.18
614.712	26445.42
614.907	26484.33
615.103	26650.22
615.298	26183.28
615.493	26545.77
615.688	25996.92
615.884	26490.48
616.079	26062.45
616.274	26238.58
616.47	25949.81
616.665	25589.37
616.86	25876.09
617.055	25968.24
617.25	25796.21
617.445	25958
617.641	25194.11
617.836	25472.64
618.031	25620.09
618.226	25484.92
618.421	25521.79
618.616	25558.65
618.811	25343.61
619.006	25683.58
619.201	24895.11
619.396	25177.73
619.591	24659.59
619.786	24913.54
619.981	24559.24
620.176	24934.02
620.371	24309.39
620.566	24321.68
620.761	24192.65
620.956	24465.03
621.151	24110.74
621.346	24227.47
621.541	23764.63
621.735	23922.32
621.93	23582.36
622.125	23926.42
622.32	23559.83
622.515	23242.4
622.709	23148.19
622.904	23408.28
623.099	23031.46
623.294	23058.08
623.488	22853.28
623.683	22607.53
623.878	22455.98
624.072	22720.17
624.267	22390.44
624.462	22275.76
624.656	22277.8
624.851	21986.99
625.046	21907.12
625.24	21915.31
625.435	21532.34
625.629	21620.41
625.824	21511.86
626.018	21300.92
626.213	20983.49
626.407	21137.09
626.602	20520.65
626.796	20891.33
626.991	20958.91
627.185	20741.83
627.38	20631.24
627.574	20704.96
627.768	20338.38
627.963	20174.54
628.157	19973.84
628.352	20278.99
628.546	19805.91
628.74	20086.48
628.935	19695.32
629.129	19687.12
629.323	19592.92
629.517	19138.27
629.712	19314.39
629.906	19166.94
630.1	19177.18
630.294	19287.77
630.489	18857.7
630.683	18972.38
630.877	18603.75
631.071	18632.42
631.265	18407.14
631.459	18540.26
631.653	18255.59
631.848	18208.49
632.042	18188.01
632.236	18323.18
632.43	18052.84
632.624	17985.26
632.818	17698.55
633.012	17659.63
633.206	17680.11
633.4	17602.29
633.594	17309.43
633.788	17344.25
633.982	17405.69
634.176	17250.04
634.369	17161.98
634.563	16953.09
634.757	16781.06
634.951	17055.48
635.145	16824.06
635.339	16656.13
635.533	16656.13
635.726	16451.33
635.92	16277.26
636.114	16443.14
636.308	16652.03
636.501	16355.08
636.695	16066.31
636.889	16144.14
637.083	16035.6
637.276	15949.58
637.47	15742.74
637.664	15646.48
637.857	15640.34
638.051	15705.87
638.244	15453.97
638.438	15619.86
638.632	15038.23
638.825	15079.19
639.019	14978.84
639.212	14956.32
639.406	15173.4
639.599	14835.49
639.793	14855.97
639.986	14520.1
640.18	14522.15
640.373	14853.92
640.567	14597.92
640.76	14724.9
640.954	14370.6
641.147	14421.8
641.34	14171.94
641.534	14141.22
641.727	14192.42
641.92	13848.36
642.114	13659.95
642.307	13745.97
642.5	13836.08
642.694	13645.62
642.887	13537.07
643.08	13569.84
643.273	13520.69
643.467	13506.35
643.66	13172.53
643.853	13186.87
644.046	13190.97
644.239	13213.49
644.432	13008.7
644.626	12869.44
644.819	13076.28
645.012	13104.95
645.205	12762.94
645.398	12805.95
645.591	12652.35
645.784	12842.81
645.977	12674.88
646.17	12578.62
646.363	12351.3
646.556	12099.4
646.749	12392.26
646.942	12384.07
647.135	12105.54
647.328	12527.42
647.521	12119.88
647.714	11966.28
647.907	11757.39
648.099	11728.72
648.292	11970.38
648.485	11677.52
648.678	11503.44
648.871	11611.98
649.064	11446.1
649.256	11644.75
649.449	11478.86
649.642	11302.74
649.835	11323.22
650.027	11222.87
650.22	11136.85
650.413	11134.81
650.605	11188.05
650.798	10833.75
650.991	10733.4
651.183	11054.94
651.376	11044.7
651.568	11183.96
651.761	10747.74
651.954	10792.8
652.146	10645.34
652.339	10706.78
652.531	10549.09
652.724	10579.81
652.916	10463.07
653.109	10336.1
653.301	10370.91
653.494	10579.81
653.686	10346.34
653.879	10446.69
654.071	10184.55
654.263	10059.62
654.456	10121.06
654.648	10084.2
654.84	9875.31
655.033	9856.87
655.225	9779.05
655.417	10020.71
655.61	9779.05
655.802	9711.47
655.994	9762.67
656.186	9623.41
656.379	9502.58
656.571	9394.03
656.763	9410.42
656.955	9516.91
657.148	9578.35
657.34	9398.13
657.532	9316.21
657.724	9252.72
657.916	9066.36
658.108	9099.13
658.3	8970.1
658.492	9009.01
658.684	9099.13
658.876	9035.64
659.068	8851.32
659.26	8800.12
659.452	8892.28
659.644	9025.4
659.836	8656.76
660.028	8773.5
660.22	8537.98
660.412	8646.52
660.604	8525.69
660.796	8607.61
660.988	8281.99
661.18	8388.48
661.372	8468.35
661.563	8451.97
661.755	8155.01
661.947	8316.8
662.139	8298.37
662.331	8245.12
662.522	7956.36
662.714	8169.35
662.906	8044.42
663.097	7991.17
663.289	7978.89
663.481	7982.98
663.673	8009.61
663.864	7958.41
664.056	7819.14
664.247	7802.76
664.439	7847.82
664.631	7679.88
664.822	7917.45
665.014	7737.23
665.205	7600.01
665.397	7638.92
665.588	7681.93
665.78	7409.55
665.971	7497.61
666.163	7532.43
666.354	7421.84
666.546	7597.96
666.737	7278.48
666.929	7374.74
667.12	7434.13
667.311	7309.2
667.503	7192.47
667.694	7335.82
667.885	7167.89
668.077	7237.52
668.268	7079.83
668.459	7114.64
668.651	6944.66
668.842	7108.5
669.033	7008.15
669.224	7079.83
669.416	7278.48
669.607	6932.37
669.798	6979.48
669.989	6985.62
670.18	6743.96
670.371	6889.37
670.563	6748.06
670.754	6832.02
670.945	6793.11
671.136	6784.92
671.327	6709.15
671.518	6754.2
671.709	6643.61
671.9	6805.4
672.091	6813.59
672.282	6766.49
672.473	6600.6
672.664	6731.67
672.855	6459.29
673.046	6522.78
673.237	6520.73
673.428	6393.76
673.619	6522.78
673.809	6545.31
674	6555.55
674.191	6535.07
674.382	6516.64
674.573	6469.53
674.764	6533.02
674.954	6547.36
675.145	6274.98
675.336	6510.49
675.527	6397.85
675.717	6342.56
675.908	6193.06
676.099	6315.94
676.289	6311.84
676.48	6383.52
676.671	6168.48
676.861	6406.05
677.052	6238.11
677.243	6371.23
677.433	6168.48
677.624	6201.25
677.814	6188.96
678.005	6223.78
678.195	6283.17
678.386	6227.87
678.576	6076.32
678.767	6180.77
678.957	6209.44
679.148	6197.15
679.338	5939.11
679.529	6094.75
679.719	5945.25
679.909	6217.63
680.1	6131.62
680.29	6272.93
680.481	5998.5
680.671	6016.93
680.861	6002.6
681.052	5982.12
681.242	6080.42
681.432	6186.91
681.622	6008.74
681.813	5918.63
682.003	6018.98
682.193	5937.06
682.383	6064.04
682.573	6051.75
682.764	5902.25
682.954	6012.84
683.144	6113.19
683.334	5951.4
683.524	5943.21
683.714	5879.72
683.904	6041.51
684.094	5922.73
684.284	5799.85
684.474	6059.94
684.664	5939.11
684.854	5805.99
685.044	5857.19
685.234	5715.88
685.424	5824.42
685.614	5740.46
685.804	5705.64
685.994	5722.02
686.184	5799.85
686.374	5652.39
686.564	5687.21
686.753	5605.29
686.943	5705.64
687.133	5609.39
687.323	5445.55
687.513	5586.86
687.702	5537.71
687.892	5345.2
688.082	5365.68
688.272	5375.92
688.461	5275.57
688.651	5517.23
688.841	5334.96
689.03	5236.66
689.22	5283.76
689.41	5203.89
689.599	5210.03
689.789	5185.46
689.979	5324.72
690.168	5164.98
690.358	5095.35
690.547	5220.27
690.737	5070.77
690.926	4972.47
691.116	4913.08
691.305	5003.19
691.495	4960.18
691.684	4855.73
691.874	4888.5
692.063	4894.65
692.252	4849.59
692.442	4843.45
692.631	4761.53
692.82	4855.73
693.01	4612.03
693.199	4597.69
693.388	4614.07
693.578	4657.08
693.767	4685.75
693.956	4589.5
694.146	4530.11
694.335	4599.74
694.524	4517.82
694.713	4661.18
694.902	4566.97
695.092	4476.86
695.281	4435.9
695.47	4423.61
695.659	4573.11
695.848	4317.12
696.037	4315.07
696.226	4628.41
696.415	4308.93
696.604	4466.62
696.793	4313.02
696.982	4450.24
697.171	4290.49
697.36	4331.45
697.549	4327.36
697.738	4292.54
697.927	4267.97
698.116	4261.82
698.305	4165.57
698.494	4243.39
698.683	4188.1
698.872	4329.41
699.061	4235.2
699.25	4198.34
699.438	4179.9
699.627	4235.2
699.816	4063.17
700.005	4173.76
700.193	4130.75
700.382	4143.04
700.571	4046.79
700.76	4095.94
700.948	4235.2
701.137	4079.55
701.326	4102.08
701.514	4073.41
701.703	4177.86
701.892	4136.9
702.08	4171.71
702.269	4009.92
702.457	4063.17
702.646	4077.51
702.834	4009.92
703.023	3977.16
703.212	4046.79
703.4	3987.4
703.589	4032.45
703.777	4081.6
703.965	4079.55
704.154	3882.95
704.342	4048.83
704.531	3999.68
704.719	3952.58
704.907	4040.64
705.096	3954.63
705.284	4095.94
705.472	3973.06
705.661	3911.62
705.849	3995.59
706.037	3833.8
706.226	3952.58
706.414	4001.73
706.602	3788.74
706.79	3966.92
706.979	3968.96
707.167	3981.25
707.355	3788.74
707.543	4003.78
707.731	3948.48
707.919	3995.59
708.107	3942.34
708.296	3815.37
708.484	3844.04
708.672	4020.16
708.86	3968.96
709.048	3989.44
709.236	3936.2
709.424	4024.26
709.612	3917.76
709.8	3909.57
709.988	3897.28
710.176	4005.83
710.364	3850.18
710.551	3932.1
710.739	3798.98
710.927	3880.9
711.115	3991.49
711.303	3919.81
711.491	3983.3
711.679	3942.34
711.866	3975.11
712.054	3885
712.242	4073.41
712.43	4011.97
712.617	3905.48
712.805	3938.24
712.993	3907.52
713.181	3846.09
713.368	3901.38
713.556	4024.26
713.744	3870.66
713.931	4087.75
714.119	3991.49
714.306	3989.44
714.494	3932.1
714.682	3905.48
714.869	4069.31
715.057	4065.22
715.244	3835.85
715.432	4132.8
715.619	4118.47
715.807	3952.58
715.994	4114.37
716.182	4046.79
716.369	4120.51
716.556	4171.71
716.744	4165.57
716.931	3923.91
717.119	4102.08
717.306	4048.83
717.493	4124.61
717.681	4071.36
717.868	4063.17
718.055	4132.8
718.242	4046.79
718.43	4091.84
718.617	4116.42
718.804	4140.99
718.991	4140.99
719.179	4124.61
719.366	4104.13
719.553	4179.9
719.74	4050.88
719.927	4020.16
720.114	4130.75
720.301	4104.13
720.488	4122.56
720.676	4095.94
720.863	4239.3
721.05	4143.04
721.237	4149.18
721.424	4167.62
721.611	4153.28
721.798	4059.07
721.985	4159.42
722.172	4186.05
722.358	4018.11
722.545	4110.27
722.732	4155.33
722.919	4237.25
723.106	4214.72
723.293	4100.03
723.48	4030.4
723.667	4120.51
723.853	4192.19
724.04	4138.94
724.227	4224.96
724.414	4286.4
724.6	4177.86
724.787	4282.3
724.974	4151.23
725.161	4132.8
725.347	4243.39
725.534	4171.71
725.72	4097.99
725.907	4128.7
726.094	4200.38
726.28	4208.58
726.467	4204.48
726.653	4227.01
726.84	4317.12
727.027	4325.31
727.213	3958.72
727.4	4274.11
727.586	4319.17
727.773	4249.54
727.959	4278.21
728.145	4280.25
728.332	4208.58
728.518	4366.27
728.705	4423.61
728.891	4374.46
729.077	4374.46
729.264	4427.71
729.45	4347.84
729.636	4454.33
729.823	4179.9
730.009	4487.1
730.195	4505.53
730.382	4259.77
730.568	4308.93
730.754	4239.3
730.94	4308.93
731.126	4329.41
731.313	4284.35
731.499	4417.47
731.685	4579.26
731.871	4337.6
732.057	4429.76
732.243	4288.45
732.429	4280.25
732.615	4427.71
732.801	4399.04
732.987	4306.88
733.173	4456.38
733.359	4388.8
733.545	4480.96
733.731	4276.16
733.917	4448.19
734.103	4388.8
734.289	4335.55
734.475	4274.11
734.661	4425.66
734.847	4253.63
735.033	4333.5
735.219	4431.8
735.404	4308.93
735.59	4399.04
735.776	4194.24
735.962	4409.28
736.148	4429.76
736.333	4241.34
736.519	4267.97
736.705	4358.08
736.89	4292.54
737.076	4345.79
737.262	4138.94
737.447	4229.06
737.633	4280.25
737.819	4321.21
738.004	4147.14
738.19	4415.42
738.375	4280.25
738.561	4286.4
738.747	4329.41
738.932	4229.06
739.118	4333.5
739.303	4186.05
739.489	4233.15
739.674	4313.02
739.859	4165.57
740.045	4237.25
740.23	4235.2
740.416	4124.61
740.601	4292.54
740.786	4050.88
740.972	4220.86
741.157	4057.03
741.342	3985.35
741.528	4005.83
741.713	4145.09
741.898	4155.33
742.084	4067.27
742.269	4147.14
742.454	4171.71
742.639	4007.87
742.824	3921.86
743.01	4040.64
743.195	3987.4
743.38	3983.3
743.565	3938.24
743.75	3905.48
743.935	4007.87
744.12	4095.94
744.305	3882.95
744.49	3878.85
744.675	3923.91
744.86	3891.14
745.045	3907.52
745.23	3876.8
745.415	3850.18
745.6	3837.89
745.785	3772.36
745.97	3801.03
746.155	3712.97
746.34	3762.12
746.525	3624.9
746.71	3667.91
746.895	3526.6
747.079	3684.3
747.264	3493.83
747.449	3618.76
747.634	3604.42
747.819	3622.86
748.003	3508.17
748.188	3561.42
748.373	3459.02
748.557	3307.47
748.742	3463.12
748.927	3477.45
749.111	3448.78
749.296	3479.5
749.481	3385.29
749.665	3188.69
749.85	3266.51
750.034	3346.38
750.219	3407.82
750.404	3205.07
750.588	3184.59
750.773	3184.59
750.957	3168.21
751.141	3178.45
751.326	3092.43
751.51	3203.02
751.695	3147.73
751.879	3063.76
752.064	3153.87
752.248	3045.33
752.432	3149.78
752.617	2953.17
752.801	3178.45
752.985	3037.14
753.17	2877.4
753.354	2994.13
753.538	2865.11
753.722	2809.81
753.907	2799.57
754.091	2805.72
754.275	2877.4
754.459	2803.67
754.643	2707.41
754.828	2781.14
755.012	2731.99
755.196	2586.58
755.38	2768.85
755.564	2666.46
755.748	2605.02
755.932	2643.93
756.116	2666.46
756.3	2654.17
756.484	2584.54
756.668	2529.24
756.852	2527.19
757.036	2545.63
757.22	2392.03
757.404	2420.7
757.588	2498.52
757.772	2404.32
757.956	2420.7
758.14	2443.23
758.323	2475.99
758.507	2392.03
758.691	2334.68
758.875	2254.81
759.059	2443.23
759.242	2312.16
759.426	2363.36
759.61	2367.45
759.794	2283.49
759.977	2230.24
760.161	2215.9
760.345	2234.33
760.528	2312.16
760.712	2316.25
760.895	2207.71
761.079	2170.85
761.263	2203.61
761.446	2203.61
761.63	2064.35
761.813	2058.21
761.997	2146.27
762.18	2142.18
762.364	2129.89
762.547	2013.15
762.731	2025.44
762.914	2035.68
763.098	2080.74
763.281	2039.78
763.464	2009.06
763.648	2035.68
763.831	2045.92
764.015	1916.9
764.198	2088.93
764.381	2013.15
764.564	1990.63
764.748	1935.33
764.931	1920.99
765.114	1970.15
765.297	1888.23
765.481	1908.71
765.664	1826.79
765.847	1843.17
766.03	1976.29
766.213	1916.9
766.397	1886.18
766.58	1769.44
766.763	1845.22
766.946	1794.02
767.129	1806.31
767.312	1816.55
767.495	1804.26
767.678	1839.08
767.861	1777.64
768.044	1875.94
768.227	1769.44
768.41	1761.25
768.593	1816.55
768.776	1796.07
768.959	1761.25
769.142	1810.4
769.324	1851.36
769.507	1763.3
769.69	1683.43
769.873	1718.25
770.056	1724.39
770.239	1703.91
770.421	1708.01
770.604	1742.82
770.787	1591.27
770.97	1591.27
771.152	1619.94
771.335	1634.28
771.518	1724.39
771.7	1650.66
771.883	1636.33
772.066	1527.78
772.248	1564.65
772.431	1699.81
772.613	1560.55
772.796	1576.94
772.978	1585.13
773.161	1466.35
773.343	1454.06
773.526	1513.45
773.708	1499.11
773.891	1474.54
774.073	1478.63
774.256	1472.49
774.438	1529.83
774.621	1486.83
774.803	1388.52
774.985	1388.52
775.168	1456.11
775.35	1380.33
775.532	1388.52
775.715	1443.82
775.897	1421.29
776.079	1337.32
776.261	1347.56
776.444	1345.52
776.626	1380.33
776.808	1316.84
776.99	1349.61
777.173	1288.17
777.355	1388.52
777.537	1269.74
777.719	1292.27
777.901	1216.49
778.083	1296.36
778.265	1269.74
778.447	1255.4
778.629	1198.06
778.811	1234.93
778.993	1224.69
779.175	1302.51
779.357	1126.38
779.539	1130.48
779.721	1132.53
779.903	1177.58
780.085	1062.9
780.267	1110
780.449	1196.01
780.631	1060.85
780.812	1157.1
780.994	1015.79
781.176	1038.32
781.358	999.41
781.54	1081.33
781.721	1075.18
781.903	954.35
782.085	1034.22
782.267	1128.43
782.448	1003.5
782.63	968.69
782.812	1048.56
782.993	991.22
783.175	903.15
783.357	923.63
783.538	907.25
783.72	860.15
783.901	991.22
784.083	999.41
784.264	937.97
784.446	845.81
784.627	845.81
784.809	911.35
784.99	886.77
785.172	823.28
785.353	819.19
785.535	897.01
785.716	767.99
785.897	860.15
786.079	811
786.26	884.72
786.441	761.84
786.623	772.08
786.804	819.19
786.985	827.38
787.167	864.24
787.348	837.62
787.529	815.09
787.71	892.91
787.891	851.95
788.073	702.45
788.254	741.36
788.435	743.41
788.616	702.45
788.797	722.93
788.978	724.98
789.159	741.36
789.34	747.51
789.522	702.45
789.703	743.41
789.884	729.08
790.065	606.2
790.246	778.23
790.427	647.16
790.607	686.07
790.788	696.31
790.969	651.25
791.15	606.2
791.331	612.34
791.512	747.51
791.693	630.77
791.874	604.15
792.054	647.16
792.235	622.58
792.416	573.43
792.597	559.1
792.778	565.24
792.958	655.35
793.139	600.05
793.32	561.14
793.5	634.87
793.681	606.2
793.862	737.27
794.042	495.61
794.223	507.9
794.404	532.47
794.584	485.37
794.765	499.7
794.945	569.34
795.126	501.75
795.306	624.63
795.487	518.14
795.667	573.43
795.848	595.96
796.028	587.77
796.209	526.33
796.389	511.99
796.57	522.23
796.75	526.33
796.93	468.98
797.111	532.47
797.291	540.66
797.471	538.62
797.652	505.85
797.832	448.51
798.012	514.04
798.192	546.81
798.373	477.18
798.553	454.65
798.733	546.81
798.913	438.27
799.093	458.75
799.274	544.76
799.454	514.04
799.634	466.94
799.814	511.99
799.994	458.75
800.174	526.33
800.354	477.18
800.534	368.63
800.714	444.41
800.894	370.68
801.074	364.54
801.254	417.79
801.434	393.21
801.614	415.74
801.794	440.31
801.974	1290.22
802.154	442.36
802.334	468.98
802.514	313.34
802.693	409.59
802.873	466.94
803.053	409.59
803.233	417.79
803.413	352.25
803.592	327.67
803.772	407.55
803.952	425.98
804.131	378.87
804.311	475.13
804.491	387.07
804.67	409.59
804.85	356.35
805.03	452.6
805.209	434.17
805.389	319.48
805.568	368.63
805.748	417.79
805.928	436.22
806.107	344.06
806.287	417.79
806.466	362.49
806.646	337.91
806.825	339.96
807.004	370.68
807.184	385.02
807.363	450.55
807.543	372.73
807.722	364.54
807.901	358.39
808.081	395.26
808.26	284.67
808.439	286.72
808.619	380.92
808.798	337.91
808.977	319.48
809.156	430.07
809.336	389.11
809.515	366.59
809.694	319.48
809.873	303.1
810.052	335.87
810.231	313.34
810.411	323.58
810.59	331.77
810.769	321.53
810.948	290.81
811.127	272.38
811.306	280.57
811.485	221.18
811.664	419.83
811.843	245.76
812.022	323.58
812.201	299
812.38	315.39
812.559	180.22
812.737	313.34
812.916	315.39
813.095	313.34
813.274	227.32
813.453	276.48
813.632	346.11
813.811	294.91
813.989	235.52
814.168	233.47
814.347	307.2
814.526	313.34
814.704	278.52
814.883	387.07
815.062	284.67
815.24	276.48
815.419	249.85
815.598	208.89
815.776	233.47
815.955	200.7
816.133	264.19
816.312	241.66
816.49	235.52
816.669	221.18
816.847	178.17
817.026	243.71
817.204	290.81
817.383	212.99
817.561	198.65
817.74	272.38
817.918	274.43
818.097	280.57
818.275	210.94
818.453	204.8
818.632	245.76
818.81	204.8
818.988	237.56
819.167	225.28
819.345	262.14
819.523	167.93
819.701	253.95
819.879	299
820.058	282.62
820.236	223.23
820.414	278.52
820.592	198.65
820.77	174.08
820.948	221.18
821.127	264.19
821.305	266.24
821.483	190.46
821.661	217.08
821.839	249.85
822.017	120.83
822.195	196.61
822.373	176.13
822.551	241.66
822.729	258.04
822.907	229.37
823.085	221.18
823.262	202.75
823.44	151.55
823.618	206.84
823.796	212.99
823.974	159.74
824.152	149.5
824.329	180.22
824.507	182.27
824.685	217.08
824.863	270.33
825.04	198.65
825.218	192.51
825.396	126.97
825.574	212.99
825.751	90.11
825.929	212.99
826.107	98.3
826.284	206.84
826.462	129.02
826.639	133.12
826.817	53.25
826.994	100.35
827.172	204.8
827.349	264.19
827.527	217.08
827.704	133.12
827.882	268.28
828.059	241.66
828.237	102.4
828.414	190.46
828.591	90.11
828.769	102.4
828.946	188.41
829.124	149.5
829.301	221.18
829.478	149.5
829.655	192.51
829.833	157.69
830.01	98.3
830.187	159.74
830.364	126.97
830.542	165.89
830.719	190.46
830.896	190.46
831.073	147.45
831.25	165.89
831.427	96.25
831.604	145.41
831.782	153.6
831.959	129.02
832.136	149.5
832.313	143.36
832.49	147.45
832.667	51.2
832.844	112.64
833.021	296.96
833.198	155.65
833.374	122.88
833.551	108.54
833.728	104.45
833.905	98.3
834.082	67.58
834.259	172.03
834.436	180.22
834.612	86.01
834.789	108.54
834.966	139.26
835.143	172.03
835.319	135.17
835.496	206.84
835.673	139.26
835.85	126.97
836.026	81.92
836.203	208.89
836.38	124.93
836.556	131.07
836.733	159.74
836.909	112.64
837.086	147.45
837.262	122.88
837.439	153.6
837.616	126.97
837.792	94.21
837.968	149.5
838.145	108.54
838.321	157.69
838.498	57.34
838.674	65.53
838.851	92.16
839.027	77.82
839.203	88.06
839.38	118.78
839.556	81.92
839.732	110.59
839.909	129.02
840.085	124.93
840.261	88.06
840.437	112.64
840.614	133.12
840.79	118.78
840.966	157.69
841.142	100.35
841.318	147.45
841.494	90.11
841.671	135.17
841.847	122.88
842.023	100.35
842.199	75.77
842.375	151.55
842.551	34.82
842.727	47.1
842.903	145.41
843.079	90.11
843.255	147.45
843.431	96.25
843.607	108.54
843.783	-18.43
843.959	100.35
844.134	88.06
844.31	92.16
844.486	67.58
844.662	92.16
844.838	96.25
845.013	122.88
845.189	133.12
845.365	151.55
845.541	126.97
845.716	-2.05
845.892	143.36
846.068	79.87
846.244	106.49
846.419	96.25
846.595	26.62
846.77	108.54
846.946	98.3
847.122	75.77
847.297	43.01
847.473	155.65
847.648	12.29
847.824	106.49
847.999	57.34
848.175	26.62
848.35	28.67
848.526	71.68
848.701	67.58
848.876	86.01
849.052	161.79
849.227	122.88
849.403	88.06
849.578	45.06
849.753	24.58
849.929	65.53
850.104	47.1
850.279	92.16
850.454	133.12
850.63	4.1
850.805	116.73
850.98	53.25
851.155	32.77
851.33	65.53
851.505	49.15
851.681	116.73
851.856	98.3
852.031	59.39
852.206	59.39
852.381	43.01
852.556	20.48
852.731	20.48
852.906	81.92
853.081	51.2
853.256	20.48
853.431	-4.1
853.606	47.1
853.781	4.1
853.956	4.1
854.131	83.97
854.305	28.67
854.48	43.01
854.655	-67.58
854.83	55.3
855.005	6.14
855.18	24.58
855.354	57.34
855.529	30.72
855.704	-4.1
855.879	57.34
856.053	-30.72
856.228	34.82
856.403	63.49
856.577	28.67
856.752	-53.25
856.926	24.58
857.101	40.96
857.276	-88.06
857.45	36.86
857.625	90.11
857.799	57.34
857.974	65.53
858.148	-32.77
858.323	116.73
858.497	94.21
858.672	36.86
858.846	-16.38
859.02	61.44
859.195	-32.77
859.369	69.63
859.543	61.44
859.718	49.15
859.892	57.34
860.066	49.15
860.241	38.91
860.415	10.24
860.589	40.96
860.763	22.53
860.938	32.77
861.112	43.01
861.286	20.48
861.46	6.14
861.634	59.39
861.808	69.63
861.982	55.3
862.157	36.86
862.331	-71.68
862.505	-43.01
862.679	-57.34
862.853	81.92
863.027	69.63
863.201	139.26
863.375	16.38
863.549	77.82
863.722	75.77
863.896	86.01
864.07	-36.86
864.244	12.29
864.418	26.62
864.592	57.34
864.766	-2.05
864.939	63.49
865.113	8.19
865.287	73.73
865.461	-32.77
865.634	59.39
865.808	-49.15
865.982	26.62
866.156	10.24
866.329	45.06
866.503	65.53
866.676	-4.1
866.85	55.3
867.024	22.53
867.197	65.53
867.371	116.73
867.544	59.39
867.718	-8.19
867.891	69.63
868.065	4.1
868.238	69.63
868.412	69.63
868.585	-6.14
868.759	14.34
868.932	-2.05
869.105	-16.38
869.279	30.72
869.452	-83.97
869.625	43.01
869.799	-36.86
869.972	-53.25
870.145	26.62
870.319	10.24
870.492	69.63
870.665	-20.48
870.838	-45.06
871.011	4.1
871.185	14.34
871.358	-57.34
871.531	14.34
871.704	4.1
871.877	61.44
872.05	38.91
872.223	-57.34
872.396	53.25
872.569	24.58
872.742	-53.25
872.915	90.11
873.088	-24.58
873.261	32.77
873.434	51.2
873.607	24.58
873.78	-40.96
873.953	-45.06
874.126	-22.53
874.299	77.82
874.471	47.1
874.644	59.39
874.817	36.86
874.99	61.44
875.163	18.43
875.335	79.87
875.508	8.19
875.681	108.54
875.853	-26.62
876.026	-65.54
876.199	6.14
876.371	24.58
876.544	24.58
876.717	-14.34
876.889	-6.14
877.062	-6.14
877.234	-34.82
877.407	45.06
877.579	16.38
877.752	2.05
877.924	69.63
878.097	55.3
878.269	10.24
878.442	26.62
878.614	10.24
878.786	71.68
878.959	-47.1
879.131	-32.77
879.303	-38.91
879.476	16.38
879.648	4.1
879.82	-14.34
879.993	-14.34
880.165	28.67
880.337	18.43
880.509	38.91
880.681	6.14
880.854	-38.91
881.026	30.72
881.198	102.4
881.37	-4.1
881.542	67.58
881.714	-8.19
881.886	-6.14
882.058	2.05
882.23	-28.67
882.402	-71.68
882.574	57.34
882.746	40.96
882.918	81.92
883.09	51.2
883.262	92.16
883.434	-79.87
883.606	-61.44
883.778	51.2
883.95	45.06
884.122	59.39
884.293	32.77
884.465	-47.1
884.637	38.91
884.809	-53.25
884.98	81.92
885.152	-28.67
885.324	43.01
885.496	22.53
885.667	-8.19
885.839	30.72
886.011	40.96
886.182	-2.05
886.354	-45.06
886.525	10.24
886.697	22.53
886.869	0
887.04	0
887.212	8.19
887.383	86.01
887.555	40.96
887.726	-12.29
887.897	26.62
888.069	-57.34
888.24	55.3
888.412	36.86
888.583	10.24
888.754	6.14
888.926	-20.48
889.097	4.1
889.268	-14.34
889.44	-10.24
889.611	-43.01
889.782	-40.96
889.953	-4.1
890.125	43.01
890.296	-63.49
890.467	-47.1
890.638	-20.48
890.809	47.1
890.98	-12.29
891.151	-14.34
891.323	43.01
891.494	10.24
891.665	22.53
891.836	-32.77
892.007	86.01
892.178	79.87
892.349	24.58
892.52	0
892.691	12.29
892.862	-22.53
893.032	-81.92
893.203	8.19
893.374	20.48
893.545	90.11
893.716	-110.59
893.887	10.24
894.057	-14.34
894.228	90.11
894.399	-73.73
894.57	14.34
894.74	36.86
894.911	18.43
895.082	-61.44
895.253	-28.67
895.423	-20.48
895.594	-38.91
895.764	53.25
895.935	-24.58
896.106	8.19
896.276	-4.1
896.447	32.77
896.617	10.24
896.788	22.53
896.958	6.14
897.129	16.38
897.299	0
897.47	-16.38
897.64	51.2
897.81	-12.29
897.981	34.82
898.151	0
898.322	43.01
898.492	-12.29
898.662	-61.44
898.832	0
899.003	-69.63
899.173	-20.48
899.343	-65.54
899.513	-86.01
