Data from USB4F104151__65__13-05-52-561.txt Node

Date: Fri Mar 14 13:05:52 EDT 2025
User: louis
Spectrometer: USB4F10415
Trigger mode: 4
Integration Time (sec): 4.000000E-2
Scans to average: 1
Electric dark correction enabled: true
Nonlinearity correction enabled: false
Boxcar width: 0
XAxis mode: Wavelengths
Number of Pixels in Spectrum: 3648
>>>>>Begin Spectral Data<<<<<
178.204	-186.02
178.424	-186.02
178.644	-186.02
178.864	-257.7
179.084	-181.93
179.304	-13.99
179.524	20.82
179.744	0.34
179.964	41.3
180.184	8.53
180.404	20.82
180.624	22.87
180.844	33.11
181.064	-44.71
181.283	-26.28
181.503	-24.23
181.723	-38.57
181.943	-50.86
182.163	104.79
182.383	-11.95
182.602	63.83
182.822	14.68
183.042	49.49
183.262	35.16
183.482	84.31
183.701	18.77
183.921	33.11
184.141	6.49
184.361	65.88
184.58	74.07
184.8	-22.19
185.02	-5.8
185.239	110.93
185.459	41.3
185.679	67.92
185.898	-69.29
186.118	80.21
186.338	-24.23
186.557	31.06
186.777	47.44
186.997	2.39
187.216	-34.47
187.436	82.26
187.655	57.68
187.875	47.44
188.095	31.06
188.314	78.16
188.534	94.55
188.753	2.39
188.973	104.79
189.192	117.08
189.412	35.16
189.631	-30.38
189.851	45.4
190.07	112.98
190.29	6.49
190.509	-30.38
190.729	45.4
190.948	90.45
191.168	155.99
191.387	127.32
191.607	41.3
191.826	61.78
192.045	61.78
192.265	-1.71
192.484	106.84
192.704	-3.75
192.923	35.16
193.142	147.8
193.362	57.68
193.581	39.25
193.8	82.26
194.02	76.12
194.239	2.39
194.458	69.97
194.678	-7.85
194.897	84.31
195.116	57.68
195.335	-44.71
195.555	39.25
195.774	53.59
195.993	49.49
196.212	16.73
196.432	41.3
196.651	-32.43
196.87	49.49
197.089	176.47
197.308	69.97
197.528	82.26
197.747	-3.75
197.966	76.12
198.185	110.93
198.404	-30.38
198.623	33.11
198.842	35.16
199.062	110.93
199.281	104.79
199.5	65.88
199.719	-20.14
199.938	41.3
200.157	129.36
200.376	104.79
200.595	96.6
200.814	63.83
201.033	59.73
201.252	80.21
201.471	35.16
201.69	106.84
201.909	12.63
202.128	74.07
202.347	4.44
202.566	37.2
202.785	-30.38
203.004	51.54
203.223	176.47
203.442	24.92
203.661	43.35
203.879	-7.85
204.098	43.35
204.317	33.11
204.536	4.44
204.755	-54.95
204.974	92.5
205.193	51.54
205.411	119.12
205.63	104.79
205.849	0.34
206.068	6.49
206.287	-7.85
206.505	59.73
206.724	29.01
206.943	63.83
207.162	12.63
207.381	4.44
207.599	37.2
207.818	78.16
208.037	0.34
208.255	51.54
208.474	-36.52
208.693	86.36
208.911	-20.14
209.13	33.11
209.349	51.54
209.567	67.92
209.786	76.12
210.005	53.59
210.223	0.34
210.442	-61.1
210.661	41.3
210.879	45.4
211.098	61.78
211.316	-32.43
211.535	121.17
211.753	31.06
211.972	-5.8
212.191	-24.23
212.409	22.87
212.628	74.07
212.846	20.82
213.065	-9.9
213.283	98.64
213.502	-9.9
213.72	51.54
213.938	59.73
214.157	51.54
214.375	57.68
214.594	-7.85
214.812	45.4
215.031	18.77
215.249	-30.38
215.467	90.45
215.686	41.3
215.904	65.88
216.122	18.77
216.341	119.12
216.559	49.49
216.778	45.4
216.996	74.07
217.214	-34.47
217.432	0.34
217.651	33.11
217.869	-3.75
218.087	35.16
218.306	43.35
218.524	57.68
218.742	49.49
218.96	117.08
219.179	-1.71
219.397	108.88
219.615	121.17
219.833	49.49
220.051	35.16
220.27	45.4
220.488	20.82
220.706	41.3
220.924	-30.38
221.142	14.68
221.36	39.25
221.578	18.77
221.796	61.78
222.015	43.35
222.233	61.78
222.451	86.36
222.669	-11.95
222.887	82.26
223.105	10.58
223.323	-18.09
223.541	-44.71
223.759	22.87
223.977	31.06
224.195	67.92
224.413	143.7
224.631	31.06
224.849	51.54
225.067	194.9
225.285	-22.19
225.503	12.63
225.721	-24.23
225.939	47.44
226.157	10.58
226.375	149.84
226.592	-38.57
226.81	-3.75
227.028	2.39
227.246	49.49
227.464	100.69
227.682	96.6
227.9	72.02
228.117	39.25
228.335	63.83
228.553	80.21
228.771	72.02
228.989	61.78
229.206	69.97
229.424	-26.28
229.642	-59.05
229.86	69.97
230.077	61.78
230.295	10.58
230.513	49.49
230.731	98.64
230.948	63.83
231.166	123.22
231.384	-7.85
231.601	-79.53
231.819	147.8
232.037	110.93
232.254	4.44
232.472	59.73
232.689	-48.81
232.907	57.68
233.125	10.58
233.342	-28.33
233.56	57.68
233.777	-71.34
233.995	-7.85
234.213	74.07
234.43	49.49
234.648	33.11
234.865	-40.62
235.083	145.75
235.3	98.64
235.518	63.83
235.735	69.97
235.953	82.26
236.17	51.54
236.388	35.16
236.605	-9.9
236.822	76.12
237.04	119.12
237.257	51.54
237.475	-40.62
237.692	18.77
237.909	33.11
238.127	41.3
238.344	-3.75
238.562	74.07
238.779	-9.9
238.996	-36.52
239.214	35.16
239.431	110.93
239.648	8.53
239.865	0.34
240.083	69.97
240.3	125.27
240.517	14.68
240.735	31.06
240.952	108.88
241.169	76.12
241.386	100.69
241.603	12.63
241.821	-67.24
242.038	61.78
242.255	76.12
242.472	49.49
242.689	67.92
242.907	51.54
243.124	8.53
243.341	43.35
243.558	18.77
243.775	10.58
243.992	10.58
244.209	35.16
244.426	108.88
244.643	37.2
244.86	26.96
245.078	-16.04
245.295	72.02
245.512	45.4
245.729	98.64
245.946	37.2
246.163	24.92
246.38	61.78
246.597	39.25
246.814	16.73
247.031	43.35
247.248	26.96
247.464	6.49
247.681	2.39
247.898	41.3
248.115	37.2
248.332	-7.85
248.549	4.44
248.766	119.12
248.983	51.54
249.2	26.96
249.417	106.84
249.633	57.68
249.85	41.3
250.067	57.68
250.284	57.68
250.501	108.88
250.717	74.07
250.934	-54.95
251.151	-34.47
251.368	67.92
251.585	94.55
251.801	104.79
252.018	35.16
252.235	90.45
252.451	-18.09
252.668	90.45
252.885	18.77
253.102	90.45
253.318	12.63
253.535	18.77
253.752	-20.14
253.968	2.39
254.185	-65.19
254.401	59.73
254.618	106.84
254.835	88.4
255.051	123.22
255.268	18.77
255.484	12.63
255.701	-36.52
255.917	31.06
256.134	20.82
256.351	10.58
256.567	-24.23
256.784	-1.71
257	-24.23
257.217	4.44
257.433	45.4
257.65	49.49
257.866	59.73
258.082	-13.99
258.299	8.53
258.515	94.55
258.732	104.79
258.948	-20.14
259.165	45.4
259.381	67.92
259.597	47.44
259.814	14.68
260.03	76.12
260.246	-7.85
260.463	26.96
260.679	39.25
260.895	10.58
261.112	74.07
261.328	65.88
261.544	10.58
261.761	82.26
261.977	53.59
262.193	33.11
262.409	76.12
262.626	92.5
262.842	16.73
263.058	-26.28
263.274	57.68
263.49	-11.95
263.707	69.97
263.923	-13.99
264.139	-7.85
264.355	53.59
264.571	102.74
264.787	26.96
265.004	100.69
265.22	35.16
265.436	51.54
265.652	0.34
265.868	49.49
266.084	18.77
266.3	80.21
266.516	-7.85
266.732	24.92
266.948	45.4
267.164	2.39
267.38	35.16
267.596	43.35
267.812	88.4
268.028	33.11
268.244	-7.85
268.46	67.92
268.676	74.07
268.892	78.16
269.108	67.92
269.324	115.03
269.54	-28.33
269.756	47.44
269.972	12.63
270.188	39.25
270.403	53.59
270.619	26.96
270.835	63.83
271.051	37.2
271.267	22.87
271.483	51.54
271.698	102.74
271.914	12.63
272.13	8.53
272.346	18.77
272.562	90.45
272.777	90.45
272.993	-20.14
273.209	41.3
273.425	127.32
273.64	57.68
273.856	18.77
274.072	-1.71
274.287	-28.33
274.503	84.31
274.719	24.92
274.934	24.92
275.15	-57
275.366	26.96
275.581	2.39
275.797	-11.95
276.012	63.83
276.228	33.11
276.444	35.16
276.659	65.88
276.875	-7.85
277.09	33.11
277.306	16.73
277.521	57.68
277.737	8.53
277.952	51.54
278.168	49.49
278.383	53.59
278.599	33.11
278.814	-1.71
279.03	102.74
279.245	155.99
279.461	35.16
279.676	43.35
279.892	80.21
280.107	33.11
280.322	76.12
280.538	18.77
280.753	-3.75
280.969	29.01
281.184	-24.23
281.399	80.21
281.615	108.88
281.83	14.68
282.045	55.64
282.26	-7.85
282.476	108.88
282.691	112.98
282.906	16.73
283.122	90.45
283.337	-42.67
283.552	90.45
283.767	51.54
283.983	90.45
284.198	12.63
284.413	74.07
284.628	-13.99
284.843	102.74
285.058	43.35
285.274	51.54
285.489	-5.8
285.704	57.68
285.919	31.06
286.134	74.07
286.349	84.31
286.564	12.63
286.779	78.16
286.995	-30.38
287.21	-26.28
287.425	112.98
287.64	-3.75
287.855	43.35
288.07	53.59
288.285	82.26
288.5	16.73
288.715	67.92
288.93	65.88
289.145	-7.85
289.36	41.3
289.575	84.31
289.79	49.49
290.004	82.26
290.219	53.59
290.434	20.82
290.649	18.77
290.864	76.12
291.079	49.49
291.294	4.44
291.509	76.12
291.724	78.16
291.938	-18.09
292.153	45.4
292.368	61.78
292.583	0.34
292.798	100.69
293.012	98.64
293.227	35.16
293.442	63.83
293.657	51.54
293.871	108.88
294.086	80.21
294.301	92.5
294.516	65.88
294.73	88.4
294.945	-36.52
295.16	0.34
295.374	53.59
295.589	143.7
295.804	-30.38
296.018	96.6
296.233	49.49
296.447	-24.23
296.662	22.87
296.877	74.07
297.091	80.21
297.306	74.07
297.52	29.01
297.735	0.34
297.949	69.97
298.164	63.83
298.378	86.36
298.593	67.92
298.807	8.53
299.022	29.01
299.236	69.97
299.451	84.31
299.665	18.77
299.88	35.16
300.094	67.92
300.309	39.25
300.523	-11.95
300.737	-13.99
300.952	76.12
301.166	57.68
301.381	24.92
301.595	4.44
301.809	88.4
302.024	4.44
302.238	6.49
302.452	133.46
302.667	67.92
302.881	84.31
303.095	117.08
303.309	90.45
303.524	29.01
303.738	-1.71
303.952	53.59
304.166	102.74
304.381	-93.87
304.595	106.84
304.809	-50.86
305.023	49.49
305.237	49.49
305.452	-11.95
305.666	14.68
305.88	51.54
306.094	51.54
306.308	82.26
306.522	6.49
306.736	59.73
306.95	61.78
307.164	10.58
307.379	72.02
307.593	98.64
307.807	-3.75
308.021	14.68
308.235	-32.43
308.449	33.11
308.663	41.3
308.877	123.22
309.091	47.44
309.305	51.54
309.519	-52.91
309.733	43.35
309.947	-36.52
310.161	-18.09
310.374	-11.95
310.588	45.4
310.802	55.64
311.016	49.49
311.23	67.92
311.444	12.63
311.658	57.68
311.872	153.94
312.085	45.4
312.299	43.35
312.513	16.73
312.727	24.92
312.941	51.54
313.154	53.59
313.368	-9.9
313.582	92.5
313.796	72.02
314.009	78.16
314.223	98.64
314.437	41.3
314.651	100.69
314.864	-44.71
315.078	57.68
315.292	37.2
315.505	31.06
315.719	53.59
315.933	10.58
316.146	57.68
316.36	16.73
316.573	90.45
316.787	117.08
317.001	29.01
317.214	-30.38
317.428	41.3
317.641	49.49
317.855	80.21
318.068	51.54
318.282	41.3
318.495	123.22
318.709	41.3
318.922	41.3
319.136	96.6
319.349	102.74
319.563	86.36
319.776	39.25
319.99	-40.62
320.203	96.6
320.417	57.68
320.63	131.41
320.843	123.22
321.057	76.12
321.27	59.73
321.483	57.68
321.697	41.3
321.91	43.35
322.124	33.11
322.337	55.64
322.55	26.96
322.763	41.3
322.977	45.4
323.19	45.4
323.403	-50.86
323.617	12.63
323.83	139.6
324.043	41.3
324.256	55.64
324.469	16.73
324.683	127.32
324.896	16.73
325.109	35.16
325.322	51.54
325.535	-3.75
325.748	69.97
325.962	14.68
326.175	82.26
326.388	49.49
326.601	16.73
326.814	49.49
327.027	76.12
327.24	78.16
327.453	8.53
327.666	53.59
327.879	74.07
328.092	57.68
328.305	31.06
328.518	-5.8
328.731	135.51
328.944	-9.9
329.157	57.68
329.37	69.97
329.583	149.84
329.796	123.22
330.009	69.97
330.222	90.45
330.435	53.59
330.648	65.88
330.861	41.3
331.073	-16.04
331.286	24.92
331.499	35.16
331.712	74.07
331.925	45.4
332.138	51.54
332.35	143.7
332.563	41.3
332.776	145.75
332.989	24.92
333.202	49.49
333.414	55.64
333.627	12.63
333.84	47.44
334.053	108.88
334.265	-13.99
334.478	129.36
334.691	-1.71
334.903	61.78
335.116	-50.86
335.329	69.97
335.541	129.36
335.754	141.65
335.966	-9.9
336.179	57.68
336.392	45.4
336.604	45.4
336.817	100.69
337.029	20.82
337.242	90.45
337.454	33.11
337.667	14.68
337.88	90.45
338.092	61.78
338.305	76.12
338.517	10.58
338.729	131.41
338.942	102.74
339.154	26.96
339.367	18.77
339.579	59.73
339.792	-40.62
340.004	80.21
340.217	-24.23
340.429	84.31
340.641	8.53
340.854	-30.38
341.066	57.68
341.278	98.64
341.491	76.12
341.703	82.26
341.915	37.2
342.128	112.98
342.34	8.53
342.552	55.64
342.764	-9.9
342.977	35.16
343.189	55.64
343.401	72.02
343.613	-9.9
343.826	18.77
344.038	-9.9
344.25	76.12
344.462	4.44
344.674	92.5
344.886	0.34
345.099	74.07
345.311	24.92
345.523	-63.15
345.735	43.35
345.947	65.88
346.159	8.53
346.371	41.3
346.583	145.75
346.795	82.26
347.007	39.25
347.219	96.6
347.431	2.39
347.643	108.88
347.855	-57
348.067	158.03
348.279	-7.85
348.491	24.92
348.703	82.26
348.915	94.55
349.127	-59.05
349.339	51.54
349.551	37.2
349.763	84.31
349.975	86.36
350.187	74.07
350.399	80.21
350.61	41.3
350.822	24.92
351.034	69.97
351.246	69.97
351.458	65.88
351.669	84.31
351.881	127.32
352.093	65.88
352.305	108.88
352.517	57.68
352.728	65.88
352.94	22.87
353.152	94.55
353.363	53.59
353.575	143.7
353.787	94.55
353.999	108.88
354.21	29.01
354.422	39.25
354.633	14.68
354.845	59.73
355.057	57.68
355.268	61.78
355.48	8.53
355.692	92.5
355.903	49.49
356.115	12.63
356.326	-20.14
356.538	43.35
356.749	86.36
356.961	110.93
357.172	72.02
357.384	72.02
357.595	110.93
357.807	-46.76
358.018	16.73
358.23	90.45
358.441	149.84
358.653	104.79
358.864	-32.43
359.075	76.12
359.287	119.12
359.498	57.68
359.709	90.45
359.921	84.31
360.132	94.55
360.344	67.92
360.555	-40.62
360.766	123.22
360.977	72.02
361.189	67.92
361.4	37.2
361.611	35.16
361.823	69.97
362.034	119.12
362.245	8.53
362.456	0.34
362.667	80.21
362.879	51.54
363.09	61.78
363.301	69.97
363.512	123.22
363.723	33.11
363.935	35.16
364.146	57.68
364.357	8.53
364.568	108.88
364.779	-73.39
364.99	102.74
365.201	-13.99
365.412	102.74
365.623	-5.8
365.834	10.58
366.045	26.96
366.256	49.49
366.467	121.17
366.678	92.5
366.889	94.55
367.1	35.16
367.311	18.77
367.522	94.55
367.733	106.84
367.944	115.03
368.155	57.68
368.366	67.92
368.577	16.73
368.788	110.93
368.999	67.92
369.209	84.31
369.42	160.08
369.631	184.66
369.842	41.3
370.053	57.68
370.264	149.84
370.474	-40.62
370.685	94.55
370.896	78.16
371.107	108.88
371.317	98.64
371.528	57.68
371.739	121.17
371.95	94.55
372.16	59.73
372.371	12.63
372.582	39.25
372.792	135.51
373.003	88.4
373.214	55.64
373.424	74.07
373.635	10.58
373.846	76.12
374.056	45.4
374.267	135.51
374.477	76.12
374.688	10.58
374.898	24.92
375.109	26.96
375.319	102.74
375.53	115.03
375.74	80.21
375.951	129.36
376.161	59.73
376.372	112.98
376.582	24.92
376.793	12.63
377.003	-7.85
377.214	-38.57
377.424	100.69
377.635	80.21
377.845	57.68
378.055	80.21
378.266	63.83
378.476	8.53
378.686	65.88
378.897	115.03
379.107	92.5
379.317	76.12
379.528	65.88
379.738	94.55
379.948	90.45
380.158	74.07
380.369	119.12
380.579	110.93
380.789	41.3
380.999	143.7
381.21	65.88
381.42	92.5
381.63	76.12
381.84	43.35
382.05	98.64
382.261	76.12
382.471	166.23
382.681	53.59
382.891	121.17
383.101	98.64
383.311	8.53
383.521	49.49
383.731	139.6
383.941	125.27
384.151	94.55
384.361	88.4
384.571	117.08
384.781	92.5
384.991	100.69
385.201	203.09
385.411	37.2
385.621	151.89
385.831	29.01
386.041	47.44
386.251	67.92
386.461	139.6
386.671	67.92
386.881	67.92
387.091	63.83
387.301	67.92
387.511	80.21
387.72	35.16
387.93	115.03
388.14	14.68
388.35	26.96
388.56	74.07
388.769	151.89
388.979	72.02
389.189	-3.75
389.399	74.07
389.609	100.69
389.818	94.55
390.028	108.88
390.238	125.27
390.447	4.44
390.657	10.58
390.867	51.54
391.076	-22.19
391.286	10.58
391.496	115.03
391.705	131.41
391.915	127.32
392.125	164.18
392.334	45.4
392.544	112.98
392.753	127.32
392.963	53.59
393.172	106.84
393.382	6.49
393.591	141.65
393.801	110.93
394.01	213.33
394.22	84.31
394.429	102.74
394.639	78.16
394.848	102.74
395.058	96.6
395.267	90.45
395.477	158.03
395.686	143.7
395.895	260.43
396.105	223.57
396.314	65.88
396.524	139.6
396.733	190.8
396.942	119.12
397.152	139.6
397.361	151.89
397.57	115.03
397.78	80.21
397.989	98.64
398.198	158.03
398.407	127.32
398.617	145.75
398.826	149.84
399.035	110.93
399.244	108.88
399.453	106.84
399.663	57.68
399.872	98.64
400.081	86.36
400.29	205.14
400.499	174.42
400.708	180.56
400.917	139.6
401.127	123.22
401.336	160.08
401.545	272.72
401.754	94.55
401.963	219.47
402.172	196.95
402.381	141.65
402.59	125.27
402.799	121.17
403.008	139.6
403.217	207.19
403.426	125.27
403.635	84.31
403.844	190.8
404.053	178.51
404.262	184.66
404.471	278.87
404.68	264.53
404.888	196.95
405.097	141.65
405.306	174.42
405.515	248.15
405.724	235.86
405.933	219.47
406.142	250.19
406.35	270.67
406.559	248.15
406.768	190.8
406.977	315.73
407.185	242
407.394	250.19
407.603	141.65
407.812	264.53
408.02	287.06
408.229	192.85
408.438	305.49
408.646	289.1
408.855	305.49
409.064	344.4
409.272	317.78
409.481	340.3
409.69	368.98
409.898	287.06
410.107	375.12
410.315	373.07
410.524	395.6
410.733	424.27
410.941	379.22
411.15	434.51
411.358	467.28
411.567	541.01
411.775	506.19
411.984	428.37
412.192	563.53
412.401	610.64
412.609	592.2
412.818	579.92
413.026	577.87
413.234	571.72
413.443	534.86
413.651	610.64
413.86	678.22
414.068	815.43
414.276	700.75
414.485	737.61
414.693	837.96
414.901	860.49
415.11	811.34
415.318	809.29
415.526	897.35
415.734	952.65
415.943	934.22
416.151	1020.23
416.359	1018.18
416.567	1032.52
416.776	1032.52
416.984	1108.29
417.192	1182.02
417.4	1239.36
417.608	1143.11
417.817	1216.83
418.025	1343.81
418.233	1417.54
418.441	1306.95
418.649	1296.71
418.857	1507.65
419.065	1634.62
419.273	1550.65
419.481	1605.95
419.689	1808.7
419.897	1792.31
420.105	1900.86
420.313	1882.42
420.521	1939.77
420.729	2085.17
420.937	1982.78
421.145	2163
421.353	2189.62
421.561	2287.92
421.769	2310.45
421.977	2408.75
422.185	2375.99
422.393	2412.85
422.601	2720.04
422.809	2691.37
423.017	2707.76
423.224	2808.11
423.432	2861.35
423.64	3008.81
423.848	3215.65
424.056	3170.6
424.263	3447.07
424.471	3389.73
424.679	3465.5
424.887	3703.07
425.094	3866.91
425.302	3721.5
425.51	3942.68
425.718	4083.99
425.925	4131.09
426.133	4243.73
426.341	4598.03
426.548	4649.23
426.756	4579.6
426.964	4745.48
427.171	5140.74
427.379	5325.06
427.586	5187.85
427.794	5366.02
428.001	5673.21
428.209	5955.83
428.417	5804.28
428.624	6269.17
428.832	5998.84
429.039	6320.37
429.247	6164.73
429.454	6748.4
429.662	7221.48
429.869	6791.41
430.076	7319.78
430.284	7178.47
430.491	7504.1
430.699	7882.97
430.906	7854.3
431.114	7987.42
431.321	8157.4
431.528	8364.25
431.736	8839.37
431.943	9285.83
432.15	9033.93
432.358	9148.62
432.565	9652.42
432.772	9631.94
432.979	10254.52
433.187	10240.19
433.394	10231.99
433.601	11276.46
433.808	11028.65
434.016	11067.56
434.223	11700.39
434.43	12234.91
434.637	12017.82
434.844	12638.36
435.052	12877.97
435.259	12933.26
435.466	13082.77
435.673	12820.63
435.88	13619.33
436.087	14473.34
436.294	14403.71
436.501	13955.2
436.708	14471.29
436.915	14970.99
437.122	15718.5
437.329	15368.3
437.537	16164.96
437.743	16146.53
437.95	16054.37
438.157	16820.31
438.364	17395.79
438.571	17500.23
438.778	17694.79
438.985	19345.45
439.192	18378.81
439.399	19046.45
439.606	18489.4
439.813	19441.71
440.02	20863
440.227	20625.43
440.433	20475.93
440.64	20805.66
440.847	20699.16
441.054	21358.61
441.261	22566.91
441.467	22468.61
441.674	22915.06
441.881	23971.82
442.088	23699.44
442.294	23502.83
442.501	23992.3
442.708	24684.51
442.914	25634.77
443.121	26560.45
443.328	25868.23
443.534	27494.32
443.741	26691.52
443.948	26607.55
444.154	28497.83
444.361	28360.61
444.568	28506.02
444.774	28788.64
444.981	28534.69
445.187	30048.14
445.394	31143.8
445.6	30728.06
445.807	33648.47
446.013	32112.49
446.22	32720.74
446.426	34273.1
446.633	34238.28
446.839	35411.77
447.046	34271.05
447.252	36040.5
447.459	35997.49
447.665	35927.86
447.871	37498.65
448.078	39192.32
448.284	37367.58
448.491	38268.69
448.697	39792.37
448.903	40595.18
449.11	40777.45
449.316	39991.03
449.522	40308.46
449.728	42075.86
449.935	42264.27
450.141	42149.59
450.347	43175.62
450.553	42004.18
450.76	42557.13
450.966	43859.64
451.172	43165.38
451.378	44283.57
451.584	43194.05
451.791	44572.33
451.997	44943.02
452.203	45317.79
452.409	45514.4
452.615	44850.86
452.821	43591.36
453.027	43224.77
453.233	45295.27
453.44	43777.72
453.646	44254.9
453.852	44721.83
454.058	44998.31
454.264	43566.78
454.47	44377.78
454.676	43443.9
454.882	44793.51
455.088	41045.73
455.294	41672.41
455.5	42047.19
455.705	42909.38
455.911	41189.09
456.117	40183.54
456.323	39698.17
456.529	38145.81
456.735	39319.29
456.941	38397.71
457.147	38033.17
457.352	36808.48
457.558	36341.55
457.764	36253.48
457.97	35921.71
458.176	35112.77
458.381	35073.85
458.587	33367.9
458.793	33230.68
458.999	31434.61
459.204	33863.5
459.41	33138.52
459.616	30814.08
459.821	31004.54
460.027	30863.23
460.233	30121.87
460.438	28829.6
460.644	28888.99
460.85	27375.54
461.055	26967.99
461.261	27115.45
461.466	24993.75
461.672	24440.8
461.878	26419.14
462.083	24301.54
462.289	23908.33
462.494	23863.27
462.7	22458.37
462.905	21817.35
463.111	22771.71
463.316	22579.2
463.522	22657.02
463.727	22597.63
463.932	22228.99
464.138	22151.17
464.343	22167.56
464.549	21536.78
464.754	22181.89
464.959	22106.12
465.165	21846.02
465.37	21069.84
465.575	20314.14
465.781	21413.9
465.986	21348.37
466.191	20662.3
466.397	20095.01
466.602	19089.46
466.807	19834.92
467.012	19898.41
467.218	19886.12
467.423	19439.66
467.628	19433.52
467.833	20492.32
468.038	19709.99
468.244	18950.2
468.449	20004.9
468.654	19251.25
468.859	19247.15
469.064	19173.42
469.269	18444.35
469.474	18567.23
469.679	18761.78
469.885	18169.92
470.09	18403.39
470.295	18550.84
470.5	17793.09
470.705	18309.18
470.91	17651.78
471.115	17424.46
471.32	17924.16
471.525	17750.09
471.73	17010.77
471.935	17242.19
472.139	16670.81
472.344	16685.14
472.549	16765.01
472.754	16412.76
472.959	16232.54
473.164	15685.73
473.369	15564.9
473.574	15982.69
473.778	16076.9
473.983	15954.02
474.188	15665.25
474.393	15134.83
474.598	15376.49
474.802	14882.93
475.007	15147.12
475.212	15091.82
475.417	14389.37
475.621	14561.4
475.826	14289.02
476.031	14413.95
476.235	13885.57
476.44	14123.13
476.645	13611.14
476.849	13803.65
477.054	13629.57
477.259	13256.84
477.463	13510.79
477.668	13011.09
477.872	13295.75
478.077	13006.99
478.282	12675.22
478.486	12679.32
478.691	12615.83
478.895	12513.43
479.1	12523.67
479.304	12402.84
479.509	12177.56
479.713	12365.98
479.918	11993.25
480.122	11710.63
480.326	11868.32
480.531	12050.59
480.735	11735.2
480.94	11802.79
481.144	12341.4
481.348	11698.34
481.553	11702.43
481.757	11215.02
481.961	11520.17
482.166	11700.39
482.37	11710.63
482.574	11372.71
482.778	11581.6
482.983	11710.63
483.187	11346.09
483.391	11520.17
483.595	11483.3
483.8	11454.63
484.004	11507.88
484.208	11704.48
484.412	11475.11
484.616	11641
484.821	11440.29
485.025	11350.18
485.229	11628.71
485.433	11251.88
485.637	11495.59
485.841	11403.43
486.045	11231.4
486.249	11397.29
486.453	11450.53
486.657	11452.58
486.861	11514.02
487.065	11167.91
487.269	11481.25
487.473	11217.07
487.677	11501.73
487.881	11829.41
488.085	11626.66
488.289	11677.86
488.493	11554.98
488.697	11554.98
488.901	11534.5
489.105	11415.72
489.309	11620.52
489.512	11636.9
489.716	11356.33
489.92	11706.53
490.124	11520.17
490.328	11946.14
490.531	11675.81
490.735	11892.9
490.939	11745.44
491.143	11866.27
491.346	11759.78
491.55	12009.63
491.754	11733.15
491.958	12306.59
492.161	11940
492.365	11989.15
492.569	12066.97
492.772	12021.92
492.976	12214.43
493.18	12355.74
493.383	12386.46
493.587	12318.87
493.79	12535.96
493.994	12370.07
494.197	12742.8
494.401	12681.36
494.605	12554.39
494.808	12853.39
495.012	12847.25
495.215	13140.11
495.419	12882.06
495.622	12970.13
495.825	13193.36
496.029	13232.27
496.232	13537.41
496.436	13785.22
496.639	13766.79
496.843	13871.23
497.046	13930.62
497.249	14258.3
497.453	14338.17
497.656	14178.43
497.859	14323.83
498.063	14385.27
498.266	14968.94
498.469	14626.93
498.673	15007.86
498.876	15300.72
499.079	15247.47
499.282	15493.22
499.485	15659.11
499.689	15743.08
499.892	15851.62
500.095	16150.62
500.298	16326.75
500.501	16244.83
500.705	16672.85
500.908	16828.5
501.111	17070.16
501.314	17139.79
501.517	17234
501.72	17567.82
501.923	17246.29
502.126	17934.4
502.329	18145.34
502.532	18311.23
502.735	18354.24
502.938	18915.38
503.141	18880.57
503.344	19241.01
503.547	19021.88
503.75	19382.32
503.953	19636.27
504.156	19990.56
504.359	20242.46
504.562	19984.42
504.765	20531.23
504.968	20680.73
505.17	20992.02
505.373	20918.29
505.576	21291.02
505.779	21311.5
505.982	21633.04
506.185	22335.49
506.387	22124.55
506.59	22251.52
506.793	22923.26
506.996	22697.98
507.198	23371.76
507.401	23193.59
507.604	23498.73
507.807	23879.66
508.009	24389.6
508.212	24254.44
508.415	24637.41
508.617	24958.94
508.82	24690.65
509.022	24713.18
509.225	25565.14
509.428	25741.26
509.63	26124.23
509.833	26068.94
510.035	26582.98
510.238	26802.11
510.44	27127.74
510.643	27008.95
510.845	27416.5
511.048	27416.5
511.25	27709.36
511.453	27912.11
511.655	28614.56
511.858	28231.59
512.06	28919.71
512.262	29290.39
512.465	28864.41
512.667	29411.22
512.87	30101.39
513.072	30068.62
513.274	30556.04
513.477	30506.88
513.679	31082.36
513.881	31276.92
514.084	31608.69
514.286	31813.49
514.488	31893.36
514.69	32796.51
514.893	32880.48
515.095	32771.94
515.297	33412.95
515.499	33501.01
515.701	33701.72
515.904	33820.5
516.106	34228.04
516.308	34557.77
516.51	34516.81
516.712	35114.81
516.914	35125.05
517.116	36015.92
517.318	35772.21
517.52	35911.47
517.722	35995.44
517.925	36636.45
518.127	37142.3
518.329	37310.24
518.531	37076.77
518.733	37836.56
518.935	38541.07
519.136	38389.52
519.338	38891.27
519.54	38698.76
519.742	39431.93
519.944	39595.77
520.146	39982.84
520.348	40349.42
520.55	40367.85
520.752	40498.92
520.954	41201.38
521.155	41082.59
521.357	41402.08
521.559	42114.77
521.761	42348.24
521.963	42000.08
522.164	42507.98
522.366	42700.49
522.568	42831.56
522.77	42913.48
522.971	43880.12
523.173	43456.19
523.375	44017.33
523.576	43714.23
523.778	44353.2
523.98	44916.39
524.181	44674.73
524.383	44854.95
524.584	45151.91
524.786	44990.12
524.988	45250.21
525.189	45878.94
525.391	45930.14
525.592	46306.96
525.794	46130.84
525.995	46534.29
526.197	46366.35
526.398	46759.56
526.6	47220.36
526.801	46902.92
527.003	47591.04
527.204	47316.61
527.406	47832.7
527.607	48115.32
527.808	48135.8
528.01	47244.93
528.211	47709.82
528.412	48627.31
528.614	48467.57
528.815	48586.35
529.016	49026.67
529.218	48139.89
529.419	48373.36
529.62	48774.77
529.822	48731.76
530.023	48989.8
530.224	49032.81
530.425	49176.17
530.626	49081.96
530.828	48967.27
531.029	49833.56
531.23	49276.52
531.431	49362.53
531.632	49311.33
531.833	49675.87
532.035	49550.95
532.236	49839.71
532.437	50241.11
532.638	49325.67
532.839	49653.34
533.04	50218.58
533.241	49661.54
533.442	50521.68
533.643	49995.35
533.844	50200.15
534.045	50320.98
534.246	49448.55
534.447	50237.01
534.648	50302.55
534.849	50384.47
535.05	50204.25
535.251	49854.04
535.451	49868.38
535.652	50290.26
535.853	50368.08
536.054	49786.46
536.255	50591.31
536.456	49731.17
536.657	50581.07
536.857	50052.7
537.058	49909.34
537.259	50093.66
537.46	50273.88
537.66	49946.2
537.861	50450
538.062	50368.08
538.263	50347.61
538.463	50081.37
538.664	50185.82
538.865	50232.92
539.065	50607.7
539.266	49974.87
539.466	50667.09
539.667	50015.83
539.868	50884.17
540.068	49806.94
540.269	50050.65
540.469	50667.09
540.67	49565.28
540.87	50370.13
541.071	49727.07
541.271	49966.68
541.472	50142.81
541.672	49583.71
541.873	49661.54
542.073	49608.29
542.274	50091.61
542.474	49751.65
542.675	49675.87
542.875	50122.33
543.075	49800.8
543.276	49385.06
543.476	49940.06
543.676	49618.53
543.877	50126.42
544.077	49854.04
544.277	50015.83
544.478	49753.69
544.678	50335.32
544.878	49753.69
545.078	49991.26
545.279	49700.45
545.479	49518.18
545.679	49837.66
545.879	49778.27
546.079	49690.21
546.28	49641.06
546.48	49155.69
546.68	49667.68
546.88	49651.3
547.08	49292.9
547.28	49499.75
547.48	49020.52
547.68	49514.08
547.88	48717.42
548.081	49516.13
548.281	49397.35
548.481	49206.89
548.681	49624.67
548.881	49325.67
549.081	49301.09
549.28	49591.9
549.48	49421.92
549.68	49059.43
549.88	49550.95
550.08	49321.57
550.28	49401.44
550.48	49198.69
550.68	49743.45
550.88	48721.52
551.08	49065.58
551.279	48950.89
551.479	48936.55
551.679	49223.27
551.879	48862.83
552.079	49507.94
552.278	49124.97
552.478	49034.86
552.678	49043.05
552.878	49208.93
553.077	48983.66
553.277	48676.46
553.477	49237.61
553.676	48576.11
553.876	48719.47
554.076	48944.75
554.275	48653.93
554.475	48664.17
554.674	48719.47
554.874	48989.8
555.074	48395.89
555.273	48766.57
555.473	48807.53
555.672	48422.51
555.872	48707.18
556.071	48938.6
556.271	48541.3
556.47	48096.89
556.67	48234.1
556.869	48377.46
557.068	48127.61
557.268	47787.64
557.467	48096.89
557.667	48270.96
557.866	48002.68
558.065	47468.16
558.265	47642.24
558.464	47722.11
558.663	48098.94
558.863	47134.34
559.062	47967.87
559.261	46913.16
559.461	48199.29
559.66	47109.77
559.859	47830.65
560.058	47167.11
560.258	47599.23
560.457	47322.76
560.656	47634.05
560.855	47355.52
561.054	47347.33
561.253	47169.16
561.453	46960.26
561.652	47232.64
561.851	47326.85
562.05	47152.77
562.249	46786.19
562.448	46947.98
562.647	46765.71
562.846	46841.48
563.045	46501.52
563.244	46188.18
563.443	46767.76
563.642	45858.46
563.841	46128.79
564.04	46112.41
564.239	46206.61
564.438	45797.02
564.637	46362.26
564.836	46128.79
565.035	45633.18
565.234	45780.63
565.432	45803.16
565.631	45455.01
565.83	45893.27
566.029	45534.88
566.228	45622.94
566.427	45090.47
566.625	44687.02
566.824	44799.66
567.023	44940.97
567.222	44101.3
567.42	44770.99
567.619	44553.9
567.818	44629.68
568.016	44625.58
568.215	44629.68
568.414	44558
568.612	44811.95
568.811	44302
569.01	44357.3
569.208	43867.83
569.407	44416.69
569.605	43824.82
569.804	43863.74
570.002	43568.83
570.201	43761.34
570.4	43990.71
570.598	43359.94
570.797	43017.92
570.995	43316.93
571.193	43134.66
571.392	43810.49
571.59	43028.16
571.789	43269.83
571.987	42596.04
572.186	42884.81
572.384	42444.49
572.582	42964.68
572.781	42475.21
572.979	42565.32
573.177	42325.71
573.376	42649.29
573.574	41864.92
573.772	42102.48
573.971	41527
574.169	41527
574.367	41473.76
574.565	41930.45
574.763	41764.57
574.962	41584.35
575.16	41205.47
575.358	41266.91
575.556	40904.42
575.754	41666.27
575.952	41066.21
576.151	41135.84
576.349	40754.92
576.547	40802.02
576.745	41189.09
576.943	40795.88
577.141	40834.79
577.339	40505.07
577.537	40433.39
577.735	40330.99
577.933	40175.34
578.131	40031.99
578.329	39980.79
578.527	39741.17
578.725	39706.36
578.923	39868.15
579.121	39888.63
579.319	39223.04
579.516	39765.75
579.714	39519.99
579.912	39288.57
580.11	39218.94
580.308	39081.73
580.506	38956.8
580.704	38682.38
580.901	38948.61
581.099	39139.07
581.297	38575.88
581.495	38944.52
581.692	38385.42
581.89	38377.23
582.088	38651.66
582.285	38113.04
582.483	38432.52
582.681	38065.94
582.878	38076.18
583.076	37740.31
583.274	38137.62
583.471	37668.63
583.669	37517.08
583.866	37592.86
584.064	37566.23
584.262	37248.8
584.459	37203.74
584.657	36861.73
584.854	37457.69
585.052	36652.84
585.249	36912.93
585.447	36847.4
585.644	36765.48
585.841	36681.51
586.039	37044
586.236	36036.4
586.434	36118.32
586.631	36093.74
586.828	36347.69
587.026	36097.84
587.223	35833.65
587.42	35753.78
587.618	36044.59
587.815	35548.98
588.012	35403.58
588.21	35360.57
588.407	35706.68
588.604	35553.08
588.801	34877.25
588.999	35090.24
589.196	34871.11
589.393	35026.75
589.59	34754.37
589.787	34737.99
589.984	34443.08
590.182	34238.28
590.379	34742.08
590.576	34342.73
590.773	34500.42
590.97	34207.56
591.167	34299.72
591.364	33765.2
591.561	33890.13
591.758	33378.14
591.955	33498.97
592.152	33525.59
592.349	33371.99
592.546	33587.03
592.743	33318.74
592.94	32784.23
593.137	33005.41
593.334	33312.6
593.531	32759.65
593.727	32931.68
593.924	32808.8
594.121	32468.84
594.318	32841.57
594.515	32087.92
594.712	32259.95
594.908	32477.03
595.105	32153.45
595.302	31811.44
595.499	32239.47
595.696	32030.57
595.892	31774.58
596.089	32059.24
596.286	31737.71
596.482	31743.86
596.679	31784.82
596.876	31281.02
597.072	31043.45
597.269	31250.3
597.466	31211.39
597.662	30971.77
597.859	31172.47
598.055	31018.88
598.252	31070.08
598.448	30719.87
598.645	30525.32
598.841	30480.26
599.038	30463.88
599.234	30297.99
599.431	30302.09
599.627	30154.63
599.824	30490.5
600.02	29718.42
600.217	29876.11
600.413	30003.08
600.609	29294.49
600.806	29751.18
601.002	29998.99
601.198	29085.59
601.395	29237.14
601.591	29357.97
601.787	29167.51
601.984	29110.17
602.18	29257.62
602.376	29304.73
602.572	28528.55
602.769	28676
602.965	28469.15
603.161	28387.24
603.357	28571.55
603.553	28399.52
603.75	28452.77
603.946	28229.54
604.142	27989.93
604.338	28000.17
604.534	28151.72
604.73	27785.13
604.926	27731.89
605.122	28077.99
605.318	27703.21
605.514	27430.83
605.71	27412.4
605.906	27320.24
606.102	27711.41
606.298	27723.69
606.494	27336.63
606.69	26857.4
606.886	27101.11
607.082	26890.17
607.278	27117.5
607.474	26666.94
607.67	26709.95
607.866	26515.39
608.062	26724.29
608.257	26859.45
608.453	26785.72
608.649	26769.34
608.845	26636.22
609.041	26722.24
609.236	26542.02
609.432	26456
609.628	26224.58
609.824	25909.19
610.019	26402.75
610.215	26132.42
610.411	26169.29
610.606	25782.22
610.802	25843.66
610.998	25995.21
611.193	26064.84
611.389	25749.45
611.584	25495.5
611.78	25448.4
611.976	25724.88
612.171	25860.04
612.367	25817.04
612.562	25460.69
612.758	24973.27
612.953	25001.94
613.149	25575.38
613.344	24930.26
613.539	25429.97
613.735	25173.97
613.93	25493.46
614.126	25034.71
614.321	25284.56
614.517	24844.25
614.712	25145.3
614.907	24958.94
615.103	24840.15
615.298	24950.74
615.493	24956.89
615.688	24625.12
615.884	25030.62
616.079	24461.28
616.274	24608.73
616.47	24631.26
616.665	24686.56
616.86	24436.7
617.055	24412.13
617.25	24248.29
617.445	24319.97
617.641	24020.97
617.836	24410.08
618.031	23928.81
618.226	24336.35
618.421	23832.55
618.616	24170.47
618.811	23816.17
619.006	23773.16
619.201	23185.4
619.396	23707.63
619.591	23338.99
619.786	23889.9
619.981	22978.55
620.176	23408.62
620.371	23226.35
620.566	23330.8
620.761	22763.51
620.956	22919.16
621.151	22462.46
621.346	22603.77
621.541	22405.12
621.735	22405.12
621.93	22155.27
622.125	22089.73
622.32	21778.44
622.515	21936.13
622.709	21815.3
622.904	21663.75
623.099	21680.14
623.294	21538.83
623.488	21415.95
623.683	21647.37
623.878	21303.31
624.072	21051.41
624.267	21170.19
624.462	21075.99
624.656	20807.7
624.851	20738.07
625.046	20670.49
625.24	20555.8
625.435	20303.9
625.629	20385.82
625.824	20385.82
626.018	20334.62
626.213	19796.01
626.407	19949.6
626.602	19671.08
626.796	19939.37
626.991	19626.03
627.185	19634.22
627.38	19269.68
627.574	19488.81
627.768	18843.7
627.963	19021.88
628.157	19071.03
628.352	18860.09
628.546	18477.12
628.74	18561.08
628.935	18643
629.129	18513.98
629.323	18133.06
629.517	18243.65
629.712	18151.49
629.906	17946.69
630.1	17838.15
630.294	18090.05
630.489	17893.44
630.683	17811.53
630.877	17352.78
631.071	17477.71
631.265	17387.6
631.459	17154.13
631.653	17242.19
631.848	17059.92
632.042	17016.91
632.236	17170.51
632.43	16898.13
632.624	17162.32
632.818	16746.58
633.012	16511.07
633.206	16724.05
633.4	16500.83
633.594	16607.32
633.788	16285.79
633.982	16425.05
634.176	16142.43
634.369	16083.04
634.563	16207.97
634.757	15829.09
634.951	16173.15
635.145	16023.65
635.339	15898.72
635.533	15495.27
635.726	15542.38
635.92	15399.02
636.114	15405.16
636.308	15282.28
636.501	15202.41
636.695	15487.08
636.889	15075.44
637.083	14786.68
637.276	14938.23
637.47	14946.42
637.664	14692.47
637.857	14678.13
638.051	14534.78
638.244	14618.74
638.438	14653.56
638.632	14721.14
638.825	14235.77
639.019	14098.56
639.212	14162.05
639.406	14084.22
639.599	13924.48
639.793	14166.14
639.986	14022.78
640.18	14166.14
640.373	13811.84
640.567	13613.19
640.76	13529.22
640.954	13295.75
641.147	13523.08
641.34	13074.57
641.534	13320.33
641.727	13303.95
641.92	13025.42
642.114	13084.81
642.307	13050
642.5	13004.94
642.694	12886.16
642.887	12634.26
643.08	12916.88
643.273	12710.04
643.467	12720.28
643.66	12599.45
643.853	12351.64
644.046	12486.81
644.239	12484.76
644.432	12300.44
644.626	12279.96
644.819	12095.64
645.012	12058.78
645.205	12189.85
645.398	11999.39
645.591	11933.86
645.784	11917.47
645.977	11821.22
646.17	11778.21
646.363	11573.41
646.556	11514.02
646.749	11552.93
646.942	11436.2
647.135	11415.72
647.328	11237.55
647.521	11411.62
647.714	11239.59
647.907	11129
648.099	11010.22
648.292	11169.96
648.485	11186.35
648.678	10840.24
648.871	10897.58
649.064	10987.69
649.256	10809.52
649.449	10913.97
649.642	10641.59
649.835	10649.78
650.027	10791.09
650.22	10608.82
650.413	10614.96
650.605	10453.17
650.798	10373.3
650.991	10287.29
651.183	10334.39
651.376	10195.13
651.568	10211.51
651.761	10094.78
651.954	10244.28
652.146	9937.09
652.339	10125.5
652.531	9894.08
652.724	9728.19
652.916	9806.02
653.109	9701.57
653.301	9713.86
653.494	9795.78
653.686	9521.35
653.879	9785.54
654.071	9670.85
654.263	9461.96
654.456	9314.5
654.648	9578.69
654.84	9294.02
655.033	9406.66
655.225	9240.78
655.417	9101.51
655.61	9265.35
655.802	9109.71
655.994	9091.27
656.186	9009.36
656.379	9005.26
656.571	8866
656.763	8947.92
656.955	8872.14
657.148	8857.81
657.34	8882.38
657.532	8718.54
657.724	8601.81
657.916	8681.68
658.108	8716.5
658.3	8556.75
658.492	8642.77
658.684	8413.4
658.876	8464.6
659.068	8339.67
659.26	8347.86
659.452	8278.23
659.644	8284.37
659.836	8132.83
660.028	8159.45
660.22	8175.83
660.412	8210.65
660.604	7837.92
660.796	7796.96
660.988	8046.81
661.18	7934.17
661.372	7905.5
661.563	7950.56
661.755	7825.63
661.947	7952.6
662.139	7995.61
662.331	7719.14
662.522	7624.93
662.714	7620.83
662.906	7487.72
663.097	7520.48
663.289	7454.95
663.481	7567.59
663.673	7559.39
663.864	7481.57
664.056	7418.08
664.247	7244.01
664.439	7416.04
664.631	7526.63
664.822	7264.49
665.014	7172.33
665.205	7135.46
665.397	7131.37
665.588	7074.03
665.78	7174.38
665.971	7082.22
666.163	7149.8
666.354	7069.93
666.546	7080.17
666.737	7033.07
666.929	7086.31
667.12	7061.74
667.311	6916.33
667.503	6750.45
667.694	6740.21
667.885	6926.57
668.077	6732.01
668.268	6742.25
668.459	6783.21
668.651	6691.06
668.842	6635.76
669.033	6742.25
669.224	6652.14
669.416	6635.76
669.607	6547.7
669.798	6525.17
669.989	6684.91
670.18	6578.42
670.371	6465.78
670.563	6412.53
670.754	6547.7
670.945	6303.99
671.136	6426.87
671.327	6476.02
671.518	6250.74
671.709	6371.57
671.9	6334.71
672.091	6275.32
672.282	6312.18
672.473	6187.25
672.664	6322.42
672.855	6172.92
673.046	6226.17
673.237	6398.2
673.428	6347
673.619	6195.45
673.809	6070.52
674	6242.55
674.191	6158.58
674.382	6144.25
674.573	6052.09
674.764	5996.79
674.954	6189.3
675.145	6107.38
675.336	6097.14
675.527	6062.33
675.717	6144.25
675.908	6041.85
676.099	6047.99
676.289	6168.82
676.48	5884.16
676.671	5925.11
676.861	6007.03
677.052	6076.66
677.243	6011.13
677.433	5908.73
677.624	6095.1
677.814	5941.5
678.005	5918.97
678.195	6050.04
678.386	5882.11
678.576	5978.36
678.767	5904.64
678.957	5744.89
679.148	5894.4
679.338	5933.31
679.529	5746.94
679.719	5886.2
679.909	5896.44
680.1	5759.23
680.29	5902.59
680.481	5941.5
680.671	5892.35
680.861	6017.27
681.052	5914.88
681.242	5757.18
681.432	5918.97
681.622	5812.48
681.813	5812.48
682.003	5728.51
682.193	5925.11
682.383	5785.85
682.573	5701.89
682.764	5824.76
682.954	5705.98
683.144	5734.65
683.334	5662.97
683.524	5720.32
683.714	5638.4
683.904	5665.02
684.094	5757.18
684.284	5691.65
684.474	5775.61
684.664	5605.63
684.854	5632.26
685.044	5751.04
685.234	5556.48
685.424	5732.61
685.614	5507.33
685.804	5531.9
685.994	5484.8
686.184	5441.79
686.374	5441.79
686.564	5515.52
686.753	5284.1
686.943	5431.55
687.133	5595.39
687.323	5300.48
687.513	5382.4
687.702	5419.27
687.892	5275.91
688.082	5441.79
688.272	5361.92
688.461	5312.77
688.651	5239.05
688.841	5103.88
689.03	5224.71
689.22	5120.26
689.41	5087.5
689.599	5099.78
689.789	5120.26
689.979	5040.39
690.168	4976.91
690.358	5003.53
690.547	4972.81
690.737	5028.1
690.926	4894.99
691.116	4825.36
691.305	4937.99
691.495	4686.09
691.684	4866.32
691.874	4690.19
692.063	4768.01
692.252	4643.09
692.442	4751.63
692.631	4622.61
692.82	4645.13
693.01	4485.39
693.199	4710.67
693.388	4536.59
693.578	4534.54
693.767	4649.23
693.956	4479.25
694.146	4374.8
694.335	4450.58
694.524	4329.75
694.713	4475.15
694.902	4380.95
695.092	4522.26
695.281	4276.5
695.47	4389.14
695.659	4417.81
695.848	4290.84
696.037	4237.59
696.226	4360.47
696.415	4202.77
696.604	4100.37
696.793	4284.69
696.982	4313.36
697.171	4190.49
697.36	4198.68
697.549	4030.74
697.738	4081.94
697.927	4063.51
698.116	4198.68
698.305	4106.52
698.494	4241.68
698.683	4131.09
698.872	4157.72
699.061	4090.13
699.25	4120.85
699.438	4133.14
699.627	4145.43
699.816	4020.5
700.005	3991.83
700.193	3909.91
700.382	4090.13
700.571	4075.8
700.76	4096.28
700.948	4083.99
701.137	3942.68
701.326	3942.68
701.514	3834.14
701.703	3854.62
701.892	3875.1
702.08	4016.41
702.269	3868.95
702.457	3852.57
702.646	3811.61
702.834	3891.48
703.023	3784.99
703.212	3934.49
703.4	3817.76
703.589	3887.39
703.777	3842.33
703.965	3893.53
704.154	3959.06
704.342	3942.68
704.531	3916.06
704.719	3819.8
704.907	3866.91
705.096	3809.56
705.284	3854.62
705.472	3817.76
705.661	4014.36
705.849	3895.58
706.037	3995.93
706.226	3936.54
706.414	3965.21
706.602	3911.96
706.79	3871
706.979	3762.46
707.167	3832.09
707.355	3825.95
707.543	3946.78
707.731	3993.88
707.919	3819.8
708.107	3981.59
708.296	3797.28
708.484	3891.48
708.672	3817.76
708.86	3946.78
709.048	3950.87
709.236	3920.15
709.424	3901.72
709.612	3922.2
709.8	3711.26
709.988	4004.12
710.176	3946.78
710.364	3967.26
710.551	3916.06
710.739	3883.29
710.927	3868.95
711.115	3832.09
711.303	4006.17
711.491	3918.11
711.679	3897.63
711.866	4024.6
712.054	3817.76
712.242	3957.02
712.43	3967.26
712.617	3887.39
712.805	4047.13
712.993	3791.13
713.181	3948.83
713.368	3932.44
713.556	4067.61
713.744	4000.02
713.931	3989.78
714.119	3916.06
714.306	3959.06
714.494	3961.11
714.682	3836.19
714.869	3787.04
715.057	3977.5
715.244	3987.74
715.432	4024.6
715.619	3959.06
715.807	4065.56
715.994	4092.18
716.182	3952.92
716.369	4129.05
716.556	4036.89
716.744	4120.85
716.931	4092.18
717.119	4172.05
717.306	4139.29
717.493	3866.91
717.681	4022.55
717.868	4032.79
718.055	4051.22
718.242	3944.73
718.43	4174.1
718.617	4079.9
718.804	4000.02
718.991	4014.36
719.179	4063.51
719.366	4057.37
719.553	4172.05
719.74	4083.99
719.927	4157.72
720.114	4094.23
720.301	4071.7
720.488	3993.88
720.676	4180.25
720.863	4221.2
721.05	4063.51
721.237	4245.78
721.424	4186.39
721.611	4129.05
721.798	4290.84
721.985	4106.52
722.172	4247.83
722.358	4133.14
722.545	4198.68
722.732	4114.71
722.919	4219.16
723.106	4301.08
723.293	4172.05
723.48	4139.29
723.667	4104.47
723.853	4237.59
724.04	4229.4
724.227	4210.97
724.414	4124.95
724.6	4270.36
724.787	4276.5
724.974	4217.11
725.161	4196.63
725.347	4215.06
725.534	4049.18
725.72	4284.69
725.907	4229.4
726.094	4301.08
726.28	4221.2
726.467	4268.31
726.653	4364.56
726.84	4071.7
727.027	4307.22
727.213	4184.34
727.4	4313.36
727.586	4288.79
727.773	4358.42
727.959	4305.17
728.145	4290.84
728.332	4229.4
728.518	4313.36
728.705	4350.23
728.891	4327.7
729.077	4321.56
729.264	4258.07
729.45	4311.32
729.636	4643.09
729.823	4278.55
730.009	4317.46
730.195	4497.68
730.382	4469.01
730.568	4413.71
730.754	4419.86
730.94	4395.28
731.126	4393.23
731.313	4333.84
731.499	4368.66
731.685	4430.1
731.871	4339.99
732.057	4372.75
732.243	4464.91
732.429	4382.99
732.615	4366.61
732.801	4360.47
732.987	4266.26
733.173	4163.86
733.359	4260.12
733.545	4333.84
733.731	4260.12
733.917	4137.24
734.103	4464.91
734.289	4485.39
734.475	4327.7
734.661	4403.47
734.847	4364.56
735.033	4417.81
735.219	4436.24
735.404	4370.71
735.59	4272.4
735.776	4284.69
735.962	4370.71
736.148	4329.75
736.333	4460.82
736.519	4325.65
736.705	4241.68
736.89	4387.09
737.076	4399.38
737.262	4292.88
737.447	4331.8
737.633	4170.01
737.819	4301.08
738.004	4278.55
738.19	4231.44
738.375	4366.61
738.561	4305.17
738.747	4299.03
738.932	4247.83
739.118	4407.57
739.303	4184.34
739.489	4202.77
739.674	4270.36
739.859	4399.38
740.045	4440.34
740.23	4174.1
740.416	4141.33
740.601	4213.01
740.786	4292.88
740.972	4051.22
741.157	4202.77
741.342	4133.14
741.528	4235.54
741.713	4133.14
741.898	4096.28
742.084	4049.18
742.269	4061.46
742.454	3997.98
742.639	3993.88
742.824	4092.18
743.01	4170.01
743.195	4153.62
743.38	4114.71
743.565	3948.83
743.75	4129.05
743.935	3981.59
744.12	4118.81
744.305	3873.05
744.49	3944.73
744.675	3909.91
744.86	3854.62
745.045	4143.38
745.23	4002.07
745.415	3856.67
745.6	3852.57
745.785	3793.18
745.97	3836.19
746.155	3729.69
746.34	3877.15
746.525	3707.16
746.71	3787.04
746.895	3774.75
747.079	3770.65
747.264	3617.05
747.449	3787.04
747.634	3549.47
747.819	3639.58
748.003	3539.23
748.188	3543.33
748.373	3457.31
748.557	3418.4
748.742	3485.98
748.927	3365.15
749.111	3385.63
749.296	3418.4
749.481	3346.72
749.665	3293.48
749.85	3320.1
750.034	3361.06
750.219	3344.67
750.404	3244.32
750.588	3186.98
750.773	3221.8
750.957	3240.23
751.141	3082.53
751.326	3203.36
751.51	3205.41
751.695	3141.93
751.879	3078.44
752.064	3082.53
752.248	3127.59
752.432	3047.72
752.617	3115.3
752.801	2951.46
752.985	3066.15
753.17	3027.24
753.354	2900.27
753.538	3031.34
753.722	2916.65
753.907	2990.38
754.091	2877.74
754.275	2922.79
754.459	2904.36
754.643	2799.91
754.828	2890.03
755.012	2754.86
755.196	2748.72
755.38	2701.61
755.564	2662.7
755.748	2742.57
755.932	2662.7
756.116	2572.59
756.3	2656.56
756.484	2627.89
756.668	2720.04
756.852	2533.68
757.036	2527.53
757.22	2474.29
757.404	2580.78
757.588	2543.92
757.772	2572.59
757.956	2447.66
758.14	2560.3
758.323	2445.62
758.507	2431.28
758.691	2390.32
758.875	2441.52
759.059	2412.85
759.242	2232.63
759.426	2353.46
759.61	2359.6
759.794	2326.83
759.977	2328.88
760.161	2384.18
760.345	2386.22
760.528	2365.75
760.712	2183.48
760.895	2199.86
761.079	2197.81
761.263	2275.63
761.446	2201.91
761.63	2195.76
761.813	2281.78
761.997	2119.99
762.18	2113.85
762.364	2140.47
762.547	2138.42
762.731	2093.37
762.914	2036.02
763.098	2072.89
763.281	2058.55
763.464	2064.69
763.648	2064.69
763.831	1952.06
764.015	2195.76
764.198	1941.82
764.381	2132.28
764.564	2005.3
764.748	2107.7
764.931	2072.89
765.114	1847.61
765.297	1962.3
765.481	1939.77
765.664	1990.97
765.847	1947.96
766.03	1933.62
766.213	1827.13
766.397	1845.56
766.58	1827.13
766.763	1958.2
766.946	1843.51
767.129	1853.75
767.312	1769.79
767.495	1937.72
767.678	1765.69
767.861	1890.62
768.044	1812.79
768.227	1861.94
768.41	1900.86
768.593	1796.41
768.776	1855.8
768.959	1782.07
769.142	1837.37
769.324	1798.46
769.507	1747.26
769.69	1730.87
769.873	1640.76
770.056	1757.5
770.239	1687.87
770.421	1792.31
770.604	1573.18
770.787	1675.58
770.97	1724.73
771.152	1528.13
771.335	1673.53
771.518	1694.01
771.7	1599.8
771.883	1679.68
772.066	1569.09
772.248	1601.85
772.431	1548.61
772.613	1612.09
772.796	1655.1
772.978	1626.43
773.161	1485.12
773.343	1554.75
773.526	1610.04
773.708	1532.22
773.891	1407.3
774.073	1524.03
774.256	1524.03
774.438	1583.42
774.621	1327.43
774.803	1427.78
774.985	1354.05
775.168	1403.2
775.35	1302.85
775.532	1456.45
775.715	1341.76
775.897	1298.75
776.079	1343.81
776.261	1339.71
776.444	1282.37
776.626	1329.47
776.808	1395.01
776.99	1343.81
777.173	1286.47
777.355	1276.23
777.537	1255.75
777.719	1335.62
777.901	1347.9
778.083	1349.95
778.265	1192.26
778.447	1343.81
778.629	1218.88
778.811	1239.36
778.993	1259.84
779.175	1192.26
779.357	1114.44
779.539	1073.48
779.721	1198.4
779.903	1216.83
780.085	1143.11
780.267	1171.78
780.449	1112.39
780.631	1128.77
780.812	1206.59
780.994	1012.04
781.176	1050.95
781.358	985.41
781.54	1022.28
781.721	1071.43
781.903	1069.38
782.085	1098.05
782.267	1046.85
782.448	991.56
782.63	1014.09
782.812	979.27
782.993	1032.52
783.175	1134.92
783.357	876.87
783.538	930.12
783.72	915.78
783.901	1007.94
784.083	969.03
784.264	868.68
784.446	817.48
784.627	952.65
784.809	991.56
784.99	915.78
785.172	979.27
785.353	872.78
785.535	876.87
785.716	880.97
785.897	870.73
786.079	923.98
786.26	891.21
786.441	766.28
786.623	710.99
786.804	641.36
786.985	797
787.167	721.23
787.348	817.48
787.529	946.5
787.71	854.34
787.891	731.47
788.073	737.61
788.254	778.57
788.435	817.48
788.616	696.65
788.797	618.83
788.978	766.28
789.159	688.46
789.34	751.95
789.522	686.41
789.703	829.77
789.884	692.55
790.065	704.84
790.246	807.24
790.427	667.98
790.607	782.67
790.788	657.74
790.969	653.64
791.15	667.98
791.331	670.03
791.512	641.36
791.693	672.08
791.874	635.21
792.054	751.95
792.235	696.65
792.416	670.03
792.597	590.16
792.778	528.72
792.958	692.55
793.139	618.83
793.32	600.4
793.5	620.88
793.681	674.12
793.862	618.83
794.042	567.63
794.223	641.36
794.404	553.29
794.584	606.54
794.765	526.67
794.945	532.81
795.126	555.34
795.306	635.21
795.487	536.91
795.667	526.67
795.848	491.85
796.028	530.77
796.209	608.59
796.389	541.01
796.57	571.72
796.75	569.68
796.93	647.5
797.111	473.42
797.291	465.23
797.471	481.61
797.652	483.66
797.832	432.46
798.012	520.53
798.192	422.22
798.373	387.41
798.553	590.16
798.733	524.62
798.913	436.56
799.093	459.09
799.274	491.85
799.454	516.43
799.634	473.42
799.814	506.19
799.994	534.86
800.174	543.05
800.354	547.15
800.534	475.47
800.714	624.97
800.894	387.41
801.074	395.6
801.254	483.66
801.434	528.72
801.614	477.52
801.794	411.98
801.974	1331.52
802.154	387.41
802.334	524.62
802.514	321.87
802.693	401.74
802.873	434.51
803.053	442.7
803.233	379.22
803.413	385.36
803.592	397.65
803.772	420.17
803.952	422.22
804.131	436.56
804.311	397.65
804.491	502.09
804.67	393.55
804.85	364.88
805.03	436.56
805.209	409.94
805.389	395.6
805.568	358.74
805.748	375.12
805.928	348.5
806.107	416.08
806.287	387.41
806.466	407.89
806.646	366.93
806.825	295.25
807.004	463.18
807.184	328.02
807.363	436.56
807.543	328.02
807.722	328.02
807.901	469.33
808.081	399.7
808.26	272.72
808.439	293.2
808.619	287.06
808.798	278.87
808.977	254.29
809.156	442.7
809.336	313.68
809.515	328.02
809.694	362.83
809.873	313.68
810.052	362.83
810.231	254.29
810.411	287.06
810.59	340.3
810.769	358.74
810.948	375.12
811.127	256.34
811.306	313.68
811.485	321.87
811.664	332.11
811.843	323.92
812.022	270.67
812.201	307.54
812.38	295.25
812.559	278.87
812.737	381.26
812.916	217.43
813.095	237.91
813.274	264.53
813.453	375.12
813.632	274.77
813.811	285.01
813.989	233.81
814.168	319.82
814.347	237.91
814.526	287.06
814.704	373.07
814.883	239.95
815.062	237.91
815.24	278.87
815.419	307.54
815.598	262.48
815.776	225.62
815.955	176.47
816.133	170.32
816.312	272.72
816.49	211.28
816.669	364.88
816.847	266.58
817.026	223.57
817.204	305.49
817.383	270.67
817.561	254.29
817.74	278.87
817.918	303.44
818.097	274.77
818.275	213.33
818.453	278.87
818.632	328.02
818.81	260.43
818.988	168.27
819.167	205.14
819.345	274.77
819.523	217.43
819.701	184.66
819.879	256.34
820.058	198.99
820.236	194.9
820.414	239.95
820.592	217.43
820.77	276.82
820.948	186.71
821.127	227.67
821.305	229.71
821.483	182.61
821.661	242
821.839	221.52
822.017	201.04
822.195	180.56
822.373	147.8
822.551	205.14
822.729	170.32
822.907	168.27
823.085	166.23
823.262	221.52
823.44	192.85
823.618	155.99
823.796	123.22
823.974	178.51
824.152	223.57
824.329	127.32
824.507	233.81
824.685	137.56
824.863	213.33
825.04	190.8
825.218	239.95
825.396	172.37
825.574	147.8
825.751	182.61
825.929	211.28
826.107	205.14
826.284	235.86
826.462	219.47
826.639	147.8
826.817	143.7
826.994	198.99
827.172	192.85
827.349	317.78
827.527	155.99
827.704	158.03
827.882	231.76
828.059	188.75
828.237	192.85
828.414	131.41
828.591	143.7
828.769	174.42
828.946	147.8
829.124	174.42
829.301	196.95
829.478	170.32
829.655	176.47
829.833	158.03
830.01	117.08
830.187	151.89
830.364	131.41
830.542	96.6
830.719	227.67
830.896	262.48
831.073	119.12
831.25	110.93
831.427	139.6
831.604	190.8
831.782	131.41
831.959	80.21
832.136	190.8
832.313	205.14
832.49	125.27
832.667	201.04
832.844	102.74
833.021	194.9
833.198	129.36
833.374	117.08
833.551	123.22
833.728	112.98
833.905	135.51
834.082	94.55
834.259	80.21
834.436	155.99
834.612	158.03
834.789	180.56
834.966	110.93
835.143	160.08
835.319	98.64
835.496	258.39
835.673	198.99
835.85	192.85
836.026	176.47
836.203	237.91
836.38	74.07
836.556	131.41
836.733	67.92
836.909	252.24
837.086	96.6
837.262	110.93
837.439	143.7
837.616	69.97
837.792	76.12
837.968	94.55
838.145	16.73
838.321	119.12
838.498	94.55
838.674	102.74
838.851	207.19
839.027	69.97
839.203	86.36
839.38	112.98
839.556	108.88
839.732	184.66
839.909	90.45
840.085	207.19
840.261	129.36
840.437	76.12
840.614	90.45
840.79	147.8
840.966	72.02
841.142	61.78
841.318	90.45
841.494	82.26
841.671	84.31
841.847	51.54
842.023	63.83
842.199	221.52
842.375	213.33
842.551	51.54
842.727	84.31
842.903	180.56
843.079	80.21
843.255	153.94
843.431	98.64
843.607	96.6
843.783	-24.23
843.959	55.64
844.134	16.73
844.31	188.75
844.486	49.49
844.662	76.12
844.838	86.36
845.013	102.74
845.189	115.03
845.365	49.49
845.541	137.56
845.716	123.22
845.892	4.44
846.068	53.59
846.244	35.16
846.419	110.93
846.595	29.01
846.77	26.96
846.946	131.41
847.122	51.54
847.297	14.68
847.473	63.83
847.648	41.3
847.824	67.92
847.999	-7.85
848.175	24.92
848.35	24.92
848.526	110.93
848.701	106.84
848.876	139.6
849.052	145.75
849.227	92.5
849.403	41.3
849.578	102.74
849.753	74.07
849.929	162.13
850.104	-22.19
850.279	39.25
850.454	39.25
850.63	47.44
850.805	61.78
850.98	131.41
851.155	31.06
851.33	106.84
851.505	-11.95
851.681	172.37
851.856	-7.85
852.031	131.41
852.206	57.68
852.381	55.64
852.556	20.82
852.731	29.01
852.906	61.78
853.081	-11.95
853.256	96.6
853.431	59.73
853.606	43.35
853.781	-38.57
853.956	-11.95
854.131	51.54
854.305	41.3
854.48	94.55
854.655	6.49
854.83	37.2
855.005	57.68
855.18	35.16
855.354	12.63
855.529	18.77
855.704	55.64
855.879	102.74
856.053	96.6
856.228	74.07
856.403	35.16
856.577	88.4
856.752	49.49
856.926	16.73
857.101	18.77
857.276	35.16
857.45	65.88
857.625	29.01
857.799	-5.8
857.974	67.92
858.148	0.34
858.323	41.3
858.497	-22.19
858.672	29.01
858.846	51.54
859.02	98.64
859.195	0.34
859.369	24.92
859.543	35.16
859.718	26.96
859.892	57.68
860.066	90.45
860.241	35.16
860.415	0.34
860.589	41.3
860.763	51.54
860.938	57.68
861.112	22.87
861.286	16.73
861.46	29.01
861.634	-106.15
861.808	14.68
861.982	100.69
862.157	-48.81
862.331	0.34
862.505	2.39
862.679	57.68
862.853	33.11
863.027	39.25
863.201	61.78
863.375	16.73
863.549	45.4
863.722	14.68
863.896	47.44
864.07	4.44
864.244	0.34
864.418	135.51
864.592	41.3
864.766	82.26
864.939	106.84
865.113	-7.85
865.287	61.78
865.461	76.12
865.634	26.96
865.808	6.49
865.982	-28.33
866.156	-18.09
866.329	-5.8
866.503	57.68
866.676	37.2
866.85	65.88
867.024	10.58
867.197	59.73
867.371	115.03
867.544	82.26
867.718	6.49
867.891	94.55
868.065	-13.99
868.238	-18.09
868.412	49.49
868.585	-5.8
868.759	-9.9
868.932	-20.14
869.105	-40.62
869.279	-5.8
869.452	10.58
869.625	0.34
869.799	35.16
869.972	39.25
870.145	0.34
870.319	76.12
870.492	24.92
870.665	-3.75
870.838	53.59
871.011	-5.8
871.185	-13.99
871.358	33.11
871.531	35.16
871.704	-77.48
871.877	74.07
872.05	-26.28
872.223	-13.99
872.396	47.44
872.569	100.69
872.742	-3.75
872.915	47.44
873.088	-61.1
873.261	18.77
873.434	92.5
873.607	18.77
873.78	18.77
873.953	-87.72
874.126	74.07
874.299	37.2
874.471	-40.62
874.644	33.11
874.817	10.58
874.99	72.02
875.163	53.59
875.335	-32.43
875.508	63.83
875.681	131.41
875.853	39.25
876.026	0.34
876.199	47.44
876.371	67.92
876.544	35.16
876.717	115.03
876.889	4.44
877.062	-20.14
877.234	12.63
877.407	-16.04
877.579	-1.71
877.752	76.12
877.924	33.11
878.097	63.83
878.269	-54.95
878.442	61.78
878.614	20.82
878.786	8.53
878.959	57.68
879.131	-34.47
879.303	-9.9
879.476	-1.71
879.648	37.2
879.82	47.44
879.993	-9.9
880.165	-1.71
880.337	-54.95
880.509	16.73
880.681	4.44
880.854	72.02
881.026	-11.95
881.198	104.79
881.37	-3.75
881.542	16.73
881.714	43.35
881.886	-3.75
882.058	16.73
882.23	-5.8
882.402	26.96
882.574	-3.75
882.746	98.64
882.918	37.2
883.09	84.31
883.262	90.45
883.434	6.49
883.606	24.92
883.778	39.25
883.95	6.49
884.122	45.4
884.293	-20.14
884.465	33.11
884.637	12.63
884.809	49.49
884.98	-3.75
885.152	43.35
885.324	117.08
885.496	20.82
885.667	16.73
885.839	53.59
886.011	41.3
886.182	51.54
886.354	67.92
886.525	37.2
886.697	24.92
886.869	-40.62
887.04	-16.04
887.212	37.2
887.383	67.92
887.555	74.07
887.726	2.39
887.897	-81.58
888.069	82.26
888.24	20.82
888.412	53.59
888.583	26.96
888.754	-52.91
888.926	-54.95
889.097	26.96
889.268	-11.95
889.44	55.64
889.611	-54.95
889.782	-32.43
889.953	-24.23
890.125	55.64
890.296	-30.38
890.467	24.92
890.638	-48.81
890.809	86.36
890.98	-65.19
891.151	135.51
891.323	76.12
891.494	65.88
891.665	59.73
891.836	-7.85
892.007	-40.62
892.178	8.53
892.349	41.3
892.52	20.82
892.691	76.12
892.862	14.68
893.032	-28.33
893.203	-13.99
893.374	-13.99
893.545	51.54
893.716	55.64
893.887	35.16
894.057	-36.52
894.228	2.39
894.399	20.82
894.57	-26.28
894.74	-20.14
894.911	-18.09
895.082	-28.33
895.253	98.64
895.423	-9.9
895.594	49.49
895.764	26.96
895.935	-48.81
896.106	-24.23
896.276	-57
896.447	-61.1
896.617	-38.57
896.788	-9.9
896.958	-61.1
897.129	-67.24
897.299	49.49
897.47	26.96
897.64	106.84
897.81	49.49
897.981	37.2
898.151	2.39
898.322	-63.15
898.492	-20.14
898.662	18.77
898.832	10.58
899.003	63.83
899.173	41.3
899.343	-52.91
899.513	18.77
