Data from USB4F104151__87__13-06-20-237.txt Node

Date: Fri Mar 14 13:06:20 EDT 2025
User: louis
Spectrometer: USB4F10415
Trigger mode: 4
Integration Time (sec): 4.000000E-2
Scans to average: 1
Electric dark correction enabled: true
Nonlinearity correction enabled: false
Boxcar width: 0
XAxis mode: Wavelengths
Number of Pixels in Spectrum: 3648
>>>>>Begin Spectral Data<<<<<
178.204	-236.03
178.424	-236.03
178.644	-236.03
178.864	-154.11
179.084	-168.45
179.304	9.73
179.524	44.54
179.744	-20.99
179.964	-4.61
180.184	17.92
180.404	-6.66
180.624	54.78
180.844	52.74
181.064	11.78
181.283	-25.09
181.503	-129.53
181.723	-4.61
181.943	-64
182.163	65.02
182.383	67.07
182.602	99.84
182.822	116.22
183.042	58.88
183.262	-37.38
183.482	30.21
183.701	67.07
183.921	81.41
184.141	38.4
184.361	42.5
184.58	95.74
184.8	71.17
185.02	60.93
185.239	69.12
185.459	3.58
185.679	83.45
185.898	17.92
186.118	79.36
186.338	-39.42
186.557	87.55
186.777	32.26
186.997	30.21
187.216	-6.66
187.436	142.85
187.655	83.45
187.875	89.6
188.095	67.07
188.314	60.93
188.534	105.98
188.753	5.63
188.973	44.54
189.192	69.12
189.412	44.54
189.631	75.26
189.851	116.22
190.07	83.45
190.29	-2.56
190.509	-29.18
190.729	-14.85
190.948	101.89
191.168	220.67
191.387	120.32
191.607	71.17
191.826	69.12
192.045	-39.42
192.265	116.22
192.484	32.26
192.704	67.07
192.923	24.06
193.142	198.14
193.362	28.16
193.581	144.89
193.8	101.89
194.02	77.31
194.239	65.02
194.458	93.69
194.678	-41.47
194.897	85.5
195.116	28.16
195.335	62.98
195.555	9.73
195.774	24.06
195.993	58.88
196.212	36.35
196.432	46.59
196.651	38.4
196.87	79.36
197.089	122.37
197.308	65.02
197.528	134.65
197.747	71.17
197.966	58.88
198.185	116.22
198.404	11.78
198.623	19.97
198.842	99.84
199.062	95.74
199.281	165.37
199.5	9.73
199.719	5.63
199.938	67.07
200.157	69.12
200.376	142.85
200.595	108.03
200.814	48.64
201.033	46.59
201.252	93.69
201.471	7.68
201.69	77.31
201.909	73.21
202.128	50.69
202.347	75.26
202.566	75.26
202.785	-27.14
203.004	5.63
203.223	140.8
203.442	91.65
203.661	-29.18
203.879	81.41
204.098	75.26
204.317	-6.66
204.536	26.11
204.755	40.45
204.974	73.21
205.193	-16.9
205.411	95.74
205.63	114.17
205.849	44.54
206.068	26.11
206.287	22.02
206.505	22.02
206.724	13.82
206.943	62.98
207.162	36.35
207.381	42.5
207.599	-6.66
207.818	28.16
208.037	-4.61
208.255	-53.76
208.474	32.26
208.693	103.93
208.911	-14.85
209.13	85.5
209.349	36.35
209.567	67.07
209.786	122.37
210.005	26.11
210.223	28.16
210.442	-35.33
210.661	58.88
210.879	46.59
211.098	122.37
211.316	108.03
211.535	77.31
211.753	9.73
211.972	79.36
212.191	-14.85
212.409	73.21
212.628	142.85
212.846	-0.51
213.065	110.08
213.283	50.69
213.502	32.26
213.72	36.35
213.938	77.31
214.157	26.11
214.375	46.59
214.594	-8.7
214.812	116.22
215.031	93.69
215.249	30.21
215.467	60.93
215.686	9.73
215.904	142.85
216.122	40.45
216.341	124.41
216.559	1.54
216.778	36.35
216.996	54.78
217.214	22.02
217.432	-43.52
217.651	-10.75
217.869	9.73
218.087	124.41
218.306	-20.99
218.524	105.98
218.742	1.54
218.96	42.5
219.179	-23.04
219.397	105.98
219.615	108.03
219.833	67.07
220.051	1.54
220.27	89.6
220.488	99.84
220.706	52.74
220.924	-27.14
221.142	36.35
221.36	52.74
221.578	17.92
221.796	118.27
222.015	81.41
222.233	22.02
222.451	118.27
222.669	-43.52
222.887	132.61
223.105	24.06
223.323	-16.9
223.541	58.88
223.759	44.54
223.977	67.07
224.195	95.74
224.413	58.88
224.631	87.55
224.849	9.73
225.067	167.42
225.285	71.17
225.503	-8.7
225.721	-35.33
225.939	-18.94
226.157	73.21
226.375	169.47
226.592	50.69
226.81	42.5
227.028	67.07
227.246	93.69
227.464	13.82
227.682	56.83
227.9	54.78
228.117	85.5
228.335	30.21
228.553	-6.66
228.771	112.13
228.989	105.98
229.206	46.59
229.424	52.74
229.642	67.07
229.86	62.98
230.077	40.45
230.295	32.26
230.513	110.08
230.731	69.12
230.948	56.83
231.166	44.54
231.384	-4.61
231.601	-25.09
231.819	148.99
232.037	-6.66
232.254	-4.61
232.472	136.7
232.689	-23.04
232.907	101.89
233.125	-57.86
233.342	-2.56
233.56	-4.61
233.777	19.97
233.995	42.5
234.213	81.41
234.43	15.87
234.648	85.5
234.865	5.63
235.083	103.93
235.3	-6.66
235.518	42.5
235.735	114.17
235.953	95.74
236.17	5.63
236.388	32.26
236.605	58.88
236.822	120.32
237.04	-35.33
237.257	83.45
237.475	44.54
237.692	105.98
237.909	40.45
238.127	42.5
238.344	83.45
238.562	28.16
238.779	52.74
238.996	28.16
239.214	58.88
239.431	50.69
239.648	93.69
239.865	91.65
240.083	83.45
240.3	-16.9
240.517	-23.04
240.735	46.59
240.952	85.5
241.169	67.07
241.386	44.54
241.603	-6.66
241.821	-33.28
242.038	124.41
242.255	26.11
242.472	5.63
242.689	126.46
242.907	132.61
243.124	77.31
243.341	50.69
243.558	69.12
243.775	13.82
243.992	-51.71
244.209	83.45
244.426	163.33
244.643	91.65
244.86	60.93
245.078	22.02
245.295	-4.61
245.512	-6.66
245.729	54.78
245.946	32.26
246.163	5.63
246.38	75.26
246.597	108.03
246.814	11.78
247.031	-14.85
247.248	26.11
247.464	89.6
247.681	75.26
247.898	116.22
248.115	-20.99
248.332	13.82
248.549	105.98
248.766	128.51
248.983	89.6
249.2	71.17
249.417	132.61
249.633	-25.09
249.85	60.93
250.067	46.59
250.284	112.13
250.501	134.65
250.717	34.3
250.934	-20.99
251.151	165.37
251.368	60.93
251.585	58.88
251.801	97.79
252.018	-2.56
252.235	108.03
252.451	-29.18
252.668	-2.56
252.885	116.22
253.102	97.79
253.318	-18.94
253.535	9.73
253.752	-0.51
253.968	54.78
254.185	26.11
254.401	-14.85
254.618	30.21
254.835	19.97
255.051	116.22
255.268	36.35
255.484	7.68
255.701	83.45
255.917	69.12
256.134	-23.04
256.351	34.3
256.567	-41.47
256.784	71.17
257	1.54
257.217	73.21
257.433	44.54
257.65	87.55
257.866	101.89
258.082	-37.38
258.299	30.21
258.515	24.06
258.732	40.45
258.948	-37.38
259.165	50.69
259.381	-16.9
259.597	85.5
259.814	9.73
260.03	42.5
260.246	13.82
260.463	105.98
260.679	99.84
260.895	48.64
261.112	151.04
261.328	83.45
261.544	36.35
261.761	79.36
261.977	1.54
262.193	-0.51
262.409	83.45
262.626	11.78
262.842	89.6
263.058	-31.23
263.274	110.08
263.49	19.97
263.707	34.3
263.923	99.84
264.139	71.17
264.355	-25.09
264.571	132.61
264.787	-16.9
265.004	81.41
265.22	77.31
265.436	28.16
265.652	-37.38
265.868	-39.42
266.084	9.73
266.3	44.54
266.516	-53.76
266.732	157.18
266.948	-2.56
267.164	95.74
267.38	42.5
267.596	95.74
267.812	202.24
268.028	-39.42
268.244	60.93
268.46	22.02
268.676	54.78
268.892	93.69
269.108	69.12
269.324	-0.51
269.54	30.21
269.756	40.45
269.972	1.54
270.188	28.16
270.403	1.54
270.619	34.3
270.835	85.5
271.051	-12.8
271.267	32.26
271.483	-45.57
271.698	60.93
271.914	-6.66
272.13	69.12
272.346	13.82
272.562	13.82
272.777	22.02
272.993	52.74
273.209	22.02
273.425	134.65
273.64	24.06
273.856	81.41
274.072	62.98
274.287	-31.23
274.503	132.61
274.719	60.93
274.934	62.98
275.15	62.98
275.366	30.21
275.581	-20.99
275.797	103.93
276.012	9.73
276.228	-12.8
276.444	56.83
276.659	79.36
276.875	1.54
277.09	-18.94
277.306	46.59
277.521	3.58
277.737	99.84
277.952	17.92
278.168	34.3
278.383	1.54
278.599	30.21
278.814	116.22
279.03	22.02
279.245	79.36
279.461	38.4
279.676	48.64
279.892	-0.51
280.107	-33.28
280.322	52.74
280.538	11.78
280.753	-29.18
280.969	91.65
281.184	-12.8
281.399	87.55
281.615	58.88
281.83	58.88
282.045	83.45
282.26	-33.28
282.476	-23.04
282.691	95.74
282.906	77.31
283.122	26.11
283.337	38.4
283.552	9.73
283.767	26.11
283.983	60.93
284.198	-31.23
284.413	69.12
284.628	-23.04
284.843	95.74
285.058	58.88
285.274	-14.85
285.489	60.93
285.704	17.92
285.919	-12.8
286.134	-16.9
286.349	97.79
286.564	83.45
286.779	108.03
286.995	56.83
287.21	58.88
287.425	75.26
287.64	36.35
287.855	71.17
288.07	-33.28
288.285	58.88
288.5	89.6
288.715	91.65
288.93	99.84
289.145	-29.18
289.36	124.41
289.575	3.58
289.79	87.55
290.004	54.78
290.219	144.89
290.434	44.54
290.649	26.11
290.864	108.03
291.079	17.92
291.294	34.3
291.509	32.26
291.724	112.13
291.938	38.4
292.153	24.06
292.368	-8.7
292.583	101.89
292.798	99.84
293.012	7.68
293.227	60.93
293.442	60.93
293.657	73.21
293.871	105.98
294.086	69.12
294.301	91.65
294.516	79.36
294.73	101.89
294.945	-12.8
295.16	44.54
295.374	52.74
295.589	69.12
295.804	-14.85
296.018	77.31
296.233	62.98
296.447	126.46
296.662	11.78
296.877	79.36
297.091	77.31
297.306	105.98
297.52	-35.33
297.735	19.97
297.949	19.97
298.164	87.55
298.378	48.64
298.593	5.63
298.807	48.64
299.022	101.89
299.236	114.17
299.451	48.64
299.665	50.69
299.88	103.93
300.094	28.16
300.309	116.22
300.523	54.78
300.737	56.83
300.952	1.54
301.166	89.6
301.381	87.55
301.595	17.92
301.809	-31.23
302.024	75.26
302.238	50.69
302.452	161.28
302.667	9.73
302.881	73.21
303.095	103.93
303.309	38.4
303.524	69.12
303.738	103.93
303.952	52.74
304.166	48.64
304.381	-45.57
304.595	112.13
304.809	17.92
305.023	3.58
305.237	-41.47
305.452	97.79
305.666	62.98
305.88	3.58
306.094	110.08
306.308	97.79
306.522	112.13
306.736	97.79
306.95	114.17
307.164	62.98
307.379	17.92
307.593	7.68
307.807	142.85
308.021	95.74
308.235	71.17
308.449	65.02
308.663	1.54
308.877	89.6
309.091	67.07
309.305	65.02
309.519	-33.28
309.733	124.41
309.947	19.97
310.161	81.41
310.374	103.93
310.588	87.55
310.802	19.97
311.016	140.8
311.23	75.26
311.444	9.73
311.658	17.92
311.872	118.27
312.085	71.17
312.299	69.12
312.513	120.32
312.727	97.79
312.941	32.26
313.154	22.02
313.368	110.08
313.582	67.07
313.796	22.02
314.009	95.74
314.223	89.6
314.437	1.54
314.651	95.74
314.864	9.73
315.078	58.88
315.292	-31.23
315.505	-10.75
315.719	110.08
315.933	110.08
316.146	60.93
316.36	-27.14
316.573	151.04
316.787	-2.56
317.001	56.83
317.214	28.16
317.428	34.3
317.641	-2.56
317.855	60.93
318.068	103.93
318.282	13.82
318.495	128.51
318.709	124.41
318.922	60.93
319.136	120.32
319.349	112.13
319.563	-29.18
319.776	17.92
319.99	65.02
320.203	132.61
320.417	19.97
320.63	52.74
320.843	-18.94
321.057	48.64
321.27	28.16
321.483	124.41
321.697	134.65
321.91	105.98
322.124	101.89
322.337	50.69
322.55	101.89
322.763	71.17
322.977	44.54
323.19	65.02
323.403	1.54
323.617	-20.99
323.83	83.45
324.043	77.31
324.256	99.84
324.469	-0.51
324.683	120.32
324.896	34.3
325.109	112.13
325.322	-23.04
325.535	89.6
325.748	50.69
325.962	71.17
326.175	65.02
326.388	69.12
326.601	95.74
326.814	11.78
327.027	144.89
327.24	132.61
327.453	71.17
327.666	99.84
327.879	161.28
328.092	101.89
328.305	50.69
328.518	-14.85
328.731	7.68
328.944	48.64
329.157	50.69
329.37	44.54
329.583	116.22
329.796	75.26
330.009	-35.33
330.222	103.93
330.435	95.74
330.648	83.45
330.861	85.5
331.073	83.45
331.286	124.41
331.499	42.5
331.712	67.07
331.925	42.5
332.138	75.26
332.35	105.98
332.563	87.55
332.776	60.93
332.989	42.5
333.202	77.31
333.414	77.31
333.627	32.26
333.84	24.06
334.053	103.93
334.265	-18.94
334.478	-8.7
334.691	40.45
334.903	52.74
335.116	58.88
335.329	124.41
335.541	73.21
335.754	157.18
335.966	67.07
336.179	75.26
336.392	-8.7
336.604	67.07
336.817	50.69
337.029	79.36
337.242	-20.99
337.454	58.88
337.667	1.54
337.88	155.13
338.092	38.4
338.305	138.75
338.517	17.92
338.729	26.11
338.942	101.89
339.154	11.78
339.367	-27.14
339.579	17.92
339.792	28.16
340.004	73.21
340.217	75.26
340.429	38.4
340.641	38.4
340.854	28.16
341.066	52.74
341.278	103.93
341.491	175.61
341.703	28.16
341.915	-12.8
342.128	11.78
342.34	130.56
342.552	-18.94
342.764	42.5
342.977	22.02
343.189	58.88
343.401	116.22
343.613	44.54
343.826	17.92
344.038	26.11
344.25	134.65
344.462	83.45
344.674	81.41
344.886	28.16
345.099	-8.7
345.311	108.03
345.523	99.84
345.735	-8.7
345.947	26.11
346.159	83.45
346.371	11.78
346.583	126.46
346.795	85.5
347.007	26.11
347.219	38.4
347.431	24.06
347.643	126.46
347.855	75.26
348.067	91.65
348.279	42.5
348.491	67.07
348.703	93.69
348.915	15.87
349.127	-27.14
349.339	62.98
349.551	87.55
349.763	101.89
349.975	79.36
350.187	69.12
350.399	79.36
350.61	99.84
350.822	11.78
351.034	101.89
351.246	75.26
351.458	110.08
351.669	79.36
351.881	91.65
352.093	65.02
352.305	138.75
352.517	116.22
352.728	87.55
352.94	30.21
353.152	52.74
353.363	1.54
353.575	130.56
353.787	167.42
353.999	50.69
354.21	103.93
354.422	42.5
354.633	79.36
354.845	71.17
355.057	48.64
355.268	62.98
355.48	67.07
355.692	-8.7
355.903	-23.04
356.115	116.22
356.326	-16.9
356.538	105.98
356.749	101.89
356.961	151.04
357.172	34.3
357.384	77.31
357.595	99.84
357.807	46.59
358.018	36.35
358.23	26.11
358.441	87.55
358.653	140.8
358.864	73.21
359.075	58.88
359.287	99.84
359.498	175.61
359.709	62.98
359.921	81.41
360.132	62.98
360.344	60.93
360.555	-23.04
360.766	103.93
360.977	56.83
361.189	114.17
361.4	95.74
361.611	44.54
361.823	108.03
362.034	75.26
362.245	15.87
362.456	36.35
362.667	62.98
362.879	-10.75
363.09	-12.8
363.301	71.17
363.512	93.69
363.723	91.65
363.935	1.54
364.146	95.74
364.357	40.45
364.568	22.02
364.779	-27.14
364.99	132.61
365.201	24.06
365.412	134.65
365.623	-0.51
365.834	87.55
366.045	-16.9
366.256	116.22
366.467	26.11
366.678	132.61
366.889	30.21
367.1	103.93
367.311	85.5
367.522	93.69
367.733	26.11
367.944	93.69
368.155	36.35
368.366	126.46
368.577	91.65
368.788	69.12
368.999	69.12
369.209	87.55
369.42	153.09
369.631	128.51
369.842	28.16
370.053	67.07
370.264	128.51
370.474	79.36
370.685	138.75
370.896	28.16
371.107	118.27
371.317	77.31
371.528	60.93
371.739	87.55
371.95	87.55
372.16	89.6
372.371	60.93
372.582	42.5
372.792	71.17
373.003	73.21
373.214	52.74
373.424	99.84
373.635	34.3
373.846	146.94
374.056	73.21
374.267	71.17
374.477	87.55
374.688	50.69
374.898	44.54
375.109	62.98
375.319	130.56
375.53	42.5
375.74	77.31
375.951	-10.75
376.161	126.46
376.372	181.76
376.582	5.63
376.793	42.5
377.003	67.07
377.214	54.78
377.424	87.55
377.635	71.17
377.845	75.26
378.055	103.93
378.266	26.11
378.476	34.3
378.686	73.21
378.897	69.12
379.107	93.69
379.317	110.08
379.528	62.98
379.738	52.74
379.948	-31.23
380.158	165.37
380.369	69.12
380.579	120.32
380.789	40.45
380.999	87.55
381.21	122.37
381.42	116.22
381.63	-64
381.84	204.28
382.05	93.69
382.261	157.18
382.471	159.23
382.681	46.59
382.891	110.08
383.101	128.51
383.311	17.92
383.521	38.4
383.731	132.61
383.941	148.99
384.151	54.78
384.361	28.16
384.571	75.26
384.781	128.51
384.991	105.98
385.201	108.03
385.411	120.32
385.621	34.3
385.831	54.78
386.041	73.21
386.251	128.51
386.461	99.84
386.671	89.6
386.881	65.02
387.091	56.83
387.301	148.99
387.511	108.03
387.72	103.93
387.93	60.93
388.14	95.74
388.35	163.33
388.56	194.05
388.769	126.46
388.979	24.06
389.189	11.78
389.399	50.69
389.609	122.37
389.818	89.6
390.028	101.89
390.238	116.22
390.447	101.89
390.657	75.26
390.867	73.21
391.076	36.35
391.286	89.6
391.496	65.02
391.705	99.84
391.915	24.06
392.125	50.69
392.334	38.4
392.544	120.32
392.753	173.57
392.963	81.41
393.172	58.88
393.382	60.93
393.591	95.74
393.801	56.83
394.01	151.04
394.22	79.36
394.429	56.83
394.639	118.27
394.848	204.28
395.058	67.07
395.267	75.26
395.477	103.93
395.686	81.41
395.895	163.33
396.105	157.18
396.314	114.17
396.524	91.65
396.733	179.71
396.942	165.37
397.152	99.84
397.361	189.95
397.57	110.08
397.78	103.93
397.989	189.95
398.198	259.58
398.407	97.79
398.617	151.04
398.826	73.21
399.035	134.65
399.244	157.18
399.453	77.31
399.663	65.02
399.872	151.04
400.081	-23.04
400.29	192
400.499	91.65
400.708	204.28
400.917	77.31
401.127	130.56
401.336	112.13
401.545	228.86
401.754	112.13
401.963	142.85
402.172	181.76
402.381	36.35
402.59	148.99
402.799	136.7
403.008	200.19
403.217	167.42
403.426	216.57
403.635	46.59
403.844	126.46
404.053	232.96
404.262	151.04
404.471	220.67
404.68	130.56
404.888	204.28
405.097	89.6
405.306	177.66
405.515	138.75
405.724	237.05
405.933	218.62
406.142	151.04
406.35	245.24
406.559	161.28
406.768	214.52
406.977	263.68
407.185	255.48
407.394	206.33
407.603	132.61
407.812	284.16
408.02	267.77
408.229	265.72
408.438	253.44
408.646	151.04
408.855	230.91
409.064	349.69
409.272	255.48
409.481	318.97
409.69	290.3
409.898	292.35
410.107	339.45
410.315	339.45
410.524	314.88
410.733	359.93
410.941	337.4
411.15	298.49
411.358	333.31
411.567	476.66
411.775	388.6
411.984	394.75
412.192	507.38
412.401	462.33
412.609	527.86
412.818	474.62
413.026	523.77
413.234	493.05
413.443	515.58
413.651	460.28
413.86	517.62
414.068	624.12
414.276	617.97
414.485	546.3
414.693	583.16
414.901	673.27
415.11	742.9
415.318	695.8
415.526	736.76
415.734	722.42
415.943	771.57
416.151	894.45
416.359	830.96
416.567	824.82
416.776	843.25
416.984	925.17
417.192	1041.9
417.4	951.79
417.608	970.23
417.817	1023.47
418.025	1066.48
418.233	1254.89
418.441	1154.54
418.649	1142.25
418.857	1138.16
419.065	1279.47
419.273	1238.51
419.481	1312.24
419.689	1512.94
419.897	1459.69
420.105	1379.82
420.313	1461.74
420.521	1697.25
420.729	1570.28
420.937	1684.97
421.145	1617.38
421.353	1934.82
421.561	1924.58
421.769	1938.91
421.977	1943.01
422.185	1934.82
422.393	2110.94
422.601	2270.69
422.809	2221.53
423.017	2233.82
423.224	2293.21
423.432	2495.96
423.64	2395.61
423.848	2741.72
424.056	2545.11
424.263	2852.31
424.471	2665.94
424.679	2756.05
424.887	3048.91
425.094	2987.47
425.302	3028.43
425.51	2991.57
425.718	3315.15
425.925	3104.21
426.133	3487.18
426.341	3734.98
426.548	3739.08
426.756	3732.94
426.964	3788.23
427.171	4064.71
427.379	4109.76
427.586	4234.69
427.794	4339.13
428.001	4515.26
428.209	4769.21
428.417	4523.45
428.624	5129.65
428.832	5049.78
429.039	5158.32
429.247	4982.2
429.454	5361.07
429.662	5746.09
429.869	5467.56
430.076	5979.56
430.284	5770.66
430.491	6006.18
430.699	6159.78
430.906	6317.47
431.114	6372.77
431.321	6751.64
431.528	6710.68
431.736	6991.25
431.943	7325.07
432.15	7210.39
432.358	7562.64
432.565	7777.67
432.772	7648.65
432.979	8199.55
433.187	8275.33
433.394	8318.34
433.601	8668.54
433.808	8912.25
434.016	8930.68
434.223	9112.95
434.43	9569.65
434.637	9571.69
434.844	10032.49
435.052	10462.56
435.259	10386.79
435.466	10505.57
435.673	10077.54
435.88	10902.87
436.087	11523.41
436.294	11566.42
436.501	11408.72
436.708	11445.59
436.915	11920.71
437.122	12289.35
437.329	12391.75
437.537	12735.81
437.743	12928.31
437.95	12907.84
438.157	13372.72
438.364	14101.8
438.571	14198.06
438.778	13972.78
438.985	15508.76
439.192	14646.56
439.399	15265.05
439.606	14937.37
439.813	15701.26
440.02	16968.96
440.227	16549.12
440.433	16342.28
440.64	16964.86
440.847	16733.44
441.054	17014.01
441.261	18605.28
441.467	18017.52
441.674	18394.34
441.881	19510.49
442.088	19109.08
442.294	18918.62
442.501	19215.58
442.708	19756.24
442.914	20937.92
443.121	21277.88
443.328	21030.08
443.534	22504.62
443.741	21437.62
443.948	21411
444.154	22983.84
444.361	22721.7
444.568	22895.78
444.774	23098.53
444.981	23325.85
445.187	24237.2
445.394	24921.22
445.6	24665.22
445.807	27481.18
446.013	26207.34
446.22	26408.05
446.426	27335.77
446.633	27808.86
446.839	28931.14
447.046	27728.98
447.252	29219.91
447.459	28925
447.665	29180.99
447.871	30399.54
448.078	31833.11
448.284	30268.47
448.491	30884.9
448.697	32279.57
448.903	32701.45
449.11	33405.95
449.316	32351.25
449.522	32748.56
449.728	34067.45
449.935	34145.27
450.141	34280.44
450.347	35109.86
450.553	33862.65
450.76	34429.94
450.966	35224.55
451.172	35251.17
451.378	35904.48
451.584	35253.22
451.791	36178.9
451.997	35888.09
452.203	36709.33
452.409	36862.93
452.615	36817.87
452.821	35361.76
453.027	34917.36
453.233	37143.5
453.44	35361.76
453.646	35927
453.852	36330.45
454.058	36565.97
454.264	35429.35
454.47	36139.99
454.676	35484.64
454.882	36709.33
455.088	33422.34
455.294	34057.21
455.5	34503.67
455.705	34890.73
455.911	33479.68
456.117	32742.41
456.323	32527.38
456.529	30612.52
456.735	32371.73
456.941	31345.7
457.147	30721.07
457.352	30028.85
457.558	29430.85
457.764	29742.14
457.97	29322.3
458.176	28777.54
458.381	28621.9
458.587	27169.89
458.793	27364.45
458.999	25451.64
459.204	27563.1
459.41	27008.1
459.616	25181.31
459.821	25050.24
460.027	24749.19
460.233	24300.69
460.438	23180.45
460.644	23571.61
460.85	22504.62
461.055	22371.5
461.261	21888.18
461.466	20329.67
461.672	19641.56
461.878	21423.29
462.083	19793.11
462.289	19471.57
462.494	19289.31
462.7	18459.88
462.905	17865.97
463.111	18541.8
463.316	18636
463.522	18060.52
463.727	18429.16
463.932	17986.8
464.138	17865.97
464.343	18062.57
464.549	17272.06
464.754	17988.85
464.959	17902.83
465.165	17616.12
465.37	17198.33
465.575	16678.15
465.781	17186.04
465.986	17519.86
466.191	16721.15
466.397	16223.5
466.602	15488.28
466.807	16487.68
467.012	16299.27
467.218	15994.12
467.423	15777.04
467.628	16225.54
467.833	16745.73
468.038	16069.9
468.244	15578.39
468.449	16270.6
468.654	15668.5
468.859	15664.4
469.064	15664.4
469.269	14935.32
469.474	15162.65
469.679	15469.84
469.885	14980.38
470.09	15021.34
470.295	14767.39
470.5	14638.37
470.705	14624.03
470.91	14441.76
471.115	14353.7
471.32	14462.24
471.525	14390.56
471.73	14015.79
471.935	13735.21
472.139	13399.35
472.344	13841.71
472.549	13548.85
472.754	13495.6
472.959	13120.82
473.164	12967.23
473.369	12479.81
473.574	13354.29
473.778	12856.64
473.983	12977.47
474.188	12864.83
474.393	12191.05
474.598	12397.89
474.802	12170.57
475.007	12102.98
475.212	12221.77
475.417	11709.77
475.621	11941.19
475.826	11795.79
476.031	11619.66
476.235	11484.5
476.44	11597.14
476.645	11363.67
476.849	11507.02
477.054	11109.72
477.259	10937.69
477.463	11234.64
477.668	10730.84
477.872	10745.18
478.077	10599.77
478.282	10233.19
478.486	10440.03
478.691	10292.58
478.895	10241.38
479.1	10098.02
479.304	10319.2
479.509	9764.2
479.713	10128.74
479.918	9661.8
480.122	9876.84
480.326	10020.2
480.531	9649.52
480.735	9696.62
480.94	9561.45
481.144	9964.9
481.348	9479.54
481.553	9768.3
481.757	9354.61
481.961	9510.25
482.166	9727.34
482.37	9581.93
482.574	9403.76
482.778	9463.15
482.983	9692.52
483.187	9475.44
483.391	9708.91
483.595	9502.06
483.8	9364.85
484.004	9401.71
484.208	9377.14
484.412	9465.2
484.616	9381.23
484.821	9266.55
485.025	9268.59
485.229	9465.2
485.433	9266.55
485.637	9526.64
485.841	9317.75
486.045	9436.53
486.249	9457.01
486.453	9110.9
486.657	9569.65
486.861	9428.34
487.065	9330.03
487.269	9536.88
487.473	9280.88
487.677	9418.1
487.881	9551.21
488.085	9487.73
488.289	9370.99
488.493	9291.12
488.697	9530.73
488.901	9645.42
489.105	9366.9
489.309	9524.59
489.512	9432.43
489.716	9508.21
489.92	9405.81
490.124	9577.84
490.328	9727.34
490.531	9397.62
490.735	9631.09
490.939	9653.61
491.143	9702.76
491.346	9704.81
491.55	9866.6
491.754	9805.16
491.958	9913.7
492.161	9686.38
492.365	9786.73
492.569	9952.62
492.772	9938.28
492.976	10014.06
493.18	9921.9
493.383	10093.93
493.587	10268
493.79	10321.25
493.994	10186.08
494.197	10093.93
494.401	10427.74
494.605	10378.59
494.808	10511.71
495.012	10577.25
495.215	10757.47
495.419	10827.1
495.622	10671.45
495.825	10909.02
496.029	10913.11
496.232	11216.21
496.436	10972.5
496.639	11283.8
496.843	11236.69
497.046	11629.9
497.249	11760.97
497.453	11679.05
497.656	11746.64
497.859	11810.12
498.063	12002.63
498.266	12201.29
498.469	11947.34
498.673	12440.9
498.876	12565.82
499.079	12633.41
499.282	12617.02
499.485	13129.02
499.689	12744
499.892	13137.21
500.095	12938.55
500.298	13346.1
500.501	13206.84
500.705	13616.43
500.908	13786.41
501.111	14009.64
501.314	14069.03
501.517	14112.04
501.72	14525.73
501.923	14353.7
502.126	14646.56
502.329	14957.85
502.532	14863.65
502.735	15066.39
502.938	15324.44
503.141	15271.19
503.344	15557.91
503.547	15770.9
503.75	15877.39
503.953	16360.71
504.156	16329.99
504.359	16682.24
504.562	16655.62
504.765	16938.24
504.968	17194.23
505.17	17202.43
505.373	17132.79
505.576	17573.11
505.779	17784.05
505.982	17761.52
506.185	18392.3
506.387	18132.2
506.59	18332.9
506.793	18937.06
506.996	18549.99
507.198	19236.06
507.401	19303.64
507.604	19408.09
507.807	19686.61
508.009	19748.05
508.212	20034.77
508.415	20368.59
508.617	20354.25
508.82	20776.13
509.022	20735.17
509.225	21146.81
509.428	21402.81
509.63	21554.36
509.833	21611.7
510.035	21623.99
510.238	22234.28
510.44	22215.85
510.643	22260.91
510.845	22647.97
511.048	22750.37
511.25	23127.2
511.453	22969.51
511.655	23985.3
511.858	23688.34
512.06	24114.32
512.262	23921.81
512.465	24319.12
512.667	24487.05
512.87	24910.98
513.072	24872.07
513.274	25142.4
513.477	25629.82
513.679	25842.81
513.881	25887.86
514.084	26393.71
514.286	26106.99
514.488	26594.41
514.69	27257.95
514.893	27399.26
515.095	27509.85
515.297	27808.86
515.499	27774.04
515.701	28171.35
515.904	28218.45
516.106	28531.79
516.308	29207.62
516.51	29221.95
516.712	29215.81
516.914	29817.91
517.116	29754.43
517.318	30155.83
517.52	30073.91
517.722	30129.2
517.925	30874.66
518.127	31417.38
518.329	31339.55
518.531	31265.83
518.733	31704.09
518.935	32398.35
519.136	32070.68
519.338	32582.67
519.54	32594.96
519.742	32990.22
519.944	33551.36
520.146	33852.41
520.348	33809.4
520.55	34053.11
520.752	34094.07
520.954	34421.75
521.155	34530.29
521.357	35120.1
521.559	35369.96
521.761	35906.52
521.963	35636.19
522.164	35836.89
522.366	36232.15
522.568	36484.05
522.77	36633.55
522.971	36824.01
523.173	36273.11
523.375	37512.13
523.576	37120.97
523.778	37557.19
523.98	37989.31
524.181	38198.2
524.383	38325.18
524.584	38611.89
524.786	38910.89
524.988	38665.14
525.189	39132.07
525.391	38894.51
525.592	39431.08
525.794	39711.65
525.995	39513
526.197	39402.41
526.398	39797.66
526.6	40305.56
526.801	40469.4
527.003	40674.2
527.204	40713.11
527.406	40950.67
527.607	40600.47
527.808	41208.72
528.01	40754.07
528.211	40936.34
528.412	41812.87
528.614	41440.14
528.815	41579.4
529.016	42382.2
529.218	41520.01
529.419	41792.39
529.62	42150.78
529.822	41888.64
530.023	42079.1
530.224	41888.64
530.425	41872.26
530.626	42017.66
530.828	42083.2
531.029	43039.6
531.23	42161.02
531.431	42617.72
531.632	42515.32
531.833	42990.45
532.035	42810.23
532.236	42732.4
532.437	43111.28
532.638	42797.94
532.839	43311.98
533.04	43520.87
533.241	43002.74
533.442	43418.47
533.643	43033.46
533.844	43197.29
534.045	43316.08
534.246	42806.13
534.447	43434.86
534.648	43352.94
534.849	43553.64
535.05	42996.59
535.251	43160.43
535.451	43242.35
535.652	43203.44
535.853	43369.32
536.054	43225.96
536.255	43608.93
536.456	43142
536.657	43762.53
536.857	43107.18
537.058	42951.54
537.259	43760.48
537.46	43461.48
537.66	43039.6
537.861	43479.91
538.062	43686.76
538.263	43643.75
538.463	43432.81
538.664	43207.53
538.865	43586.41
539.065	43936.61
539.266	43062.13
539.466	43780.96
539.667	42996.59
539.868	43885.41
540.068	43354.99
540.269	43252.59
540.469	43512.68
540.67	43043.7
540.87	43529.06
541.071	43234.16
541.271	43514.73
541.472	43520.87
541.672	42539.89
541.873	43273.07
542.073	42791.8
542.274	43293.55
542.474	43012.98
542.675	43125.61
542.875	43484.01
543.075	43094.89
543.276	43162.48
543.476	43375.47
543.676	43320.17
543.877	43553.64
544.077	43373.42
544.277	43262.83
544.478	43074.41
544.678	42949.49
544.878	42814.32
545.078	43008.88
545.279	43359.08
545.479	43152.24
545.679	43420.52
545.879	43234.16
546.079	42937.2
546.28	42896.24
546.48	43037.55
546.68	43148.14
546.88	43088.75
547.08	43232.11
547.28	42826.61
547.48	42924.91
547.68	42906.48
547.88	42867.57
548.081	43121.52
548.281	43066.22
548.481	42781.56
548.681	43019.12
548.881	42558.33
549.081	42953.58
549.28	42716.02
549.48	43199.34
549.68	43031.41
549.88	43299.69
550.08	42193.79
550.28	42699.64
550.48	42648.44
550.68	43201.39
550.88	42742.64
551.08	42881.91
551.279	43211.63
551.479	42550.13
551.679	42933.1
551.879	42570.61
552.079	42963.82
552.278	42339.19
552.478	42822.51
552.678	42697.59
552.878	43103.09
553.077	42220.41
553.277	42615.67
553.477	42687.35
553.676	42611.57
553.876	42724.21
554.076	41968.51
554.275	42269.56
554.475	41982.85
554.674	42486.65
554.874	42523.51
555.074	41984.9
555.273	42386.3
555.473	42656.63
555.672	41970.56
555.872	42027.9
556.071	42427.26
556.271	42175.36
556.47	41884.54
556.67	41567.11
556.869	41917.31
557.068	41694.08
557.268	41587.59
557.467	42173.31
557.667	42310.52
557.866	41933.7
558.065	41868.16
558.265	41339.79
558.464	41165.71
558.663	41886.59
558.863	41374.6
559.062	41872.26
559.261	41141.13
559.461	41978.75
559.66	40872.85
559.859	41321.35
560.058	40618.9
560.258	41077.65
560.457	40922
560.656	41096.08
560.855	40887.18
561.054	41024.4
561.253	40643.48
561.453	40821.65
561.652	40932.24
561.851	40858.51
562.05	40876.94
562.249	40297.37
562.448	40895.38
562.647	40657.81
562.846	40459.16
563.045	40461.21
563.244	39807.9
563.443	40598.42
563.642	40090.52
563.841	40235.93
564.04	39824.29
564.239	40485.78
564.438	39977.89
564.637	39873.44
564.836	39740.32
565.035	39322.54
565.234	39879.58
565.432	39263.14
565.631	39347.11
565.83	39465.89
566.029	39187.37
566.228	39347.11
566.427	39295.91
566.625	39070.64
566.824	38458.29
567.023	39001
567.222	38249.4
567.42	38757.3
567.619	38595.51
567.818	38634.42
568.016	38568.88
568.215	38792.11
568.414	38255.54
568.612	39283.62
568.811	38235.06
569.01	38353.85
569.208	37702.59
569.407	38286.26
569.605	37514.18
569.804	37977.02
570.002	37456.84
570.201	38056.89
570.4	37559.23
570.598	37114.83
570.797	37141.45
570.995	37143.5
571.193	36936.65
571.392	37667.78
571.59	36656.08
571.789	36867.02
571.987	36639.7
572.186	36776.91
572.384	36568.02
572.582	36518.87
572.781	36463.57
572.979	36197.34
573.177	36582.35
573.376	36371.41
573.574	36226.01
573.772	36287.45
573.971	36072.41
574.169	35957.72
574.367	35730.4
574.565	36006.87
574.763	35515.36
574.962	35613.66
575.16	35294.18
575.358	35242.98
575.556	34946.03
575.754	35939.29
575.952	35062.76
576.151	34843.63
576.349	34774
576.547	34823.15
576.745	34685.93
576.943	34925.55
577.141	34577.39
577.339	34606.06
577.537	34522.1
577.735	34483.19
577.933	34470.9
578.131	34221.05
578.329	34241.53
578.527	33723.39
578.725	34061.3
578.923	34075.64
579.121	34188.28
579.319	33704.96
579.516	33727.49
579.714	33672.19
579.912	33469.44
580.11	33176.58
580.308	33477.63
580.506	33506.3
580.704	32939.02
580.901	33104.9
581.099	33465.35
581.297	32867.34
581.495	32656.4
581.692	32914.44
581.89	32650.25
582.088	32932.87
582.285	32283.67
582.483	32738.32
582.681	32377.87
582.878	32322.58
583.076	31869.98
583.274	32359.44
583.471	31960.09
583.669	31915.03
583.866	31898.65
584.064	32029.72
584.262	31581.21
584.459	31573.02
584.657	31190.05
584.854	31708.19
585.052	31106.09
585.249	31638.56
585.447	31441.95
585.644	30862.38
585.841	31267.87
586.039	31398.94
586.236	30614.57
586.434	31081.51
586.631	30833.71
586.828	30821.42
587.026	30579.76
587.223	30579.76
587.42	30350.38
587.618	30274.61
587.815	30223.41
588.012	30454.83
588.21	29844.54
588.407	30303.28
588.604	29877.3
588.801	29727.8
588.999	29881.4
589.196	29606.97
589.393	29688.89
589.59	29588.54
589.787	29410.37
589.984	29699.13
590.182	29049.92
590.379	29412.42
590.576	28761.16
590.773	29219.91
590.97	28775.5
591.167	28550.22
591.364	28306.51
591.561	29008.97
591.758	28333.14
591.955	28370
592.152	28646.47
592.349	28687.43
592.546	28449.87
592.743	28523.6
592.94	27577.44
593.137	27780.18
593.334	28077.14
593.531	27583.58
593.727	27501.66
593.924	27952.21
594.121	27337.82
594.318	27661.4
594.515	27313.25
594.712	27749.46
594.908	27472.99
595.105	27311.2
595.302	26971.24
595.499	26907.75
595.696	26866.79
595.892	26901.61
596.089	26973.28
596.286	26850.41
596.482	26690.66
596.679	26778.73
596.876	26455.15
597.072	26682.47
597.269	26432.62
597.466	26174.58
597.662	26223.73
597.859	26193.01
598.055	26039.41
598.252	25959.54
598.448	25889.91
598.645	25756.79
598.841	25775.22
599.038	25666.68
599.234	25764.98
599.431	25603.19
599.627	25478.27
599.824	25638.01
600.02	25216.13
600.217	25382.01
600.413	25156.74
600.609	25220.22
600.806	25117.82
601.002	25209.98
601.198	24673.42
601.395	24763.53
601.591	24634.5
601.787	24812.68
601.984	24337.55
602.18	24700.04
602.376	24421.52
602.572	24128.66
602.769	24341.64
602.965	24081.55
603.161	24355.98
603.357	23979.15
603.553	24018.07
603.75	23991.44
603.946	23909.52
604.142	23889.04
604.338	23669.91
604.534	23565.46
604.73	23475.35
604.926	23340.19
605.122	23700.63
605.318	23194.78
605.514	23323.8
605.71	23159.97
605.906	23028.9
606.102	23094.43
606.298	23030.94
606.494	22973.6
606.69	22865.06
606.886	23125.15
607.082	22690.98
607.278	22664.36
607.474	22443.18
607.67	22668.45
607.866	22617.25
608.062	22752.42
608.257	22224.04
608.453	22336.68
608.649	22576.3
608.845	22342.83
609.041	22234.28
609.236	22297.77
609.432	22291.63
609.628	22176.94
609.824	22133.93
610.019	21722.29
610.215	22056.11
610.411	22021.3
610.606	21763.25
610.802	21630.13
610.998	21630.13
611.193	21834.93
611.389	21306.55
611.584	21757.11
611.78	21415.1
611.976	21468.34
612.171	21574.84
612.367	21763.25
612.562	21423.29
612.758	20894.91
612.953	20784.32
613.149	21687.48
613.344	21040.32
613.539	21454.01
613.735	21384.38
613.93	21200.06
614.126	20954.3
614.321	21359.8
614.517	21083.33
614.712	20741.32
614.907	20786.37
615.103	21099.71
615.298	20733.12
615.493	20880.58
615.688	20501.7
615.884	21023.94
616.079	20425.93
616.274	20595.91
616.47	20575.43
616.665	20364.49
616.86	20298.95
617.055	20292.81
617.25	20370.63
617.445	20571.33
617.641	19969.23
617.836	20333.77
618.031	20045.01
618.226	20210.89
618.421	19801.3
618.616	20182.22
618.811	19616.98
619.006	20163.79
619.201	19268.83
619.396	19797.2
619.591	19453.14
619.786	19494.1
619.981	19346.65
620.176	19635.41
620.371	19315.93
620.566	19557.59
620.761	19326.17
620.956	19164.38
621.151	19059.93
621.346	19123.42
621.541	18590.95
621.735	18836.7
621.93	18584.8
622.125	18689.25
622.32	18214.12
622.515	18468.07
622.709	18277.61
622.904	18115.82
623.099	18029.8
623.294	18175.21
623.488	18072.81
623.683	17986.8
623.878	17947.89
624.072	17695.99
624.267	17575.16
624.462	17552.63
624.656	17196.28
624.851	17331.45
625.046	17302.78
625.24	17222.91
625.435	16985.34
625.629	17040.64
625.824	17122.55
626.018	16796.93
626.213	16657.67
626.407	16680.19
626.602	16184.59
626.796	16452.87
626.991	16438.53
627.185	16180.49
627.38	16088.33
627.574	16262.41
627.768	15981.84
627.963	15865.1
628.157	15723.79
628.352	15707.41
628.546	15774.99
628.74	15705.36
628.935	15443.22
629.129	15445.27
629.323	15363.35
629.517	15191.32
629.712	15172.89
629.906	15224.09
630.1	14927.13
630.294	14908.7
630.489	14839.07
630.683	14882.08
630.877	14652.7
631.071	14529.83
631.265	14630.18
631.459	14533.92
631.653	14331.17
631.848	14382.37
632.042	14398.76
632.236	14079.27
632.43	14148.9
632.624	14159.14
632.818	13933.87
633.012	13684.02
633.206	13995.31
633.4	13860.14
633.594	13425.97
633.788	13460.79
633.982	13659.44
634.176	13681.97
634.369	13303.09
634.563	13440.31
634.757	13198.65
634.951	13569.33
635.145	13237.56
635.339	13174.07
635.533	12959.03
635.726	13110.58
635.92	12893.5
636.114	12911.93
636.308	12852.54
636.501	12621.12
636.695	12727.61
636.889	12444.99
637.083	12494.15
637.276	12352.84
637.47	12350.79
637.664	12195.14
637.857	12236.1
638.051	12281.16
638.244	12209.48
638.438	12123.46
638.632	11994.44
638.825	11779.4
639.019	11646.29
639.212	11615.57
639.406	11601.23
639.599	11758.92
639.793	11810.12
639.986	11476.3
640.18	11578.7
640.373	11343.19
640.567	11185.49
640.76	11545.94
640.954	11302.23
641.147	11074.9
641.34	11015.51
641.534	11070.81
641.727	11154.77
641.92	11005.27
642.114	10929.5
642.307	10972.5
642.5	10823
642.694	10423.65
642.887	10698.08
643.08	10716.51
643.273	10653.02
643.467	10675.55
643.66	10390.88
643.853	10235.24
644.046	10290.53
644.239	10403.17
644.432	10462.56
644.626	10188.13
644.819	10241.38
645.012	10192.23
645.205	10001.77
645.398	10179.94
645.591	9987.43
645.784	9934.18
645.977	9680.24
646.17	9868.65
646.363	9643.37
646.556	9725.29
646.749	9446.77
646.942	9719.15
647.135	9336.18
647.328	9622.89
647.521	9565.55
647.714	9315.7
647.907	9340.27
648.099	9260.4
648.292	9268.59
648.485	9092.47
648.678	9053.56
648.871	8996.21
649.064	9090.42
649.256	9051.51
649.449	8928.63
649.642	9033.08
649.835	8865.14
650.027	8824.19
650.22	8785.27
650.413	8750.46
650.605	8592.76
650.798	8617.34
650.991	8453.5
651.183	8447.36
651.376	8545.66
651.568	8525.18
651.761	8461.69
651.954	8230.27
652.146	8238.47
652.339	8406.4
652.531	8320.39
652.724	8185.22
652.916	8045.96
653.109	8017.29
653.301	8050.05
653.494	7996.81
653.686	7865.74
653.879	8064.39
654.071	7914.89
654.263	7830.92
654.456	7910.79
654.648	7998.85
654.84	7603.6
655.033	7507.34
655.225	7730.57
655.417	7519.63
655.61	7341.46
655.802	7699.85
655.994	7730.57
656.186	7382.42
656.379	7593.36
656.571	7429.52
656.763	7337.36
656.955	7292.3
657.148	7220.63
657.34	7325.07
657.532	7185.81
657.724	7118.23
657.916	7243.15
658.108	7122.32
658.3	6940.05
658.492	7171.47
658.684	6897.05
658.876	6972.82
659.068	6981.01
659.26	6839.7
659.452	6819.22
659.644	6987.16
659.836	6981.01
660.028	6821.27
660.22	6661.53
660.412	6671.77
660.604	6593.95
660.796	6690.2
660.988	6702.49
661.18	6559.13
661.372	6542.75
661.563	6512.03
661.755	6479.26
661.947	6442.4
662.139	6452.64
662.331	6335.9
662.522	6243.74
662.714	6317.47
662.906	6208.93
663.097	6436.25
663.289	6145.44
663.481	6073.76
663.673	6303.14
663.864	6030.76
664.056	6065.57
664.247	6319.52
664.439	6075.81
664.631	6004.13
664.822	6020.52
665.014	6151.59
665.205	5989.8
665.397	6100.39
665.588	6010.28
665.78	5971.36
665.971	5774.76
666.163	5819.82
666.354	5979.56
666.546	5707.18
666.737	5758.38
666.929	5690.79
667.12	5965.22
667.311	5696.94
667.503	5817.77
667.694	5653.93
667.885	5631.4
668.077	5643.69
668.268	5549.48
668.459	5617.07
668.651	5580.2
668.842	5610.92
669.033	5586.35
669.224	5625.26
669.416	5678.51
669.607	5522.86
669.798	5338.54
669.989	5316.01
670.18	5313.97
670.371	5434.8
670.563	5369.26
670.754	5203.38
670.945	5242.29
671.136	5395.89
671.327	5307.82
671.518	5273.01
671.709	5311.92
671.9	5076.4
672.091	5295.54
672.282	5195.18
672.473	5070.26
672.664	5203.38
672.855	5062.07
673.046	5236.14
673.237	5160.37
673.428	5256.62
673.619	5164.47
673.809	5035.44
674	5182.9
674.191	5119.41
674.382	4926.9
674.573	5072.31
674.764	5004.72
674.954	5217.71
675.145	5064.11
675.336	5143.99
675.527	5014.96
675.717	5084.59
675.908	5027.25
676.099	4955.57
676.289	5047.73
676.48	4861.37
676.671	4933.04
676.861	5131.7
677.052	5045.68
677.243	5066.16
677.433	4908.47
677.624	5060.02
677.814	4885.94
678.005	4908.47
678.195	4904.37
678.386	5041.59
678.576	4904.37
678.767	4937.14
678.957	4957.62
679.148	4828.6
679.338	4924.85
679.529	4928.95
679.719	4967.86
679.909	4900.28
680.1	4965.81
680.29	5000.63
680.481	4922.8
680.671	4842.93
680.861	4943.28
681.052	5023.16
681.242	4951.48
681.432	4947.38
681.622	4789.69
681.813	4752.82
682.003	4824.5
682.193	4777.4
682.383	4890.04
682.573	4865.46
682.764	4955.57
682.954	4820.41
683.144	4873.65
683.334	4894.13
683.524	4926.9
683.714	4828.6
683.904	4730.3
684.094	4730.3
684.284	4801.97
684.474	4830.65
684.664	4857.27
684.854	4875.7
685.044	4820.41
685.234	4613.56
685.424	4455.87
685.614	4580.79
685.804	4785.59
685.994	4668.86
686.184	4664.76
686.374	4582.84
686.564	4629.95
686.753	4681.14
686.943	4550.07
687.133	4492.73
687.323	4593.08
687.513	4533.69
687.702	4482.49
687.892	4371.9
688.082	4410.81
688.272	4517.31
688.461	4453.82
688.651	4423.1
688.841	4423.1
689.03	4408.76
689.22	4306.37
689.41	4384.19
689.599	4210.11
689.789	4306.37
689.979	4251.07
690.168	4224.45
690.358	4261.31
690.547	4156.86
690.737	4218.3
690.926	4292.03
691.116	4093.38
691.305	4320.7
691.495	4091.33
691.684	3933.64
691.874	4029.89
692.063	4048.32
692.252	4122.05
692.442	4066.75
692.631	3964.36
692.82	4003.27
693.01	4013.51
693.199	3978.69
693.388	3878.34
693.578	3827.14
693.767	3974.6
693.956	3950.02
694.146	3683.78
694.335	3741.13
694.524	3753.41
694.713	3990.98
694.902	3806.66
695.092	3724.74
695.281	3823.05
695.47	3761.61
695.659	3722.7
695.848	3823.05
696.037	3741.13
696.226	3700.17
696.415	3706.31
696.604	3780.04
696.793	3720.65
696.982	3700.17
697.171	3671.5
697.36	3720.65
697.549	3634.63
697.738	3728.84
697.927	3630.54
698.116	3671.5
698.305	3655.11
698.494	3737.03
698.683	3612.1
698.872	3653.06
699.061	3657.16
699.25	3618.25
699.438	3528.14
699.627	3597.77
699.816	3642.82
700.005	3691.98
700.193	3542.47
700.382	3614.15
700.571	3716.55
700.76	3565
700.948	3571.15
701.137	3620.3
701.326	3591.63
701.514	3612.1
701.703	3691.98
701.892	3513.8
702.08	3671.5
702.269	3515.85
702.457	3548.62
702.646	3411.4
702.834	3468.75
703.023	3536.33
703.212	3571.15
703.4	3616.2
703.589	3499.47
703.777	3540.43
703.965	3532.23
704.154	3497.42
704.342	3517.9
704.531	3472.84
704.719	3509.71
704.907	3499.47
705.096	3423.69
705.284	3493.32
705.472	3575.24
705.661	3509.71
705.849	3558.86
706.037	3585.48
706.226	3534.28
706.414	3532.23
706.602	3476.94
706.79	3683.78
706.979	3526.09
707.167	3663.3
707.355	3558.86
707.543	3599.82
707.731	3689.93
707.919	3544.52
708.107	3542.47
708.296	3640.78
708.484	3513.8
708.672	3571.15
708.86	3646.92
709.048	3737.03
709.236	3700.17
709.424	3472.84
709.612	3612.1
709.8	3444.17
709.988	3653.06
710.176	3575.24
710.364	3714.5
710.551	3558.86
710.739	3718.6
710.927	3595.72
711.115	3591.63
711.303	3816.9
711.491	3665.35
711.679	3589.58
711.866	3687.88
712.054	3896.77
712.242	3681.74
712.43	3792.33
712.617	3743.17
712.805	3644.87
712.993	3610.06
713.181	3521.99
713.368	3679.69
713.556	3741.13
713.744	3734.98
713.931	3763.65
714.119	3777.99
714.306	3775.94
714.494	3757.51
714.682	3587.53
714.869	3712.46
715.057	3761.61
715.244	3638.73
715.432	3806.66
715.619	3739.08
715.807	3788.23
715.994	3698.12
716.182	3509.71
716.369	3698.12
716.556	3855.81
716.744	3861.96
716.931	3792.33
717.119	3919.3
717.306	3894.72
717.493	3904.96
717.681	3950.02
717.868	3853.77
718.055	3861.96
718.242	3741.13
718.43	3864.01
718.617	3960.26
718.804	3847.62
718.991	3835.33
719.179	3841.48
719.366	3771.85
719.553	3929.54
719.74	3724.74
719.927	3872.2
720.114	3851.72
720.301	3917.25
720.488	3851.72
720.676	3892.68
720.863	3947.97
721.05	3911.11
721.237	3861.96
721.424	3929.54
721.611	3931.59
721.798	3988.93
721.985	3784.13
722.172	3802.57
722.358	3804.61
722.545	3714.5
722.732	3923.4
722.919	3808.71
723.106	3917.25
723.293	3972.55
723.48	3978.69
723.667	3937.73
723.853	3765.7
724.04	3925.44
724.227	3976.64
724.414	3685.83
724.6	3878.34
724.787	3978.69
724.974	3968.45
725.161	3954.12
725.347	3843.53
725.534	3913.16
725.72	4031.94
725.907	4027.84
726.094	3952.07
726.28	4031.94
726.467	3950.02
726.653	3937.73
726.84	4044.23
727.027	3966.4
727.213	3941.83
727.4	3935.68
727.586	3966.4
727.773	4007.36
727.959	3855.81
728.145	4009.41
728.332	3943.88
728.518	3835.33
728.705	4003.27
728.891	4144.58
729.077	3950.02
729.264	4068.8
729.45	3966.4
729.636	4197.82
729.823	3941.83
730.009	4101.57
730.195	4042.18
730.382	4072.9
730.568	3993.03
730.754	3950.02
730.94	3937.73
731.126	4126.15
731.313	4009.41
731.499	4005.31
731.685	4007.36
731.871	4113.86
732.057	4033.99
732.243	4015.55
732.429	4154.82
732.615	3997.12
732.801	3993.03
732.987	4122.05
733.173	3978.69
733.359	3935.68
733.545	4083.14
733.731	4001.22
733.917	4050.37
734.103	4072.9
734.289	3927.49
734.475	3904.96
734.661	4025.79
734.847	4171.2
735.033	4007.36
735.219	3933.64
735.404	3970.5
735.59	3964.36
735.776	3898.82
735.962	3952.07
736.148	3927.49
736.333	3902.92
736.519	3853.77
736.705	3982.79
736.89	3937.73
737.076	3990.98
737.262	3798.47
737.447	3972.55
737.633	3868.1
737.819	3943.88
738.004	3872.2
738.19	3952.07
738.375	3886.53
738.561	3874.24
738.747	3847.62
738.932	3921.35
739.118	4031.94
739.303	3827.14
739.489	3833.29
739.674	3839.43
739.859	3780.04
740.045	3923.4
740.23	3990.98
740.416	3806.66
740.601	3853.77
740.786	3788.23
740.972	3847.62
741.157	3653.06
741.342	3739.08
741.528	3741.13
741.713	3855.81
741.898	3798.47
742.084	3737.03
742.269	3872.2
742.454	3642.82
742.639	3677.64
742.824	3689.93
743.01	3694.02
743.195	3775.94
743.38	3714.5
743.565	3702.22
743.75	3675.59
743.935	3499.47
744.12	3667.4
744.305	3571.15
744.49	3567.05
744.675	3655.11
744.86	3431.88
745.045	3548.62
745.23	3403.21
745.415	3452.36
745.6	3546.57
745.785	3476.94
745.97	3392.97
746.155	3483.08
746.34	3509.71
746.525	3427.79
746.71	3466.7
746.895	3309.01
747.079	3296.72
747.264	3294.67
747.449	3255.76
747.634	3241.42
747.819	3188.18
748.003	3270.09
748.188	3249.61
748.373	3116.5
748.557	3274.19
748.742	3073.49
748.927	3190.22
749.111	3114.45
749.296	3059.15
749.481	2985.43
749.665	3124.69
749.85	3089.87
750.034	2887.12
750.219	2897.36
750.404	3038.67
750.588	2909.65
750.773	2831.83
750.957	2903.51
751.141	2919.89
751.326	2817.49
751.51	2764.25
751.695	2874.84
751.879	2715.09
752.064	2835.92
752.248	2885.08
752.432	2901.46
752.617	2799.06
752.801	2665.94
752.985	2756.05
753.17	2749.91
753.354	2635.22
753.538	2608.6
753.722	2641.37
753.907	2592.22
754.091	2598.36
754.275	2530.78
754.459	2639.32
754.643	2547.16
754.828	2469.34
755.012	2512.35
755.196	2422.24
755.38	2371.04
755.564	2364.89
755.748	2530.78
755.932	2475.48
756.116	2412
756.3	2393.56
756.484	2502.11
756.668	2313.69
756.852	2268.64
757.036	2360.8
757.22	2196.96
757.404	2317.79
757.588	2221.53
757.772	2409.95
757.956	2256.35
758.14	2260.45
758.323	2170.33
758.507	2176.48
758.691	2254.3
758.875	2123.23
759.059	2168.29
759.242	2143.71
759.426	2074.08
759.61	2096.61
759.794	2141.66
759.977	2108.9
760.161	2086.37
760.345	2112.99
760.528	2199.01
760.712	1975.78
760.895	2090.46
761.079	2033.12
761.263	2014.69
761.446	1998.31
761.63	1912.29
761.813	1910.24
761.997	1914.34
762.18	1938.91
762.364	1852.9
762.547	1877.48
762.731	1863.14
762.914	1857
763.098	1904.1
763.281	1758.69
763.464	1998.31
763.648	1951.2
763.831	1889.76
764.015	1828.32
764.198	1820.13
764.381	1822.18
764.564	1803.75
764.748	1764.84
764.931	1863.14
765.114	1738.21
765.297	1877.48
765.481	1672.68
765.664	1740.26
765.847	1766.89
766.03	1760.74
766.213	1727.97
766.397	1670.63
766.58	1687.01
766.763	1746.41
766.946	1635.82
767.129	1732.07
767.312	1625.58
767.495	1605.1
767.678	1549.8
767.861	1574.38
768.044	1603.05
768.227	1603.05
768.41	1648.1
768.593	1650.15
768.776	1656.29
768.959	1623.53
769.142	1603.05
769.324	1603.05
769.507	1541.61
769.69	1549.8
769.873	1625.58
770.056	1594.86
770.239	1566.18
770.421	1594.86
770.604	1537.51
770.787	1590.76
770.97	1570.28
771.152	1441.26
771.335	1492.46
771.518	1431.02
771.7	1474.03
771.883	1535.46
772.066	1373.68
772.248	1451.5
772.431	1451.5
772.613	1492.46
772.796	1508.84
772.978	1443.31
773.161	1492.46
773.343	1336.81
773.526	1244.65
773.708	1351.15
773.891	1328.62
774.073	1283.56
774.256	1345
774.438	1394.15
774.621	1336.81
774.803	1418.73
774.985	1441.26
775.168	1316.33
775.35	1353.2
775.532	1197.55
775.715	1277.42
775.897	1293.8
776.079	1185.26
776.261	1215.98
776.444	1271.28
776.626	1134.06
776.808	1248.75
776.99	1197.55
777.173	1183.21
777.355	1107.44
777.537	1230.32
777.719	1062.38
777.901	1115.63
778.083	1058.29
778.265	1011.18
778.447	1215.98
778.629	1025.52
778.811	1142.25
778.993	1084.91
779.175	1074.67
779.357	1084.91
779.539	955.89
779.721	988.66
779.903	1076.72
780.085	1082.86
780.267	986.61
780.449	1050.1
780.631	1027.57
780.812	1066.48
780.994	902.64
781.176	980.47
781.358	964.08
781.54	974.32
781.721	921.07
781.903	923.12
782.085	962.03
782.267	951.79
782.448	796.15
782.63	890.35
782.812	978.42
782.993	894.45
783.175	876.02
783.357	972.27
783.538	837.11
783.72	824.82
783.901	919.03
784.083	888.31
784.264	794.1
784.446	783.86
784.627	765.43
784.809	837.11
784.99	783.86
785.172	787.96
785.353	871.92
785.535	804.34
785.716	747
785.897	812.53
786.079	697.85
786.26	876.02
786.441	755.19
786.623	716.28
786.804	736.76
786.985	747
787.167	747
787.348	716.28
787.529	691.7
787.71	792.05
787.891	716.28
788.073	677.37
788.254	699.89
788.435	816.63
788.616	656.89
788.797	673.27
788.978	642.55
789.159	667.13
789.34	703.99
789.522	583.16
789.703	583.16
789.884	710.13
790.065	615.93
790.246	759.28
790.427	593.4
790.607	730.61
790.788	607.73
790.969	628.21
791.15	658.93
791.331	542.2
791.512	558.58
791.693	542.2
791.874	499.19
792.054	648.69
792.235	716.28
792.416	531.96
792.597	544.25
792.778	609.78
792.958	617.97
793.139	669.17
793.32	560.63
793.5	525.82
793.681	683.51
793.862	517.62
794.042	511.48
794.223	482.81
794.404	550.39
794.584	552.44
794.765	497.14
794.945	552.44
795.126	536.06
795.306	585.21
795.487	466.42
795.667	521.72
795.848	511.48
796.028	460.28
796.209	476.66
796.389	560.63
796.57	421.37
796.75	534.01
796.93	509.43
797.111	464.38
797.291	435.71
797.471	505.34
797.652	456.19
797.832	466.42
798.012	435.71
798.192	411.13
798.373	488.95
798.553	402.94
798.733	548.34
798.913	447.99
799.093	386.55
799.274	425.47
799.454	437.75
799.634	509.43
799.814	386.55
799.994	484.86
800.174	382.46
800.354	280.06
800.534	353.79
800.714	503.29
800.894	460.28
801.074	398.84
801.254	462.33
801.434	462.33
801.614	400.89
801.794	366.07
801.974	1310.19
802.154	402.94
802.334	456.19
802.514	386.55
802.693	435.71
802.873	353.79
803.053	402.94
803.233	417.27
803.413	419.32
803.592	345.59
803.772	366.07
803.952	427.51
804.131	372.22
804.311	407.03
804.491	386.55
804.67	337.4
804.85	382.46
805.03	497.14
805.209	411.13
805.389	378.36
805.568	343.55
805.748	329.21
805.928	296.44
806.107	390.65
806.287	370.17
806.466	335.35
806.646	275.96
806.825	302.59
807.004	286.2
807.184	306.68
807.363	390.65
807.543	345.59
807.722	343.55
807.901	398.84
808.081	374.27
808.26	241.15
808.439	308.73
808.619	359.93
808.798	243.2
808.977	331.26
809.156	314.88
809.336	257.53
809.515	298.49
809.694	321.02
809.873	288.25
810.052	353.79
810.231	331.26
810.411	325.12
810.59	323.07
810.769	296.44
810.948	304.64
811.127	140.8
811.306	220.67
811.485	253.44
811.664	364.03
811.843	282.11
812.022	241.15
812.201	273.92
812.38	345.59
812.559	241.15
812.737	259.58
812.916	214.52
813.095	241.15
813.274	222.72
813.453	284.16
813.632	263.68
813.811	265.72
813.989	232.96
814.168	306.68
814.347	249.34
814.526	253.44
814.704	296.44
814.883	290.3
815.062	230.91
815.24	255.48
815.419	210.43
815.598	255.48
815.776	249.34
815.955	282.11
816.133	210.43
816.312	267.77
816.49	263.68
816.669	185.85
816.847	173.57
817.026	247.29
817.204	212.48
817.383	286.2
817.561	202.24
817.74	181.76
817.918	235
818.097	198.14
818.275	214.52
818.453	304.64
818.632	230.91
818.81	284.16
818.988	247.29
819.167	185.85
819.345	202.24
819.523	226.81
819.701	151.04
819.879	249.34
820.058	187.9
820.236	224.76
820.414	230.91
820.592	175.61
820.77	200.19
820.948	265.72
821.127	181.76
821.305	261.63
821.483	159.23
821.661	206.33
821.839	280.06
822.017	114.17
822.195	218.62
822.373	239.1
822.551	275.96
822.729	230.91
822.907	208.38
823.085	167.42
823.262	218.62
823.44	171.52
823.618	212.48
823.796	208.38
823.974	230.91
824.152	138.75
824.329	185.85
824.507	148.99
824.685	208.38
824.863	192
825.04	263.68
825.218	173.57
825.396	165.37
825.574	167.42
825.751	189.95
825.929	222.72
826.107	183.81
826.284	142.85
826.462	271.87
826.639	159.23
826.817	118.27
826.994	249.34
827.172	28.16
827.349	183.81
827.527	255.48
827.704	177.66
827.882	243.2
828.059	212.48
828.237	204.28
828.414	232.96
828.591	108.03
828.769	134.65
828.946	153.09
829.124	198.14
829.301	91.65
829.478	126.46
829.655	142.85
829.833	138.75
830.01	114.17
830.187	198.14
830.364	278.01
830.542	142.85
830.719	206.33
830.896	97.79
831.073	77.31
831.25	124.41
831.427	118.27
831.604	142.85
831.782	169.47
831.959	153.09
832.136	105.98
832.313	161.28
832.49	126.46
832.667	136.7
832.844	151.04
833.021	108.03
833.198	126.46
833.374	142.85
833.551	103.93
833.728	144.89
833.905	194.05
834.082	91.65
834.259	159.23
834.436	206.33
834.612	134.65
834.789	112.13
834.966	87.55
835.143	151.04
835.319	134.65
835.496	142.85
835.673	171.52
835.85	167.42
836.026	91.65
836.203	157.18
836.38	165.37
836.556	93.69
836.733	48.64
836.909	198.14
837.086	157.18
837.262	30.21
837.439	52.74
837.616	114.17
837.792	155.13
837.968	114.17
838.145	120.32
838.321	132.61
838.498	179.71
838.674	112.13
838.851	73.21
839.027	58.88
839.203	116.22
839.38	91.65
839.556	32.26
839.732	140.8
839.909	130.56
840.085	126.46
840.261	52.74
840.437	60.93
840.614	87.55
840.79	116.22
840.966	151.04
841.142	151.04
841.318	97.79
841.494	134.65
841.671	110.08
841.847	58.88
842.023	71.17
842.199	112.13
842.375	153.09
842.551	91.65
842.727	36.35
842.903	214.52
843.079	48.64
843.255	151.04
843.431	13.82
843.607	101.89
843.783	-4.61
843.959	91.65
844.134	87.55
844.31	71.17
844.486	67.07
844.662	116.22
844.838	38.4
845.013	134.65
845.189	126.46
845.365	95.74
845.541	101.89
845.716	155.13
845.892	185.85
846.068	22.02
846.244	91.65
846.419	26.11
846.595	79.36
846.77	62.98
846.946	128.51
847.122	22.02
847.297	75.26
847.473	60.93
847.648	93.69
847.824	108.03
847.999	22.02
848.175	48.64
848.35	83.45
848.526	140.8
848.701	103.93
848.876	99.84
849.052	95.74
849.227	9.73
849.403	71.17
849.578	108.03
849.753	75.26
849.929	108.03
850.104	-37.38
850.279	118.27
850.454	62.98
850.63	128.51
850.805	73.21
850.98	91.65
851.155	17.92
851.33	138.75
851.505	-0.51
851.681	110.08
851.856	24.06
852.031	101.89
852.206	67.07
852.381	15.87
852.556	85.5
852.731	144.89
852.906	93.69
853.081	124.41
853.256	89.6
853.431	81.41
853.606	52.74
853.781	15.87
853.956	30.21
854.131	177.66
854.305	79.36
854.48	48.64
854.655	13.82
854.83	30.21
855.005	28.16
855.18	50.69
855.354	120.32
855.529	11.78
855.704	40.45
855.879	99.84
856.053	22.02
856.228	50.69
856.403	42.5
856.577	62.98
856.752	42.5
856.926	36.35
857.101	15.87
857.276	-10.75
857.45	50.69
857.625	58.88
857.799	112.13
857.974	30.21
858.148	-18.94
858.323	56.83
858.497	75.26
858.672	40.45
858.846	15.87
859.02	77.31
859.195	-18.94
859.369	36.35
859.543	-31.23
859.718	46.59
859.892	136.7
860.066	97.79
860.241	34.3
860.415	5.63
860.589	40.45
860.763	124.41
860.938	5.63
861.112	-10.75
861.286	38.4
861.46	42.5
861.634	28.16
861.808	69.12
861.982	38.4
862.157	75.26
862.331	58.88
862.505	34.3
862.679	13.82
862.853	36.35
863.027	22.02
863.201	132.61
863.375	-16.9
863.549	48.64
863.722	75.26
863.896	97.79
864.07	11.78
864.244	54.78
864.418	42.5
864.592	34.3
864.766	-41.47
864.939	97.79
865.113	56.83
865.287	142.85
865.461	62.98
865.634	75.26
865.808	1.54
865.982	79.36
866.156	-27.14
866.329	11.78
866.503	3.58
866.676	60.93
866.85	-12.8
867.024	9.73
867.197	124.41
867.371	89.6
867.544	26.11
867.718	28.16
867.891	148.99
868.065	1.54
868.238	11.78
868.412	50.69
868.585	42.5
868.759	-51.71
868.932	69.12
869.105	-47.62
869.279	1.54
869.452	-23.04
869.625	19.97
869.799	87.55
869.972	-14.85
870.145	108.03
870.319	91.65
870.492	3.58
870.665	5.63
870.838	-0.51
871.011	-43.52
871.185	79.36
871.358	-4.61
871.531	44.54
871.704	60.93
871.877	48.64
872.05	17.92
872.223	67.07
872.396	58.88
872.569	69.12
872.742	-29.18
872.915	-29.18
873.088	1.54
873.261	28.16
873.434	28.16
873.607	-12.8
873.78	144.89
873.953	11.78
874.126	50.69
874.299	112.13
874.471	5.63
874.644	-14.85
874.817	77.31
874.99	118.27
875.163	-16.9
875.335	36.35
875.508	-20.99
875.681	19.97
875.853	62.98
876.026	62.98
876.199	105.98
876.371	42.5
876.544	-23.04
876.717	-6.66
876.889	36.35
877.062	-23.04
877.234	40.45
877.407	-31.23
877.579	46.59
877.752	17.92
877.924	46.59
878.097	81.41
878.269	11.78
878.442	54.78
878.614	9.73
878.786	3.58
878.959	52.74
879.131	44.54
879.303	-27.14
879.476	38.4
879.648	85.5
879.82	3.58
879.993	46.59
880.165	-59.9
880.337	-51.71
880.509	30.21
880.681	-86.53
880.854	19.97
881.026	38.4
881.198	67.07
881.37	-27.14
881.542	-18.94
881.714	-6.66
881.886	85.5
882.058	-35.33
882.23	67.07
882.402	19.97
882.574	75.26
882.746	-0.51
882.918	79.36
883.09	38.4
883.262	1.54
883.434	67.07
883.606	5.63
883.778	32.26
883.95	17.92
884.122	9.73
884.293	54.78
884.465	3.58
884.637	44.54
884.809	-18.94
884.98	77.31
885.152	112.13
885.324	-6.66
885.496	-29.18
885.667	11.78
885.839	19.97
886.011	56.83
886.182	58.88
886.354	67.07
886.525	15.87
886.697	83.45
886.869	65.02
887.04	40.45
887.212	15.87
887.383	118.27
887.555	-4.61
887.726	19.97
887.897	71.17
888.069	67.07
888.24	30.21
888.412	-4.61
888.583	-6.66
888.754	40.45
888.926	69.12
889.097	3.58
889.268	-12.8
889.44	-0.51
889.611	-29.18
889.782	-55.81
889.953	-74.24
890.125	69.12
890.296	-39.42
890.467	26.11
890.638	19.97
890.809	-39.42
890.98	1.54
891.151	11.78
891.323	-2.56
891.494	5.63
891.665	93.69
891.836	9.73
892.007	71.17
892.178	-10.75
892.349	11.78
892.52	1.54
892.691	44.54
892.862	48.64
893.032	7.68
893.203	-12.8
893.374	17.92
893.545	99.84
893.716	-14.85
893.887	101.89
894.057	58.88
894.228	9.73
894.399	50.69
894.57	91.65
894.74	7.68
894.911	91.65
895.082	3.58
895.253	19.97
895.423	28.16
895.594	95.74
895.764	19.97
895.935	3.58
896.106	62.98
896.276	1.54
896.447	34.3
896.617	1.54
896.788	1.54
896.958	-37.38
897.129	-8.7
897.299	15.87
897.47	128.51
897.64	77.31
897.81	-35.33
897.981	5.63
898.151	-39.42
898.322	89.6
898.492	97.79
898.662	-53.76
898.832	-0.51
899.003	50.69
899.173	140.8
899.343	-8.7
899.513	-4.61
