Data from USB4F104151__15__13-04-30-170.txt Node

Date: Fri Mar 14 13:04:30 EDT 2025
User: louis
Spectrometer: USB4F10415
Trigger mode: 4
Integration Time (sec): 4.000000E-2
Scans to average: 1
Electric dark correction enabled: true
Nonlinearity correction enabled: false
Boxcar width: 0
XAxis mode: Wavelengths
Number of Pixels in Spectrum: 3648
>>>>>Begin Spectral Data<<<<<
178.204	-155.13
178.424	-155.13
178.644	-155.13
178.864	-259.58
179.084	-177.66
179.304	43.52
179.524	4.61
179.744	2.56
179.964	61.95
180.184	74.24
180.404	39.42
180.624	10.75
180.844	-83.45
181.064	-44.54
181.283	-58.88
181.503	-36.35
181.723	-13.82
181.943	-89.6
182.163	123.39
182.383	20.99
182.602	12.8
182.822	86.53
183.042	119.29
183.262	43.52
183.482	16.9
183.701	4.61
183.921	37.38
184.141	84.48
184.361	57.86
184.58	119.29
184.8	-3.58
185.02	31.23
185.239	37.38
185.459	8.7
185.679	66.05
185.898	-9.73
186.118	45.57
186.338	20.99
186.557	55.81
186.777	-9.73
186.997	-26.11
187.216	0.51
187.436	96.77
187.655	119.29
187.875	49.66
188.095	31.23
188.314	51.71
188.534	102.91
188.753	43.52
188.973	94.72
189.192	90.62
189.412	20.99
189.631	55.81
189.851	90.62
190.07	53.76
190.29	-3.58
190.509	82.43
190.729	-1.54
190.948	49.66
191.168	213.5
191.387	76.29
191.607	-28.16
191.826	64
192.045	119.29
192.265	37.38
192.484	10.75
192.704	35.33
192.923	-13.82
193.142	158.21
193.362	-5.63
193.581	43.52
193.8	68.09
194.02	47.62
194.239	41.47
194.458	-7.68
194.678	90.62
194.897	131.58
195.116	61.95
195.335	47.62
195.555	43.52
195.774	111.1
195.993	-17.92
196.212	49.66
196.432	25.09
196.651	-65.02
196.87	20.99
197.089	53.76
197.308	37.38
197.528	59.9
197.747	-56.83
197.966	10.75
198.185	127.49
198.404	8.7
198.623	6.66
198.842	57.86
199.062	43.52
199.281	47.62
199.5	10.75
199.719	51.71
199.938	16.9
200.157	84.48
200.376	49.66
200.595	35.33
200.814	59.9
201.033	-26.11
201.252	66.05
201.471	-19.97
201.69	117.25
201.909	-3.58
202.128	94.72
202.347	86.53
202.566	20.99
202.785	25.09
203.004	35.33
203.223	131.58
203.442	39.42
203.661	8.7
203.879	23.04
204.098	29.18
204.317	-7.68
204.536	-3.58
204.755	25.09
204.974	90.62
205.193	57.86
205.411	96.77
205.63	-11.78
205.849	74.24
206.068	59.9
206.287	39.42
206.505	98.81
206.724	16.9
206.943	53.76
207.162	117.25
207.381	125.44
207.599	10.75
207.818	125.44
208.037	6.66
208.255	39.42
208.474	2.56
208.693	102.91
208.911	-22.02
209.13	18.94
209.349	143.87
209.567	70.14
209.786	-7.68
210.005	94.72
210.223	41.47
210.442	-5.63
210.661	6.66
210.879	10.75
211.098	23.04
211.316	74.24
211.535	0.51
211.753	92.67
211.972	10.75
212.191	39.42
212.409	16.9
212.628	66.05
212.846	45.57
213.065	41.47
213.283	8.7
213.502	57.86
213.72	70.14
213.938	-3.58
214.157	-15.87
214.375	39.42
214.594	59.9
214.812	74.24
215.031	18.94
215.249	88.57
215.467	-3.58
215.686	27.14
215.904	86.53
216.122	53.76
216.341	64
216.559	-3.58
216.778	107.01
216.996	4.61
217.214	-9.73
217.432	74.24
217.651	43.52
217.869	10.75
218.087	-1.54
218.306	61.95
218.524	57.86
218.742	10.75
218.96	82.43
219.179	-7.68
219.397	70.14
219.615	86.53
219.833	-1.54
220.051	2.56
220.27	4.61
220.488	25.09
220.706	64
220.924	-5.63
221.142	61.95
221.36	29.18
221.578	80.38
221.796	29.18
222.015	33.28
222.233	43.52
222.451	113.15
222.669	37.38
222.887	107.01
223.105	14.85
223.323	-38.4
223.541	18.94
223.759	25.09
223.977	33.28
224.195	27.14
224.413	59.9
224.631	125.44
224.849	70.14
225.067	135.68
225.285	43.52
225.503	92.67
225.721	-44.54
225.939	16.9
226.157	25.09
226.375	184.83
226.592	64
226.81	92.67
227.028	57.86
227.246	102.91
227.464	70.14
227.682	78.33
227.9	96.77
228.117	49.66
228.335	39.42
228.553	-40.45
228.771	37.38
228.989	35.33
229.206	70.14
229.424	25.09
229.642	59.9
229.86	10.75
230.077	82.43
230.295	66.05
230.513	20.99
230.731	57.86
230.948	129.53
231.166	117.25
231.384	61.95
231.601	39.42
231.819	74.24
232.037	8.7
232.254	-38.4
232.472	45.57
232.689	-13.82
232.907	-28.16
233.125	98.81
233.342	6.66
233.56	53.76
233.777	4.61
233.995	53.76
234.213	27.14
234.43	70.14
234.648	31.23
234.865	57.86
235.083	57.86
235.3	51.71
235.518	16.9
235.735	96.77
235.953	88.57
236.17	94.72
236.388	4.61
236.605	43.52
236.822	84.48
237.04	109.05
237.257	90.62
237.475	74.24
237.692	94.72
237.909	27.14
238.127	-1.54
238.344	20.99
238.562	27.14
238.779	68.09
238.996	-67.07
239.214	57.86
239.431	92.67
239.648	115.2
239.865	35.33
240.083	41.47
240.3	16.9
240.517	-26.11
240.735	-3.58
240.952	39.42
241.169	64
241.386	51.71
241.603	84.48
241.821	-3.58
242.038	119.29
242.255	61.95
242.472	4.61
242.689	82.43
242.907	111.1
243.124	33.28
243.341	25.09
243.558	27.14
243.775	57.86
243.992	23.04
244.209	31.23
244.426	43.52
244.643	74.24
244.86	64
245.078	80.38
245.295	47.62
245.512	41.47
245.729	31.23
245.946	80.38
246.163	74.24
246.38	61.95
246.597	88.57
246.814	88.57
247.031	27.14
247.248	90.62
247.464	127.49
247.681	-11.78
247.898	43.52
248.115	31.23
248.332	41.47
248.549	72.19
248.766	115.2
248.983	72.19
249.2	70.14
249.417	33.28
249.633	10.75
249.85	82.43
250.067	107.01
250.284	90.62
250.501	31.23
250.717	137.73
250.934	55.81
251.151	113.15
251.368	59.9
251.585	78.33
251.801	35.33
252.018	41.47
252.235	158.21
252.451	-11.78
252.668	-15.87
252.885	-7.68
253.102	109.05
253.318	59.9
253.535	92.67
253.752	-7.68
253.968	20.99
254.185	-32.26
254.401	-36.35
254.618	51.71
254.835	72.19
255.051	98.81
255.268	72.19
255.484	104.96
255.701	45.57
255.917	119.29
256.134	57.86
256.351	82.43
256.567	23.04
256.784	31.23
257	-73.21
257.217	31.23
257.433	-22.02
257.65	92.67
257.866	143.87
258.082	57.86
258.299	-85.5
258.515	104.96
258.732	8.7
258.948	29.18
259.165	27.14
259.381	-24.06
259.597	64
259.814	104.96
260.03	74.24
260.246	53.76
260.463	49.66
260.679	109.05
260.895	68.09
261.112	14.85
261.328	33.28
261.544	45.57
261.761	184.83
261.977	94.72
262.193	33.28
262.409	2.56
262.626	78.33
262.842	90.62
263.058	-26.11
263.274	94.72
263.49	70.14
263.707	25.09
263.923	111.1
264.139	16.9
264.355	53.76
264.571	45.57
264.787	10.75
265.004	8.7
265.22	43.52
265.436	8.7
265.652	90.62
265.868	66.05
266.084	61.95
266.3	6.66
266.516	-48.64
266.732	25.09
266.948	117.25
267.164	10.75
267.38	51.71
267.596	14.85
267.812	111.1
268.028	53.76
268.244	-11.78
268.46	16.9
268.676	-13.82
268.892	12.8
269.108	45.57
269.324	-19.97
269.54	82.43
269.756	68.09
269.972	0.51
270.188	2.56
270.403	57.86
270.619	37.38
270.835	33.28
271.051	53.76
271.267	92.67
271.483	23.04
271.698	98.81
271.914	90.62
272.13	47.62
272.346	-7.68
272.562	66.05
272.777	74.24
272.993	43.52
273.209	43.52
273.425	104.96
273.64	-13.82
273.856	82.43
274.072	14.85
274.287	0.51
274.503	107.01
274.719	37.38
274.934	2.56
275.15	-28.16
275.366	84.48
275.581	27.14
275.797	45.57
276.012	92.67
276.228	10.75
276.444	-15.87
276.659	84.48
276.875	33.28
277.09	-36.35
277.306	51.71
277.521	74.24
277.737	86.53
277.952	59.9
278.168	39.42
278.383	47.62
278.599	84.48
278.814	51.71
279.03	29.18
279.245	115.2
279.461	47.62
279.676	59.9
279.892	10.75
280.107	51.71
280.322	-56.83
280.538	123.39
280.753	-34.3
280.969	102.91
281.184	37.38
281.399	-7.68
281.615	-1.54
281.83	16.9
282.045	-5.63
282.26	-48.64
282.476	27.14
282.691	86.53
282.906	33.28
283.122	61.95
283.337	18.94
283.552	14.85
283.767	-28.16
283.983	41.47
284.198	49.66
284.413	49.66
284.628	20.99
284.843	47.62
285.058	49.66
285.274	27.14
285.489	2.56
285.704	41.47
285.919	-48.64
286.134	-34.3
286.349	8.7
286.564	33.28
286.779	100.86
286.995	29.18
287.21	-3.58
287.425	29.18
287.64	8.7
287.855	68.09
288.07	45.57
288.285	107.01
288.5	49.66
288.715	139.77
288.93	51.71
289.145	-9.73
289.36	107.01
289.575	4.61
289.79	43.52
290.004	-38.4
290.219	41.47
290.434	98.81
290.649	10.75
290.864	37.38
291.079	18.94
291.294	-7.68
291.509	25.09
291.724	100.86
291.938	37.38
292.153	96.77
292.368	-32.26
292.583	90.62
292.798	88.57
293.012	66.05
293.227	82.43
293.442	25.09
293.657	82.43
293.871	107.01
294.086	64
294.301	72.19
294.516	82.43
294.73	66.05
294.945	18.94
295.16	45.57
295.374	86.53
295.589	49.66
295.804	27.14
296.018	76.29
296.233	123.39
296.447	-3.58
296.662	64
296.877	115.2
297.091	25.09
297.306	16.9
297.52	35.33
297.735	29.18
297.949	10.75
298.164	33.28
298.378	33.28
298.593	-22.02
298.807	55.81
299.022	-36.35
299.236	111.1
299.451	64
299.665	10.75
299.88	55.81
300.094	111.1
300.309	84.48
300.523	41.47
300.737	10.75
300.952	23.04
301.166	55.81
301.381	20.99
301.595	70.14
301.809	-30.21
302.024	10.75
302.238	96.77
302.452	139.77
302.667	119.29
302.881	104.96
303.095	53.76
303.309	90.62
303.524	92.67
303.738	23.04
303.952	29.18
304.166	41.47
304.381	-62.98
304.595	59.9
304.809	41.47
305.023	29.18
305.237	-7.68
305.452	-11.78
305.666	33.28
305.88	31.23
306.094	31.23
306.308	70.14
306.522	51.71
306.736	57.86
306.95	74.24
307.164	92.67
307.379	98.81
307.593	147.97
307.807	107.01
308.021	57.86
308.235	152.06
308.449	-30.21
308.663	59.9
308.877	147.97
309.091	-3.58
309.305	8.7
309.519	-15.87
309.733	115.2
309.947	-17.92
310.161	164.35
310.374	25.09
310.588	104.96
310.802	8.7
311.016	41.47
311.23	88.57
311.444	-62.98
311.658	96.77
311.872	45.57
312.085	113.15
312.299	141.82
312.513	131.58
312.727	61.95
312.941	-11.78
313.154	76.29
313.368	59.9
313.582	-7.68
313.796	166.4
314.009	86.53
314.223	70.14
314.437	92.67
314.651	68.09
314.864	47.62
315.078	25.09
315.292	37.38
315.505	18.94
315.719	111.1
315.933	76.29
316.146	117.25
316.36	8.7
316.573	98.81
316.787	100.86
317.001	78.33
317.214	-7.68
317.428	57.86
317.641	61.95
317.855	96.77
318.068	29.18
318.282	39.42
318.495	131.58
318.709	82.43
318.922	57.86
319.136	82.43
319.349	78.33
319.563	-54.78
319.776	45.57
319.99	-17.92
320.203	12.8
320.417	33.28
320.63	80.38
320.843	145.92
321.057	61.95
321.27	18.94
321.483	98.81
321.697	76.29
321.91	-32.26
322.124	53.76
322.337	51.71
322.55	53.76
322.763	12.8
322.977	12.8
323.19	-9.73
323.403	88.57
323.617	43.52
323.83	143.87
324.043	33.28
324.256	64
324.469	-19.97
324.683	78.33
324.896	70.14
325.109	115.2
325.322	-28.16
325.535	104.96
325.748	117.25
325.962	41.47
326.175	53.76
326.388	53.76
326.601	74.24
326.814	86.53
327.027	57.86
327.24	57.86
327.453	-46.59
327.666	49.66
327.879	80.38
328.092	70.14
328.305	57.86
328.518	41.47
328.731	14.85
328.944	51.71
329.157	78.33
329.37	-19.97
329.583	180.73
329.796	109.05
330.009	-3.58
330.222	6.66
330.435	86.53
330.648	88.57
330.861	37.38
331.073	55.81
331.286	47.62
331.499	92.67
331.712	-40.45
331.925	66.05
332.138	68.09
332.35	111.1
332.563	12.8
332.776	117.25
332.989	-1.54
333.202	76.29
333.414	57.86
333.627	68.09
333.84	74.24
334.053	176.64
334.265	25.09
334.478	82.43
334.691	29.18
334.903	98.81
335.116	23.04
335.329	80.38
335.541	74.24
335.754	70.14
335.966	113.15
336.179	47.62
336.392	6.66
336.604	2.56
336.817	92.67
337.029	64
337.242	92.67
337.454	41.47
337.667	88.57
337.88	141.82
338.092	74.24
338.305	59.9
338.517	20.99
338.729	111.1
338.942	147.97
339.154	25.09
339.367	4.61
339.579	16.9
339.792	0.51
340.004	35.33
340.217	117.25
340.429	76.29
340.641	2.56
340.854	0.51
341.066	55.81
341.278	156.16
341.491	109.05
341.703	27.14
341.915	37.38
342.128	94.72
342.34	12.8
342.552	-50.69
342.764	-1.54
342.977	14.85
343.189	125.44
343.401	29.18
343.613	-60.93
343.826	49.66
344.038	-7.68
344.25	43.52
344.462	16.9
344.674	100.86
344.886	64
345.099	0.51
345.311	41.47
345.523	72.19
345.735	-24.06
345.947	104.96
346.159	94.72
346.371	37.38
346.583	121.34
346.795	141.82
347.007	4.61
347.219	107.01
347.431	107.01
347.643	76.29
347.855	23.04
348.067	139.77
348.279	29.18
348.491	59.9
348.703	98.81
348.915	94.72
349.127	23.04
349.339	123.39
349.551	33.28
349.763	92.67
349.975	66.05
350.187	90.62
350.399	104.96
350.61	113.15
350.822	8.7
351.034	98.81
351.246	107.01
351.458	55.81
351.669	25.09
351.881	33.28
352.093	84.48
352.305	123.39
352.517	90.62
352.728	107.01
352.94	45.57
353.152	51.71
353.363	53.76
353.575	86.53
353.787	96.77
353.999	94.72
354.21	123.39
354.422	76.29
354.633	59.9
354.845	59.9
355.057	41.47
355.268	2.56
355.48	117.25
355.692	20.99
355.903	51.71
356.115	0.51
356.326	-1.54
356.538	150.01
356.749	121.34
356.961	129.53
357.172	78.33
357.384	51.71
357.595	133.63
357.807	51.71
358.018	-32.26
358.23	-17.92
358.441	131.58
358.653	143.87
358.864	84.48
359.075	64
359.287	27.14
359.498	49.66
359.709	-3.58
359.921	64
360.132	127.49
360.344	70.14
360.555	61.95
360.766	23.04
360.977	25.09
361.189	66.05
361.4	41.47
361.611	68.09
361.823	70.14
362.034	0.51
362.245	6.66
362.456	-32.26
362.667	66.05
362.879	12.8
363.09	27.14
363.301	119.29
363.512	45.57
363.723	33.28
363.935	64
364.146	96.77
364.357	53.76
364.568	104.96
364.779	10.75
364.99	82.43
365.201	-5.63
365.412	121.34
365.623	-7.68
365.834	57.86
366.045	61.95
366.256	107.01
366.467	84.48
366.678	-7.68
366.889	18.94
367.1	25.09
367.311	115.2
367.522	-40.45
367.733	66.05
367.944	121.34
368.155	100.86
368.366	66.05
368.577	94.72
368.788	70.14
368.999	33.28
369.209	70.14
369.42	86.53
369.631	203.26
369.842	68.09
370.053	55.81
370.264	61.95
370.474	20.99
370.685	84.48
370.896	82.43
371.107	88.57
371.317	37.38
371.528	0.51
371.739	84.48
371.95	20.99
372.16	102.91
372.371	-24.06
372.582	-1.54
372.792	123.39
373.003	35.33
373.214	27.14
373.424	115.2
373.635	39.42
373.846	125.44
374.056	80.38
374.267	61.95
374.477	-15.87
374.688	31.23
374.898	96.77
375.109	72.19
375.319	88.57
375.53	104.96
375.74	82.43
375.951	66.05
376.161	102.91
376.372	61.95
376.582	96.77
376.793	92.67
377.003	47.62
377.214	78.33
377.424	100.86
377.635	59.9
377.845	94.72
378.055	123.39
378.266	2.56
378.476	74.24
378.686	43.52
378.897	68.09
379.107	98.81
379.317	92.67
379.528	86.53
379.738	125.44
379.948	10.75
380.158	104.96
380.369	51.71
380.579	119.29
380.789	121.34
380.999	133.63
381.21	119.29
381.42	145.92
381.63	117.25
381.84	59.9
382.05	80.38
382.261	80.38
382.471	88.57
382.681	74.24
382.891	123.39
383.101	45.57
383.311	23.04
383.521	59.9
383.731	109.05
383.941	76.29
384.151	84.48
384.361	47.62
384.571	49.66
384.781	27.14
384.991	90.62
385.201	172.54
385.411	70.14
385.621	139.77
385.831	102.91
386.041	68.09
386.251	70.14
386.461	72.19
386.671	102.91
386.881	20.99
387.091	27.14
387.301	92.67
387.511	94.72
387.72	113.15
387.93	98.81
388.14	-22.02
388.35	90.62
388.56	143.87
388.769	141.82
388.979	117.25
389.189	72.19
389.399	109.05
389.609	86.53
389.818	215.55
390.028	98.81
390.238	86.53
390.447	66.05
390.657	133.63
390.867	68.09
391.076	-15.87
391.286	51.71
391.496	92.67
391.705	100.86
391.915	45.57
392.125	141.82
392.334	90.62
392.544	104.96
392.753	49.66
392.963	-7.68
393.172	113.15
393.382	90.62
393.591	109.05
393.801	57.86
394.01	115.2
394.22	45.57
394.429	139.77
394.639	98.81
394.848	123.39
395.058	98.81
395.267	94.72
395.477	107.01
395.686	119.29
395.895	156.16
396.105	188.93
396.314	98.81
396.524	68.09
396.733	121.34
396.942	131.58
397.152	225.79
397.361	186.88
397.57	123.39
397.78	188.93
397.989	174.59
398.198	199.16
398.407	90.62
398.617	133.63
398.826	117.25
399.035	49.66
399.244	197.12
399.453	156.16
399.663	156.16
399.872	213.5
400.081	111.1
400.29	227.84
400.499	92.67
400.708	121.34
400.917	197.12
401.127	143.87
401.336	82.43
401.545	229.88
401.754	86.53
401.963	195.07
402.172	80.38
402.381	117.25
402.59	109.05
402.799	131.58
403.008	176.64
403.217	182.78
403.426	143.87
403.635	98.81
403.844	182.78
404.053	182.78
404.262	199.16
404.471	174.59
404.68	197.12
404.888	244.22
405.097	172.54
405.306	188.93
405.515	246.27
405.724	250.36
405.933	203.26
406.142	190.97
406.35	303.61
406.559	293.37
406.768	180.73
406.977	270.84
407.185	256.51
407.394	266.75
407.603	250.36
407.812	317.95
408.02	344.57
408.229	283.13
408.438	219.64
408.646	301.56
408.855	301.56
409.064	422.39
409.272	342.52
409.481	393.72
409.69	315.9
409.898	350.71
410.107	354.81
410.315	387.58
410.524	320
410.733	426.49
410.941	446.97
411.15	393.72
411.358	406.01
411.567	465.4
411.775	541.18
411.984	483.83
412.192	500.22
412.401	535.03
412.609	594.42
412.818	592.37
413.026	606.71
413.234	567.8
413.443	594.42
413.651	602.61
413.86	700.92
414.068	766.45
414.276	803.32
414.485	770.55
414.693	786.93
414.901	780.79
415.11	836.08
415.318	797.17
415.526	950.77
415.734	897.52
415.943	938.48
416.151	993.78
416.359	1032.69
416.567	1061.36
416.776	1057.26
416.984	1176.05
417.192	1272.3
417.4	1196.53
417.608	1153.52
417.817	1360.36
418.025	1368.56
418.233	1413.61
418.441	1391.08
418.649	1417.71
418.857	1520.1
419.065	1489.39
419.273	1583.59
419.481	1640.93
419.689	1761.77
419.897	1798.63
420.105	1851.88
420.313	1958.37
420.521	1970.66
420.729	1935.84
420.937	1982.95
421.145	2220.51
421.353	2214.37
421.561	2302.43
421.769	2367.96
421.977	2499.03
422.185	2431.45
422.393	2542.04
422.601	2748.89
422.809	2752.98
423.017	2728.41
423.224	3035.6
423.432	3035.6
423.64	2974.16
423.848	3316.17
424.056	3195.34
424.263	3432.91
424.471	3437
424.679	3549.64
424.887	3598.79
425.094	3867.08
425.302	3822.02
425.51	4014.53
425.718	4104.64
425.925	4198.85
426.133	4334.01
426.341	4598.2
426.548	4762.04
426.756	4755.9
426.964	4940.21
427.171	5032.37
427.379	5237.17
427.586	5353.9
427.794	5513.64
428.001	5712.3
428.209	5910.95
428.417	5863.85
428.624	6205.86
428.832	6341.02
429.039	6234.53
429.247	6371.74
429.454	6936.98
429.662	7405.97
429.869	6951.32
430.076	7401.87
430.284	7117.2
430.491	7518.61
430.699	7985.54
430.906	8184.2
431.114	7997.83
431.321	8427.9
431.528	8382.85
431.736	8847.74
431.943	9372.02
432.15	9111.92
432.358	9240.95
432.565	9945.45
432.772	9613.68
432.979	10137.96
433.187	10416.48
433.394	10479.97
433.601	11356.5
433.808	11229.52
434.016	11215.19
434.223	11657.55
434.43	12388.67
434.637	11845.96
434.844	12796.22
435.052	13201.72
435.259	12986.68
435.466	13091.13
435.673	13087.03
435.88	13619.5
436.087	14526.75
436.294	14709.02
436.501	14403.88
436.708	14680.35
436.915	15196.44
437.122	15636.75
437.329	15499.54
437.537	16091.4
437.743	16468.23
437.95	16042.25
438.157	17326.33
438.364	17604.85
438.571	17813.74
438.778	17774.83
438.985	19593.43
439.192	18733.28
439.399	19077.34
439.606	18704.61
439.813	20146.38
440.02	21022.91
440.227	20816.07
440.433	20621.51
440.64	21147.84
440.847	21086.4
441.054	21491.9
441.261	23197.85
441.467	22999.2
441.674	23337.12
441.881	24074.38
442.088	24094.86
442.294	23605.4
442.501	24653.96
442.708	24830.09
442.914	26103.92
443.121	27129.95
443.328	26417.26
443.534	28186.71
443.741	27326.56
443.948	26771.56
444.154	29016.13
444.361	28973.13
444.568	29014.09
444.774	29040.71
444.981	29280.32
445.187	30482.48
445.394	31709.21
445.6	31180.84
445.807	34150.39
446.013	32763.92
446.22	33267.72
446.426	34910.19
446.633	34615.28
446.839	35856.35
447.046	34748.4
447.252	36607.95
447.459	36501.46
447.665	36560.85
447.871	37984.19
448.078	39509.93
448.284	38154.17
448.491	38617.01
448.697	40447.89
448.903	40976.27
449.11	40988.56
449.316	40742.8
449.522	41308.04
449.728	42481.53
449.935	42618.74
450.141	42798.96
450.347	43898.72
450.553	42286.97
450.76	42962.8
450.966	44558.17
451.172	43669.35
451.378	45027.15
451.584	43761.51
451.791	45070.16
451.997	45209.42
452.203	45516.62
452.409	46022.47
452.615	45459.27
452.821	43997.02
453.027	43902.82
453.233	45821.76
453.44	44142.43
453.646	44412.76
453.852	44474.2
454.058	45590.34
454.264	44126.05
454.47	44748.63
454.676	44023.65
454.882	45346.64
455.088	41600.9
455.294	42135.42
455.5	43116.4
455.705	43433.83
455.911	41883.52
456.117	40736.66
456.323	40466.33
456.529	38547.38
456.735	39913.37
456.941	38946.73
457.147	38025.15
457.352	37134.28
457.558	36448.21
457.764	37085.13
457.97	36192.22
458.176	35438.56
458.381	35143.66
458.587	33847.29
458.793	33445.89
458.999	31725.6
459.204	34451.44
459.41	33314.82
459.616	30945.32
459.821	31055.91
460.027	31209.51
460.233	30214.19
460.438	28999.75
460.644	29390.91
460.85	27940.95
461.055	27418.72
461.261	27361.37
461.466	25280.64
461.672	24248.46
461.878	26171.5
462.083	24377.48
462.289	24191.12
462.494	23625.88
462.7	22925.47
462.905	22356.14
463.111	23038.11
463.316	23105.7
463.522	22417.58
463.727	22591.66
463.932	22612.13
464.138	21999.79
464.343	22208.69
464.549	21504.18
464.754	22413.48
464.959	22077.62
465.165	21993.65
465.37	21186.75
465.575	20508.87
465.781	21293.24
465.986	21510.33
466.191	20609.22
466.397	20144.33
466.602	19292.38
466.807	19921.1
467.012	20019.41
467.218	20029.65
467.423	19753.17
467.628	19824.85
467.833	20613.32
468.038	20072.65
468.244	19423.45
468.449	20373.71
468.654	19284.19
468.859	19435.74
469.064	19310.81
469.269	18538.73
469.474	18594.02
469.679	18919.65
469.885	18413.8
470.09	18727.14
470.295	18677.99
470.5	17823.98
470.705	18104.56
470.91	17631.47
471.115	17596.66
471.32	17955.05
471.525	17922.29
471.73	17527.03
471.935	17199.35
472.139	16681.22
472.344	16929.02
472.549	16789.76
472.754	16830.72
472.959	16468.23
473.164	15739.15
473.369	15759.63
473.574	16105.74
473.778	16048.4
473.983	15948.04
474.188	15816.97
474.393	15132.95
474.598	15499.54
474.802	15071.51
475.007	15114.52
475.212	15098.14
475.417	14412.07
475.621	14666.02
475.826	14367.01
476.031	14156.07
476.235	13863.21
476.44	14328.1
476.645	13930.8
476.849	13668.66
477.054	13556.02
477.259	13652.27
477.463	13717.81
477.668	13390.13
477.872	13484.34
478.077	13091.13
478.282	12861.76
478.486	12728.64
478.691	12665.15
478.895	12552.51
479.1	12589.38
479.304	12689.73
479.509	12249.41
479.713	12302.66
479.918	12118.34
480.122	12013.9
480.326	12132.68
480.531	12042.57
480.735	11895.11
480.94	11813.2
481.144	12134.73
481.348	11538.77
481.553	11927.88
481.757	11637.07
481.961	11688.27
482.166	11868.49
482.37	11645.26
482.574	11657.55
482.778	11536.72
482.983	11690.32
483.187	11632.97
483.391	11798.86
483.595	11745.61
483.8	11389.27
484.004	11626.83
484.208	11755.85
484.412	11524.43
484.616	11583.82
484.821	11514.19
485.025	11198.81
485.229	11721.04
485.433	11628.88
485.637	11688.27
485.841	11659.6
486.045	11379.03
486.249	11673.93
486.453	11247.96
486.657	11741.52
486.861	11551.06
487.065	11344.21
487.269	11600.21
487.473	11415.89
487.677	11659.6
487.881	11886.92
488.085	11534.67
488.289	11751.76
488.493	11356.5
488.697	11743.56
488.901	11635.02
489.105	11495.76
489.309	11544.91
489.512	11575.63
489.716	11534.67
489.92	11764.04
490.124	11673.93
490.328	12007.75
490.531	11739.47
490.735	11698.51
490.939	11934.03
491.143	11692.37
491.346	11852.11
491.55	12151.11
491.754	12030.28
491.958	11993.42
492.161	11784.52
492.365	12073.29
492.569	12134.73
492.772	12230.98
492.976	12312.9
493.18	12374.34
493.383	12491.07
493.587	12677.44
493.79	12544.32
493.994	12427.59
494.197	12689.73
494.401	12687.68
494.605	12716.35
494.808	12974.39
495.012	12851.52
495.215	13060.41
495.419	13179.19
495.622	13050.17
495.825	13496.63
496.029	13320.5
496.232	13625.65
496.436	13574.45
496.639	13637.94
496.843	13637.94
497.046	13975.85
497.249	14014.76
497.453	14264.61
497.656	14477.6
497.859	14426.4
498.063	14684.45
498.266	14936.35
498.469	14799.13
498.673	14913.82
498.876	15208.73
499.079	15440.15
499.282	15223.06
499.485	15812.88
499.689	15747.34
499.892	16032.01
500.095	16185.61
500.298	16400.65
500.501	16322.82
500.705	16752.9
500.908	16859.39
501.111	17187.07
501.314	17115.39
501.517	17541.36
501.72	17688.82
501.923	17662.19
502.126	18194.67
502.329	18364.65
502.532	18327.78
502.735	18333.93
502.938	18632.93
503.141	19116.25
503.344	19259.61
503.547	18962.65
503.75	19327.19
503.953	19908.82
504.156	19855.57
504.359	20297.93
504.562	20234.44
504.765	20707.52
504.968	20713.67
505.17	21076.16
505.373	20863.17
505.576	21448.89
505.779	21770.42
505.982	21635.25
506.185	22177.97
506.387	22282.41
506.59	22468.78
506.793	23109.79
506.996	23025.82
507.198	23400.6
507.401	23269.53
507.604	23773.33
507.807	24223.89
508.009	24504.46
508.212	24109.2
508.415	24559.75
508.617	24819.85
508.82	24955.01
509.022	24950.92
509.225	25796.73
509.428	25919.6
509.63	26120.31
509.833	25985.14
510.035	26816.61
510.238	26591.34
510.44	27136.1
510.643	27111.52
510.845	27713.63
511.048	27433.05
511.25	27938.9
511.453	27879.51
511.655	29171.78
511.858	28938.31
512.06	29030.47
512.262	29296.7
512.465	29067.33
512.667	29950.01
512.87	30124.08
513.072	30435.38
513.274	30410.8
513.477	30912.55
513.679	31232.04
513.881	31559.71
514.084	31639.58
514.286	31979.54
514.488	32106.52
514.69	33107.97
514.893	32682
515.095	33521.66
515.297	33497.09
515.499	33552.38
515.701	33800.19
515.904	34250.74
516.106	34433.01
516.308	35168.23
516.51	35270.63
516.712	35241.96
516.914	35944.41
517.116	36052.95
517.318	36462.55
517.52	36931.53
517.722	36904.91
517.925	37040.07
518.127	37932.99
518.329	37842.88
518.531	37523.4
518.733	38326.2
518.935	38444.98
519.136	38490.04
519.338	39176.11
519.54	39354.28
519.742	39839.65
519.944	39638.95
520.146	40290.2
520.348	40865.68
520.55	40875.92
520.752	41418.63
520.954	41901.95
521.155	41645.96
521.357	42209.15
521.559	42315.64
521.761	43239.28
521.963	42631.03
522.164	43061.1
522.366	43356.01
522.568	43609.96
522.77	43898.72
522.971	44339.04
523.173	44484.44
523.375	44617.56
523.576	44537.69
523.778	44820.31
523.98	45510.47
524.181	45838.15
524.383	45821.76
524.584	46071.62
524.786	46094.14
524.988	46141.25
525.189	46585.66
525.391	46880.56
525.592	47220.53
525.794	47152.94
525.995	47384.36
526.197	47198
526.398	47630.12
526.6	48221.98
526.801	48312.09
527.003	48451.36
527.204	48451.36
527.406	48717.59
527.607	48877.33
527.808	49237.78
528.01	48396.06
528.211	49194.77
528.412	49983.24
528.614	49594.12
528.815	49710.86
529.016	50310.91
529.218	49948.42
529.419	50122.5
529.62	50288.38
529.822	50030.34
530.023	50333.44
530.224	50552.57
530.425	50458.37
530.626	50013.96
530.828	50378.5
531.029	51361.52
531.23	50343.68
531.431	50661.11
531.632	50626.3
531.833	51326.7
532.035	50982.65
532.236	50927.35
532.437	51355.38
532.638	51287.79
532.839	51044.09
533.04	51838.7
533.241	50695.93
533.442	51230.45
533.643	51478.25
533.844	51449.58
534.045	51375.86
534.246	51472.11
534.447	51379.95
534.648	50986.74
534.849	51629.8
535.05	51074.8
535.251	51666.67
535.451	51580.65
535.652	51814.12
535.853	51517.17
536.054	51853.03
536.255	52039.4
536.456	51457.77
536.657	52121.32
536.857	51756.78
537.058	51523.31
537.259	51584.75
537.46	51975.91
537.66	51556.08
537.861	51740.39
538.062	51388.14
538.263	51715.82
538.463	51681
538.664	51511.02
538.865	51519.21
539.065	52002.53
539.266	51261.17
539.466	51758.83
539.667	51068.66
539.868	52104.93
540.068	51693.29
540.269	51801.83
540.469	51674.86
540.67	51732.2
540.87	51343.09
541.071	51590.89
541.271	51633.9
541.472	51343.09
541.672	51265.27
541.873	51277.55
542.073	50730.75
542.274	51932.9
542.474	50904.82
542.675	50609.92
542.875	51382
543.075	51293.94
543.276	50736.89
543.476	51785.45
543.676	51052.28
543.877	51490.54
544.077	51568.37
544.277	51244.79
544.478	50949.88
544.678	51482.35
544.878	51246.83
545.078	51508.97
545.279	50990.84
545.479	50810.62
545.679	51298.03
545.879	50720.51
546.079	51027.7
546.28	50945.78
546.48	50896.63
546.68	51363.57
546.88	51083
547.08	51404.53
547.28	51064.56
547.48	50874.1
547.68	50908.92
547.88	50450.17
548.081	51101.43
548.281	50734.84
548.481	50777.85
548.681	51314.42
548.881	50980.6
549.081	51195.63
549.28	50532.09
549.48	51171.06
549.68	50898.68
549.88	51267.31
550.08	50659.07
550.28	51050.23
550.48	50960.12
550.68	50837.24
550.88	50753.27
551.08	50861.82
551.279	50966.26
551.479	50290.43
551.679	50859.77
551.879	50495.23
552.079	50880.25
552.278	50403.07
552.478	50958.07
552.678	50417.41
552.878	50732.79
553.077	50444.03
553.277	50380.54
553.477	51289.84
553.676	50104.07
553.876	50429.69
554.076	50501.37
554.275	50507.52
554.475	49757.96
554.674	50192.13
554.874	49874.69
555.074	49846.02
555.273	50355.97
555.473	50286.34
555.672	50052.87
555.872	49774.34
556.071	49862.41
556.271	50196.23
556.47	50102.02
556.67	49352.46
556.869	49639.18
557.068	50122.5
557.268	49618.7
557.467	49626.89
557.667	49714.95
557.866	49405.71
558.065	49282.83
558.265	49116.95
558.464	48969.49
558.663	49577.74
558.863	48774.94
559.062	49563.4
559.261	48938.77
559.461	49727.24
559.66	48111.39
559.859	48748.31
560.058	48881.43
560.258	48693.02
560.457	48400.16
560.656	49114.9
560.855	48551.71
561.054	49065.75
561.253	48432.92
561.453	48434.97
561.652	48520.99
561.851	48590.62
562.05	48457.5
562.249	47736.62
562.448	48344.86
562.647	48027.43
562.846	47841.06
563.045	47980.32
563.244	47462.19
563.443	48185.12
563.642	47181.62
563.841	47425.32
564.04	47519.53
564.239	47843.11
564.438	47175.47
564.637	47198
564.836	47435.56
565.035	46810.93
565.234	47507.24
565.432	46892.85
565.631	46651.19
565.83	46921.52
566.029	46696.25
566.228	46247.74
566.427	46575.42
566.625	46120.77
566.824	46106.43
567.023	46174.02
567.222	45567.82
567.42	45952.83
567.619	46100.29
567.818	46190.4
568.016	45569.86
568.215	45768.52
568.414	45391.69
568.612	45823.81
568.811	45234
569.01	45092.69
569.208	44750.68
569.407	45377.36
569.605	44865.36
569.804	45043.54
570.002	44367.71
570.201	44701.53
570.4	44375.9
570.598	44203.87
570.797	44064.61
570.995	44513.11
571.193	43962.21
571.392	44046.18
571.59	43822.95
571.789	43704.17
571.987	43714.4
572.186	43595.62
572.384	43386.73
572.582	43403.11
572.781	43753.32
572.979	42995.57
573.177	42897.27
573.376	43841.38
573.574	42919.79
573.772	43020.14
573.971	42790.77
574.169	42966.9
574.367	42342.27
574.565	42487.67
574.763	42157.95
574.962	42297.21
575.16	41779.07
575.358	42448.76
575.556	41813.89
575.754	42119.04
575.952	41486.21
576.151	42057.6
576.349	41037.71
576.547	41379.72
576.745	41676.68
576.943	41482.12
577.141	41093
577.339	41551.75
577.537	41052.05
577.735	40980.37
577.933	40726.42
578.131	40837.01
578.329	40757.14
578.527	40695.7
578.725	40245.15
578.923	40529.81
579.121	40337.3
579.319	40126.36
579.516	40009.63
579.714	40122.27
579.912	40054.68
580.11	39514.02
580.308	39845.79
580.506	39831.46
580.704	39231.4
580.901	39411.62
581.099	39903.14
581.297	39090.09
581.495	38856.62
581.692	39362.47
581.89	39051.18
582.088	39090.09
582.285	38936.49
582.483	38854.58
582.681	38926.25
582.878	38533.04
583.076	38076.35
583.274	38311.86
583.471	37838.78
583.669	38168.51
583.866	37906.37
584.064	37961.66
584.262	37666.75
584.459	37707.71
584.657	37619.65
584.854	37834.69
585.052	37189.58
585.249	37572.55
585.447	37087.18
585.644	36997.07
585.841	37234.63
586.039	37332.93
586.236	36530.13
586.434	36614.1
586.631	36640.72
586.828	36589.52
587.026	36487.12
587.223	36220.89
587.42	36079.58
587.618	36362.2
587.815	35979.23
588.012	35925.98
588.21	35637.22
588.407	36249.56
588.604	35891.16
588.801	35516.39
588.999	35878.88
589.196	35696.61
589.393	35456.99
589.59	34811.88
589.787	34992.11
589.984	34654.19
590.182	34869.23
590.379	34983.91
590.576	34539.5
590.773	34928.62
590.97	34293.75
591.167	34545.65
591.364	34111.48
591.561	34392.05
591.758	33853.44
591.955	34111.48
592.152	34093.05
592.349	33673.21
592.546	33937.4
592.743	33830.91
592.94	33153.03
593.137	33308.68
593.334	33349.64
593.531	33140.74
593.727	33187.85
593.924	33073.16
594.121	32886.79
594.318	33050.63
594.515	32587.79
594.712	33118.21
594.908	32616.46
595.105	32481.3
595.302	32294.93
595.499	32591.89
595.696	32221.2
595.892	32165.91
596.089	32247.83
596.286	32092.18
596.482	31950.87
596.679	32083.99
596.876	31782.94
597.072	31637.53
597.269	31326.24
597.466	31260.71
597.662	31199.27
597.859	30844.97
598.055	31553.57
598.252	31180.84
598.448	31264.8
598.645	30912.55
598.841	30808.11
599.038	30498.86
599.234	30638.12
599.431	30410.8
599.627	30550.06
599.824	30462
600.02	30183.48
600.217	30570.54
600.413	29849.66
600.609	29980.73
600.806	29675.58
601.002	30095.41
601.198	29876.28
601.395	29917.24
601.591	29534.27
601.787	29843.51
601.984	29202.5
602.18	29724.73
602.376	29298.75
602.572	28815.43
602.769	29270.08
602.965	28749.9
603.161	29106.24
603.357	28475.47
603.553	28670.03
603.75	28672.07
603.946	28235.86
604.142	28627.02
604.338	28129.36
604.534	28282.96
604.73	27902.04
604.926	28190.8
605.122	28332.11
605.318	27983.96
605.514	27699.29
605.71	27971.67
605.906	27926.61
606.102	27607.13
606.298	27420.77
606.494	27560.03
606.69	27715.67
606.886	27398.24
607.082	27017.32
607.278	27557.98
607.474	26998.88
607.67	27574.36
607.866	26759.27
608.062	27273.31
608.257	26988.64
608.453	26845.29
608.649	27101.28
608.845	26706.02
609.041	26972.26
609.236	26720.36
609.432	26523.76
609.628	26462.32
609.824	26450.03
610.019	26427.5
610.215	26421.36
610.411	26329.2
610.606	26159.22
610.802	26304.62
610.998	25985.14
611.193	26341.49
611.389	26083.44
611.584	26019.95
611.78	26017.91
611.976	25968.76
612.171	25860.21
612.367	25778.29
612.562	25796.73
612.758	25264.25
612.953	25450.62
613.149	25714.81
613.344	25663.61
613.539	25921.65
613.735	25444.48
613.93	25579.64
614.126	25368.7
614.321	25469.05
614.517	25266.3
614.712	25254.01
614.907	25034.88
615.103	25606.27
615.298	25139.33
615.493	25274.49
615.688	24721.54
615.884	25352.32
616.079	24842.37
616.274	24969.35
616.47	24967.3
616.665	24764.55
616.86	24670.34
617.055	24557.71
617.25	24252.56
617.445	24772.74
617.641	24252.56
617.836	24639.62
618.031	24109.2
618.226	24445.07
618.421	24098.96
618.616	24465.55
618.811	23675.03
619.006	24029.33
619.201	23552.15
619.396	23847.06
619.591	23357.6
619.786	23629.98
619.981	23445.66
620.176	23797.91
620.371	23181.47
620.566	23386.27
620.761	22945.95
620.956	23267.48
621.151	22812.84
621.346	22935.71
621.541	22528.17
621.735	23173.28
621.93	22395.05
622.125	22522.02
622.32	21827.76
622.515	22352.04
622.709	22257.84
622.904	22202.54
623.099	21987.5
623.294	22128.81
623.488	21676.21
623.683	21866.67
623.878	21631.16
624.072	21635.25
624.267	21553.34
624.462	21426.36
624.656	21213.37
624.851	21201.08
625.046	20955.33
625.24	21070.01
625.435	20482.25
625.629	20529.35
625.824	20285.64
626.018	20474.06
626.213	19830.99
626.407	20197.58
626.602	19843.28
626.796	19833.04
626.991	19814.61
627.185	19914.96
627.38	19499.22
627.574	19640.53
627.768	19235.03
627.963	19163.36
628.157	19263.71
628.352	19153.12
628.546	18712.8
628.74	18841.82
628.935	18639.08
629.129	18811.1
629.323	18673.89
629.517	18407.66
629.712	18313.45
629.906	18067.69
630.1	18067.69
630.294	18172.14
630.489	18022.64
630.683	17957.1
630.877	17731.83
631.071	17715.44
631.265	17766.64
631.459	17422.58
631.653	17475.83
631.848	17422.58
632.042	17383.67
632.236	17129.72
632.43	16773.38
632.624	17023.23
632.818	16931.07
633.012	16685.31
633.206	16449.8
633.4	16787.71
633.594	16365.83
633.788	16447.75
633.982	16513.28
634.176	16566.53
634.369	16421.13
634.563	16220.42
634.757	16171.27
634.951	16036.11
635.145	15931.66
635.339	15929.61
635.533	15646.99
635.726	15620.37
635.92	15532.31
636.114	15552.79
636.308	15425.81
636.501	15548.69
636.695	15458.58
636.889	15247.64
637.083	14934.3
637.276	14833.95
637.47	14901.53
637.664	14932.25
637.857	15094.04
638.051	14686.5
638.244	14606.63
638.438	14528.8
638.632	14483.75
638.825	14367.01
639.019	14281
639.212	14354.72
639.406	14385.44
639.599	14205.22
639.793	14014.76
639.986	13879.6
640.18	13963.56
640.373	13969.71
640.567	14068.01
640.76	13881.64
640.954	13611.31
641.147	13451.57
641.34	13431.09
641.534	13404.47
641.727	13394.23
641.92	13224.25
642.114	13201.72
642.307	13084.98
642.5	13269.3
642.694	12874.04
642.887	12912.95
643.08	13107.51
643.273	12673.34
643.467	12894.52
643.66	12562.75
643.853	12609.86
644.046	12493.12
644.239	12360
644.432	12329.28
644.626	12306.76
644.819	12087.62
645.012	12333.38
645.205	12265.8
645.398	12108.1
645.591	12067.14
645.784	11983.18
645.977	11585.87
646.17	11774.28
646.363	11694.41
646.556	11721.04
646.749	11497.81
646.942	11690.32
647.135	11510.1
647.328	11512.14
647.521	11403.6
647.714	11247.96
647.907	11544.91
648.099	11219.28
648.292	11127.13
648.485	11069.78
648.678	11096.41
648.871	11207
649.064	11020.63
649.256	10750.3
649.449	10875.23
649.642	10789.21
649.835	10776.92
650.027	10750.3
650.22	10766.68
650.413	10692.96
650.605	10404.19
650.798	10557.79
650.991	10379.62
651.183	10484.06
651.376	10127.72
651.568	10312.03
651.761	10252.64
651.954	10080.61
652.146	10170.72
652.339	10074.47
652.531	9777.51
652.724	9933.16
652.916	9857.39
653.109	9867.63
653.301	9795.95
653.494	9806.19
653.686	9648.49
653.879	9673.07
654.071	9763.18
654.263	9539.95
654.456	9591.15
654.648	9472.37
654.84	9445.74
655.033	9542
655.225	9306.48
655.417	9474.42
655.61	9216.37
655.802	9271.67
655.994	9134.45
656.186	9105.78
656.379	9130.36
656.571	8954.23
656.763	9064.82
656.955	8700.28
657.148	9054.58
657.34	8812.92
657.532	8620.41
657.724	8812.92
657.916	8651.13
658.108	8720.76
658.3	8771.96
658.492	8561.02
658.684	8528.25
658.876	8528.25
659.068	8386.94
659.26	8491.39
659.452	8528.25
659.644	8429.95
659.836	8165.76
660.028	8167.81
660.22	8153.48
660.412	8155.52
660.604	7956.87
660.796	8178.05
660.988	8159.62
661.18	7911.82
661.372	7897.48
661.563	7956.87
661.755	7999.88
661.947	7790.99
662.139	7766.41
662.331	7647.63
662.522	7629.2
662.714	7690.63
662.906	7692.68
663.097	7444.88
663.289	7506.32
663.481	7573.9
663.673	7704.97
663.864	7502.22
664.056	7563.66
664.247	7657.87
664.439	7297.42
664.631	7426.45
664.822	7393.68
665.014	7313.81
665.205	7373.2
665.397	7307.66
665.588	7121.3
665.78	7162.26
665.971	7090.58
666.163	7246.23
666.354	6986.13
666.546	7033.24
666.737	7023
666.929	7094.68
667.12	6939.03
667.311	7137.68
667.503	6955.41
667.694	6988.18
667.885	6855.06
668.077	6777.24
668.268	6832.54
668.459	6715.8
668.651	6701.47
668.842	6791.58
669.033	6687.13
669.224	6635.93
669.416	6748.57
669.607	6590.88
669.798	6615.45
669.989	6648.22
670.18	6594.97
670.371	6590.88
670.563	6562.2
670.754	6519.2
670.945	6347.17
671.136	6625.69
671.327	6459.81
671.518	6468
671.709	6459.81
671.9	6398.37
672.091	6515.1
672.282	6369.69
672.473	6363.55
672.664	6226.34
672.855	6273.44
673.046	6398.37
673.237	6390.17
673.428	6232.48
673.619	6281.63
673.809	6205.86
674	6261.15
674.191	6367.65
674.382	6115.75
674.573	6185.38
674.764	6021.54
674.954	6203.81
675.145	6066.6
675.336	6199.71
675.527	6111.65
675.717	6105.51
675.908	6144.42
676.099	6035.88
676.289	6087.08
676.48	6023.59
676.671	5945.77
676.861	5839.27
677.052	6068.64
677.243	5872.04
677.433	6003.11
677.624	6080.93
677.814	6132.13
678.005	5835.17
678.195	5927.33
678.386	5929.38
678.576	6111.65
678.767	5734.82
678.957	5982.63
679.148	5843.37
679.338	5835.17
679.529	5863.85
679.719	5814.7
679.909	5970.34
680.1	5874.09
680.29	5925.29
680.481	5874.09
680.671	5966.24
680.861	5890.47
681.052	5859.75
681.242	5829.03
681.432	5802.41
681.622	5890.47
681.813	5865.89
682.003	5837.22
682.193	5956.01
682.383	5781.93
682.573	5765.54
682.764	5753.26
682.954	5804.46
683.144	5824.94
683.334	5679.53
683.524	5765.54
683.714	5695.91
683.904	5667.24
684.094	5716.39
684.284	5702.06
684.474	5804.46
684.664	5743.02
684.854	5546.41
685.044	5665.19
685.234	5671.34
685.424	5620.14
685.614	5394.86
685.804	5597.61
685.994	5552.56
686.184	5687.72
686.374	5583.27
686.564	5480.88
686.753	5534.12
686.943	5337.52
687.133	5558.7
687.323	5452.2
687.513	5491.12
687.702	5386.67
687.892	5341.61
688.082	5355.95
688.272	5304.75
688.461	5271.98
688.651	5171.63
688.841	5013.94
689.03	5249.46
689.22	5247.41
689.41	5104.05
689.599	5091.76
689.789	5022.13
689.979	5091.76
690.168	5083.57
690.358	5118.39
690.547	4940.21
690.737	5030.32
690.926	4823.48
691.116	4817.33
691.305	4770.23
691.495	4778.42
691.684	4698.55
691.874	4776.38
692.063	4737.46
692.252	4825.53
692.442	4684.22
692.631	4475.32
692.82	4747.7
693.01	4643.26
693.199	4616.63
693.388	4583.87
693.578	4639.16
693.767	4630.97
693.956	4370.88
694.146	4508.09
694.335	4669.88
694.524	4327.87
694.713	4520.38
694.902	4559.29
695.092	4338.11
695.281	4403.64
695.47	4432.32
695.659	4352.45
695.848	4293.05
696.037	4448.7
696.226	4360.64
696.415	4204.99
696.604	4301.25
696.793	4213.18
696.982	4180.42
697.171	4465.08
697.36	4239.81
697.549	4149.7
697.738	4184.51
697.927	4215.23
698.116	4233.66
698.305	4172.22
698.494	4182.46
698.683	4012.48
698.872	4221.38
699.061	4153.79
699.25	4098.5
699.438	4172.22
699.627	4018.63
699.816	4125.12
700.005	4090.31
700.193	4063.68
700.382	4241.86
700.571	4047.3
700.76	4090.31
700.948	4159.94
701.137	4082.11
701.326	4149.7
701.514	3922.37
701.703	4071.87
701.892	4082.11
702.08	4245.95
702.269	4067.78
702.457	3967.43
702.646	4067.78
702.834	4141.5
703.023	4016.58
703.212	4022.72
703.4	4043.2
703.589	3920.32
703.777	3992
703.965	3983.81
704.154	3891.65
704.342	4051.39
704.531	4071.87
704.719	3969.48
704.907	3975.62
705.096	3963.33
705.284	4020.67
705.472	4069.83
705.661	3961.28
705.849	4139.46
706.037	4030.91
706.226	4006.34
706.414	3942.85
706.602	3908.04
706.79	4108.74
706.979	4032.96
707.167	4110.79
707.355	3918.28
707.543	4213.18
707.731	4073.92
707.919	3981.76
708.107	3932.61
708.296	4000.19
708.484	3920.32
708.672	4024.77
708.86	4080.07
709.048	4022.72
709.236	4035.01
709.424	4133.31
709.612	4112.83
709.8	4053.44
709.988	3975.62
710.176	4178.37
710.364	4080.07
710.551	4084.16
710.739	3953.09
710.927	3928.52
711.115	4014.53
711.303	4118.98
711.491	4129.22
711.679	4075.97
711.866	4112.83
712.054	4186.56
712.242	4080.07
712.43	4164.03
712.617	4133.31
712.805	4155.84
712.993	4078.02
713.181	3981.76
713.368	4098.5
713.556	4051.39
713.744	4030.91
713.931	4073.92
714.119	3992
714.306	4078.02
714.494	4039.11
714.682	4063.68
714.869	4098.5
715.057	4088.26
715.244	3981.76
715.432	4174.27
715.619	4184.51
715.807	4022.72
715.994	4221.38
716.182	4112.83
716.369	4268.48
716.556	4155.84
716.744	4170.18
716.931	4106.69
717.119	4266.43
717.306	4178.37
717.493	4104.64
717.681	4145.6
717.868	4112.83
718.055	4125.12
718.242	4194.75
718.43	4139.46
718.617	4190.66
718.804	4102.59
718.991	4088.26
719.179	4180.42
719.366	4151.74
719.553	4149.7
719.74	4114.88
719.927	4235.71
720.114	4217.28
720.301	4086.21
720.488	4190.66
720.676	4215.23
720.863	4303.29
721.05	4207.04
721.237	4405.69
721.424	4198.85
721.611	4268.48
721.798	4045.25
721.985	4112.83
722.172	4202.94
722.358	4268.48
722.545	4204.99
722.732	4157.89
722.919	4207.04
723.106	4202.94
723.293	4372.93
723.48	4286.91
723.667	4172.22
723.853	4186.56
724.04	4350.4
724.227	4397.5
724.414	4194.75
724.6	4291.01
724.787	4291.01
724.974	4424.12
725.161	4080.07
725.347	4215.23
725.534	4291.01
725.72	4446.65
725.907	4272.57
726.094	4409.79
726.28	4329.92
726.467	4170.18
726.653	4291.01
726.84	4344.25
727.027	4432.32
727.213	4348.35
727.4	4327.87
727.586	4299.2
727.773	4338.11
727.959	4360.64
728.145	4415.93
728.332	4377.02
728.518	4213.18
728.705	4211.14
728.891	4327.87
729.077	4327.87
729.264	4270.53
729.45	4231.62
729.636	4446.65
729.823	4202.94
730.009	4401.6
730.195	4299.2
730.382	4276.67
730.568	4262.33
730.754	4295.1
730.94	4366.78
731.126	4383.17
731.313	4334.01
731.499	4307.39
731.685	4207.04
731.871	4260.29
732.057	4309.44
732.243	4319.68
732.429	4309.44
732.615	4372.93
732.801	4266.43
732.987	4317.63
733.173	4428.22
733.359	4338.11
733.545	4311.49
733.731	4397.5
733.917	4325.82
734.103	4385.21
734.289	4389.31
734.475	4219.33
734.661	4440.51
734.847	4282.81
735.033	4309.44
735.219	4278.72
735.404	4280.77
735.59	4225.47
735.776	4268.48
735.962	4358.59
736.148	4286.91
736.333	4358.59
736.519	4274.62
736.705	4358.59
736.89	4422.08
737.076	4334.01
737.262	4104.64
737.447	4164.03
737.633	4252.1
737.819	4305.34
738.004	4288.96
738.19	4282.81
738.375	4190.66
738.561	4393.4
738.747	4274.62
738.932	4151.74
739.118	4317.63
739.303	4114.88
739.489	4182.46
739.674	4204.99
739.859	4145.6
740.045	4145.6
740.23	4139.46
740.416	4088.26
740.601	4065.73
740.786	4106.69
740.972	4131.26
741.157	4016.58
741.342	4071.87
741.528	4030.91
741.713	4088.26
741.898	4106.69
742.084	3905.99
742.269	3955.14
742.454	4096.45
742.639	4108.74
742.824	4098.5
743.01	4043.2
743.195	4004.29
743.38	3856.84
743.565	3914.18
743.75	3938.76
743.935	4037.06
744.12	3936.71
744.305	3723.72
744.49	3824.07
744.675	3779.01
744.86	3819.97
745.045	3772.87
745.23	3733.96
745.415	3721.67
745.6	3883.46
745.785	3832.26
745.97	3731.91
746.155	3682.76
746.34	3758.53
746.525	3627.46
746.71	3594.7
746.895	3740.1
747.079	3549.64
747.264	3641.8
747.449	3547.59
747.634	3533.26
747.819	3402.19
748.003	3412.43
748.188	3510.73
748.373	3418.57
748.557	3328.46
748.742	3377.61
748.927	3348.94
749.111	3238.35
749.296	3215.82
749.481	3330.51
749.665	3285.45
749.85	3133.9
750.034	3320.27
750.219	3178.96
750.404	3111.38
750.588	3156.43
750.773	3107.28
750.957	3088.85
751.141	3051.99
751.326	3105.23
751.51	3033.55
751.695	2996.69
751.879	2927.06
752.064	3025.36
752.248	2890.2
752.432	2951.63
752.617	3031.51
752.801	2986.45
752.985	3064.27
753.17	2982.35
753.354	2945.49
753.538	2869.72
753.722	2853.33
753.907	2767.32
754.091	2810.33
754.275	2822.61
754.459	2705.88
754.643	2761.17
754.828	2763.22
755.012	2787.8
755.196	2617.82
755.38	2572.76
755.564	2648.54
755.748	2580.95
755.932	2615.77
756.116	2662.87
756.3	2525.66
756.484	2519.51
756.668	2628.06
756.852	2460.12
757.036	2556.38
757.22	2552.28
757.404	2464.22
757.588	2419.16
757.772	2509.27
757.956	2419.16
758.14	2415.07
758.323	2281.95
758.507	2271.71
758.691	2384.35
758.875	2331.1
759.059	2267.61
759.242	2331.1
759.426	2306.52
759.61	2410.97
759.794	2269.66
759.977	2243.04
760.161	2185.69
760.345	2339.29
760.528	2261.47
760.712	2335.2
760.895	2173.41
761.079	2208.22
761.263	2128.35
761.446	1956.32
761.63	2077.15
761.813	2245.09
761.997	2001.38
762.18	2060.77
762.364	2118.11
762.547	2142.69
762.731	2099.68
762.914	1993.19
763.098	1913.31
763.281	1954.27
763.464	1968.61
763.648	2056.67
763.831	1919.46
764.015	1987.04
764.198	1999.33
764.381	1944.03
764.564	1952.23
764.748	1894.88
764.931	1923.55
765.114	1870.31
765.297	1958.37
765.481	1982.95
765.664	1860.07
765.847	1874.4
766.03	1950.18
766.213	1911.27
766.397	1812.96
766.58	1780.2
766.763	1843.68
766.946	1786.34
767.129	1788.39
767.312	1774.05
767.495	1802.72
767.678	1864.16
767.861	1688.04
768.044	1745.38
768.227	1720.81
768.41	1776.1
768.593	1681.89
768.776	1716.71
768.959	1688.04
769.142	1778.15
769.324	1620.46
769.507	1757.67
769.69	1677.8
769.873	1659.37
770.056	1671.65
770.239	1636.84
770.421	1673.7
770.604	1647.08
770.787	1556.97
770.97	1534.44
771.152	1585.64
771.335	1661.41
771.518	1591.78
771.7	1624.55
771.883	1593.83
772.066	1614.31
772.248	1483.24
772.431	1528.3
772.613	1548.78
772.796	1505.77
772.978	1524.2
773.161	1608.17
773.343	1509.86
773.526	1624.55
773.708	1294.83
773.891	1475.05
774.073	1391.08
774.256	1444.33
774.438	1466.86
774.621	1384.94
774.803	1413.61
774.985	1399.27
775.168	1389.03
775.35	1391.08
775.532	1417.71
775.715	1405.42
775.897	1374.7
776.079	1286.64
776.261	1315.31
776.444	1188.33
776.626	1253.87
776.808	1391.08
776.99	1311.21
777.173	1253.87
777.355	1253.87
777.537	1290.73
777.719	1272.3
777.901	1245.68
778.083	1286.64
778.265	1319.4
778.447	1292.78
778.629	1169.9
778.811	1245.68
778.993	1266.16
779.175	1319.4
779.357	1135.09
779.539	1096.18
779.721	1196.53
779.903	1161.71
780.085	1102.32
780.267	1092.08
780.449	1147.37
780.631	1092.08
780.812	1184.24
780.994	1090.03
781.176	1071.6
781.358	1040.88
781.54	1008.11
781.721	1057.26
781.903	1077.74
782.085	1042.93
782.267	1100.27
782.448	926.19
782.63	1028.59
782.812	1004.02
782.993	926.19
783.175	977.39
783.357	936.43
783.538	899.57
783.72	881.14
783.901	967.15
784.083	897.52
784.264	889.33
784.446	924.15
784.627	864.75
784.809	967.15
784.99	811.51
785.172	930.29
785.353	860.66
785.535	795.12
785.716	874.99
785.897	793.08
786.079	854.51
786.26	819.7
786.441	805.36
786.623	768.5
786.804	739.83
786.985	801.27
787.167	817.65
787.348	745.97
787.529	885.23
787.71	874.99
787.891	844.28
788.073	762.36
788.254	692.73
788.435	809.46
788.616	770.55
788.797	754.16
788.978	735.73
789.159	786.93
789.34	678.39
789.522	688.63
789.703	666.1
789.884	719.35
790.065	633.33
790.246	715.25
790.427	616.95
790.607	799.22
790.788	729.59
790.969	586.23
791.15	588.28
791.331	616.95
791.512	573.94
791.693	528.89
791.874	567.8
792.054	836.08
792.235	684.53
792.416	641.53
792.597	590.33
792.778	594.42
792.958	532.98
793.139	608.76
793.32	602.61
793.5	563.7
793.681	627.19
793.862	627.19
794.042	561.66
794.223	565.75
794.404	510.46
794.584	449.02
794.765	522.74
794.945	551.42
795.126	580.09
795.306	600.57
795.487	549.37
795.667	496.12
795.848	514.55
796.028	479.74
796.209	485.88
796.389	551.42
796.57	547.32
796.75	510.46
796.93	475.64
797.111	557.56
797.291	528.89
797.471	479.74
797.652	539.13
797.832	481.78
798.012	500.22
798.192	508.41
798.373	483.83
798.553	492.02
798.733	532.98
798.913	379.39
799.093	502.26
799.274	463.35
799.454	442.87
799.634	520.7
799.814	504.31
799.994	487.93
800.174	485.88
800.354	426.49
800.534	385.53
800.714	557.56
800.894	465.4
801.074	410.11
801.254	354.81
801.434	532.98
801.614	467.45
801.794	389.63
801.974	1421.8
802.154	395.77
802.334	401.91
802.514	432.63
802.693	444.92
802.873	363
803.053	434.68
803.233	438.78
803.413	416.25
803.592	346.62
803.772	332.28
803.952	379.39
804.131	352.76
804.311	369.15
804.491	483.83
804.67	430.59
804.85	412.15
805.03	399.87
805.209	360.95
805.389	336.38
805.568	352.76
805.748	295.42
805.928	342.52
806.107	420.35
806.287	313.85
806.466	369.15
806.646	346.62
806.825	360.95
807.004	381.43
807.184	393.72
807.363	360.95
807.543	406.01
807.722	360.95
807.901	420.35
808.081	387.58
808.26	272.89
808.439	279.04
808.619	358.91
808.798	289.28
808.977	309.76
809.156	403.96
809.336	322.04
809.515	358.91
809.694	338.43
809.873	369.15
810.052	313.85
810.231	354.81
810.411	287.23
810.59	297.47
810.769	299.52
810.948	365.05
811.127	203.26
811.306	262.65
811.485	311.8
811.664	297.47
811.843	279.04
812.022	281.08
812.201	320
812.38	436.73
812.559	281.08
812.737	354.81
812.916	215.55
813.095	211.45
813.274	336.38
813.453	315.9
813.632	266.75
813.811	352.76
813.989	270.84
814.168	365.05
814.347	268.8
814.526	262.65
814.704	346.62
814.883	340.47
815.062	272.89
815.24	289.28
815.419	244.22
815.598	377.34
815.776	211.45
815.955	270.84
816.133	229.88
816.312	281.08
816.49	213.5
816.669	262.65
816.847	246.27
817.026	242.17
817.204	221.69
817.383	324.09
817.561	236.03
817.74	229.88
817.918	231.93
818.097	274.94
818.275	182.78
818.453	203.26
818.632	240.12
818.81	238.08
818.988	279.04
819.167	264.7
819.345	221.69
819.523	188.93
819.701	291.32
819.879	254.46
820.058	190.97
820.236	209.4
820.414	279.04
820.592	231.93
820.77	209.4
820.948	164.35
821.127	270.84
821.305	221.69
821.483	158.21
821.661	262.65
821.839	158.21
822.017	195.07
822.195	129.53
822.373	250.36
822.551	250.36
822.729	285.18
822.907	174.59
823.085	223.74
823.262	147.97
823.44	248.32
823.618	221.69
823.796	98.81
823.974	250.36
824.152	131.58
824.329	211.45
824.507	203.26
824.685	254.46
824.863	74.24
825.04	246.27
825.218	262.65
825.396	225.79
825.574	221.69
825.751	190.97
825.929	186.88
826.107	84.48
826.284	205.31
826.462	190.97
826.639	160.25
826.817	133.63
826.994	209.4
827.172	107.01
827.349	166.4
827.527	182.78
827.704	172.54
827.882	217.6
828.059	184.83
828.237	170.49
828.414	272.89
828.591	133.63
828.769	150.01
828.946	102.91
829.124	176.64
829.301	303.61
829.478	115.2
829.655	221.69
829.833	223.74
830.01	131.58
830.187	145.92
830.364	227.84
830.542	197.12
830.719	143.87
830.896	178.69
831.073	141.82
831.25	121.34
831.427	90.62
831.604	72.19
831.782	164.35
831.959	221.69
832.136	174.59
832.313	150.01
832.49	70.14
832.667	113.15
832.844	168.45
833.021	137.73
833.198	127.49
833.374	217.6
833.551	176.64
833.728	121.34
833.905	180.73
834.082	121.34
834.259	119.29
834.436	184.83
834.612	172.54
834.789	166.4
834.966	135.68
835.143	205.31
835.319	152.06
835.496	197.12
835.673	174.59
835.85	168.45
836.026	188.93
836.203	174.59
836.38	70.14
836.556	141.82
836.733	86.53
836.909	156.16
837.086	27.14
837.262	33.28
837.439	127.49
837.616	117.25
837.792	184.83
837.968	131.58
838.145	-5.63
838.321	96.77
838.498	115.2
838.674	92.67
838.851	180.73
839.027	107.01
839.203	76.29
839.38	86.53
839.556	6.66
839.732	172.54
839.909	66.05
840.085	129.53
840.261	102.91
840.437	145.92
840.614	74.24
840.79	184.83
840.966	115.2
841.142	160.25
841.318	53.76
841.494	86.53
841.671	74.24
841.847	47.62
842.023	143.87
842.199	78.33
842.375	184.83
842.551	100.86
842.727	102.91
842.903	115.2
843.079	39.42
843.255	160.25
843.431	125.44
843.607	90.62
843.783	53.76
843.959	109.05
844.134	33.28
844.31	92.67
844.486	45.57
844.662	107.01
844.838	25.09
845.013	35.33
845.189	184.83
845.365	96.77
845.541	82.43
845.716	88.57
845.892	127.49
846.068	92.67
846.244	86.53
846.419	121.34
846.595	141.82
846.77	64
846.946	27.14
847.122	59.9
847.297	125.44
847.473	115.2
847.648	51.71
847.824	156.16
847.999	43.52
848.175	90.62
848.35	137.73
848.526	125.44
848.701	133.63
848.876	111.1
849.052	121.34
849.227	115.2
849.403	98.81
849.578	45.57
849.753	29.18
849.929	72.19
850.104	-52.74
850.279	45.57
850.454	127.49
850.63	166.4
850.805	135.68
850.98	41.47
851.155	20.99
851.33	88.57
851.505	27.14
851.681	197.12
851.856	35.33
852.031	150.01
852.206	72.19
852.381	74.24
852.556	-13.82
852.731	102.91
852.906	14.85
853.081	84.48
853.256	123.39
853.431	115.2
853.606	8.7
853.781	12.8
853.956	-28.16
854.131	102.91
854.305	43.52
854.48	49.66
854.655	31.23
854.83	25.09
855.005	18.94
855.18	53.76
855.354	57.86
855.529	107.01
855.704	78.33
855.879	141.82
856.053	-3.58
856.228	57.86
856.403	16.9
856.577	64
856.752	49.66
856.926	53.76
857.101	45.57
857.276	70.14
857.45	57.86
857.625	100.86
857.799	33.28
857.974	0.51
858.148	-5.63
858.323	74.24
858.497	-28.16
858.672	-26.11
858.846	51.71
859.02	74.24
859.195	66.05
859.369	-40.45
859.543	8.7
859.718	82.43
859.892	100.86
860.066	33.28
860.241	66.05
860.415	8.7
860.589	33.28
860.763	64
860.938	70.14
861.112	156.16
861.286	16.9
861.46	35.33
861.634	59.9
861.808	141.82
861.982	27.14
862.157	57.86
862.331	57.86
862.505	-19.97
862.679	-28.16
862.853	57.86
863.027	29.18
863.201	57.86
863.375	18.94
863.549	90.62
863.722	88.57
863.896	51.71
864.07	16.9
864.244	45.57
864.418	47.62
864.592	78.33
864.766	18.94
864.939	111.1
865.113	-15.87
865.287	64
865.461	45.57
865.634	-60.93
865.808	29.18
865.982	33.28
866.156	-11.78
866.329	4.61
866.503	27.14
866.676	68.09
866.85	35.33
867.024	55.81
867.197	74.24
867.371	4.61
867.544	133.63
867.718	2.56
867.891	92.67
868.065	-48.64
868.238	80.38
868.412	98.81
868.585	-24.06
868.759	35.33
868.932	76.29
869.105	8.7
869.279	-54.78
869.452	78.33
869.625	141.82
869.799	20.99
869.972	-42.5
870.145	51.71
870.319	39.42
870.492	49.66
870.665	-13.82
870.838	-52.74
871.011	-71.17
871.185	-28.16
871.358	51.71
871.531	57.86
871.704	-15.87
871.877	98.81
872.05	18.94
872.223	-85.5
872.396	137.73
872.569	35.33
872.742	-34.3
872.915	31.23
873.088	66.05
873.261	25.09
873.434	41.47
873.607	41.47
873.78	86.53
873.953	64
874.126	-13.82
874.299	64
874.471	-56.83
874.644	27.14
874.817	49.66
874.99	147.97
875.163	16.9
875.335	-62.98
875.508	0.51
875.681	35.33
875.853	12.8
876.026	43.52
876.199	49.66
876.371	10.75
876.544	51.71
876.717	-15.87
876.889	-46.59
877.062	-9.73
877.234	18.94
877.407	-22.02
877.579	76.29
877.752	-60.93
877.924	6.66
878.097	66.05
878.269	-24.06
878.442	45.57
878.614	94.72
878.786	-1.54
878.959	31.23
879.131	23.04
879.303	-15.87
879.476	57.86
879.648	68.09
879.82	39.42
879.993	41.47
880.165	20.99
880.337	-28.16
880.509	-28.16
880.681	-9.73
880.854	18.94
881.026	53.76
881.198	90.62
881.37	39.42
881.542	39.42
881.714	-32.26
881.886	33.28
882.058	-11.78
882.23	-15.87
882.402	45.57
882.574	27.14
882.746	25.09
882.918	47.62
883.09	2.56
883.262	53.76
883.434	27.14
883.606	2.56
883.778	80.38
883.95	92.67
884.122	14.85
884.293	33.28
884.465	33.28
884.637	41.47
884.809	0.51
884.98	45.57
885.152	92.67
885.324	-95.74
885.496	25.09
885.667	16.9
885.839	-11.78
886.011	25.09
886.182	102.91
886.354	43.52
886.525	16.9
886.697	18.94
886.869	57.86
887.04	41.47
887.212	12.8
887.383	18.94
887.555	80.38
887.726	8.7
887.897	10.75
888.069	68.09
888.24	68.09
888.412	27.14
888.583	59.9
888.754	-34.3
888.926	-1.54
889.097	29.18
889.268	-110.08
889.44	88.57
889.611	-32.26
889.782	-95.74
889.953	-38.4
890.125	117.25
890.296	12.8
890.467	-36.35
890.638	-48.64
890.809	14.85
890.98	-7.68
891.151	-7.68
891.323	96.77
891.494	16.9
891.665	-34.3
891.836	33.28
892.007	-13.82
892.178	68.09
892.349	-13.82
892.52	-3.58
892.691	27.14
892.862	0.51
893.032	-58.88
893.203	-13.82
893.374	2.56
893.545	76.29
893.716	45.57
893.887	45.57
894.057	76.29
894.228	33.28
894.399	16.9
894.57	37.38
894.74	-7.68
894.911	33.28
895.082	35.33
895.253	-89.6
895.423	57.86
895.594	6.66
895.764	20.99
895.935	-15.87
896.106	82.43
896.276	4.61
896.447	8.7
896.617	-30.21
896.788	-19.97
896.958	49.66
897.129	10.75
897.299	35.33
897.47	-7.68
897.64	84.48
897.81	-5.63
897.981	-42.5
898.151	2.56
898.322	27.14
898.492	37.38
898.662	-44.54
898.832	64
899.003	39.42
899.173	47.62
899.343	-42.5
899.513	-48.64
