Data from USB4F104151__82__13-06-14-038.txt Node

Date: Fri Mar 14 13:06:14 EDT 2025
User: louis
Spectrometer: USB4F10415
Trigger mode: 4
Integration Time (sec): 4.000000E-2
Scans to average: 1
Electric dark correction enabled: true
Nonlinearity correction enabled: false
Boxcar width: 0
XAxis mode: Wavelengths
Number of Pixels in Spectrum: 3648
>>>>>Begin Spectral Data<<<<<
178.204	-177.15
178.424	-177.15
178.644	-177.15
178.864	-199.68
179.084	-123.9
179.304	-99.33
179.524	-3.07
179.744	-9.22
179.964	60.42
180.184	41.98
180.404	-44.03
180.624	3.07
180.844	-68.61
181.064	27.65
181.283	-13.31
181.503	64.51
181.723	39.94
181.943	-39.94
182.163	84.99
182.383	46.08
182.602	-27.65
182.822	62.46
183.042	84.99
183.262	-46.08
183.482	52.22
183.701	-29.7
183.921	-3.07
184.141	-56.32
184.361	46.08
184.58	13.31
184.8	119.81
185.02	-46.08
185.239	37.89
185.459	13.31
185.679	99.33
185.898	-33.79
186.118	62.46
186.338	23.55
186.557	70.65
186.777	11.26
186.997	-7.17
187.216	9.22
187.436	101.37
187.655	84.99
187.875	64.51
188.095	44.03
188.314	11.26
188.534	58.37
188.753	19.46
188.973	19.46
189.192	80.89
189.412	76.8
189.631	52.22
189.851	68.61
190.07	76.8
190.29	-15.36
190.509	50.18
190.729	60.42
190.948	101.37
191.168	177.15
191.387	19.46
191.607	-5.12
191.826	89.09
192.045	21.5
192.265	13.31
192.484	23.55
192.704	-9.22
192.923	-48.13
193.142	80.89
193.362	64.51
193.581	134.14
193.8	64.51
194.02	13.31
194.239	33.79
194.458	54.27
194.678	9.22
194.897	93.18
195.116	-27.65
195.335	-52.22
195.555	-41.98
195.774	-1.02
195.993	27.65
196.212	5.12
196.432	23.55
196.651	21.5
196.87	35.84
197.089	64.51
197.308	48.13
197.528	25.6
197.747	-74.75
197.966	17.41
198.185	109.57
198.404	1.02
198.623	74.75
198.842	113.66
199.062	103.42
199.281	82.94
199.5	17.41
199.719	29.7
199.938	-5.12
200.157	70.65
200.376	-31.74
200.595	97.28
200.814	13.31
201.033	-64.51
201.252	70.65
201.471	23.55
201.69	41.98
201.909	87.04
202.128	31.74
202.347	87.04
202.566	66.56
202.785	-1.02
203.004	23.55
203.223	111.61
203.442	5.12
203.661	13.31
203.879	64.51
204.098	113.66
204.317	66.56
204.536	113.66
204.755	-5.12
204.974	5.12
205.193	64.51
205.411	44.03
205.63	41.98
205.849	84.99
206.068	78.85
206.287	27.65
206.505	17.41
206.724	-33.79
206.943	17.41
207.162	19.46
207.381	76.8
207.599	46.08
207.818	82.94
208.037	35.84
208.255	54.27
208.474	56.32
208.693	54.27
208.911	-3.07
209.13	-19.46
209.349	52.22
209.567	33.79
209.786	33.79
210.005	21.5
210.223	19.46
210.442	-11.26
210.661	44.03
210.879	46.08
211.098	52.22
211.316	80.89
211.535	93.18
211.753	9.22
211.972	41.98
212.191	1.02
212.409	1.02
212.628	66.56
212.846	84.99
213.065	48.13
213.283	84.99
213.502	35.84
213.72	33.79
213.938	3.07
214.157	93.18
214.375	35.84
214.594	41.98
214.812	78.85
215.031	15.36
215.249	15.36
215.467	25.6
215.686	-52.22
215.904	27.65
216.122	60.42
216.341	66.56
216.559	-17.41
216.778	54.27
216.996	76.8
217.214	31.74
217.432	-7.17
217.651	27.65
217.869	13.31
218.087	-41.98
218.306	-46.08
218.524	58.37
218.742	72.7
218.96	37.89
219.179	-3.07
219.397	7.17
219.615	95.23
219.833	78.85
220.051	-54.27
220.27	82.94
220.488	111.61
220.706	60.42
220.924	-9.22
221.142	-9.22
221.36	31.74
221.578	87.04
221.796	-35.84
222.015	62.46
222.233	64.51
222.451	70.65
222.669	27.65
222.887	76.8
223.105	27.65
223.323	54.27
223.541	3.07
223.759	95.23
223.977	-1.02
224.195	82.94
224.413	7.17
224.631	21.5
224.849	-13.31
225.067	82.94
225.285	-50.18
225.503	-5.12
225.721	-52.22
225.939	35.84
226.157	25.6
226.375	93.18
226.592	7.17
226.81	44.03
227.028	50.18
227.246	115.71
227.464	13.31
227.682	-33.79
227.9	119.81
228.117	15.36
228.335	35.84
228.553	52.22
228.771	50.18
228.989	78.85
229.206	-1.02
229.424	19.46
229.642	52.22
229.86	35.84
230.077	93.18
230.295	52.22
230.513	64.51
230.731	41.98
230.948	72.7
231.166	68.61
231.384	44.03
231.601	-15.36
231.819	72.7
232.037	35.84
232.254	11.26
232.472	54.27
232.689	13.31
232.907	9.22
233.125	13.31
233.342	-3.07
233.56	7.17
233.777	35.84
233.995	19.46
234.213	60.42
234.43	84.99
234.648	56.32
234.865	60.42
235.083	132.09
235.3	35.84
235.518	33.79
235.735	91.13
235.953	50.18
236.17	13.31
236.388	-3.07
236.605	37.89
236.822	3.07
237.04	78.85
237.257	41.98
237.475	15.36
237.692	-1.02
237.909	5.12
238.127	-3.07
238.344	70.65
238.562	111.61
238.779	-5.12
238.996	-19.46
239.214	31.74
239.431	56.32
239.648	27.65
239.865	82.94
240.083	80.89
240.3	-9.22
240.517	-44.03
240.735	39.94
240.952	166.91
241.169	-7.17
241.386	68.61
241.603	19.46
241.821	29.7
242.038	107.52
242.255	39.94
242.472	-23.55
242.689	140.29
242.907	13.31
243.124	-5.12
243.341	50.18
243.558	-19.46
243.775	19.46
243.992	-1.02
244.209	78.85
244.426	97.28
244.643	9.22
244.86	-27.65
245.078	84.99
245.295	117.76
245.512	66.56
245.729	50.18
245.946	-19.46
246.163	158.72
246.38	60.42
246.597	27.65
246.814	21.5
247.031	27.65
247.248	130.05
247.464	52.22
247.681	52.22
247.898	-33.79
248.115	82.94
248.332	-35.84
248.549	62.46
248.766	44.03
248.983	21.5
249.2	5.12
249.417	93.18
249.633	-11.26
249.85	-27.65
250.067	70.65
250.284	35.84
250.501	27.65
250.717	132.09
250.934	-23.55
251.151	50.18
251.368	19.46
251.585	33.79
251.801	-11.26
252.018	52.22
252.235	15.36
252.451	5.12
252.668	-5.12
252.885	91.13
253.102	29.7
253.318	80.89
253.535	70.65
253.752	-17.41
253.968	3.07
254.185	-9.22
254.401	15.36
254.618	54.27
254.835	-1.02
255.051	58.37
255.268	13.31
255.484	87.04
255.701	37.89
255.917	84.99
256.134	-29.7
256.351	52.22
256.567	-29.7
256.784	29.7
257	-29.7
257.217	84.99
257.433	50.18
257.65	70.65
257.866	50.18
258.082	-5.12
258.299	15.36
258.515	-3.07
258.732	25.6
258.948	13.31
259.165	56.32
259.381	78.85
259.597	-27.65
259.814	39.94
260.03	146.43
260.246	15.36
260.463	48.13
260.679	97.28
260.895	15.36
261.112	7.17
261.328	-3.07
261.544	-29.7
261.761	148.48
261.977	-37.89
262.193	37.89
262.409	117.76
262.626	93.18
262.842	68.61
263.058	-31.74
263.274	84.99
263.49	-5.12
263.707	101.37
263.923	121.85
264.139	35.84
264.355	-23.55
264.571	109.57
264.787	27.65
265.004	31.74
265.22	52.22
265.436	48.13
265.652	-19.46
265.868	78.85
266.084	-11.26
266.3	-7.17
266.516	-11.26
266.732	60.42
266.948	13.31
267.164	54.27
267.38	107.52
267.596	68.61
267.812	101.37
268.028	56.32
268.244	-5.12
268.46	-80.89
268.676	-48.13
268.892	-25.6
269.108	-19.46
269.324	19.46
269.54	33.79
269.756	70.65
269.972	-37.89
270.188	33.79
270.403	-11.26
270.619	103.42
270.835	13.31
271.051	29.7
271.267	-19.46
271.483	56.32
271.698	54.27
271.914	-3.07
272.13	52.22
272.346	11.26
272.562	17.41
272.777	78.85
272.993	-5.12
273.209	35.84
273.425	78.85
273.64	62.46
273.856	87.04
274.072	68.61
274.287	54.27
274.503	27.65
274.719	89.09
274.934	19.46
275.15	-29.7
275.366	-23.55
275.581	-23.55
275.797	50.18
276.012	37.89
276.228	41.98
276.444	9.22
276.659	144.38
276.875	5.12
277.09	23.55
277.306	-50.18
277.521	48.13
277.737	46.08
277.952	80.89
278.168	3.07
278.383	31.74
278.599	50.18
278.814	97.28
279.03	29.7
279.245	78.85
279.461	23.55
279.676	31.74
279.892	-41.98
280.107	-48.13
280.322	-15.36
280.538	11.26
280.753	97.28
280.969	3.07
281.184	25.6
281.399	80.89
281.615	60.42
281.83	50.18
282.045	50.18
282.26	-11.26
282.476	33.79
282.691	31.74
282.906	-3.07
283.122	3.07
283.337	-21.5
283.552	27.65
283.767	-15.36
283.983	68.61
284.198	-9.22
284.413	54.27
284.628	-17.41
284.843	-3.07
285.058	95.23
285.274	125.95
285.489	-56.32
285.704	121.85
285.919	31.74
286.134	-46.08
286.349	11.26
286.564	-13.31
286.779	54.27
286.995	-25.6
287.21	-37.89
287.425	-3.07
287.64	52.22
287.855	9.22
288.07	-29.7
288.285	105.47
288.5	111.61
288.715	35.84
288.93	29.7
289.145	19.46
289.36	46.08
289.575	-27.65
289.79	56.32
290.004	44.03
290.219	158.72
290.434	31.74
290.649	-9.22
290.864	29.7
291.079	56.32
291.294	21.5
291.509	31.74
291.724	56.32
291.938	5.12
292.153	29.7
292.368	1.02
292.583	41.98
292.798	33.79
293.012	56.32
293.227	95.23
293.442	46.08
293.657	121.85
293.871	72.7
294.086	68.61
294.301	113.66
294.516	125.95
294.73	44.03
294.945	-58.37
295.16	93.18
295.374	101.37
295.589	84.99
295.804	-41.98
296.018	-21.5
296.233	101.37
296.447	84.99
296.662	7.17
296.877	62.46
297.091	29.7
297.306	33.79
297.52	3.07
297.735	21.5
297.949	5.12
298.164	19.46
298.378	113.66
298.593	-35.84
298.807	-9.22
299.022	93.18
299.236	-9.22
299.451	1.02
299.665	7.17
299.88	21.5
300.094	35.84
300.309	70.65
300.523	48.13
300.737	21.5
300.952	56.32
301.166	11.26
301.381	-9.22
301.595	-3.07
301.809	62.46
302.024	27.65
302.238	21.5
302.452	68.61
302.667	80.89
302.881	119.81
303.095	54.27
303.309	76.8
303.524	64.51
303.738	-76.8
303.952	9.22
304.166	31.74
304.381	-54.27
304.595	150.53
304.809	-15.36
305.023	58.37
305.237	84.99
305.452	-15.36
305.666	48.13
305.88	68.61
306.094	84.99
306.308	35.84
306.522	56.32
306.736	-3.07
306.95	-23.55
307.164	13.31
307.379	58.37
307.593	70.65
307.807	119.81
308.021	44.03
308.235	50.18
308.449	-39.94
308.663	-54.27
308.877	93.18
309.091	46.08
309.305	138.24
309.519	19.46
309.733	68.61
309.947	-87.04
310.161	97.28
310.374	29.7
310.588	84.99
310.802	-41.98
311.016	-25.6
311.23	1.02
311.444	-5.12
311.658	35.84
311.872	50.18
312.085	109.57
312.299	101.37
312.513	62.46
312.727	87.04
312.941	-60.42
313.154	44.03
313.368	66.56
313.582	-27.65
313.796	5.12
314.009	-48.13
314.223	91.13
314.437	19.46
314.651	11.26
314.864	-5.12
315.078	-15.36
315.292	9.22
315.505	-5.12
315.719	64.51
315.933	84.99
316.146	-68.61
316.36	-41.98
316.573	168.96
316.787	35.84
317.001	62.46
317.214	1.02
317.428	13.31
317.641	-21.5
317.855	21.5
318.068	23.55
318.282	52.22
318.495	136.19
318.709	72.7
318.922	-3.07
319.136	125.95
319.349	89.09
319.563	-31.74
319.776	21.5
319.99	-62.46
320.203	119.81
320.417	27.65
320.63	-7.17
320.843	93.18
321.057	80.89
321.27	15.36
321.483	130.05
321.697	64.51
321.91	39.94
322.124	3.07
322.337	72.7
322.55	7.17
322.763	64.51
322.977	5.12
323.19	58.37
323.403	44.03
323.617	35.84
323.83	119.81
324.043	-5.12
324.256	82.94
324.469	-29.7
324.683	101.37
324.896	54.27
325.109	78.85
325.322	-9.22
325.535	-13.31
325.748	46.08
325.962	23.55
326.175	123.9
326.388	52.22
326.601	113.66
326.814	25.6
327.027	52.22
327.24	82.94
327.453	7.17
327.666	54.27
327.879	84.99
328.092	-35.84
328.305	56.32
328.518	11.26
328.731	76.8
328.944	41.98
329.157	41.98
329.37	29.7
329.583	66.56
329.796	31.74
330.009	-5.12
330.222	64.51
330.435	101.37
330.648	64.51
330.861	46.08
331.073	11.26
331.286	150.53
331.499	78.85
331.712	1.02
331.925	-13.31
332.138	-1.02
332.35	11.26
332.563	84.99
332.776	39.94
332.989	3.07
333.202	52.22
333.414	-29.7
333.627	29.7
333.84	27.65
334.053	121.85
334.265	-11.26
334.478	13.31
334.691	5.12
334.903	66.56
335.116	37.89
335.329	68.61
335.541	103.42
335.754	87.04
335.966	48.13
336.179	5.12
336.392	-66.56
336.604	41.98
336.817	52.22
337.029	84.99
337.242	56.32
337.454	99.33
337.667	78.85
337.88	89.09
338.092	76.8
338.305	48.13
338.517	-23.55
338.729	84.99
338.942	109.57
339.154	-70.65
339.367	13.31
339.579	84.99
339.792	-3.07
340.004	60.42
340.217	11.26
340.429	74.75
340.641	13.31
340.854	19.46
341.066	29.7
341.278	138.24
341.491	89.09
341.703	13.31
341.915	31.74
342.128	87.04
342.34	17.41
342.552	-5.12
342.764	29.7
342.977	19.46
343.189	17.41
343.401	37.89
343.613	-68.61
343.826	80.89
344.038	46.08
344.25	46.08
344.462	27.65
344.674	35.84
344.886	91.13
345.099	56.32
345.311	39.94
345.523	-48.13
345.735	21.5
345.947	117.76
346.159	66.56
346.371	35.84
346.583	-19.46
346.795	99.33
347.007	19.46
347.219	54.27
347.431	13.31
347.643	84.99
347.855	60.42
348.067	52.22
348.279	15.36
348.491	1.02
348.703	44.03
348.915	70.65
349.127	-11.26
349.339	39.94
349.551	9.22
349.763	119.81
349.975	66.56
350.187	105.47
350.399	54.27
350.61	93.18
350.822	93.18
351.034	101.37
351.246	68.61
351.458	82.94
351.669	56.32
351.881	54.27
352.093	52.22
352.305	76.8
352.517	35.84
352.728	60.42
352.94	-5.12
353.152	103.42
353.363	41.98
353.575	21.5
353.787	97.28
353.999	52.22
354.21	80.89
354.422	-5.12
354.633	27.65
354.845	74.75
355.057	68.61
355.268	99.33
355.48	125.95
355.692	-5.12
355.903	117.76
356.115	84.99
356.326	-99.33
356.538	19.46
356.749	62.46
356.961	21.5
357.172	17.41
357.384	44.03
357.595	87.04
357.807	117.76
358.018	56.32
358.23	37.89
358.441	107.52
358.653	62.46
358.864	103.42
359.075	-23.55
359.287	33.79
359.498	3.07
359.709	64.51
359.921	25.6
360.132	52.22
360.344	72.7
360.555	46.08
360.766	5.12
360.977	-13.31
361.189	27.65
361.4	125.95
361.611	41.98
361.823	60.42
362.034	54.27
362.245	-21.5
362.456	93.18
362.667	80.89
362.879	31.74
363.09	68.61
363.301	11.26
363.512	33.79
363.723	29.7
363.935	-1.02
364.146	62.46
364.357	46.08
364.568	44.03
364.779	19.46
364.99	105.47
365.201	25.6
365.412	97.28
365.623	-13.31
365.834	97.28
366.045	-5.12
366.256	89.09
366.467	27.65
366.678	91.13
366.889	52.22
367.1	41.98
367.311	89.09
367.522	41.98
367.733	125.95
367.944	62.46
368.155	91.13
368.366	76.8
368.577	166.91
368.788	84.99
368.999	31.74
369.209	-78.85
369.42	191.49
369.631	164.86
369.842	41.98
370.053	54.27
370.264	31.74
370.474	-3.07
370.685	117.76
370.896	37.89
371.107	134.14
371.317	89.09
371.528	-27.65
371.739	111.61
371.95	-3.07
372.16	160.77
372.371	89.09
372.582	-11.26
372.792	117.76
373.003	25.6
373.214	82.94
373.424	95.23
373.635	27.65
373.846	41.98
374.056	84.99
374.267	62.46
374.477	-7.17
374.688	64.51
374.898	44.03
375.109	41.98
375.319	113.66
375.53	68.61
375.74	50.18
375.951	54.27
376.161	27.65
376.372	50.18
376.582	-37.89
376.793	76.8
377.003	17.41
377.214	27.65
377.424	31.74
377.635	19.46
377.845	13.31
378.055	128
378.266	-23.55
378.476	46.08
378.686	66.56
378.897	54.27
379.107	103.42
379.317	72.7
379.528	99.33
379.738	123.9
379.948	-19.46
380.158	56.32
380.369	44.03
380.579	29.7
380.789	19.46
380.999	1.02
381.21	119.81
381.42	164.86
381.63	-37.89
381.84	99.33
382.05	-15.36
382.261	111.61
382.471	134.14
382.681	41.98
382.891	113.66
383.101	9.22
383.311	23.55
383.521	27.65
383.731	109.57
383.941	121.85
384.151	89.09
384.361	95.23
384.571	140.29
384.781	95.23
384.991	154.62
385.201	93.18
385.411	-21.5
385.621	107.52
385.831	95.23
386.041	19.46
386.251	46.08
386.461	76.8
386.671	87.04
386.881	109.57
387.091	23.55
387.301	70.65
387.511	46.08
387.72	72.7
387.93	109.57
388.14	-37.89
388.35	31.74
388.56	144.38
388.769	134.14
388.979	152.57
389.189	56.32
389.399	82.94
389.609	99.33
389.818	119.81
390.028	41.98
390.238	93.18
390.447	7.17
390.657	58.37
390.867	41.98
391.076	3.07
391.286	21.5
391.496	62.46
391.705	97.28
391.915	177.15
392.125	138.24
392.334	46.08
392.544	111.61
392.753	150.53
392.963	50.18
393.172	64.51
393.382	15.36
393.591	222.2
393.801	41.98
394.01	111.61
394.22	105.47
394.429	41.98
394.639	58.37
394.848	93.18
395.058	101.37
395.267	31.74
395.477	-1.02
395.686	105.47
395.895	117.76
396.105	183.29
396.314	144.38
396.524	150.53
396.733	84.99
396.942	119.81
397.152	87.04
397.361	205.82
397.57	162.81
397.78	62.46
397.989	78.85
398.198	166.91
398.407	107.52
398.617	164.86
398.826	107.52
399.035	91.13
399.244	177.15
399.453	183.29
399.663	35.84
399.872	197.63
400.081	21.5
400.29	158.72
400.499	74.75
400.708	140.29
400.917	60.42
401.127	95.23
401.336	91.13
401.545	191.49
401.754	78.85
401.963	228.35
402.172	201.72
402.381	80.89
402.59	160.77
402.799	132.09
403.008	181.25
403.217	101.37
403.426	158.72
403.635	70.65
403.844	130.05
404.053	128
404.262	144.38
404.471	240.64
404.68	175.1
404.888	177.15
405.097	177.15
405.306	158.72
405.515	146.43
405.724	171.01
405.933	199.68
406.142	175.1
406.35	232.44
406.559	242.68
406.768	187.39
406.977	291.84
407.185	201.72
407.394	300.03
407.603	207.87
407.812	220.16
408.02	361.47
408.229	234.49
408.438	177.15
408.646	300.03
408.855	244.73
409.064	273.4
409.272	293.88
409.481	396.28
409.69	297.98
409.898	285.69
410.107	267.26
410.315	300.03
410.524	338.94
410.733	367.61
410.941	375.8
411.15	375.8
411.358	388.09
411.567	504.82
411.775	312.32
411.984	461.82
412.192	455.67
412.401	412.67
412.609	568.31
412.818	488.44
413.026	537.59
413.234	510.97
413.443	543.74
413.651	513.02
413.86	549.88
414.068	680.95
414.276	631.8
414.485	695.29
414.693	715.77
414.901	756.72
415.11	764.92
415.318	719.86
415.526	740.34
415.734	781.3
415.943	775.16
416.151	906.23
416.359	855.03
416.567	916.47
416.776	922.61
416.984	906.23
417.192	1111.02
417.4	1047.54
417.608	1051.63
417.817	1045.49
418.025	1137.65
418.233	1213.42
418.441	1160.17
418.649	1207.28
418.857	1395.69
419.065	1395.69
419.273	1369.07
419.481	1547.24
419.689	1530.86
419.897	1471.47
420.105	1559.53
420.313	1502.19
420.521	1797.09
420.729	1620.97
420.937	1760.23
421.145	1752.04
421.353	1940.45
421.561	2026.47
421.769	2061.28
421.977	2178.01
422.185	2157.54
422.393	2190.3
422.601	2499.55
422.809	2468.83
423.017	2323.42
423.224	2567.13
423.432	2608.09
423.64	2663.38
423.848	2874.32
424.056	2716.63
424.263	2978.77
424.471	2946
424.679	3058.64
424.887	3359.69
425.094	3324.88
425.302	3398.6
425.51	3431.37
425.718	3582.92
425.925	3683.27
426.133	3869.64
426.341	3929.03
426.548	4178.88
426.756	4150.21
426.964	4150.21
427.171	4375.49
427.379	4576.19
427.586	4586.43
427.794	4762.55
428.001	4918.2
428.209	5211.06
428.417	5180.34
428.624	5364.65
428.832	5542.83
429.039	5452.72
429.247	5327.79
429.454	5899.17
429.662	6550.43
429.869	5845.93
430.076	6417.31
430.284	6257.57
430.491	6509.47
430.699	6661.02
430.906	6658.97
431.114	7087
431.321	7252.88
431.528	7310.22
431.736	7713.67
431.943	7934.85
432.15	7846.79
432.358	8057.73
432.565	8383.36
432.772	8307.59
432.979	8760.19
433.187	8827.77
433.394	9149.3
433.601	9841.51
433.808	9778.03
434.016	9624.43
434.223	10099.56
434.43	10642.27
434.637	10570.59
434.844	11164.5
435.052	11365.2
435.259	11010.9
435.466	11340.63
435.673	11178.84
435.88	11789.13
436.087	12651.33
436.294	12745.53
436.501	12206.92
436.708	12548.93
436.915	13136.7
437.122	13703.98
437.329	13593.39
437.537	13962.03
437.743	14244.65
437.95	14146.34
438.157	14887.71
438.364	15397.65
438.571	15297.3
438.778	15366.93
438.985	17062.65
439.192	16210.7
439.399	16683.78
439.606	16284.42
439.813	17345.27
440.02	18451.17
440.227	18295.53
440.433	17769.2
440.64	18492.13
440.847	18367.21
441.054	18701.03
441.261	20095.69
441.467	19966.67
441.674	20351.69
441.881	20806.34
442.088	20847.3
442.294	20679.36
442.501	21263.04
442.708	21621.43
442.914	22446.76
443.121	23601.82
443.328	22917.79
443.534	24470.15
443.741	23530.14
443.948	23354.01
444.154	25324.16
444.361	25221.76
444.568	25123.46
444.774	25399.93
444.981	25264.77
445.187	26200.69
445.394	27347.55
445.6	27204.19
445.807	29409.86
446.013	28451.41
446.22	28889.67
446.426	30296.63
446.633	30276.15
446.839	31568.41
447.046	30063.16
447.252	31588.89
447.459	31830.55
447.665	31875.61
447.871	33415.68
448.078	35002.86
448.284	32764.43
448.491	33755.64
448.697	35547.62
448.903	35791.33
449.11	35992.03
449.316	35600.86
449.522	35613.15
449.728	37212.62
449.935	37317.06
450.141	37407.17
450.347	37945.79
450.553	37116.36
450.76	37702.08
450.966	38656.43
451.172	38455.73
451.378	39573.92
451.584	38742.45
451.791	39651.75
451.997	39352.74
452.203	40047
452.409	39963.04
452.615	39893.41
452.821	38439.35
453.027	38339
453.233	40210.84
453.44	38756.78
453.646	39063.98
453.852	39137.71
454.058	40364.44
454.264	38609.33
454.47	39401.89
454.676	38291.9
454.882	39772.58
455.088	36420.05
455.294	36768.21
455.5	37507.52
455.705	38230.46
455.911	36784.59
456.117	35834.33
456.323	35301.86
456.529	33542.66
456.735	34793.97
456.941	34163.19
457.147	33751.55
457.352	32678.41
457.558	32313.87
457.764	32229.91
457.97	31863.32
458.176	30982.7
458.381	31095.33
458.587	29536.83
458.793	29303.36
458.999	27812.44
459.204	30218.8
459.41	29160
459.616	27474.52
459.821	27210.34
460.027	27296.35
460.233	26628.71
460.438	25236.09
460.644	25676.41
460.85	24269.45
461.055	24107.66
461.261	23896.72
461.466	22391.47
461.672	21691.06
461.878	23366.3
462.083	21664.44
462.289	21193.4
462.494	21029.57
462.7	19909.33
462.905	19452.63
463.111	20021.97
463.316	20341.45
463.522	19839.7
463.727	19774.16
463.932	19673.81
464.138	19481.3
464.343	19702.48
464.549	19342.04
464.754	19550.93
464.959	19436.25
465.165	19239.64
465.37	18819.81
465.575	18017.01
465.781	18651.88
465.986	18905.82
466.191	18332.39
466.397	17775.34
466.602	17083.13
466.807	17791.73
467.012	17578.74
467.218	17404.66
467.423	17353.46
467.628	17476.34
467.833	18119.4
468.038	17502.96
468.244	17052.41
468.449	17677.04
468.654	17158.91
468.859	16796.42
469.064	17074.94
469.269	16130.83
469.474	16415.49
469.679	16866.05
469.885	16239.37
470.09	16034.57
470.295	16145.16
470.5	15811.34
470.705	16093.96
470.91	15561.49
471.115	15405.84
471.32	15694.61
471.525	15797.01
471.73	15311.64
471.935	15188.76
472.139	14711.58
472.344	15061.79
472.549	14736.16
472.754	14426.92
472.959	14369.57
473.164	13896.49
473.369	13933.36
473.574	14318.37
473.778	14052.14
473.983	14043.95
474.188	14121.77
474.393	13404.98
474.598	13570.86
474.802	13298.49
475.007	13321.01
475.212	13415.22
475.417	12669.76
475.621	13028.15
475.826	12942.14
476.031	12665.66
476.235	12301.12
476.44	12645.18
476.645	12057.42
476.849	12290.88
477.054	12141.38
477.259	12202.82
477.463	12002.12
477.668	11660.11
477.872	11989.83
478.077	11596.62
478.282	11281.24
478.486	11365.2
478.691	11144.02
478.895	11375.44
479.1	11090.77
479.304	11137.88
479.509	10918.75
479.713	11047.77
479.918	10615.65
480.122	10566.49
480.326	10672.99
480.531	10978.14
480.735	10447.71
480.94	10589.02
481.144	10885.98
481.348	10376.03
481.553	10292.07
481.757	10222.44
481.961	10300.26
482.166	10539.87
482.37	10404.71
482.574	10357.6
482.778	10204
482.983	10447.71
483.187	10285.92
483.391	10431.33
483.595	10333.03
483.8	10185.57
484.004	10228.58
484.208	10435.42
484.412	10251.11
484.616	10367.84
484.821	10232.68
485.025	10242.92
485.229	10242.92
485.433	10193.76
485.637	10185.57
485.841	10079.08
486.045	10099.56
486.249	10416.99
486.453	10228.58
486.657	10355.55
486.861	10410.85
487.065	9948.01
487.269	10070.89
487.473	10165.09
487.677	10310.5
487.881	10496.86
488.085	10124.13
488.289	10595.17
488.493	10201.96
488.697	10390.37
488.901	10513.25
489.105	10167.14
489.309	10406.75
489.512	10562.4
489.716	10261.35
489.92	10394.47
490.124	10402.66
490.328	10474.34
490.531	10462.05
490.735	10490.72
490.939	10511.2
491.143	10625.89
491.346	10443.62
491.55	10525.54
491.754	10761.05
491.958	10711.9
492.161	10791.77
492.365	10869.59
492.569	10658.65
492.772	10816.35
492.976	11070.3
493.18	11012.95
493.383	11150.17
493.587	10935.13
493.79	11209.56
493.994	11170.65
494.197	11455.31
494.401	11426.64
494.605	11293.52
494.808	11639.63
495.012	11567.95
495.215	11709.26
495.419	11672.4
495.622	11610.96
495.825	11848.52
496.029	11840.33
496.232	12231.49
496.436	11971.4
496.639	12442.43
496.843	12348.23
497.046	12350.28
497.249	12735.29
497.453	12784.44
497.656	12804.92
497.859	12901.18
498.063	12931.9
498.266	13347.64
498.469	13357.88
498.673	13318.96
498.876	13417.27
499.079	13691.7
499.282	13871.92
499.485	14248.74
499.689	14048.04
499.892	14082.86
500.095	14455.59
500.298	14580.51
500.501	14543.65
500.705	14949.15
500.908	14969.63
501.111	15237.91
501.314	15549.2
501.517	15319.83
501.72	15674.13
501.923	15776.53
502.126	15938.32
502.329	16356.1
502.532	16413.45
502.735	16542.47
502.938	16667.39
503.141	16968.45
503.344	17339.13
503.547	17140.47
503.75	17509.11
503.953	17631.99
504.156	17818.35
504.359	18041.58
504.562	18189.03
504.765	18653.92
504.968	18498.28
505.17	18940.64
505.373	18903.78
505.576	19190.49
505.779	19501.78
505.982	19268.31
506.185	19978.96
506.387	20095.69
506.59	20155.08
506.793	20527.81
506.996	20525.77
507.198	21195.45
507.401	21123.77
507.604	21297.85
507.807	21695.16
508.009	21648.05
508.212	21801.65
508.415	22301.36
508.617	22479.53
508.82	22401.71
509.022	22694.57
509.225	23057.06
509.428	23360.16
509.63	23499.42
509.833	23171.74
510.035	24124.05
510.238	23847.57
510.44	24099.47
510.643	24752.77
510.845	24713.86
511.048	24785.54
511.25	24806.02
511.453	25240.19
511.655	26188.4
511.858	25799.29
512.06	26061.43
512.262	26047.09
512.465	26370.67
512.667	26741.35
512.87	27167.33
513.072	26770.02
513.274	27441.76
513.477	27851.35
513.679	28078.68
513.881	28297.81
514.084	28682.83
514.286	28361.3
514.488	28934.73
514.69	29790.78
514.893	29628.99
515.095	29542.97
515.297	30091.83
515.499	30417.46
515.701	30704.17
515.904	30771.75
516.106	31103.53
516.308	31396.38
516.51	31803.93
516.712	31736.35
516.914	32121.37
517.116	32604.69
517.318	32569.87
517.52	32987.66
517.722	33036.81
517.925	33159.69
518.127	33810.94
518.329	33978.87
518.531	33962.49
518.733	34550.26
518.935	34886.12
519.136	34767.34
519.338	35537.38
519.54	35518.95
519.742	35977.69
519.944	36190.68
520.146	36176.34
520.348	36901.32
520.55	36737.49
520.752	36903.37
520.954	37654.98
521.155	37378.5
521.357	38097.34
521.559	38119.87
521.761	38371.77
521.963	38791.6
522.164	38951.34
522.366	38928.81
522.568	39483.81
522.77	39516.58
522.971	40030.62
523.173	40024.48
523.375	40653.2
523.576	40522.13
523.778	40448.41
523.98	40929.68
524.181	41337.23
524.383	40919.44
524.584	41466.25
524.786	41884.03
524.988	41300.36
525.189	42486.14
525.391	42473.85
525.592	42529.14
525.794	42649.97
525.995	42805.62
526.197	43049.33
526.398	43032.94
526.6	43495.78
526.801	43563.37
527.003	43549.03
527.204	43614.57
527.406	43819.36
527.607	44130.65
527.808	44431.71
528.01	43800.93
528.211	44071.26
528.412	44853.59
528.614	44509.53
528.815	44818.77
529.016	45115.73
529.218	44786
529.419	45091.15
529.62	45300.04
529.822	45107.54
530.023	45461.83
530.224	45519.18
530.425	45621.58
530.626	45115.73
530.828	45300.04
531.029	46381.37
531.23	45840.71
531.431	45674.82
531.632	46149.95
531.833	46260.54
532.035	46168.38
532.236	46383.42
532.437	46643.51
532.638	46158.14
532.839	46399.8
533.04	46319.93
533.241	46223.68
533.442	47216.94
533.643	46387.52
533.844	46641.46
534.045	46590.27
534.246	46346.56
534.447	46827.83
534.648	46516.54
534.849	47065.39
535.05	46510.39
535.251	46827.83
535.451	46528.83
535.652	46559.55
535.853	46344.51
536.054	46750.01
536.255	46735.67
536.456	46553.4
536.657	47655.21
536.857	46551.35
537.058	46457.15
537.259	47171.89
537.46	46907.7
537.66	46541.11
537.861	46860.6
538.062	46977.33
538.263	46752.05
538.463	46156.1
538.664	46616.89
538.865	46541.11
539.065	46862.64
539.266	46680.38
539.466	46784.82
539.667	46516.54
539.868	47202.61
540.068	46524.73
540.269	46522.68
540.469	46557.5
540.67	46852.41
540.87	46563.64
541.071	46860.6
541.271	47155.5
541.472	46827.83
541.672	46608.7
541.873	46545.21
542.073	46055.75
542.274	46805.3
542.474	46430.52
542.675	46430.52
542.875	47194.42
543.075	46659.9
543.276	46098.75
543.476	46967.09
543.676	46291.26
543.877	46391.61
544.077	46350.65
544.277	46586.17
544.478	46258.49
544.678	46541.11
544.878	46606.65
545.078	46254.4
545.279	46027.07
545.479	46233.92
545.679	46485.82
545.879	46274.88
546.079	46391.61
546.28	46012.74
546.48	46358.84
546.68	46682.42
546.88	46420.28
547.08	45979.97
547.28	45730.12
547.48	45887.81
547.68	46510.39
547.88	45853
548.081	46758.2
548.281	45996.35
548.481	45898.05
548.681	45916.48
548.881	46197.06
549.081	46317.89
549.28	45916.48
549.48	46367.04
549.68	46039.36
549.88	46745.91
550.08	45986.11
550.28	46168.38
550.48	46457.15
550.68	46418.24
550.88	45979.97
551.08	45801.8
551.279	46074.18
551.479	45734.21
551.679	46184.77
551.879	45949.25
552.079	45947.2
552.278	45906.24
552.478	46268.73
552.678	45904.2
552.878	45803.85
553.077	45621.58
553.277	45605.19
553.477	45875.52
553.676	45689.16
553.876	45853
554.076	45760.84
554.275	45537.61
554.475	45336.91
554.674	45433.16
554.874	45750.6
555.074	45474.12
555.273	45541.71
555.473	45760.84
555.672	45283.66
555.872	45556.04
556.071	45553.99
556.271	45556.04
556.47	45191.5
556.67	44771.67
556.869	44683.61
557.068	45060.43
557.268	45214.03
557.467	45042
557.667	45070.67
557.866	44857.68
558.065	44831.06
558.265	44681.56
558.464	44521.82
558.663	45166.93
558.863	44423.51
559.062	45277.52
559.261	43944.29
559.461	44843.35
559.66	43845.99
559.859	44775.76
560.058	44312.92
560.258	44489.05
560.457	43776.36
560.656	44210.53
560.855	44024.16
561.054	44292.44
561.253	44061.02
561.453	44181.85
561.652	43899.23
561.851	43770.21
562.05	43606.37
562.249	43469.16
562.448	43981.15
562.647	43155.82
562.846	43270.51
563.045	43536.74
563.244	43217.26
563.443	43479.4
563.642	42918.26
563.841	43229.55
564.04	42916.21
564.239	43147.63
564.438	42725.75
564.637	42858.87
564.836	42690.93
565.035	42488.18
565.234	42500.47
565.432	42690.93
565.631	42283.39
565.83	42447.22
566.029	42125.69
566.228	42324.35
566.427	42267
566.625	41974.14
566.824	41630.08
567.023	41927.04
567.222	41828.74
567.42	41968
567.619	41732.48
567.818	41957.76
568.016	41701.76
568.215	42060.16
568.414	41525.64
568.612	41658.76
568.811	41273.74
569.01	41087.37
569.208	40692.12
569.407	41077.13
569.605	40606.1
569.804	41476.49
570.002	40257.95
570.201	40415.64
570.4	40518.04
570.598	40032.67
570.797	40087.96
570.995	40241.56
571.193	39838.11
571.392	40440.21
571.59	39502.25
571.789	40161.69
571.987	39541.16
572.186	39483.81
572.384	39623.08
572.582	39989.66
572.781	39598.5
572.979	38830.51
573.177	39195.05
573.376	39739.81
573.574	39156.14
573.772	39113.13
573.971	38568.37
574.169	38664.63
574.367	38406.58
574.565	38414.77
574.763	38599.09
574.962	38566.32
575.16	38148.54
575.358	38250.94
575.556	37941.69
575.754	38408.63
575.952	37853.63
576.151	38216.12
576.349	37478.85
576.547	37470.66
576.745	37886.4
576.943	37720.51
577.141	37495.24
577.339	37190.09
577.537	37149.13
577.735	37509.57
577.933	36981.2
578.131	37104.07
578.329	36743.63
578.527	36841.93
578.725	36542.93
578.923	36911.56
579.121	36334.04
579.319	36385.24
579.516	36790.73
579.714	36590.03
579.912	36334.04
580.11	36331.99
580.308	35836.38
580.506	36026.84
580.704	35678.69
580.901	36002.27
581.099	36411.86
581.297	35381.73
581.495	35801.57
581.692	35613.15
581.89	35318.25
582.088	35441.12
582.285	35121.64
582.483	35287.53
582.681	35305.96
582.878	35158.5
583.076	34720.24
583.274	34918.89
583.471	34511.35
583.669	34664.94
583.866	34408.95
584.064	34570.74
584.262	33827.32
584.459	34114.04
584.657	34230.77
584.854	34130.42
585.052	33749.5
585.249	34093.56
585.447	33972.73
585.644	33788.41
585.841	33606.14
586.039	34044.41
586.236	33528.32
586.434	33110.53
586.631	33153.54
586.828	33311.24
587.026	32961.03
587.223	33298.95
587.42	33116.68
587.618	33014.28
587.815	32438.8
588.012	32621.07
588.21	32526.86
588.407	32805.39
588.604	32432.66
588.801	32287.25
588.999	32131.61
589.196	32211.48
589.393	31935
589.59	31805.98
589.787	31738.4
589.984	31820.31
590.182	31390.24
590.379	31785.5
590.576	31703.58
590.773	31369.76
590.97	31443.49
591.167	31361.57
591.364	30861.87
591.561	31222.31
591.758	30788.14
591.955	30919.21
592.152	31179.3
592.349	30845.48
592.546	30911.02
592.743	30612.01
592.94	30298.67
593.137	30374.45
593.334	30503.47
593.531	30177.84
593.727	30140.98
593.924	30362.16
594.121	30136.88
594.318	29911.61
594.515	29833.78
594.712	29907.51
594.908	29819.45
595.105	29604.41
595.302	29497.92
595.499	29588.03
595.696	29610.56
595.892	28949.06
596.089	29401.66
596.286	29594.17
596.482	28674.63
596.679	28953.16
596.876	28871.24
597.072	28715.59
597.269	29055.56
597.466	28592.72
597.662	28420.69
597.859	28297.81
598.055	28408.4
598.252	28385.87
598.448	28484.17
598.645	28189.27
598.841	27740.76
599.038	28027.48
599.234	28070.48
599.431	27667.03
599.627	27699.8
599.824	27777.62
600.02	27249.25
600.217	27652.7
600.413	27077.22
600.609	27099.75
600.806	27105.89
601.002	27263.58
601.198	26903.14
601.395	26915.43
601.591	26960.48
601.787	26847.85
601.984	26763.88
602.18	26862.18
602.376	26790.5
602.572	26442.35
602.769	25889.4
602.965	26108.53
603.161	26155.63
603.357	25911.92
603.553	26268.27
603.75	26313.33
603.946	26057.33
604.142	26182.26
604.338	25631.35
604.534	25825.91
604.73	25576.06
604.926	25483.9
605.122	25524.86
605.318	25227.9
605.514	24971.91
605.71	25348.73
605.906	25215.62
606.102	25121.41
606.298	25045.63
606.494	24838.79
606.69	24930.95
606.886	25160.32
607.082	24791.69
607.278	24754.82
607.474	24316.56
607.67	24822.41
607.866	24588.94
608.062	24851.08
608.257	24437.39
608.453	24445.58
608.649	24662.66
608.845	24109.71
609.041	24201.87
609.236	24242.83
609.432	24529.55
609.628	23978.64
609.824	24091.28
610.019	23775.89
610.215	23724.69
610.411	24115.86
610.606	23849.62
610.802	23820.95
610.998	23857.81
611.193	23794.32
611.389	23589.53
611.584	23620.25
611.78	23206.56
611.976	23331.48
612.171	23356.06
612.367	23304.86
612.562	23110.3
612.758	23282.33
612.953	23095.97
613.149	23480.99
613.344	22887.07
613.539	23331.48
613.735	23093.92
613.93	23128.74
614.126	23040.67
614.321	22975.14
614.517	23196.32
614.712	22629.03
614.907	22624.93
615.103	22893.22
615.298	22327.98
615.493	22930.08
615.688	22407.85
615.884	22811.3
616.079	22231.72
616.274	22756
616.47	22514.34
616.665	22588.07
616.86	22112.94
617.055	22373.03
617.25	22149.81
617.445	22524.58
617.641	22043.31
617.836	22143.66
618.031	21531.32
618.226	21863.09
618.421	21738.16
618.616	22145.71
618.811	21529.27
619.006	21955.25
619.201	21559.99
619.396	21320.38
619.591	21152.45
619.786	21412.54
619.981	21320.38
620.176	21367.48
620.371	21058.24
620.566	20984.51
620.761	20939.46
620.956	20826.82
621.151	20548.29
621.346	20818.63
621.541	20390.6
621.735	20583.11
621.93	19960.53
622.125	20400.84
622.32	20050.64
622.515	20253.39
622.709	19892.94
622.904	19587.8
623.099	19884.75
623.294	19706.58
623.488	19436.25
623.683	19532.5
623.878	19112.67
624.072	19520.21
624.267	19294.94
624.462	19034.85
624.656	19030.75
624.851	19167.96
625.046	18674.4
625.24	18664.16
625.435	18690.79
625.629	18602.72
625.824	18356.97
626.018	18127.6
626.213	18072.3
626.407	18131.69
626.602	17787.63
626.796	18078.44
626.991	17900.27
627.185	17689.33
627.38	17371.89
627.574	17476.34
627.768	17335.03
627.963	17443.57
628.157	17199.87
628.352	17163
628.546	17199.87
628.74	17142.52
628.935	16880.38
629.129	16882.43
629.323	16784.13
629.517	16630.53
629.712	16710.4
629.906	16665.35
630.1	16333.57
630.294	16435.97
630.489	16284.42
630.683	16343.81
630.877	16093.96
631.071	15893.26
631.265	15887.12
631.459	15735.57
631.653	15717.14
631.848	15807.25
632.042	15395.61
632.236	15620.88
632.43	15493.91
632.624	15526.68
632.818	15260.44
633.012	15280.92
633.206	15377.17
633.4	14904.09
633.594	14813.98
633.788	14834.46
633.982	14773.02
634.176	14717.73
634.369	14693.15
634.563	14555.94
634.757	14357.28
634.951	14582.56
635.145	14451.49
635.339	14242.6
635.533	14142.25
635.726	14125.86
635.92	13777.71
636.114	13962.03
636.308	14084.91
636.501	13910.83
636.695	13863.72
636.889	13736.75
637.083	13779.76
637.276	13538.1
637.47	13460.27
637.664	13314.87
637.857	13407.03
638.051	13404.98
638.244	13292.34
638.438	13175.61
638.632	13095.74
638.825	12876.6
639.019	12868.41
639.212	12888.89
639.406	12862.27
639.599	12895.04
639.793	12692.29
639.986	12655.42
640.18	12573.5
640.373	12405.57
640.567	12383.04
640.76	12534.59
640.954	12118.86
641.147	12346.18
641.34	12053.32
641.534	11932.49
641.727	12133.19
641.92	11930.44
642.114	11871.05
642.307	11764.56
642.5	11897.67
642.694	11610.96
642.887	11713.36
643.08	11680.59
643.273	11811.66
643.467	11543.38
643.66	11350.87
643.853	11344.72
644.046	11082.58
644.239	11299.67
644.432	11201.37
644.626	11162.45
644.819	10853.21
645.012	11006.81
645.205	10990.42
645.398	10947.42
645.591	10638.17
645.784	10658.65
645.977	10711.9
646.17	10718.04
646.363	10660.7
646.556	10496.86
646.749	10523.49
646.942	10392.42
647.135	10267.49
647.328	10195.81
647.521	10302.31
647.714	10228.58
647.907	10152.81
648.099	9960.3
648.292	10228.58
648.485	10109.8
648.678	9972.58
648.871	9759.6
649.064	9872.23
649.256	10052.45
649.449	9751.4
649.642	9773.93
649.835	9653.1
650.027	9653.1
650.22	9419.63
650.413	9331.57
650.605	9530.22
650.798	9409.39
650.991	9493.36
651.183	9235.32
651.376	9143.16
651.568	9276.27
651.761	8997.75
651.954	9317.23
652.146	9087.86
652.339	9171.83
652.531	9087.86
652.724	8866.68
652.916	8649.6
653.109	8868.73
653.301	8838.01
653.494	8805.24
653.686	8711.04
653.879	8760.19
654.071	8663.93
654.263	8668.03
654.456	8672.12
654.648	8766.33
654.84	8465.28
655.033	8350.59
655.225	8108.93
655.417	8223.62
655.61	8340.35
655.802	8330.11
655.994	8096.64
656.186	8090.5
656.379	8211.33
656.571	8024.97
656.763	7965.57
656.955	7930.76
657.148	7918.47
657.34	7998.34
657.532	7744.39
657.724	7840.65
657.916	7906.18
658.108	7854.98
658.3	7785.35
658.492	7764.87
658.684	7646.09
658.876	7693.19
659.068	7564.17
659.26	7494.54
659.452	7629.71
659.644	7340.94
659.836	7437.2
660.028	7517.07
660.22	7168.91
660.412	7289.74
660.604	7406.48
660.796	7338.9
660.988	7248.79
661.18	7150.48
661.372	7148.43
661.563	7216.02
661.755	7136.15
661.947	7132.05
662.139	6927.25
662.331	7021.46
662.522	6859.67
662.714	6802.33
662.906	6888.34
663.097	6857.62
663.289	6900.63
663.481	6720.41
663.673	6753.18
663.864	6730.65
664.056	6650.78
664.247	6634.39
664.439	6837.14
664.631	6749.08
664.822	6482.85
665.014	6632.35
665.205	6509.47
665.397	6290.34
665.588	6548.38
665.78	6566.81
665.971	6468.51
666.163	6597.53
666.354	6505.37
666.546	6456.22
666.737	6282.14
666.929	6323.1
667.12	6185.89
667.311	6212.51
667.503	6155.17
667.694	6241.18
667.885	6319.01
668.077	6265.76
668.268	6020
668.459	5970.85
668.651	6040.48
668.842	5966.76
669.033	6087.59
669.224	6052.77
669.416	6159.27
669.607	6009.76
669.798	5923.75
669.989	5985.19
670.18	6083.49
670.371	5921.7
670.563	5852.07
670.754	5952.42
670.945	5837.73
671.136	5741.48
671.327	5776.3
671.518	5741.48
671.709	5923.75
671.9	5835.69
672.091	5770.15
672.282	5639.08
672.473	5643.18
672.664	5669.8
672.855	5774.25
673.046	5596.07
673.237	5680.04
673.428	5620.65
673.619	5911.46
673.809	5589.93
674	5688.23
674.191	5594.03
674.382	5522.35
674.573	5573.55
674.764	5393.33
674.954	5520.3
675.145	5573.55
675.336	5575.59
675.527	5430.19
675.717	5536.68
675.908	5524.4
676.099	5442.48
676.289	5565.36
676.48	5434.29
676.671	5385.13
676.861	5493.68
677.052	5442.48
677.243	5331.89
677.433	5323.69
677.624	5520.3
677.814	5319.6
678.005	5370.8
678.195	5542.83
678.386	5348.27
678.576	5360.56
678.767	5301.17
678.957	5272.5
679.148	5356.46
679.338	5383.09
679.529	5288.88
679.719	5272.5
679.909	5424.05
680.1	5471.15
680.29	5381.04
680.481	5397.42
680.671	5354.41
680.861	5385.13
681.052	5311.41
681.242	5280.69
681.432	5364.65
681.622	5153.71
681.813	5352.37
682.003	5313.45
682.193	5184.43
682.383	5239.73
682.573	5282.74
682.764	5155.76
682.954	5270.45
683.144	5290.93
683.334	5075.89
683.524	5237.68
683.714	5276.59
683.904	5227.44
684.094	5227.44
684.284	5090.23
684.474	5272.5
684.664	5163.95
684.854	5100.47
685.044	5112.75
685.234	5082.03
685.424	5125.04
685.614	4987.83
685.804	5090.23
685.994	4977.59
686.184	5116.85
686.374	4963.25
686.564	4985.78
686.753	5024.69
686.943	5010.36
687.133	4856.76
687.323	4877.24
687.513	5069.75
687.702	4940.72
687.892	4852.66
688.082	4756.41
688.272	4797.37
688.461	4795.32
688.651	4723.64
688.841	4846.52
689.03	4713.4
689.22	4701.11
689.41	4744.12
689.599	4707.26
689.789	4606.91
689.979	4492.22
690.168	4592.57
690.358	4637.63
690.547	4488.12
690.737	4588.47
690.926	4543.42
691.116	4291.52
691.305	4473.79
691.495	4479.93
691.684	4357.05
691.874	4463.55
692.063	4342.72
692.252	4393.92
692.442	4240.32
692.631	4316.09
692.82	4279.23
693.01	4266.94
693.199	4262.85
693.388	4172.74
693.578	4146.11
693.767	4254.66
693.956	4023.23
694.146	4103.11
694.335	4266.94
694.524	4062.15
694.713	4172.74
694.902	4182.98
695.092	4113.35
695.281	3953.6
695.47	3926.98
695.659	3955.65
695.848	4154.3
696.037	4023.23
696.226	4039.62
696.415	4004.8
696.604	4023.23
696.793	3963.84
696.982	3877.83
697.171	4086.72
697.36	3865.54
697.549	3941.32
697.738	3849.16
697.927	3865.54
698.116	3904.45
698.305	4035.52
698.494	3898.31
698.683	3847.11
698.872	3886.02
699.061	3955.65
699.25	3883.97
699.438	3791.81
699.627	3818.44
699.816	3886.02
700.005	3879.88
700.193	3761.09
700.382	3886.02
700.571	3763.14
700.76	3681.22
700.948	3892.16
701.137	3713.99
701.326	3699.66
701.514	3853.25
701.703	3795.91
701.892	3845.06
702.08	3853.25
702.269	3793.86
702.457	3779.53
702.646	3773.38
702.834	3779.53
703.023	3886.02
703.212	3812.29
703.4	3730.38
703.589	3789.77
703.777	3701.7
703.965	3804.1
704.154	3843.01
704.342	3781.57
704.531	3976.13
704.719	3826.63
704.907	3816.39
705.096	3716.04
705.284	3859.4
705.472	3664.84
705.661	3883.97
705.849	3916.74
706.037	3740.61
706.226	3679.18
706.414	3847.11
706.602	3750.85
706.79	3845.06
706.979	3716.04
707.167	3879.88
707.355	3804.1
707.543	3898.31
707.731	3845.06
707.919	3736.52
708.107	3787.72
708.296	3656.65
708.484	3771.33
708.672	3824.58
708.86	3769.29
709.048	3804.1
709.236	3713.99
709.424	3843.01
709.612	3873.73
709.8	3902.4
709.988	3707.85
710.176	3730.38
710.364	3857.35
710.551	3869.64
710.739	3830.73
710.927	3816.39
711.115	3797.96
711.303	3795.91
711.491	3806.15
711.679	3865.54
711.866	3865.54
712.054	3853.25
712.242	3853.25
712.43	3959.75
712.617	3843.01
712.805	3926.98
712.993	3797.96
713.181	3865.54
713.368	3904.45
713.556	3926.98
713.744	3742.66
713.931	4082.63
714.119	3881.92
714.306	3896.26
714.494	3945.41
714.682	3931.08
714.869	3957.7
715.057	3935.17
715.244	3861.45
715.432	3969.99
715.619	3918.79
715.807	4058.05
715.994	4070.34
716.182	3969.99
716.369	3998.66
716.556	3986.37
716.744	3918.79
716.931	3959.75
717.119	4148.16
717.306	3996.61
717.493	4115.39
717.681	4002.75
717.868	3939.27
718.055	4004.8
718.242	4021.19
718.43	3957.7
718.617	4025.28
718.804	3922.88
718.991	4076.48
719.179	4103.11
719.366	3918.79
719.553	4187.07
719.74	4037.57
719.927	4062.15
720.114	4117.44
720.301	4051.91
720.488	3976.13
720.676	4029.38
720.863	4123.59
721.05	4148.16
721.237	4068.29
721.424	4031.43
721.611	4070.34
721.798	3992.52
721.985	4131.78
722.172	4021.19
722.358	4115.39
722.545	4203.46
722.732	4101.06
722.919	4168.64
723.106	4197.31
723.293	4154.3
723.48	4062.15
723.667	4158.4
723.853	4203.46
724.04	4185.02
724.227	4207.55
724.414	4109.25
724.6	4148.16
724.787	4094.91
724.974	4166.59
725.161	4060.1
725.347	4176.83
725.534	4262.85
725.72	4062.15
725.907	4211.65
726.094	4207.55
726.28	4111.3
726.467	3986.37
726.653	4195.26
726.84	4215.74
727.027	4168.64
727.213	4191.17
727.4	4264.89
727.586	4236.22
727.773	4205.5
727.959	4131.78
728.145	4146.11
728.332	4207.55
728.518	4225.98
728.705	4264.89
728.891	4189.12
729.077	4240.32
729.264	4266.94
729.45	4260.8
729.636	4273.09
729.823	4219.84
730.009	4293.57
730.195	4180.93
730.382	4246.46
730.568	4371.39
730.754	4305.85
730.94	4262.85
731.126	4355.01
731.313	4346.81
731.499	4299.71
731.685	4348.86
731.871	4316.09
732.057	4250.56
732.243	4326.33
732.429	4373.44
732.615	4289.47
732.801	4346.81
732.987	4213.7
733.173	4346.81
733.359	4236.22
733.545	4289.47
733.731	4283.33
733.917	4215.74
734.103	4217.79
734.289	4355.01
734.475	4219.84
734.661	4236.22
734.847	4197.31
735.033	4254.66
735.219	4232.13
735.404	4357.05
735.59	4105.15
735.776	4074.43
735.962	4328.38
736.148	4254.66
736.333	4385.73
736.519	4178.88
736.705	4350.91
736.89	4211.65
737.076	4312
737.262	4117.44
737.447	4189.12
737.633	4088.77
737.819	4162.5
738.004	4129.73
738.19	4096.96
738.375	4109.25
738.561	4142.02
738.747	4144.06
738.932	4221.89
739.118	4109.25
739.303	4156.35
739.489	4070.34
739.674	4035.52
739.859	4148.16
740.045	4123.59
740.23	4099.01
740.416	3939.27
740.601	3984.32
740.786	4131.78
740.972	3896.26
741.157	3951.56
741.342	3976.13
741.528	3890.12
741.713	3926.98
741.898	4000.71
742.084	3879.88
742.269	3961.8
742.454	3918.79
742.639	3961.8
742.824	3855.3
743.01	4056
743.195	4043.71
743.38	3767.24
743.565	3976.13
743.75	3910.6
743.935	3804.1
744.12	3890.12
744.305	3744.71
744.49	3779.53
744.675	3779.53
744.86	3664.84
745.045	3763.14
745.23	3769.29
745.415	3726.28
745.6	3795.91
745.785	3697.61
745.97	3677.13
746.155	3691.46
746.34	3601.35
746.525	3640.26
746.71	3757
746.895	3552.2
747.079	3517.39
747.264	3505.1
747.449	3517.39
747.634	3560.39
747.819	3412.94
748.003	3472.33
748.188	3380.17
748.373	3533.77
748.557	3343.31
748.742	3310.54
748.927	3314.64
749.111	3410.89
749.296	3388.36
749.481	3386.32
749.665	3240.91
749.85	3283.92
750.034	3171.28
750.219	3185.62
750.404	3154.9
750.588	3197.9
750.773	3152.85
750.957	3091.41
751.141	3146.7
751.326	3179.47
751.51	3029.97
751.695	3021.78
751.879	3058.64
752.064	2976.72
752.248	2984.91
752.432	3070.93
752.617	2964.43
752.801	2999.25
752.985	2903
753.17	2915.28
753.354	2935.76
753.538	2839.51
753.722	2870.23
753.907	2745.3
754.091	2800.6
754.275	2751.45
754.459	2771.93
754.643	2710.49
754.828	2726.87
755.012	2669.53
755.196	2722.77
755.38	2520.03
755.564	2550.75
755.748	2581.46
755.932	2626.52
756.116	2589.66
756.3	2454.49
756.484	2345.95
756.668	2548.7
756.852	2378.72
757.036	2597.85
757.22	2360.28
757.404	2431.96
757.588	2286.56
757.772	2468.83
757.956	2452.44
758.14	2593.75
758.323	2311.13
758.507	2446.3
758.691	2321.37
758.875	2360.28
759.059	2421.72
759.242	2249.69
759.426	2208.73
759.61	2225.12
759.794	2173.92
759.977	2200.54
760.161	2204.64
760.345	2286.56
760.528	2169.82
760.712	2180.06
760.895	2141.15
761.079	2040.8
761.263	2124.77
761.446	2053.09
761.63	2130.91
761.813	2178.01
761.997	2075.62
762.18	2038.75
762.364	1989.6
762.547	1930.21
762.731	1944.55
762.914	2085.86
763.098	2008.03
763.281	2065.38
763.464	1983.46
763.648	1973.22
763.831	1965.03
764.015	1967.07
764.198	1934.31
764.381	1836
764.564	1905.63
764.748	1905.63
764.931	1952.74
765.114	1811.43
765.297	1962.98
765.481	1819.62
765.664	1885.16
765.847	1807.33
766.03	1858.53
766.213	1856.48
766.397	1729.51
766.58	1739.75
766.763	1801.19
766.946	1842.15
767.129	1735.65
767.312	1809.38
767.495	1743.85
767.678	1743.85
767.861	1780.71
768.044	1666.02
768.227	1872.87
768.41	1876.96
768.593	1799.14
768.776	1666.02
768.959	1569.77
769.142	1860.58
769.324	1666.02
769.507	1733.61
769.69	1653.73
769.873	1647.59
770.056	1690.6
770.239	1684.45
770.421	1739.75
770.604	1670.12
770.787	1586.15
770.97	1543.14
771.152	1555.43
771.335	1686.5
771.518	1645.54
771.7	1565.67
771.883	1678.31
772.066	1551.34
772.248	1504.23
772.431	1612.78
772.613	1508.33
772.796	1471.47
772.978	1537
773.161	1641.45
773.343	1424.36
773.526	1534.95
773.708	1448.94
773.891	1414.12
774.073	1407.98
774.256	1463.27
774.438	1477.61
774.621	1369.07
774.803	1465.32
774.985	1459.18
775.168	1416.17
775.35	1350.64
775.532	1375.21
775.715	1319.92
775.897	1274.86
776.079	1283.05
776.261	1289.2
776.444	1324.01
776.626	1344.49
776.808	1281
776.99	1274.86
777.173	1219.57
777.355	1393.64
777.537	1264.62
777.719	1258.48
777.901	1299.44
778.083	1233.9
778.265	1221.61
778.447	1203.18
778.629	1154.03
778.811	1256.43
778.993	1113.07
779.175	1192.94
779.357	1182.7
779.539	1217.52
779.721	1149.93
779.903	1031.15
780.085	994.29
780.267	1102.83
780.449	1104.88
780.631	1090.54
780.812	1113.07
780.994	1072.11
781.176	1117.17
781.358	1106.93
781.54	1059.82
781.721	1025.01
781.903	1086.45
782.085	930.8
782.267	1104.88
782.448	930.8
782.63	930.8
782.812	951.28
782.993	1045.49
783.175	994.29
783.357	889.84
783.538	932.85
783.72	844.79
783.901	898.03
784.083	945.14
784.264	906.23
784.446	930.8
784.627	814.07
784.809	957.43
784.99	820.21
785.172	879.6
785.353	760.82
785.535	822.26
785.716	721.91
785.897	814.07
786.079	840.69
786.26	826.36
786.441	816.12
786.623	773.11
786.804	777.2
786.985	771.06
787.167	832.5
787.348	777.2
787.529	701.43
787.71	795.64
787.891	719.86
788.073	678.9
788.254	744.44
788.435	848.88
788.616	756.72
788.797	721.91
788.978	703.48
789.159	734.2
789.34	756.72
789.522	740.34
789.703	764.92
789.884	586.74
790.065	707.57
790.246	676.85
790.427	691.19
790.607	631.8
790.788	635.89
790.969	650.23
791.15	650.23
791.331	613.37
791.512	617.46
791.693	562.17
791.874	695.29
792.054	683
792.235	654.33
792.416	570.36
792.597	607.22
792.778	658.42
792.958	615.41
793.139	623.61
793.32	617.46
793.5	572.41
793.681	656.37
793.862	592.89
794.042	586.74
794.223	521.21
794.404	486.39
794.584	545.78
794.765	615.41
794.945	494.58
795.126	601.08
795.306	527.35
795.487	578.55
795.667	527.35
795.848	603.13
796.028	576.5
796.209	504.82
796.389	463.86
796.57	570.36
796.75	510.97
796.93	480.25
797.111	472.06
797.291	527.35
797.471	613.37
797.652	470.01
797.832	467.96
798.012	539.64
798.192	478.2
798.373	363.51
798.553	510.97
798.733	508.92
798.913	422.91
799.093	470.01
799.274	420.86
799.454	521.21
799.634	488.44
799.814	502.78
799.994	373.75
800.174	416.76
800.354	404.47
800.534	359.42
800.714	447.48
800.894	488.44
801.074	408.57
801.254	422.91
801.434	558.07
801.614	465.91
801.794	472.06
801.974	1274.86
802.154	373.75
802.334	474.1
802.514	447.48
802.693	361.47
802.873	420.86
803.053	433.15
803.233	379.9
803.413	418.81
803.592	429.05
803.772	431.1
803.952	427
804.131	369.66
804.311	375.8
804.491	424.95
804.67	345.08
804.85	343.03
805.03	371.71
805.209	377.85
805.389	373.75
805.568	461.82
805.748	412.67
805.928	308.22
806.107	369.66
806.287	295.93
806.466	359.42
806.646	332.79
806.825	289.79
807.004	338.94
807.184	383.99
807.363	408.57
807.543	343.03
807.722	381.95
807.901	367.61
808.081	363.51
808.26	302.08
808.439	418.81
808.619	396.28
808.798	388.09
808.977	359.42
809.156	377.85
809.336	281.6
809.515	275.45
809.694	234.49
809.873	312.32
810.052	343.03
810.231	482.3
810.411	287.74
810.59	383.99
810.769	320.51
810.948	285.69
811.127	271.36
811.306	259.07
811.485	246.78
811.664	388.09
811.843	328.7
812.022	316.41
812.201	338.94
812.38	257.02
812.559	263.16
812.737	338.94
812.916	224.25
813.095	277.5
813.274	220.16
813.453	263.16
813.632	308.22
813.811	289.79
813.989	287.74
814.168	281.6
814.347	197.63
814.526	248.83
814.704	289.79
814.883	322.56
815.062	162.81
815.24	332.79
815.419	285.69
815.598	250.88
815.776	150.53
815.955	269.31
816.133	191.49
816.312	285.69
816.49	248.83
816.669	142.33
816.847	152.57
817.026	273.4
817.204	232.44
817.383	171.01
817.561	201.72
817.74	226.3
817.918	236.54
818.097	234.49
818.275	261.12
818.453	257.02
818.632	326.65
818.81	179.2
818.988	273.4
819.167	162.81
819.345	203.77
819.523	175.1
819.701	312.32
819.879	216.06
820.058	166.91
820.236	205.82
820.414	220.16
820.592	275.45
820.77	152.57
820.948	175.1
821.127	150.53
821.305	216.06
821.483	191.49
821.661	224.25
821.839	195.58
822.017	295.93
822.195	216.06
822.373	218.11
822.551	228.35
822.729	226.3
822.907	185.34
823.085	203.77
823.262	132.09
823.44	187.39
823.618	187.39
823.796	220.16
823.974	121.85
824.152	138.24
824.329	160.77
824.507	158.72
824.685	199.68
824.863	128
825.04	187.39
825.218	187.39
825.396	152.57
825.574	152.57
825.751	136.19
825.929	181.25
826.107	142.33
826.284	150.53
826.462	138.24
826.639	136.19
826.817	99.33
826.994	175.1
827.172	111.61
827.349	226.3
827.527	189.44
827.704	101.37
827.882	205.82
828.059	195.58
828.237	138.24
828.414	128
828.591	105.47
828.769	216.06
828.946	197.63
829.124	160.77
829.301	230.4
829.478	162.81
829.655	168.96
829.833	166.91
830.01	17.41
830.187	193.53
830.364	189.44
830.542	183.29
830.719	252.92
830.896	154.62
831.073	150.53
831.25	109.57
831.427	142.33
831.604	197.63
831.782	93.18
831.959	119.81
832.136	160.77
832.313	209.92
832.49	52.22
832.667	164.86
832.844	84.99
833.021	195.58
833.198	128
833.374	97.28
833.551	222.2
833.728	123.9
833.905	115.71
834.082	91.13
834.259	146.43
834.436	125.95
834.612	168.96
834.789	91.13
834.966	166.91
835.143	171.01
835.319	41.98
835.496	185.34
835.673	154.62
835.85	138.24
836.026	142.33
836.203	154.62
836.38	95.23
836.556	33.79
836.733	52.22
836.909	209.92
837.086	44.03
837.262	125.95
837.439	123.9
837.616	111.61
837.792	105.47
837.968	136.19
838.145	35.84
838.321	97.28
838.498	164.86
838.674	121.85
838.851	84.99
839.027	31.74
839.203	64.51
839.38	103.42
839.556	68.61
839.732	123.9
839.909	27.65
840.085	177.15
840.261	95.23
840.437	89.09
840.614	101.37
840.79	119.81
840.966	119.81
841.142	66.56
841.318	142.33
841.494	117.76
841.671	121.85
841.847	37.89
842.023	52.22
842.199	166.91
842.375	148.48
842.551	35.84
842.727	25.6
842.903	160.77
843.079	11.26
843.255	150.53
843.431	93.18
843.607	70.65
843.783	-1.02
843.959	107.52
844.134	80.89
844.31	93.18
844.486	91.13
844.662	39.94
844.838	9.22
845.013	152.57
845.189	128
845.365	105.47
845.541	121.85
845.716	87.04
845.892	54.27
846.068	76.8
846.244	5.12
846.419	175.1
846.595	39.94
846.77	125.95
846.946	64.51
847.122	80.89
847.297	-25.6
847.473	179.2
847.648	52.22
847.824	64.51
847.999	39.94
848.175	76.8
848.35	44.03
848.526	93.18
848.701	62.46
848.876	136.19
849.052	80.89
849.227	113.66
849.403	19.46
849.578	19.46
849.753	23.55
849.929	39.94
850.104	3.07
850.279	113.66
850.454	119.81
850.63	66.56
850.805	115.71
850.98	23.55
851.155	99.33
851.33	91.13
851.505	64.51
851.681	218.11
851.856	84.99
852.031	46.08
852.206	62.46
852.381	60.42
852.556	60.42
852.731	84.99
852.906	11.26
853.081	136.19
853.256	111.61
853.431	56.32
853.606	64.51
853.781	23.55
853.956	-1.02
854.131	21.5
854.305	62.46
854.48	-13.31
854.655	50.18
854.83	5.12
855.005	-23.55
855.18	68.61
855.354	-19.46
855.529	103.42
855.704	-7.17
855.879	39.94
856.053	11.26
856.228	60.42
856.403	-19.46
856.577	-7.17
856.752	-19.46
856.926	80.89
857.101	103.42
857.276	-21.5
857.45	-9.22
857.625	87.04
857.799	52.22
857.974	60.42
858.148	-46.08
858.323	33.79
858.497	23.55
858.672	52.22
858.846	1.02
859.02	82.94
859.195	31.74
859.369	-25.6
859.543	58.37
859.718	37.89
859.892	41.98
860.066	-13.31
860.241	31.74
860.415	23.55
860.589	33.79
860.763	-9.22
860.938	52.22
861.112	121.85
861.286	-39.94
861.46	-31.74
861.634	44.03
861.808	101.37
861.982	23.55
862.157	-41.98
862.331	-7.17
862.505	-19.46
862.679	-21.5
862.853	44.03
863.027	46.08
863.201	11.26
863.375	13.31
863.549	62.46
863.722	13.31
863.896	70.65
864.07	-9.22
864.244	19.46
864.418	60.42
864.592	-68.61
864.766	13.31
864.939	-35.84
865.113	-1.02
865.287	72.7
865.461	13.31
865.634	48.13
865.808	-33.79
865.982	56.32
866.156	-46.08
866.329	-21.5
866.503	70.65
866.676	35.84
866.85	93.18
867.024	15.36
867.197	117.76
867.371	-21.5
867.544	68.61
867.718	11.26
867.891	80.89
868.065	-87.04
868.238	78.85
868.412	78.85
868.585	-37.89
868.759	-11.26
868.932	44.03
869.105	33.79
869.279	-15.36
869.452	27.65
869.625	70.65
869.799	-5.12
869.972	25.6
870.145	93.18
870.319	115.71
870.492	35.84
870.665	-19.46
870.838	13.31
871.011	-74.75
871.185	58.37
871.358	15.36
871.531	-23.55
871.704	-21.5
871.877	54.27
872.05	-89.09
872.223	-60.42
872.396	82.94
872.569	62.46
872.742	-41.98
872.915	39.94
873.088	39.94
873.261	-37.89
873.434	93.18
873.607	7.17
873.78	58.37
873.953	-68.61
874.126	1.02
874.299	7.17
874.471	-5.12
874.644	-101.37
874.817	1.02
874.99	128
875.163	-15.36
875.335	27.65
875.508	-46.08
875.681	52.22
875.853	-9.22
876.026	48.13
876.199	3.07
876.371	60.42
876.544	-15.36
876.717	66.56
876.889	39.94
877.062	-33.79
877.234	-27.65
877.407	-21.5
877.579	33.79
877.752	-50.18
877.924	97.28
878.097	9.22
878.269	23.55
878.442	19.46
878.614	37.89
878.786	5.12
878.959	21.5
879.131	35.84
879.303	-31.74
879.476	101.37
879.648	-1.02
879.82	64.51
879.993	-7.17
880.165	-7.17
880.337	-15.36
880.509	15.36
880.681	-70.65
880.854	13.31
881.026	35.84
881.198	78.85
881.37	-17.41
881.542	35.84
881.714	11.26
881.886	66.56
882.058	13.31
882.23	21.5
882.402	-80.89
882.574	29.7
882.746	62.46
882.918	56.32
883.09	39.94
883.262	-5.12
883.434	29.7
883.606	5.12
883.778	-35.84
883.95	23.55
884.122	-87.04
884.293	-13.31
884.465	-11.26
884.637	64.51
884.809	15.36
884.98	1.02
885.152	19.46
885.324	25.6
885.496	3.07
885.667	-13.31
885.839	44.03
886.011	41.98
886.182	3.07
886.354	25.6
886.525	56.32
886.697	7.17
886.869	-17.41
887.04	-13.31
887.212	29.7
887.383	101.37
887.555	-9.22
887.726	7.17
887.897	-1.02
888.069	-5.12
888.24	-35.84
888.412	3.07
888.583	23.55
888.754	72.7
888.926	-46.08
889.097	-9.22
889.268	-35.84
889.44	-25.6
889.611	7.17
889.782	-60.42
889.953	-15.36
890.125	52.22
890.296	19.46
890.467	1.02
890.638	-99.33
890.809	-93.18
890.98	-37.89
891.151	27.65
891.323	70.65
891.494	15.36
891.665	-27.65
891.836	-21.5
892.007	11.26
892.178	-56.32
892.349	-3.07
892.52	-62.46
892.691	-7.17
892.862	35.84
893.032	-68.61
893.203	23.55
893.374	-33.79
893.545	48.13
893.716	44.03
893.887	95.23
894.057	-56.32
894.228	-50.18
894.399	-33.79
894.57	58.37
894.74	29.7
894.911	5.12
895.082	-41.98
895.253	-13.31
895.423	33.79
895.594	91.13
895.764	11.26
895.935	-52.22
896.106	64.51
896.276	-70.65
896.447	9.22
896.617	-78.85
896.788	-58.37
896.958	-9.22
897.129	-35.84
897.299	-7.17
897.47	44.03
897.64	46.08
897.81	-58.37
897.981	-1.02
898.151	1.02
898.322	-48.13
898.492	68.61
898.662	-50.18
898.832	-39.94
899.003	-82.94
899.173	-41.98
899.343	23.55
899.513	-29.7
