Data from USB4F104151__26__13-04-46-328.txt Node

Date: Fri Mar 14 13:04:46 EDT 2025
User: louis
Spectrometer: USB4F10415
Trigger mode: 4
Integration Time (sec): 4.000000E-2
Scans to average: 1
Electric dark correction enabled: true
Nonlinearity correction enabled: false
Boxcar width: 0
XAxis mode: Wavelengths
Number of Pixels in Spectrum: 3648
>>>>>Begin Spectral Data<<<<<
178.204	-176.3
178.424	-176.3
178.644	-176.3
178.864	-192.68
179.084	-223.4
179.304	-28.84
179.524	-18.6
179.744	-10.41
179.964	18.26
180.184	53.08
180.404	-6.31
180.624	-32.94
180.844	-6.31
181.064	-12.46
181.283	16.21
181.503	10.07
181.723	18.26
181.943	-75.95
182.163	108.37
182.383	-6.31
182.602	116.56
182.822	51.03
183.042	1.88
183.262	106.32
183.482	20.31
183.701	26.45
183.921	10.07
184.141	-88.23
184.361	89.94
184.58	-8.36
184.8	38.74
185.02	30.55
185.239	30.55
185.459	30.55
185.679	-53.42
185.898	-59.56
186.118	-12.46
186.338	48.98
186.557	1.88
186.777	-32.94
186.997	-4.27
187.216	-2.22
187.436	85.84
187.655	51.03
187.875	59.22
188.095	24.4
188.314	8.02
188.534	65.36
188.753	28.5
188.973	87.89
189.192	102.23
189.412	10.07
189.631	1.88
189.851	12.12
190.07	69.46
190.29	38.74
190.509	26.45
190.729	-30.89
190.948	46.93
191.168	233.3
191.387	112.47
191.607	-45.23
191.826	55.12
192.045	-43.18
192.265	-0.17
192.484	3.93
192.704	-24.75
192.923	-6.31
193.142	122.71
193.362	55.12
193.581	40.79
193.8	67.41
194.02	-45.23
194.239	-32.94
194.458	16.21
194.678	-30.89
194.897	8.02
195.116	94.04
195.335	51.03
195.555	71.51
195.774	85.84
195.993	63.32
196.212	3.93
196.432	-26.79
196.651	20.31
196.87	12.12
197.089	173.91
197.308	38.74
197.528	91.99
197.747	-63.66
197.966	-41.13
198.185	36.69
198.404	12.12
198.623	28.5
198.842	128.85
199.062	26.45
199.281	28.5
199.5	38.74
199.719	85.84
199.938	108.37
200.157	59.22
200.376	-4.27
200.595	75.6
200.814	73.56
201.033	3.93
201.252	28.5
201.471	120.66
201.69	59.22
201.909	24.4
202.128	24.4
202.347	51.03
202.566	44.88
202.785	-30.89
203.004	-4.27
203.223	124.76
203.442	61.27
203.661	1.88
203.879	112.47
204.098	36.69
204.317	-30.89
204.536	18.26
204.755	-26.79
204.974	18.26
205.193	108.37
205.411	75.6
205.63	26.45
205.849	65.36
206.068	-4.27
206.287	118.61
206.505	18.26
206.724	18.26
206.943	-71.85
207.162	3.93
207.381	48.98
207.599	3.93
207.818	34.64
208.037	85.84
208.255	-69.8
208.474	18.26
208.693	34.64
208.911	38.74
209.13	-0.17
209.349	73.56
209.567	24.4
209.786	44.88
210.005	83.8
210.223	28.5
210.442	-43.18
210.661	61.27
210.879	20.31
211.098	3.93
211.316	120.66
211.535	59.22
211.753	91.99
211.972	-4.27
212.191	22.36
212.409	18.26
212.628	42.84
212.846	-30.89
213.065	63.32
213.283	147.28
213.502	-39.08
213.72	38.74
213.938	57.17
214.157	59.22
214.375	-4.27
214.594	-18.6
214.812	34.64
215.031	-12.46
215.249	3.93
215.467	51.03
215.686	20.31
215.904	22.36
216.122	-32.94
216.341	173.91
216.559	51.03
216.778	61.27
216.996	36.69
217.214	79.7
217.432	-28.84
217.651	-53.42
217.869	55.12
218.087	20.31
218.306	-2.22
218.524	32.6
218.742	10.07
218.96	28.5
219.179	16.21
219.397	-45.23
219.615	85.84
219.833	51.03
220.051	-28.84
220.27	55.12
220.488	67.41
220.706	8.02
220.924	87.89
221.142	96.08
221.36	-8.36
221.578	87.89
221.796	102.23
222.015	32.6
222.233	20.31
222.451	104.28
222.669	42.84
222.887	-26.79
223.105	-37.03
223.323	65.36
223.541	-18.6
223.759	44.88
223.977	-4.27
224.195	116.56
224.413	18.26
224.631	91.99
224.849	22.36
225.067	10.07
225.285	-8.36
225.503	32.6
225.721	-53.42
225.939	-47.27
226.157	26.45
226.375	147.28
226.592	-67.75
226.81	34.64
227.028	46.93
227.246	96.08
227.464	79.7
227.682	89.94
227.9	91.99
228.117	46.93
228.335	100.18
228.553	53.08
228.771	110.42
228.989	51.03
229.206	61.27
229.424	51.03
229.642	-47.27
229.86	71.51
230.077	48.98
230.295	12.12
230.513	124.76
230.731	-4.27
230.948	112.47
231.166	83.8
231.384	34.64
231.601	38.74
231.819	141.14
232.037	38.74
232.254	10.07
232.472	73.56
232.689	-20.65
232.907	63.32
233.125	87.89
233.342	-4.27
233.56	-39.08
233.777	26.45
233.995	-2.22
234.213	132.95
234.43	94.04
234.648	18.26
234.865	-6.31
235.083	30.55
235.3	63.32
235.518	12.12
235.735	22.36
235.953	163.67
236.17	30.55
236.388	-8.36
236.605	48.98
236.822	32.6
237.04	22.36
237.257	67.41
237.475	75.6
237.692	26.45
237.909	-20.65
238.127	-63.66
238.344	51.03
238.562	77.65
238.779	38.74
238.996	22.36
239.214	22.36
239.431	26.45
239.648	-10.41
239.865	1.88
240.083	34.64
240.3	67.41
240.517	-63.66
240.735	28.5
240.952	75.6
241.169	77.65
241.386	26.45
241.603	63.32
241.821	-26.79
242.038	91.99
242.255	18.26
242.472	-22.7
242.689	79.7
242.907	63.32
243.124	-8.36
243.341	38.74
243.558	-43.18
243.775	48.98
243.992	-57.51
244.209	14.17
244.426	71.51
244.643	10.07
244.86	-8.36
245.078	83.8
245.295	-2.22
245.512	53.08
245.729	-6.31
245.946	53.08
246.163	12.12
246.38	20.31
246.597	83.8
246.814	42.84
247.031	51.03
247.248	85.84
247.464	40.79
247.681	10.07
247.898	116.56
248.115	-20.65
248.332	-30.89
248.549	75.6
248.766	91.99
248.983	51.03
249.2	14.17
249.417	26.45
249.633	18.26
249.85	28.5
250.067	-37.03
250.284	38.74
250.501	18.26
250.717	30.55
250.934	-53.42
251.151	67.41
251.368	-18.6
251.585	38.74
251.801	61.27
252.018	81.75
252.235	71.51
252.451	48.98
252.668	42.84
252.885	118.61
253.102	42.84
253.318	87.89
253.535	-0.17
253.752	-2.22
253.968	-55.47
254.185	-55.47
254.401	32.6
254.618	51.03
254.835	-6.31
255.051	77.65
255.268	30.55
255.484	8.02
255.701	-22.7
255.917	51.03
256.134	69.46
256.351	85.84
256.567	-77.99
256.784	-4.27
257	-43.18
257.217	-14.51
257.433	91.99
257.65	40.79
257.866	75.6
258.082	53.08
258.299	30.55
258.515	14.17
258.732	-22.7
258.948	59.22
259.165	-10.41
259.381	42.84
259.597	46.93
259.814	-16.55
260.03	16.21
260.246	24.4
260.463	48.98
260.679	34.64
260.895	20.31
261.112	110.42
261.328	30.55
261.544	-34.99
261.761	161.62
261.977	26.45
262.193	5.97
262.409	55.12
262.626	28.5
262.842	22.36
263.058	-14.51
263.274	67.41
263.49	3.93
263.707	40.79
263.923	10.07
264.139	-57.51
264.355	-8.36
264.571	108.37
264.787	12.12
265.004	81.75
265.22	-6.31
265.436	65.36
265.652	-4.27
265.868	5.97
266.084	-80.04
266.3	34.64
266.516	-26.79
266.732	61.27
266.948	34.64
267.164	38.74
267.38	30.55
267.596	44.88
267.812	151.38
268.028	16.21
268.244	34.64
268.46	61.27
268.676	-43.18
268.892	85.84
269.108	-26.79
269.324	-55.47
269.54	-82.09
269.756	12.12
269.972	-55.47
270.188	14.17
270.403	44.88
270.619	18.26
270.835	81.75
271.051	61.27
271.267	-4.27
271.483	-43.18
271.698	67.41
271.914	77.65
272.13	1.88
272.346	-2.22
272.562	10.07
272.777	94.04
272.993	26.45
273.209	10.07
273.425	67.41
273.64	-4.27
273.856	87.89
274.072	53.08
274.287	1.88
274.503	85.84
274.719	12.12
274.934	44.88
275.15	-39.08
275.366	-53.42
275.581	-28.84
275.797	57.17
276.012	53.08
276.228	28.5
276.444	75.6
276.659	79.7
276.875	-22.7
277.09	3.93
277.306	-2.22
277.521	-14.51
277.737	-12.46
277.952	46.93
278.168	3.93
278.383	1.88
278.599	32.6
278.814	36.69
279.03	42.84
279.245	44.88
279.461	20.31
279.676	34.64
279.892	51.03
280.107	79.7
280.322	-59.56
280.538	38.74
280.753	-12.46
280.969	81.75
281.184	94.04
281.399	83.8
281.615	5.97
281.83	14.17
282.045	-45.23
282.26	34.64
282.476	145.24
282.691	51.03
282.906	53.08
283.122	-32.94
283.337	1.88
283.552	85.84
283.767	12.12
283.983	22.36
284.198	-43.18
284.413	59.22
284.628	32.6
284.843	73.56
285.058	118.61
285.274	-34.99
285.489	-39.08
285.704	14.17
285.919	-34.99
286.134	-28.84
286.349	1.88
286.564	8.02
286.779	116.56
286.995	73.56
287.21	-43.18
287.425	110.42
287.64	57.17
287.855	10.07
288.07	-94.38
288.285	110.42
288.5	110.42
288.715	55.12
288.93	-39.08
289.145	46.93
289.36	46.93
289.575	48.98
289.79	61.27
290.004	-32.94
290.219	32.6
290.434	10.07
290.649	42.84
290.864	55.12
291.079	-43.18
291.294	102.23
291.509	32.6
291.724	-0.17
291.938	-0.17
292.153	48.98
292.368	89.94
292.583	18.26
292.798	85.84
293.012	55.12
293.227	5.97
293.442	36.69
293.657	79.7
293.871	85.84
294.086	-55.47
294.301	178
294.516	81.75
294.73	28.5
294.945	20.31
295.16	34.64
295.374	65.36
295.589	116.56
295.804	24.4
296.018	75.6
296.233	42.84
296.447	51.03
296.662	-16.55
296.877	24.4
297.091	61.27
297.306	-26.79
297.52	-12.46
297.735	26.45
297.949	53.08
298.164	85.84
298.378	59.22
298.593	44.88
298.807	36.69
299.022	100.18
299.236	104.28
299.451	3.93
299.665	-43.18
299.88	12.12
300.094	-22.7
300.309	42.84
300.523	42.84
300.737	59.22
300.952	-4.27
301.166	-45.23
301.381	55.12
301.595	71.51
301.809	34.64
302.024	-37.03
302.238	-12.46
302.452	38.74
302.667	59.22
302.881	67.41
303.095	16.21
303.309	55.12
303.524	12.12
303.738	34.64
303.952	73.56
304.166	18.26
304.381	-45.23
304.595	57.17
304.809	18.26
305.023	53.08
305.237	83.8
305.452	30.55
305.666	85.84
305.88	87.89
306.094	18.26
306.308	34.64
306.522	38.74
306.736	-30.89
306.95	14.17
307.164	14.17
307.379	96.08
307.593	42.84
307.807	89.94
308.021	-10.41
308.235	116.56
308.449	44.88
308.663	85.84
308.877	100.18
309.091	5.97
309.305	-4.27
309.519	24.4
309.733	96.08
309.947	-45.23
310.161	83.8
310.374	65.36
310.588	14.17
310.802	3.93
311.016	10.07
311.23	1.88
311.444	5.97
311.658	149.33
311.872	87.89
312.085	-6.31
312.299	48.98
312.513	96.08
312.727	34.64
312.941	-32.94
313.154	77.65
313.368	34.64
313.582	42.84
313.796	108.37
314.009	38.74
314.223	-6.31
314.437	77.65
314.651	32.6
314.864	-71.85
315.078	-2.22
315.292	28.5
315.505	59.22
315.719	59.22
315.933	46.93
316.146	10.07
316.36	120.66
316.573	100.18
316.787	77.65
317.001	63.32
317.214	3.93
317.428	61.27
317.641	-63.66
317.855	85.84
318.068	28.5
318.282	79.7
318.495	71.51
318.709	34.64
318.922	18.26
319.136	110.42
319.349	157.52
319.563	3.93
319.776	53.08
319.99	-4.27
320.203	53.08
320.417	-12.46
320.63	-6.31
320.843	124.76
321.057	46.93
321.27	46.93
321.483	46.93
321.697	77.65
321.91	83.8
322.124	18.26
322.337	44.88
322.55	-39.08
322.763	83.8
322.977	18.26
323.19	-16.55
323.403	67.41
323.617	63.32
323.83	122.71
324.043	-47.27
324.256	69.46
324.469	-14.51
324.683	38.74
324.896	36.69
325.109	42.84
325.322	20.31
325.535	38.74
325.748	81.75
325.962	-2.22
326.175	42.84
326.388	59.22
326.601	87.89
326.814	-4.27
327.027	18.26
327.24	85.84
327.453	-8.36
327.666	12.12
327.879	96.08
328.092	1.88
328.305	10.07
328.518	85.84
328.731	32.6
328.944	-12.46
329.157	-20.65
329.37	53.08
329.583	42.84
329.796	77.65
330.009	1.88
330.222	75.6
330.435	34.64
330.648	67.41
330.861	22.36
331.073	116.56
331.286	-4.27
331.499	5.97
331.712	-30.89
331.925	102.23
332.138	5.97
332.35	5.97
332.563	-39.08
332.776	85.84
332.989	18.26
333.202	44.88
333.414	28.5
333.627	8.02
333.84	34.64
334.053	83.8
334.265	8.02
334.478	14.17
334.691	5.97
334.903	-0.17
335.116	53.08
335.329	20.31
335.541	81.75
335.754	118.61
335.966	81.75
336.179	24.4
336.392	5.97
336.604	12.12
336.817	26.45
337.029	59.22
337.242	51.03
337.454	100.18
337.667	18.26
337.88	118.61
338.092	-8.36
338.305	67.41
338.517	44.88
338.729	104.28
338.942	149.33
339.154	22.36
339.367	-37.03
339.579	77.65
339.792	61.27
340.004	75.6
340.217	14.17
340.429	79.7
340.641	-16.55
340.854	36.69
341.066	40.79
341.278	-47.27
341.491	8.02
341.703	42.84
341.915	12.12
342.128	-0.17
342.34	-77.99
342.552	67.41
342.764	34.64
342.977	28.5
343.189	51.03
343.401	118.61
343.613	-55.47
343.826	10.07
344.038	46.93
344.25	71.51
344.462	38.74
344.674	106.32
344.886	-14.51
345.099	71.51
345.311	40.79
345.523	42.84
345.735	-41.13
345.947	96.08
346.159	-26.79
346.371	73.56
346.583	26.45
346.795	112.47
347.007	32.6
347.219	65.36
347.431	38.74
347.643	102.23
347.855	28.5
348.067	77.65
348.279	55.12
348.491	77.65
348.703	143.19
348.915	18.26
349.127	24.4
349.339	42.84
349.551	79.7
349.763	59.22
349.975	75.6
350.187	67.41
350.399	44.88
350.61	38.74
350.822	20.31
351.034	51.03
351.246	91.99
351.458	53.08
351.669	48.98
351.881	-43.18
352.093	51.03
352.305	77.65
352.517	59.22
352.728	116.56
352.94	40.79
353.152	85.84
353.363	51.03
353.575	14.17
353.787	-6.31
353.999	57.17
354.21	96.08
354.422	26.45
354.633	59.22
354.845	46.93
355.057	104.28
355.268	55.12
355.48	53.08
355.692	-10.41
355.903	26.45
356.115	12.12
356.326	-14.51
356.538	108.37
356.749	51.03
356.961	157.52
357.172	14.17
357.384	14.17
357.595	75.6
357.807	3.93
358.018	26.45
358.23	22.36
358.441	108.37
358.653	36.69
358.864	-49.32
359.075	10.07
359.287	34.64
359.498	61.27
359.709	44.88
359.921	-8.36
360.132	28.5
360.344	48.98
360.555	-59.56
360.766	34.64
360.977	40.79
361.189	36.69
361.4	-2.22
361.611	126.8
361.823	135
362.034	22.36
362.245	8.02
362.456	1.88
362.667	104.28
362.879	12.12
363.09	-0.17
363.301	79.7
363.512	61.27
363.723	-22.7
363.935	-12.46
364.146	116.56
364.357	51.03
364.568	69.46
364.779	-0.17
364.99	124.76
365.201	14.17
365.412	44.88
365.623	48.98
365.834	46.93
366.045	-2.22
366.256	120.66
366.467	87.89
366.678	34.64
366.889	32.6
367.1	30.55
367.311	87.89
367.522	-22.7
367.733	87.89
367.944	141.14
368.155	36.69
368.366	110.42
368.577	34.64
368.788	57.17
368.999	46.93
369.209	87.89
369.42	161.62
369.631	126.8
369.842	59.22
370.053	14.17
370.264	77.65
370.474	-2.22
370.685	63.32
370.896	14.17
371.107	77.65
371.317	22.36
371.528	32.6
371.739	71.51
371.95	67.41
372.16	106.32
372.371	18.26
372.582	24.4
372.792	153.43
373.003	38.74
373.214	34.64
373.424	96.08
373.635	55.12
373.846	100.18
374.056	-0.17
374.267	83.8
374.477	73.56
374.688	20.31
374.898	38.74
375.109	42.84
375.319	40.79
375.53	98.13
375.74	44.88
375.951	-20.65
376.161	55.12
376.372	61.27
376.582	12.12
376.793	42.84
377.003	-8.36
377.214	38.74
377.424	98.13
377.635	44.88
377.845	53.08
378.055	67.41
378.266	51.03
378.476	-4.27
378.686	69.46
378.897	-12.46
379.107	-22.7
379.317	34.64
379.528	44.88
379.738	141.14
379.948	8.02
380.158	126.8
380.369	61.27
380.579	34.64
380.789	-4.27
380.999	-2.22
381.21	102.23
381.42	128.85
381.63	36.69
381.84	87.89
382.05	30.55
382.261	51.03
382.471	53.08
382.681	-26.79
382.891	46.93
383.101	51.03
383.311	-22.7
383.521	28.5
383.731	24.4
383.941	67.41
384.151	14.17
384.361	20.31
384.571	71.51
384.781	94.04
384.991	108.37
385.201	120.66
385.411	40.79
385.621	67.41
385.831	77.65
386.041	85.84
386.251	98.13
386.461	100.18
386.671	65.36
386.881	-39.08
387.091	36.69
387.301	132.95
387.511	57.17
387.72	53.08
387.93	48.98
388.14	26.45
388.35	67.41
388.56	28.5
388.769	34.64
388.979	132.95
389.189	20.31
389.399	67.41
389.609	59.22
389.818	120.66
390.028	81.75
390.238	75.6
390.447	34.64
390.657	46.93
390.867	75.6
391.076	57.17
391.286	100.18
391.496	51.03
391.705	75.6
391.915	147.28
392.125	141.14
392.334	102.23
392.544	116.56
392.753	67.41
392.963	61.27
393.172	55.12
393.382	44.88
393.591	77.65
393.801	44.88
394.01	112.47
394.22	32.6
394.429	34.64
394.639	16.21
394.848	173.91
395.058	59.22
395.267	5.97
395.477	124.76
395.686	91.99
395.895	159.57
396.105	165.71
396.314	83.8
396.524	104.28
396.733	34.64
396.942	130.9
397.152	79.7
397.361	77.65
397.57	112.47
397.78	128.85
397.989	79.7
398.198	206.67
398.407	108.37
398.617	51.03
398.826	108.37
399.035	46.93
399.244	188.24
399.453	59.22
399.663	132.95
399.872	124.76
400.081	85.84
400.29	110.42
400.499	118.61
400.708	124.76
400.917	77.65
401.127	73.56
401.336	124.76
401.545	157.52
401.754	132.95
401.963	173.91
402.172	75.6
402.381	91.99
402.59	22.36
402.799	175.95
403.008	149.33
403.217	67.41
403.426	151.38
403.635	30.55
403.844	104.28
404.053	102.23
404.262	145.24
404.471	206.67
404.68	180.05
404.888	114.52
405.097	120.66
405.306	165.71
405.515	227.15
405.724	171.86
405.933	259.92
406.142	243.54
406.35	202.58
406.559	268.11
406.768	204.63
406.977	165.71
407.185	210.77
407.394	223.06
407.603	145.24
407.812	161.62
408.02	274.26
408.229	200.53
408.438	210.77
408.646	264.02
408.855	196.43
409.064	231.25
409.272	276.31
409.481	329.55
409.69	325.46
409.898	247.63
410.107	411.47
410.315	339.79
410.524	350.03
410.733	323.41
410.941	376.66
411.15	374.61
411.358	376.66
411.567	456.53
411.775	407.38
411.984	411.47
412.192	393.04
412.401	319.31
412.609	532.3
412.818	483.15
413.026	556.88
413.234	497.49
413.443	487.25
413.651	530.25
413.86	603.98
414.068	632.65
414.276	610.12
414.485	608.08
414.693	667.47
414.901	677.71
415.11	673.61
415.318	667.47
415.526	669.52
415.734	808.78
415.943	843.59
416.151	837.45
416.359	888.65
416.567	767.82
416.776	853.83
416.984	968.52
417.192	905.03
417.4	962.37
417.608	978.76
417.817	1025.86
418.025	1052.49
418.233	1189.7
418.441	1187.65
418.649	1079.11
418.857	1232.71
419.065	1400.64
419.273	1244.99
419.481	1343.3
419.689	1437.5
419.897	1548.09
420.105	1490.75
420.313	1587.01
420.521	1531.71
420.729	1525.57
420.937	1593.15
421.145	1838.91
421.353	1902.39
421.561	1926.97
421.769	2008.89
421.977	1912.63
422.185	2033.46
422.393	2113.33
422.601	2330.42
422.809	2240.31
423.017	2350.9
423.224	2471.73
423.432	2422.58
423.64	2406.19
423.848	2715.44
424.056	2625.33
424.263	2879.27
424.471	2772.78
424.679	2996.01
424.887	2934.57
425.094	3252
425.302	2998.06
425.51	3202.85
425.718	3309.35
425.925	3389.22
426.133	3467.04
426.341	3761.95
426.548	3983.13
426.756	3878.68
426.964	3933.98
427.171	4097.81
427.379	4173.59
427.586	4343.57
427.794	4368.15
428.001	4863.76
428.209	4869.9
428.417	4871.95
428.624	5246.73
428.832	5261.06
429.039	5068.55
429.247	5125.9
429.454	5728
429.662	6153.98
429.869	5549.82
430.076	6047.48
430.284	5850.88
430.491	6164.22
430.699	6428.4
430.906	6545.14
431.114	6532.85
431.321	6899.44
431.528	6936.3
431.736	7429.86
431.943	7696.1
432.15	7638.75
432.358	7659.23
432.565	8148.7
432.772	8011.48
432.979	8355.54
433.187	8707.79
433.394	8466.13
433.601	9238.22
433.808	9346.76
434.016	9240.26
434.223	9516.74
434.43	9946.81
434.637	10002.11
434.844	10434.23
435.052	10858.16
435.259	10653.36
435.466	10766
435.673	10628.79
435.88	11259.56
436.087	11871.9
436.294	12230.3
436.501	11798.18
436.708	11947.68
436.915	12447.38
437.122	13168.27
437.329	12813.97
437.537	13299.34
437.743	13631.11
437.95	13442.7
438.157	14112.38
438.364	14251.64
438.571	14489.21
438.778	14485.11
438.985	15980.13
439.192	15242.86
439.399	15914.59
439.606	15486.57
439.813	16250.46
440.02	17567.31
440.227	17028.69
440.433	16995.92
440.64	17423.95
440.847	17411.66
441.054	17684.04
441.261	19121.71
441.467	18644.54
441.674	19127.86
441.881	19588.65
442.088	19795.5
442.294	19629.61
442.501	19936.81
442.708	20553.24
442.914	21321.23
443.121	22289.92
443.328	21399.05
443.534	23090.68
443.741	22425.09
443.948	22081.03
444.154	24014.31
444.361	23363.06
444.568	23739.88
444.774	23883.24
444.981	24198.63
445.187	25173.46
445.394	25894.35
445.6	25415.12
445.807	28200.36
446.013	26971.58
446.22	27389.36
446.426	28675.49
446.633	28493.22
446.839	29875.6
447.046	28902.81
447.252	29975.95
447.459	30215.56
447.665	29957.52
447.871	31341.94
448.078	32867.68
448.284	31018.36
448.491	31800.69
448.697	33416.54
448.903	33832.27
449.11	34223.44
449.316	33535.32
449.522	34008.4
449.728	34938.18
449.935	35325.24
450.141	35478.84
450.347	35894.58
450.553	34889.02
450.76	35501.37
450.966	36629.8
451.172	35781.94
451.378	36918.56
451.584	36212.01
451.791	37834
451.997	37391.64
452.203	37846.29
452.409	37727.51
452.615	37811.48
452.821	36398.38
453.027	35872.05
453.233	37924.11
453.44	36275.5
453.646	37072.16
453.852	37090.59
454.058	37664.02
454.264	36525.35
454.47	36971.81
454.676	36373.8
454.882	37524.76
455.088	34383.18
455.294	34936.13
455.5	35417.4
455.705	35790.13
455.911	34260.3
456.117	33867.09
456.323	33351
456.529	31538.55
456.735	32849.25
456.941	31802.74
457.147	31513.97
457.352	30416.26
457.558	30741.89
457.764	30739.84
457.97	29834.64
458.176	29347.22
458.381	28947.87
458.587	27710.89
458.793	27458.99
458.999	26271.17
459.204	28114.34
459.41	27368.88
459.616	25472.46
459.821	25771.47
460.027	25509.33
460.233	24819.16
460.438	23768.55
460.644	23866.86
460.85	22892.02
461.055	22412.8
461.261	22590.97
461.466	20807.19
461.672	20213.28
461.878	21405.2
462.083	20252.19
462.289	19891.75
462.494	19551.79
462.7	18419.26
462.905	18363.97
463.111	18910.77
463.316	18966.07
463.522	18597.43
463.727	18634.3
463.932	18677.3
464.138	18282.05
464.343	18574.91
464.549	17794.63
464.754	18394.68
464.959	18282.05
465.165	17909.32
465.37	17067.6
465.575	16627.29
465.781	17643.08
465.986	17735.24
466.191	17135.18
466.397	16817.75
466.602	15855.2
466.807	16643.67
467.012	16408.15
467.218	16479.83
467.423	16217.69
467.628	16307.8
467.833	16952.91
468.038	16283.23
468.244	15885.92
468.449	16524.89
468.654	15842.92
468.859	15836.77
469.064	15631.97
469.269	15076.98
469.474	15158.89
469.679	15541.86
469.885	15005.3
470.09	15353.45
470.295	15304.3
470.5	14737.01
470.705	15099.5
470.91	14558.84
471.115	14567.03
471.32	14888.56
471.525	14780.02
471.73	14282.36
471.935	14376.57
472.139	13840
472.344	13936.26
472.549	13745.8
472.754	13678.21
472.959	13239.95
473.164	13115.02
473.369	13194.89
473.574	13350.54
473.778	13219.47
473.983	13174.41
474.188	13088.4
474.393	12721.81
474.598	12504.73
474.802	12453.53
475.007	12351.13
475.212	12488.34
475.417	11789.99
475.621	12037.79
475.826	11970.21
476.031	11832.99
476.235	11488.93
476.44	11863.71
476.645	11617.96
476.849	11353.77
477.054	11316.9
477.259	11083.44
477.463	11257.51
477.668	11114.16
477.872	10956.46
478.077	10788.53
478.282	10616.5
478.486	10485.43
478.691	10444.47
478.895	10593.97
479.1	10485.43
479.304	10423.99
479.509	9858.75
479.713	10370.74
479.918	9924.29
480.122	9834.18
480.326	9860.8
480.531	9989.82
480.735	9733.82
480.94	9627.33
481.144	10260.15
481.348	9488.07
481.553	9813.7
481.757	9400.01
481.961	9633.47
482.166	9868.99
482.37	9762.5
482.574	9604.8
482.778	9604.8
482.983	9928.38
483.187	9508.55
483.391	9727.68
483.595	9457.35
483.8	9332.42
484.004	9524.93
484.208	9479.88
484.412	9553.6
484.616	9696.96
484.821	9391.81
485.025	9436.87
485.229	9565.89
485.433	9510.6
485.637	9572.04
485.841	9529.03
486.045	9608.9
486.249	9494.21
486.453	9334.47
486.657	9629.38
486.861	9586.37
487.065	9324.23
487.269	9481.92
487.473	9508.55
487.677	9660.1
487.881	9660.1
488.085	9518.79
488.289	9598.66
488.493	9653.95
488.697	9664.19
488.901	9651.91
489.105	9625.28
489.309	9588.42
489.512	9799.36
489.716	9735.87
489.92	9639.62
490.124	9477.83
490.328	9903.81
490.531	9641.67
490.735	9711.3
490.939	9731.78
491.143	9977.53
491.346	9672.39
491.55	9856.7
491.754	10024.64
491.958	9758.4
492.161	9885.37
492.365	10020.54
492.569	10057.4
492.772	9946.81
492.976	10086.08
493.18	10196.67
493.383	10383.03
493.587	10225.34
493.79	10475.19
493.994	10129.08
494.197	10251.96
494.401	10538.68
494.605	10763.95
494.808	10659.51
495.012	10602.16
495.215	10708.66
495.419	10841.78
495.622	10831.54
495.825	10976.94
496.029	10931.89
496.232	11169.45
496.436	10964.65
496.639	11447.97
496.843	11318.95
497.046	11540.13
497.249	11509.41
497.453	11921.06
497.656	12021.41
497.859	11851.42
498.063	12025.5
498.266	12387.99
498.469	12093.08
498.673	12400.28
498.876	12273.31
499.079	12541.59
499.282	12783.25
499.485	13072.01
499.689	13029.01
499.892	13371.02
500.095	13346.44
500.298	13463.18
500.501	13440.65
500.705	13921.92
500.908	13878.91
501.111	14143.1
501.314	14126.72
501.517	14347.9
501.72	14425.72
501.923	14546.55
502.126	14777.97
502.329	15021.68
502.532	15273.58
502.735	15117.93
502.938	15457.9
503.141	15478.38
503.344	15732.33
503.547	15933.03
503.75	15971.94
503.953	16420.44
504.156	16428.63
504.359	16545.37
504.562	16805.46
504.765	17053.27
504.968	17206.86
505.17	17313.36
505.373	17493.58
505.576	17645.13
505.779	17980.99
505.982	17942.08
506.185	18400.83
506.387	18595.39
506.59	18746.94
506.793	19084.85
506.996	18759.22
507.198	19281.46
507.401	19428.91
507.604	19299.89
507.807	20043.3
508.009	20071.97
508.212	20104.74
508.415	20364.83
508.617	20702.75
508.82	20563.48
509.022	20598.3
509.225	21030.42
509.428	21440.01
509.63	21552.65
509.833	21343.76
510.035	22214.15
510.238	21943.81
510.44	22146.56
510.643	22654.46
510.845	22752.76
511.048	22760.95
511.25	22820.35
511.453	23254.51
511.655	24018.41
511.858	23631.34
512.06	24151.52
512.262	24081.89
512.465	24460.77
512.667	24876.51
512.87	24698.33
513.072	25019.86
513.274	25488.85
513.477	25552.34
513.679	25796.04
513.881	25931.21
514.084	26168.77
514.286	26445.25
514.488	26760.64
514.69	27143.61
514.893	27395.51
515.095	27305.4
515.297	27502
515.499	27919.79
515.701	28130.73
515.904	28292.52
516.106	28769.69
516.308	28929.44
516.51	29146.52
516.712	29312.41
516.914	29848.97
517.116	30166.41
517.318	30305.67
517.52	30520.71
517.722	30643.59
517.925	30756.22
518.127	31427.96
518.329	31331.7
518.531	31327.61
518.733	31796.59
518.935	31925.61
519.136	32181.61
519.338	32793.95
519.54	32920.93
519.742	33013.09
519.944	33103.2
520.146	33539.41
520.348	33920.34
520.55	33779.03
520.752	34227.53
520.954	34960.7
521.155	34397.51
521.357	34866.5
521.559	35585.33
521.761	35743.03
521.963	35945.78
522.164	35806.51
522.366	36076.85
522.568	36201.77
522.77	36789.54
522.971	37160.22
523.173	36867.36
523.375	37434.65
523.576	37377.31
523.778	37315.87
523.98	37963.03
524.181	38225.17
524.383	38239.5
524.584	38946.05
524.786	38448.39
524.988	38726.92
525.189	39138.56
525.391	39484.67
525.592	39179.52
525.794	39634.17
525.995	39290.11
526.197	39965.94
526.398	39918.84
526.6	40105.2
526.801	40189.17
527.003	40701.16
527.204	40611.05
527.406	40977.64
527.607	40441.07
527.808	41307.36
528.01	40658.15
528.211	41104.61
528.412	41678.04
528.614	41675.99
528.815	41825.5
529.016	41975
529.218	41237.73
529.419	42218.71
529.62	42249.42
529.822	41874.65
530.023	41905.37
530.224	42218.71
530.425	41860.31
530.626	42400.97
530.828	41878.74
531.029	42812.62
531.23	42048.72
531.431	42374.35
531.632	42478.8
531.833	43177.15
532.035	43179.2
532.236	42804.42
532.437	43320.51
532.638	43041.99
532.839	42970.31
533.04	43128
533.241	42812.62
533.442	43965.62
533.643	43136.2
533.844	43304.13
534.045	43209.92
534.246	43367.62
534.447	43635.9
534.648	43132.1
534.849	43545.79
535.05	43496.64
535.251	43326.66
535.451	43451.58
535.652	43257.03
535.853	43441.34
536.054	43824.31
536.255	43252.93
536.456	43377.86
536.657	43539.64
536.857	43379.9
537.058	43302.08
537.259	43617.47
537.46	43435.2
537.66	43125.96
537.861	43515.07
538.062	43263.17
538.263	43906.23
538.463	43443.39
538.664	43451.58
538.865	43726.01
539.065	43943.09
539.266	43060.42
539.466	43590.84
539.667	42677.45
539.868	43900.09
540.068	43517.12
540.269	43515.07
540.469	43867.32
540.67	43316.42
540.87	43232.45
541.071	43683
541.271	43683
541.472	43289.79
541.672	43320.51
541.873	43390.14
542.073	42636.49
542.274	43828.41
542.474	43123.91
542.675	42888.39
542.875	43175.11
543.075	42945.73
543.276	42818.76
543.476	43449.53
543.676	43011.27
543.877	43637.95
544.077	43607.23
544.277	42937.54
544.478	43269.31
544.678	42998.98
544.878	43332.8
545.078	43418.81
545.279	42755.27
545.479	43013.32
545.679	43191.49
545.879	43001.03
546.079	43191.49
546.28	42876.1
546.48	42867.91
546.68	43062.47
546.88	43226.31
547.08	43236.55
547.28	42988.74
547.48	42548.43
547.68	42874.06
547.88	43091.14
548.081	43244.74
548.281	43304.13
548.481	42671.31
548.681	43144.39
548.881	43046.08
549.081	42704.07
549.28	42374.35
549.48	42943.69
549.68	42718.41
549.88	43316.42
550.08	42532.04
550.28	42869.96
550.48	42368.21
550.68	43191.49
550.88	42853.58
551.08	42945.73
551.279	42790.09
551.479	42278.1
551.679	42486.99
551.879	42552.52
552.079	42829
552.278	42474.7
552.478	42767.56
552.678	42421.45
552.878	42470.61
553.077	42200.27
553.277	42699.98
553.477	42796.23
553.676	42456.27
553.876	42583.24
554.076	42411.21
554.275	42210.51
554.475	41708.76
554.674	42308.82
554.874	42181.84
555.074	42101.97
555.273	42278.1
555.473	42654.92
555.672	42173.65
555.872	41741.53
556.071	42288.34
556.271	41874.65
556.47	41966.8
556.67	41635.03
556.869	41768.15
557.068	41772.25
557.268	41428.19
557.467	41624.79
557.667	41735.38
557.866	41931.99
558.065	41463
558.265	41649.37
558.464	41280.74
558.663	41733.34
558.863	41237.73
559.062	41465.05
559.261	41149.67
559.461	41329.89
559.66	41051.36
559.859	41024.74
560.058	41127.14
560.258	41346.27
560.457	40957.16
560.656	41006.31
560.855	40846.57
561.054	41049.31
561.253	40424.68
561.453	40381.68
561.652	40353.01
561.851	41370.85
562.05	40688.87
562.249	40348.91
562.448	40420.59
562.647	40424.68
562.846	40422.64
563.045	40223.98
563.244	40158.45
563.443	40303.85
563.642	39603.45
563.841	39988.47
564.04	39906.55
564.239	40064.24
564.438	39519.48
564.637	39417.08
564.836	39625.98
565.035	39294.21
565.234	39488.76
565.432	39146.75
565.631	38860.04
565.83	38978.82
566.029	39003.39
566.228	38937.86
566.427	38774.02
566.625	38601.99
566.824	38186.25
567.023	38630.66
567.222	38259.98
567.42	38423.82
567.619	38380.81
567.818	37983.51
568.016	38176.01
568.215	38421.77
568.414	37991.7
568.612	38401.29
568.811	37584.15
569.01	37813.52
569.208	37823.76
569.407	37600.54
569.605	37506.33
569.804	37911.83
570.002	37174.56
570.201	37334.3
570.4	37119.26
570.598	36789.54
570.797	36699.43
570.995	36891.94
571.193	36615.46
571.392	37049.63
571.59	36658.47
571.789	36570.41
571.987	36359.47
572.186	36365.61
572.384	36076.85
572.582	36427.05
572.781	36343.08
572.979	35315
573.177	35683.64
573.376	36017.46
573.574	35634.49
573.772	35831.09
573.971	35495.22
574.169	35349.82
574.367	35464.5
574.565	35441.98
574.763	35323.19
574.962	35183.93
575.16	34776.39
575.358	35044.67
575.556	34577.73
575.754	35308.86
575.952	34567.49
576.151	35208.51
576.349	34311.5
576.547	34717
576.745	34579.78
576.943	34776.39
577.141	34295.11
577.339	34448.71
577.537	33815.89
577.735	33930.58
577.933	33992.01
578.131	33951.06
578.329	33881.42
578.527	33412.44
578.725	33924.43
578.923	33533.27
579.121	33291.61
579.319	33520.98
579.516	33549.65
579.714	32888.16
579.912	33095
580.11	32660.83
580.308	33058.14
580.506	32851.3
580.704	32308.58
580.901	32632.16
581.099	32828.77
581.297	32310.63
581.495	32269.67
581.692	32212.33
581.89	32378.22
582.088	32294.25
582.285	31862.13
582.483	31952.24
582.681	32367.98
582.878	32130.41
583.076	31425.91
583.274	31937.9
583.471	31513.97
583.669	31470.97
583.866	31450.49
584.064	31565.17
584.262	31253.88
584.459	31417.72
584.657	31290.74
584.854	31464.82
585.052	30702.98
585.249	31102.33
585.447	31020.41
585.644	30336.39
585.841	30692.74
586.039	30692.74
586.236	30602.63
586.434	30543.24
586.631	30250.38
586.828	30264.71
587.026	30143.88
587.223	30082.44
587.42	29926.8
587.618	30369.16
587.815	29672.85
588.012	29773.2
588.21	29717.9
588.407	29678.99
588.604	29412.76
588.801	29083.03
588.999	29410.71
589.196	29138.33
589.393	29322.65
589.59	29191.58
589.787	29101.47
589.984	28990.87
590.182	28466.59
590.379	28679.58
590.576	28822.94
590.773	28558.75
590.97	28458.4
591.167	28702.11
591.364	28401.06
591.561	28364.2
591.758	28116.39
591.955	28607.9
592.152	28300.71
592.349	27813.29
592.546	28083.62
592.743	28050.86
592.94	27432.37
593.137	27645.36
593.334	27741.61
593.531	27354.55
593.727	27897.26
593.924	27467.19
594.121	27667.89
594.318	27311.54
594.515	27065.78
594.712	27260.34
594.908	26987.96
595.105	27184.57
595.302	26609.09
595.499	26752.45
595.696	26772.92
595.892	26181.06
596.089	26680.77
596.286	26836.41
596.482	26447.3
596.679	26322.37
596.876	26387.91
597.072	26097.1
597.269	26262.98
597.466	26070.47
597.662	26062.28
597.859	25949.64
598.055	25947.59
598.252	25662.93
598.448	25904.59
598.645	25454.03
598.841	25257.43
599.038	25368.02
599.234	25294.29
599.431	25361.87
599.627	25361.87
599.824	25200.08
600.02	24815.07
600.217	25040.34
600.413	24956.38
600.609	24612.32
600.806	24845.79
601.002	24559.07
601.198	24327.65
601.395	24202.72
601.591	24454.62
601.787	24491.49
601.984	24231.4
602.18	24389.09
602.376	23862.76
602.572	24161.76
602.769	23858.67
602.965	23793.13
603.161	23688.68
603.357	23651.82
603.553	23506.41
603.75	23694.83
603.946	23608.81
604.142	23821.8
604.338	22996.47
604.534	23660.01
604.73	23168.5
604.926	23074.29
605.122	23277.04
605.318	22935.03
605.514	23119.35
605.71	22928.89
605.906	22885.88
606.102	23047.67
606.298	22734.33
606.494	22791.67
606.69	22765.05
606.886	22746.62
607.082	22394.37
607.278	22738.43
607.474	22263.3
607.67	22564.35
607.866	22023.69
608.062	22439.42
608.257	22273.54
608.453	22160.9
608.649	22218.24
608.845	21886.47
609.041	21880.33
609.236	22042.12
609.432	21915.14
609.628	21937.67
609.824	21931.53
610.019	21720.59
610.215	21636.62
610.411	21947.91
610.606	21646.86
610.802	21761.55
610.998	21452.3
611.193	21798.41
611.389	21243.41
611.584	21417.49
611.78	21452.3
611.976	21104.15
612.171	21442.06
612.367	21085.72
612.562	21130.77
612.758	20835.86
612.953	21155.35
613.149	21179.92
613.344	20882.97
613.539	21130.77
613.735	21063.19
613.93	21257.74
614.126	20725.27
614.321	21210.64
614.517	21032.47
614.712	20805.14
614.907	20719.13
615.103	20870.68
615.298	20643.35
615.493	21122.58
615.688	20139.55
615.884	20715.03
616.079	20233.76
616.274	20553.24
616.47	20375.07
616.665	20469.28
616.86	20395.55
617.055	20403.74
617.25	20323.87
617.445	20309.54
617.641	19953.19
617.836	20362.78
618.031	19768.87
618.226	20141.6
618.421	19865.13
618.616	20037.16
618.811	19459.63
619.006	19768.87
619.201	19349.04
619.396	19740.2
619.591	19181.1
619.786	19553.83
619.981	19287.6
620.176	19521.07
620.371	19256.88
620.566	19392.05
620.761	19031.6
620.956	19131.95
621.151	18826.81
621.346	18835
621.541	18878.01
621.735	18716.22
621.93	18378.3
622.125	18474.56
622.32	17991.23
622.515	18353.73
622.709	18204.22
622.904	18093.63
623.099	17821.25
623.294	18036.29
623.488	17741.38
623.683	17882.69
623.878	17589.83
624.072	17434.19
624.267	17430.09
624.462	17448.52
624.656	17174.1
624.851	17319.5
625.046	17049.17
625.24	17043.03
625.435	16703.06
625.629	16670.29
625.824	16811.6
626.018	16813.65
626.213	16283.23
626.407	16586.33
626.602	16463.45
626.796	16647.77
626.991	16414.3
627.185	16074.34
627.38	16107.1
627.574	15912.55
627.768	16000.61
627.963	15980.13
628.157	15502.95
628.352	15777.38
628.546	15337.07
628.74	15472.23
628.935	15138.41
629.129	15392.36
629.323	15242.86
629.517	15083.12
629.712	15066.74
629.906	14970.48
630.1	14933.62
630.294	14952.05
630.489	14765.68
630.683	14726.77
630.877	14466.68
631.071	14509.69
631.265	14440.06
631.459	14571.13
631.653	14290.56
631.848	14282.36
632.042	14206.59
632.236	14130.81
632.43	14179.96
632.624	13956.74
632.818	13915.78
633.012	13727.36
633.206	13833.86
633.4	13950.59
633.594	13319.82
633.788	13604.49
633.982	13534.85
634.176	13293.19
634.369	13381.26
634.563	13569.67
634.757	13059.73
634.951	13174.41
635.145	13082.25
635.339	13211.28
635.533	12891.79
635.726	13014.67
635.92	12830.35
636.114	12670.61
636.308	12842.64
636.501	12699.28
636.695	12861.07
636.889	12568.21
637.083	12553.88
637.276	12336.79
637.47	12340.89
637.664	12099.23
637.857	12340.89
638.051	12023.45
638.244	11845.28
638.438	11882.14
638.632	11900.58
638.825	11912.86
639.019	11607.72
639.212	11845.28
639.406	11751.07
639.599	11673.25
639.793	11746.98
639.986	11228.84
640.18	11689.63
640.373	11382.44
640.567	11101.87
640.76	11310.76
640.954	11134.64
641.147	11128.49
641.34	11108.01
641.534	10995.37
641.727	11001.52
641.92	10940.08
642.114	10815.15
642.307	10759.86
642.5	10737.33
642.694	10733.23
642.887	10380.98
643.08	10604.21
643.273	10434.23
643.467	10544.82
643.66	10258.1
643.853	10290.87
644.046	10124.99
644.239	10100.41
644.432	10241.72
644.626	9987.77
644.819	9963.2
645.012	9909.95
645.205	10004.16
645.398	10043.07
645.591	9877.18
645.784	9799.36
645.977	9828.03
646.17	9901.76
646.363	9725.63
646.556	9479.88
646.749	9561.8
646.942	9479.88
647.135	9291.46
647.328	9350.85
647.521	9361.09
647.714	9111.24
647.907	9031.37
648.099	9201.35
648.292	9178.83
648.485	9113.29
648.678	9086.67
648.871	9152.2
649.064	8990.41
649.256	9178.83
649.449	8859.34
649.642	8715.98
649.835	8783.57
650.027	8728.27
650.22	8670.93
650.413	8699.6
650.605	8689.36
650.798	8652.5
650.991	8529.62
651.183	8488.66
651.376	8349.4
651.568	8586.96
651.761	8330.97
651.954	8419.03
652.146	8337.11
652.339	8259.29
652.531	8238.81
652.724	8056.54
652.916	8128.22
653.109	7978.72
653.301	7927.52
653.494	7984.86
653.686	7909.08
653.879	8150.74
654.071	7988.96
654.263	7792.35
654.456	7843.55
654.648	7868.13
654.84	7757.53
655.033	7630.56
655.225	7651.04
655.417	7685.86
655.61	7648.99
655.802	7780.06
655.994	7489.25
656.186	7524.07
656.379	7515.87
656.571	7458.53
656.763	7368.42
656.955	7208.68
657.148	7386.85
657.34	7497.44
657.532	7114.47
657.724	7124.71
657.916	7194.34
658.108	7276.26
658.3	6924.01
658.492	7128.81
658.684	7022.31
658.876	6887.15
659.068	6919.92
659.26	6932.2
659.452	6792.94
659.644	6743.79
659.836	6868.72
660.028	6921.96
660.22	6561.52
660.412	6684.4
660.604	6473.46
660.796	6481.65
660.988	6444.79
661.18	6455.03
661.372	6403.83
661.563	6659.82
661.755	6682.35
661.947	6434.55
662.139	6301.43
662.331	6563.57
662.522	6393.59
662.714	6473.46
662.906	6211.32
663.097	6231.8
663.289	6221.56
663.481	6229.75
663.673	6242.04
663.864	6147.83
664.056	6178.55
664.247	5988.09
664.439	6018.81
664.631	6033.15
664.822	6127.35
665.014	6125.3
665.205	5971.71
665.397	5809.92
665.588	5824.25
665.78	5912.32
665.971	5877.5
666.163	5902.08
666.354	5943.03
666.546	5789.44
666.737	5719.81
666.929	5865.21
667.12	5719.81
667.311	5852.92
667.503	5607.17
667.694	5648.13
667.885	5510.91
668.077	5740.29
668.268	5631.74
668.459	5519.11
668.651	5547.78
668.842	5502.72
669.033	5482.24
669.224	5476.1
669.416	5527.3
669.607	5439.23
669.798	5203.72
669.989	5633.79
670.18	5385.99
670.371	5549.82
670.563	5203.72
670.754	5467.91
670.945	5359.36
671.136	5263.11
671.327	5211.91
671.518	5351.17
671.709	5234.44
671.9	5494.53
672.091	5213.96
672.282	5148.42
672.473	5154.57
672.664	5392.13
672.855	5103.37
673.046	5336.84
673.237	5271.3
673.428	5097.22
673.619	5125.9
673.809	5138.18
674	5232.39
674.191	5222.15
674.382	5164.81
674.573	5224.2
674.764	5072.65
674.954	5220.1
675.145	4992.78
675.336	5007.11
675.527	4968.2
675.717	5084.94
675.908	4996.87
676.099	5015.3
676.289	5125.9
676.48	4900.62
676.671	5019.4
676.861	4955.91
677.052	4806.41
677.243	4919.05
677.433	5033.74
677.624	5035.78
677.814	4931.34
678.005	4892.43
678.195	4947.72
678.386	5005.06
678.576	4949.77
678.767	4878.09
678.957	5150.47
679.148	4990.73
679.338	4984.59
679.529	4968.2
679.719	4927.24
679.909	5103.37
680.1	4826.89
680.29	4876.04
680.481	4992.78
680.671	4953.87
680.861	5011.21
681.052	4890.38
681.242	4857.61
681.432	4935.43
681.622	4792.08
681.813	4957.96
682.003	4919.05
682.193	4822.8
682.383	4902.67
682.573	4859.66
682.764	4820.75
682.954	4900.62
683.144	4785.93
683.334	4849.42
683.524	4945.67
683.714	4812.56
683.904	4785.93
684.094	4828.94
684.284	4896.52
684.474	4878.09
684.664	4749.07
684.854	4706.06
685.044	4687.63
685.234	4632.33
685.424	4742.92
685.614	4648.72
685.804	4785.93
685.994	4529.94
686.184	4597.52
686.374	4597.52
686.564	4513.55
686.753	4630.29
686.943	4505.36
687.133	4681.49
687.323	4417.3
687.513	4675.34
687.702	4593.42
687.892	4450.07
688.082	4581.14
688.272	4445.97
688.461	4384.53
688.651	4517.65
688.841	4439.83
689.03	4413.2
689.22	4298.52
689.41	4323.09
689.599	4312.85
689.789	4218.64
689.979	4245.27
690.168	4321.04
690.358	4331.28
690.547	4132.63
690.737	4200.21
690.926	4171.54
691.116	4108.05
691.305	4110.1
691.495	4005.66
691.684	3985.18
691.874	4054.81
692.063	4007.7
692.252	3933.98
692.442	4040.47
692.631	3874.59
692.82	4073.24
693.01	3983.13
693.199	3925.79
693.388	3839.77
693.578	3888.92
693.767	3856.15
693.956	3766.04
694.146	3856.15
694.335	3868.44
694.524	3886.87
694.713	3917.59
694.902	3690.27
695.092	3794.72
695.281	3772.19
695.47	3698.46
695.659	3720.99
695.848	3714.84
696.037	3692.32
696.226	3706.65
696.415	3589.92
696.604	3809.05
696.793	3702.56
696.982	3626.78
697.171	3512.1
697.36	3694.36
697.549	3637.02
697.738	3565.34
697.927	3573.53
698.116	3583.77
698.305	3520.29
698.494	3505.95
698.683	3682.08
698.872	3573.53
699.061	3669.79
699.25	3436.32
699.438	3499.81
699.627	3542.82
699.816	3544.86
700.005	3436.32
700.193	3528.48
700.382	3534.62
700.571	3501.86
700.76	3614.49
700.948	3485.47
701.137	3481.38
701.326	3542.82
701.514	3540.77
701.703	3483.42
701.892	3493.66
702.08	3487.52
702.269	3512.1
702.457	3505.95
702.646	3460.9
702.834	3428.13
703.023	3469.09
703.212	3495.71
703.4	3530.53
703.589	3473.18
703.777	3600.16
703.965	3421.99
704.154	3563.29
704.342	3397.41
704.531	3356.45
704.719	3311.39
704.907	3704.6
705.096	3436.32
705.284	3542.82
705.472	3491.62
705.661	3469.09
705.849	3614.49
706.037	3514.14
706.226	3491.62
706.414	3424.03
706.602	3409.7
706.79	3434.27
706.979	3411.75
707.167	3614.49
707.355	3434.27
707.543	3589.92
707.731	3448.61
707.919	3643.17
708.107	3348.26
708.296	3612.45
708.484	3485.47
708.672	3632.93
708.86	3446.56
709.048	3637.02
709.236	3508
709.424	3483.42
709.612	3546.91
709.8	3551.01
709.988	3540.77
710.176	3622.69
710.364	3643.17
710.551	3501.86
710.739	3555.1
710.927	3489.57
711.115	3464.99
711.303	3526.43
711.491	3573.53
711.679	3630.88
711.866	3575.58
712.054	3520.29
712.242	3548.96
712.43	3655.45
712.617	3579.68
712.805	3587.87
712.993	3569.44
713.181	3421.99
713.368	3655.45
713.556	3653.41
713.744	3520.29
713.931	3852.06
714.119	3559.2
714.306	3684.13
714.494	3661.6
714.682	3557.15
714.869	3534.62
715.057	3569.44
715.244	3708.7
715.432	3628.83
715.619	3618.59
715.807	3571.49
715.994	3555.1
716.182	3641.12
716.369	3663.65
716.556	3741.47
716.744	3577.63
716.931	3741.47
717.119	3684.13
717.306	3692.32
717.493	3698.46
717.681	3534.62
717.868	3718.94
718.055	3802.91
718.242	3698.46
718.43	3690.27
718.617	3749.66
718.804	3669.79
718.991	3677.98
719.179	3710.75
719.366	3788.57
719.553	3739.42
719.74	3690.27
719.927	3888.92
720.114	3671.84
720.301	3827.48
720.488	3643.17
720.676	3829.53
720.863	3854.11
721.05	3802.91
721.237	3690.27
721.424	3761.95
721.611	3708.7
721.798	3766.04
721.985	3675.93
722.172	3755.8
722.358	3835.67
722.545	3948.31
722.732	3798.81
722.919	3764
723.106	3768.09
723.293	3858.2
723.48	3815.2
723.667	3811.1
723.853	3827.48
724.04	3817.24
724.227	4015.9
724.414	3788.57
724.6	3870.49
724.787	3909.4
724.974	3854.11
725.161	3890.97
725.347	3893.02
725.534	3835.67
725.72	3813.15
725.907	4001.56
726.094	3843.87
726.28	3811.1
726.467	3770.14
726.653	3882.78
726.84	3987.22
727.027	3835.67
727.213	3729.18
727.4	3901.21
727.586	3917.59
727.773	3895.07
727.959	3999.51
728.145	3854.11
728.332	3843.87
728.518	3909.4
728.705	4071.19
728.891	3925.79
729.077	3893.02
729.264	3819.29
729.45	3893.02
729.636	3884.83
729.823	3903.26
730.009	3862.3
730.195	3995.42
730.382	4009.75
730.568	3872.54
730.754	3948.31
730.94	3870.49
731.126	3976.98
731.313	3866.39
731.499	3952.41
731.685	4011.8
731.871	3864.35
732.057	3886.87
732.243	3913.5
732.429	3960.6
732.615	3895.07
732.801	3907.35
732.987	3925.79
733.173	3993.37
733.359	4009.75
733.545	3907.35
733.731	4017.94
733.917	3985.18
734.103	3966.74
734.289	3942.17
734.475	3831.58
734.661	4001.56
734.847	3913.5
735.033	3845.91
735.219	3909.4
735.404	3868.44
735.59	3970.84
735.776	3897.11
735.962	3970.84
736.148	3884.83
736.333	3874.59
736.519	3872.54
736.705	3905.31
736.89	3938.07
737.076	3864.35
737.262	3772.19
737.447	3868.44
737.633	3886.87
737.819	3999.51
738.004	4009.75
738.19	3915.55
738.375	3833.63
738.561	3815.2
738.747	3819.29
738.932	3796.76
739.118	3786.52
739.303	3866.39
739.489	3786.52
739.674	3743.52
739.859	3815.2
740.045	3786.52
740.23	3786.52
740.416	3655.45
740.601	3938.07
740.786	3790.62
740.972	3616.54
741.157	3706.65
741.342	3587.87
741.528	3587.87
741.713	3755.8
741.898	3634.97
742.084	3782.43
742.269	3624.73
742.454	3647.26
742.639	3718.94
742.824	3833.63
743.01	3729.18
743.195	3481.38
743.38	3616.54
743.565	3581.73
743.75	3579.68
743.935	3532.58
744.12	3501.86
744.305	3475.23
744.49	3460.9
744.675	3393.31
744.86	3440.42
745.045	3505.95
745.23	3333.92
745.415	3311.39
745.6	3448.61
745.785	3360.55
745.97	3440.42
746.155	3409.7
746.34	3481.38
746.525	3295.01
746.71	3419.94
746.895	3268.39
747.079	3266.34
747.264	3110.69
747.449	3106.6
747.634	3172.13
747.819	3260.2
748.003	3116.84
748.188	3084.07
748.373	3077.93
748.557	3172.13
748.742	3122.98
748.927	3082.02
749.111	2918.18
749.296	3039.01
749.481	3055.4
749.665	3014.44
749.85	2780.97
750.034	2932.52
750.219	2975.53
750.404	2828.07
750.588	2967.34
750.773	2776.87
750.957	2789.16
751.141	2869.03
751.326	2838.31
751.51	2707.24
751.695	2797.35
751.879	2795.31
752.064	2903.85
752.248	2772.78
752.432	2729.77
752.617	2565.93
752.801	2795.31
752.985	2615.09
753.17	2758.44
753.354	2697
753.538	2549.55
753.722	2576.17
753.907	2438.96
754.091	2445.1
754.275	2625.33
754.459	2506.54
754.643	2500.4
754.828	2506.54
755.012	2465.58
755.196	2402.1
755.38	2479.92
755.564	2340.66
755.748	2346.8
755.932	2408.24
756.116	2363.19
756.3	2406.19
756.484	2305.84
756.668	2320.18
756.852	2199.35
757.036	2092.85
757.22	2256.69
757.404	2238.26
757.588	2152.24
757.772	2211.64
757.956	2174.77
758.14	2240.31
758.323	2207.54
758.507	2092.85
758.691	2127.67
758.875	2144.05
759.059	2107.19
759.242	2045.75
759.426	2045.75
759.61	2119.48
759.794	2121.52
759.977	1924.92
760.161	2156.34
760.345	2164.53
760.528	1988.41
760.712	2082.61
760.895	2041.65
761.079	2031.41
761.263	1824.57
761.446	1914.68
761.63	1892.15
761.813	1810.23
761.997	1849.15
762.18	1783.61
762.364	1836.86
762.547	1812.28
762.731	1853.24
762.914	1847.1
763.098	1748.79
763.281	1847.1
763.464	1728.31
763.648	1812.28
763.831	1861.43
764.015	1781.56
764.198	1779.51
764.381	1799.99
764.564	1759.03
764.748	1742.65
764.931	1732.41
765.114	1765.18
765.297	1802.04
765.481	1705.79
765.664	1693.5
765.847	1697.6
766.03	1664.83
766.213	1746.75
766.397	1695.55
766.58	1707.84
766.763	1644.35
766.946	1769.27
767.129	1632.06
767.312	1744.7
767.495	1666.88
767.678	1484.61
767.861	1591.1
768.044	1623.87
768.227	1525.57
768.41	1535.81
768.593	1570.62
768.776	1589.05
768.959	1632.06
769.142	1607.48
769.324	1498.94
769.507	1515.33
769.69	1529.66
769.873	1476.41
770.056	1552.19
770.239	1523.52
770.421	1404.74
770.604	1412.93
770.787	1505.09
770.97	1490.75
771.152	1369.92
771.335	1402.69
771.518	1419.07
771.7	1505.09
771.883	1511.23
772.066	1423.17
772.248	1378.11
772.431	1429.31
772.613	1421.12
772.796	1449.79
772.978	1408.83
773.161	1466.17
773.343	1259.33
773.526	1394.5
773.708	1318.72
773.891	1294.15
774.073	1257.28
774.256	1206.08
774.438	1322.82
774.621	1277.76
774.803	1281.86
774.985	1296.19
775.168	1335.1
775.35	1337.15
775.532	1304.39
775.715	1206.08
775.897	1181.51
776.079	1175.36
776.261	1249.09
776.444	1113.92
776.626	1193.8
776.808	1189.7
776.99	1118.02
777.173	1091.4
777.355	1144.64
777.537	1158.98
777.719	1144.64
777.901	1113.92
778.083	1072.96
778.265	1095.49
778.447	1197.89
778.629	1068.87
778.811	1093.44
778.993	1070.92
779.175	1113.92
779.357	1011.53
779.539	1005.38
779.721	1015.62
779.903	1056.58
780.085	1005.38
780.267	1019.72
780.449	978.76
780.631	952.13
780.812	1060.68
780.994	995.14
781.176	931.66
781.358	945.99
781.54	976.71
781.721	968.52
781.903	984.9
782.085	857.93
782.267	960.33
782.448	831.3
782.63	857.93
782.812	919.37
782.993	843.59
783.175	862.02
783.357	868.17
783.538	894.79
783.72	857.93
783.901	839.5
784.083	835.4
784.264	823.11
784.446	745.29
784.627	659.28
784.809	790.35
784.99	804.68
785.172	845.64
785.353	759.63
785.535	780.11
785.716	821.06
785.897	761.67
786.079	659.28
786.26	730.95
786.441	816.97
786.623	737.1
786.804	706.38
786.985	728.91
787.167	698.19
787.348	671.56
787.529	665.42
787.71	798.54
787.891	667.47
788.073	593.74
788.254	659.28
788.435	716.62
788.616	773.96
788.797	630.6
788.978	608.08
789.159	683.85
789.34	616.27
789.522	616.27
789.703	640.84
789.884	622.41
790.065	575.31
790.246	692.04
790.427	749.39
790.607	706.38
790.788	593.74
790.969	601.93
791.15	581.45
791.331	587.6
791.512	558.92
791.693	536.4
791.874	595.79
792.054	646.99
792.235	640.84
792.416	470.86
792.597	608.08
792.778	579.4
792.958	509.77
793.139	585.55
793.32	534.35
793.5	489.29
793.681	567.12
793.862	477.01
794.042	472.91
794.223	509.77
794.404	520.01
794.584	401.23
794.765	511.82
794.945	513.87
795.126	511.82
795.306	470.86
795.487	487.25
795.667	517.97
795.848	528.21
796.028	343.89
796.209	507.73
796.389	495.44
796.57	487.25
796.75	436.05
796.93	378.7
797.111	497.49
797.291	409.42
797.471	528.21
797.652	444.24
797.832	421.71
798.012	462.67
798.192	323.41
798.373	417.61
798.553	382.8
798.733	497.49
798.913	458.57
799.093	448.33
799.274	419.66
799.454	431.95
799.634	460.62
799.814	450.38
799.994	374.61
800.174	458.57
800.354	339.79
800.534	319.31
800.714	415.57
800.894	376.66
801.074	341.84
801.254	403.28
801.434	509.77
801.614	388.94
801.794	413.52
801.974	1339.2
802.154	368.46
802.334	380.75
802.514	370.51
802.693	366.42
802.873	304.98
803.053	374.61
803.233	411.47
803.413	362.32
803.592	415.57
803.772	278.35
803.952	321.36
804.131	341.84
804.311	347.98
804.491	380.75
804.67	313.17
804.85	419.66
805.03	395.09
805.209	397.14
805.389	286.54
805.568	268.11
805.748	313.17
805.928	427.85
806.107	366.42
806.287	304.98
806.466	364.37
806.646	233.3
806.825	333.65
807.004	247.63
807.184	255.83
807.363	272.21
807.543	386.9
807.722	319.31
807.901	315.22
808.081	274.26
808.26	216.91
808.439	325.46
808.619	313.17
808.798	290.64
808.977	321.36
809.156	302.93
809.336	323.41
809.515	296.78
809.694	259.92
809.873	270.16
810.052	235.35
810.231	280.4
810.411	288.59
810.59	354.13
810.769	253.78
810.948	352.08
811.127	214.87
811.306	264.02
811.485	270.16
811.664	290.64
811.843	264.02
812.022	231.25
812.201	208.72
812.38	280.4
812.559	182.1
812.737	317.26
812.916	313.17
813.095	200.53
813.274	280.4
813.453	218.96
813.632	282.45
813.811	270.16
813.989	255.83
814.168	274.26
814.347	208.72
814.526	159.57
814.704	251.73
814.883	304.98
815.062	206.67
815.24	266.07
815.419	216.91
815.598	257.87
815.776	223.06
815.955	239.44
816.133	184.15
816.312	298.83
816.49	208.72
816.669	218.96
816.847	290.64
817.026	239.44
817.204	175.95
817.383	218.96
817.561	153.43
817.74	233.3
817.918	227.15
818.097	167.76
818.275	190.29
818.453	253.78
818.632	229.2
818.81	214.87
818.988	227.15
819.167	143.19
819.345	173.91
819.523	169.81
819.701	184.15
819.879	190.29
820.058	223.06
820.236	229.2
820.414	124.76
820.592	198.48
820.77	157.52
820.948	163.67
821.127	124.76
821.305	210.77
821.483	182.1
821.661	175.95
821.839	257.87
822.017	145.24
822.195	190.29
822.373	194.39
822.551	186.19
822.729	210.77
822.907	157.52
823.085	210.77
823.262	231.25
823.44	116.56
823.618	147.28
823.796	161.62
823.974	208.72
824.152	132.95
824.329	171.86
824.507	171.86
824.685	79.7
824.863	231.25
825.04	89.94
825.218	147.28
825.396	182.1
825.574	188.24
825.751	139.09
825.929	171.86
826.107	87.89
826.284	200.53
826.462	153.43
826.639	112.47
826.817	85.84
826.994	130.9
827.172	98.13
827.349	206.67
827.527	157.52
827.704	71.51
827.882	128.85
828.059	130.9
828.237	157.52
828.414	106.32
828.591	53.08
828.769	161.62
828.946	141.14
829.124	188.24
829.301	186.19
829.478	153.43
829.655	239.44
829.833	145.24
830.01	155.47
830.187	147.28
830.364	98.13
830.542	167.76
830.719	149.33
830.896	143.19
831.073	147.28
831.25	81.75
831.427	173.91
831.604	137.04
831.782	30.55
831.959	145.24
832.136	96.08
832.313	124.76
832.49	116.56
832.667	143.19
832.844	94.04
833.021	149.33
833.198	126.8
833.374	124.76
833.551	157.52
833.728	151.38
833.905	208.72
834.082	116.56
834.259	192.34
834.436	126.8
834.612	48.98
834.789	223.06
834.966	178
835.143	77.65
835.319	75.6
835.496	114.52
835.673	132.95
835.85	173.91
836.026	145.24
836.203	94.04
836.38	124.76
836.556	57.17
836.733	46.93
836.909	155.47
837.086	85.84
837.262	44.88
837.439	79.7
837.616	120.66
837.792	85.84
837.968	110.42
838.145	36.69
838.321	124.76
838.498	110.42
838.674	87.89
838.851	89.94
839.027	44.88
839.203	108.37
839.38	85.84
839.556	79.7
839.732	102.23
839.909	71.51
840.085	96.08
840.261	48.98
840.437	126.8
840.614	102.23
840.79	104.28
840.966	132.95
841.142	67.41
841.318	102.23
841.494	102.23
841.671	108.37
841.847	10.07
842.023	83.8
842.199	75.6
842.375	128.85
842.551	51.03
842.727	32.6
842.903	145.24
843.079	24.4
843.255	118.61
843.431	48.98
843.607	20.31
843.783	77.65
843.959	110.42
844.134	67.41
844.31	83.8
844.486	65.36
844.662	26.45
844.838	132.95
845.013	79.7
845.189	116.56
845.365	67.41
845.541	85.84
845.716	110.42
845.892	75.6
846.068	20.31
846.244	10.07
846.419	89.94
846.595	85.84
846.77	69.46
846.946	87.89
847.122	26.45
847.297	42.84
847.473	243.54
847.648	61.27
847.824	55.12
847.999	10.07
848.175	48.98
848.35	155.47
848.526	116.56
848.701	114.52
848.876	32.6
849.052	79.7
849.227	61.27
849.403	87.89
849.578	3.93
849.753	34.64
849.929	53.08
850.104	28.5
850.279	46.93
850.454	94.04
850.63	59.22
850.805	61.27
850.98	34.64
851.155	10.07
851.33	38.74
851.505	34.64
851.681	135
851.856	28.5
852.031	18.26
852.206	30.55
852.381	-28.84
852.556	8.02
852.731	116.56
852.906	61.27
853.081	153.43
853.256	77.65
853.431	-16.55
853.606	-26.79
853.781	110.42
853.956	-14.51
854.131	106.32
854.305	18.26
854.48	24.4
854.655	32.6
854.83	3.93
855.005	-2.22
855.18	128.85
855.354	22.36
855.529	1.88
855.704	57.17
855.879	42.84
856.053	-94.38
856.228	36.69
856.403	-4.27
856.577	61.27
856.752	-37.03
856.926	34.64
857.101	-18.6
857.276	1.88
857.45	61.27
857.625	100.18
857.799	83.8
857.974	28.5
858.148	-22.7
858.323	34.64
858.497	87.89
858.672	5.97
858.846	3.93
859.02	42.84
859.195	55.12
859.369	-14.51
859.543	-26.79
859.718	65.36
859.892	18.26
860.066	24.4
860.241	30.55
860.415	26.45
860.589	59.22
860.763	26.45
860.938	61.27
861.112	22.36
861.286	-22.7
861.46	14.17
861.634	10.07
861.808	18.26
861.982	10.07
862.157	-24.75
862.331	-24.75
862.505	44.88
862.679	34.64
862.853	-14.51
863.027	-39.08
863.201	143.19
863.375	12.12
863.549	1.88
863.722	42.84
863.896	91.99
864.07	1.88
864.244	53.08
864.418	51.03
864.592	38.74
864.766	-53.42
864.939	69.46
865.113	-45.23
865.287	65.36
865.461	48.98
865.634	51.03
865.808	8.02
865.982	5.97
866.156	-6.31
866.329	22.36
866.503	118.61
866.676	77.65
866.85	-26.79
867.024	-39.08
867.197	69.46
867.371	51.03
867.544	-18.6
867.718	14.17
867.891	63.32
868.065	-8.36
868.238	-51.37
868.412	38.74
868.585	-14.51
868.759	3.93
868.932	10.07
869.105	-43.18
869.279	16.21
869.452	1.88
869.625	75.6
869.799	-4.27
869.972	-96.43
870.145	44.88
870.319	18.26
870.492	-53.42
870.665	30.55
870.838	-0.17
871.011	1.88
871.185	34.64
871.358	77.65
871.531	77.65
871.704	22.36
871.877	55.12
872.05	-12.46
872.223	28.5
872.396	44.88
872.569	32.6
872.742	-10.41
872.915	55.12
873.088	79.7
873.261	-65.71
873.434	12.12
873.607	1.88
873.78	40.79
873.953	-2.22
874.126	40.79
874.299	87.89
874.471	10.07
874.644	-26.79
874.817	75.6
874.99	51.03
875.163	-4.27
875.335	10.07
875.508	-16.55
875.681	63.32
875.853	-18.6
876.026	18.26
876.199	63.32
876.371	-4.27
876.544	-22.7
876.717	-22.7
876.889	-30.89
877.062	16.21
877.234	12.12
877.407	22.36
877.579	67.41
877.752	51.03
877.924	69.46
878.097	63.32
878.269	46.93
878.442	36.69
878.614	63.32
878.786	44.88
878.959	85.84
879.131	18.26
879.303	-61.61
879.476	38.74
879.648	46.93
879.82	28.5
879.993	18.26
880.165	73.56
880.337	-6.31
880.509	57.17
880.681	-84.14
880.854	10.07
881.026	48.98
881.198	57.17
881.37	5.97
881.542	-2.22
881.714	-20.65
881.886	-30.89
882.058	-8.36
882.23	85.84
882.402	-8.36
882.574	65.36
882.746	32.6
882.918	126.8
883.09	22.36
883.262	-20.65
883.434	-24.75
883.606	3.93
883.778	-39.08
883.95	55.12
884.122	-10.41
884.293	-55.47
884.465	-4.27
884.637	51.03
884.809	-47.27
884.98	-6.31
885.152	65.36
885.324	22.36
885.496	-55.47
885.667	1.88
885.839	-10.41
886.011	108.37
886.182	67.41
886.354	77.65
886.525	-14.51
886.697	-8.36
886.869	-14.51
887.04	-30.89
887.212	20.31
887.383	151.38
887.555	1.88
887.726	-22.7
887.897	18.26
888.069	-18.6
888.24	-4.27
888.412	32.6
888.583	71.51
888.754	-24.75
888.926	-34.99
889.097	-69.8
889.268	28.5
889.44	-30.89
889.611	-30.89
889.782	-6.31
889.953	-82.09
890.125	-22.7
890.296	-24.75
890.467	-59.56
890.638	-6.31
890.809	-16.55
890.98	1.88
891.151	10.07
891.323	59.22
891.494	18.26
891.665	42.84
891.836	34.64
892.007	-24.75
892.178	26.45
892.349	3.93
892.52	51.03
892.691	18.26
892.862	1.88
893.032	-43.18
893.203	20.31
893.374	34.64
893.545	73.56
893.716	-8.36
893.887	18.26
894.057	-0.17
894.228	-12.46
894.399	-10.41
894.57	26.45
894.74	-47.27
894.911	34.64
895.082	-55.47
895.253	-69.8
895.423	-51.37
895.594	42.84
895.764	20.31
895.935	-28.84
896.106	34.64
896.276	-39.08
896.447	-32.94
896.617	-43.18
896.788	-34.99
896.958	71.51
897.129	-14.51
897.299	16.21
897.47	26.45
897.64	83.8
897.81	1.88
897.981	77.65
898.151	-28.84
898.322	-2.22
898.492	14.17
898.662	-26.79
898.832	-20.65
899.003	-20.65
899.173	63.32
899.343	-51.37
899.513	-96.43
