Data from USB4F104151__20__13-04-39-582.txt Node

Date: Fri Mar 14 13:04:39 EDT 2025
User: louis
Spectrometer: USB4F10415
Trigger mode: 4
Integration Time (sec): 4.000000E-2
Scans to average: 1
Electric dark correction enabled: true
Nonlinearity correction enabled: false
Boxcar width: 0
XAxis mode: Wavelengths
Number of Pixels in Spectrum: 3648
>>>>>Begin Spectral Data<<<<<
178.204	-202.75
178.424	-202.75
178.644	-202.75
178.864	-153.6
179.084	-131.07
179.304	20.48
179.524	8.19
179.744	26.62
179.964	38.91
180.184	14.34
180.404	-20.48
180.624	-75.77
180.844	24.58
181.064	-63.49
181.283	22.53
181.503	-53.25
181.723	57.34
181.943	-75.77
182.163	139.26
182.383	81.92
182.602	63.49
182.822	88.06
183.042	14.34
183.262	-57.34
183.482	51.2
183.701	69.63
183.921	65.53
184.141	-47.1
184.361	34.82
184.58	49.15
184.8	-30.72
185.02	-36.86
185.239	71.68
185.459	73.73
185.679	59.39
185.898	40.96
186.118	75.77
186.338	26.62
186.557	51.2
186.777	20.48
186.997	59.39
187.216	8.19
187.436	126.97
187.655	86.01
187.875	51.2
188.095	6.14
188.314	122.88
188.534	47.1
188.753	75.77
188.973	118.78
189.192	-8.19
189.412	79.87
189.631	75.77
189.851	116.73
190.07	114.69
190.29	-22.53
190.509	-22.53
190.729	-38.91
190.948	43.01
191.168	196.61
191.387	73.73
191.607	0
191.826	59.39
192.045	73.73
192.265	90.11
192.484	14.34
192.704	38.91
192.923	49.15
193.142	114.69
193.362	81.92
193.581	75.77
193.8	65.53
194.02	61.44
194.239	-8.19
194.458	83.97
194.678	-57.34
194.897	20.48
195.116	18.43
195.335	63.49
195.555	40.96
195.774	-8.19
195.993	12.29
196.212	34.82
196.432	4.1
196.651	4.1
196.87	69.63
197.089	174.08
197.308	120.83
197.528	40.96
197.747	10.24
197.966	65.53
198.185	59.39
198.404	71.68
198.623	57.34
198.842	67.58
199.062	110.59
199.281	30.72
199.5	63.49
199.719	-40.96
199.938	96.25
200.157	100.35
200.376	110.59
200.595	-18.43
200.814	59.39
201.033	18.43
201.252	100.35
201.471	69.63
201.69	114.69
201.909	24.58
202.128	57.34
202.347	32.77
202.566	73.73
202.785	18.43
203.004	30.72
203.223	165.89
203.442	57.34
203.661	40.96
203.879	28.67
204.098	18.43
204.317	-24.58
204.536	63.49
204.755	8.19
204.974	65.53
205.193	114.69
205.411	94.21
205.63	131.07
205.849	-43.01
206.068	4.1
206.287	12.29
206.505	129.02
206.724	63.49
206.943	51.2
207.162	12.29
207.381	90.11
207.599	59.39
207.818	94.21
208.037	32.77
208.255	43.01
208.474	34.82
208.693	34.82
208.911	49.15
209.13	73.73
209.349	65.53
209.567	49.15
209.786	118.78
210.005	143.36
210.223	-14.34
210.442	10.24
210.661	75.77
210.879	67.58
211.098	34.82
211.316	57.34
211.535	73.73
211.753	38.91
211.972	14.34
212.191	28.67
212.409	26.62
212.628	65.53
212.846	2.05
213.065	26.62
213.283	139.26
213.502	6.14
213.72	51.2
213.938	75.77
214.157	-4.1
214.375	106.49
214.594	-8.19
214.812	47.1
215.031	34.82
215.249	75.77
215.467	59.39
215.686	57.34
215.904	143.36
216.122	49.15
216.341	120.83
216.559	-34.82
216.778	77.82
216.996	-4.1
217.214	45.06
217.432	-57.34
217.651	53.25
217.869	57.34
218.087	12.29
218.306	47.1
218.524	88.06
218.742	-26.62
218.96	2.05
219.179	36.86
219.397	40.96
219.615	147.45
219.833	83.97
220.051	2.05
220.27	67.58
220.488	90.11
220.706	-8.19
220.924	51.2
221.142	20.48
221.36	53.25
221.578	55.3
221.796	63.49
222.015	65.53
222.233	69.63
222.451	59.39
222.669	10.24
222.887	106.49
223.105	-20.48
223.323	61.44
223.541	-28.67
223.759	43.01
223.977	96.25
224.195	135.17
224.413	55.3
224.631	92.16
224.849	88.06
225.067	24.58
225.285	28.67
225.503	24.58
225.721	-69.63
225.939	45.06
226.157	116.73
226.375	102.4
226.592	20.48
226.81	73.73
227.028	51.2
227.246	163.84
227.464	-22.53
227.682	73.73
227.9	55.3
228.117	57.34
228.335	8.19
228.553	49.15
228.771	28.67
228.989	104.45
229.206	45.06
229.424	-63.49
229.642	51.2
229.86	118.78
230.077	110.59
230.295	34.82
230.513	104.45
230.731	86.01
230.948	63.49
231.166	49.15
231.384	24.58
231.601	-57.34
231.819	-18.43
232.037	63.49
232.254	-40.96
232.472	16.38
232.689	8.19
232.907	59.39
233.125	-2.05
233.342	67.58
233.56	49.15
233.777	-2.05
233.995	-24.58
234.213	73.73
234.43	63.49
234.648	45.06
234.865	-6.14
235.083	18.43
235.3	28.67
235.518	104.45
235.735	192.51
235.953	40.96
236.17	24.58
236.388	108.54
236.605	69.63
236.822	26.62
237.04	45.06
237.257	81.92
237.475	-10.24
237.692	12.29
237.909	14.34
238.127	0
238.344	61.44
238.562	94.21
238.779	-8.19
238.996	43.01
239.214	75.77
239.431	110.59
239.648	-40.96
239.865	73.73
240.083	67.58
240.3	16.38
240.517	-4.1
240.735	28.67
240.952	65.53
241.169	28.67
241.386	110.59
241.603	24.58
241.821	10.24
242.038	88.06
242.255	73.73
242.472	0
242.689	63.49
242.907	77.82
243.124	65.53
243.341	73.73
243.558	55.3
243.775	83.97
243.992	-59.39
244.209	57.34
244.426	65.53
244.643	102.4
244.86	4.1
245.078	24.58
245.295	118.78
245.512	-8.19
245.729	34.82
245.946	40.96
246.163	129.02
246.38	-22.53
246.597	6.14
246.814	14.34
247.031	53.25
247.248	124.93
247.464	118.78
247.681	-47.1
247.898	92.16
248.115	53.25
248.332	-14.34
248.549	131.07
248.766	32.77
248.983	43.01
249.2	6.14
249.417	147.45
249.633	16.38
249.85	108.54
250.067	12.29
250.284	43.01
250.501	45.06
250.717	100.35
250.934	28.67
251.151	2.05
251.368	102.4
251.585	65.53
251.801	61.44
252.018	-6.14
252.235	98.3
252.451	45.06
252.668	-14.34
252.885	67.58
253.102	10.24
253.318	96.25
253.535	-47.1
253.752	10.24
253.968	49.15
254.185	49.15
254.401	75.77
254.618	55.3
254.835	88.06
255.051	38.91
255.268	49.15
255.484	83.97
255.701	0
255.917	73.73
256.134	6.14
256.351	51.2
256.567	61.44
256.784	10.24
257	8.19
257.217	55.3
257.433	36.86
257.65	12.29
257.866	49.15
258.082	-16.38
258.299	-8.19
258.515	20.48
258.732	36.86
258.948	-16.38
259.165	49.15
259.381	20.48
259.597	61.44
259.814	14.34
260.03	49.15
260.246	26.62
260.463	43.01
260.679	2.05
260.895	34.82
261.112	-14.34
261.328	36.86
261.544	53.25
261.761	122.88
261.977	40.96
262.193	-16.38
262.409	114.69
262.626	45.06
262.842	102.4
263.058	34.82
263.274	65.53
263.49	26.62
263.707	86.01
263.923	88.06
264.139	20.48
264.355	10.24
264.571	98.3
264.787	36.86
265.004	57.34
265.22	71.68
265.436	14.34
265.652	57.34
265.868	28.67
266.084	14.34
266.3	40.96
266.516	-8.19
266.732	22.53
266.948	61.44
267.164	28.67
267.38	8.19
267.596	-63.49
267.812	8.19
268.028	61.44
268.244	-12.29
268.46	73.73
268.676	71.68
268.892	81.92
269.108	43.01
269.324	32.77
269.54	55.3
269.756	59.39
269.972	45.06
270.188	59.39
270.403	-10.24
270.619	106.49
270.835	55.3
271.051	28.67
271.267	-6.14
271.483	77.82
271.698	67.58
271.914	71.68
272.13	69.63
272.346	61.44
272.562	57.34
272.777	65.53
272.993	71.68
273.209	40.96
273.425	32.77
273.64	-55.3
273.856	61.44
274.072	67.58
274.287	2.05
274.503	49.15
274.719	69.63
274.934	57.34
275.15	-18.43
275.366	73.73
275.581	20.48
275.797	-53.25
276.012	-40.96
276.228	18.43
276.444	32.77
276.659	133.12
276.875	65.53
277.09	81.92
277.306	49.15
277.521	90.11
277.737	-4.1
277.952	71.68
278.168	63.49
278.383	-49.15
278.599	24.58
278.814	131.07
279.03	86.01
279.245	86.01
279.461	26.62
279.676	26.62
279.892	4.1
280.107	18.43
280.322	8.19
280.538	-51.2
280.753	18.43
280.969	16.38
281.184	10.24
281.399	59.39
281.615	18.43
281.83	0
282.045	-75.77
282.26	-61.44
282.476	22.53
282.691	81.92
282.906	43.01
283.122	32.77
283.337	-8.19
283.552	69.63
283.767	26.62
283.983	59.39
284.198	18.43
284.413	67.58
284.628	-6.14
284.843	24.58
285.058	16.38
285.274	18.43
285.489	-8.19
285.704	16.38
285.919	40.96
286.134	40.96
286.349	49.15
286.564	30.72
286.779	86.01
286.995	0
287.21	-18.43
287.425	28.67
287.64	30.72
287.855	67.58
288.07	-34.82
288.285	49.15
288.5	67.58
288.715	63.49
288.93	65.53
289.145	53.25
289.36	118.78
289.575	2.05
289.79	26.62
290.004	57.34
290.219	139.26
290.434	-36.86
290.649	32.77
290.864	45.06
291.079	69.63
291.294	81.92
291.509	18.43
291.724	79.87
291.938	18.43
292.153	77.82
292.368	-2.05
292.583	2.05
292.798	63.49
293.012	-71.68
293.227	36.86
293.442	8.19
293.657	67.58
293.871	122.88
294.086	28.67
294.301	47.1
294.516	94.21
294.73	-28.67
294.945	0
295.16	16.38
295.374	65.53
295.589	86.01
295.804	79.87
296.018	106.49
296.233	75.77
296.447	14.34
296.662	-28.67
296.877	63.49
297.091	100.35
297.306	-16.38
297.52	63.49
297.735	81.92
297.949	26.62
298.164	40.96
298.378	106.49
298.593	-43.01
298.807	12.29
299.022	-47.1
299.236	-20.48
299.451	18.43
299.665	57.34
299.88	16.38
300.094	77.82
300.309	6.14
300.523	61.44
300.737	47.1
300.952	4.1
301.166	30.72
301.381	8.19
301.595	65.53
301.809	34.82
302.024	18.43
302.238	14.34
302.452	165.89
302.667	57.34
302.881	114.69
303.095	83.97
303.309	55.3
303.524	-8.19
303.738	16.38
303.952	98.3
304.166	100.35
304.381	10.24
304.595	73.73
304.809	53.25
305.023	81.92
305.237	38.91
305.452	63.49
305.666	24.58
305.88	92.16
306.094	49.15
306.308	51.2
306.522	126.97
306.736	63.49
306.95	81.92
307.164	-10.24
307.379	-10.24
307.593	88.06
307.807	16.38
308.021	55.3
308.235	-12.29
308.449	-30.72
308.663	30.72
308.877	169.98
309.091	86.01
309.305	90.11
309.519	-49.15
309.733	135.17
309.947	-32.77
310.161	26.62
310.374	106.49
310.588	51.2
310.802	-30.72
311.016	-16.38
311.23	-10.24
311.444	-16.38
311.658	94.21
311.872	28.67
312.085	2.05
312.299	69.63
312.513	79.87
312.727	83.97
312.941	-57.34
313.154	90.11
313.368	79.87
313.582	92.16
313.796	12.29
314.009	-8.19
314.223	49.15
314.437	53.25
314.651	24.58
314.864	20.48
315.078	4.1
315.292	0
315.505	-6.14
315.719	24.58
315.933	77.82
316.146	96.25
316.36	20.48
316.573	114.69
316.787	34.82
317.001	122.88
317.214	61.44
317.428	-8.19
317.641	59.39
317.855	79.87
318.068	69.63
318.282	141.31
318.495	69.63
318.709	47.1
318.922	83.97
319.136	59.39
319.349	18.43
319.563	43.01
319.776	2.05
319.99	-55.3
320.203	26.62
320.417	20.48
320.63	-2.05
320.843	73.73
321.057	63.49
321.27	143.36
321.483	49.15
321.697	73.73
321.91	34.82
322.124	114.69
322.337	67.58
322.55	32.77
322.763	129.02
322.977	-8.19
323.19	10.24
323.403	38.91
323.617	55.3
323.83	32.77
324.043	0
324.256	30.72
324.469	73.73
324.683	67.58
324.896	-28.67
325.109	32.77
325.322	8.19
325.535	49.15
325.748	20.48
325.962	83.97
326.175	22.53
326.388	57.34
326.601	104.45
326.814	-47.1
327.027	2.05
327.24	104.45
327.453	-10.24
327.666	133.12
327.879	92.16
328.092	98.3
328.305	88.06
328.518	8.19
328.731	32.77
328.944	43.01
329.157	16.38
329.37	10.24
329.583	98.3
329.796	131.07
330.009	-92.16
330.222	57.34
330.435	98.3
330.648	53.25
330.861	4.1
331.073	14.34
331.286	40.96
331.499	20.48
331.712	-16.38
331.925	108.54
332.138	10.24
332.35	63.49
332.563	-28.67
332.776	63.49
332.989	32.77
333.202	20.48
333.414	-40.96
333.627	18.43
333.84	32.77
334.053	36.86
334.265	24.58
334.478	-24.58
334.691	141.31
334.903	88.06
335.116	-32.77
335.329	73.73
335.541	73.73
335.754	77.82
335.966	-8.19
336.179	69.63
336.392	-16.38
336.604	10.24
336.817	114.69
337.029	71.68
337.242	61.44
337.454	28.67
337.667	30.72
337.88	69.63
338.092	47.1
338.305	0
338.517	47.1
338.729	20.48
338.942	165.89
339.154	40.96
339.367	-65.54
339.579	81.92
339.792	61.44
340.004	88.06
340.217	45.06
340.429	71.68
340.641	53.25
340.854	32.77
341.066	-20.48
341.278	57.34
341.491	143.36
341.703	30.72
341.915	-36.86
342.128	81.92
342.34	40.96
342.552	-6.14
342.764	24.58
342.977	51.2
343.189	53.25
343.401	28.67
343.613	8.19
343.826	112.64
344.038	49.15
344.25	2.05
344.462	18.43
344.674	63.49
344.886	53.25
345.099	90.11
345.311	57.34
345.523	20.48
345.735	-90.11
345.947	81.92
346.159	92.16
346.371	114.69
346.583	53.25
346.795	131.07
347.007	59.39
347.219	32.77
347.431	47.1
347.643	49.15
347.855	88.06
348.067	137.21
348.279	-55.3
348.491	51.2
348.703	81.92
348.915	-14.34
349.127	-8.19
349.339	69.63
349.551	16.38
349.763	16.38
349.975	-6.14
350.187	61.44
350.399	90.11
350.61	51.2
350.822	32.77
351.034	135.17
351.246	79.87
351.458	155.65
351.669	69.63
351.881	49.15
352.093	53.25
352.305	100.35
352.517	22.53
352.728	145.41
352.94	32.77
353.152	88.06
353.363	32.77
353.575	90.11
353.787	12.29
353.999	67.58
354.21	49.15
354.422	12.29
354.633	86.01
354.845	67.58
355.057	65.53
355.268	8.19
355.48	-4.1
355.692	61.44
355.903	55.3
356.115	-20.48
356.326	-2.05
356.538	108.54
356.749	75.77
356.961	126.97
357.172	114.69
357.384	51.2
357.595	77.82
357.807	59.39
358.018	45.06
358.23	77.82
358.441	147.45
358.653	51.2
358.864	55.3
359.075	30.72
359.287	106.49
359.498	122.88
359.709	40.96
359.921	83.97
360.132	38.91
360.344	63.49
360.555	34.82
360.766	57.34
360.977	67.58
361.189	20.48
361.4	18.43
361.611	73.73
361.823	102.4
362.034	83.97
362.245	12.29
362.456	32.77
362.667	86.01
362.879	-16.38
363.09	6.14
363.301	10.24
363.512	18.43
363.723	77.82
363.935	98.3
364.146	59.39
364.357	96.25
364.568	65.53
364.779	32.77
364.99	145.41
365.201	57.34
365.412	126.97
365.623	16.38
365.834	28.67
366.045	116.73
366.256	20.48
366.467	32.77
366.678	106.49
366.889	40.96
367.1	-6.14
367.311	24.58
367.522	-2.05
367.733	122.88
367.944	108.54
368.155	26.62
368.366	116.73
368.577	34.82
368.788	14.34
368.999	40.96
369.209	34.82
369.42	69.63
369.631	141.31
369.842	83.97
370.053	67.58
370.264	43.01
370.474	30.72
370.685	24.58
370.896	32.77
371.107	139.26
371.317	110.59
371.528	32.77
371.739	92.16
371.95	49.15
372.16	51.2
372.371	10.24
372.582	24.58
372.792	116.73
373.003	24.58
373.214	112.64
373.424	92.16
373.635	-2.05
373.846	98.3
374.056	51.2
374.267	116.73
374.477	83.97
374.688	57.34
374.898	34.82
375.109	36.86
375.319	36.86
375.53	59.39
375.74	20.48
375.951	16.38
376.161	106.49
376.372	67.58
376.582	-16.38
376.793	86.01
377.003	24.58
377.214	26.62
377.424	120.83
377.635	20.48
377.845	49.15
378.055	96.25
378.266	-12.29
378.476	-32.77
378.686	106.49
378.897	77.82
379.107	10.24
379.317	63.49
379.528	63.49
379.738	92.16
379.948	61.44
380.158	77.82
380.369	4.1
380.579	114.69
380.789	18.43
380.999	88.06
381.21	51.2
381.42	188.41
381.63	22.53
381.84	124.93
382.05	2.05
382.261	81.92
382.471	65.53
382.681	45.06
382.891	38.91
383.101	47.1
383.311	53.25
383.521	32.77
383.731	100.35
383.941	114.69
384.151	77.82
384.361	32.77
384.571	92.16
384.781	106.49
384.991	108.54
385.201	196.61
385.411	184.32
385.621	92.16
385.831	32.77
386.041	96.25
386.251	61.44
386.461	43.01
386.671	2.05
386.881	59.39
387.091	104.45
387.301	126.97
387.511	24.58
387.72	92.16
387.93	61.44
388.14	-24.58
388.35	34.82
388.56	106.49
388.769	79.87
388.979	-10.24
389.189	86.01
389.399	122.88
389.609	92.16
389.818	133.12
390.028	90.11
390.238	28.67
390.447	-18.43
390.657	100.35
390.867	59.39
391.076	51.2
391.286	96.25
391.496	36.86
391.705	90.11
391.915	129.02
392.125	118.78
392.334	34.82
392.544	98.3
392.753	67.58
392.963	-10.24
393.172	98.3
393.382	94.21
393.591	198.65
393.801	20.48
394.01	165.89
394.22	122.88
394.429	67.58
394.639	73.73
394.848	51.2
395.058	75.77
395.267	106.49
395.477	143.36
395.686	108.54
395.895	98.3
396.105	147.45
396.314	106.49
396.524	79.87
396.733	133.12
396.942	102.4
397.152	108.54
397.361	100.35
397.57	83.97
397.78	122.88
397.989	94.21
398.198	190.46
398.407	6.14
398.617	118.78
398.826	104.45
399.035	106.49
399.244	106.49
399.453	24.58
399.663	90.11
399.872	147.45
400.081	49.15
400.29	184.32
400.499	69.63
400.708	151.55
400.917	131.07
401.127	86.01
401.336	98.3
401.545	163.84
401.754	122.88
401.963	139.26
402.172	112.64
402.381	86.01
402.59	77.82
402.799	182.27
403.008	149.5
403.217	124.93
403.426	192.51
403.635	112.64
403.844	131.07
404.053	96.25
404.262	40.96
404.471	100.35
404.68	124.93
404.888	92.16
405.097	110.59
405.306	182.27
405.515	229.37
405.724	122.88
405.933	229.37
406.142	243.71
406.35	227.32
406.559	163.84
406.768	264.19
406.977	260.09
407.185	180.22
407.394	176.13
407.603	157.69
407.812	167.93
408.02	233.47
408.229	223.23
408.438	188.41
408.646	157.69
408.855	210.94
409.064	294.91
409.272	217.08
409.481	280.57
409.69	225.28
409.898	296.96
410.107	311.29
410.315	305.15
410.524	253.95
410.733	348.15
410.941	313.34
411.15	327.67
411.358	335.87
411.567	352.25
411.775	471.03
411.984	354.3
412.192	477.18
412.401	413.69
412.609	456.7
412.818	526.33
413.026	495.61
413.234	454.65
413.443	385.02
413.651	477.18
413.86	501.75
414.068	524.28
414.276	651.25
414.485	501.75
414.693	745.46
414.901	679.93
415.11	595.96
415.318	591.86
415.526	677.88
415.734	751.6
415.943	743.41
416.151	765.94
416.359	735.22
416.567	864.24
416.776	856.05
416.984	911.35
417.192	997.36
417.4	942.07
417.608	796.66
417.817	942.07
418.025	1081.33
418.233	1116.14
418.441	1064.94
418.649	1169.39
418.857	1202.16
419.065	1282.03
419.273	1101.81
419.481	1206.25
419.689	1394.67
419.897	1433.58
420.105	1386.47
420.313	1501.16
420.521	1462.25
420.729	1527.78
420.937	1624.04
421.145	1558.5
421.353	1654.76
421.561	1875.94
421.769	1843.17
421.977	1865.7
422.185	1925.09
422.393	1943.52
422.601	2015.2
422.809	2232.29
423.017	2117.6
423.224	2234.33
423.432	2267.1
423.64	2318.3
423.848	2488.28
424.056	2410.46
424.263	2729.94
424.471	2682.84
424.679	2695.13
424.887	2793.43
425.094	2830.29
425.302	2912.21
425.51	3002.32
425.718	3123.15
425.925	3172.3
426.133	3272.65
426.341	3416.01
426.548	3538.89
426.756	3629
426.964	3626.95
427.171	3862.47
427.379	3962.82
427.586	4085.7
427.794	4110.27
428.001	4290.49
428.209	4509.63
428.417	4423.61
428.624	4853.69
428.832	4825.01
429.039	4710.33
429.247	4659.13
429.454	5343.15
429.662	5476.27
429.869	5148.59
430.076	5576.62
430.284	5431.21
430.491	5808.04
430.699	5969.83
430.906	5932.97
431.114	5961.64
431.321	6268.83
431.528	6391.71
431.736	6889.37
431.943	7069.59
432.15	6848.41
432.358	7045.01
432.565	7335.82
432.772	7430.03
432.979	7653.26
433.187	7790.47
433.394	8025.99
433.601	8443.78
433.808	8505.21
434.016	8404.86
434.223	8726.39
434.43	9287.54
434.637	9150.32
434.844	9752.43
435.052	9969.51
435.259	9992.04
435.466	10028.9
435.673	9766.76
435.88	10454.88
436.087	10946.39
436.294	11204.44
436.501	10725.21
436.708	11069.27
436.915	11370.32
437.122	12162.89
437.329	12025.67
437.537	12212.04
437.743	12590.91
437.95	12314.44
438.157	12943.16
438.364	13481.78
438.571	13221.69
438.778	13539.12
438.985	14630.69
439.192	14180.14
439.399	14739.23
439.606	14366.5
439.813	15062.81
440.02	16062.22
440.227	15976.2
440.433	15859.47
440.64	16121.61
440.847	16213.77
441.054	16461.57
441.261	17325.82
441.467	17180.41
441.674	17778.42
441.881	18349.8
442.088	18218.73
442.294	17983.21
442.501	18630.37
442.708	18900.7
442.914	19635.92
443.121	20403.91
443.328	20160.2
443.534	21462.71
443.741	20770.5
443.948	20508.36
444.154	21892.79
444.361	21937.84
444.568	21976.75
444.774	22058.67
444.981	22159.02
445.187	23056.03
445.394	23764.63
445.6	23473.82
445.807	25699.96
446.013	24739.46
446.22	25284.22
446.426	26564.2
446.633	26674.79
446.839	27684.44
447.046	26162.8
447.252	27706.97
447.459	27532.89
447.665	27885.14
447.871	28829.26
448.078	30322.23
448.284	28675.66
448.491	29722.17
448.697	30770.73
448.903	31409.7
449.11	31567.39
449.316	30924.33
449.522	31460.9
449.728	32443.92
449.935	33033.74
450.141	32677.39
450.347	33103.37
450.553	32259.6
450.76	32687.63
450.966	33541.63
451.172	33582.59
451.378	34127.35
451.584	33590.78
451.791	34512.37
451.997	34133.5
452.203	35190.25
452.409	35341.8
452.615	35337.7
452.821	33637.89
453.027	33205.77
453.233	35306.98
453.44	33590.78
453.646	34151.93
453.852	34364.92
454.058	34579.95
454.264	33697.28
454.47	34495.99
454.676	33644.03
454.882	34674.16
455.088	31827.48
455.294	32179.73
455.5	32865.8
455.705	33181.19
455.911	31921.69
456.117	31346.21
456.323	30795.31
456.529	29152.84
456.735	30508.59
456.941	29748.79
457.147	29189.7
457.352	28434
457.558	28188.24
457.764	28364.37
457.97	27477.6
458.176	26934.88
458.381	27135.59
458.587	25720.44
458.793	25695.86
458.999	24428.17
459.204	26134.13
459.41	25400.96
459.616	23506.59
459.821	23688.85
460.027	23924.37
460.233	23176.86
460.438	22066.86
460.644	22255.28
460.85	21378.75
461.055	20850.37
461.261	20883.14
461.466	19396.31
461.672	18542.31
461.878	19832.53
462.083	18816.74
462.289	18523.88
462.494	18423.53
462.7	17250.04
462.905	17071.87
463.111	17530.61
463.316	17207.03
463.522	17264.38
463.727	17102.59
463.932	17055.48
464.138	17008.38
464.343	16971.52
464.549	16291.59
464.754	16969.47
464.959	16649.99
465.165	16717.57
465.37	16084.75
465.575	15628.05
465.781	16129.8
465.986	16338.69
466.191	15738.64
466.397	15370.01
466.602	14802.72
466.807	15212.31
467.012	15183.64
467.218	15206.17
467.423	15066.91
467.628	15322.9
467.833	15679.25
468.038	15374.1
468.244	14692.13
468.449	15298.33
468.654	14556.96
468.859	14831.39
469.064	14507.81
469.269	14143.27
469.474	14239.53
469.679	14497.57
469.885	14225.19
470.09	14206.76
470.295	14163.75
470.5	13807.41
470.705	14020.39
470.91	13592.37
471.115	13590.32
471.32	13829.93
471.525	13766.45
471.73	13639.47
471.935	13426.48
472.139	12685.12
472.344	12922.68
472.549	12838.72
472.754	12795.71
472.959	12480.32
473.164	12269.38
473.369	12109.64
473.574	12347.2
473.778	12408.64
473.983	12271.43
474.188	12201.8
474.393	11642.7
474.598	11994.95
474.802	11347.79
475.007	11523.92
475.212	11646.8
475.417	11173.72
475.621	11296.6
475.826	11087.7
476.031	10983.26
476.235	10743.64
476.44	10782.56
476.645	10583.9
476.849	10680.16
477.054	10657.63
477.259	10430.3
477.463	10428.26
477.668	10293.09
477.872	10141.54
478.077	10119.01
478.282	9783.15
478.486	9881.45
478.691	9566.06
478.895	9650.03
479.1	9602.93
479.304	9510.77
479.509	9353.07
479.713	9500.53
479.918	9348.98
480.122	9078.65
480.326	9344.88
480.531	9256.82
480.735	9222
480.94	9142.13
481.144	9191.28
481.348	8830.84
481.553	8914.81
481.757	8892.28
481.961	9006.97
482.166	8890.23
482.37	8990.58
482.574	8781.69
482.778	8855.42
482.983	9273.2
483.187	8959.86
483.391	9015.16
483.595	8861.56
483.8	8869.75
484.004	8849.27
484.208	8892.28
484.412	8912.76
484.616	8923
484.821	9033.59
485.025	8628.09
485.229	8920.95
485.433	8771.45
485.637	9011.06
485.841	8845.18
486.045	8675.2
486.249	8824.7
486.453	8742.78
486.657	8759.16
486.861	8796.03
487.065	8796.03
487.269	8814.46
487.473	8753.02
487.677	8896.38
487.881	9086.84
488.085	8951.67
488.289	8759.16
488.493	8779.64
488.697	8851.32
488.901	8839.03
489.105	8843.13
489.309	9002.87
489.512	8982.39
489.716	9191.28
489.92	8900.47
490.124	8869.75
490.328	9164.66
490.531	9031.54
490.735	9146.23
490.939	9023.35
491.143	8955.77
491.346	8937.34
491.55	9322.35
491.754	9068.41
491.958	9299.83
492.161	9127.8
492.365	9293.68
492.569	9250.67
492.772	9355.12
492.976	9455.47
493.18	9455.47
493.383	9652.08
493.587	9627.5
493.79	9779.05
493.994	9555.82
494.197	9545.58
494.401	9672.56
494.605	9750.38
494.808	9924.46
495.012	9811.82
495.215	10123.11
495.419	10149.73
495.622	9967.46
495.825	10170.21
496.029	10340.19
496.232	10440.54
496.436	10456.93
496.639	10604.38
496.843	10461.02
497.046	10643.29
497.249	10710.88
497.453	10868.57
497.656	10995.54
497.859	11155.29
498.063	11077.46
498.266	11267.92
498.469	11269.97
498.673	11423.57
498.876	11675.47
499.079	11894.6
499.282	11865.93
499.485	12128.07
499.689	12271.43
499.892	12447.55
500.095	12324.68
500.298	12697.41
500.501	12595.01
500.705	12898.11
500.908	12867.39
501.111	13252.41
501.314	13377.33
501.517	13403.96
501.72	13172.53
501.923	13561.65
502.126	13817.65
502.329	13995.82
502.532	14012.2
502.735	14294.82
502.938	14610.21
503.141	14417.7
503.344	14499.62
503.547	14757.66
503.75	15261.46
503.953	15173.4
504.156	15378.2
504.359	15335.19
504.562	15605.52
504.765	15609.62
504.968	15906.57
505.17	16307.98
505.373	16049.93
505.576	16328.45
505.779	16543.49
505.982	16680.71
506.185	16893.69
506.387	17190.65
506.59	17151.74
506.793	17635.06
506.996	17475.32
507.198	18222.83
507.401	17956.59
507.604	17981.17
507.807	18206.44
508.009	18536.17
508.212	18800.35
508.415	18833.12
508.617	19416.79
508.82	19175.13
509.022	19189.47
509.225	19953.36
509.428	19898.06
509.63	19842.77
509.833	19941.07
510.035	20725.44
510.238	20481.74
510.44	20403.91
510.643	21360.31
510.845	21298.88
511.048	21229.24
511.25	21444.28
511.453	21880.5
511.655	22341.29
511.858	22208.17
512.06	22372.01
512.262	22597.29
512.465	22415.02
512.667	23066.27
512.87	23170.72
513.072	23457.43
513.274	23574.17
513.477	23824.02
513.679	24112.78
513.881	24379.02
514.084	24788.61
514.286	24458.89
514.488	25104
514.69	25276.03
514.893	25527.93
515.095	25368.19
515.297	25699.96
515.499	26052.21
515.701	26312.3
515.904	26781.29
516.106	26953.32
516.308	26988.13
516.51	27137.63
516.712	27469.4
516.914	27676.25
517.116	27803.22
517.318	28233.3
517.52	28511.82
517.722	28399.18
517.925	28784.2
518.127	28939.85
518.329	28993.09
518.531	29312.58
518.733	29630.01
518.935	30176.82
519.136	30148.15
519.338	30252.59
519.54	30567.98
519.742	30924.33
519.944	30907.94
520.146	31829.53
520.348	31921.69
520.55	31905.31
520.752	31979.03
520.954	32658.96
521.155	32570.9
521.357	32964.1
521.559	33168.9
521.761	33467.91
521.963	33478.15
522.164	33566.21
522.366	33652.22
522.568	34172.41
522.77	34295.28
522.971	35018.22
523.173	34377.2
523.375	34727.41
523.576	34967.02
523.778	35038.7
523.98	35585.5
524.181	35837.41
524.383	35800.54
524.584	36044.25
524.786	36343.25
524.988	36292.05
525.189	36507.09
525.391	36769.23
525.592	36879.82
525.794	37064.14
525.995	37133.77
526.197	37291.46
526.398	37670.34
526.6	37465.54
526.801	37813.69
527.003	37766.59
527.204	37797.31
527.406	38297.02
527.607	38213.05
527.808	38593.97
528.01	38505.91
528.211	38567.35
528.412	39198.12
528.614	38747.57
528.815	39415.21
529.016	39726.5
529.218	38940.08
529.419	39028.14
529.62	39493.03
529.822	39476.65
530.023	39589.28
530.224	40031.65
530.425	39955.87
530.626	39693.73
530.828	39527.84
531.029	40361.37
531.23	39882.14
531.431	40152.48
531.632	40414.62
531.833	40086.94
532.035	40291.74
532.236	40377.75
532.437	40713.62
532.638	40320.41
532.839	40160.67
533.04	41012.62
533.241	40304.02
533.442	40639.89
533.643	40705.43
533.844	40623.51
534.045	40742.29
534.246	40277.4
534.447	40963.47
534.648	40672.66
534.849	40906.13
535.05	40324.5
535.251	40725.91
535.451	40856.98
535.652	40879.5
535.853	40402.33
536.054	40971.66
536.255	41215.37
536.456	40830.35
536.657	41815.43
536.857	40668.56
537.058	40646.04
537.259	41227.66
537.46	41209.23
537.66	40975.76
537.861	41004.43
538.062	40916.37
538.263	41129.36
538.463	40715.67
538.664	41229.71
538.865	41168.27
539.065	40957.33
539.266	40727.95
539.466	41102.73
539.667	40304.02
539.868	41772.42
540.068	41201.04
540.269	40811.92
540.469	41170.32
540.67	40869.26
540.87	40990.09
541.071	40779.15
541.271	40816.02
541.472	41244.04
541.672	40445.33
541.873	40986
542.073	40218.01
542.274	41149.84
542.474	40588.69
542.675	40639.89
542.875	40893.84
543.075	40803.73
543.276	40586.64
543.476	41201.04
543.676	40701.33
543.877	40856.98
544.077	40912.27
544.277	40637.84
544.478	40705.43
544.678	41160.08
544.878	40713.62
545.078	40832.4
545.279	40674.71
545.479	40621.46
545.679	40734.1
545.879	41031.05
546.079	40381.85
546.28	40775.06
546.48	40406.42
546.68	40285.59
546.88	40682.9
547.08	40463.77
547.28	40471.96
547.48	40230.3
547.68	40986
547.88	40191.39
548.081	40809.87
548.281	40267.16
548.481	40261.02
548.681	41041.29
548.881	40484.25
549.081	40277.4
549.28	39990.69
549.48	40691.09
549.68	40074.65
549.88	41080.21
550.08	40353.18
550.28	40861.07
550.48	40154.52
550.68	40740.24
550.88	39894.43
551.08	40258.97
551.279	40582.55
551.479	40021.41
551.679	40664.47
551.879	39976.35
552.079	40646.04
552.278	40005.02
552.478	39880.1
552.678	40234.39
552.878	40351.13
553.077	39843.23
553.277	40158.62
553.477	41037.2
553.676	40050.08
553.876	40261.02
554.076	39853.47
554.275	39718.31
554.475	39552.42
554.674	40101.28
554.874	39986.59
555.074	39730.59
555.273	39990.69
555.473	40213.91
555.672	39720.35
555.872	39904.67
556.071	39873.95
556.271	40058.27
556.47	39353.77
556.67	39216.55
556.869	39615.91
557.068	40144.28
557.268	39577
557.467	39798.18
557.667	39378.34
557.866	39321
558.065	39120.3
558.265	39032.24
558.464	38956.46
558.663	39185.83
558.863	38682.03
559.062	39288.23
559.261	38804.91
559.461	39296.42
559.66	38182.33
559.859	38923.69
560.058	38667.7
560.258	38608.31
560.457	38346.17
560.656	38516.15
560.855	38612.4
561.054	38899.12
561.253	37987.77
561.453	38622.64
561.652	37854.65
561.851	38571.44
562.05	38108.6
562.249	38016.44
562.448	38442.42
562.647	37817.79
562.846	37776.83
563.045	37928.38
563.244	37397.96
563.443	38180.28
563.642	37172.68
563.841	37569.99
564.04	36842.96
564.239	37549.51
564.438	37158.34
564.637	37152.2
564.836	37463.49
565.035	37223.88
565.234	37201.35
565.432	36812.24
565.631	36836.81
565.83	36955.6
566.029	37232.07
566.228	36580.82
566.427	36611.54
566.625	36566.48
566.824	36304.34
567.023	36427.22
567.222	35755.49
567.42	36414.93
567.619	35993.05
567.818	35913.18
568.016	35900.89
568.215	36195.8
568.414	35610.08
568.612	36013.53
568.811	35474.91
569.01	35659.23
569.208	35018.22
569.407	35589.6
569.605	35333.6
569.804	35331.56
570.002	34899.44
570.201	35075.56
570.4	34848.24
570.598	34737.65
570.797	34590.19
570.995	34698.73
571.193	34346.48
571.392	34792.94
571.59	34321.91
571.789	34465.27
571.987	34651.63
572.186	34119.16
572.384	34260.47
572.582	34444.79
572.781	34057.72
572.979	33353.22
573.177	33689.09
573.376	33867.26
573.574	33799.68
573.772	33940.99
573.971	33691.13
574.169	33256.96
574.367	32953.87
574.565	33476.1
574.763	33043.98
574.962	32955.91
575.16	32540.18
575.358	32558.61
575.556	32531.98
575.754	33160.71
575.952	32562.7
576.151	32869.9
576.349	32140.82
576.547	32427.54
576.745	32349.71
576.943	32554.51
577.141	32460.3
577.339	32497.17
577.537	32024.09
577.735	32085.53
577.933	32091.67
578.131	32310.8
578.329	31637.02
578.527	31589.92
578.725	31708.7
578.923	31532.57
579.121	31454.75
579.319	31182.37
579.516	31317.54
579.714	31579.68
579.912	30975.53
580.11	30731.82
580.308	30950.95
580.506	31143.46
580.704	30289.46
580.901	30774.83
581.099	30881.32
581.297	30471.73
581.495	30262.83
581.692	30572.08
581.89	30154.29
582.088	30293.55
582.285	30109.24
582.483	30342.71
582.681	30160.44
582.878	30293.55
583.076	30017.08
583.274	29806.14
583.471	29498.94
583.669	29748.79
583.866	29507.13
584.064	29791.8
584.262	29208.13
584.459	29390.4
584.657	29249.09
584.854	29384.26
585.052	28802.63
585.249	28790.34
585.447	29091.4
585.644	29023.81
585.841	28673.61
586.039	28937.8
586.236	28522.06
586.434	28659.27
586.631	28474.96
586.828	28536.4
587.026	28700.23
587.223	28259.92
587.42	28188.24
587.618	28409.42
587.815	27778.65
588.012	27764.31
588.21	27815.51
588.407	27932.25
588.604	27797.08
588.801	27620.95
588.999	27631.19
589.196	27369.05
589.393	27455.07
589.59	27108.96
589.787	27037.28
589.984	27158.11
590.182	27016.8
590.379	27258.46
590.576	26738.28
590.773	27057.76
590.97	27065.96
591.167	26910.31
591.364	26189.42
591.561	26578.54
591.758	26515.05
591.955	26252.91
592.152	26820.2
592.349	26162.8
592.546	26039.92
592.743	26134.13
592.94	26103.41
593.137	26158.7
593.334	26523.24
593.531	25689.72
593.727	25966.2
593.924	25931.38
594.121	25239.17
594.318	25728.63
594.515	25413.24
594.712	25702.01
594.908	25132.67
595.105	25370.24
595.302	24952.45
595.499	25228.93
595.696	25237.12
595.892	24684.17
596.089	24962.69
596.286	24727.17
596.482	24712.84
596.679	24794.76
596.876	24897.16
597.072	24764.04
597.269	24549
597.466	24422.03
597.662	24266.38
597.859	24284.81
598.055	24057.49
598.252	23928.47
598.448	24041.11
598.645	23658.14
598.841	23600.79
599.038	23842.45
599.234	23881.36
599.431	23588.5
599.627	23557.78
599.824	23522.97
600.02	23400.09
600.217	23285.4
600.413	23193.25
600.609	23391.9
600.806	23203.49
601.002	23019.17
601.198	22881.95
601.395	22994.59
601.591	22668.97
601.787	22886.05
601.984	22927.01
602.18	22707.88
602.376	22628.01
602.572	22314.67
602.769	22572.71
602.965	22347.44
603.161	22181.55
603.357	22290.09
603.553	22093.49
603.75	22083.25
603.946	21915.31
604.142	22105.77
604.338	21765.81
604.534	21857.97
604.73	21900.98
604.926	21771.96
605.122	21741.24
605.318	21675.7
605.514	21464.76
605.71	21417.66
605.906	21403.32
606.102	21292.73
606.298	21548.73
606.494	21524.15
606.69	21522.1
606.886	21229.24
607.082	21259.96
607.278	21282.49
607.474	20889.28
607.67	21243.58
607.866	20780.74
608.062	20907.71
608.257	20764.36
608.453	20723.4
608.649	20866.75
608.845	20498.12
609.041	20661.96
609.236	20760.26
609.432	20520.65
609.628	20668.1
609.824	20328.14
610.019	20365
610.215	20328.14
610.411	20633.29
610.606	20135.63
610.802	20328.14
610.998	20680.39
611.193	20082.38
611.389	20080.33
611.584	20109.01
611.78	19783.38
611.976	19879.63
612.171	19936.98
612.367	19992.27
612.562	19934.93
612.758	19697.36
612.953	19271.39
613.149	20006.61
613.344	19093.21
613.539	19748.56
613.735	19914.45
613.93	19779.28
614.126	19525.33
614.321	19713.75
614.517	19560.15
614.712	19486.42
614.907	19203.8
615.103	19414.74
615.298	19015.39
615.493	19410.65
615.688	19273.43
615.884	19533.53
616.079	18882.27
616.274	19361.5
616.47	19027.68
616.665	18964.19
616.86	19062.49
617.055	18929.38
617.25	18888.42
617.445	19109.6
617.641	18702.05
617.836	18718.43
618.031	18468.58
618.226	18648.8
618.421	18716.39
618.616	18730.72
618.811	18499.3
619.006	18433.77
619.201	18284.26
619.396	18278.12
619.591	18046.7
619.786	18206.44
619.981	17827.57
620.176	18233.07
620.371	17868.53
620.566	18140.91
620.761	17655.54
620.956	18261.74
621.151	17547
621.346	17673.97
621.541	17297.14
621.735	17862.38
621.93	17221.37
622.125	17260.28
622.32	16832.26
622.515	17186.55
622.709	16856.83
622.904	17061.63
623.099	16944.89
623.294	16936.7
623.488	16598.79
623.683	16819.97
623.878	16455.43
624.072	16350.98
624.267	16445.19
624.462	16568.07
624.656	16121.61
624.851	16471.81
625.046	16027.4
625.24	15900.43
625.435	15654.67
625.629	15691.54
625.824	15781.65
626.018	15755.02
626.213	15410.96
626.407	15392.53
626.602	15216.41
626.796	15314.71
626.991	15247.13
627.185	14960.41
627.38	15230.74
627.574	14913.31
627.768	14946.08
627.963	14671.65
628.157	14376.74
628.352	14927.64
628.546	14608.16
628.74	14612.26
628.935	14333.73
629.129	14585.63
629.323	14165.8
629.517	14098.22
629.712	14116.65
629.906	14198.57
630.1	14085.93
630.294	13731.63
630.489	13993.77
630.683	13868.84
630.877	13598.51
631.071	13713.2
631.265	13725.49
631.459	13360.95
631.653	13375.28
631.848	13393.72
632.042	13076.28
632.236	13205.3
632.43	13174.58
632.624	13248.31
632.818	13240.12
633.012	13004.6
633.206	12785.47
633.4	13127.48
633.594	12658.49
633.788	12721.98
633.982	12738.37
634.176	12638.02
634.369	12480.32
634.563	12416.83
634.757	11943.75
634.951	12212.04
635.145	12412.74
635.339	12171.08
635.533	11896.65
635.726	12248.9
635.92	11968.33
636.114	11974.47
636.308	11818.83
636.501	11769.68
636.695	11810.64
636.889	11767.63
637.083	11575.12
637.276	11249.49
637.47	11482.96
637.664	11532.11
637.857	11380.56
638.051	11437.91
638.244	11249.49
638.438	11099.99
638.632	11237.2
638.825	10911.58
639.019	11233.11
639.212	11044.7
639.406	11102.04
639.599	10727.26
639.793	10792.8
639.986	10725.21
640.18	10692.44
640.373	10544.99
640.567	10508.13
640.76	10631.01
640.954	10192.74
641.147	10405.73
641.34	10360.67
641.534	10399.59
641.727	10200.93
641.92	10196.84
642.114	10166.12
642.307	10133.35
642.5	10205.03
642.694	9934.7
642.887	9824.11
643.08	9987.94
643.273	9891.69
643.467	9502.57
643.66	9715.56
643.853	9543.53
644.046	9537.39
644.239	9664.36
644.432	9453.42
644.626	9367.41
644.819	9314.16
645.012	9217.91
645.205	9289.59
645.398	9461.62
645.591	9295.73
645.784	9191.28
645.977	9115.51
646.17	9271.15
646.363	8937.34
646.556	8970.1
646.749	8970.1
646.942	9000.82
647.135	8908.66
647.328	8849.27
647.521	8673.15
647.714	8736.63
647.907	8636.28
648.099	8580.99
648.292	8626.04
648.485	8671.1
648.678	8347.52
648.871	8372.1
649.064	8378.24
649.256	8300.42
649.449	8351.62
649.642	8165.25
649.835	8220.55
650.027	8159.11
650.22	8169.35
650.413	8114.05
650.605	8077.19
650.798	7868.3
650.991	8011.65
651.183	8040.33
651.376	7843.72
651.568	7864.2
651.761	7778.19
651.954	7825.29
652.146	7720.84
652.339	7757.71
652.531	7559.05
652.724	7657.36
652.916	7415.69
653.109	7413.65
653.301	7546.76
653.494	7520.14
653.686	7356.3
653.879	7600.01
654.071	7360.4
654.263	7286.67
654.456	7350.16
654.648	7358.35
654.84	7143.31
655.033	7253.91
655.225	7327.63
655.417	7114.64
655.61	7135.12
655.802	7030.68
655.994	7067.54
656.186	6950.81
656.379	7065.49
656.571	6827.93
656.763	6815.64
656.955	6879.13
657.148	6791.06
657.34	6805.4
657.532	6784.92
657.724	6655.9
657.916	6848.41
658.108	6635.42
658.3	6625.18
658.492	6610.84
658.684	6481.82
658.876	6586.27
659.068	6545.31
659.26	6440.86
659.452	6565.79
659.644	6399.9
659.836	6313.89
660.028	6539.16
660.22	6133.67
660.412	6211.49
660.604	6223.78
660.796	6207.39
660.988	6252.45
661.18	6231.97
661.372	6135.71
661.563	6133.67
661.755	6039.46
661.947	6086.56
662.139	6080.42
662.331	5910.44
662.522	5904.29
662.714	5828.52
662.906	5881.77
663.097	5963.68
663.289	5810.09
663.481	5898.15
663.673	5945.25
663.864	5779.37
664.056	5615.53
664.247	5668.78
664.439	5865.38
664.631	5822.38
664.822	5623.72
665.014	5652.39
665.205	5670.83
665.397	5496.75
665.588	5593
665.78	5574.57
665.971	5396.4
666.163	5484.46
666.354	5506.99
666.546	5404.59
666.737	5449.64
666.929	5425.07
667.12	5337.01
667.311	5300.14
667.503	5267.38
667.694	5416.88
667.885	5390.25
668.077	5306.29
668.268	5285.81
668.459	5187.5
668.651	5263.28
668.842	5349.29
669.033	5230.51
669.224	5314.48
669.416	5083.06
669.607	5054.39
669.798	5111.73
669.989	5138.35
670.18	5111.73
670.371	5011.38
670.563	4954.04
670.754	5173.17
670.945	5001.14
671.136	5089.2
671.327	4988.85
671.518	4997.04
671.709	4876.21
671.9	5025.72
672.091	5052.34
672.282	4947.89
672.473	4876.21
672.664	5025.72
672.855	5062.58
673.046	4849.59
673.237	4997.04
673.428	5038
673.619	4898.74
673.809	4919.22
674	4931.51
674.191	5109.68
674.382	4816.82
674.573	4829.11
674.764	4775.86
674.954	4847.54
675.145	4710.33
675.336	4745.14
675.527	4771.77
675.717	4622.27
675.908	4700.09
676.099	4800.44
676.289	4816.82
676.48	4739
676.671	4745.14
676.861	4759.48
677.052	4741.05
677.243	4689.85
677.433	4796.34
677.624	4677.56
677.814	4802.49
678.005	4849.59
678.195	4655.03
678.386	4749.24
678.576	4642.75
678.767	4728.76
678.957	4669.37
679.148	4624.31
679.338	4691.9
679.529	4786.1
679.719	4712.38
679.909	4734.9
680.1	4802.49
680.29	4730.81
680.481	4655.03
680.671	4751.29
680.861	4702.14
681.052	4751.29
681.242	4720.57
681.432	4566.97
681.622	4612.03
681.813	4771.77
682.003	4765.62
682.193	4638.65
682.383	4640.7
682.573	4743.1
682.764	4614.07
682.954	4771.77
683.144	4566.97
683.334	4659.13
683.524	4548.54
683.714	4595.64
683.904	4558.78
684.094	4716.47
684.284	4585.4
684.474	4687.8
684.664	4691.9
684.854	4472.76
685.044	4702.14
685.234	4589.5
685.424	4528.06
685.614	4571.07
685.804	4478.91
685.994	4440
686.184	4601.79
686.374	4591.55
686.564	4450.24
686.753	4399.04
686.943	4265.92
687.133	4294.59
687.323	4325.31
687.513	4437.95
687.702	4394.94
687.892	4237.25
688.082	4259.77
688.272	4343.74
688.461	4278.21
688.651	4175.81
688.841	4200.38
689.03	4186.05
689.22	4110.27
689.41	3999.68
689.599	4106.18
689.789	4120.51
689.979	4110.27
690.168	4036.55
690.358	4097.99
690.547	3968.96
690.737	4081.6
690.926	4059.07
691.116	4042.69
691.305	4069.31
691.495	3905.48
691.684	3844.04
691.874	3930.05
692.063	3911.62
692.252	3874.76
692.442	3905.48
692.631	3706.82
692.82	3727.3
693.01	3760.07
693.199	3889.09
693.388	3778.5
693.578	3741.64
693.767	3749.83
693.956	3667.91
694.146	3612.62
694.335	3620.81
694.524	3540.94
694.713	3651.53
694.902	3702.73
695.092	3727.3
695.281	3559.37
695.47	3510.22
695.659	3661.77
695.848	3403.72
696.037	3573.71
696.226	3536.84
696.415	3479.5
696.604	3555.27
696.793	3467.21
696.982	3567.56
697.171	3579.85
697.36	3542.99
697.549	3393.48
697.738	3438.54
697.927	3393.48
698.116	3510.22
698.305	3506.12
698.494	3356.62
698.683	3354.57
698.872	3463.12
699.061	3413.96
699.25	3434.44
699.438	3477.45
699.627	3356.62
699.816	3471.31
700.005	3456.97
700.193	3407.82
700.382	3481.55
700.571	3461.07
700.76	3407.82
700.948	3284.94
701.137	3399.63
701.326	3446.73
701.514	3491.79
701.703	3483.59
701.892	3268.56
702.08	3559.37
702.269	3334.09
702.457	3327.95
702.646	3252.17
702.834	3262.41
703.023	3358.67
703.212	3512.27
703.4	3456.97
703.589	3278.8
703.777	3389.39
703.965	3297.23
704.154	3452.88
704.342	3252.17
704.531	3452.88
704.719	3330
704.907	3475.4
705.096	3330
705.284	3391.44
705.472	3325.9
705.661	3471.31
705.849	3549.13
706.037	3250.13
706.226	3368.91
706.414	3366.86
706.602	3362.76
706.79	3565.51
706.979	3270.61
707.167	3518.41
707.355	3270.61
707.543	3461.07
707.731	3436.49
707.919	3422.16
708.107	3362.76
708.296	3497.93
708.484	3420.11
708.672	3516.36
708.86	3579.85
709.048	3391.44
709.236	3383.24
709.424	3366.86
709.612	3657.67
709.8	3327.95
709.988	3407.82
710.176	3536.84
710.364	3481.55
710.551	3301.33
710.739	3463.12
710.927	3508.17
711.115	3463.12
711.303	3448.78
711.491	3514.31
711.679	3485.64
711.866	3557.32
712.054	3516.36
712.242	3512.27
712.43	3510.22
712.617	3528.65
712.805	3702.73
712.993	3430.35
713.181	3495.88
713.368	3497.93
713.556	3493.83
713.744	3459.02
713.931	3608.52
714.119	3493.83
714.306	3567.56
714.494	3411.92
714.682	3592.14
714.869	3534.79
715.057	3629
715.244	3583.95
715.432	3559.37
715.619	3647.43
715.807	3471.31
715.994	3555.27
716.182	3495.88
716.369	3633.1
716.556	3598.28
716.744	3657.67
716.931	3518.41
717.119	3735.49
717.306	3688.39
717.493	3710.92
717.681	3561.42
717.868	3502.03
718.055	3592.14
718.242	3645.38
718.43	3770.31
718.617	3612.62
718.804	3643.34
718.991	3561.42
719.179	3637.19
719.366	3600.33
719.553	3710.92
719.74	3676.1
719.927	3590.09
720.114	3712.97
720.301	3715.02
720.488	3645.38
720.676	3682.25
720.863	3727.3
721.05	3784.65
721.237	3598.28
721.424	3712.97
721.611	3633.1
721.798	3764.17
721.985	3618.76
722.172	3735.49
722.358	3727.3
722.545	3862.47
722.732	3557.32
722.919	3663.82
723.106	3825.61
723.293	3686.34
723.48	3739.59
723.667	3715.02
723.853	3743.69
724.04	3846.09
724.227	3856.33
724.414	3792.84
724.6	3803.08
724.787	3778.5
724.974	3923.91
725.161	3702.73
725.347	3846.09
725.534	3805.13
725.72	3706.82
725.907	3727.3
726.094	3850.18
726.28	3751.88
726.467	3725.26
726.653	3762.12
726.84	3942.34
727.027	3852.23
727.213	3624.9
727.4	3950.53
727.586	3745.73
727.773	3975.11
727.959	3788.74
728.145	3788.74
728.332	3727.3
728.518	3899.33
728.705	3801.03
728.891	3758.02
729.077	3780.55
729.264	3817.41
729.45	3868.61
729.636	3844.04
729.823	3981.25
730.009	3915.72
730.195	3729.35
730.382	3874.76
730.568	3798.98
730.754	3944.39
730.94	3907.52
731.126	3882.95
731.313	3919.81
731.499	3801.03
731.685	3872.71
731.871	3870.66
732.057	3882.95
732.243	3858.37
732.429	3796.93
732.615	4097.99
732.801	3934.15
732.987	3786.69
733.173	3870.66
733.359	3813.32
733.545	3702.73
733.731	3801.03
733.917	3745.73
734.103	3962.82
734.289	3737.54
734.475	3905.48
734.661	3975.11
734.847	3823.56
735.033	3868.61
735.219	3921.86
735.404	3833.8
735.59	3944.39
735.776	3915.72
735.962	3903.43
736.148	3874.76
736.333	3872.71
736.519	3833.8
736.705	3878.85
736.89	3819.46
737.076	3946.44
737.262	3729.35
737.447	3760.07
737.633	3815.37
737.819	3817.41
738.004	3749.83
738.19	3839.94
738.375	3801.03
738.561	3835.85
738.747	3710.92
738.932	3727.3
739.118	3973.06
739.303	3946.44
739.489	3790.79
739.674	3712.97
739.859	3712.97
740.045	3692.49
740.23	3729.35
740.416	3643.34
740.601	3770.31
740.786	3594.19
740.972	3588.04
741.157	3629
741.342	3596.23
741.528	3620.81
741.713	3653.58
741.898	3622.86
742.084	3639.24
742.269	3549.13
742.454	3719.11
742.639	3536.84
742.824	3694.54
743.01	3538.89
743.195	3653.58
743.38	3477.45
743.565	3526.6
743.75	3549.13
743.935	3549.13
744.12	3409.87
744.305	3555.27
744.49	3504.07
744.675	3436.49
744.86	3530.7
745.045	3475.4
745.23	3375.05
745.415	3399.63
745.6	3360.72
745.785	3346.38
745.97	3346.38
746.155	3401.68
746.34	3368.91
746.525	3385.29
746.71	3395.53
746.895	3227.6
747.079	3258.32
747.264	3069.91
747.449	3266.51
747.634	3135.44
747.819	3102.67
748.003	3045.33
748.188	3233.74
748.373	3067.86
748.557	3295.18
748.742	3000.27
748.927	3117.01
749.111	2994.13
749.296	3041.23
749.481	3088.34
749.665	2920.4
749.85	2969.55
750.034	3057.62
750.219	2846.68
750.404	2779.09
750.588	2877.4
750.773	2717.65
750.957	2844.63
751.141	2731.99
751.326	2867.16
751.51	2867.16
751.695	2740.18
751.879	2746.33
752.064	2744.28
752.248	2846.68
752.432	2678.74
752.617	2734.04
752.801	2662.36
752.985	2670.55
753.17	2695.13
753.354	2588.63
753.538	2500.57
753.722	2648.02
753.907	2430.94
754.091	2430.94
754.275	2512.86
754.459	2463.71
754.643	2416.6
754.828	2508.76
755.012	2432.99
755.196	2416.6
755.38	2287.58
755.564	2484.19
755.748	2453.47
755.932	2291.68
756.116	2342.88
756.3	2340.83
756.484	2310.11
756.668	2340.83
756.852	2230.24
757.036	2189.28
757.22	2211.81
757.404	2322.4
757.588	2189.28
757.772	2170.85
757.956	2295.77
758.14	2220
758.323	2121.7
758.507	2209.76
758.691	2168.8
758.875	2101.22
759.059	2138.08
759.242	2058.21
759.426	2072.54
759.61	2168.8
759.794	2033.63
759.977	2074.59
760.161	2031.58
760.345	1992.67
760.528	2031.58
760.712	2056.16
760.895	1990.63
761.079	1978.34
761.263	1931.23
761.446	1859.56
761.63	1906.66
761.813	1998.82
761.997	1882.08
762.18	1939.43
762.364	1812.45
762.547	1794.02
762.731	1789.92
762.914	1779.68
763.098	1908.71
763.281	1814.5
763.464	1796.07
763.648	1701.86
763.831	1798.12
764.015	1785.83
764.198	1845.22
764.381	1863.65
764.564	1761.25
764.748	1654.76
764.931	1777.64
765.114	1740.77
765.297	1785.83
765.481	1677.29
765.664	1710.05
765.847	1523.69
766.03	1730.53
766.213	1654.76
766.397	1720.29
766.58	1728.49
766.763	1746.92
766.946	1699.81
767.129	1675.24
767.312	1652.71
767.495	1597.42
767.678	1454.06
767.861	1638.37
768.044	1593.32
768.227	1613.8
768.41	1669.09
768.593	1632.23
768.776	1574.89
768.959	1554.41
769.142	1472.49
769.324	1523.69
769.507	1531.88
769.69	1480.68
769.873	1544.17
770.056	1615.85
770.239	1474.54
770.421	1521.64
770.604	1554.41
770.787	1462.25
770.97	1388.52
771.152	1409
771.335	1445.87
771.518	1495.02
771.7	1409
771.883	1386.47
772.066	1431.53
772.248	1374.19
772.431	1519.59
772.613	1327.08
772.796	1363.95
772.978	1392.62
773.161	1363.95
773.343	1327.08
773.526	1306.6
773.708	1265.64
773.891	1341.42
774.073	1359.85
774.256	1302.51
774.438	1429.48
774.621	1187.82
774.803	1318.89
774.985	1236.97
775.168	1236.97
775.35	1286.12
775.532	1294.32
775.715	1245.16
775.897	1261.55
776.079	1232.88
776.261	1249.26
776.444	1130.48
776.626	1267.69
776.808	1234.93
776.99	1230.83
777.173	1077.23
777.355	1101.81
777.537	1196.01
777.719	1091.57
777.901	1155.05
778.083	1054.7
778.265	1001.46
778.447	1157.1
778.629	1105.9
778.811	1026.03
778.993	1110
779.175	1144.81
779.357	917.49
779.539	913.39
779.721	1019.89
779.903	1017.84
780.085	978.93
780.267	1005.55
780.449	1034.22
780.631	1114.1
780.812	1015.79
780.994	960.5
781.176	927.73
781.358	917.49
781.54	901.11
781.721	993.26
781.903	952.31
782.085	792.56
782.267	917.49
782.448	829.43
782.63	841.72
782.812	751.6
782.993	749.56
783.175	854
783.357	862.19
783.538	841.72
783.72	819.19
783.901	806.9
784.083	905.2
784.264	845.81
784.446	716.79
784.627	905.2
784.809	778.23
784.99	643.06
785.172	763.89
785.353	823.28
785.535	770.04
785.716	614.39
785.897	727.03
786.079	755.7
786.26	708.6
786.441	722.93
786.623	706.55
786.804	698.36
786.985	796.66
787.167	745.46
787.348	616.44
787.529	718.84
787.71	731.12
787.891	796.66
788.073	614.39
788.254	653.3
788.435	784.37
788.616	679.93
788.797	643.06
788.978	634.87
789.159	628.73
789.34	657.4
789.522	581.62
789.703	624.63
789.884	667.64
790.065	659.45
790.246	630.77
790.427	638.97
790.607	665.59
790.788	589.81
790.969	593.91
791.15	606.2
791.331	571.38
791.512	559.1
791.693	536.57
791.874	550.9
792.054	563.19
792.235	593.91
792.416	518.14
792.597	514.04
792.778	604.15
792.958	520.18
793.139	509.94
793.32	610.29
793.5	477.18
793.681	593.91
793.862	550.9
794.042	491.51
794.223	446.46
794.404	454.65
794.584	522.23
794.765	526.33
794.945	495.61
795.126	471.03
795.306	524.28
795.487	483.32
795.667	397.31
795.848	458.75
796.028	471.03
796.209	552.95
796.389	579.58
796.57	446.46
796.75	487.42
796.93	536.57
797.111	450.55
797.291	456.7
797.471	511.99
797.652	491.51
797.832	417.79
798.012	456.7
798.192	294.91
798.373	493.56
798.553	368.63
798.733	399.35
798.913	440.31
799.093	387.07
799.274	436.22
799.454	509.94
799.634	518.14
799.814	415.74
799.994	481.27
800.174	520.18
800.354	413.69
800.534	401.4
800.714	446.46
800.894	382.97
801.074	313.34
801.254	395.26
801.434	407.55
801.614	352.25
801.794	366.59
801.974	1345.52
802.154	337.91
802.334	387.07
802.514	321.53
802.693	432.12
802.873	319.48
803.053	348.15
803.233	356.35
803.413	362.49
803.592	337.91
803.772	399.35
803.952	374.78
804.131	319.48
804.311	374.78
804.491	354.3
804.67	299
804.85	319.48
805.03	342.01
805.209	434.17
805.389	288.76
805.568	266.24
805.748	331.77
805.928	397.31
806.107	325.63
806.287	382.97
806.466	395.26
806.646	370.68
806.825	344.06
807.004	319.48
807.184	294.91
807.363	415.74
807.543	305.15
807.722	231.42
807.901	305.15
808.081	305.15
808.26	237.56
808.439	270.33
808.619	276.48
808.798	354.3
808.977	288.76
809.156	407.55
809.336	301.05
809.515	352.25
809.694	288.76
809.873	272.38
810.052	294.91
810.231	311.29
810.411	196.61
810.59	339.96
810.769	243.71
810.948	282.62
811.127	374.78
811.306	237.56
811.485	155.65
811.664	323.58
811.843	319.48
812.022	305.15
812.201	276.48
812.38	268.28
812.559	198.65
812.737	253.95
812.916	145.41
813.095	208.89
813.274	311.29
813.453	272.38
813.632	315.39
813.811	182.27
813.989	204.8
814.168	245.76
814.347	239.61
814.526	229.37
814.704	237.56
814.883	282.62
815.062	249.85
815.24	303.1
815.419	219.13
815.598	286.72
815.776	253.95
815.955	102.4
816.133	169.98
816.312	256
816.49	231.42
816.669	282.62
816.847	210.94
817.026	292.86
817.204	262.14
817.383	247.8
817.561	249.85
817.74	180.22
817.918	223.23
818.097	163.84
818.275	227.32
818.453	219.13
818.632	208.89
818.81	229.37
818.988	186.37
819.167	112.64
819.345	131.07
819.523	157.69
819.701	204.8
819.879	243.71
820.058	296.96
820.236	303.1
820.414	126.97
820.592	241.66
820.77	276.48
820.948	184.32
821.127	180.22
821.305	219.13
821.483	212.99
821.661	172.03
821.839	172.03
822.017	253.95
822.195	155.65
822.373	288.76
822.551	153.6
822.729	286.72
822.907	147.45
823.085	231.42
823.262	180.22
823.44	196.61
823.618	108.54
823.796	104.45
823.974	229.37
824.152	131.07
824.329	192.51
824.507	196.61
824.685	114.69
824.863	192.51
825.04	141.31
825.218	110.59
825.396	67.58
825.574	163.84
825.751	167.93
825.929	231.42
826.107	106.49
826.284	196.61
826.462	182.27
826.639	114.69
826.817	141.31
826.994	151.55
827.172	133.12
827.349	186.37
827.527	145.41
827.704	190.46
827.882	151.55
828.059	114.69
828.237	178.17
828.414	237.56
828.591	69.63
828.769	245.76
828.946	163.84
829.124	196.61
829.301	290.81
829.478	131.07
829.655	176.13
829.833	61.44
830.01	104.45
830.187	206.84
830.364	133.12
830.542	139.26
830.719	182.27
830.896	100.35
831.073	155.65
831.25	147.45
831.427	137.21
831.604	161.79
831.782	122.88
831.959	176.13
832.136	151.55
832.313	178.17
832.49	114.69
832.667	141.31
832.844	204.8
833.021	112.64
833.198	98.3
833.374	147.45
833.551	141.31
833.728	122.88
833.905	174.08
834.082	34.82
834.259	167.93
834.436	122.88
834.612	32.77
834.789	92.16
834.966	104.45
835.143	106.49
835.319	129.02
835.496	100.35
835.673	163.84
835.85	135.17
836.026	102.4
836.203	249.85
836.38	43.01
836.556	34.82
836.733	26.62
836.909	108.54
837.086	108.54
837.262	49.15
837.439	147.45
837.616	71.68
837.792	4.1
837.968	114.69
838.145	59.39
838.321	141.31
838.498	149.5
838.674	147.45
838.851	122.88
839.027	98.3
839.203	114.69
839.38	116.73
839.556	71.68
839.732	122.88
839.909	81.92
840.085	131.07
840.261	81.92
840.437	141.31
840.614	133.12
840.79	131.07
840.966	202.75
841.142	92.16
841.318	57.34
841.494	108.54
841.671	122.88
841.847	28.67
842.023	43.01
842.199	47.1
842.375	139.26
842.551	18.43
842.727	28.67
842.903	190.46
843.079	32.77
843.255	184.32
843.431	14.34
843.607	131.07
843.783	6.14
843.959	47.1
844.134	-24.58
844.31	141.31
844.486	110.59
844.662	32.77
844.838	106.49
845.013	59.39
845.189	49.15
845.365	114.69
845.541	67.58
845.716	40.96
845.892	118.78
846.068	120.83
846.244	43.01
846.419	137.21
846.595	71.68
846.77	55.3
846.946	141.31
847.122	24.58
847.297	24.58
847.473	157.69
847.648	49.15
847.824	59.39
847.999	-43.01
848.175	38.91
848.35	65.53
848.526	88.06
848.701	137.21
848.876	61.44
849.052	120.83
849.227	79.87
849.403	16.38
849.578	55.3
849.753	-24.58
849.929	81.92
850.104	49.15
850.279	94.21
850.454	18.43
850.63	69.63
850.805	49.15
850.98	92.16
851.155	24.58
851.33	86.01
851.505	22.53
851.681	118.78
851.856	92.16
852.031	114.69
852.206	51.2
852.381	2.05
852.556	36.86
852.731	131.07
852.906	81.92
853.081	124.93
853.256	167.93
853.431	126.97
853.606	26.62
853.781	-2.05
853.956	-55.3
854.131	71.68
854.305	28.67
854.48	-40.96
854.655	34.82
854.83	57.34
855.005	8.19
855.18	83.97
855.354	108.54
855.529	75.77
855.704	24.58
855.879	53.25
856.053	-6.14
856.228	32.77
856.403	22.53
856.577	118.78
856.752	34.82
856.926	96.25
857.101	57.34
857.276	-16.38
857.45	88.06
857.625	124.93
857.799	4.1
857.974	43.01
858.148	-6.14
858.323	126.97
858.497	43.01
858.672	-24.58
858.846	4.1
859.02	86.01
859.195	26.62
859.369	0
859.543	4.1
859.718	61.44
859.892	114.69
860.066	67.58
860.241	-8.19
860.415	10.24
860.589	8.19
860.763	61.44
860.938	65.53
861.112	57.34
861.286	8.19
861.46	26.62
861.634	-30.72
861.808	71.68
861.982	49.15
862.157	-2.05
862.331	-53.25
862.505	-12.29
862.679	26.62
862.853	26.62
863.027	12.29
863.201	129.02
863.375	-59.39
863.549	-6.14
863.722	16.38
863.896	151.55
864.07	-16.38
864.244	34.82
864.418	98.3
864.592	90.11
864.766	59.39
864.939	6.14
865.113	0
865.287	88.06
865.461	12.29
865.634	61.44
865.808	18.43
865.982	0
866.156	32.77
866.329	-28.67
866.503	16.38
866.676	16.38
866.85	22.53
867.024	55.3
867.197	92.16
867.371	69.63
867.544	69.63
867.718	6.14
867.891	86.01
868.065	-49.15
868.238	53.25
868.412	0
868.585	73.73
868.759	14.34
868.932	-8.19
869.105	47.1
869.279	36.86
869.452	20.48
869.625	75.77
869.799	73.73
869.972	-65.54
870.145	49.15
870.319	40.96
870.492	92.16
870.665	34.82
870.838	55.3
871.011	-98.3
871.185	18.43
871.358	18.43
871.531	49.15
871.704	69.63
871.877	69.63
872.05	30.72
872.223	-14.34
872.396	-49.15
872.569	59.39
872.742	-14.34
872.915	12.29
873.088	-14.34
873.261	16.38
873.434	45.06
873.607	40.96
873.78	77.82
873.953	69.63
874.126	-34.82
874.299	10.24
874.471	-69.63
874.644	26.62
874.817	112.64
874.99	90.11
875.163	-26.62
875.335	67.58
875.508	-38.91
875.681	88.06
875.853	61.44
876.026	20.48
876.199	40.96
876.371	32.77
876.544	-18.43
876.717	73.73
876.889	-8.19
877.062	34.82
877.234	57.34
877.407	-38.91
877.579	94.21
877.752	24.58
877.924	24.58
878.097	18.43
878.269	63.49
878.442	30.72
878.614	67.58
878.786	100.35
878.959	65.53
879.131	0
879.303	-20.48
879.476	-30.72
879.648	49.15
879.82	38.91
879.993	24.58
880.165	32.77
880.337	-57.34
880.509	63.49
880.681	-92.16
880.854	-28.67
881.026	51.2
881.198	57.34
881.37	20.48
881.542	2.05
881.714	16.38
881.886	32.77
882.058	38.91
882.23	49.15
882.402	-4.1
882.574	36.86
882.746	-34.82
882.918	65.53
883.09	71.68
883.262	2.05
883.434	20.48
883.606	-55.3
883.778	-55.3
883.95	18.43
884.122	2.05
884.293	98.3
884.465	-12.29
884.637	49.15
884.809	14.34
884.98	24.58
885.152	-8.19
885.324	75.77
885.496	2.05
885.667	90.11
885.839	-24.58
886.011	143.36
886.182	26.62
886.354	96.25
886.525	4.1
886.697	-14.34
886.869	-30.72
887.04	24.58
887.212	106.49
887.383	110.59
887.555	6.14
887.726	-2.05
887.897	-14.34
888.069	116.73
888.24	73.73
888.412	-10.24
888.583	36.86
888.754	24.58
888.926	24.58
889.097	16.38
889.268	-36.86
889.44	20.48
889.611	6.14
889.782	-16.38
889.953	16.38
890.125	53.25
890.296	-45.06
890.467	10.24
890.638	18.43
890.809	12.29
890.98	-16.38
891.151	-55.3
891.323	10.24
891.494	22.53
891.665	14.34
891.836	-32.77
892.007	22.53
892.178	12.29
892.349	63.49
892.52	-22.53
892.691	24.58
892.862	57.34
893.032	-112.64
893.203	20.48
893.374	-8.19
893.545	53.25
893.716	0
893.887	90.11
894.057	0
894.228	102.4
894.399	32.77
894.57	88.06
894.74	63.49
894.911	38.91
895.082	-32.77
895.253	-49.15
895.423	43.01
895.594	77.82
895.764	12.29
895.935	-45.06
896.106	71.68
896.276	10.24
896.447	32.77
896.617	16.38
896.788	-47.1
896.958	-40.96
897.129	-45.06
897.299	-6.14
897.47	65.53
897.64	79.87
897.81	8.19
897.981	-32.77
898.151	-124.93
898.322	81.92
898.492	26.62
898.662	-10.24
898.832	-67.58
899.003	-14.34
899.173	-20.48
899.343	-2.05
899.513	-6.14
