Data from USB4F104151__6__13-04-11-213.txt Node

Date: Fri Mar 14 13:04:11 EDT 2025
User: louis
Spectrometer: USB4F10415
Trigger mode: 4
Integration Time (sec): 4.000000E-2
Scans to average: 1
Electric dark correction enabled: true
Nonlinearity correction enabled: false
Boxcar width: 0
XAxis mode: Wavelengths
Number of Pixels in Spectrum: 3648
>>>>>Begin Spectral Data<<<<<
178.204	-180.56
178.424	-180.56
178.644	-180.56
178.864	-155.99
179.084	-164.18
179.304	-4.44
179.524	40.62
179.744	-33.11
179.964	24.23
180.184	-37.2
180.404	11.95
180.624	44.71
180.844	40.62
181.064	-88.4
181.283	24.23
181.503	-39.25
181.723	16.04
181.943	-4.44
182.163	163.5
182.383	5.8
182.602	40.62
182.822	63.15
183.042	69.29
183.262	-10.58
183.482	38.57
183.701	20.14
183.921	40.62
184.141	-8.53
184.361	122.54
184.58	11.95
184.8	13.99
185.02	40.62
185.239	16.04
185.459	57
185.679	116.39
185.898	3.75
186.118	54.95
186.338	81.58
186.557	24.23
186.777	26.28
186.997	-35.16
187.216	-6.49
187.436	110.25
187.655	61.1
187.875	46.76
188.095	9.9
188.314	116.39
188.534	143.02
188.753	7.85
188.973	22.19
189.192	81.58
189.412	100.01
189.631	87.72
189.851	57
190.07	50.86
190.29	20.14
190.509	20.14
190.729	16.04
190.948	77.48
191.168	220.84
191.387	73.39
191.607	24.23
191.826	89.77
192.045	61.1
192.265	52.91
192.484	48.81
192.704	-33.11
192.923	22.19
193.142	155.3
193.362	132.78
193.581	48.81
193.8	95.91
194.02	116.39
194.239	110.25
194.458	-18.77
194.678	20.14
194.897	73.39
195.116	-16.73
195.335	28.33
195.555	108.2
195.774	52.91
195.993	50.86
196.212	83.63
196.432	-39.25
196.651	81.58
196.87	-4.44
197.089	190.12
197.308	57
197.528	40.62
197.747	-8.53
197.966	32.43
198.185	81.58
198.404	97.96
198.623	93.87
198.842	110.25
199.062	61.1
199.281	130.73
199.5	20.14
199.719	18.09
199.938	87.72
200.157	42.67
200.376	42.67
200.595	155.3
200.814	73.39
201.033	65.19
201.252	157.35
201.471	120.49
201.69	132.78
201.909	91.82
202.128	34.47
202.347	59.05
202.566	50.86
202.785	40.62
203.004	42.67
203.223	132.78
203.442	63.15
203.661	-8.53
203.879	108.2
204.098	48.81
204.317	69.29
204.536	128.68
204.755	34.47
204.974	73.39
205.193	44.71
205.411	128.68
205.63	50.86
205.849	85.67
206.068	54.95
206.287	44.71
206.505	79.53
206.724	42.67
206.943	-0.34
207.162	46.76
207.381	57
207.599	46.76
207.818	-33.11
208.037	48.81
208.255	48.81
208.474	69.29
208.693	95.91
208.911	59.05
209.13	95.91
209.349	40.62
209.567	95.91
209.786	97.96
210.005	69.29
210.223	36.52
210.442	42.67
210.661	61.1
210.879	44.71
211.098	26.28
211.316	65.19
211.535	75.43
211.753	28.33
211.972	38.57
212.191	44.71
212.409	-55.64
212.628	108.2
212.846	-69.97
213.065	85.67
213.283	147.11
213.502	3.75
213.72	77.48
213.938	44.71
214.157	42.67
214.375	93.87
214.594	18.09
214.812	42.67
215.031	38.57
215.249	44.71
215.467	89.77
215.686	77.48
215.904	57
216.122	71.34
216.341	44.71
216.559	87.72
216.778	71.34
216.996	102.06
217.214	-39.25
217.432	36.52
217.651	-20.82
217.869	65.19
218.087	-39.25
218.306	-12.63
218.524	95.91
218.742	5.8
218.96	69.29
219.179	63.15
219.397	63.15
219.615	100.01
219.833	81.58
220.051	114.34
220.27	102.06
220.488	54.95
220.706	69.29
220.924	63.15
221.142	-6.49
221.36	22.19
221.578	85.67
221.796	63.15
222.015	46.76
222.233	112.3
222.451	130.73
222.669	9.9
222.887	36.52
223.105	20.14
223.323	65.19
223.541	34.47
223.759	73.39
223.977	71.34
224.195	9.9
224.413	81.58
224.631	89.77
224.849	97.96
225.067	65.19
225.285	-31.06
225.503	81.58
225.721	-33.11
225.939	108.2
226.157	59.05
226.375	85.67
226.592	91.82
226.81	-10.58
227.028	89.77
227.246	122.54
227.464	97.96
227.682	63.15
227.9	134.82
228.117	75.43
228.335	102.06
228.553	69.29
228.771	34.47
228.989	112.3
229.206	36.52
229.424	11.95
229.642	42.67
229.86	57
230.077	63.15
230.295	22.19
230.513	120.49
230.731	59.05
230.948	122.54
231.166	83.63
231.384	32.43
231.601	40.62
231.819	106.15
232.037	16.04
232.254	5.8
232.472	13.99
232.689	26.28
232.907	89.77
233.125	104.11
233.342	59.05
233.56	61.1
233.777	3.75
233.995	24.23
234.213	97.96
234.43	100.01
234.648	114.34
234.865	26.28
235.083	108.2
235.3	59.05
235.518	81.58
235.735	75.43
235.953	106.15
236.17	-47.44
236.388	24.23
236.605	59.05
236.822	69.29
237.04	54.95
237.257	108.2
237.475	-45.4
237.692	-4.44
237.909	34.47
238.127	91.82
238.344	71.34
238.562	71.34
238.779	40.62
238.996	91.82
239.214	132.78
239.431	61.1
239.648	3.75
239.865	106.15
240.083	118.44
240.3	57
240.517	20.14
240.735	116.39
240.952	13.99
241.169	77.48
241.386	114.34
241.603	71.34
241.821	-8.53
242.038	22.19
242.255	73.39
242.472	-45.4
242.689	124.58
242.907	93.87
243.124	5.8
243.341	1.71
243.558	63.15
243.775	-18.77
243.992	-43.35
244.209	73.39
244.426	149.16
244.643	16.04
244.86	-0.34
245.078	3.75
245.295	100.01
245.512	1.71
245.729	36.52
245.946	85.67
246.163	69.29
246.38	42.67
246.597	11.95
246.814	57
247.031	42.67
247.248	97.96
247.464	46.76
247.681	20.14
247.898	32.43
248.115	57
248.332	1.71
248.549	57
248.766	22.19
248.983	67.24
249.2	161.45
249.417	69.29
249.633	3.75
249.85	83.63
250.067	40.62
250.284	48.81
250.501	69.29
250.717	114.34
250.934	-10.58
251.151	59.05
251.368	73.39
251.585	93.87
251.801	120.49
252.018	32.43
252.235	91.82
252.451	-16.73
252.668	61.1
252.885	32.43
253.102	-2.39
253.318	48.81
253.535	71.34
253.752	67.24
253.968	-20.82
254.185	-6.49
254.401	40.62
254.618	106.15
254.835	24.23
255.051	108.2
255.268	28.33
255.484	89.77
255.701	77.48
255.917	42.67
256.134	91.82
256.351	67.24
256.567	-18.77
256.784	71.34
257	-14.68
257.217	24.23
257.433	59.05
257.65	57
257.866	69.29
258.082	11.95
258.299	24.23
258.515	75.43
258.732	57
258.948	32.43
259.165	95.91
259.381	50.86
259.597	38.57
259.814	36.52
260.03	28.33
260.246	-14.68
260.463	71.34
260.679	91.82
260.895	102.06
261.112	9.9
261.328	52.91
261.544	40.62
261.761	138.92
261.977	83.63
262.193	50.86
262.409	108.2
262.626	69.29
262.842	91.82
263.058	40.62
263.274	73.39
263.49	69.29
263.707	116.39
263.923	89.77
264.139	-65.88
264.355	75.43
264.571	143.02
264.787	50.86
265.004	34.47
265.22	22.19
265.436	67.24
265.652	7.85
265.868	110.25
266.084	36.52
266.3	-12.63
266.516	-37.2
266.732	106.15
266.948	75.43
267.164	75.43
267.38	5.8
267.596	106.15
267.812	87.72
268.028	34.47
268.244	13.99
268.46	71.34
268.676	32.43
268.892	48.81
269.108	42.67
269.324	46.76
269.54	-29.01
269.756	36.52
269.972	38.57
270.188	138.92
270.403	54.95
270.619	24.23
270.835	38.57
271.051	26.28
271.267	52.91
271.483	-69.97
271.698	77.48
271.914	108.2
272.13	48.81
272.346	5.8
272.562	34.47
272.777	124.58
272.993	34.47
273.209	50.86
273.425	87.72
273.64	3.75
273.856	61.1
274.072	50.86
274.287	32.43
274.503	81.58
274.719	57
274.934	16.04
275.15	24.23
275.366	26.28
275.581	9.9
275.797	69.29
276.012	34.47
276.228	67.24
276.444	28.33
276.659	87.72
276.875	-8.53
277.09	108.2
277.306	91.82
277.521	52.91
277.737	104.11
277.952	118.44
278.168	102.06
278.383	65.19
278.599	75.43
278.814	22.19
279.03	61.1
279.245	67.24
279.461	57
279.676	87.72
279.892	81.58
280.107	36.52
280.322	38.57
280.538	61.1
280.753	3.75
280.969	149.16
281.184	48.81
281.399	100.01
281.615	73.39
281.83	46.76
282.045	13.99
282.26	153.26
282.476	73.39
282.691	73.39
282.906	97.96
283.122	77.48
283.337	7.85
283.552	42.67
283.767	16.04
283.983	57
284.198	34.47
284.413	59.05
284.628	44.71
284.843	63.15
285.058	75.43
285.274	5.8
285.489	73.39
285.704	93.87
285.919	-16.73
286.134	18.09
286.349	67.24
286.564	40.62
286.779	44.71
286.995	-12.63
287.21	-33.11
287.425	91.82
287.64	73.39
287.855	85.67
288.07	3.75
288.285	57
288.5	28.33
288.715	91.82
288.93	28.33
289.145	-33.11
289.36	106.15
289.575	-14.68
289.79	22.19
290.004	59.05
290.219	106.15
290.434	65.19
290.649	1.71
290.864	36.52
291.079	106.15
291.294	7.85
291.509	118.44
291.724	-8.53
291.938	50.86
292.153	83.63
292.368	-16.73
292.583	52.91
292.798	102.06
293.012	97.96
293.227	73.39
293.442	1.71
293.657	34.47
293.871	73.39
294.086	48.81
294.301	161.45
294.516	59.05
294.73	18.09
294.945	20.14
295.16	136.87
295.374	89.77
295.589	114.34
295.804	42.67
296.018	46.76
296.233	159.4
296.447	77.48
296.662	22.19
296.877	97.96
297.091	114.34
297.306	5.8
297.52	67.24
297.735	24.23
297.949	32.43
298.164	77.48
298.378	130.73
298.593	34.47
298.807	46.76
299.022	7.85
299.236	87.72
299.451	67.24
299.665	46.76
299.88	40.62
300.094	81.58
300.309	65.19
300.523	26.28
300.737	116.39
300.952	-16.73
301.166	89.77
301.381	13.99
301.595	9.9
301.809	40.62
302.024	61.1
302.238	54.95
302.452	126.63
302.667	32.43
302.881	167.59
303.095	91.82
303.309	61.1
303.524	42.67
303.738	54.95
303.952	-18.77
304.166	50.86
304.381	-63.83
304.595	124.58
304.809	26.28
305.023	73.39
305.237	-2.39
305.452	57
305.666	59.05
305.88	132.78
306.094	46.76
306.308	48.81
306.522	59.05
306.736	7.85
306.95	97.96
307.164	32.43
307.379	59.05
307.593	69.29
307.807	118.44
308.021	-8.53
308.235	16.04
308.449	44.71
308.663	-12.63
308.877	149.16
309.091	46.76
309.305	104.11
309.519	-31.06
309.733	132.78
309.947	61.1
310.161	16.04
310.374	100.01
310.588	143.02
310.802	-12.63
311.016	40.62
311.23	100.01
311.444	36.52
311.658	65.19
311.872	38.57
312.085	38.57
312.299	136.87
312.513	145.06
312.727	95.91
312.941	-90.45
313.154	126.63
313.368	75.43
313.582	100.01
313.796	132.78
314.009	44.71
314.223	130.73
314.437	-24.92
314.651	97.96
314.864	16.04
315.078	61.1
315.292	102.06
315.505	9.9
315.719	20.14
315.933	97.96
316.146	50.86
316.36	40.62
316.573	130.73
316.787	44.71
317.001	57
317.214	44.71
317.428	75.43
317.641	22.19
317.855	122.54
318.068	46.76
318.282	118.44
318.495	104.11
318.709	100.01
318.922	18.09
319.136	52.91
319.349	93.87
319.563	-10.58
319.776	-6.49
319.99	-18.77
320.203	120.49
320.417	93.87
320.63	134.82
320.843	134.82
321.057	42.67
321.27	143.02
321.483	100.01
321.697	163.5
321.91	61.1
322.124	89.77
322.337	81.58
322.55	-6.49
322.763	7.85
322.977	57
323.19	-6.49
323.403	75.43
323.617	163.5
323.83	67.24
324.043	44.71
324.256	81.58
324.469	-18.77
324.683	28.33
324.896	3.75
325.109	34.47
325.322	-39.25
325.535	59.05
325.748	20.14
325.962	24.23
326.175	3.75
326.388	65.19
326.601	167.59
326.814	36.52
327.027	54.95
327.24	126.63
327.453	-18.77
327.666	30.38
327.879	79.53
328.092	44.71
328.305	52.91
328.518	67.24
328.731	65.19
328.944	-16.73
329.157	102.06
329.37	36.52
329.583	114.34
329.796	106.15
330.009	67.24
330.222	67.24
330.435	63.15
330.648	24.23
330.861	24.23
331.073	50.86
331.286	67.24
331.499	24.23
331.712	-39.25
331.925	24.23
332.138	44.71
332.35	83.63
332.563	34.47
332.776	95.91
332.989	67.24
333.202	16.04
333.414	57
333.627	-14.68
333.84	50.86
334.053	7.85
334.265	48.81
334.478	16.04
334.691	11.95
334.903	1.71
335.116	83.63
335.329	50.86
335.541	59.05
335.754	108.2
335.966	13.99
336.179	9.9
336.392	75.43
336.604	77.48
336.817	22.19
337.029	67.24
337.242	116.39
337.454	89.77
337.667	97.96
337.88	140.97
338.092	175.78
338.305	106.15
338.517	-4.44
338.729	24.23
338.942	108.2
339.154	46.76
339.367	11.95
339.579	48.81
339.792	61.1
340.004	57
340.217	40.62
340.429	116.39
340.641	69.29
340.854	77.48
341.066	61.1
341.278	71.34
341.491	114.34
341.703	7.85
341.915	16.04
342.128	136.87
342.34	20.14
342.552	44.71
342.764	40.62
342.977	112.3
343.189	18.09
343.401	65.19
343.613	-20.82
343.826	11.95
344.038	-4.44
344.25	120.49
344.462	79.53
344.674	40.62
344.886	7.85
345.099	83.63
345.311	69.29
345.523	16.04
345.735	85.67
345.947	-2.39
346.159	132.78
346.371	22.19
346.583	40.62
346.795	132.78
347.007	85.67
347.219	85.67
347.431	65.19
347.643	102.06
347.855	-0.34
348.067	79.53
348.279	52.91
348.491	89.77
348.703	69.29
348.915	7.85
349.127	61.1
349.339	36.52
349.551	20.14
349.763	89.77
349.975	40.62
350.187	46.76
350.399	155.3
350.61	30.38
350.822	114.34
351.034	91.82
351.246	26.28
351.458	73.39
351.669	44.71
351.881	95.91
352.093	71.34
352.305	83.63
352.517	57
352.728	151.21
352.94	75.43
353.152	81.58
353.363	77.48
353.575	34.47
353.787	95.91
353.999	-31.06
354.21	130.73
354.422	112.3
354.633	91.82
354.845	134.82
355.057	30.38
355.268	97.96
355.48	83.63
355.692	-4.44
355.903	89.77
356.115	93.87
356.326	20.14
356.538	83.63
356.749	132.78
356.961	87.72
357.172	87.72
357.384	3.75
357.595	149.16
357.807	106.15
358.018	-20.82
358.23	71.34
358.441	159.4
358.653	114.34
358.864	79.53
359.075	69.29
359.287	81.58
359.498	114.34
359.709	54.95
359.921	93.87
360.132	73.39
360.344	93.87
360.555	9.9
360.766	-0.34
360.977	-24.92
361.189	118.44
361.4	57
361.611	104.11
361.823	106.15
362.034	40.62
362.245	-0.34
362.456	114.34
362.667	57
362.879	110.25
363.09	46.76
363.301	71.34
363.512	-10.58
363.723	34.47
363.935	87.72
364.146	97.96
364.357	71.34
364.568	26.28
364.779	16.04
364.99	140.97
365.201	65.19
365.412	104.11
365.623	36.52
365.834	91.82
366.045	50.86
366.256	124.58
366.467	81.58
366.678	77.48
366.889	77.48
367.1	65.19
367.311	104.11
367.522	93.87
367.733	95.91
367.944	83.63
368.155	28.33
368.366	106.15
368.577	-4.44
368.788	79.53
368.999	110.25
369.209	106.15
369.42	120.49
369.631	171.69
369.842	75.43
370.053	116.39
370.264	126.63
370.474	11.95
370.685	38.57
370.896	28.33
371.107	71.34
371.317	38.57
371.528	-6.49
371.739	124.58
371.95	32.43
372.16	75.43
372.371	13.99
372.582	145.06
372.792	-8.53
373.003	114.34
373.214	79.53
373.424	163.5
373.635	65.19
373.846	65.19
374.056	34.47
374.267	112.3
374.477	112.3
374.688	65.19
374.898	134.82
375.109	102.06
375.319	-4.44
375.53	42.67
375.74	145.06
375.951	22.19
376.161	65.19
376.372	77.48
376.582	42.67
376.793	134.82
377.003	26.28
377.214	57
377.424	118.44
377.635	85.67
377.845	83.63
378.055	124.58
378.266	38.57
378.476	24.23
378.686	140.97
378.897	-22.87
379.107	136.87
379.317	85.67
379.528	36.52
379.738	73.39
379.948	79.53
380.158	52.91
380.369	97.96
380.579	87.72
380.789	28.33
380.999	100.01
381.21	34.47
381.42	134.82
381.63	24.23
381.84	54.95
382.05	71.34
382.261	124.58
382.471	157.35
382.681	81.58
382.891	143.02
383.101	44.71
383.311	79.53
383.521	44.71
383.731	114.34
383.941	167.59
384.151	26.28
384.361	50.86
384.571	40.62
384.781	130.73
384.991	183.98
385.201	159.4
385.411	67.24
385.621	102.06
385.831	22.19
386.041	104.11
386.251	71.34
386.461	104.11
386.671	30.38
386.881	108.2
387.091	65.19
387.301	102.06
387.511	89.77
387.72	36.52
387.93	87.72
388.14	11.95
388.35	-26.96
388.56	114.34
388.769	61.1
388.979	81.58
389.189	-4.44
389.399	102.06
389.609	181.93
389.818	132.78
390.028	83.63
390.238	54.95
390.447	57
390.657	108.2
390.867	54.95
391.076	54.95
391.286	81.58
391.496	87.72
391.705	13.99
391.915	171.69
392.125	89.77
392.334	73.39
392.544	134.82
392.753	30.38
392.963	71.34
393.172	75.43
393.382	97.96
393.591	143.02
393.801	-16.73
394.01	149.16
394.22	71.34
394.429	83.63
394.639	54.95
394.848	149.16
395.058	42.67
395.267	108.2
395.477	151.21
395.686	116.39
395.895	116.39
396.105	198.31
396.314	83.63
396.524	151.21
396.733	69.29
396.942	124.58
397.152	75.43
397.361	93.87
397.57	97.96
397.78	20.14
397.989	134.82
398.198	198.31
398.407	181.93
398.617	73.39
398.826	145.06
399.035	38.57
399.244	181.93
399.453	57
399.663	97.96
399.872	85.67
400.081	32.43
400.29	171.69
400.499	69.29
400.708	116.39
400.917	50.86
401.127	143.02
401.336	106.15
401.545	186.02
401.754	233.13
401.963	120.49
402.172	104.11
402.381	114.34
402.59	181.93
402.799	40.62
403.008	97.96
403.217	110.25
403.426	114.34
403.635	75.43
403.844	32.43
404.053	239.27
404.262	118.44
404.471	290.47
404.68	186.02
404.888	116.39
405.097	173.74
405.306	183.98
405.515	165.54
405.724	161.45
405.933	165.54
406.142	183.98
406.35	198.31
406.559	204.46
406.768	163.5
406.977	265.89
407.185	204.46
407.394	153.26
407.603	143.02
407.812	206.5
408.02	220.84
408.229	151.21
408.438	200.36
408.646	153.26
408.855	212.65
409.064	245.41
409.272	214.7
409.481	255.65
409.69	200.36
409.898	208.55
410.107	276.13
410.315	300.71
410.524	272.04
410.733	278.18
410.941	261.8
411.15	278.18
411.358	356.01
411.567	407.2
411.775	294.57
411.984	339.62
412.192	417.44
412.401	333.48
412.609	417.44
412.818	423.59
413.026	482.98
413.234	429.73
413.443	452.26
413.651	374.44
413.86	417.44
414.068	493.22
414.276	550.56
414.485	577.19
414.693	546.47
414.901	564.9
415.11	562.85
415.318	562.85
415.526	630.43
415.734	687.78
415.943	691.87
416.151	702.11
416.359	745.12
416.567	626.34
416.776	779.93
416.984	804.51
417.192	792.22
417.4	747.17
417.608	763.55
417.817	872.09
418.025	847.52
418.233	974.49
418.441	900.76
418.649	968.35
418.857	972.44
419.065	1062.55
419.273	1003.16
419.481	1091.23
419.689	1187.48
419.897	1117.85
420.105	1205.91
420.313	1203.86
420.521	1310.36
420.729	1379.99
420.937	1375.89
421.145	1396.37
421.353	1490.58
421.561	1515.16
421.769	1564.31
421.977	1564.31
422.185	1556.11
422.393	1775.25
422.601	1767.06
422.809	1781.39
423.017	1781.39
423.224	1978
423.432	2090.63
423.64	2000.52
423.848	2188.94
424.056	2113.16
424.263	2301.58
424.471	2344.58
424.679	2330.25
424.887	2418.31
425.094	2563.72
425.302	2537.09
425.51	2530.95
425.718	2633.35
425.925	2614.91
426.133	2768.51
426.341	3171.96
426.548	3057.28
426.756	3141.24
426.964	3065.47
427.171	3286.65
427.379	3444.34
427.586	3454.58
427.794	3636.85
428.001	3772.02
428.209	3964.53
428.417	3923.57
428.624	4120.17
428.832	4095.6
429.039	4032.11
429.247	4066.92
429.454	4499.05
429.662	4873.82
429.869	4441.7
430.076	4849.25
430.284	4701.79
430.491	4908.64
430.699	4988.51
430.906	5080.67
431.114	5262.94
431.321	5305.95
431.528	5467.74
431.736	5768.79
431.943	6151.76
432.15	5938.77
432.358	6086.22
432.565	6399.56
432.772	6293.07
432.979	6514.25
433.187	6612.55
433.394	6815.3
433.601	7358.01
433.808	7228.99
434.016	7153.21
434.223	7609.91
434.43	8001.07
434.637	7898.67
434.844	8332.84
435.052	8375.85
435.259	8341.04
435.466	8373.8
435.673	8175.15
435.88	9096.74
436.087	9401.88
436.294	9455.13
436.501	9209.37
436.708	9350.68
436.915	9829.91
437.122	10243.6
437.329	10163.73
437.537	10481.16
437.743	10585.61
437.95	10524.17
438.157	11200
438.364	11496.96
438.571	11410.94
438.778	11542.01
438.985	12774.89
439.192	12062.19
439.399	12502.51
439.606	12330.48
439.813	12948.97
440.02	13954.52
440.227	13559.26
440.433	13329.89
440.64	13727.19
440.847	13655.51
441.054	13940.18
441.261	14951.88
441.467	14724.55
441.674	14839.24
441.881	15486.4
442.088	15592.89
442.294	15439.3
442.501	15871.42
442.708	16367.02
442.914	16637.36
443.121	17511.84
443.328	17198.5
443.534	18159
443.741	17405.35
443.948	17348
444.154	18744.72
444.361	18986.38
444.568	19035.53
444.774	18670.99
444.981	19015.05
445.187	19690.88
445.394	20499.83
445.6	20088.18
445.807	22048.09
446.013	21347.68
446.22	21570.91
446.426	22490.45
446.633	22768.98
446.839	23354.69
447.046	22701.39
447.252	23792.96
447.459	23717.18
447.665	23897.41
447.871	24835.38
448.078	25648.42
448.284	24964.4
448.491	25261.35
448.697	26344.73
448.903	26948.88
449.11	26979.6
449.316	26127.64
449.522	27045.13
449.728	27426.06
449.935	27917.57
450.141	27669.76
450.347	28650.74
450.553	27374.86
450.76	27696.39
450.966	28910.83
451.172	28755.19
451.378	29291.76
451.584	28884.21
451.791	29760.74
451.997	29306.09
452.203	30008.54
452.409	30039.26
452.615	29979.87
452.821	28273.92
453.027	28564.73
453.233	30012.64
453.44	28488.95
453.646	29224.17
453.852	29150.45
454.058	29805.8
454.264	28718.32
454.47	29443.31
454.676	28509.43
454.882	29932.77
455.088	27227.4
455.294	27440.39
455.5	27911.42
455.705	28591.35
455.911	27421.96
456.117	26420.5
456.323	26199.32
456.529	24827.18
456.735	26002.72
456.941	25193.77
457.147	25021.74
457.352	24237.37
457.558	23758.14
457.764	24104.25
457.97	23606.59
458.176	22971.72
458.381	22969.68
458.587	21818.72
458.793	21896.54
458.999	20778.35
459.204	22285.65
459.41	21550.43
459.616	20180.34
459.821	20106.62
460.027	20079.99
460.233	19510.66
460.438	18857.35
460.644	18998.66
460.85	18105.75
461.055	17769.88
461.261	17782.17
461.466	16487.86
461.672	15965.62
461.878	17008.04
462.083	15881.66
462.289	15787.45
462.494	15461.82
462.7	14747.08
462.905	14470.61
463.111	14953.93
463.316	14919.11
463.522	14702.03
463.727	14593.48
463.932	14443.98
464.138	14474.7
464.343	14415.31
464.549	14110.16
464.754	14470.61
464.959	14491.09
465.165	14149.07
465.37	13594.08
465.575	13372.89
465.781	14001.62
465.986	14106.07
466.191	13485.53
466.397	12961.25
466.602	12635.63
466.807	13020.64
467.012	13190.63
467.218	12963.3
467.423	12852.71
467.628	12920.29
467.833	13336.03
468.038	12762.6
468.244	12338.67
468.449	12981.73
468.654	12623.34
468.859	12426.73
469.064	12598.76
469.269	12082.67
469.474	12195.31
469.679	12297.71
469.885	11861.49
470.09	12103.15
470.295	12078.58
470.5	11800.05
470.705	11900.41
470.91	11376.13
471.115	11412.99
471.32	11660.79
471.525	11568.63
471.73	11449.85
471.935	11441.66
472.139	10917.38
472.344	11222.53
472.549	10878.47
472.754	10913.28
472.959	10716.68
473.164	10470.92
473.369	10286.61
473.574	10509.83
473.778	10493.45
473.983	10460.68
474.188	10249.74
474.393	10010.13
474.598	10020.37
474.802	9811.48
475.007	9731.61
475.212	9991.7
475.417	9238.05
475.621	9551.38
475.826	9506.33
476.031	9494.04
476.235	9242.14
476.44	9283.1
476.645	9199.13
476.849	9139.74
477.054	9031.2
477.259	8918.56
477.463	8984.1
477.668	8719.91
477.872	8797.73
478.077	8570.41
478.282	8326.7
478.486	8334.89
478.691	8185.39
478.895	8287.79
479.1	8044.08
479.304	8126
479.509	7839.28
479.713	8175.15
479.918	7761.46
480.122	7765.56
480.326	8107.57
480.531	7933.49
480.735	7816.76
480.94	7839.28
481.144	8158.77
481.348	7794.23
481.553	7810.61
481.757	7441.98
481.961	7654.97
482.166	7749.17
482.37	7595.57
482.574	7607.86
482.778	7523.9
482.983	7874.1
483.187	7620.15
483.391	7626.29
483.595	7450.17
483.8	7659.06
484.004	7589.43
484.208	7685.69
484.412	7585.33
484.616	7636.53
484.821	7417.4
485.025	7382.59
485.229	7683.64
485.433	7540.28
485.637	7675.45
485.841	7272
486.045	7548.47
486.249	7706.17
486.453	7667.25
486.657	7654.97
486.861	7700.02
487.065	7464.5
487.269	7605.81
487.473	7550.52
487.677	7697.97
487.881	7755.32
488.085	7614.01
488.289	7544.38
488.493	7626.29
488.697	7607.86
488.901	7446.07
489.105	7521.85
489.309	7659.06
489.512	7790.13
489.716	7783.99
489.92	7792.18
490.124	7644.73
490.328	7824.95
490.531	7865.91
490.735	7888.43
490.939	7743.03
491.143	7755.32
491.346	7702.07
491.55	7929.39
491.754	7882.29
491.958	8037.94
492.161	8017.46
492.365	7994.93
492.569	7960.11
492.772	7927.35
492.976	8306.22
493.18	8119.85
493.383	8037.94
493.587	8183.34
493.79	8463.91
493.994	8287.79
494.197	8560.17
494.401	8351.28
494.605	8324.65
494.808	8588.84
495.012	8410.67
495.215	8773.16
495.419	8625.7
495.622	8726.05
495.825	8658.47
496.029	8801.83
496.232	9025.06
496.436	8848.93
496.639	9184.8
496.843	9004.58
497.046	9301.53
497.249	9432.6
497.453	9375.26
497.656	9498.14
497.859	9412.12
498.063	9594.39
498.266	9997.84
498.469	9791
498.673	9954.83
498.876	10165.78
499.079	10106.38
499.282	10081.81
499.485	10389
499.689	10417.68
499.892	10360.33
500.095	10700.3
500.298	10814.98
500.501	10671.62
500.705	11152.9
500.908	11150.85
501.111	11204.1
501.314	11568.63
501.517	11548.15
501.72	11648.5
501.923	11628.03
502.126	11746.81
502.329	11892.21
502.532	12211.7
502.735	12019.19
502.938	12615.15
503.141	12500.46
503.344	12762.6
503.547	12889.57
503.75	12783.08
503.953	12965.35
504.156	13241.82
504.359	13221.34
504.562	13458.91
504.765	13792.73
504.968	13868.5
505.17	13985.24
505.373	14081.49
505.576	14032.34
505.779	14562.76
505.982	14587.34
506.185	14726.6
506.387	14824.9
506.59	15021.51
506.793	15242.69
506.996	15158.72
507.198	15629.76
507.401	15545.79
507.604	15683
507.807	15986.1
508.009	16174.52
508.212	16448.94
508.415	16330.16
508.617	16674.22
508.82	16825.77
509.022	16494
509.225	16788.91
509.428	17261.99
509.63	17425.82
509.833	17517.98
510.035	17661.34
510.238	17841.56
510.44	17698.2
510.643	18271.64
510.845	18460.05
511.048	18349.46
511.25	18417.04
511.453	18675.09
511.655	19430.79
511.858	19645.82
512.06	19391.87
512.262	19477.89
512.465	19670.4
512.667	20200.82
512.87	20249.97
513.072	20135.29
513.274	20563.31
513.477	20688.24
513.679	20839.79
513.881	21222.76
514.084	21372.26
514.286	21339.49
514.488	21484.9
514.69	22140.25
514.893	22316.37
515.095	22388.05
515.297	22123.87
515.499	22666.58
515.701	22760.78
515.904	23055.69
516.106	23313.73
516.308	23450.95
516.51	24055.1
516.712	23809.34
516.914	24225.08
517.116	24479.03
517.318	24542.52
517.52	24868.14
517.722	24657.2
517.925	25404.71
518.127	25769.25
518.329	25838.88
518.531	25617.7
518.733	26060.06
518.935	25890.08
519.136	26223.9
519.338	26645.78
519.54	26690.84
519.742	27094.29
519.944	27264.27
520.146	27774.21
520.348	27915.52
520.55	27753.73
520.752	27938.05
520.954	29037.81
521.155	28540.15
521.357	28955.89
521.559	29424.87
521.761	29633.77
521.963	29392.11
522.164	29598.95
522.366	29738.21
522.568	30168.29
522.77	30317.79
522.971	30813.4
523.173	30594.26
523.375	30823.64
523.576	30784.72
523.778	30837.97
523.98	31378.64
524.181	31767.75
524.383	31837.38
524.584	31782.09
524.786	31931.59
524.988	32437.44
525.189	32531.64
525.391	32693.43
525.592	32838.84
525.794	33082.55
525.995	32677.05
526.197	33275.05
526.398	33529
526.6	33569.96
526.801	33338.54
527.003	33809.57
527.204	33807.53
527.406	34464.92
527.607	34016.42
527.808	34481.31
528.01	33938.6
528.211	34522.27
528.412	34759.83
528.614	34690.2
528.815	34747.54
529.016	35644.55
529.218	34540.7
529.419	35112.08
529.62	35054.74
529.822	35200.15
530.023	35290.26
530.224	35308.69
530.425	35372.17
530.626	35099.8
530.828	35202.19
531.029	36220.03
531.23	35978.37
531.431	35775.62
531.632	36080.77
531.833	36000.9
532.035	36058.24
532.236	36109.44
532.437	36240.51
532.638	35959.94
532.839	36211.84
533.04	36324.48
533.241	36048
533.442	36756.6
533.643	36564.09
533.844	36119.68
534.045	36523.13
534.246	36207.75
534.447	36846.71
534.648	36449.41
534.849	36369.54
535.05	36457.6
535.251	36680.83
535.451	36721.79
535.652	36996.21
535.853	36549.76
536.054	36668.54
536.255	36852.86
536.456	36729.98
536.657	37041.27
536.857	36770.94
537.058	36566.14
537.259	36879.48
537.46	36666.49
537.66	36609.15
537.861	36889.72
538.062	36834.42
538.263	36977.78
538.463	36416.64
538.664	36992.12
538.865	36863.1
539.065	36811.9
539.266	36750.46
539.466	37051.51
539.667	36451.45
539.868	36951.16
540.068	36787.32
540.269	36424.83
540.469	36940.92
540.67	36881.53
540.87	37049.46
541.071	36756.6
541.271	36703.35
541.472	36625.53
541.672	36707.45
541.873	36453.5
542.073	36289.66
542.274	37135.48
542.474	36691.07
542.675	36553.85
542.875	37053.56
543.075	36764.79
543.276	36316.29
543.476	36910.2
543.676	36310.14
543.877	36754.55
544.077	36910.2
544.277	36242.56
544.478	36809.85
544.678	36496.51
544.878	36648.06
545.078	36545.66
545.279	35937.41
545.479	36453.5
545.679	36533.37
545.879	36490.37
546.079	36490.37
546.28	36531.33
546.48	36138.12
546.68	36355.2
546.88	36412.54
547.08	36979.83
547.28	36297.86
547.48	36355.2
547.68	36490.37
547.88	36228.23
548.081	36363.39
548.281	36217.99
548.481	36445.31
548.681	36549.76
548.881	36580.48
549.081	36297.86
549.28	36682.87
549.48	36609.15
549.68	36541.57
549.88	36813.94
550.08	36441.21
550.28	36394.11
550.48	36244.61
550.68	36535.42
550.88	36197.51
551.08	36476.03
551.279	36531.33
551.479	36207.75
551.679	36277.38
551.879	36201.6
552.079	36404.35
552.278	36308.1
552.478	36129.92
552.678	36537.47
552.878	36897.91
553.077	36191.36
553.277	36054.15
553.477	36607.1
553.676	36263.04
553.876	36258.95
554.076	35970.18
554.275	35671.18
554.475	35562.64
554.674	35966.09
554.874	36119.68
555.074	35941.51
555.273	35732.62
555.473	35847.3
555.672	35765.38
555.872	35636.36
556.071	35961.99
556.271	35765.38
556.47	35624.08
556.67	35429.52
556.869	35474.57
557.068	35966.09
557.268	35339.41
557.467	35681.42
557.667	35427.47
557.866	35159.19
558.065	35245.2
558.265	35202.19
558.464	34716.82
558.663	35394.7
558.863	34940.05
559.062	35138.71
559.261	34581.66
559.461	35200.15
559.66	34591.9
559.859	35079.32
560.058	34921.62
560.258	34438.3
560.457	34571.42
560.656	35052.69
560.855	34595.99
561.054	34815.13
561.253	33948.84
561.453	34397.34
561.652	34290.85
561.851	34317.47
562.05	34413.73
562.249	33903.78
562.448	34190.5
562.647	34180.26
562.846	33934.5
563.045	33950.88
563.244	33682.6
563.443	34032.8
563.642	33674.41
563.841	33696.94
564.04	33377.45
564.239	33932.45
564.438	33023.15
564.637	33531.05
564.836	33672.36
565.035	33258.67
565.234	33301.68
565.432	32824.5
565.631	32900.28
565.83	32953.52
566.029	32853.17
566.228	32877.75
566.427	32892.08
566.625	32402.62
566.824	32306.37
567.023	32629.94
567.222	32062.66
567.42	32410.81
567.619	32359.61
567.818	32124.1
568.016	31804.61
568.215	32388.28
568.414	31888.58
568.612	32439.48
568.811	31913.16
569.01	31900.87
569.208	31315.15
569.407	31542.47
569.605	30966.99
569.804	31648.97
570.002	31147.22
570.201	31562.95
570.4	31163.6
570.598	30661.85
570.797	30713.05
570.995	30862.55
571.193	30751.96
571.392	30887.12
571.59	30469.34
571.789	30467.29
571.987	30801.11
572.186	30418.14
572.384	29908.19
572.582	30280.92
572.781	30424.28
572.979	30012.64
573.177	29611.24
573.376	29904.1
573.574	29914.34
573.772	29629.67
573.971	29687.01
574.169	29232.36
574.367	29433.07
574.565	29492.46
574.763	29056.24
574.962	29283.56
575.16	28962.03
575.358	29144.3
575.556	28464.38
575.754	29117.68
575.952	28773.62
576.151	29076.72
576.349	28462.33
576.547	28605.69
576.745	28310.78
576.943	28505.34
577.141	28300.54
577.339	28554.49
577.537	28116.22
577.735	28333.31
577.933	28040.45
578.131	27948.29
578.329	27905.28
578.527	27993.34
578.725	27907.33
578.923	27946.24
579.121	27854.08
579.319	27534.6
579.516	27452.68
579.714	27645.19
579.912	27204.88
580.11	27190.54
580.308	27217.16
580.506	27030.8
580.704	26785.04
580.901	26883.34
581.099	27274.51
581.297	26817.81
581.495	26744.08
581.692	26830.1
581.89	26748.18
582.088	26803.47
582.285	26502.42
582.483	26690.84
582.681	26471.7
582.878	26238.23
583.076	26213.66
583.274	26379.54
583.471	26096.92
583.669	25933.09
583.866	26015.01
584.064	25990.43
584.262	25890.08
584.459	25931.04
584.657	25308.46
584.854	25597.22
585.052	25269.55
585.249	25812.26
585.447	25494.82
585.644	25169.19
585.841	25214.25
586.039	25441.57
586.236	24960.3
586.434	24872.24
586.631	24763.7
586.828	25111.85
587.026	24958.25
587.223	24804.66
587.42	24792.37
587.618	24573.24
587.815	24536.37
588.012	24642.87
588.21	24497.46
588.407	24814.9
588.604	24261.94
588.801	24030.52
588.999	24225.08
589.196	24120.63
589.393	24032.57
589.59	24112.44
589.787	23448.9
589.984	23528.77
590.182	23424.33
590.379	23672.13
590.576	23532.87
590.773	23762.24
590.97	23303.5
591.167	23526.72
591.364	23371.08
591.561	23184.71
591.758	22883.66
591.955	22932.81
592.152	23027.02
592.349	22945.1
592.546	22990.16
592.743	22838.61
592.94	22463.83
593.137	22787.41
593.334	23027.02
593.531	22351.19
593.727	22748.5
593.924	22365.53
594.121	22230.36
594.318	22457.68
594.515	22195.54
594.712	22433.11
594.908	22193.5
595.105	22068.57
595.302	22132.06
595.499	22248.79
595.696	21845.34
595.892	21648.74
596.089	21896.54
596.286	21656.93
596.482	21658.98
596.679	21341.54
596.876	21286.25
597.072	21495.14
597.269	21185.9
597.466	21349.73
597.662	21429.6
597.859	21343.59
598.055	21343.59
598.252	21183.85
598.448	21151.08
598.645	21005.67
598.841	20893.04
599.038	21065.07
599.234	21091.69
599.431	20950.38
599.627	20387.19
599.824	20768.11
600.02	20389.24
600.217	20651.38
600.413	20321.65
600.609	20118.9
600.806	20473.2
601.002	20213.11
601.198	19834.24
601.395	20004.22
601.591	19821.95
601.787	20016.51
601.984	19709.31
602.18	19840.38
602.376	19936.63
602.572	19680.64
602.769	19922.3
602.965	19342.72
603.161	19643.77
603.357	19062.15
603.553	19453.31
603.75	19406.21
603.946	19352.96
604.142	19287.43
604.338	18963.85
604.534	19133.83
604.73	18845.07
604.926	19152.26
605.122	19146.12
605.318	18836.88
605.514	18765.2
605.71	18736.52
605.906	18720.14
606.102	18670.99
606.298	18673.04
606.494	18560.4
606.69	18525.58
606.886	18560.4
607.082	18242.96
607.278	18548.11
607.474	18261.4
607.67	18576.78
607.866	17995.16
608.062	18627.98
608.257	18374.03
608.453	17984.92
608.649	18064.79
608.845	17743.26
609.041	18163.09
609.236	17874.33
609.432	17841.56
609.628	18052.5
609.824	17669.53
610.019	17831.32
610.215	17905.05
610.411	17812.89
610.606	17767.84
610.802	17714.59
610.998	17618.33
611.193	17683.87
611.389	17526.18
611.584	17436.06
611.78	17186.21
611.976	17407.39
612.171	17528.22
612.367	17407.39
612.562	17165.73
612.758	17083.81
612.953	16948.65
613.149	17151.4
613.344	17022.37
613.539	17370.53
613.735	17057.19
613.93	16868.78
614.126	17034.66
614.321	17188.26
614.517	17227.17
614.712	16999.85
614.907	16883.11
615.103	17087.91
615.298	16778.67
615.493	16833.96
615.688	16580.01
615.884	16983.46
616.079	16770.47
616.274	16596.4
616.47	16815.53
616.665	16559.53
616.86	16459.18
617.055	16393.65
617.25	16295.35
617.445	16631.21
617.641	16203.19
617.836	16385.46
618.031	16039.35
618.226	16317.87
618.421	16121.27
618.616	16229.81
618.811	15912.38
619.006	16190.9
619.201	15760.83
619.396	16371.12
619.591	15719.87
619.786	15865.27
619.981	15490.49
620.176	15760.83
620.371	15605.18
620.566	15658.43
620.761	15451.58
620.956	15482.3
621.151	15197.63
621.346	15291.84
621.541	15177.16
621.735	15203.78
621.93	15007.17
622.125	15027.65
622.32	15054.28
622.515	14687.69
622.709	14718.41
622.904	14732.75
623.099	14667.21
623.294	14618.06
623.488	14495.18
623.683	14704.07
623.878	14267.86
624.072	14339.54
624.267	14257.62
624.462	13938.13
624.656	14054.87
624.851	14042.58
625.046	13901.27
625.24	13637.08
625.435	13741.53
625.629	13710.81
625.824	13583.84
626.018	13589.98
626.213	13348.32
626.407	13575.64
626.602	13262.3
626.796	13454.81
626.991	13344.22
627.185	13241.82
627.38	12881.38
627.574	12955.11
627.768	13041.12
627.963	12676.59
628.157	12561.9
628.352	12746.22
628.546	12625.39
628.74	12983.78
628.935	12656.11
629.129	12512.75
629.323	12582.38
629.517	12350.96
629.712	12211.7
629.906	12232.18
630.1	11945.46
630.294	11998.71
630.489	12226.03
630.683	11978.23
630.877	11707.9
631.071	11812.34
631.265	11841.01
631.459	11732.47
631.653	11580.92
631.848	11673.08
632.042	11439.61
632.236	11568.63
632.43	11154.94
632.624	11249.15
632.818	11283.97
633.012	11019.78
633.206	11240.96
633.4	11150.85
633.594	10876.42
633.788	11167.23
633.982	10878.47
634.176	10722.82
634.369	10790.41
634.563	10604.04
634.757	10765.83
634.951	10722.82
635.145	10575.37
635.339	10653.19
635.533	10432.01
635.726	10384.91
635.92	10300.94
636.114	10346
636.308	10239.5
636.501	10276.37
636.695	10333.71
636.889	10141.2
637.083	10071.57
637.276	10034.71
637.47	9829.91
637.664	9799.19
637.857	9952.79
638.051	9803.29
638.244	9723.41
638.438	9653.78
638.632	9709.08
638.825	9530.91
639.019	9571.86
639.212	9514.52
639.406	9262.62
639.599	9575.96
639.793	9424.41
639.986	9455.13
640.18	9149.98
640.373	9367.07
640.567	8982.05
640.76	9215.52
640.954	9178.65
641.147	8801.83
641.34	8844.84
641.534	8996.39
641.727	8926.75
641.92	8994.34
642.114	8617.51
642.307	8836.64
642.5	8685.09
642.694	8646.18
642.887	8484.39
643.08	8582.7
643.273	8627.75
643.467	8255.02
643.66	8310.32
643.853	8257.07
644.046	8144.43
644.239	8234.54
644.432	8222.25
644.626	8263.21
644.819	7960.11
645.012	7937.59
645.205	8070.7
645.398	7986.74
645.591	7896.63
645.784	7853.62
645.977	7808.56
646.17	7904.82
646.363	7763.51
646.556	7618.1
646.749	7714.36
646.942	7896.63
647.135	7695.93
647.328	7564.86
647.521	7562.81
647.714	7493.18
647.907	7536.18
648.099	7460.41
648.292	7495.22
648.485	7468.6
648.678	7362.11
648.871	7468.6
649.064	7247.42
649.256	7239.23
649.449	7118.4
649.642	7140.93
649.835	7069.25
650.027	7091.77
650.22	6985.28
650.413	6942.27
650.605	7046.72
650.798	6944.32
650.991	6817.35
651.183	6846.02
651.376	6798.91
651.568	6831.68
651.761	6872.64
651.954	6626.89
652.146	6786.63
652.339	6704.71
652.531	6805.06
652.724	6684.23
652.916	6475.34
653.109	6479.43
653.301	6534.73
653.494	6512.2
653.686	6456.9
653.879	6532.68
654.071	6309.45
654.263	6313.55
654.456	6278.73
654.648	6235.72
654.84	6127.18
655.033	6010.45
655.225	6241.87
655.417	6037.07
655.61	6272.59
655.802	6192.72
655.994	6071.89
656.186	6075.98
656.379	6018.64
656.571	5975.63
656.763	5850.71
656.955	5903.95
657.148	5940.82
657.34	5934.67
657.532	5776.98
657.724	5838.42
657.916	5877.33
658.108	5623.38
658.3	5678.68
658.492	5650
658.684	5647.96
658.876	5633.62
659.068	5406.3
659.26	5572.18
659.452	5547.61
659.644	5529.17
659.836	5467.74
660.028	5500.5
660.22	5414.49
660.412	5402.2
660.604	5291.61
660.796	5449.3
660.988	5332.57
661.18	5432.92
661.372	5348.95
661.563	5310.04
661.755	5197.4
661.947	5168.73
662.139	5158.49
662.331	5144.16
662.522	5131.87
662.714	5131.87
662.906	5228.12
663.097	5144.16
663.289	5062.24
663.481	4972.13
663.673	5047.9
663.864	4959.84
664.056	4914.78
664.247	4955.74
664.439	5008.99
664.631	4978.27
664.822	4843.1
665.014	4849.25
665.205	4791.91
665.397	4851.3
665.588	4920.93
665.78	4800.1
665.971	4873.82
666.163	4865.63
666.354	4767.33
666.546	4716.13
666.737	4648.55
666.929	4679.27
667.12	4675.17
667.311	4701.79
667.503	4480.61
667.694	4566.63
667.885	4755.04
668.077	4580.96
668.268	4697.7
668.459	4660.84
668.651	4738.66
668.842	4681.32
669.033	4548.2
669.224	4675.17
669.416	4597.35
669.607	4566.63
669.798	4406.89
669.989	4447.85
670.18	4515.43
670.371	4462.18
670.563	4367.98
670.754	4410.98
670.945	4302.44
671.136	4478.57
671.327	4423.27
671.518	4394.6
671.709	4505.19
671.9	4443.75
672.091	4292.2
672.282	4458.09
672.473	4284.01
672.664	4398.7
672.855	4374.12
673.046	4343.4
673.237	4355.69
673.428	4365.93
673.619	4306.54
673.809	4214.38
674	4345.45
674.191	4292.2
674.382	4218.47
674.573	4238.95
674.764	4310.63
674.954	4216.43
675.145	4292.2
675.336	4277.87
675.527	4367.98
675.717	4187.75
675.908	4327.02
676.099	4218.47
676.289	4312.68
676.48	4341.35
676.671	4247.15
676.861	4226.67
677.052	4335.21
677.243	4183.66
677.433	4175.47
677.624	4386.41
677.814	4333.16
678.005	4300.39
678.195	4134.51
678.386	4247.15
678.576	4251.24
678.767	4208.23
678.957	4238.95
679.148	4294.25
679.338	4185.71
679.529	4169.32
679.719	4075.12
679.909	4327.02
680.1	4206.19
680.29	4324.97
680.481	4071.02
680.671	4312.68
680.861	4179.56
681.052	4132.46
681.242	4228.71
681.432	4294.25
681.622	4331.11
681.813	4218.47
682.003	4247.15
682.193	4183.66
682.383	4249.19
682.573	4191.85
682.764	4382.31
682.954	4204.14
683.144	4374.12
683.334	4257.39
683.524	4224.62
683.714	4122.22
683.904	4243.05
684.094	4144.75
684.284	4232.81
684.474	4193.9
684.664	4134.51
684.854	4021.87
685.044	4173.42
685.234	4312.68
685.424	4136.56
685.614	4175.47
685.804	4177.51
685.994	4118.12
686.184	4232.81
686.374	4212.33
686.564	4034.16
686.753	3995.25
686.943	4030.06
687.133	4025.97
687.323	4056.68
687.513	3931.76
687.702	4068.97
687.892	3942
688.082	3923.57
688.272	3915.37
688.461	3929.71
688.651	3866.22
688.841	3767.92
689.03	3729.01
689.22	3827.31
689.41	3858.03
689.599	3784.3
689.789	3735.15
689.979	3864.18
690.168	3788.4
690.358	3765.87
690.547	3817.07
690.737	3851.89
690.926	3757.68
691.116	3653.23
691.305	3833.46
691.495	3733.11
691.684	3577.46
691.874	3546.74
692.063	3624.56
692.252	3450.49
692.442	3550.84
692.631	3563.12
692.82	3583.6
693.01	3470.97
693.199	3464.82
693.388	3487.35
693.578	3393.14
693.767	3448.44
693.956	3409.53
694.146	3399.29
694.335	3432.05
694.524	3292.79
694.713	3360.38
694.902	3432.05
695.092	3317.37
695.281	3425.91
695.47	3237.5
695.659	3391.09
695.848	3235.45
696.037	3387
696.226	3333.75
696.415	3202.68
696.604	3231.35
696.793	3284.6
696.982	3260.02
697.171	3249.79
697.36	3266.17
697.549	3192.44
697.738	3161.72
697.927	3145.34
698.116	3198.59
698.305	3262.07
698.494	3120.76
698.683	3292.79
698.872	3372.66
699.061	3161.72
699.25	3235.45
699.438	3192.44
699.627	3163.77
699.816	3169.91
700.005	3245.69
700.193	3235.45
700.382	3155.58
700.571	3143.29
700.76	3210.87
700.948	3282.55
701.137	3229.31
701.326	3194.49
701.514	3202.68
701.703	3196.54
701.892	3163.77
702.08	3372.66
702.269	3161.72
702.457	3241.59
702.646	3307.13
702.834	3155.58
703.023	3221.11
703.212	3284.6
703.4	3335.8
703.589	2971.26
703.777	3249.79
703.965	3063.42
704.154	3092.09
704.342	3120.76
704.531	3190.39
704.719	3217.02
704.907	3231.35
705.096	3131
705.284	3221.11
705.472	3184.25
705.661	3128.95
705.849	3303.03
706.037	3372.66
706.226	3249.79
706.414	3384.95
706.602	3171.96
706.79	3319.42
706.979	3300.98
707.167	3335.8
707.355	3153.53
707.543	3120.76
707.731	3272.31
707.919	3253.88
708.107	3198.59
708.296	3194.49
708.484	3264.12
708.672	3202.68
708.86	3214.97
709.048	3335.8
709.236	3352.18
709.424	3317.37
709.612	3288.7
709.8	3292.79
709.988	3251.83
710.176	3225.21
710.364	3477.11
710.551	3311.22
710.739	3366.52
710.927	3305.08
711.115	3423.86
711.303	3311.22
711.491	3432.05
711.679	3243.64
711.866	3331.7
712.054	3350.14
712.242	3356.28
712.43	3579.51
712.617	3489.4
712.805	3460.73
712.993	3401.33
713.181	3329.66
713.368	3473.01
713.556	3376.76
713.744	3430.01
713.931	3434.1
714.119	3497.59
714.306	3442.29
714.494	3483.25
714.682	3616.37
714.869	3352.18
715.057	3563.12
715.244	3393.14
715.432	3497.59
715.619	3520.12
715.807	3530.36
715.994	3571.32
716.182	3399.29
716.369	3583.6
716.556	3573.36
716.744	3473.01
716.931	3503.73
717.119	3626.61
717.306	3593.84
717.493	3522.16
717.681	3591.8
717.868	3735.15
718.055	3692.15
718.242	3577.46
718.43	3612.28
718.617	3765.87
718.804	3708.53
718.991	3624.56
719.179	3614.32
719.366	3729.01
719.553	3665.52
719.74	3698.29
719.927	3708.53
720.114	3589.75
720.301	3522.16
720.488	3657.33
720.676	3659.38
720.863	3618.42
721.05	3726.96
721.237	3751.54
721.424	3896.94
721.611	3800.69
721.798	3745.39
721.985	3751.54
722.172	3794.54
722.358	3843.7
722.545	3911.28
722.732	3698.29
722.919	3874.42
723.106	3681.91
723.293	3706.48
723.48	3839.6
723.667	3735.15
723.853	3698.29
724.04	3886.7
724.227	3874.42
724.414	3745.39
724.6	3788.4
724.787	3948.14
724.974	3737.2
725.161	3761.78
725.347	3790.45
725.534	3911.28
725.72	3905.14
725.907	3872.37
726.094	3982.96
726.28	3946.09
726.467	3688.05
726.653	3898.99
726.84	3890.8
727.027	4101.74
727.213	3860.08
727.4	3952.24
727.586	3921.52
727.773	3935.85
727.959	3864.18
728.145	3898.99
728.332	3987.05
728.518	4003.44
728.705	3956.33
728.891	3903.09
729.077	3937.9
729.264	3915.37
729.45	4040.3
729.636	3982.96
729.823	3868.27
730.009	4005.49
730.195	4017.77
730.382	4054.64
730.568	4068.97
730.754	3919.47
730.94	3966.57
731.126	3976.81
731.313	3964.53
731.499	4003.44
731.685	4005.49
731.871	4075.12
732.057	3876.46
732.243	4036.21
732.429	3989.1
732.615	4015.73
732.801	3923.57
732.987	4066.92
733.173	3987.05
733.359	3942
733.545	3966.57
733.731	4093.55
733.917	4019.82
734.103	4034.16
734.289	4028.01
734.475	3925.61
734.661	3939.95
734.847	3929.71
735.033	3858.03
735.219	3888.75
735.404	3956.33
735.59	3950.19
735.776	4017.77
735.962	3942
736.148	4087.4
736.333	4071.02
736.519	3892.85
736.705	3980.91
736.89	3862.13
737.076	3950.19
737.262	3890.8
737.447	4003.44
737.633	3982.96
737.819	3882.61
738.004	3942
738.19	3841.65
738.375	3985.01
738.561	4028.01
738.747	4001.39
738.932	3851.89
739.118	3942
739.303	3919.47
739.489	3817.07
739.674	3747.44
739.859	3907.18
740.045	3825.26
740.23	3823.22
740.416	3755.63
740.601	3847.79
740.786	3855.98
740.972	3753.59
741.157	3880.56
741.342	3735.15
741.528	3769.97
741.713	3743.35
741.898	3759.73
742.084	3692.15
742.269	3702.39
742.454	3661.43
742.639	3769.97
742.824	3681.91
743.01	3579.51
743.195	3694.19
743.38	3614.32
743.565	3610.23
743.75	3585.65
743.935	3690.1
744.12	3653.23
744.305	3569.27
744.49	3419.77
744.675	3503.73
744.86	3616.37
745.045	3477.11
745.23	3513.97
745.415	3366.52
745.6	3481.21
745.785	3446.39
745.97	3466.87
746.155	3405.43
746.34	3483.25
746.525	3436.15
746.71	3364.47
746.895	3180.15
747.079	3333.75
747.264	3335.8
747.449	3419.77
747.634	3319.42
747.819	3233.4
748.003	3174.01
748.188	3276.41
748.373	3098.24
748.557	3235.45
748.742	3169.91
748.927	3131
749.111	3071.61
749.296	3083.9
749.481	3229.31
749.665	3044.99
749.85	2977.41
750.034	3098.24
750.219	3061.37
750.404	2963.07
750.588	2993.79
750.773	2989.69
750.957	2850.43
751.141	2924.16
751.326	2987.65
751.51	2922.11
751.695	2848.38
751.879	2791.04
752.064	2911.87
752.248	2930.3
752.432	2942.59
752.617	2709.12
752.801	2754.18
752.985	2752.13
753.17	2780.8
753.354	2662.02
753.538	2725.51
753.722	2647.68
753.907	2633.35
754.091	2500.23
754.275	2705.03
754.459	2473.6
754.643	2539.14
754.828	2582.15
755.012	2571.91
755.196	2438.79
755.38	2401.93
755.564	2414.21
755.748	2457.22
755.932	2565.76
756.116	2383.49
756.3	2367.11
756.484	2348.68
756.668	2410.12
756.852	2233.99
757.036	2338.44
757.22	2328.2
757.404	2336.39
757.588	2328.2
757.772	2406.02
757.956	2227.85
758.14	2293.38
758.323	2190.99
758.507	2229.9
758.691	2277
758.875	2180.75
759.059	2205.32
759.242	2119.31
759.426	2166.41
759.61	2184.84
759.794	2088.59
759.977	2219.66
760.161	2211.46
760.345	2121.35
760.528	2207.37
760.712	2098.83
760.895	1969.8
761.079	1971.85
761.263	2053.77
761.446	1992.33
761.63	1969.8
761.813	2049.68
761.997	1939.09
762.18	1914.51
762.364	1855.12
762.547	1947.28
762.731	1967.76
762.914	1891.98
763.098	1941.13
763.281	1945.23
763.464	1920.65
763.648	1959.56
763.831	1781.39
764.015	1820.3
764.198	1826.45
764.381	1834.64
764.564	1779.34
764.748	1918.61
764.931	1779.34
765.114	1828.49
765.297	1830.54
765.481	1703.57
765.664	1818.25
765.847	1814.16
766.03	1855.12
766.213	1697.42
766.397	1748.62
766.58	1582.74
766.763	1678.99
766.946	1621.65
767.129	1599.12
767.312	1744.53
767.495	1697.42
767.678	1687.18
767.861	1672.85
768.044	1605.27
768.227	1691.28
768.41	1617.55
768.593	1750.67
768.776	1580.69
768.959	1595.03
769.142	1646.23
769.324	1609.36
769.507	1621.65
769.69	1681.04
769.873	1609.36
770.056	1601.17
770.239	1552.02
770.421	1572.5
770.604	1627.79
770.787	1457.81
770.97	1476.24
771.152	1521.3
771.335	1619.6
771.518	1455.76
771.7	1566.35
771.883	1547.92
772.066	1615.51
772.248	1560.21
772.431	1455.76
772.613	1400.47
772.796	1402.52
772.978	1441.43
773.161	1515.16
773.343	1488.53
773.526	1347.22
773.708	1269.4
773.891	1267.35
774.073	1410.71
774.256	1304.21
774.438	1392.28
774.621	1322.65
774.803	1300.12
774.985	1361.56
775.168	1314.45
775.35	1271.45
775.532	1310.36
775.715	1246.87
775.897	1277.59
776.079	1236.63
776.261	1332.89
776.444	1287.83
776.626	1263.26
776.808	1226.39
776.99	1099.42
777.173	1224.34
777.355	1126.04
777.537	1214.1
777.719	1287.83
777.901	1142.43
778.083	1111.71
778.265	962.2
778.447	1173.14
778.629	1148.57
778.811	1117.85
778.993	1169.05
779.175	1060.51
779.357	1109.66
779.539	1046.17
779.721	1060.51
779.903	1095.32
780.085	1011.36
780.267	1107.61
780.449	1029.79
780.631	1052.31
780.812	1105.56
780.994	1050.27
781.176	1003.16
781.358	941.72
781.54	908.96
781.721	964.25
781.903	884.38
782.085	943.77
782.267	994.97
782.448	822.94
782.63	906.91
782.812	1009.31
782.993	949.92
783.175	921.24
783.357	954.01
783.538	868
783.72	790.17
783.901	876.19
784.083	915.1
784.264	876.19
784.446	812.7
784.627	761.5
784.809	888.48
784.99	827.04
785.172	839.33
785.353	808.61
785.535	818.85
785.716	806.56
785.897	779.93
786.079	781.98
786.26	863.9
786.441	759.46
786.623	716.45
786.804	681.63
786.985	730.78
787.167	771.74
787.348	769.69
787.529	698.02
787.71	745.12
787.891	794.27
788.073	673.44
788.254	693.92
788.435	728.74
788.616	724.64
788.797	626.34
788.978	638.62
789.159	712.35
789.34	609.95
789.522	745.12
789.703	671.39
789.884	609.95
790.065	671.39
790.246	771.74
790.427	659.1
790.607	655.01
790.788	700.06
790.969	679.58
791.15	657.06
791.331	638.62
791.512	562.85
791.693	568.99
791.874	655.01
792.054	784.03
792.235	605.86
792.416	558.75
792.597	630.43
792.778	564.9
792.958	581.28
793.139	638.62
793.32	542.37
793.5	593.57
793.681	564.9
793.862	577.19
794.042	591.52
794.223	560.8
794.404	482.98
794.584	411.3
794.765	476.84
794.945	554.66
795.126	626.34
795.306	583.33
795.487	517.79
795.667	476.84
795.848	501.41
796.028	554.66
796.209	444.07
796.389	480.93
796.57	419.49
796.75	544.42
796.93	468.64
797.111	489.12
797.291	562.85
797.471	495.27
797.652	511.65
797.832	470.69
798.012	540.32
798.192	437.92
798.373	372.39
798.553	427.68
798.733	464.55
798.913	433.83
799.093	538.27
799.274	396.96
799.454	431.78
799.634	505.51
799.814	433.83
799.994	456.36
800.174	437.92
800.354	499.36
800.534	384.68
800.714	423.59
800.894	394.92
801.074	364.2
801.254	435.88
801.434	429.73
801.614	425.64
801.794	415.4
801.974	1314.45
802.154	427.68
802.334	495.27
802.514	358.05
802.693	333.48
802.873	413.35
803.053	399.01
803.233	345.77
803.413	462.5
803.592	407.2
803.772	378.53
803.952	386.72
804.131	339.62
804.311	487.08
804.491	405.16
804.67	368.29
804.85	349.86
805.03	464.55
805.209	411.3
805.389	294.57
805.568	327.33
805.748	362.15
805.928	347.81
806.107	362.15
806.287	353.96
806.466	386.72
806.646	390.82
806.825	437.92
807.004	378.53
807.184	411.3
807.363	394.92
807.543	433.83
807.722	327.33
807.901	315.05
808.081	390.82
808.26	237.22
808.439	345.77
808.619	362.15
808.798	376.48
808.977	321.19
809.156	339.62
809.336	325.29
809.515	370.34
809.694	329.38
809.873	341.67
810.052	323.24
810.231	419.49
810.411	282.28
810.59	313
810.769	353.96
810.948	233.13
811.127	251.56
811.306	274.09
811.485	317.09
811.664	304.81
811.843	313
812.022	243.37
812.201	247.46
812.38	284.33
812.559	269.99
812.737	304.81
812.916	208.55
813.095	255.65
813.274	274.09
813.453	253.61
813.632	319.14
813.811	294.57
813.989	265.89
814.168	292.52
814.347	253.61
814.526	175.78
814.704	269.99
814.883	292.52
815.062	202.41
815.24	347.81
815.419	263.85
815.598	272.04
815.776	241.32
815.955	229.03
816.133	214.7
816.312	251.56
816.49	265.89
816.669	296.61
816.847	237.22
817.026	300.71
817.204	204.46
817.383	220.84
817.561	138.92
817.74	356.01
817.918	220.84
818.097	269.99
818.275	249.51
818.453	319.14
818.632	294.57
818.81	310.95
818.988	153.26
819.167	194.22
819.345	251.56
819.523	155.3
819.701	302.76
819.879	231.08
820.058	323.24
820.236	288.42
820.414	204.46
820.592	216.74
820.77	218.79
820.948	206.5
821.127	206.5
821.305	231.08
821.483	198.31
821.661	216.74
821.839	218.79
822.017	226.98
822.195	151.21
822.373	263.85
822.551	243.37
822.729	247.46
822.907	169.64
823.085	206.5
823.262	229.03
823.44	208.55
823.618	188.07
823.796	181.93
823.974	214.7
824.152	196.26
824.329	186.02
824.507	272.04
824.685	218.79
824.863	198.31
825.04	212.65
825.218	249.51
825.396	179.88
825.574	138.92
825.751	147.11
825.929	237.22
826.107	159.4
826.284	165.54
826.462	235.18
826.639	138.92
826.817	196.26
826.994	212.65
827.172	65.19
827.349	253.61
827.527	167.59
827.704	220.84
827.882	147.11
828.059	149.16
828.237	147.11
828.414	208.55
828.591	186.02
828.769	138.92
828.946	116.39
829.124	253.61
829.301	233.13
829.478	224.94
829.655	224.94
829.833	140.97
830.01	155.3
830.187	188.07
830.364	140.97
830.542	157.35
830.719	210.6
830.896	284.33
831.073	155.3
831.25	147.11
831.427	157.35
831.604	220.84
831.782	177.83
831.959	200.36
832.136	106.15
832.313	192.17
832.49	116.39
832.667	196.26
832.844	81.58
833.021	177.83
833.198	165.54
833.374	161.45
833.551	165.54
833.728	110.25
833.905	106.15
834.082	110.25
834.259	159.4
834.436	186.02
834.612	54.95
834.789	245.41
834.966	112.3
835.143	63.15
835.319	102.06
835.496	155.3
835.673	100.01
835.85	181.93
836.026	171.69
836.203	132.78
836.38	89.77
836.556	126.63
836.733	147.11
836.909	181.93
837.086	112.3
837.262	93.87
837.439	106.15
837.616	87.72
837.792	130.73
837.968	171.69
838.145	81.58
838.321	112.3
838.498	130.73
838.674	233.13
838.851	143.02
839.027	130.73
839.203	149.16
839.38	145.06
839.556	81.58
839.732	179.88
839.909	143.02
840.085	206.5
840.261	93.87
840.437	157.35
840.614	106.15
840.79	214.7
840.966	147.11
841.142	83.63
841.318	57
841.494	171.69
841.671	81.58
841.847	171.69
842.023	134.82
842.199	89.77
842.375	183.98
842.551	73.39
842.727	104.11
842.903	169.64
843.079	188.07
843.255	97.96
843.431	61.1
843.607	93.87
843.783	32.43
843.959	175.78
844.134	89.77
844.31	132.78
844.486	106.15
844.662	61.1
844.838	149.16
845.013	108.2
845.189	116.39
845.365	138.92
845.541	95.91
845.716	138.92
845.892	147.11
846.068	67.24
846.244	-10.58
846.419	106.15
846.595	44.71
846.77	132.78
846.946	202.41
847.122	50.86
847.297	67.24
847.473	118.44
847.648	-0.34
847.824	48.81
847.999	-49.49
848.175	50.86
848.35	120.49
848.526	114.34
848.701	149.16
848.876	151.21
849.052	112.3
849.227	63.15
849.403	75.43
849.578	46.76
849.753	132.78
849.929	106.15
850.104	71.34
850.279	65.19
850.454	57
850.63	73.39
850.805	69.29
850.98	130.73
851.155	44.71
851.33	50.86
851.505	-20.82
851.681	204.46
851.856	-6.49
852.031	97.96
852.206	42.67
852.381	-82.26
852.556	97.96
852.731	79.53
852.906	143.02
853.081	124.58
853.256	97.96
853.431	77.48
853.606	59.05
853.781	67.24
853.956	24.23
854.131	155.3
854.305	-14.68
854.48	116.39
854.655	34.47
854.83	36.52
855.005	85.67
855.18	63.15
855.354	79.53
855.529	40.62
855.704	65.19
855.879	102.06
856.053	26.28
856.228	93.87
856.403	28.33
856.577	65.19
856.752	132.78
856.926	44.71
857.101	63.15
857.276	26.28
857.45	69.29
857.625	161.45
857.799	24.23
857.974	50.86
858.148	61.1
858.323	-16.73
858.497	97.96
858.672	-20.82
858.846	40.62
859.02	52.91
859.195	36.52
859.369	52.91
859.543	89.77
859.718	38.57
859.892	40.62
860.066	147.11
860.241	67.24
860.415	75.43
860.589	83.63
860.763	32.43
860.938	85.67
861.112	114.34
861.286	50.86
861.46	67.24
861.634	1.71
861.808	104.11
861.982	34.47
862.157	48.81
862.331	-22.87
862.505	26.28
862.679	59.05
862.853	89.77
863.027	97.96
863.201	134.82
863.375	24.23
863.549	36.52
863.722	73.39
863.896	48.81
864.07	69.29
864.244	71.34
864.418	145.06
864.592	52.91
864.766	54.95
864.939	36.52
865.113	-20.82
865.287	85.67
865.461	-65.88
865.634	108.2
865.808	-8.53
865.982	59.05
866.156	65.19
866.329	36.52
866.503	36.52
866.676	138.92
866.85	48.81
867.024	16.04
867.197	48.81
867.371	16.04
867.544	44.71
867.718	57
867.891	145.06
868.065	7.85
868.238	65.19
868.412	1.71
868.585	34.47
868.759	-10.58
868.932	38.57
869.105	-29.01
869.279	18.09
869.452	102.06
869.625	65.19
869.799	81.58
869.972	-14.68
870.145	77.48
870.319	100.01
870.492	32.43
870.665	65.19
870.838	-0.34
871.011	65.19
871.185	81.58
871.358	34.47
871.531	42.67
871.704	91.82
871.877	73.39
872.05	28.33
872.223	-8.53
872.396	32.43
872.569	87.72
872.742	-14.68
872.915	77.48
873.088	22.19
873.261	16.04
873.434	75.43
873.607	24.23
873.78	87.72
873.953	32.43
874.126	67.24
874.299	110.25
874.471	-59.73
874.644	54.95
874.817	48.81
874.99	97.96
875.163	11.95
875.335	32.43
875.508	65.19
875.681	130.73
875.853	-0.34
876.026	-2.39
876.199	114.34
876.371	36.52
876.544	-35.16
876.717	50.86
876.889	63.15
877.062	81.58
877.234	24.23
877.407	-0.34
877.579	57
877.752	83.63
877.924	-29.01
878.097	44.71
878.269	34.47
878.442	50.86
878.614	52.91
878.786	87.72
878.959	48.81
879.131	40.62
879.303	-59.73
879.476	65.19
879.648	110.25
879.82	42.67
879.993	5.8
880.165	87.72
880.337	-16.73
880.509	75.43
880.681	69.29
880.854	-43.35
881.026	75.43
881.198	124.58
881.37	9.9
881.542	-49.49
881.714	-39.25
881.886	-53.59
882.058	13.99
882.23	63.15
882.402	34.47
882.574	95.91
882.746	116.39
882.918	3.75
883.09	95.91
883.262	28.33
883.434	30.38
883.606	-0.34
883.778	30.38
883.95	161.45
884.122	-2.39
884.293	59.05
884.465	61.1
884.637	104.11
884.809	22.19
884.98	-14.68
885.152	44.71
885.324	71.34
885.496	-4.44
885.667	16.04
885.839	50.86
886.011	57
886.182	57
886.354	91.82
886.525	89.77
886.697	50.86
886.869	-24.92
887.04	44.71
887.212	22.19
887.383	151.21
887.555	67.24
887.726	-16.73
887.897	81.58
888.069	63.15
888.24	91.82
888.412	42.67
888.583	85.67
888.754	40.62
888.926	-8.53
889.097	59.05
889.268	-10.58
889.44	73.39
889.611	-24.92
889.782	32.43
889.953	-49.49
890.125	50.86
890.296	-63.83
890.467	48.81
890.638	46.76
890.809	13.99
890.98	-37.2
891.151	85.67
891.323	28.33
891.494	38.57
891.665	-0.34
891.836	18.09
892.007	44.71
892.178	91.82
892.349	40.62
892.52	-39.25
892.691	-29.01
892.862	32.43
893.032	95.91
893.203	83.63
893.374	-12.63
893.545	87.72
893.716	32.43
893.887	91.82
894.057	-22.87
894.228	97.96
894.399	11.95
894.57	52.91
894.74	7.85
894.911	-12.63
895.082	-12.63
895.253	-4.44
895.423	54.95
895.594	69.29
895.764	87.72
895.935	42.67
896.106	13.99
896.276	-16.73
896.447	32.43
896.617	48.81
896.788	24.23
896.958	97.96
897.129	24.23
897.299	-4.44
897.47	65.19
897.64	71.34
897.81	3.75
897.981	-39.25
898.151	3.75
898.322	18.09
898.492	-4.44
898.662	46.76
898.832	50.86
899.003	106.15
899.173	28.33
899.343	-12.63
899.513	-69.97
