Data from USB4F104151__28__13-04-46-968.txt Node

Date: Fri Mar 14 13:04:46 EDT 2025
User: louis
Spectrometer: USB4F10415
Trigger mode: 4
Integration Time (sec): 4.000000E-2
Scans to average: 1
Electric dark correction enabled: true
Nonlinearity correction enabled: false
Boxcar width: 0
XAxis mode: Wavelengths
Number of Pixels in Spectrum: 3648
>>>>>Begin Spectral Data<<<<<
178.204	-198.99
178.424	-198.99
178.644	-198.99
178.864	-129.36
179.084	-158.03
179.304	-18.77
179.524	1.71
179.744	1.71
179.964	24.23
180.184	-14.68
180.404	81.58
180.624	-33.11
180.844	-51.54
181.064	-10.58
181.283	42.67
181.503	-74.07
181.723	50.86
181.943	-63.83
182.163	175.78
182.383	91.82
182.602	48.81
182.822	38.57
183.042	18.09
183.262	22.19
183.482	30.38
183.701	-2.39
183.921	30.38
184.141	-33.11
184.361	134.82
184.58	-6.49
184.8	22.19
185.02	-39.25
185.239	63.15
185.459	95.91
185.679	91.82
185.898	-67.92
186.118	118.44
186.338	63.15
186.557	69.29
186.777	-51.54
186.997	28.33
187.216	104.11
187.436	95.91
187.655	44.71
187.875	89.77
188.095	61.1
188.314	7.85
188.534	95.91
188.753	11.95
188.973	46.76
189.192	112.3
189.412	61.1
189.631	89.77
189.851	-26.96
190.07	65.19
190.29	40.62
190.509	34.47
190.729	36.52
190.948	118.44
191.168	153.26
191.387	71.34
191.607	40.62
191.826	3.75
192.045	36.52
192.265	65.19
192.484	57
192.704	89.77
192.923	-24.92
193.142	120.49
193.362	42.67
193.581	69.29
193.8	69.29
194.02	95.91
194.239	1.71
194.458	48.81
194.678	67.24
194.897	69.29
195.116	63.15
195.335	44.71
195.555	57
195.774	5.8
195.993	50.86
196.212	83.63
196.432	67.24
196.651	52.91
196.87	73.39
197.089	188.07
197.308	46.76
197.528	36.52
197.747	-26.96
197.966	40.62
198.185	130.73
198.404	-4.44
198.623	79.53
198.842	85.67
199.062	69.29
199.281	73.39
199.5	-37.2
199.719	16.04
199.938	11.95
200.157	48.81
200.376	91.82
200.595	87.72
200.814	48.81
201.033	63.15
201.252	93.87
201.471	3.75
201.69	122.54
201.909	54.95
202.128	104.11
202.347	61.1
202.566	52.91
202.785	40.62
203.004	-14.68
203.223	112.3
203.442	9.9
203.661	-57.68
203.879	75.43
204.098	87.72
204.317	44.71
204.536	116.39
204.755	36.52
204.974	143.02
205.193	114.34
205.411	126.63
205.63	65.19
205.849	52.91
206.068	3.75
206.287	1.71
206.505	65.19
206.724	32.43
206.943	59.05
207.162	28.33
207.381	67.24
207.599	44.71
207.818	40.62
208.037	52.91
208.255	24.23
208.474	38.57
208.693	57
208.911	52.91
209.13	85.67
209.349	110.25
209.567	48.81
209.786	136.87
210.005	38.57
210.223	46.76
210.442	3.75
210.661	102.06
210.879	52.91
211.098	46.76
211.316	44.71
211.535	85.67
211.753	-35.16
211.972	65.19
212.191	83.63
212.409	16.04
212.628	40.62
212.846	-8.53
213.065	65.19
213.283	75.43
213.502	59.05
213.72	13.99
213.938	69.29
214.157	46.76
214.375	59.05
214.594	73.39
214.812	75.43
215.031	9.9
215.249	-0.34
215.467	-63.83
215.686	7.85
215.904	134.82
216.122	-0.34
216.341	102.06
216.559	44.71
216.778	122.54
216.996	3.75
217.214	95.91
217.432	52.91
217.651	87.72
217.869	1.71
218.087	28.33
218.306	-2.39
218.524	69.29
218.742	13.99
218.96	24.23
219.179	46.76
219.397	61.1
219.615	112.3
219.833	91.82
220.051	50.86
220.27	75.43
220.488	46.76
220.706	-20.82
220.924	-8.53
221.142	-0.34
221.36	16.04
221.578	85.67
221.796	22.19
222.015	-10.58
222.233	5.8
222.451	34.47
222.669	-8.53
222.887	87.72
223.105	36.52
223.323	-12.63
223.541	-57.68
223.759	116.39
223.977	65.19
224.195	128.68
224.413	124.58
224.631	24.23
224.849	38.57
225.067	87.72
225.285	-33.11
225.503	77.48
225.721	22.19
225.939	50.86
226.157	73.39
226.375	177.83
226.592	3.75
226.81	61.1
227.028	93.87
227.246	79.53
227.464	89.77
227.682	89.77
227.9	81.58
228.117	26.28
228.335	67.24
228.553	36.52
228.771	128.68
228.989	5.8
229.206	85.67
229.424	116.39
229.642	-16.73
229.86	-20.82
230.077	59.05
230.295	36.52
230.513	104.11
230.731	32.43
230.948	136.87
231.166	116.39
231.384	30.38
231.601	75.43
231.819	108.2
232.037	-4.44
232.254	7.85
232.472	32.43
232.689	-47.44
232.907	85.67
233.125	11.95
233.342	-16.73
233.56	11.95
233.777	28.33
233.995	42.67
234.213	85.67
234.43	38.57
234.648	-37.2
234.865	20.14
235.083	46.76
235.3	26.28
235.518	85.67
235.735	95.91
235.953	13.99
236.17	73.39
236.388	83.63
236.605	36.52
236.822	63.15
237.04	11.95
237.257	77.48
237.475	-6.49
237.692	-10.58
237.909	30.38
238.127	-4.44
238.344	54.95
238.562	20.14
238.779	-24.92
238.996	-4.44
239.214	42.67
239.431	52.91
239.648	38.57
239.865	67.24
240.083	26.28
240.3	52.91
240.517	34.47
240.735	36.52
240.952	77.48
241.169	13.99
241.386	38.57
241.603	42.67
241.821	24.23
242.038	89.77
242.255	69.29
242.472	11.95
242.689	30.38
242.907	71.34
243.124	-10.58
243.341	100.01
243.558	-51.54
243.775	-4.44
243.992	-47.44
244.209	63.15
244.426	120.49
244.643	118.44
244.86	-14.68
245.078	30.38
245.295	32.43
245.512	112.3
245.729	112.3
245.946	-18.77
246.163	57
246.38	7.85
246.597	52.91
246.814	32.43
247.031	3.75
247.248	22.19
247.464	7.85
247.681	54.95
247.898	3.75
248.115	48.81
248.332	28.33
248.549	77.48
248.766	112.3
248.983	85.67
249.2	52.91
249.417	71.34
249.633	-12.63
249.85	75.43
250.067	42.67
250.284	30.38
250.501	59.05
250.717	30.38
250.934	9.9
251.151	-16.73
251.368	26.28
251.585	79.53
251.801	34.47
252.018	30.38
252.235	97.96
252.451	3.75
252.668	7.85
252.885	128.68
253.102	61.1
253.318	73.39
253.535	-35.16
253.752	52.91
253.968	1.71
254.185	5.8
254.401	-10.58
254.618	104.11
254.835	-35.16
255.051	73.39
255.268	24.23
255.484	75.43
255.701	108.2
255.917	87.72
256.134	13.99
256.351	67.24
256.567	7.85
256.784	22.19
257	-86.36
257.217	79.53
257.433	36.52
257.65	93.87
257.866	108.2
258.082	52.91
258.299	18.09
258.515	118.44
258.732	77.48
258.948	7.85
259.165	42.67
259.381	20.14
259.597	85.67
259.814	61.1
260.03	30.38
260.246	22.19
260.463	71.34
260.679	69.29
260.895	85.67
261.112	138.92
261.328	128.68
261.544	13.99
261.761	110.25
261.977	40.62
262.193	32.43
262.409	91.82
262.626	87.72
262.842	57
263.058	16.04
263.274	-6.49
263.49	3.75
263.707	93.87
263.923	34.47
264.139	34.47
264.355	46.76
264.571	122.54
264.787	30.38
265.004	83.63
265.22	52.91
265.436	-10.58
265.652	24.23
265.868	79.53
266.084	22.19
266.3	1.71
266.516	-31.06
266.732	89.77
266.948	61.1
267.164	30.38
267.38	67.24
267.596	40.62
267.812	85.67
268.028	32.43
268.244	59.05
268.46	75.43
268.676	87.72
268.892	-33.11
269.108	7.85
269.324	7.85
269.54	38.57
269.756	63.15
269.972	11.95
270.188	5.8
270.403	7.85
270.619	71.34
270.835	48.81
271.051	52.91
271.267	20.14
271.483	-10.58
271.698	5.8
271.914	95.91
272.13	-20.82
272.346	42.67
272.562	16.04
272.777	85.67
272.993	59.05
273.209	28.33
273.425	95.91
273.64	11.95
273.856	75.43
274.072	26.28
274.287	-16.73
274.503	67.24
274.719	81.58
274.934	79.53
275.15	52.91
275.366	54.95
275.581	63.15
275.797	-35.16
276.012	-18.77
276.228	128.68
276.444	89.77
276.659	52.91
276.875	-16.73
277.09	116.39
277.306	61.1
277.521	134.82
277.737	30.38
277.952	52.91
278.168	-20.82
278.383	28.33
278.599	130.73
278.814	11.95
279.03	-4.44
279.245	65.19
279.461	-4.44
279.676	30.38
279.892	65.19
280.107	32.43
280.322	65.19
280.538	52.91
280.753	30.38
280.969	40.62
281.184	85.67
281.399	75.43
281.615	46.76
281.83	59.05
282.045	83.63
282.26	104.11
282.476	77.48
282.691	-2.39
282.906	46.76
283.122	36.52
283.337	28.33
283.552	69.29
283.767	48.81
283.983	63.15
284.198	50.86
284.413	-4.44
284.628	18.09
284.843	44.71
285.058	69.29
285.274	3.75
285.489	-51.54
285.704	61.1
285.919	-37.2
286.134	143.02
286.349	95.91
286.564	13.99
286.779	83.63
286.995	87.72
287.21	16.04
287.425	32.43
287.64	24.23
287.855	63.15
288.07	-31.06
288.285	85.67
288.5	138.92
288.715	11.95
288.93	16.04
289.145	20.14
289.36	100.01
289.575	65.19
289.79	120.49
290.004	30.38
290.219	134.82
290.434	30.38
290.649	5.8
290.864	87.72
291.079	48.81
291.294	81.58
291.509	-6.49
291.724	40.62
291.938	77.48
292.153	79.53
292.368	85.67
292.583	-12.63
292.798	48.81
293.012	93.87
293.227	-2.39
293.442	38.57
293.657	130.73
293.871	61.1
294.086	87.72
294.301	122.54
294.516	81.58
294.73	81.58
294.945	5.8
295.16	54.95
295.374	44.71
295.589	161.45
295.804	40.62
296.018	16.04
296.233	81.58
296.447	89.77
296.662	-33.11
296.877	59.05
297.091	61.1
297.306	38.57
297.52	-2.39
297.735	11.95
297.949	-2.39
298.164	-12.63
298.378	120.49
298.593	-37.2
298.807	20.14
299.022	42.67
299.236	108.2
299.451	26.28
299.665	38.57
299.88	-0.34
300.094	48.81
300.309	-39.25
300.523	54.95
300.737	44.71
300.952	95.91
301.166	110.25
301.381	20.14
301.595	-0.34
301.809	81.58
302.024	18.09
302.238	-35.16
302.452	69.29
302.667	20.14
302.881	79.53
303.095	126.63
303.309	95.91
303.524	40.62
303.738	97.96
303.952	32.43
304.166	69.29
304.381	-37.2
304.595	122.54
304.809	16.04
305.023	87.72
305.237	79.53
305.452	34.47
305.666	13.99
305.88	110.25
306.094	36.52
306.308	102.06
306.522	126.63
306.736	130.73
306.95	40.62
307.164	87.72
307.379	-39.25
307.593	120.49
307.807	122.54
308.021	46.76
308.235	50.86
308.449	-39.25
308.663	-29.01
308.877	153.26
309.091	44.71
309.305	110.25
309.519	7.85
309.733	87.72
309.947	-41.3
310.161	7.85
310.374	52.91
310.588	54.95
310.802	3.75
311.016	20.14
311.23	34.47
311.444	93.87
311.658	-8.53
311.872	126.63
312.085	85.67
312.299	104.11
312.513	77.48
312.727	34.47
312.941	-45.4
313.154	73.39
313.368	57
313.582	69.29
313.796	69.29
314.009	85.67
314.223	79.53
314.437	65.19
314.651	97.96
314.864	32.43
315.078	-8.53
315.292	1.71
315.505	9.9
315.719	30.38
315.933	67.24
316.146	69.29
316.36	22.19
316.573	93.87
316.787	73.39
317.001	59.05
317.214	26.28
317.428	9.9
317.641	-0.34
317.855	11.95
318.068	-12.63
318.282	61.1
318.495	173.74
318.709	40.62
318.922	13.99
319.136	136.87
319.349	75.43
319.563	-41.3
319.776	3.75
319.99	93.87
320.203	153.26
320.417	104.11
320.63	69.29
320.843	95.91
321.057	57
321.27	13.99
321.483	54.95
321.697	85.67
321.91	59.05
322.124	50.86
322.337	16.04
322.55	20.14
322.763	77.48
322.977	-10.58
323.19	20.14
323.403	102.06
323.617	67.24
323.83	126.63
324.043	57
324.256	44.71
324.469	5.8
324.683	120.49
324.896	30.38
325.109	30.38
325.322	24.23
325.535	95.91
325.748	112.3
325.962	73.39
326.175	52.91
326.388	73.39
326.601	126.63
326.814	73.39
327.027	65.19
327.24	175.78
327.453	-18.77
327.666	79.53
327.879	46.76
328.092	87.72
328.305	91.82
328.518	22.19
328.731	42.67
328.944	100.01
329.157	110.25
329.37	20.14
329.583	114.34
329.796	75.43
330.009	-14.68
330.222	-8.53
330.435	3.75
330.648	79.53
330.861	38.57
331.073	93.87
331.286	7.85
331.499	46.76
331.712	34.47
331.925	-24.92
332.138	18.09
332.35	75.43
332.563	36.52
332.776	85.67
332.989	9.9
333.202	24.23
333.414	13.99
333.627	83.63
333.84	73.39
334.053	75.43
334.265	18.09
334.478	69.29
334.691	81.58
334.903	28.33
335.116	87.72
335.329	-18.77
335.541	28.33
335.754	202.41
335.966	52.91
336.179	46.76
336.392	57
336.604	36.52
336.817	36.52
337.029	93.87
337.242	20.14
337.454	89.77
337.667	30.38
337.88	159.4
338.092	79.53
338.305	143.02
338.517	100.01
338.729	38.57
338.942	85.67
339.154	7.85
339.367	-59.73
339.579	95.91
339.792	24.23
340.004	24.23
340.217	44.71
340.429	126.63
340.641	-16.73
340.854	-6.49
341.066	114.34
341.278	161.45
341.491	46.76
341.703	102.06
341.915	-39.25
342.128	18.09
342.34	61.1
342.552	-18.77
342.764	42.67
342.977	24.23
343.189	77.48
343.401	38.57
343.613	-2.39
343.826	38.57
344.038	104.11
344.25	-0.34
344.462	52.91
344.674	38.57
344.886	26.28
345.099	81.58
345.311	7.85
345.523	11.95
345.735	52.91
345.947	73.39
346.159	-0.34
346.371	38.57
346.583	93.87
346.795	200.36
347.007	65.19
347.219	93.87
347.431	46.76
347.643	124.58
347.855	-18.77
348.067	106.15
348.279	-86.36
348.491	24.23
348.703	120.49
348.915	24.23
349.127	85.67
349.339	147.11
349.551	50.86
349.763	93.87
349.975	-65.88
350.187	18.09
350.399	93.87
350.61	118.44
350.822	61.1
351.034	77.48
351.246	145.06
351.458	46.76
351.669	97.96
351.881	26.28
352.093	77.48
352.305	48.81
352.517	108.2
352.728	77.48
352.94	169.64
353.152	61.1
353.363	75.43
353.575	61.1
353.787	75.43
353.999	102.06
354.21	130.73
354.422	-2.39
354.633	7.85
354.845	18.09
355.057	57
355.268	71.34
355.48	87.72
355.692	40.62
355.903	118.44
356.115	24.23
356.326	-55.64
356.538	77.48
356.749	73.39
356.961	122.54
357.172	134.82
357.384	34.47
357.595	104.11
357.807	118.44
358.018	28.33
358.23	106.15
358.441	52.91
358.653	93.87
358.864	106.15
359.075	52.91
359.287	38.57
359.498	104.11
359.709	-20.82
359.921	20.14
360.132	38.57
360.344	13.99
360.555	36.52
360.766	79.53
360.977	48.81
361.189	87.72
361.4	38.57
361.611	161.45
361.823	42.67
362.034	71.34
362.245	-4.44
362.456	106.15
362.667	-2.39
362.879	22.19
363.09	36.52
363.301	93.87
363.512	22.19
363.723	44.71
363.935	79.53
364.146	108.2
364.357	52.91
364.568	95.91
364.779	-57.68
364.99	128.68
365.201	65.19
365.412	118.44
365.623	28.33
365.834	24.23
366.045	63.15
366.256	106.15
366.467	20.14
366.678	40.62
366.889	34.47
367.1	46.76
367.311	136.87
367.522	75.43
367.733	44.71
367.944	104.11
368.155	44.71
368.366	69.29
368.577	104.11
368.788	110.25
368.999	106.15
369.209	67.24
369.42	130.73
369.631	224.94
369.842	110.25
370.053	30.38
370.264	102.06
370.474	73.39
370.685	89.77
370.896	110.25
371.107	140.97
371.317	120.49
371.528	52.91
371.739	22.19
371.95	87.72
372.16	83.63
372.371	65.19
372.582	22.19
372.792	110.25
373.003	59.05
373.214	79.53
373.424	102.06
373.635	9.9
373.846	120.49
374.056	20.14
374.267	102.06
374.477	71.34
374.688	48.81
374.898	7.85
375.109	46.76
375.319	40.62
375.53	110.25
375.74	91.82
375.951	57
376.161	104.11
376.372	110.25
376.582	42.67
376.793	118.44
377.003	-14.68
377.214	5.8
377.424	46.76
377.635	87.72
377.845	40.62
378.055	46.76
378.266	20.14
378.476	-10.58
378.686	77.48
378.897	81.58
379.107	163.5
379.317	145.06
379.528	89.77
379.738	114.34
379.948	50.86
380.158	71.34
380.369	77.48
380.579	48.81
380.789	63.15
380.999	65.19
381.21	77.48
381.42	128.68
381.63	52.91
381.84	95.91
382.05	138.92
382.261	200.36
382.471	100.01
382.681	7.85
382.891	89.77
383.101	63.15
383.311	73.39
383.521	-26.96
383.731	57
383.941	65.19
384.151	83.63
384.361	36.52
384.571	67.24
384.781	7.85
384.991	143.02
385.201	124.58
385.411	93.87
385.621	120.49
385.831	-12.63
386.041	67.24
386.251	71.34
386.461	102.06
386.671	102.06
386.881	81.58
387.091	61.1
387.301	91.82
387.511	85.67
387.72	114.34
387.93	132.78
388.14	30.38
388.35	67.24
388.56	126.63
388.769	54.95
388.979	-20.82
389.189	54.95
389.399	63.15
389.609	67.24
389.818	171.69
390.028	91.82
390.238	79.53
390.447	1.71
390.657	63.15
390.867	46.76
391.076	140.97
391.286	155.3
391.496	100.01
391.705	5.8
391.915	149.16
392.125	95.91
392.334	83.63
392.544	138.92
392.753	93.87
392.963	46.76
393.172	61.1
393.382	13.99
393.591	216.74
393.801	69.29
394.01	77.48
394.22	71.34
394.429	134.82
394.639	114.34
394.848	155.3
395.058	71.34
395.267	108.2
395.477	224.94
395.686	83.63
395.895	114.34
396.105	167.59
396.314	149.16
396.524	108.2
396.733	159.4
396.942	57
397.152	97.96
397.361	169.64
397.57	114.34
397.78	112.3
397.989	102.06
398.198	183.98
398.407	102.06
398.617	147.11
398.826	153.26
399.035	145.06
399.244	173.74
399.453	151.21
399.663	110.25
399.872	200.36
400.081	16.04
400.29	93.87
400.499	140.97
400.708	36.52
400.917	118.44
401.127	120.49
401.336	102.06
401.545	208.55
401.754	161.45
401.963	145.06
402.172	110.25
402.381	81.58
402.59	104.11
402.799	87.72
403.008	124.58
403.217	102.06
403.426	147.11
403.635	61.1
403.844	145.06
404.053	181.93
404.262	120.49
404.471	253.61
404.68	177.83
404.888	155.3
405.097	83.63
405.306	179.88
405.515	143.02
405.724	188.07
405.933	216.74
406.142	202.41
406.35	208.55
406.559	143.02
406.768	208.55
406.977	233.13
407.185	173.74
407.394	200.36
407.603	251.56
407.812	183.98
408.02	267.94
408.229	222.89
408.438	278.18
408.646	157.35
408.855	251.56
409.064	321.19
409.272	253.61
409.481	290.47
409.69	267.94
409.898	267.94
410.107	249.51
410.315	390.82
410.524	335.53
410.733	360.1
410.941	378.53
411.15	394.92
411.358	382.63
411.567	470.69
411.775	439.97
411.984	427.68
412.192	433.83
412.401	413.35
412.609	501.41
412.818	603.81
413.026	548.51
413.234	478.88
413.443	609.95
413.651	583.33
413.86	519.84
414.068	591.52
414.276	720.54
414.485	554.66
414.693	700.06
414.901	736.93
415.11	736.93
415.318	728.74
415.526	820.89
415.734	757.41
415.943	732.83
416.151	812.7
416.359	767.65
416.567	960.16
416.776	994.97
416.984	939.68
417.192	1033.88
417.4	997.02
417.608	827.04
417.817	1011.36
418.025	1031.83
418.233	1146.52
418.441	1171.1
418.649	1183.38
418.857	1326.74
419.065	1214.1
419.273	1310.36
419.481	1296.02
419.689	1355.41
419.897	1535.64
420.105	1486.48
420.313	1554.07
420.521	1611.41
420.729	1687.18
420.937	1719.95
421.145	1724.05
421.353	1797.78
421.561	1865.36
421.769	1863.31
421.977	1889.93
422.185	1953.42
422.393	2076.3
422.601	2287.24
422.809	2344.58
423.017	2225.8
423.224	2289.29
423.432	2461.32
423.64	2467.46
423.848	2684.55
424.056	2647.68
424.263	2774.66
424.471	2733.7
424.679	2905.73
424.887	3014.27
425.094	2981.5
425.302	3053.18
425.51	3280.5
425.718	3337.85
425.925	3309.18
426.133	3421.81
426.341	3624.56
426.548	3806.83
426.756	3886.7
426.964	3896.94
427.171	4122.22
427.379	4245.1
427.586	4163.18
427.794	4378.22
428.001	4646.5
428.209	4757.09
428.417	4652.64
428.624	5144.16
428.832	5037.66
429.039	5023.33
429.247	5006.94
429.454	5494.36
429.662	6032.97
429.869	5611.09
430.076	5822.03
430.284	5699.16
430.491	6051.41
430.699	6295.11
430.906	6155.85
431.114	6497.86
431.321	6534.73
431.528	6686.28
431.736	7056.96
431.943	7378.49
432.15	7417.4
432.358	7409.21
432.565	7941.68
432.772	7618.1
432.979	8138.29
433.187	8486.44
433.394	8527.4
433.601	8922.66
433.808	8750.63
434.016	9080.35
434.223	9229.85
434.43	9770.52
434.637	9637.4
434.844	10370.57
435.052	10495.5
435.259	10354.19
435.466	10425.87
435.673	10489.35
435.88	10829.32
436.087	11619.83
436.294	11548.15
436.501	11277.82
436.708	11597.31
436.915	11931.12
437.122	12527.08
437.329	12471.79
437.537	12897.77
437.743	13194.72
437.95	12893.67
438.157	13786.58
438.364	13977.05
438.571	13966.81
438.778	14249.43
438.985	15463.87
439.192	14824.9
439.399	15068.61
439.606	15257.03
439.813	15908.28
440.02	16786.86
440.227	16721.32
440.433	16424.37
440.64	16993.7
440.847	17155.49
441.054	17540.51
441.261	18642.32
441.467	18267.54
441.674	18728.33
441.881	19193.22
442.088	19185.03
442.294	18994.57
442.501	19387.78
442.708	20059.51
442.914	20600.18
443.121	21843.29
443.328	20903.28
443.534	22404.44
443.741	21806.43
443.948	21661.02
444.154	23035.21
444.361	23072.07
444.568	23399.75
444.774	23483.72
444.981	23506.24
445.187	24278.33
445.394	25146.67
445.6	24948.01
445.807	27135.24
446.013	26414.36
446.22	26420.5
446.426	27686.15
446.633	28005.63
446.839	29007.09
447.046	27602.18
447.252	29461.74
447.459	29015.28
447.665	29250.8
447.871	30274.78
448.078	31788.23
448.284	30223.58
448.491	31016.15
448.697	32019.65
448.903	32847.03
449.11	33172.66
449.316	32218.3
449.522	32926.9
449.728	33987.75
449.935	34569.37
450.141	34387.1
450.347	35122.32
450.553	33995.94
450.76	34782.36
450.966	35454.09
451.172	34913.43
451.378	36060.29
451.584	35421.33
451.791	36064.39
451.997	35994.76
452.203	36742.27
452.409	36852.86
452.615	36707.45
452.821	35353.74
453.027	35159.19
453.233	36904.06
453.44	35624.08
453.646	35525.77
453.852	36045.96
454.058	36820.09
454.264	35423.37
454.47	36168.83
454.676	35044.5
454.882	36697.21
455.088	33631.4
455.294	33981.6
455.5	34454.68
455.705	34888.85
455.911	33340.59
456.117	32525.5
456.323	32386.24
456.529	30694.61
456.735	32126.14
456.941	31474.89
457.147	30784.72
457.352	29830.37
457.558	29424.87
457.764	29693.16
457.97	29129.97
458.176	28525.82
458.381	28323.07
458.587	27053.33
458.793	27032.85
458.999	25507.11
459.204	27464.97
459.41	26631.44
459.616	24902.96
459.821	25130.28
460.027	24780.08
460.233	24130.87
460.438	23414.09
460.644	23285.06
460.85	22234.46
461.055	21779.81
461.261	21798.24
461.466	20512.11
461.672	19580.29
461.878	21005.67
462.083	19756.41
462.289	19561.86
462.494	18982.28
462.7	18007.45
462.905	17571.23
463.111	18394.51
463.316	18333.07
463.522	17923.48
463.727	18224.53
463.932	17943.96
464.138	17835.42
464.343	17735.07
464.549	17286.56
464.754	17651.1
464.959	17880.47
465.165	17630.62
465.37	16805.29
465.575	16506.29
465.781	17214.88
465.986	17079.72
466.191	16211.38
466.397	16311.73
466.602	15254.98
466.807	15971.77
467.012	16108.98
467.218	16020.92
467.423	15959.48
467.628	15836.6
467.833	16606.64
468.038	15869.37
468.244	15416.77
468.449	16199.09
468.654	15295.94
468.859	15349.18
469.064	15433.15
469.269	14859.72
469.474	15076.8
469.679	15216.07
469.885	14642.64
470.09	14706.12
470.295	14841.29
470.5	14462.41
470.705	14685.64
470.91	14308.82
471.115	14089.68
471.32	14337.49
471.525	14314.96
471.73	13944.28
471.935	13954.52
472.139	13444.57
472.344	13577.69
472.549	13538.78
472.754	13438.43
472.959	13379.04
473.164	12789.22
473.369	12500.46
473.574	13041.12
473.778	13069.8
473.983	12658.15
474.188	12641.77
474.393	12240.37
474.598	12269.04
474.802	12291.57
475.007	12193.26
475.212	12326.38
475.417	11490.81
475.621	11634.17
475.826	11654.65
476.031	11576.83
476.235	11259.39
476.44	11441.66
476.645	11275.77
476.849	10857.99
477.054	11298.3
477.259	10997.25
477.463	10941.96
477.668	10565.13
477.872	10731.01
478.077	10546.7
478.282	10221.07
478.486	10262.03
478.691	10149.39
478.895	10044.95
479.1	10206.73
479.304	10210.83
479.509	9709.08
479.713	10096.14
479.918	9731.61
480.122	9498.14
480.326	9635.35
480.531	9840.15
480.735	9829.91
480.94	9635.35
481.144	9868.82
481.348	9203.23
481.553	9635.35
481.757	9358.88
481.961	9401.88
482.166	9651.74
482.37	9459.23
482.574	9309.72
482.778	9313.82
482.983	9532.95
483.187	9252.38
483.391	9405.98
483.595	9428.51
483.8	9311.77
484.004	9317.92
484.208	9379.36
484.412	9311.77
484.616	9291.29
484.821	9160.22
485.025	9236
485.229	9305.63
485.433	9149.98
485.637	9190.94
485.841	9279.01
486.045	9172.51
486.249	9340.44
486.453	9213.47
486.657	9223.71
486.861	9389.6
487.065	8949.28
487.269	9385.5
487.473	9059.87
487.677	9242.14
487.881	9547.29
488.085	9211.42
488.289	9297.44
488.493	9197.09
488.697	9383.45
488.901	9322.01
489.105	9309.72
489.309	9436.7
489.512	9485.85
489.716	9377.31
489.92	9444.89
490.124	9418.27
490.328	9473.56
490.531	9451.03
490.735	9469.47
490.939	9444.89
491.143	9444.89
491.346	9387.55
491.55	9569.82
491.754	9827.86
491.958	9629.21
492.161	9819.67
492.365	9754.13
492.569	9735.7
492.772	9850.39
492.976	9815.57
493.18	9930.26
493.383	10102.29
493.587	10214.93
493.79	10202.64
493.994	10145.3
494.197	10055.19
494.401	10223.12
494.605	10280.46
494.808	10434.06
495.012	10591.75
495.215	10708.49
495.419	10587.66
495.622	10579.47
495.825	10575.37
496.029	10763.78
496.232	10925.57
496.436	11030.02
496.639	11140.61
496.843	11259.39
497.046	11288.06
497.249	11458.04
497.453	11496.96
497.656	11589.11
497.859	11595.26
498.063	11812.34
498.266	11851.25
498.469	11785.72
498.673	12228.08
498.876	12387.82
499.079	12504.56
499.282	12301.81
499.485	12959.2
499.689	12531.18
499.892	12885.48
500.095	12885.48
500.298	13413.85
500.501	12889.57
500.705	13436.38
500.908	13532.64
501.111	13510.11
501.314	14003.67
501.517	14073.3
501.72	14138.83
501.923	14230.99
502.126	14370.26
502.329	14933.45
502.532	14867.91
502.735	14874.06
502.938	15334.85
503.141	15330.75
503.344	15611.32
503.547	15478.21
503.75	15748.54
503.953	15998.39
504.156	16061.88
504.359	16262.58
504.562	15996.34
504.765	16659.88
504.968	16743.85
505.17	16975.27
505.373	16879.02
505.576	17364.39
505.779	17434.02
505.982	17647.01
506.185	17964.44
506.387	17946.01
506.59	18550.16
506.793	18365.84
506.996	18509.2
507.198	18986.38
507.401	18888.07
507.604	19041.67
507.807	19512.7
508.009	19551.62
508.212	19479.94
508.415	19756.41
508.617	20340.08
508.82	20125.05
509.022	19836.28
509.225	20563.31
509.428	20911.47
509.63	21015.91
509.833	21273.96
510.035	21613.92
510.238	21376.36
510.44	21802.33
510.643	21841.25
510.845	21996.89
511.048	21941.6
511.25	22400.34
511.453	22455.64
511.655	23332.17
511.858	23246.15
512.06	23522.63
512.262	23653.7
512.465	23498.05
512.667	24055.1
512.87	24167.74
513.072	24376.63
513.274	24749.36
513.477	24964.4
513.679	25161
513.881	25304.36
514.084	25660.71
514.286	25455.91
514.488	25785.63
514.69	26754.32
514.893	26488.09
515.095	26682.64
515.297	26952.98
515.499	27299.08
515.701	27344.14
515.904	27591.94
516.106	27632.9
516.308	28302.59
516.51	28337.4
516.712	28429.56
516.914	28921.07
517.116	29441.26
517.318	29220.08
517.52	29678.82
517.722	29707.49
517.925	30006.5
518.127	30653.65
518.329	30670.04
518.531	30446.81
518.733	30946.51
518.935	31046.86
519.136	31204.56
519.338	31470.79
519.54	31843.52
519.742	32218.3
519.944	32316.61
520.146	32865.46
520.348	32849.08
520.55	33170.61
520.752	33430.7
520.954	34022.56
521.155	33338.54
521.357	34342.05
521.559	34335.9
521.761	34550.94
521.963	34987.16
522.164	34935.96
522.366	35249.3
522.568	35716.23
522.77	35736.71
522.971	35878.02
523.173	36015.24
523.375	36469.89
523.576	36340.86
523.778	36564.09
523.98	37026.93
524.181	37375.09
524.383	37414
524.584	37655.66
524.786	37493.87
524.988	37653.61
525.189	37891.18
525.391	38714.46
525.592	38548.57
525.794	38362.21
525.995	38573.15
526.197	38413.41
526.398	38966.36
526.6	38964.31
526.801	39414.87
527.003	39871.56
527.204	39502.93
527.406	39742.54
527.607	40039.5
527.808	40266.82
528.01	39726.16
528.211	40127.56
528.412	40832.06
528.614	40672.32
528.815	40881.21
529.016	41219.13
529.218	40299.59
529.419	40940.6
529.62	40803.39
529.822	41020.47
530.023	41137.21
530.224	41251.89
530.425	41153.59
530.626	41212.98
530.828	41149.49
531.029	42087.46
531.23	41311.28
531.431	41425.97
531.632	41784.37
531.833	42042.41
532.035	41839.66
532.236	41704.49
532.437	42204.2
532.638	41684.01
532.839	42128.42
533.04	42517.54
533.241	41485.36
533.442	42339.36
533.643	42204.2
533.844	42513.44
534.045	42415.14
534.246	42009.64
534.447	42122.28
534.648	42392.61
534.849	42107.94
535.05	42208.29
535.251	42212.39
535.451	42429.48
535.652	42980.38
535.853	42249.25
536.054	42734.62
536.255	42378.28
536.456	42165.29
536.657	42904.6
536.857	42540.07
537.058	42345.51
537.259	42861.6
537.46	42574.88
537.66	42185.77
537.861	42447.91
538.062	42130.47
538.263	42347.56
538.463	42492.96
538.664	42511.39
538.865	42511.39
539.065	43232.28
539.266	42320.93
539.466	42720.29
539.667	42230.82
539.868	42593.31
540.068	42345.51
540.269	42261.54
540.469	42544.16
540.67	42413.09
540.87	42322.98
541.071	42556.45
541.271	42325.03
541.472	42472.48
541.672	42523.68
541.873	42095.66
542.073	41673.77
542.274	42589.22
542.474	42628.13
542.675	42023.98
542.875	42595.36
543.075	42587.17
543.276	42017.83
543.476	42855.45
543.676	41837.61
543.877	42755.1
544.077	42163.24
544.277	41806.89
544.478	42288.17
544.678	42277.93
544.878	41987.11
545.078	42329.12
545.279	42241.06
545.479	41720.88
545.679	42023.98
545.879	42046.51
546.079	41815.08
546.28	42064.94
546.48	41911.34
546.68	42443.81
546.88	41980.97
547.08	41995.31
547.28	41991.21
547.48	41915.44
547.68	41878.57
547.88	41876.52
548.081	42458.15
548.281	41802.8
548.481	41774.13
548.681	41872.43
548.881	41948.2
549.081	42142.76
549.28	41864.24
549.48	42212.39
549.68	41929.77
549.88	42529.83
550.08	42013.74
550.28	42087.46
550.48	41770.03
550.68	42046.51
550.88	41649.2
551.08	41661.49
551.279	42030.12
551.479	41460.79
551.679	42222.63
551.879	41716.78
552.079	42036.27
552.278	41393.2
552.478	41659.44
552.678	41456.69
552.878	41571.38
553.077	41720.88
553.277	40971.32
553.477	41987.11
553.676	41487.41
553.876	41862.19
554.076	41552.94
554.275	41540.66
554.475	41053.24
554.674	41399.35
554.874	41157.69
555.074	41098.3
555.273	41620.53
555.473	41397.3
555.672	40932.41
555.872	40995.9
556.071	41114.68
556.271	41116.73
556.47	40821.82
556.67	40852.54
556.869	41129.02
557.068	40983.61
557.268	40678.46
557.467	40727.61
557.667	40950.84
557.866	40598.59
558.065	41018.42
558.265	40662.08
558.464	40340.55
558.663	40866.88
558.863	40055.88
559.062	40911.93
559.261	40180.81
559.461	40870.97
559.66	39930.95
559.859	40213.57
560.058	39611.47
560.258	40270.92
560.457	39957.58
560.656	39912.52
560.855	39543.89
561.054	39777.36
561.253	39730.25
561.453	40037.45
561.652	39648.33
561.851	39976.01
562.05	39656.53
562.249	39365.71
562.448	39748.68
562.647	39261.27
562.846	39017.56
563.045	39193.68
563.244	38909.02
563.443	39388.24
563.642	38575.2
563.841	38866.01
564.04	38704.22
564.239	38894.68
564.438	38751.32
564.637	38933.59
564.836	38736.99
565.035	38261.86
565.234	38247.52
565.432	38292.58
565.631	38298.72
565.83	38354.02
566.029	38282.34
566.228	38192.23
566.427	37995.62
566.625	37684.33
566.824	37663.85
567.023	37944.42
567.222	37182.58
567.42	37899.37
567.619	37409.9
567.818	37467.25
568.016	37350.51
568.215	37688.43
568.414	37479.53
568.612	37264.5
568.811	36824.18
569.01	36936.82
569.208	36402.3
569.407	36840.57
569.605	36820.09
569.804	36961.4
570.002	36342.91
570.201	36322.43
570.4	36164.74
570.598	35894.41
570.797	36013.19
570.995	36437.12
571.193	35744.91
571.392	36291.71
571.59	35792.01
571.789	35689.61
571.987	35587.21
572.186	35656.84
572.384	35355.79
572.582	35630.22
572.781	35640.46
572.979	35001.49
573.177	34997.4
573.376	35030.16
573.574	34872.47
573.772	35273.87
573.971	34790.55
574.169	34436.25
574.367	34321.57
574.565	34874.52
574.763	34333.85
574.962	34198.69
575.16	34006.18
575.358	34387.1
575.556	33698.98
575.754	33877.16
575.952	34020.52
576.151	34073.76
576.349	33639.59
576.547	33483.95
576.745	33676.46
576.943	33578.15
577.141	33389.74
577.339	33504.43
577.537	33324.21
577.735	32928.95
577.933	32928.95
578.131	32978.1
578.329	33209.52
578.527	32611.51
578.725	32693.43
578.923	33049.78
579.121	32652.47
579.319	32482.49
579.516	32808.12
579.714	32539.83
579.912	32249.02
580.11	32310.46
580.308	32373.95
580.506	31986.88
580.704	31829.19
580.901	32027.84
581.099	32386.24
581.297	31890.63
581.495	31702.21
581.692	31962.31
581.89	31374.54
582.088	31640.78
582.285	31341.77
582.483	31648.97
582.681	31327.44
582.878	31290.57
583.076	30852.31
583.274	31255.76
583.471	30870.74
583.669	30921.94
583.866	30690.52
584.064	30737.62
584.262	30430.43
584.459	30629.08
584.657	30362.84
584.854	30643.42
585.052	30014.69
585.249	30426.33
585.447	30491.87
585.644	30084.32
585.841	30287.07
586.039	30211.29
586.236	29793.51
586.434	29928.67
586.631	29363.43
586.828	29412.59
587.026	29635.81
587.223	29312.24
587.42	29347.05
587.618	29338.86
587.815	28957.94
588.012	28869.87
588.21	28841.2
588.407	29185.26
588.604	28581.11
588.801	28493.05
588.999	28632.31
589.196	28429.56
589.393	28603.64
589.59	28269.82
589.787	28441.85
589.984	28005.63
590.182	28161.28
590.379	28126.46
590.576	28007.68
590.773	28081.41
590.97	27987.2
591.167	28151.04
591.364	27673.86
591.561	27739.4
591.758	27045.13
591.955	27309.32
592.152	27555.08
592.349	27270.41
592.546	27098.38
592.743	27479.3
592.94	26813.71
593.137	27313.42
593.334	27194.64
593.531	26621.2
593.727	26995.98
593.924	27311.37
594.121	26539.29
594.318	26680.6
594.515	26160.41
594.712	26572.05
594.908	25992.48
595.105	26391.83
595.302	26311.96
595.499	26404.12
595.696	26258.71
595.892	25761.06
596.089	25951.52
596.286	25953.57
596.482	25820.45
596.679	25660.71
596.876	25816.35
597.072	25554.21
597.269	25591.08
597.466	25210.15
597.662	25470.25
597.859	25216.3
598.055	25226.54
598.252	24823.09
598.448	25122.09
598.645	24513.84
598.841	24540.47
599.038	24851.76
599.234	24780.08
599.431	24360.25
599.627	24511.8
599.824	24513.84
600.02	24245.56
600.217	24372.53
600.413	24059.2
600.609	23926.08
600.806	24186.17
601.002	24511.8
601.198	23717.18
601.395	23803.2
601.591	23614.79
601.787	24104.25
601.984	23520.58
602.18	24157.5
602.376	23217.48
602.572	23403.85
602.769	23553.35
602.965	23131.47
603.161	23700.8
603.357	23254.34
603.553	22959.44
603.75	23178.57
603.946	22969.68
604.142	23192.9
604.338	22969.68
604.534	23186.76
604.73	22969.68
604.926	22424.92
605.122	22680.91
605.318	22523.22
605.514	22609.23
605.71	22494.55
605.906	22504.79
606.102	22390.1
606.298	22449.49
606.494	22197.59
606.69	22512.98
606.886	22256.98
607.082	21734.75
607.278	22011.23
607.474	21638.5
607.67	22164.82
607.866	21656.93
608.062	21831.01
608.257	21744.99
608.453	21742.94
608.649	21923.16
608.845	21362.02
609.041	21501.28
609.236	21591.39
609.432	21556.58
609.628	21411.17
609.824	21464.42
610.019	21171.56
610.215	21478.75
610.411	21431.65
610.606	21130.6
610.802	21249.38
610.998	21183.85
611.193	20923.76
611.389	21142.89
611.584	20909.42
611.78	20731.25
611.976	20864.36
612.171	20903.28
612.367	20788.59
612.562	20530.55
612.758	20335.99
612.953	20467.06
613.149	20835.69
613.344	20434.29
613.539	20632.94
613.735	20802.93
613.93	20624.75
614.126	20223.35
614.321	20794.73
614.517	20764.01
614.712	19983.74
614.907	20104.57
615.103	20309.36
615.298	20008.31
615.493	20116.86
615.688	19654.01
615.884	20395.38
616.079	19817.85
616.274	20100.47
616.47	20006.27
616.665	19854.72
616.86	19860.86
617.055	19957.11
617.25	19901.82
617.445	19670.4
617.641	19506.56
617.836	19611.01
618.031	19596.67
618.226	19533.18
618.421	19211.65
618.616	19635.58
618.811	19260.8
619.006	19496.32
619.201	19101.06
619.396	19338.63
619.591	18875.79
619.786	19131.78
619.981	19123.59
620.176	19213.7
620.371	18613.65
620.566	18548.11
620.761	18539.92
620.956	18881.93
621.151	18490.77
621.346	18531.73
621.541	18159
621.735	18619.79
621.93	18083.22
622.125	18347.41
622.32	17833.37
622.515	18013.59
622.709	17681.82
622.904	17982.87
623.099	17601.95
623.294	17540.51
623.488	17378.72
623.683	17544.61
623.878	17165.73
624.072	17395.11
624.267	17042.85
624.462	16838.06
624.656	16876.97
624.851	17110.44
625.046	16465.33
625.24	16766.38
625.435	16358.83
625.629	16520.62
625.824	16651.69
626.018	16457.14
626.213	16111.03
626.407	16170.42
626.602	15898.04
626.796	16317.87
626.991	15895.99
627.185	15902.14
627.38	15885.75
627.574	15697.34
627.768	15523.26
627.963	15586.75
628.157	15369.66
628.352	15216.07
628.546	15089.09
628.74	15027.65
628.935	15214.02
629.129	15019.46
629.323	14876.1
629.517	14708.17
629.712	14767.56
629.906	14865.86
630.1	14409.17
630.294	14556.62
630.489	14577.1
630.683	14454.22
630.877	14161.36
631.071	14112.21
631.265	14093.78
631.459	14163.41
631.653	13809.11
631.848	13948.37
632.042	14099.92
632.236	13616.6
632.43	13518.3
632.624	13448.67
632.818	13663.71
633.012	13614.55
633.206	13362.65
633.4	13565.4
633.594	13172.19
633.788	13252.06
633.982	13174.24
634.176	12942.82
634.369	13204.96
634.563	13125.09
634.757	12940.77
634.951	12658.15
635.145	12961.25
635.339	12774.89
635.533	12563.95
635.726	12635.63
635.92	12187.12
636.114	12420.59
636.308	12371.44
636.501	12359.15
636.695	12457.45
636.889	12160.5
637.083	12101.11
637.276	11978.23
637.47	12084.72
637.664	11937.27
637.857	12033.52
638.051	11785.72
638.244	11730.42
638.438	11722.23
638.632	11580.92
638.825	11726.33
639.019	11505.15
639.212	11421.18
639.406	11529.72
639.599	11312.64
639.793	11384.32
639.986	11062.79
640.18	11169.28
640.373	11081.22
640.567	11017.73
640.76	11165.18
640.954	10806.79
641.147	10733.06
641.34	10751.49
641.534	10604.04
641.727	10767.88
641.92	10585.61
642.114	10608.14
642.307	10669.58
642.5	10309.13
642.694	10214.93
642.887	10305.04
643.08	10417.68
643.273	10278.41
643.467	10282.51
643.66	10176.02
643.853	10098.19
644.046	10063.38
644.239	10018.32
644.432	9864.72
644.626	9569.82
644.819	9862.68
645.012	9733.65
645.205	9850.39
645.398	9901.59
645.591	9469.47
645.784	9731.61
645.977	9537.05
646.17	9541.15
646.363	9487.9
646.556	9180.7
646.749	9416.22
646.942	9250.33
647.135	9362.97
647.328	9309.72
647.521	9190.94
647.714	9106.98
647.907	9162.27
648.099	8982.05
648.292	9045.54
648.485	8910.37
648.678	8783.4
648.871	8996.39
649.064	8668.71
649.256	8791.59
649.449	8744.49
649.642	8531.5
649.835	8535.59
650.027	8547.88
650.22	8422.95
650.413	8379.95
650.605	8224.3
650.798	8396.33
650.991	8478.25
651.183	8287.79
651.376	8279.6
651.568	8298.03
651.761	8164.91
651.954	8289.84
652.146	8117.81
652.339	8046.13
652.531	8015.41
652.724	7966.26
652.916	7697.97
653.109	7892.53
653.301	7853.62
653.494	7796.28
653.686	7601.72
653.879	7988.78
654.071	7796.28
654.263	7843.38
654.456	7659.06
654.648	7638.58
654.84	7419.45
655.033	7417.4
655.225	7616.05
655.417	7333.43
655.61	7489.08
655.802	7542.33
655.994	7261.76
656.186	7286.33
656.379	7341.63
656.571	7161.41
656.763	7136.83
656.955	7124.54
657.148	7024.19
657.34	7257.66
657.532	7011.9
657.724	6936.13
657.916	7018.05
658.108	6893.12
658.3	6782.53
658.492	6905.41
658.684	6780.48
658.876	6737.48
659.068	6635.08
659.26	6850.11
659.452	6606.41
659.644	6661.7
659.836	6743.62
660.028	6618.69
660.22	6680.13
660.412	6542.92
660.604	6522.44
660.796	6633.03
660.988	6551.11
661.18	6497.86
661.372	6338.12
661.563	6422.09
661.755	6272.59
661.947	6461
662.139	6338.12
662.331	6262.35
662.522	6170.19
662.714	6344.27
662.906	6270.54
663.097	5975.63
663.289	6061.65
663.481	6037.07
663.673	6274.63
663.864	6041.17
664.056	6000.21
664.247	6000.21
664.439	5987.92
664.631	5899.86
664.822	6100.56
665.014	5987.92
665.205	5848.66
665.397	5922.38
665.588	5807.7
665.78	5776.98
665.971	5852.75
666.163	5699.16
666.354	5598.81
666.546	5721.68
666.737	5633.62
666.929	5568.09
667.12	5531.22
667.311	5693.01
667.503	5686.87
667.694	5518.93
667.885	5617.24
668.077	5619.28
668.268	5459.54
668.459	5484.12
668.651	5570.13
668.842	5508.69
669.033	5232.22
669.224	5355.1
669.416	5396.06
669.607	5385.82
669.798	5412.44
669.989	5422.68
670.18	5224.03
670.371	5355.1
670.563	5346.91
670.754	5430.87
670.945	5207.64
671.136	5244.51
671.327	5160.54
671.518	5238.36
671.709	5197.4
671.9	5123.68
672.091	5140.06
672.282	5246.55
672.473	5111.39
672.664	5099.1
672.855	5076.57
673.046	5262.94
673.237	5144.16
673.428	5131.87
673.619	5037.66
673.809	5008.99
674	5074.53
674.191	5058.14
674.382	4984.41
674.573	4941.41
674.764	4945.5
674.954	5191.26
675.145	4953.7
675.336	4914.78
675.527	4865.63
675.717	4853.34
675.908	4851.3
676.099	4994.65
676.289	4988.51
676.48	5049.95
676.671	4806.24
676.861	4886.11
677.052	4757.09
677.243	4814.43
677.433	4800.1
677.624	4931.17
677.814	4896.35
678.005	4879.97
678.195	4886.11
678.386	4920.93
678.576	4802.15
678.767	4808.29
678.957	4773.47
679.148	5017.18
679.338	4802.15
679.529	4777.57
679.719	4853.34
679.909	4841.06
680.1	4705.89
680.29	4906.59
680.481	4804.19
680.671	4863.58
680.861	4785.76
681.052	5082.72
681.242	4761.19
681.432	4890.21
681.622	4773.47
681.813	4771.43
682.003	4687.46
682.193	4759.14
682.383	4820.58
682.573	4761.19
682.764	4800.1
682.954	4849.25
683.144	4695.65
683.334	4650.6
683.524	4908.64
683.714	4650.6
683.904	4798.05
684.094	4726.37
684.284	4769.38
684.474	4855.39
684.664	4742.75
684.854	4744.8
685.044	4517.48
685.234	4638.31
685.424	4679.27
685.614	4683.36
685.804	4738.66
685.994	4656.74
686.184	4593.25
686.374	4460.13
686.564	4413.03
686.753	4533.86
686.943	4435.56
687.133	4554.34
687.323	4492.9
687.513	4529.77
687.702	4484.71
687.892	4451.94
688.082	4398.7
688.272	4304.49
688.461	4378.22
688.651	4462.18
688.841	4308.58
689.03	4343.4
689.22	4255.34
689.41	4503.14
689.599	4337.26
689.789	4120.17
689.979	4378.22
690.168	4161.13
690.358	4111.98
690.547	4058.73
690.737	4095.6
690.926	3978.86
691.116	4021.87
691.305	4034.16
691.495	4152.94
691.684	4040.3
691.874	3995.25
692.063	4007.53
692.252	3905.14
692.442	4011.63
692.631	3829.36
692.82	3894.9
693.01	3802.74
693.199	3894.9
693.388	3845.74
693.578	3741.3
693.767	3845.74
693.956	3716.72
694.146	3755.63
694.335	3626.61
694.524	3712.63
694.713	3659.38
694.902	3665.52
695.092	3751.54
695.281	3845.74
695.47	3698.29
695.659	3688.05
695.848	3694.19
696.037	3509.88
696.226	3643
696.415	3677.81
696.604	3726.96
696.793	3542.64
696.982	3612.28
697.171	3534.45
697.36	3577.46
697.549	3466.87
697.738	3491.45
697.927	3499.64
698.116	3522.16
698.305	3329.66
698.494	3446.39
698.683	3446.39
698.872	3683.95
699.061	3563.12
699.25	3387
699.438	3571.32
699.627	3427.96
699.816	3489.4
700.005	3446.39
700.193	3430.01
700.382	3430.01
700.571	3337.85
700.76	3518.07
700.948	3452.53
701.137	3509.88
701.326	3530.36
701.514	3495.54
701.703	3335.8
701.892	3475.06
702.08	3520.12
702.269	3380.86
702.457	3370.62
702.646	3542.64
702.834	3343.99
703.023	3413.62
703.212	3413.62
703.4	3436.15
703.589	3536.5
703.777	3458.68
703.965	3387
704.154	3495.54
704.342	3434.1
704.531	3397.24
704.719	3479.16
704.907	3421.81
705.096	3507.83
705.284	3436.15
705.472	3599.99
705.661	3366.52
705.849	3415.67
706.037	3432.05
706.226	3384.95
706.414	3649.14
706.602	3569.27
706.79	3387
706.979	3372.66
707.167	3415.67
707.355	3319.42
707.543	3264.12
707.731	3581.56
707.919	3493.49
708.107	3331.7
708.296	3382.9
708.484	3411.57
708.672	3606.13
708.86	3468.92
709.048	3407.48
709.236	3460.73
709.424	3559.03
709.612	3403.38
709.8	3354.23
709.988	3526.26
710.176	3487.35
710.364	3571.32
710.551	3403.38
710.739	3370.62
710.927	3526.26
711.115	3333.75
711.303	3544.69
711.491	3479.16
711.679	3352.18
711.866	3565.17
712.054	3468.92
712.242	3446.39
712.43	3427.96
712.617	3604.08
712.805	3516.02
712.993	3382.9
713.181	3468.92
713.368	3591.8
713.556	3583.6
713.744	3542.64
713.931	3690.1
714.119	3470.97
714.306	3599.99
714.494	3462.77
714.682	3479.16
714.869	3389.05
715.057	3599.99
715.244	3538.55
715.432	3653.23
715.619	3636.85
715.807	3595.89
715.994	3559.03
716.182	3495.54
716.369	3767.92
716.556	3677.81
716.744	3501.69
716.931	3556.98
717.119	3653.23
717.306	3640.95
717.493	3610.23
717.681	3655.28
717.868	3546.74
718.055	3581.56
718.242	3630.71
718.43	3729.01
718.617	3677.81
718.804	3677.81
718.991	3657.33
719.179	3708.53
719.366	3798.64
719.553	3591.8
719.74	3747.44
719.927	3597.94
720.114	3716.72
720.301	3679.86
720.488	3698.29
720.676	3599.99
720.863	3772.02
721.05	3909.23
721.237	3788.4
721.424	3821.17
721.611	3755.63
721.798	3722.87
721.985	3749.49
722.172	3614.32
722.358	3669.62
722.545	3643
722.732	3677.81
722.919	3755.63
723.106	3786.35
723.293	3778.16
723.48	3772.02
723.667	3769.97
723.853	3765.87
724.04	3755.63
724.227	3860.08
724.414	3870.32
724.6	3827.31
724.787	3880.56
724.974	3845.74
725.161	3714.67
725.347	3583.6
725.534	3704.43
725.72	3784.3
725.907	3855.98
726.094	3710.58
726.28	3665.52
726.467	3853.94
726.653	3679.86
726.84	3950.19
727.027	3970.67
727.213	3841.65
727.4	3966.57
727.586	3806.83
727.773	3896.94
727.959	3911.28
728.145	3923.57
728.332	3794.54
728.518	3815.02
728.705	3890.8
728.891	3864.18
729.077	3755.63
729.264	3817.07
729.45	3782.26
729.636	3985.01
729.823	3798.64
730.009	3774.07
730.195	3939.95
730.382	3874.42
730.568	3839.6
730.754	3921.52
730.94	3774.07
731.126	3911.28
731.313	3817.07
731.499	4017.77
731.685	3776.11
731.871	3931.76
732.057	3823.22
732.243	3911.28
732.429	4050.54
732.615	3841.65
732.801	3853.94
732.987	3737.2
733.173	3763.83
733.359	3876.46
733.545	3839.6
733.731	3806.83
733.917	3974.77
734.103	3880.56
734.289	4044.4
734.475	3755.63
734.661	3950.19
734.847	3855.98
735.033	3917.42
735.219	3833.46
735.404	3849.84
735.59	3692.15
735.776	3804.78
735.962	3923.57
736.148	3761.78
736.333	3817.07
736.519	3968.62
736.705	3858.03
736.89	4009.58
737.076	3991.15
737.262	3712.63
737.447	3855.98
737.633	3835.5
737.819	3798.64
738.004	3767.92
738.19	3724.91
738.375	3698.29
738.561	3982.96
738.747	3692.15
738.932	3604.08
739.118	3778.16
739.303	3894.9
739.489	3765.87
739.674	3741.3
739.859	3657.33
740.045	3731.06
740.23	3673.71
740.416	3649.14
740.601	3739.25
740.786	3645.04
740.972	3647.09
741.157	3671.67
741.342	3595.89
741.528	3776.11
741.713	3706.48
741.898	3745.39
742.084	3536.5
742.269	3712.63
742.454	3534.45
742.639	3663.47
742.824	3544.69
743.01	3462.77
743.195	3583.6
743.38	3505.78
743.565	3522.16
743.75	3477.11
743.935	3487.35
744.12	3577.46
744.305	3430.01
744.49	3454.58
744.675	3534.45
744.86	3528.31
745.045	3419.77
745.23	3444.34
745.415	3411.57
745.6	3415.67
745.785	3321.46
745.97	3346.04
746.155	3317.37
746.34	3350.14
746.525	3260.02
746.71	3356.28
746.895	3313.27
747.079	3249.79
747.264	3198.59
747.449	3409.53
747.634	3155.58
747.819	3131
748.003	3208.83
748.188	3098.24
748.373	3178.11
748.557	3094.14
748.742	3094.14
748.927	2883.2
749.111	2993.79
749.296	3016.32
749.481	3057.28
749.665	3026.56
749.85	2922.11
750.034	2932.35
750.219	2891.39
750.404	2885.25
750.588	2938.49
750.773	2858.62
750.957	2918.01
751.141	2827.9
751.326	2723.46
751.51	2768.51
751.695	2903.68
751.879	2709.12
752.064	2723.46
752.248	2592.39
752.432	2748.03
752.617	2610.82
752.801	2688.64
752.985	2645.63
753.17	2610.82
753.354	2670.21
753.538	2535.04
753.722	2563.72
753.907	2524.8
754.091	2518.66
754.275	2354.82
754.459	2502.28
754.643	2387.59
754.828	2494.08
755.012	2494.08
755.196	2434.69
755.38	2332.3
755.564	2387.59
755.748	2340.49
755.932	2410.12
756.116	2307.72
756.3	2264.71
756.484	2289.29
756.668	2373.25
756.852	2322.06
757.036	2301.58
757.22	2205.32
757.404	2137.74
757.588	2150.03
757.772	2211.46
757.956	2207.37
758.14	2307.72
758.323	2182.79
758.507	2111.11
758.691	2109.07
758.875	2080.39
759.059	2289.29
759.242	2061.96
759.426	2135.69
759.61	2084.49
759.794	2018.96
759.977	2043.53
760.161	2088.59
760.345	1978
760.528	2068.11
760.712	1912.46
760.895	1961.61
761.079	1947.28
761.263	1941.13
761.446	2002.57
761.63	1914.51
761.813	1869.45
761.997	1830.54
762.18	1801.87
762.364	1908.37
762.547	1646.23
762.731	1908.37
762.914	1793.68
763.098	1861.26
763.281	1885.84
763.464	1765.01
763.648	1756.82
763.831	1818.25
764.015	1754.77
764.198	1814.16
764.381	1832.59
764.564	1728.14
764.748	1789.58
764.931	1857.17
765.114	1765.01
765.297	1793.68
765.481	1578.64
765.664	1715.86
765.847	1605.27
766.03	1724.05
766.213	1603.22
766.397	1652.37
766.58	1674.9
766.763	1685.14
766.946	1640.08
767.129	1531.54
767.312	1629.84
767.495	1666.71
767.678	1560.21
767.861	1576.59
768.044	1578.64
768.227	1568.4
768.41	1601.17
768.593	1552.02
768.776	1461.91
768.959	1556.11
769.142	1586.83
769.324	1560.21
769.507	1515.16
769.69	1423
769.873	1574.55
770.056	1611.41
770.239	1445.52
770.421	1574.55
770.604	1461.91
770.787	1453.72
770.97	1447.57
771.152	1439.38
771.335	1466
771.518	1453.72
771.7	1371.8
771.883	1453.72
772.066	1470.1
772.248	1365.65
772.431	1478.29
772.613	1379.99
772.796	1404.57
772.978	1453.72
773.161	1420.95
773.343	1304.21
773.526	1306.26
773.708	1281.69
773.891	1291.93
774.073	1304.21
774.256	1283.74
774.438	1328.79
774.621	1240.73
774.803	1291.93
774.985	1281.69
775.168	1181.34
775.35	1205.91
775.532	1210.01
775.715	1203.86
775.897	1275.54
776.079	1160.86
776.261	1195.67
776.444	1189.53
776.626	1263.26
776.808	1076.89
776.99	1121.95
777.173	1228.44
777.355	1158.81
777.537	1164.95
777.719	1199.77
777.901	1074.84
778.083	1119.9
778.265	1095.32
778.447	1117.85
778.629	1027.74
778.811	1015.45
778.993	1078.94
779.175	1007.26
779.357	1015.45
779.539	941.72
779.721	1025.69
779.903	1117.85
780.085	999.07
780.267	956.06
780.449	960.16
780.631	970.4
780.812	1123.99
780.994	1005.21
781.176	929.44
781.358	931.48
781.54	992.92
781.721	904.86
781.903	997.02
782.085	962.2
782.267	939.68
782.448	857.76
782.63	812.7
782.812	911
782.993	861.85
783.175	886.43
783.357	896.67
783.538	861.85
783.72	921.24
783.901	859.81
784.083	800.41
784.264	847.52
784.446	796.32
784.627	728.74
784.809	839.33
784.99	796.32
785.172	755.36
785.353	812.7
785.535	726.69
785.716	857.76
785.897	753.31
786.079	749.22
786.26	720.54
786.441	769.69
786.623	695.97
786.804	704.16
786.985	767.65
787.167	702.11
787.348	757.41
787.529	775.84
787.71	738.98
787.891	720.54
788.073	564.9
788.254	571.04
788.435	784.03
788.616	652.96
788.797	726.69
788.978	597.67
789.159	589.47
789.34	677.54
789.522	646.82
789.703	669.34
789.884	622.24
790.065	609.95
790.246	675.49
790.427	667.3
790.607	667.3
790.788	552.61
790.969	589.47
791.15	495.27
791.331	528.03
791.512	589.47
791.693	476.84
791.874	554.66
792.054	667.3
792.235	624.29
792.416	591.52
792.597	528.03
792.778	544.42
792.958	552.61
793.139	523.94
793.32	532.13
793.5	505.51
793.681	542.37
793.862	603.81
794.042	581.28
794.223	489.12
794.404	421.54
794.584	499.36
794.765	560.8
794.945	560.8
795.126	491.17
795.306	525.99
795.487	462.5
795.667	568.99
795.848	491.17
796.028	470.69
796.209	511.65
796.389	566.95
796.57	478.88
796.75	450.21
796.93	429.73
797.111	489.12
797.291	384.68
797.471	450.21
797.652	495.27
797.832	396.96
798.012	403.11
798.192	403.11
798.373	380.58
798.553	497.32
798.733	470.69
798.913	382.63
799.093	388.77
799.274	464.55
799.454	431.78
799.634	562.85
799.814	347.81
799.994	472.74
800.174	470.69
800.354	362.15
800.534	300.71
800.714	435.88
800.894	329.38
801.074	370.34
801.254	419.49
801.434	349.86
801.614	421.54
801.794	366.25
801.974	1406.61
802.154	458.4
802.334	487.08
802.514	308.9
802.693	476.84
802.873	349.86
803.053	464.55
803.233	325.29
803.413	374.44
803.592	343.72
803.772	345.77
803.952	382.63
804.131	315.05
804.311	411.3
804.491	376.48
804.67	390.82
804.85	341.67
805.03	362.15
805.209	405.16
805.389	349.86
805.568	202.41
805.748	335.53
805.928	341.67
806.107	360.1
806.287	341.67
806.466	376.48
806.646	360.1
806.825	292.52
807.004	251.56
807.184	384.68
807.363	458.4
807.543	257.7
807.722	333.48
807.901	384.68
808.081	384.68
808.26	306.85
808.439	378.53
808.619	308.9
808.798	220.84
808.977	347.81
809.156	327.33
809.336	300.71
809.515	370.34
809.694	315.05
809.873	276.13
810.052	274.09
810.231	433.83
810.411	349.86
810.59	339.62
810.769	226.98
810.948	364.2
811.127	163.5
811.306	231.08
811.485	298.66
811.664	323.24
811.843	282.28
812.022	257.7
812.201	317.09
812.38	319.14
812.559	249.51
812.737	304.81
812.916	319.14
813.095	226.98
813.274	274.09
813.453	243.37
813.632	290.47
813.811	325.29
813.989	171.69
814.168	292.52
814.347	249.51
814.526	226.98
814.704	323.24
814.883	298.66
815.062	220.84
815.24	204.46
815.419	196.26
815.598	220.84
815.776	151.21
815.955	220.84
816.133	218.79
816.312	208.55
816.49	216.74
816.669	243.37
816.847	220.84
817.026	286.37
817.204	216.74
817.383	181.93
817.561	210.6
817.74	272.04
817.918	161.45
818.097	218.79
818.275	216.74
818.453	265.89
818.632	267.94
818.81	216.74
818.988	100.01
819.167	278.18
819.345	179.88
819.523	167.59
819.701	190.12
819.879	245.41
820.058	186.02
820.236	183.98
820.414	257.7
820.592	161.45
820.77	290.47
820.948	130.73
821.127	153.26
821.305	169.64
821.483	171.69
821.661	226.98
821.839	159.4
822.017	157.35
822.195	286.37
822.373	298.66
822.551	239.27
822.729	233.13
822.907	190.12
823.085	210.6
823.262	202.41
823.44	128.68
823.618	224.94
823.796	110.25
823.974	220.84
824.152	226.98
824.329	153.26
824.507	177.83
824.685	200.36
824.863	118.44
825.04	183.98
825.218	169.64
825.396	200.36
825.574	188.07
825.751	138.92
825.929	300.71
826.107	120.49
826.284	118.44
826.462	222.89
826.639	116.39
826.817	124.58
826.994	181.93
827.172	120.49
827.349	257.7
827.527	181.93
827.704	97.96
827.882	165.54
828.059	159.4
828.237	147.11
828.414	202.41
828.591	67.24
828.769	183.98
828.946	128.68
829.124	163.5
829.301	255.65
829.478	177.83
829.655	134.82
829.833	151.21
830.01	87.72
830.187	192.17
830.364	177.83
830.542	87.72
830.719	165.54
830.896	198.31
831.073	167.59
831.25	28.33
831.427	198.31
831.604	167.59
831.782	130.73
831.959	136.87
832.136	97.96
832.313	153.26
832.49	155.3
832.667	157.35
832.844	126.63
833.021	216.74
833.198	110.25
833.374	145.06
833.551	179.88
833.728	155.3
833.905	104.11
834.082	65.19
834.259	145.06
834.436	134.82
834.612	132.78
834.789	200.36
834.966	145.06
835.143	147.11
835.319	63.15
835.496	196.26
835.673	147.11
835.85	136.87
836.026	140.97
836.203	143.02
836.38	186.02
836.556	89.77
836.733	110.25
836.909	214.7
837.086	69.29
837.262	-12.63
837.439	120.49
837.616	87.72
837.792	157.35
837.968	140.97
838.145	42.67
838.321	36.52
838.498	128.68
838.674	100.01
838.851	110.25
839.027	73.39
839.203	114.34
839.38	100.01
839.556	57
839.732	106.15
839.909	114.34
840.085	149.16
840.261	63.15
840.437	122.54
840.614	110.25
840.79	128.68
840.966	91.82
841.142	122.54
841.318	38.57
841.494	151.21
841.671	132.78
841.847	59.05
842.023	40.62
842.199	71.34
842.375	93.87
842.551	95.91
842.727	3.75
842.903	147.11
843.079	34.47
843.255	106.15
843.431	57
843.607	190.12
843.783	-31.06
843.959	69.29
844.134	69.29
844.31	120.49
844.486	22.19
844.662	48.81
844.838	46.76
845.013	106.15
845.189	87.72
845.365	132.78
845.541	28.33
845.716	106.15
845.892	42.67
846.068	97.96
846.244	104.11
846.419	138.92
846.595	3.75
846.77	36.52
846.946	59.05
847.122	118.44
847.297	122.54
847.473	75.43
847.648	28.33
847.824	143.02
847.999	3.75
848.175	36.52
848.35	108.2
848.526	75.43
848.701	124.58
848.876	120.49
849.052	140.97
849.227	110.25
849.403	85.67
849.578	20.14
849.753	95.91
849.929	63.15
850.104	-29.01
850.279	95.91
850.454	75.43
850.63	32.43
850.805	95.91
850.98	87.72
851.155	32.43
851.33	130.73
851.505	71.34
851.681	126.63
851.856	38.57
852.031	145.06
852.206	95.91
852.381	77.48
852.556	75.43
852.731	69.29
852.906	44.71
853.081	3.75
853.256	63.15
853.431	59.05
853.606	-10.58
853.781	16.04
853.956	-12.63
854.131	93.87
854.305	28.33
854.48	102.06
854.655	7.85
854.83	38.57
855.005	22.19
855.18	79.53
855.354	30.38
855.529	75.43
855.704	106.15
855.879	112.3
856.053	108.2
856.228	67.24
856.403	3.75
856.577	54.95
856.752	7.85
856.926	26.28
857.101	95.91
857.276	-49.49
857.45	52.91
857.625	28.33
857.799	28.33
857.974	57
858.148	50.86
858.323	36.52
858.497	89.77
858.672	32.43
858.846	63.15
859.02	65.19
859.195	24.23
859.369	126.63
859.543	52.91
859.718	52.91
859.892	75.43
860.066	65.19
860.241	3.75
860.415	-2.39
860.589	40.62
860.763	16.04
860.938	34.47
861.112	75.43
861.286	-37.2
861.46	77.48
861.634	28.33
861.808	13.99
861.982	46.76
862.157	67.24
862.331	26.28
862.505	-86.36
862.679	-4.44
862.853	34.47
863.027	67.24
863.201	157.35
863.375	13.99
863.549	114.34
863.722	79.53
863.896	89.77
864.07	1.71
864.244	11.95
864.418	-4.44
864.592	-2.39
864.766	26.28
864.939	24.23
865.113	-8.53
865.287	128.68
865.461	-59.73
865.634	24.23
865.808	22.19
865.982	1.71
866.156	-45.4
866.329	-37.2
866.503	-49.49
866.676	42.67
866.85	30.38
867.024	54.95
867.197	100.01
867.371	91.82
867.544	20.14
867.718	-2.39
867.891	140.97
868.065	50.86
868.238	18.09
868.412	126.63
868.585	9.9
868.759	63.15
868.932	-22.87
869.105	-8.53
869.279	108.2
869.452	-4.44
869.625	50.86
869.799	44.71
869.972	-35.16
870.145	20.14
870.319	52.91
870.492	-26.96
870.665	40.62
870.838	34.47
871.011	-59.73
871.185	77.48
871.358	9.9
871.531	42.67
871.704	85.67
871.877	24.23
872.05	-8.53
872.223	11.95
872.396	5.8
872.569	-35.16
872.742	-35.16
872.915	77.48
873.088	-43.35
873.261	11.95
873.434	42.67
873.607	-29.01
873.78	110.25
873.953	-10.58
874.126	3.75
874.299	9.9
874.471	-4.44
874.644	40.62
874.817	-37.2
874.99	132.78
875.163	61.1
875.335	87.72
875.508	-59.73
875.681	71.34
875.853	5.8
876.026	22.19
876.199	-26.96
876.371	26.28
876.544	28.33
876.717	26.28
876.889	3.75
877.062	22.19
877.234	-22.87
877.407	20.14
877.579	30.38
877.752	95.91
877.924	87.72
878.097	61.1
878.269	-12.63
878.442	36.52
878.614	52.91
878.786	77.48
878.959	9.9
879.131	-8.53
879.303	-92.5
879.476	-43.35
879.648	24.23
879.82	3.75
879.993	-4.44
880.165	11.95
880.337	-20.82
880.509	7.85
880.681	-4.44
880.854	22.19
881.026	44.71
881.198	175.78
881.37	65.19
881.542	32.43
881.714	16.04
881.886	-0.34
882.058	5.8
882.23	46.76
882.402	-37.2
882.574	87.72
882.746	75.43
882.918	100.01
883.09	69.29
883.262	-10.58
883.434	40.62
883.606	-49.49
883.778	28.33
883.95	44.71
884.122	-35.16
884.293	91.82
884.465	87.72
884.637	110.25
884.809	11.95
884.98	3.75
885.152	-10.58
885.324	22.19
885.496	48.81
885.667	-16.73
885.839	-51.54
886.011	26.28
886.182	126.63
886.354	59.05
886.525	-0.34
886.697	87.72
886.869	-102.74
887.04	-8.53
887.212	106.15
887.383	38.57
887.555	54.95
887.726	75.43
887.897	-45.4
888.069	1.71
888.24	38.57
888.412	48.81
888.583	-33.11
888.754	54.95
888.926	-37.2
889.097	81.58
889.268	-63.83
889.44	36.52
889.611	9.9
889.782	13.99
889.953	-18.77
890.125	34.47
890.296	-45.4
890.467	30.38
890.638	5.8
890.809	32.43
890.98	7.85
891.151	24.23
891.323	16.04
891.494	-41.3
891.665	61.1
891.836	-26.96
892.007	36.52
892.178	118.44
892.349	-0.34
892.52	-22.87
892.691	61.1
892.862	65.19
893.032	-18.77
893.203	24.23
893.374	26.28
893.545	67.24
893.716	28.33
893.887	104.11
894.057	-0.34
894.228	22.19
894.399	-43.35
894.57	13.99
894.74	77.48
894.911	83.63
895.082	-80.21
895.253	-16.73
895.423	38.57
895.594	59.05
895.764	11.95
895.935	13.99
896.106	-29.01
896.276	11.95
896.447	-51.54
896.617	-4.44
896.788	-6.49
896.958	-26.96
897.129	-53.59
897.299	-18.77
897.47	69.29
897.64	16.04
897.81	11.95
897.981	59.05
898.151	-43.35
898.322	5.8
898.492	63.15
898.662	-20.82
898.832	42.67
899.003	1.71
899.173	69.29
899.343	-8.53
899.513	-112.98
