Data from USB4F104151__23__13-04-40-648.txt Node

Date: Fri Mar 14 13:04:40 EDT 2025
User: louis
Spectrometer: USB4F10415
Trigger mode: 4
Integration Time (sec): 4.000000E-2
Scans to average: 1
Electric dark correction enabled: true
Nonlinearity correction enabled: false
Boxcar width: 0
XAxis mode: Wavelengths
Number of Pixels in Spectrum: 3648
>>>>>Begin Spectral Data<<<<<
178.204	-168.96
178.424	-168.96
178.644	-168.96
178.864	-226.3
179.084	-160.77
179.304	11.26
179.524	19.46
179.744	21.5
179.964	31.74
180.184	17.41
180.404	-11.26
180.624	-41.98
180.844	-7.17
181.064	-142.33
181.283	37.89
181.503	-33.79
181.723	97.28
181.943	-17.41
182.163	87.04
182.383	-1.02
182.602	50.18
182.822	66.56
183.042	31.74
183.262	52.22
183.482	91.13
183.701	89.09
183.921	17.41
184.141	-21.5
184.361	60.42
184.58	58.37
184.8	119.81
185.02	56.32
185.239	128
185.459	62.46
185.679	97.28
185.898	-11.26
186.118	99.33
186.338	80.89
186.557	84.99
186.777	-11.26
186.997	74.75
187.216	13.31
187.436	31.74
187.655	46.08
187.875	103.42
188.095	-44.03
188.314	117.76
188.534	23.55
188.753	46.08
188.973	76.8
189.192	62.46
189.412	80.89
189.631	-50.18
189.851	56.32
190.07	119.81
190.29	-3.07
190.509	31.74
190.729	-23.55
190.948	70.65
191.168	154.62
191.387	29.7
191.607	11.26
191.826	5.12
192.045	46.08
192.265	5.12
192.484	62.46
192.704	-56.32
192.923	-37.89
193.142	179.2
193.362	101.37
193.581	97.28
193.8	82.94
194.02	89.09
194.239	121.85
194.458	95.23
194.678	3.07
194.897	91.13
195.116	23.55
195.335	31.74
195.555	46.08
195.774	66.56
195.993	97.28
196.212	1.02
196.432	-39.94
196.651	54.27
196.87	80.89
197.089	109.57
197.308	37.89
197.528	89.09
197.747	19.46
197.966	115.71
198.185	130.05
198.404	62.46
198.623	60.42
198.842	39.94
199.062	64.51
199.281	130.05
199.5	7.17
199.719	48.13
199.938	11.26
200.157	39.94
200.376	29.7
200.595	101.37
200.814	-11.26
201.033	97.28
201.252	136.19
201.471	37.89
201.69	78.85
201.909	41.98
202.128	56.32
202.347	111.61
202.566	58.37
202.785	37.89
203.004	-44.03
203.223	48.13
203.442	80.89
203.661	54.27
203.879	64.51
204.098	142.33
204.317	-23.55
204.536	23.55
204.755	25.6
204.974	52.22
205.193	37.89
205.411	187.39
205.63	39.94
205.849	48.13
206.068	64.51
206.287	17.41
206.505	37.89
206.724	-9.22
206.943	39.94
207.162	138.24
207.381	74.75
207.599	74.75
207.818	41.98
208.037	15.36
208.255	11.26
208.474	48.13
208.693	37.89
208.911	44.03
209.13	9.22
209.349	62.46
209.567	13.31
209.786	130.05
210.005	52.22
210.223	78.85
210.442	15.36
210.661	95.23
210.879	-35.84
211.098	46.08
211.316	33.79
211.535	29.7
211.753	39.94
211.972	44.03
212.191	70.65
212.409	48.13
212.628	74.75
212.846	-11.26
213.065	56.32
213.283	105.47
213.502	19.46
213.72	74.75
213.938	91.13
214.157	23.55
214.375	58.37
214.594	101.37
214.812	140.29
215.031	80.89
215.249	21.5
215.467	13.31
215.686	80.89
215.904	80.89
216.122	72.7
216.341	48.13
216.559	3.07
216.778	111.61
216.996	37.89
217.214	66.56
217.432	23.55
217.651	5.12
217.869	82.94
218.087	13.31
218.306	74.75
218.524	54.27
218.742	117.76
218.96	82.94
219.179	101.37
219.397	56.32
219.615	62.46
219.833	89.09
220.051	39.94
220.27	111.61
220.488	50.18
220.706	80.89
220.924	27.65
221.142	21.5
221.36	119.81
221.578	70.65
221.796	-11.26
222.015	-29.7
222.233	62.46
222.451	70.65
222.669	35.84
222.887	78.85
223.105	62.46
223.323	29.7
223.541	-21.5
223.759	64.51
223.977	62.46
224.195	37.89
224.413	175.1
224.631	15.36
224.849	58.37
225.067	107.52
225.285	78.85
225.503	46.08
225.721	-44.03
225.939	74.75
226.157	48.13
226.375	150.53
226.592	33.79
226.81	56.32
227.028	97.28
227.246	109.57
227.464	101.37
227.682	109.57
227.9	-23.55
228.117	64.51
228.335	41.98
228.553	41.98
228.771	144.38
228.989	54.27
229.206	82.94
229.424	-60.42
229.642	60.42
229.86	-15.36
230.077	134.14
230.295	50.18
230.513	50.18
230.731	48.13
230.948	128
231.166	3.07
231.384	144.38
231.601	23.55
231.819	101.37
232.037	29.7
232.254	15.36
232.472	37.89
232.689	48.13
232.907	64.51
233.125	74.75
233.342	115.71
233.56	19.46
233.777	70.65
233.995	11.26
234.213	91.13
234.43	29.7
234.648	68.61
234.865	89.09
235.083	23.55
235.3	-5.12
235.518	97.28
235.735	144.38
235.953	21.5
236.17	-44.03
236.388	9.22
236.605	105.47
236.822	113.66
237.04	33.79
237.257	95.23
237.475	-23.55
237.692	5.12
237.909	5.12
238.127	25.6
238.344	44.03
238.562	17.41
238.779	78.85
238.996	7.17
239.214	107.52
239.431	66.56
239.648	-17.41
239.865	21.5
240.083	48.13
240.3	74.75
240.517	-19.46
240.735	37.89
240.952	113.66
241.169	64.51
241.386	54.27
241.603	-19.46
241.821	66.56
242.038	121.85
242.255	93.18
242.472	-15.36
242.689	41.98
242.907	37.89
243.124	76.8
243.341	9.22
243.558	89.09
243.775	-3.07
243.992	-60.42
244.209	33.79
244.426	171.01
244.643	103.42
244.86	-11.26
245.078	128
245.295	23.55
245.512	1.02
245.729	3.07
245.946	101.37
246.163	48.13
246.38	37.89
246.597	33.79
246.814	-19.46
247.031	15.36
247.248	64.51
247.464	101.37
247.681	56.32
247.898	70.65
248.115	117.76
248.332	21.5
248.549	72.7
248.766	74.75
248.983	54.27
249.2	60.42
249.417	136.19
249.633	80.89
249.85	84.99
250.067	-13.31
250.284	46.08
250.501	72.7
250.717	103.42
250.934	3.07
251.151	-23.55
251.368	56.32
251.585	128
251.801	29.7
252.018	7.17
252.235	103.42
252.451	23.55
252.668	-60.42
252.885	119.81
253.102	64.51
253.318	31.74
253.535	-3.07
253.752	97.28
253.968	-23.55
254.185	-39.94
254.401	39.94
254.618	119.81
254.835	23.55
255.051	66.56
255.268	37.89
255.484	95.23
255.701	62.46
255.917	105.47
256.134	13.31
256.351	-33.79
256.567	-35.84
256.784	-9.22
257	-11.26
257.217	74.75
257.433	52.22
257.65	15.36
257.866	99.33
258.082	66.56
258.299	-33.79
258.515	91.13
258.732	50.18
258.948	56.32
259.165	56.32
259.381	11.26
259.597	44.03
259.814	-9.22
260.03	13.31
260.246	54.27
260.463	23.55
260.679	64.51
260.895	27.65
261.112	72.7
261.328	25.6
261.544	-13.31
261.761	105.47
261.977	33.79
262.193	21.5
262.409	103.42
262.626	23.55
262.842	91.13
263.058	-54.27
263.274	13.31
263.49	21.5
263.707	52.22
263.923	87.04
264.139	13.31
264.355	-7.17
264.571	130.05
264.787	33.79
265.004	13.31
265.22	13.31
265.436	13.31
265.652	21.5
265.868	76.8
266.084	-5.12
266.3	31.74
266.516	39.94
266.732	78.85
266.948	76.8
267.164	21.5
267.38	87.04
267.596	130.05
267.812	48.13
268.028	-19.46
268.244	31.74
268.46	50.18
268.676	7.17
268.892	-25.6
269.108	13.31
269.324	3.07
269.54	87.04
269.756	136.19
269.972	13.31
270.188	19.46
270.403	19.46
270.619	87.04
270.835	54.27
271.051	95.23
271.267	31.74
271.483	29.7
271.698	97.28
271.914	115.71
272.13	-5.12
272.346	44.03
272.562	33.79
272.777	91.13
272.993	60.42
273.209	37.89
273.425	35.84
273.64	5.12
273.856	95.23
274.072	23.55
274.287	46.08
274.503	101.37
274.719	97.28
274.934	33.79
275.15	1.02
275.366	21.5
275.581	-25.6
275.797	82.94
276.012	52.22
276.228	29.7
276.444	87.04
276.659	54.27
276.875	5.12
277.09	1.02
277.306	29.7
277.521	54.27
277.737	93.18
277.952	119.81
278.168	15.36
278.383	17.41
278.599	72.7
278.814	33.79
279.03	19.46
279.245	128
279.461	7.17
279.676	60.42
279.892	39.94
280.107	91.13
280.322	25.6
280.538	58.37
280.753	15.36
280.969	70.65
281.184	5.12
281.399	35.84
281.615	56.32
281.83	35.84
282.045	84.99
282.26	23.55
282.476	103.42
282.691	25.6
282.906	84.99
283.122	62.46
283.337	46.08
283.552	121.85
283.767	31.74
283.983	123.9
284.198	17.41
284.413	68.61
284.628	-52.22
284.843	54.27
285.058	37.89
285.274	11.26
285.489	9.22
285.704	64.51
285.919	31.74
286.134	7.17
286.349	39.94
286.564	64.51
286.779	58.37
286.995	-11.26
287.21	-19.46
287.425	37.89
287.64	101.37
287.855	-25.6
288.07	-37.89
288.285	52.22
288.5	76.8
288.715	48.13
288.93	48.13
289.145	74.75
289.36	89.09
289.575	-1.02
289.79	33.79
290.004	-17.41
290.219	17.41
290.434	-35.84
290.649	35.84
290.864	13.31
291.079	50.18
291.294	17.41
291.509	-31.74
291.724	-39.94
291.938	-33.79
292.153	31.74
292.368	62.46
292.583	21.5
292.798	101.37
293.012	23.55
293.227	37.89
293.442	37.89
293.657	48.13
293.871	105.47
294.086	-23.55
294.301	113.66
294.516	78.85
294.73	19.46
294.945	17.41
295.16	78.85
295.374	48.13
295.589	103.42
295.804	58.37
296.018	21.5
296.233	87.04
296.447	-27.65
296.662	7.17
296.877	50.18
297.091	105.47
297.306	27.65
297.52	58.37
297.735	54.27
297.949	37.89
298.164	15.36
298.378	56.32
298.593	87.04
298.807	21.5
299.022	-19.46
299.236	162.81
299.451	5.12
299.665	5.12
299.88	56.32
300.094	64.51
300.309	82.94
300.523	68.61
300.737	3.07
300.952	95.23
301.166	46.08
301.381	-50.18
301.595	48.13
301.809	66.56
302.024	37.89
302.238	3.07
302.452	128
302.667	50.18
302.881	166.91
303.095	13.31
303.309	58.37
303.524	15.36
303.738	7.17
303.952	31.74
304.166	103.42
304.381	-17.41
304.595	160.77
304.809	48.13
305.023	64.51
305.237	25.6
305.452	70.65
305.666	109.57
305.88	177.15
306.094	78.85
306.308	25.6
306.522	13.31
306.736	41.98
306.95	152.57
307.164	48.13
307.379	78.85
307.593	95.23
307.807	54.27
308.021	84.99
308.235	70.65
308.449	93.18
308.663	50.18
308.877	134.14
309.091	80.89
309.305	68.61
309.519	58.37
309.733	58.37
309.947	-23.55
310.161	91.13
310.374	50.18
310.588	31.74
310.802	23.55
311.016	15.36
311.23	37.89
311.444	15.36
311.658	13.31
311.872	95.23
312.085	87.04
312.299	66.56
312.513	89.09
312.727	-11.26
312.941	70.65
313.154	35.84
313.368	-1.02
313.582	-5.12
313.796	33.79
314.009	35.84
314.223	68.61
314.437	7.17
314.651	54.27
314.864	27.65
315.078	-11.26
315.292	17.41
315.505	58.37
315.719	50.18
315.933	66.56
316.146	41.98
316.36	9.22
316.573	84.99
316.787	60.42
317.001	46.08
317.214	-9.22
317.428	56.32
317.641	41.98
317.855	5.12
318.068	1.02
318.282	52.22
318.495	35.84
318.709	52.22
318.922	19.46
319.136	107.52
319.349	70.65
319.563	35.84
319.776	119.81
319.99	-5.12
320.203	128
320.417	1.02
320.63	29.7
320.843	160.77
321.057	62.46
321.27	-17.41
321.483	15.36
321.697	117.76
321.91	95.23
322.124	95.23
322.337	-19.46
322.55	-19.46
322.763	89.09
322.977	41.98
323.19	41.98
323.403	48.13
323.617	52.22
323.83	29.7
324.043	15.36
324.256	123.9
324.469	-25.6
324.683	136.19
324.896	-5.12
325.109	74.75
325.322	27.65
325.535	134.14
325.748	111.61
325.962	48.13
326.175	-17.41
326.388	84.99
326.601	15.36
326.814	60.42
327.027	35.84
327.24	132.09
327.453	-7.17
327.666	66.56
327.879	91.13
328.092	62.46
328.305	35.84
328.518	48.13
328.731	-15.36
328.944	97.28
329.157	31.74
329.37	95.23
329.583	50.18
329.796	93.18
330.009	64.51
330.222	64.51
330.435	9.22
330.648	35.84
330.861	78.85
331.073	107.52
331.286	72.7
331.499	91.13
331.712	70.65
331.925	46.08
332.138	15.36
332.35	168.96
332.563	-50.18
332.776	107.52
332.989	35.84
333.202	23.55
333.414	82.94
333.627	23.55
333.84	-25.6
334.053	-3.07
334.265	78.85
334.478	37.89
334.691	99.33
334.903	76.8
335.116	3.07
335.329	-35.84
335.541	84.99
335.754	146.43
335.966	46.08
336.179	37.89
336.392	54.27
336.604	-3.07
336.817	66.56
337.029	52.22
337.242	62.46
337.454	105.47
337.667	66.56
337.88	74.75
338.092	103.42
338.305	119.81
338.517	44.03
338.729	3.07
338.942	91.13
339.154	48.13
339.367	60.42
339.579	76.8
339.792	23.55
340.004	87.04
340.217	74.75
340.429	50.18
340.641	-7.17
340.854	58.37
341.066	-1.02
341.278	39.94
341.491	89.09
341.703	48.13
341.915	70.65
342.128	89.09
342.34	-17.41
342.552	23.55
342.764	25.6
342.977	89.09
343.189	152.57
343.401	46.08
343.613	-17.41
343.826	78.85
344.038	15.36
344.25	91.13
344.462	17.41
344.674	-19.46
344.886	80.89
345.099	64.51
345.311	103.42
345.523	107.52
345.735	-35.84
345.947	3.07
346.159	84.99
346.371	95.23
346.583	48.13
346.795	121.85
347.007	97.28
347.219	-1.02
347.431	33.79
347.643	101.37
347.855	66.56
348.067	50.18
348.279	13.31
348.491	95.23
348.703	25.6
348.915	74.75
349.127	5.12
349.339	41.98
349.551	50.18
349.763	29.7
349.975	93.18
350.187	74.75
350.399	97.28
350.61	41.98
350.822	-19.46
351.034	46.08
351.246	50.18
351.458	80.89
351.669	54.27
351.881	87.04
352.093	74.75
352.305	89.09
352.517	68.61
352.728	109.57
352.94	21.5
353.152	117.76
353.363	23.55
353.575	46.08
353.787	144.38
353.999	109.57
354.21	54.27
354.422	27.65
354.633	46.08
354.845	15.36
355.057	97.28
355.268	66.56
355.48	58.37
355.692	-37.89
355.903	72.7
356.115	48.13
356.326	-54.27
356.538	105.47
356.749	76.8
356.961	160.77
357.172	84.99
357.384	41.98
357.595	117.76
357.807	76.8
358.018	134.14
358.23	95.23
358.441	58.37
358.653	39.94
358.864	50.18
359.075	70.65
359.287	80.89
359.498	136.19
359.709	58.37
359.921	64.51
360.132	78.85
360.344	-15.36
360.555	7.17
360.766	80.89
360.977	-29.7
361.189	46.08
361.4	50.18
361.611	115.71
361.823	58.37
362.034	33.79
362.245	-37.89
362.456	-1.02
362.667	56.32
362.879	37.89
363.09	31.74
363.301	54.27
363.512	95.23
363.723	37.89
363.935	41.98
364.146	185.34
364.357	58.37
364.568	29.7
364.779	-11.26
364.99	107.52
365.201	25.6
365.412	99.33
365.623	11.26
365.834	-37.89
366.045	-37.89
366.256	78.85
366.467	144.38
366.678	89.09
366.889	70.65
367.1	80.89
367.311	115.71
367.522	15.36
367.733	107.52
367.944	37.89
368.155	87.04
368.366	46.08
368.577	54.27
368.788	87.04
368.999	-7.17
369.209	82.94
369.42	146.43
369.631	132.09
369.842	117.76
370.053	70.65
370.264	52.22
370.474	25.6
370.685	72.7
370.896	56.32
371.107	78.85
371.317	164.86
371.528	19.46
371.739	87.04
371.95	11.26
372.16	103.42
372.371	107.52
372.582	60.42
372.792	64.51
373.003	54.27
373.214	64.51
373.424	64.51
373.635	9.22
373.846	72.7
374.056	50.18
374.267	39.94
374.477	78.85
374.688	66.56
374.898	48.13
375.109	148.48
375.319	70.65
375.53	66.56
375.74	111.61
375.951	80.89
376.161	80.89
376.372	164.86
376.582	76.8
376.793	70.65
377.003	78.85
377.214	41.98
377.424	150.53
377.635	39.94
377.845	82.94
378.055	105.47
378.266	97.28
378.476	39.94
378.686	56.32
378.897	11.26
379.107	5.12
379.317	39.94
379.528	21.5
379.738	168.96
379.948	52.22
380.158	103.42
380.369	5.12
380.579	48.13
380.789	64.51
380.999	46.08
381.21	179.2
381.42	101.37
381.63	60.42
381.84	97.28
382.05	74.75
382.261	56.32
382.471	105.47
382.681	31.74
382.891	78.85
383.101	101.37
383.311	41.98
383.521	37.89
383.731	138.24
383.941	144.38
384.151	37.89
384.361	72.7
384.571	113.66
384.781	17.41
384.991	211.96
385.201	78.85
385.411	111.61
385.621	72.7
385.831	78.85
386.041	95.23
386.251	37.89
386.461	62.46
386.671	115.71
386.881	-33.79
387.091	66.56
387.301	56.32
387.511	89.09
387.72	97.28
387.93	99.33
388.14	13.31
388.35	82.94
388.56	152.57
388.769	74.75
388.979	72.7
389.189	23.55
389.399	46.08
389.609	115.71
389.818	177.15
390.028	93.18
390.238	54.27
390.447	33.79
390.657	125.95
390.867	25.6
391.076	46.08
391.286	58.37
391.496	144.38
391.705	87.04
391.915	113.66
392.125	3.07
392.334	64.51
392.544	128
392.753	97.28
392.963	109.57
393.172	123.9
393.382	58.37
393.591	136.19
393.801	111.61
394.01	111.61
394.22	171.01
394.429	13.31
394.639	115.71
394.848	62.46
395.058	39.94
395.267	117.76
395.477	68.61
395.686	115.71
395.895	132.09
396.105	162.81
396.314	93.18
396.524	97.28
396.733	111.61
396.942	173.05
397.152	130.05
397.361	164.86
397.57	64.51
397.78	130.05
397.989	103.42
398.198	128
398.407	107.52
398.617	160.77
398.826	173.05
399.035	62.46
399.244	144.38
399.453	80.89
399.663	87.04
399.872	87.04
400.081	78.85
400.29	140.29
400.499	91.13
400.708	160.77
400.917	101.37
401.127	44.03
401.336	144.38
401.545	187.39
401.754	111.61
401.963	207.87
402.172	160.77
402.381	173.05
402.59	123.9
402.799	132.09
403.008	121.85
403.217	152.57
403.426	105.47
403.635	103.42
403.844	211.96
404.053	138.24
404.262	115.71
404.471	205.82
404.68	162.81
404.888	138.24
405.097	168.96
405.306	156.67
405.515	109.57
405.724	195.58
405.933	181.25
406.142	250.88
406.35	220.16
406.559	189.44
406.768	181.25
406.977	207.87
407.185	214.01
407.394	293.88
407.603	203.77
407.812	257.02
408.02	318.46
408.229	193.53
408.438	316.41
408.646	128
408.855	240.64
409.064	283.64
409.272	248.83
409.481	242.68
409.69	302.08
409.898	318.46
410.107	308.22
410.315	263.16
410.524	267.26
410.733	338.94
410.941	392.19
411.15	449.53
411.358	392.19
411.567	482.3
411.775	373.75
411.984	357.37
412.192	431.1
412.401	390.14
412.609	398.33
412.818	488.44
413.026	537.59
413.234	537.59
413.443	566.26
413.651	529.4
413.86	513.02
414.068	613.37
414.276	664.57
414.485	607.22
414.693	691.19
414.901	654.33
415.11	689.14
415.318	639.99
415.526	736.24
415.734	734.2
415.943	678.9
416.151	740.34
416.359	746.48
416.567	857.07
416.776	820.21
416.984	861.17
417.192	963.57
417.4	799.73
417.608	936.95
417.817	975.86
418.025	1090.54
418.233	1113.07
418.441	1074.16
418.649	1029.1
418.857	1242.09
419.065	1344.49
419.273	1248.24
419.481	1307.63
419.689	1313.77
419.897	1354.73
420.105	1444.84
420.313	1481.71
420.521	1506.28
420.729	1598.44
420.937	1555.43
421.145	1645.54
421.353	1756.13
421.561	1784.8
421.769	1864.68
421.977	1915.87
422.185	1879.01
422.393	2038.75
422.601	2106.34
422.809	2110.43
423.017	2085.86
423.224	2317.28
423.432	2348
423.64	2407.39
423.848	2567.13
424.056	2499.55
424.263	2771.93
424.471	2591.7
424.679	2679.77
424.887	2890.71
425.094	3068.88
425.302	3036.11
425.51	3134.42
425.718	3163.09
425.925	3247.05
426.133	3294.16
426.341	3476.43
426.548	3582.92
426.756	3613.64
426.964	3795.91
427.171	4004.8
427.379	4006.85
427.586	4021.19
427.794	4264.89
428.001	4461.5
428.209	4615.1
428.417	4541.37
428.624	4821.94
428.832	4793.27
429.039	4873.14
429.247	4850.61
429.454	5307.31
429.662	5624.75
429.869	5321.65
430.076	5614.51
430.284	5413.81
430.491	5641.13
430.699	6366.11
430.906	6001.57
431.114	6222.75
431.321	6353.82
431.528	6536.09
431.736	6943.64
431.943	7224.21
432.15	6941.59
432.358	7093.14
432.565	7379.86
432.772	7386
432.979	7885.7
433.187	7947.14
433.394	8008.58
433.601	8483.71
433.808	8657.79
434.016	8330.11
434.223	8758.14
434.43	9593.71
434.637	9470.83
434.844	9921.38
435.052	9909.1
435.259	9993.06
435.466	9991.02
435.673	10048.36
435.88	10734.43
436.087	11164.5
436.294	11250.52
436.501	11051.86
436.708	11166.55
436.915	11412.31
437.122	11993.93
437.329	11760.46
437.537	12370.76
437.743	12686.14
437.95	12559.17
438.157	13138.74
438.364	13617.97
438.571	13710.13
438.778	13710.13
438.985	14867.23
439.192	14385.96
439.399	14877.47
439.606	14295.85
439.813	15242.01
440.02	16179.98
440.227	15790.86
440.433	15913.74
440.64	16206.6
440.847	16433.93
441.054	16661.25
441.261	17603.32
441.467	17543.92
441.674	17988.33
441.881	18504.42
442.088	18563.81
442.294	18250.47
442.501	18817.76
442.708	19264.22
442.914	19858.13
443.121	20781.76
443.328	20271.82
443.534	21854.9
443.741	21152.45
443.948	20648.64
444.154	22510.25
444.361	22223.53
444.568	22370.99
444.774	22506.15
444.981	22450.86
445.187	23394.97
445.394	24117.9
445.6	23839.38
445.807	26282.61
446.013	25076.35
446.22	25350.78
446.426	26417.77
446.633	26897
446.839	27728.47
447.046	26714.73
447.252	28342.86
447.459	28144.21
447.665	27931.22
447.871	28992.07
448.078	30614.06
448.284	29397.57
448.491	30022.2
448.697	31107.62
448.903	31914.52
449.11	31957.53
449.316	31150.63
449.522	31519.26
449.728	32686.61
449.935	33143.3
450.141	32915.98
450.347	33559.04
450.553	32672.27
450.76	33088.01
450.966	34099.7
451.172	33833.47
451.378	34638.32
451.584	34218.49
451.791	35135.98
451.997	34767.34
452.203	35684.83
452.409	35312.1
452.615	35467.75
452.821	33911.29
453.027	34193.91
453.233	35545.57
453.44	33878.52
453.646	34511.35
453.852	34529.78
454.058	35406.31
454.264	33702.4
454.47	35054.06
454.676	34206.2
454.882	35090.92
455.088	32234
455.294	32584.21
455.5	33344
455.705	33647.1
455.911	32449.04
456.117	31799.83
456.323	31435.3
456.529	29874.74
456.735	30939.69
456.941	30110.26
457.147	29585.98
457.352	28975.69
457.558	28738.12
457.764	28559.95
457.97	27976.28
458.176	27425.37
458.381	27212.38
458.587	25918.07
458.793	26055.28
458.999	24902.28
459.204	26606.19
459.41	25672.31
459.616	24007.31
459.821	24115.86
460.027	23970.45
460.233	23730.84
460.438	22360.75
460.644	22551.21
460.85	21635.77
461.055	21357.24
461.261	21195.45
461.466	19598.04
461.672	19243.74
461.878	20388.55
462.083	18664.16
462.289	18674.4
462.494	18369.26
462.7	17711.86
462.905	17079.04
463.111	18017.01
463.316	18043.63
463.522	17341.18
463.727	17359.61
463.932	17341.18
464.138	17144.57
464.343	17302.26
464.549	16694.02
464.754	17257.21
464.959	17306.36
465.165	16843.52
465.37	16356.1
465.575	16003.85
465.781	16519.94
465.986	16591.62
466.191	15987.47
466.397	15665.94
466.602	14959.39
466.807	15389.46
467.012	15393.56
467.218	15411.99
467.423	15405.84
467.628	15571.73
467.833	15923.98
468.038	15399.7
468.244	14850.85
468.449	15549.2
468.654	15010.59
468.859	14961.44
469.064	14852.89
469.269	14166.82
469.474	14457.64
469.679	14613.28
469.885	14089
470.09	14504.74
470.295	14371.62
470.5	14115.62
470.705	14095.14
470.91	13746.99
471.115	13624.11
471.32	13796.14
471.525	13738.8
471.73	13351.73
471.935	13521.71
472.139	12843.84
472.344	13089.59
472.549	12938.04
472.754	12735.29
472.959	12757.82
473.164	12057.42
473.369	12223.3
473.574	12624.7
473.778	12297.03
473.983	12294.98
474.188	12217.16
474.393	11883.34
474.598	11746.12
474.802	11733.84
475.007	11881.29
475.212	11686.73
475.417	11354.96
475.621	11367.25
475.826	11354.96
476.031	10996.57
476.235	10785.63
476.44	11098.97
476.645	10679.13
476.849	10783.58
477.054	10554.21
477.259	10486.62
477.463	10566.49
477.668	10072.93
477.872	10195.81
478.077	10087.27
478.282	9841.51
478.486	9913.19
478.691	9784.17
478.895	9675.63
479.1	9626.48
479.304	9548.65
479.509	9550.7
479.713	9694.06
479.918	9423.73
480.122	9173.88
480.326	9345.91
480.531	9294.71
480.735	9259.89
480.94	9231.22
481.144	9448.3
481.348	8934.26
481.553	9253.75
481.757	8921.98
481.961	9053.05
482.166	9245.55
482.37	9180.02
482.574	8852.34
482.778	8983.41
482.983	9220.98
483.187	8876.92
483.391	9014.13
483.595	9028.47
483.8	9061.24
484.004	8854.39
484.208	9147.25
484.412	8729.47
484.616	8946.55
484.821	9122.68
485.025	8799.1
485.229	9096.05
485.433	9059.19
485.637	8911.74
485.841	8991.61
486.045	8811.39
486.249	8903.54
486.453	8856.44
486.657	8934.26
486.861	9137.01
487.065	8967.03
487.269	8926.07
487.473	8629.12
487.677	9010.04
487.881	9091.96
488.085	8942.46
488.289	9102.2
488.493	8754.04
488.697	9091.96
488.901	9034.61
489.105	9046.9
489.309	9075.57
489.512	9053.05
489.716	9132.92
489.92	9130.87
490.124	9155.44
490.328	9323.38
490.531	9288.56
490.735	9118.58
490.939	9120.63
491.143	9276.27
491.346	9104.25
491.55	9177.97
491.754	9276.27
491.958	9397.1
492.161	9405.3
492.365	9393.01
492.569	9446.26
492.772	9476.98
492.976	9679.72
493.18	9276.27
493.383	9540.46
493.587	9683.82
493.79	9825.13
493.994	9782.12
494.197	9812.84
494.401	9929.58
494.605	10029.93
494.808	10013.54
495.012	10105.7
495.215	10122.09
495.419	10060.65
495.622	10294.11
495.825	10318.69
496.029	10445.66
496.232	10597.21
496.436	10527.58
496.639	10974.04
496.843	10562.4
497.046	10990.42
497.249	11221.84
497.453	11041.62
497.656	11137.88
497.859	11275.09
498.063	11297.62
498.266	11555.66
498.469	11535.18
498.673	11674.45
498.876	11930.44
499.079	11928.39
499.282	11860.81
499.485	12340.04
499.689	12161.86
499.892	12401.47
500.095	12319.56
500.298	12987.19
500.501	12704.57
500.705	12847.93
500.908	13044.54
501.111	13519.67
501.314	13540.15
501.517	13687.6
501.72	13769.52
501.923	13716.27
502.126	14062.38
502.329	14050.09
502.532	14232.36
502.735	14291.75
502.938	14734.11
503.141	14570.27
503.344	14967.58
503.547	14943
503.75	15285.01
503.953	15590.16
504.156	15350.55
504.359	15735.57
504.562	15624.98
504.765	15983.37
504.968	16362.25
505.17	16444.17
505.373	16339.72
505.576	16886.53
505.779	16706.31
505.982	16913.15
506.185	17339.13
506.387	17345.27
506.59	17572.6
506.793	17879.79
506.996	17810.16
507.198	18209.51
507.401	18180.84
507.604	18399.98
507.807	18778.85
508.009	18963.17
508.212	18866.91
508.415	19241.69
508.617	19333.85
508.82	19442.39
509.022	19632.85
509.225	19704.53
509.428	20206.28
509.63	20245.2
509.833	20069.07
510.035	20662.98
510.238	20624.07
510.44	21197.5
510.643	21414.59
510.845	21570.23
511.048	21535.42
511.25	21908.15
511.453	21908.15
511.655	22760.1
511.858	22612.65
512.06	22713
512.262	23102.11
512.465	22823.59
512.667	23319.2
512.87	23102.11
513.072	23523.99
513.274	24171.15
513.477	24283.79
513.679	24236.69
513.881	24765.06
514.084	24572.55
514.286	24756.87
514.488	25125.5
514.69	25989.75
514.893	25901.68
515.095	26241.65
515.297	26487.4
515.499	26258.03
515.701	26755.69
515.904	27058.79
516.106	27376.22
516.308	27296.35
516.51	27693.66
516.712	27740.76
516.914	27988.56
517.116	28361.3
517.318	28334.67
517.52	29020.74
517.722	28985.93
517.925	29280.83
518.127	29418.05
518.329	29598.27
518.531	29712.95
518.733	30163.51
518.935	30421.55
519.136	30474.8
519.338	30841.39
519.54	31203.88
519.742	31627.81
519.944	31629.85
520.146	31826.46
520.348	32064.02
520.55	32434.71
520.752	32490
520.954	32907.79
521.155	32557.58
521.357	33485.31
521.559	33501.7
521.761	33851.9
521.963	33829.37
522.164	34073.08
522.366	34449.91
522.568	34832.88
522.77	34681.33
522.971	35359.2
523.173	35035.63
523.375	35344.87
523.576	35498.47
523.778	35846.62
523.98	35981.79
524.181	36438.48
524.383	36303.32
524.584	36790.73
524.786	36915.66
524.988	36731.34
525.189	37554.63
525.391	37011.92
525.592	37829.05
525.794	37634.5
525.995	37773.76
526.197	37747.14
526.398	37933.5
526.6	38115.77
526.801	38392.25
527.003	38945.2
527.204	38674.87
527.406	39059.88
527.607	39076.27
527.808	38941.1
528.01	38617.52
528.211	39399.85
528.412	40126.88
528.614	39467.43
528.815	39631.27
529.016	40069.53
529.218	39506.34
529.419	40216.99
529.62	40161.69
529.822	40006.05
530.023	39999.9
530.224	40434.07
530.425	40196.51
530.626	40325.53
530.828	40169.88
531.029	40968.59
531.23	40194.46
531.431	40655.25
531.632	40749.46
531.833	41056.65
532.035	40608.15
532.236	40690.07
532.437	41181.58
532.638	41009.55
532.839	41134.48
533.04	41304.46
533.241	40477.08
533.442	41437.58
533.643	41283.98
533.844	41310.6
534.045	41138.57
534.246	41019.79
534.447	41314.7
534.648	41365.9
534.849	41568.65
535.05	41486.73
535.251	41283.98
535.451	41073.04
535.652	41693.57
535.853	41159.05
536.054	41838.98
536.255	41669
536.456	41273.74
536.657	41636.23
536.857	41107.85
537.058	41279.88
537.259	41501.06
537.46	42004.86
537.66	41367.94
537.861	41748.87
538.062	41488.77
538.263	41515.4
538.463	41073.04
538.664	41625.99
538.865	41544.07
539.065	41726.34
539.266	40858
539.466	41277.83
539.667	41320.84
539.868	42148.22
540.068	41437.58
540.269	41464.2
540.469	41515.4
540.67	41247.11
540.87	41296.27
541.071	41175.44
541.271	41640.32
541.472	41406.86
541.672	41140.62
541.873	41210.25
542.073	41013.65
542.274	42045.82
542.474	41369.99
542.675	40970.64
542.875	41533.83
543.075	41253.26
543.276	40497.56
543.476	41658.76
543.676	41433.48
543.877	41435.53
544.077	41245.07
544.277	41396.62
544.478	41390.47
544.678	41394.57
544.878	41120.14
545.078	41619.84
545.279	41103.76
545.479	40927.63
545.679	41609.61
545.879	41050.51
546.079	41255.31
546.28	40911.25
546.48	41013.65
546.68	41470.34
546.88	40911.25
547.08	41095.56
547.28	41142.67
547.48	40741.27
547.68	41183.63
547.88	41052.56
548.081	41126.28
548.281	40921.49
548.481	40741.27
548.681	41091.47
548.881	41316.75
549.081	41040.27
549.28	40925.58
549.48	41345.42
549.68	40696.21
549.88	41617.8
550.08	40882.58
550.28	40870.29
550.48	40653.2
550.68	41376.14
550.88	40892.82
551.08	40685.97
551.279	40692.12
551.479	40311.19
551.679	40774.03
551.879	40786.32
552.079	40923.54
552.278	40599.96
552.478	40800.66
552.678	40806.8
552.878	40923.54
553.077	40583.57
553.277	40495.51
553.477	40911.25
553.676	40413.59
553.876	40651.16
554.076	40024.48
554.275	40190.36
554.475	40343.96
554.674	40413.59
554.874	40616.34
555.074	40393.11
555.273	40579.48
555.473	40307.1
555.672	40120.73
555.872	40061.34
556.071	40472.98
556.271	40509.85
556.47	39952.8
556.67	39829.92
556.869	40022.43
557.068	40051.1
557.268	39862.69
557.467	39991.71
557.667	40006.05
557.866	40053.15
558.065	39858.59
558.265	39471.53
558.464	39104.94
558.663	39928.22
558.863	38949.29
559.062	39971.23
559.261	39084.46
559.461	40004
559.66	39035.31
559.859	39600.55
560.058	39002.54
560.258	38961.58
560.457	39080.36
560.656	39256.49
560.855	38986.16
561.054	38961.58
561.253	38799.79
561.453	38930.86
561.652	39166.38
561.851	38896.05
562.05	38762.93
562.249	38068.67
562.448	38713.78
562.647	38388.15
562.846	38617.52
563.045	38302.14
563.244	37884.35
563.443	38611.38
563.642	37882.3
563.841	37923.26
564.04	37634.5
564.239	38089.15
564.438	37513.67
564.637	37880.25
564.836	37841.34
565.035	37216.71
565.234	37896.64
565.432	37155.27
565.631	37325.25
565.83	37581.25
566.029	37214.66
566.228	37337.54
566.427	37054.92
566.625	36946.38
566.824	36833.74
567.023	37511.62
567.222	35955.16
567.42	36841.93
567.619	36866.51
567.818	36518.35
568.016	36682.19
568.215	36458.96
568.414	36157.91
568.612	36348.37
568.811	36037.08
569.01	36108.76
569.208	35590.62
569.407	36030.94
569.605	35475.94
569.804	36049.37
570.002	35629.54
570.201	35717.6
570.4	35162.6
570.598	35324.39
570.797	35013.1
570.995	35090.92
571.193	35021.29
571.392	35391.97
571.59	34527.73
571.789	34894.32
571.987	34785.77
572.186	34730.48
572.384	34693.61
572.582	34916.84
572.781	34920.94
572.979	34177.53
573.177	34193.91
573.376	34359.8
573.574	34064.89
573.772	34337.27
573.971	33933.82
574.169	33968.63
574.367	33475.07
574.565	33917.43
574.763	33698.3
574.962	33376.77
575.16	33194.5
575.358	33382.91
575.556	33139.21
575.754	33577.47
575.952	33001.99
576.151	33362.43
576.349	32793.1
576.547	33024.52
576.745	33128.97
576.943	32653.84
577.141	32721.42
577.339	32877.07
577.537	32639.5
577.735	32272.92
577.933	32393.75
578.131	32260.63
578.329	32107.03
578.527	31779.36
578.725	31924.76
578.923	31664.67
579.121	31683.1
579.319	31625.76
579.516	31959.58
579.714	31613.47
579.912	31986.2
580.11	31296.03
580.308	31474.21
580.506	31377.95
580.704	30712.36
580.901	31283.75
581.099	31396.38
581.297	30736.94
581.495	30693.93
581.692	31183.4
581.89	30691.88
582.088	30986.79
582.285	30526
582.483	30923.3
582.681	30663.21
582.878	30405.17
583.076	29872.7
583.274	30190.13
583.471	29862.46
583.669	30071.35
583.866	29782.59
584.064	29827.64
584.262	29665.85
584.459	30304.82
584.657	29493.82
584.854	29827.64
585.052	29063.75
585.249	29702.71
585.447	29213.25
585.644	29160
585.841	29428.29
586.039	29286.98
586.236	29211.2
586.434	29235.78
586.631	28793.42
586.828	28617.29
587.026	28947.01
587.223	28645.96
587.42	28850.76
587.618	28832.33
587.815	28183.12
588.012	28121.68
588.21	28189.27
588.407	28588.62
588.604	28203.6
588.801	27994.71
588.999	27734.62
589.196	27871.83
589.393	27859.54
589.59	27845.21
589.787	27634.27
589.984	27386.46
590.182	27204.19
590.379	27730.52
590.576	27304.54
590.773	27314.78
590.97	27028.07
591.167	27109.99
591.364	26847.85
591.561	27069.03
591.758	26466.92
591.955	26897
592.152	26813.03
592.349	26397.29
592.546	26679.91
592.743	26518.12
592.94	26139.25
593.137	26489.45
593.334	26503.79
593.531	26292.85
593.727	26610.28
593.924	25743.99
594.121	25868.92
594.318	25977.46
594.515	25584.25
594.712	25735.8
594.908	25907.83
595.105	25526.91
595.302	25469.56
595.499	25662.07
595.696	25414.27
595.892	25422.46
596.089	25143.94
596.286	25086.59
596.482	25172.61
596.679	24986.24
596.876	25023.11
597.072	24756.87
597.269	24806.02
597.466	24758.92
597.662	24623.75
597.859	24484.49
598.055	24629.9
598.252	24437.39
598.448	24371.85
598.645	24251.02
598.841	24359.56
599.038	24244.88
599.234	24064.66
599.431	23823
599.627	23947.92
599.824	23929.49
600.02	23605.91
600.217	23536.28
600.413	23472.79
600.609	23546.52
600.806	23575.19
601.002	23364.25
601.198	23251.61
601.395	23214.75
601.591	23108.26
601.787	23345.82
601.984	22901.41
602.18	23335.58
602.376	22954.66
602.572	22921.89
602.769	22923.94
602.965	22370.99
603.161	22692.52
603.357	22588.07
603.553	22700.71
603.75	22674.09
603.946	22565.54
604.142	22534.82
604.338	22272.68
604.534	22276.78
604.73	22102.7
604.926	21869.23
605.122	22022.83
605.318	22121.13
605.514	22006.45
605.71	21705.4
605.906	21615.29
606.102	21551.8
606.298	21803.7
606.494	21564.09
606.69	21750.45
606.886	21588.66
607.082	21443.26
607.278	21369.53
607.474	21273.28
607.67	21367.48
607.866	21095.1
608.062	21441.21
608.257	21234.36
608.453	21172.92
608.649	21263.04
608.845	20906.69
609.041	20759.24
609.236	20959.94
609.432	20802.24
609.628	20822.72
609.824	20669.12
610.019	20488.9
610.215	20845.25
610.411	20925.12
610.606	20525.77
610.802	20505.29
610.998	20601.54
611.193	20497.1
611.389	20398.79
611.584	20579.01
611.78	20208.33
611.976	20267.72
612.171	20630.21
612.367	19995.34
612.562	19952.34
612.758	20060.88
612.953	19907.28
613.149	20286.15
613.344	19876.56
613.539	20150.99
613.735	19833.55
613.93	20034.25
614.126	19722.96
614.321	20296.39
614.517	19804.88
614.712	19634.9
614.907	19491.54
615.103	19620.56
615.298	19593.94
615.493	19716.82
615.688	19245.79
615.884	19671.76
616.079	19346.14
616.274	19514.07
616.47	19395.29
616.665	19458.78
616.86	19370.71
617.055	19497.69
617.25	19215.07
617.445	19493.59
617.641	18846.43
617.836	19114.72
618.031	18911.97
618.226	18928.35
618.421	18805.47
618.616	19286.75
618.811	18393.83
619.006	19122.91
619.201	18348.78
619.396	19049.18
619.591	18408.17
619.786	18451.17
619.981	18256.62
620.176	18340.58
620.371	18105.07
620.566	17941.23
620.761	17924.85
620.956	18166.51
621.151	17873.65
621.346	18012.91
621.541	17515.25
621.735	17873.65
621.93	17525.49
622.125	17496.82
622.32	17412.85
622.515	17439.48
622.709	17326.84
622.904	17554.16
623.099	17177.34
623.294	17052.41
623.488	16814.85
623.683	16964.35
623.878	16786.18
624.072	16829.18
624.267	16585.47
624.462	16777.98
624.656	16358.15
624.851	16298.76
625.046	16222.98
625.24	16169.74
625.435	16073.48
625.629	16028.43
625.824	15932.17
626.018	16014.09
626.213	15696.66
626.407	15860.49
626.602	15500.05
626.796	15498
626.991	15741.71
627.185	15457.04
627.38	15135.51
627.574	15151.9
627.768	14977.82
627.963	15190.81
628.157	14697.25
628.352	14725.92
628.546	14861.09
628.74	14807.84
628.935	14517.03
629.129	14734.11
629.323	14316.33
629.517	14168.87
629.712	14449.44
629.906	14349.09
630.1	14082.86
630.294	14166.82
630.489	13851.44
630.683	14119.72
630.877	13884.2
631.071	13689.65
631.265	13798.19
631.459	13751.09
631.653	13677.36
631.848	13513.52
632.042	13556.53
632.236	13445.94
632.43	13402.93
632.624	13495.09
632.818	13269.81
633.012	13026.11
633.206	12993.34
633.4	13181.75
633.594	13019.96
633.788	12925.75
633.982	13024.06
634.176	12833.6
634.369	12665.66
634.563	12532.54
634.757	12598.08
634.951	12520.26
635.145	12399.43
635.339	12223.3
635.533	12589.89
635.726	12446.53
635.92	12221.25
636.114	12016.46
636.308	12086.09
636.501	11834.19
636.695	11942.73
636.889	11844.43
637.083	11789.13
637.276	11725.65
637.47	11647.82
637.664	11451.22
637.857	11285.33
638.051	11570
638.244	11416.4
638.438	11285.33
638.632	11172.69
638.825	11230.04
639.019	11352.91
639.212	11111.25
639.406	11031.38
639.599	11221.84
639.793	10953.56
639.986	10769.24
640.18	10842.97
640.373	10806.11
640.567	10500.96
640.76	10697.56
640.954	10666.85
641.147	10464.1
641.34	10283.88
641.534	10439.52
641.727	10429.28
641.92	10392.42
642.114	10359.65
642.307	10232.68
642.5	10330.98
642.694	9905
642.887	10167.14
643.08	10058.6
643.273	9853.8
643.467	9845.61
643.66	9659.24
643.853	9984.87
644.046	9861.99
644.239	9845.61
644.432	9730.92
644.626	9614.19
644.819	9372.53
645.012	9712.49
645.205	9364.34
645.398	9517.93
645.591	9427.82
645.784	9481.07
645.977	9354.1
646.17	9126.77
646.363	9182.07
646.556	8872.82
646.749	8964.98
646.942	9071.48
647.135	9040.76
647.328	8897.4
647.521	8919.93
647.714	8795
647.907	8731.51
648.099	8672.12
648.292	8622.97
648.485	8672.12
648.678	8418.18
648.871	8389.5
649.064	8354.69
649.256	8532.86
649.449	8414.08
649.642	8342.4
649.835	8401.79
650.027	8215.43
650.22	8211.33
650.413	8182.66
650.605	8274.82
650.798	8147.84
650.991	8172.42
651.183	7904.14
651.376	7922.57
651.568	8024.97
651.761	7938.95
651.954	7824.26
652.146	7793.55
652.339	7992.2
652.531	7766.92
652.724	7787.4
652.916	7504.78
653.109	7588.75
653.301	7822.22
653.494	7648.14
653.686	7512.97
653.879	7773.07
654.071	7453.58
654.263	7361.42
654.456	7621.52
654.648	7439.25
654.84	7410.57
655.033	7273.36
655.225	7414.67
655.417	7273.36
655.61	7314.32
655.802	7246.74
655.994	7287.7
656.186	7048.08
656.379	7023.51
656.571	7058.32
656.763	6933.4
656.955	6990.74
657.148	7074.71
657.34	7064.47
657.532	6628.25
657.724	6642.59
657.916	6890.39
658.108	6968.21
658.3	6620.06
658.492	6740.89
658.684	6503.32
658.876	6529.95
659.068	6556.57
659.26	6476.7
659.452	6263.71
659.644	6609.82
659.836	6624.15
660.028	6532
660.22	6304.67
660.412	6386.59
660.604	6230.94
660.796	6468.51
660.988	6284.19
661.18	6194.08
661.372	6218.66
661.563	6294.43
661.755	6081.44
661.947	6210.47
662.139	6060.96
662.331	6222.75
662.522	6063.01
662.714	5942.18
662.906	6034.34
663.097	5878.69
663.289	5917.61
663.481	5708.71
663.673	5852.07
663.864	5845.93
664.056	5815.21
664.247	5788.58
664.439	5727.14
664.631	5794.73
664.822	5872.55
665.014	5784.49
665.205	5729.19
665.397	5677.99
665.588	5663.66
665.78	5671.85
665.971	5618.6
666.163	5632.94
666.354	5665.71
666.546	5657.51
666.737	5551.02
666.929	5573.55
667.12	5452.72
667.311	5331.89
667.503	5307.31
667.694	5569.45
667.885	5422
668.077	5448.62
668.268	5397.42
668.459	5559.21
668.651	5333.93
668.842	5176.24
669.033	5272.5
669.224	5358.51
669.416	5372.85
669.607	5266.35
669.798	5141.43
669.989	5180.34
670.18	5155.76
670.371	5110.71
670.563	5102.51
670.754	5108.66
670.945	4916.15
671.136	5172.15
671.327	5110.71
671.518	5110.71
671.709	4963.25
671.9	5129.14
672.091	5018.55
672.282	4920.24
672.473	4944.82
672.664	4934.58
672.855	5051.31
673.046	4926.39
673.237	5049.27
673.428	5059.51
673.619	4993.97
673.809	4893.62
674	5008.31
674.191	4828.09
674.382	4862.9
674.573	4887.48
674.764	4875.19
674.954	4907.96
675.145	4785.08
675.336	4912.05
675.527	4686.78
675.717	4801.46
675.908	4805.56
676.099	4869.05
676.289	4768.7
676.48	4772.79
676.671	4678.58
676.861	4791.22
677.052	4879.29
677.243	4631.48
677.433	4813.75
677.624	4715.45
677.814	4826.04
678.005	4793.27
678.195	4875.19
678.386	4887.48
678.576	4623.29
678.767	4701.11
678.957	4703.16
679.148	4746.17
679.338	4871.09
679.529	4707.26
679.719	4742.07
679.909	4717.5
680.1	4758.46
680.29	4750.26
680.481	4707.26
680.671	4801.46
680.861	4748.22
681.052	4740.02
681.242	4621.24
681.432	4680.63
681.622	4754.36
681.813	4699.06
682.003	4746.17
682.193	4725.69
682.383	4774.84
682.573	4772.79
682.764	4647.87
682.954	4823.99
683.144	4830.13
683.334	4705.21
683.524	4602.81
683.714	4705.21
683.904	4686.78
684.094	4697.02
684.284	4574.14
684.474	4656.06
684.664	4449.21
684.854	4641.72
685.044	4635.58
685.234	4471.74
685.424	4651.96
685.614	4543.42
685.804	4492.22
685.994	4649.91
686.184	4668.34
686.374	4502.46
686.564	4488.12
686.753	4389.82
686.943	4324.29
687.133	4352.96
687.323	4389.82
687.513	4533.18
687.702	4340.67
687.892	4213.7
688.082	4461.5
688.272	4346.81
688.461	4305.85
688.651	4301.76
688.841	4228.03
689.03	4234.18
689.22	4189.12
689.41	4361.15
689.599	4252.61
689.789	4158.4
689.979	4182.98
690.168	4160.45
690.358	4166.59
690.547	4154.3
690.737	3953.6
690.926	4058.05
691.116	3955.65
691.305	3937.22
691.495	4119.49
691.684	3998.66
691.874	3857.35
692.063	3908.55
692.252	4004.8
692.442	4033.47
692.631	3910.6
692.82	3824.58
693.01	3871.68
693.199	3851.21
693.388	3838.92
693.578	3640.26
693.767	3896.26
693.956	3791.81
694.146	3601.35
694.335	3728.33
694.524	3800.01
694.713	3765.19
694.902	3691.46
695.092	3781.57
695.281	3634.12
695.47	3642.31
695.659	3550.15
695.848	3578.83
696.037	3625.93
696.226	3683.27
696.415	3595.21
696.604	3670.98
696.793	3597.26
696.982	3517.39
697.171	3675.08
697.36	3519.43
697.549	3584.97
697.738	3498.95
697.927	3535.82
698.116	3556.3
698.305	3658.7
698.494	3554.25
698.683	3496.91
698.872	3595.21
699.061	3578.83
699.25	3472.33
699.438	3425.23
699.627	3490.76
699.816	3486.67
700.005	3486.67
700.193	3388.36
700.382	3509.19
700.571	3425.23
700.76	3341.26
700.948	3533.77
701.137	3511.24
701.326	3439.56
701.514	3316.69
701.703	3505.1
701.892	3406.8
702.08	3384.27
702.269	3552.2
702.457	3343.31
702.646	3439.56
702.834	3404.75
703.023	3390.41
703.212	3511.24
703.4	3396.56
703.589	3365.84
703.777	3365.84
703.965	3388.36
704.154	3482.57
704.342	3478.47
704.531	3408.84
704.719	3498.95
704.907	3597.26
705.096	3326.93
705.284	3365.84
705.472	3642.31
705.661	3445.71
705.849	3429.32
706.037	3529.67
706.226	3531.72
706.414	3486.67
706.602	3408.84
706.79	3564.49
706.979	3371.98
707.167	3478.47
707.355	3398.6
707.543	3535.82
707.731	3576.78
707.919	3521.48
708.107	3371.98
708.296	3470.28
708.484	3611.59
708.672	3505.1
708.86	3539.91
709.048	3451.85
709.236	3462.09
709.424	3474.38
709.612	3611.59
709.8	3433.42
709.988	3492.81
710.176	3572.68
710.364	3496.91
710.551	3580.87
710.739	3539.91
710.927	3453.9
711.115	3619.78
711.303	3492.81
711.491	3617.74
711.679	3425.23
711.866	3515.34
712.054	3517.39
712.242	3529.67
712.43	3550.15
712.617	3533.77
712.805	3591.11
712.993	3627.98
713.181	3464.14
713.368	3679.18
713.556	3611.59
713.744	3484.62
713.931	3744.71
714.119	3556.3
714.306	3617.74
714.494	3623.88
714.682	3550.15
714.869	3445.71
715.057	3699.66
715.244	3546.06
715.432	3568.59
715.619	3595.21
715.807	3689.42
715.994	3611.59
716.182	3664.84
716.369	3566.54
716.556	3652.55
716.744	3642.31
716.931	3615.69
717.119	3574.73
717.306	3632.07
717.493	3650.5
717.681	3675.08
717.868	3568.59
718.055	3664.84
718.242	3691.46
718.43	3689.42
718.617	3623.88
718.804	3763.14
718.991	3797.96
719.179	3765.19
719.366	3732.42
719.553	3765.19
719.74	3740.61
719.927	3691.46
720.114	3804.1
720.301	3619.78
720.488	3617.74
720.676	3722.18
720.863	3720.14
721.05	3859.4
721.237	3627.98
721.424	3849.16
721.611	3691.46
721.798	3738.57
721.985	3697.61
722.172	3838.92
722.358	3597.26
722.545	3732.42
722.732	3642.31
722.919	3793.86
723.106	3683.27
723.293	3642.31
723.48	3705.8
723.667	3847.11
723.853	3718.09
724.04	3701.7
724.227	3822.53
724.414	3822.53
724.6	3945.41
724.787	3757
724.974	3908.55
725.161	3808.2
725.347	3707.85
725.534	3857.35
725.72	3818.44
725.907	3777.48
726.094	3924.93
726.28	3728.33
726.467	3722.18
726.653	3869.64
726.84	3974.08
727.027	3931.08
727.213	3998.66
727.4	3840.97
727.586	3969.99
727.773	4010.95
727.959	3890.12
728.145	3939.27
728.332	3933.12
728.518	3896.26
728.705	3963.84
728.891	3888.07
729.077	3847.11
729.264	3969.99
729.45	3965.89
729.636	4039.62
729.823	3926.98
730.009	3908.55
730.195	3947.46
730.382	3939.27
730.568	3849.16
730.754	3875.78
730.94	4027.33
731.126	4039.62
731.313	3982.28
731.499	3890.12
731.685	3879.88
731.871	3861.45
732.057	3937.22
732.243	4072.39
732.429	3961.8
732.615	3924.93
732.801	3943.36
732.987	3924.93
733.173	3986.37
733.359	3912.64
733.545	3920.84
733.731	4051.91
733.917	3961.8
734.103	3904.45
734.289	3992.52
734.475	3967.94
734.661	3906.5
734.847	3896.26
735.033	3980.23
735.219	3941.32
735.404	3998.66
735.59	3838.92
735.776	3857.35
735.962	3894.21
736.148	3963.84
736.333	4047.81
736.519	3791.81
736.705	3916.74
736.89	3926.98
737.076	3886.02
737.262	3929.03
737.447	3922.88
737.633	3800.01
737.819	3830.73
738.004	3865.54
738.19	3754.95
738.375	3709.9
738.561	3820.49
738.747	3783.62
738.932	3892.16
739.118	4002.75
739.303	3820.49
739.489	3920.84
739.674	3767.24
739.859	3687.37
740.045	3828.68
740.23	3736.52
740.416	3621.83
740.601	3843.01
740.786	3822.53
740.972	3697.61
741.157	3775.43
741.342	3621.83
741.528	3720.14
741.713	3713.99
741.898	3662.79
742.084	3648.46
742.269	3767.24
742.454	3677.13
742.639	3795.91
742.824	3550.15
743.01	3728.33
743.195	3580.87
743.38	3556.3
743.565	3541.96
743.75	3709.9
743.935	3527.63
744.12	3527.63
744.305	3621.83
744.49	3537.87
744.675	3537.87
744.86	3445.71
745.045	3431.37
745.23	3486.67
745.415	3349.45
745.6	3480.52
745.785	3361.74
745.97	3404.75
746.155	3458
746.34	3470.28
746.525	3273.68
746.71	3462.09
746.895	3224.53
747.079	3388.36
747.264	3245.01
747.449	3181.52
747.634	3283.92
747.819	3199.95
748.003	3134.42
748.188	3222.48
748.373	3138.51
748.557	3142.61
748.742	3103.7
748.927	3122.13
749.111	3167.18
749.296	2980.82
749.481	3027.92
749.665	3032.02
749.85	2941.91
750.034	3007.44
750.219	2925.52
750.404	2991.06
750.588	2921.43
750.773	2905.04
750.957	3087.31
751.141	2882.52
751.326	2892.76
751.51	2773.97
751.695	2831.32
751.879	2837.46
752.064	2851.8
752.248	2958.29
752.432	2759.64
752.617	2636.76
752.801	2706.39
752.985	2642.9
753.17	2585.56
753.354	2685.91
753.538	2634.71
753.722	2655.19
753.907	2618.33
754.091	2524.12
754.275	2595.8
754.459	2552.79
754.643	2472.92
754.828	2489.31
755.012	2511.83
755.196	2466.78
755.38	2348
755.564	2380.76
755.748	2495.45
755.932	2393.05
756.116	2343.9
756.3	2270.17
756.484	2288.61
756.668	2335.71
756.852	2315.23
757.036	2331.61
757.22	2286.56
757.404	2352.09
757.588	2241.5
757.772	2294.75
757.956	2251.74
758.14	2259.93
758.323	2081.76
758.507	2192.35
758.691	2092
758.875	2085.86
759.059	2175.97
759.242	2128.86
759.426	2173.92
759.61	2139.1
759.794	2018.27
759.977	2114.53
760.161	2196.45
760.345	1971.17
760.528	2135.01
760.712	2081.76
760.895	1967.07
761.079	1999.84
761.263	1973.22
761.446	1985.51
761.63	1956.83
761.813	1924.07
761.997	1973.22
762.18	1903.59
762.364	1860.58
762.547	1885.16
762.731	1860.58
762.914	1866.72
763.098	1885.16
763.281	1799.14
763.464	1774.56
763.648	1790.95
763.831	1807.33
764.015	1721.32
764.198	1864.68
764.381	1758.18
764.564	1848.29
764.748	1801.19
764.931	1766.37
765.114	1752.04
765.297	1768.42
765.481	1737.7
765.664	1743.85
765.847	1760.23
766.03	1807.33
766.213	1598.44
766.397	1686.5
766.58	1700.84
766.763	1629.16
766.946	1596.39
767.129	1647.59
767.312	1749.99
767.495	1692.65
767.678	1516.52
767.861	1623.02
768.044	1725.41
768.227	1682.41
768.41	1483.75
768.593	1575.91
768.776	1543.14
768.959	1551.34
769.142	1600.49
769.324	1485.8
769.507	1518.57
769.69	1453.03
769.873	1704.93
770.056	1590.25
770.239	1489.9
770.421	1481.71
770.604	1532.9
770.787	1539.05
770.97	1557.48
771.152	1483.75
771.335	1481.71
771.518	1414.12
771.7	1395.69
771.883	1473.51
772.066	1428.46
772.248	1424.36
772.431	1463.27
772.613	1410.03
772.796	1446.89
772.978	1369.07
773.161	1434.6
773.343	1283.05
773.526	1342.44
773.708	1344.49
773.891	1299.44
774.073	1348.59
774.256	1418.22
774.438	1373.16
774.621	1256.43
774.803	1364.97
774.985	1211.37
775.168	1246.19
775.35	1375.21
775.532	1205.23
775.715	1217.52
775.897	1309.68
776.079	1246.19
776.261	1139.69
776.444	1256.43
776.626	1238
776.808	1139.69
776.99	1194.99
777.173	1106.93
777.355	1143.79
777.537	1166.32
777.719	1119.21
777.901	1184.75
778.083	1096.69
778.265	1049.58
778.447	1098.74
778.629	1039.34
778.811	1086.45
778.993	1100.78
779.175	1115.12
779.357	1074.16
779.539	945.14
779.721	1031.15
779.903	1061.87
780.085	990.19
780.267	1025.01
780.449	1041.39
780.631	1111.02
780.812	957.43
780.994	859.12
781.176	904.18
781.358	1008.62
781.54	902.13
781.721	861.17
781.903	996.34
782.085	891.89
782.267	850.93
782.448	855.03
782.63	961.52
782.812	877.55
782.993	885.75
783.175	924.66
783.357	766.96
783.538	869.36
783.72	809.97
783.901	846.84
784.083	869.36
784.264	873.46
784.446	713.72
784.627	783.35
784.809	726
784.99	762.87
785.172	805.88
785.353	791.54
785.535	709.62
785.716	754.68
785.897	766.96
786.079	709.62
786.26	771.06
786.441	758.77
786.623	689.14
786.804	676.85
786.985	642.04
787.167	842.74
787.348	658.42
787.529	728.05
787.71	797.68
787.891	820.21
788.073	662.52
788.254	599.03
788.435	852.98
788.616	736.24
788.797	619.51
788.978	621.56
789.159	646.13
789.34	631.8
789.522	779.25
789.703	570.36
789.884	685.05
790.065	580.6
790.246	629.75
790.427	650.23
790.607	662.52
790.788	639.99
790.969	607.22
791.15	521.21
791.331	564.22
791.512	562.17
791.693	568.31
791.874	551.93
792.054	629.75
792.235	709.62
792.416	562.17
792.597	599.03
792.778	601.08
792.958	574.46
793.139	572.41
793.32	484.34
793.5	461.82
793.681	492.54
793.862	568.31
794.042	584.7
794.223	541.69
794.404	496.63
794.584	463.86
794.765	539.64
794.945	558.07
795.126	646.13
795.306	537.59
795.487	486.39
795.667	521.21
795.848	435.19
796.028	492.54
796.209	513.02
796.389	537.59
796.57	556.02
796.75	449.53
796.93	470.01
797.111	463.86
797.291	467.96
797.471	537.59
797.652	498.68
797.832	396.28
798.012	508.92
798.192	427
798.373	400.38
798.553	470.01
798.733	414.71
798.913	472.06
799.093	392.19
799.274	513.02
799.454	394.23
799.634	404.47
799.814	457.72
799.994	433.15
800.174	447.48
800.354	431.1
800.534	355.32
800.714	361.47
800.894	402.43
801.074	400.38
801.254	351.23
801.434	402.43
801.614	392.19
801.794	394.23
801.974	1244.14
802.154	289.79
802.334	381.95
802.514	400.38
802.693	314.36
802.873	388.09
803.053	427
803.233	398.33
803.413	429.05
803.592	379.9
803.772	320.51
803.952	377.85
804.131	390.14
804.311	386.04
804.491	347.13
804.67	355.32
804.85	295.93
805.03	377.85
805.209	381.95
805.389	351.23
805.568	312.32
805.748	297.98
805.928	377.85
806.107	265.21
806.287	363.51
806.466	377.85
806.646	252.92
806.825	371.71
807.004	332.79
807.184	300.03
807.363	300.03
807.543	285.69
807.722	334.84
807.901	424.95
808.081	334.84
808.26	242.68
808.439	324.6
808.619	289.79
808.798	398.33
808.977	386.04
809.156	369.66
809.336	332.79
809.515	218.11
809.694	285.69
809.873	308.22
810.052	306.17
810.231	365.56
810.411	340.99
810.59	314.36
810.769	199.68
810.948	267.26
811.127	269.31
811.306	257.02
811.485	302.08
811.664	330.75
811.843	242.68
812.022	154.62
812.201	310.27
812.38	271.36
812.559	334.84
812.737	390.14
812.916	252.92
813.095	259.07
813.274	314.36
813.453	246.78
813.632	326.65
813.811	244.73
813.989	203.77
814.168	318.46
814.347	164.86
814.526	220.16
814.704	261.12
814.883	257.02
815.062	160.77
815.24	285.69
815.419	142.33
815.598	267.26
815.776	164.86
815.955	214.01
816.133	152.57
816.312	287.74
816.49	209.92
816.669	187.39
816.847	181.25
817.026	322.56
817.204	236.54
817.383	185.34
817.561	173.05
817.74	259.07
817.918	234.49
818.097	193.53
818.275	191.49
818.453	238.59
818.632	238.59
818.81	218.11
818.988	201.72
819.167	193.53
819.345	220.16
819.523	121.85
819.701	228.35
819.879	205.82
820.058	232.44
820.236	214.01
820.414	162.81
820.592	189.44
820.77	199.68
820.948	160.77
821.127	187.39
821.305	271.36
821.483	103.42
821.661	203.77
821.839	248.83
822.017	142.33
822.195	238.59
822.373	236.54
822.551	226.3
822.729	158.72
822.907	107.52
823.085	177.15
823.262	160.77
823.44	132.09
823.618	84.99
823.796	164.86
823.974	148.48
824.152	123.9
824.329	189.44
824.507	148.48
824.685	214.01
824.863	138.24
825.04	144.38
825.218	226.3
825.396	128
825.574	115.71
825.751	201.72
825.929	230.4
826.107	125.95
826.284	152.57
826.462	150.53
826.639	136.19
826.817	168.96
826.994	119.81
827.172	119.81
827.349	246.78
827.527	136.19
827.704	185.34
827.882	154.62
828.059	156.67
828.237	136.19
828.414	171.01
828.591	111.61
828.769	115.71
828.946	144.38
829.124	185.34
829.301	173.05
829.478	154.62
829.655	117.76
829.833	156.67
830.01	95.23
830.187	218.11
830.364	41.98
830.542	156.67
830.719	203.77
830.896	87.04
831.073	162.81
831.25	78.85
831.427	224.25
831.604	128
831.782	101.37
831.959	164.86
832.136	119.81
832.313	99.33
832.49	64.51
832.667	152.57
832.844	140.29
833.021	111.61
833.198	103.42
833.374	54.27
833.551	123.9
833.728	66.56
833.905	78.85
834.082	11.26
834.259	93.18
834.436	222.2
834.612	156.67
834.789	187.39
834.966	119.81
835.143	97.28
835.319	76.8
835.496	152.57
835.673	99.33
835.85	152.57
836.026	125.95
836.203	113.66
836.38	58.37
836.556	11.26
836.733	54.27
836.909	201.72
837.086	54.27
837.262	46.08
837.439	64.51
837.616	25.6
837.792	97.28
837.968	76.8
838.145	9.22
838.321	121.85
838.498	117.76
838.674	189.44
838.851	173.05
839.027	111.61
839.203	72.7
839.38	138.24
839.556	5.12
839.732	142.33
839.909	103.42
840.085	171.01
840.261	121.85
840.437	113.66
840.614	89.09
840.79	115.71
840.966	105.47
841.142	107.52
841.318	56.32
841.494	107.52
841.671	66.56
841.847	97.28
842.023	46.08
842.199	103.42
842.375	113.66
842.551	-76.8
842.727	136.19
842.903	82.94
843.079	41.98
843.255	177.15
843.431	136.19
843.607	136.19
843.783	66.56
843.959	177.15
844.134	93.18
844.31	111.61
844.486	54.27
844.662	7.17
844.838	150.53
845.013	37.89
845.189	37.89
845.365	-1.02
845.541	119.81
845.716	123.9
845.892	168.96
846.068	33.79
846.244	62.46
846.419	41.98
846.595	46.08
846.77	68.61
846.946	35.84
847.122	-9.22
847.297	95.23
847.473	91.13
847.648	62.46
847.824	99.33
847.999	35.84
848.175	74.75
848.35	80.89
848.526	140.29
848.701	82.94
848.876	68.61
849.052	93.18
849.227	84.99
849.403	37.89
849.578	121.85
849.753	93.18
849.929	111.61
850.104	66.56
850.279	148.48
850.454	56.32
850.63	66.56
850.805	48.13
850.98	62.46
851.155	62.46
851.33	74.75
851.505	17.41
851.681	101.37
851.856	46.08
852.031	128
852.206	48.13
852.381	80.89
852.556	142.33
852.731	44.03
852.906	80.89
853.081	54.27
853.256	78.85
853.431	70.65
853.606	97.28
853.781	44.03
853.956	-50.18
854.131	17.41
854.305	-37.89
854.48	-7.17
854.655	58.37
854.83	9.22
855.005	62.46
855.18	13.31
855.354	-9.22
855.529	19.46
855.704	58.37
855.879	72.7
856.053	132.09
856.228	56.32
856.403	56.32
856.577	84.99
856.752	13.31
856.926	41.98
857.101	37.89
857.276	33.79
857.45	123.9
857.625	78.85
857.799	37.89
857.974	31.74
858.148	11.26
858.323	50.18
858.497	-1.02
858.672	54.27
858.846	-11.26
859.02	64.51
859.195	1.02
859.369	54.27
859.543	7.17
859.718	60.42
859.892	87.04
860.066	29.7
860.241	15.36
860.415	5.12
860.589	46.08
860.763	44.03
860.938	-3.07
861.112	72.7
861.286	48.13
861.46	25.6
861.634	78.85
861.808	25.6
861.982	46.08
862.157	39.94
862.331	15.36
862.505	13.31
862.679	52.22
862.853	21.5
863.027	111.61
863.201	74.75
863.375	-31.74
863.549	123.9
863.722	39.94
863.896	93.18
864.07	-19.46
864.244	37.89
864.418	56.32
864.592	72.7
864.766	-1.02
864.939	13.31
865.113	-41.98
865.287	39.94
865.461	17.41
865.634	27.65
865.808	23.55
865.982	87.04
866.156	62.46
866.329	-31.74
866.503	72.7
866.676	37.89
866.85	58.37
867.024	82.94
867.197	97.28
867.371	148.48
867.544	48.13
867.718	21.5
867.891	48.13
868.065	25.6
868.238	21.5
868.412	125.95
868.585	19.46
868.759	31.74
868.932	-39.94
869.105	76.8
869.279	19.46
869.452	-23.55
869.625	162.81
869.799	58.37
869.972	-41.98
870.145	54.27
870.319	105.47
870.492	-15.36
870.665	21.5
870.838	1.02
871.011	-19.46
871.185	62.46
871.358	-27.65
871.531	9.22
871.704	23.55
871.877	-11.26
872.05	21.5
872.223	-17.41
872.396	21.5
872.569	46.08
872.742	39.94
872.915	58.37
873.088	-1.02
873.261	5.12
873.434	89.09
873.607	17.41
873.78	105.47
873.953	-13.31
874.126	82.94
874.299	105.47
874.471	39.94
874.644	91.13
874.817	5.12
874.99	158.72
875.163	-7.17
875.335	117.76
875.508	7.17
875.681	89.09
875.853	-54.27
876.026	44.03
876.199	5.12
876.371	56.32
876.544	-15.36
876.717	37.89
876.889	21.5
877.062	50.18
877.234	-58.37
877.407	-11.26
877.579	62.46
877.752	5.12
877.924	37.89
878.097	46.08
878.269	-29.7
878.442	84.99
878.614	13.31
878.786	9.22
878.959	23.55
879.131	-54.27
879.303	-23.55
879.476	52.22
879.648	119.81
879.82	31.74
879.993	37.89
880.165	56.32
880.337	46.08
880.509	37.89
880.681	-37.89
880.854	37.89
881.026	19.46
881.198	37.89
881.37	-1.02
881.542	68.61
881.714	37.89
881.886	37.89
882.058	89.09
882.23	31.74
882.402	-25.6
882.574	87.04
882.746	62.46
882.918	25.6
883.09	-21.5
883.262	48.13
883.434	52.22
883.606	-19.46
883.778	3.07
883.95	54.27
884.122	21.5
884.293	115.71
884.465	-7.17
884.637	35.84
884.809	13.31
884.98	39.94
885.152	60.42
885.324	72.7
885.496	-1.02
885.667	7.17
885.839	13.31
886.011	78.85
886.182	-21.5
886.354	21.5
886.525	107.52
886.697	95.23
886.869	25.6
887.04	-27.65
887.212	54.27
887.383	111.61
887.555	29.7
887.726	3.07
887.897	-1.02
888.069	-17.41
888.24	82.94
888.412	78.85
888.583	-23.55
888.754	29.7
888.926	-33.79
889.097	27.65
889.268	29.7
889.44	72.7
889.611	-95.23
889.782	19.46
889.953	-9.22
890.125	99.33
890.296	21.5
890.467	44.03
890.638	-31.74
890.809	-25.6
890.98	56.32
891.151	-23.55
891.323	70.65
891.494	33.79
891.665	9.22
891.836	91.13
892.007	-15.36
892.178	91.13
892.349	-17.41
892.52	1.02
892.691	41.98
892.862	-50.18
893.032	-72.7
893.203	87.04
893.374	44.03
893.545	80.89
893.716	-9.22
893.887	99.33
894.057	13.31
894.228	-27.65
894.399	-27.65
894.57	44.03
894.74	91.13
894.911	-9.22
895.082	-19.46
895.253	-27.65
895.423	5.12
895.594	15.36
895.764	19.46
895.935	54.27
896.106	37.89
896.276	33.79
896.447	44.03
896.617	-3.07
896.788	-39.94
896.958	-11.26
897.129	82.94
897.299	5.12
897.47	54.27
897.64	97.28
897.81	5.12
897.981	7.17
898.151	5.12
898.322	21.5
898.492	-3.07
898.662	1.02
898.832	-35.84
899.003	80.89
899.173	29.7
899.343	-21.5
899.513	-3.07
