Data from USB4F104151__100__13-06-32-916.txt Node

Date: Fri Mar 14 13:06:32 EDT 2025
User: louis
Spectrometer: USB4F10415
Trigger mode: 4
Integration Time (sec): 4.000000E-2
Scans to average: 1
Electric dark correction enabled: true
Nonlinearity correction enabled: false
Boxcar width: 0
XAxis mode: Wavelengths
Number of Pixels in Spectrum: 3648
>>>>>Begin Spectral Data<<<<<
178.204	-126.46
178.424	-126.46
178.644	-126.46
178.864	-216.57
179.084	-237.05
179.304	-67.07
179.524	25.09
179.744	-28.16
179.964	4.61
180.184	12.8
180.404	6.66
180.624	47.62
180.844	20.99
181.064	-19.97
181.283	20.99
181.503	-15.87
181.723	-7.68
181.943	-69.12
182.163	96.77
182.383	43.52
182.602	23.04
182.822	72.19
183.042	-30.21
183.262	-3.58
183.482	-38.4
183.701	-22.02
183.921	64
184.141	-7.68
184.361	41.47
184.58	-40.45
184.8	-15.87
185.02	10.75
185.239	37.38
185.459	64
185.679	8.7
185.898	-60.93
186.118	94.72
186.338	-17.92
186.557	53.76
186.777	-24.06
186.997	31.23
187.216	37.38
187.436	86.53
187.655	49.66
187.875	-15.87
188.095	-24.06
188.314	59.9
188.534	88.57
188.753	-22.02
188.973	-3.58
189.192	66.05
189.412	55.81
189.631	109.05
189.851	18.94
190.07	90.62
190.29	-3.58
190.509	-30.21
190.729	47.62
190.948	-28.16
191.168	190.97
191.387	109.05
191.607	-48.64
191.826	70.14
192.045	8.7
192.265	18.94
192.484	25.09
192.704	-30.21
192.923	-54.78
193.142	98.81
193.362	84.48
193.581	59.9
193.8	92.67
194.02	31.23
194.239	20.99
194.458	4.61
194.678	41.47
194.897	-11.78
195.116	14.85
195.335	-9.73
195.555	49.66
195.774	78.33
195.993	139.77
196.212	-11.78
196.432	-7.68
196.651	29.18
196.87	4.61
197.089	86.53
197.308	20.99
197.528	55.81
197.747	-108.03
197.966	6.66
198.185	68.09
198.404	14.85
198.623	-1.54
198.842	-3.58
199.062	111.1
199.281	-11.78
199.5	-38.4
199.719	23.04
199.938	35.33
200.157	45.57
200.376	59.9
200.595	41.47
200.814	-42.5
201.033	-3.58
201.252	121.34
201.471	96.77
201.69	102.91
201.909	-15.87
202.128	43.52
202.347	8.7
202.566	84.48
202.785	-28.16
203.004	-28.16
203.223	111.1
203.442	0.51
203.661	33.28
203.879	10.75
204.098	-5.63
204.317	37.38
204.536	104.96
204.755	12.8
204.974	84.48
205.193	4.61
205.411	129.53
205.63	29.18
205.849	72.19
206.068	-17.92
206.287	-58.88
206.505	68.09
206.724	12.8
206.943	-15.87
207.162	39.42
207.381	51.71
207.599	2.56
207.818	-11.78
208.037	-15.87
208.255	53.76
208.474	55.81
208.693	66.05
208.911	51.71
209.13	-3.58
209.349	45.57
209.567	86.53
209.786	86.53
210.005	86.53
210.223	-52.74
210.442	-36.35
210.661	31.23
210.879	-48.64
211.098	12.8
211.316	80.38
211.535	47.62
211.753	47.62
211.972	35.33
212.191	-11.78
212.409	78.33
212.628	84.48
212.846	-36.35
213.065	109.05
213.283	94.72
213.502	-38.4
213.72	12.8
213.938	66.05
214.157	12.8
214.375	39.42
214.594	45.57
214.812	-28.16
215.031	59.9
215.249	-7.68
215.467	70.14
215.686	4.61
215.904	82.43
216.122	41.47
216.341	86.53
216.559	-1.54
216.778	78.33
216.996	27.14
217.214	31.23
217.432	-7.68
217.651	-67.07
217.869	-7.68
218.087	64
218.306	55.81
218.524	14.85
218.742	-5.63
218.96	98.81
219.179	59.9
219.397	-24.06
219.615	0.51
219.833	-26.11
220.051	-1.54
220.27	49.66
220.488	100.86
220.706	78.33
220.924	57.86
221.142	31.23
221.36	6.66
221.578	18.94
221.796	18.94
222.015	84.48
222.233	37.38
222.451	80.38
222.669	-3.58
222.887	98.81
223.105	-1.54
223.323	49.66
223.541	-24.06
223.759	80.38
223.977	-7.68
224.195	53.76
224.413	92.67
224.631	96.77
224.849	37.38
225.067	92.67
225.285	-22.02
225.503	39.42
225.721	-97.79
225.939	-24.06
226.157	-60.93
226.375	104.96
226.592	-42.5
226.81	10.75
227.028	47.62
227.246	145.92
227.464	-9.73
227.682	8.7
227.9	10.75
228.117	29.18
228.335	-15.87
228.553	14.85
228.771	-67.07
228.989	31.23
229.206	31.23
229.424	70.14
229.642	-26.11
229.86	-30.21
230.077	59.9
230.295	51.71
230.513	-5.63
230.731	41.47
230.948	82.43
231.166	72.19
231.384	-17.92
231.601	35.33
231.819	61.95
232.037	-69.12
232.254	4.61
232.472	-19.97
232.689	-11.78
232.907	25.09
233.125	-26.11
233.342	-40.45
233.56	31.23
233.777	-52.74
233.995	35.33
234.213	102.91
234.43	33.28
234.648	-11.78
234.865	10.75
235.083	-3.58
235.3	20.99
235.518	25.09
235.735	-11.78
235.953	53.76
236.17	4.61
236.388	57.86
236.605	-50.69
236.822	82.43
237.04	33.28
237.257	6.66
237.475	-89.6
237.692	47.62
237.909	-7.68
238.127	-5.63
238.344	8.7
238.562	27.14
238.779	4.61
238.996	-40.45
239.214	8.7
239.431	31.23
239.648	29.18
239.865	70.14
240.083	57.86
240.3	-34.3
240.517	-26.11
240.735	-26.11
240.952	121.34
241.169	31.23
241.386	-36.35
241.603	78.33
241.821	45.57
242.038	25.09
242.255	35.33
242.472	-24.06
242.689	51.71
242.907	49.66
243.124	37.38
243.341	-3.58
243.558	-1.54
243.775	20.99
243.992	35.33
244.209	29.18
244.426	141.82
244.643	45.57
244.86	4.61
245.078	66.05
245.295	16.9
245.512	-1.54
245.729	-26.11
245.946	25.09
246.163	70.14
246.38	39.42
246.597	-54.78
246.814	10.75
247.031	88.57
247.248	4.61
247.464	25.09
247.681	-36.35
247.898	-15.87
248.115	66.05
248.332	-36.35
248.549	20.99
248.766	135.68
248.983	86.53
249.2	23.04
249.417	78.33
249.633	-54.78
249.85	94.72
250.067	70.14
250.284	45.57
250.501	20.99
250.717	70.14
250.934	-22.02
251.151	10.75
251.368	107.01
251.585	39.42
251.801	-9.73
252.018	23.04
252.235	20.99
252.451	-48.64
252.668	-13.82
252.885	0.51
253.102	90.62
253.318	72.19
253.535	76.29
253.752	-65.02
253.968	27.14
254.185	-32.26
254.401	-15.87
254.618	29.18
254.835	66.05
255.051	41.47
255.268	23.04
255.484	88.57
255.701	39.42
255.917	47.62
256.134	12.8
256.351	51.71
256.567	18.94
256.784	-42.5
257	-52.74
257.217	80.38
257.433	111.1
257.65	-13.82
257.866	109.05
258.082	29.18
258.299	31.23
258.515	33.28
258.732	0.51
258.948	33.28
259.165	-17.92
259.381	-3.58
259.597	31.23
259.814	49.66
260.03	-1.54
260.246	-19.97
260.463	43.52
260.679	41.47
260.895	51.71
261.112	47.62
261.328	-30.21
261.544	-42.5
261.761	143.87
261.977	14.85
262.193	37.38
262.409	111.1
262.626	55.81
262.842	51.71
263.058	2.56
263.274	41.47
263.49	66.05
263.707	14.85
263.923	84.48
264.139	25.09
264.355	70.14
264.571	53.76
264.787	27.14
265.004	66.05
265.22	55.81
265.436	-7.68
265.652	-13.82
265.868	23.04
266.084	14.85
266.3	29.18
266.516	-67.07
266.732	55.81
266.948	55.81
267.164	-36.35
267.38	-9.73
267.596	80.38
267.812	47.62
268.028	-9.73
268.244	-34.3
268.46	66.05
268.676	102.91
268.892	20.99
269.108	-1.54
269.324	-22.02
269.54	-69.12
269.756	61.95
269.972	-40.45
270.188	23.04
270.403	-5.63
270.619	-38.4
270.835	41.47
271.051	92.67
271.267	20.99
271.483	20.99
271.698	6.66
271.914	37.38
272.13	37.38
272.346	-19.97
272.562	0.51
272.777	145.92
272.993	25.09
273.209	20.99
273.425	10.75
273.64	-24.06
273.856	152.06
274.072	-28.16
274.287	39.42
274.503	33.28
274.719	78.33
274.934	70.14
275.15	33.28
275.366	-24.06
275.581	8.7
275.797	-46.59
276.012	2.56
276.228	-26.11
276.444	12.8
276.659	98.81
276.875	-17.92
277.09	45.57
277.306	16.9
277.521	-19.97
277.737	12.8
277.952	-1.54
278.168	96.77
278.383	6.66
278.599	-50.69
278.814	98.81
279.03	57.86
279.245	49.66
279.461	31.23
279.676	0.51
279.892	14.85
280.107	-17.92
280.322	53.76
280.538	33.28
280.753	-11.78
280.969	80.38
281.184	90.62
281.399	86.53
281.615	20.99
281.83	78.33
282.045	31.23
282.26	-11.78
282.476	55.81
282.691	39.42
282.906	-38.4
283.122	8.7
283.337	68.09
283.552	33.28
283.767	29.18
283.983	68.09
284.198	-1.54
284.413	88.57
284.628	-22.02
284.843	37.38
285.058	33.28
285.274	4.61
285.489	-19.97
285.704	41.47
285.919	-11.78
286.134	23.04
286.349	20.99
286.564	57.86
286.779	45.57
286.995	88.57
287.21	107.01
287.425	84.48
287.64	12.8
287.855	64
288.07	37.38
288.285	66.05
288.5	29.18
288.715	68.09
288.93	18.94
289.145	43.52
289.36	88.57
289.575	-3.58
289.79	78.33
290.004	4.61
290.219	8.7
290.434	12.8
290.649	12.8
290.864	61.95
291.079	12.8
291.294	14.85
291.509	-11.78
291.724	20.99
291.938	59.9
292.153	-22.02
292.368	66.05
292.583	18.94
292.798	70.14
293.012	20.99
293.227	143.87
293.442	-44.54
293.657	82.43
293.871	59.9
294.086	-60.93
294.301	123.39
294.516	107.01
294.73	55.81
294.945	2.56
295.16	4.61
295.374	88.57
295.589	45.57
295.804	-17.92
296.018	66.05
296.233	29.18
296.447	61.95
296.662	4.61
296.877	74.24
297.091	135.68
297.306	53.76
297.52	-36.35
297.735	49.66
297.949	27.14
298.164	-3.58
298.378	-34.3
298.593	49.66
298.807	-3.58
299.022	-32.26
299.236	80.38
299.451	39.42
299.665	55.81
299.88	43.52
300.094	-19.97
300.309	64
300.523	12.8
300.737	57.86
300.952	39.42
301.166	27.14
301.381	8.7
301.595	10.75
301.809	59.9
302.024	25.09
302.238	53.76
302.452	100.86
302.667	-48.64
302.881	68.09
303.095	113.15
303.309	37.38
303.524	-36.35
303.738	39.42
303.952	10.75
304.166	23.04
304.381	-46.59
304.595	133.63
304.809	12.8
305.023	16.9
305.237	27.14
305.452	39.42
305.666	41.47
305.88	78.33
306.094	43.52
306.308	31.23
306.522	72.19
306.736	41.47
306.95	125.44
307.164	8.7
307.379	43.52
307.593	68.09
307.807	74.24
308.021	61.95
308.235	127.49
308.449	-9.73
308.663	18.94
308.877	127.49
309.091	8.7
309.305	-11.78
309.519	-24.06
309.733	18.94
309.947	12.8
310.161	29.18
310.374	31.23
310.588	64
310.802	-75.26
311.016	31.23
311.23	57.86
311.444	33.28
311.658	49.66
311.872	61.95
312.085	145.92
312.299	96.77
312.513	141.82
312.727	37.38
312.941	-44.54
313.154	94.72
313.368	80.38
313.582	0.51
313.796	14.85
314.009	76.29
314.223	45.57
314.437	119.29
314.651	43.52
314.864	39.42
315.078	20.99
315.292	-28.16
315.505	-7.68
315.719	100.86
315.933	23.04
316.146	76.29
316.36	-24.06
316.573	90.62
316.787	129.53
317.001	64
317.214	-24.06
317.428	23.04
317.641	-17.92
317.855	16.9
318.068	74.24
318.282	55.81
318.495	94.72
318.709	72.19
318.922	78.33
319.136	76.29
319.349	37.38
319.563	31.23
319.776	4.61
319.99	18.94
320.203	49.66
320.417	2.56
320.63	55.81
320.843	78.33
321.057	53.76
321.27	-34.3
321.483	72.19
321.697	33.28
321.91	41.47
322.124	14.85
322.337	-7.68
322.55	20.99
322.763	-5.63
322.977	18.94
323.19	29.18
323.403	82.43
323.617	20.99
323.83	57.86
324.043	-1.54
324.256	49.66
324.469	16.9
324.683	102.91
324.896	-32.26
325.109	4.61
325.322	-3.58
325.535	57.86
325.748	57.86
325.962	41.47
326.175	45.57
326.388	14.85
326.601	41.47
326.814	12.8
327.027	53.76
327.24	82.43
327.453	-19.97
327.666	80.38
327.879	47.62
328.092	37.38
328.305	141.82
328.518	33.28
328.731	10.75
328.944	94.72
329.157	-3.58
329.37	39.42
329.583	127.49
329.796	74.24
330.009	33.28
330.222	68.09
330.435	68.09
330.648	78.33
330.861	53.76
331.073	76.29
331.286	78.33
331.499	49.66
331.712	-34.3
331.925	-5.63
332.138	70.14
332.35	78.33
332.563	39.42
332.776	45.57
332.989	-24.06
333.202	16.9
333.414	55.81
333.627	23.04
333.84	-1.54
334.053	66.05
334.265	20.99
334.478	80.38
334.691	8.7
334.903	-32.26
335.116	8.7
335.329	66.05
335.541	12.8
335.754	166.4
335.966	12.8
336.179	23.04
336.392	0.51
336.604	39.42
336.817	94.72
337.029	49.66
337.242	57.86
337.454	31.23
337.667	25.09
337.88	88.57
338.092	45.57
338.305	29.18
338.517	14.85
338.729	113.15
338.942	72.19
339.154	-77.31
339.367	18.94
339.579	33.28
339.792	-26.11
340.004	51.71
340.217	8.7
340.429	8.7
340.641	2.56
340.854	14.85
341.066	-3.58
341.278	68.09
341.491	139.77
341.703	-1.54
341.915	-5.63
342.128	117.25
342.34	41.47
342.552	-28.16
342.764	23.04
342.977	12.8
343.189	29.18
343.401	123.39
343.613	4.61
343.826	6.66
344.038	20.99
344.25	39.42
344.462	-38.4
344.674	-1.54
344.886	27.14
345.099	51.71
345.311	-3.58
345.523	-11.78
345.735	-36.35
345.947	64
346.159	-22.02
346.371	104.96
346.583	12.8
346.795	164.35
347.007	-42.5
347.219	-28.16
347.431	53.76
347.643	104.96
347.855	25.09
348.067	2.56
348.279	-32.26
348.491	37.38
348.703	72.19
348.915	74.24
349.127	4.61
349.339	53.76
349.551	64
349.763	72.19
349.975	53.76
350.187	51.71
350.399	53.76
350.61	29.18
350.822	92.67
351.034	41.47
351.246	39.42
351.458	70.14
351.669	33.28
351.881	74.24
352.093	88.57
352.305	113.15
352.517	139.77
352.728	47.62
352.94	61.95
353.152	96.77
353.363	-7.68
353.575	47.62
353.787	37.38
353.999	6.66
354.21	135.68
354.422	-112.13
354.633	43.52
354.845	68.09
355.057	98.81
355.268	45.57
355.48	78.33
355.692	12.8
355.903	37.38
356.115	25.09
356.326	20.99
356.538	82.43
356.749	45.57
356.961	100.86
357.172	104.96
357.384	41.47
357.595	143.87
357.807	-9.73
358.018	-60.93
358.23	-1.54
358.441	100.86
358.653	31.23
358.864	74.24
359.075	76.29
359.287	96.77
359.498	45.57
359.709	33.28
359.921	35.33
360.132	-11.78
360.344	82.43
360.555	14.85
360.766	45.57
360.977	49.66
361.189	20.99
361.4	27.14
361.611	96.77
361.823	18.94
362.034	25.09
362.245	-32.26
362.456	-42.5
362.667	76.29
362.879	29.18
363.09	141.82
363.301	131.58
363.512	113.15
363.723	29.18
363.935	29.18
364.146	20.99
364.357	53.76
364.568	61.95
364.779	16.9
364.99	37.38
365.201	154.11
365.412	39.42
365.623	16.9
365.834	45.57
366.045	16.9
366.256	55.81
366.467	74.24
366.678	72.19
366.889	14.85
367.1	55.81
367.311	94.72
367.522	80.38
367.733	74.24
367.944	41.47
368.155	107.01
368.366	82.43
368.577	86.53
368.788	94.72
368.999	92.67
369.209	16.9
369.42	150.01
369.631	107.01
369.842	74.24
370.053	10.75
370.264	115.2
370.474	4.61
370.685	16.9
370.896	-17.92
371.107	70.14
371.317	61.95
371.528	6.66
371.739	117.25
371.95	61.95
372.16	107.01
372.371	20.99
372.582	2.56
372.792	94.72
373.003	49.66
373.214	29.18
373.424	86.53
373.635	-67.07
373.846	121.34
374.056	115.2
374.267	141.82
374.477	109.05
374.688	-40.45
374.898	72.19
375.109	23.04
375.319	55.81
375.53	102.91
375.74	160.25
375.951	59.9
376.161	47.62
376.372	102.91
376.582	51.71
376.793	57.86
377.003	8.7
377.214	6.66
377.424	33.28
377.635	96.77
377.845	41.47
378.055	78.33
378.266	47.62
378.476	53.76
378.686	107.01
378.897	55.81
379.107	115.2
379.317	80.38
379.528	47.62
379.738	104.96
379.948	6.66
380.158	57.86
380.369	59.9
380.579	20.99
380.789	29.18
380.999	137.73
381.21	61.95
381.42	70.14
381.63	129.53
381.84	-1.54
382.05	66.05
382.261	70.14
382.471	70.14
382.681	-11.78
382.891	35.33
383.101	14.85
383.311	14.85
383.521	31.23
383.731	98.81
383.941	66.05
384.151	96.77
384.361	27.14
384.571	80.38
384.781	96.77
384.991	66.05
385.201	70.14
385.411	131.58
385.621	80.38
385.831	90.62
386.041	70.14
386.251	61.95
386.461	59.9
386.671	43.52
386.881	123.39
387.091	53.76
387.301	162.3
387.511	84.48
387.72	121.34
387.93	68.09
388.14	-34.3
388.35	-3.58
388.56	152.06
388.769	96.77
388.979	123.39
389.189	43.52
389.399	70.14
389.609	39.42
389.818	94.72
390.028	80.38
390.238	100.86
390.447	-24.06
390.657	121.34
390.867	47.62
391.076	76.29
391.286	20.99
391.496	94.72
391.705	59.9
391.915	113.15
392.125	70.14
392.334	37.38
392.544	94.72
392.753	64
392.963	33.28
393.172	43.52
393.382	16.9
393.591	152.06
393.801	102.91
394.01	143.87
394.22	139.77
394.429	88.57
394.639	20.99
394.848	141.82
395.058	96.77
395.267	88.57
395.477	74.24
395.686	76.29
395.895	121.34
396.105	168.45
396.314	90.62
396.524	49.66
396.733	80.38
396.942	178.69
397.152	70.14
397.361	137.73
397.57	164.35
397.78	86.53
397.989	115.2
398.198	227.84
398.407	111.1
398.617	139.77
398.826	168.45
399.035	154.11
399.244	113.15
399.453	31.23
399.663	152.06
399.872	168.45
400.081	107.01
400.29	195.07
400.499	131.58
400.708	201.21
400.917	154.11
401.127	37.38
401.336	131.58
401.545	203.26
401.754	111.1
401.963	166.4
402.172	137.73
402.381	127.49
402.59	188.93
402.799	197.12
403.008	156.16
403.217	162.3
403.426	184.83
403.635	74.24
403.844	174.59
404.053	197.12
404.262	162.3
404.471	172.54
404.68	94.72
404.888	236.03
405.097	115.2
405.306	180.73
405.515	201.21
405.724	111.1
405.933	209.4
406.142	174.59
406.35	238.08
406.559	279.04
406.768	248.32
406.977	285.18
407.185	256.51
407.394	205.31
407.603	156.16
407.812	279.04
408.02	354.81
408.229	342.52
408.438	254.46
408.646	180.73
408.855	422.39
409.064	276.99
409.272	227.84
409.481	358.91
409.69	338.43
409.898	348.67
410.107	432.63
410.315	457.21
410.524	430.59
410.733	471.54
410.941	416.25
411.15	475.64
411.358	532.98
411.567	563.7
411.775	532.98
411.984	522.74
412.192	621.05
412.401	506.36
412.609	639.48
412.818	643.57
413.026	651.77
413.234	610.81
413.443	692.73
413.651	745.97
413.86	664.05
414.068	831.99
414.276	784.88
414.485	711.16
414.693	807.41
414.901	981.49
415.11	915.95
415.318	823.8
415.526	981.49
415.734	948.72
415.943	1055.22
416.151	1130.99
416.359	1171.95
416.567	1085.94
416.776	1317.36
416.984	1282.54
417.192	1327.6
417.4	1188.33
417.608	1180.14
417.817	1333.74
418.025	1407.47
418.233	1571.3
418.441	1538.54
418.649	1485.29
418.857	1663.46
419.065	1821.16
419.273	1751.53
419.481	1739.24
419.689	1997.28
419.897	1966.56
420.105	2093.54
420.313	2068.96
420.521	2075.1
420.729	2128.35
420.937	2191.84
421.145	2423.26
421.353	2499.03
421.561	2554.33
421.769	2595.29
421.977	2621.91
422.185	2873.81
422.393	2912.72
422.601	2998.74
422.809	3150.29
423.017	2965.97
423.224	3199.44
423.432	3297.74
423.64	3322.32
423.848	3531.21
424.056	3762.63
424.263	3877.32
424.471	3879.36
424.679	4018.63
424.887	4192.7
425.094	4243.9
425.302	4229.57
425.51	4362.69
425.718	4463.04
425.925	4561.34
426.133	4985.27
426.341	5134.77
426.548	5335.47
426.756	5327.28
426.964	5333.42
427.171	5552.56
427.379	5769.64
427.586	5816.74
427.794	6136.23
428.001	6377.89
428.209	6513.05
428.417	6527.39
428.624	7156.11
428.832	7106.96
429.039	7029.14
429.247	7063.96
429.454	7766.41
429.662	8003.97
429.869	7631.24
430.076	8165.76
430.284	7917.96
430.491	8245.63
430.699	8561.02
430.906	8870.26
431.114	9003.38
431.321	9023.86
431.528	9404.78
431.736	10008.94
431.943	10402.15
432.15	10092.9
432.358	10164.58
432.565	10887.51
432.772	10907.99
432.979	11286.87
433.187	11704.65
433.394	11551.06
433.601	12329.28
433.808	12464.45
434.016	12335.43
434.223	12855.61
434.43	13535.54
434.637	13441.33
434.844	14309.67
435.052	14483.75
435.259	14399.78
435.466	14582.05
435.673	14213.42
435.88	15200.54
436.087	15993.1
436.294	16019.72
436.501	15653.14
436.708	16304.39
436.915	16793.86
437.122	17567.99
437.329	17178.87
437.537	17762.54
437.743	18282.73
437.95	18098.41
438.157	19159.26
438.364	19615.96
438.571	19517.65
438.778	20062.41
438.985	21577.91
439.192	20785.35
439.399	21477.56
439.606	20916.42
439.813	22120.62
440.02	23660.69
440.227	22798.5
440.433	22638.76
440.64	23398.55
440.847	23455.9
441.054	23951.51
441.261	25649.27
441.467	25313.41
441.674	25712.76
441.881	26660.97
442.088	26450.03
442.294	26458.22
442.501	27140.19
442.708	27619.42
442.914	28868.68
443.121	29933.62
443.328	28952.65
443.534	31221.8
443.741	30169.14
443.948	29816.89
444.154	32290.84
444.361	31836.19
444.568	32253.97
444.774	32174.1
444.981	32491.54
445.187	33431.55
445.394	34736.11
445.6	34242.55
445.807	37679.04
446.013	36032.47
446.22	36917.2
446.426	38100.92
446.633	38199.23
446.839	40202.14
447.046	38512.56
447.252	40712.08
447.459	40173.47
447.665	40501.14
447.871	41643.91
448.078	44068.7
448.284	41516.93
448.491	42884.98
448.697	44502.87
448.903	45600.58
449.11	45508.43
449.316	44638.04
449.522	45801.29
449.728	46772.02
449.935	47097.65
450.141	46802.74
450.347	48164.64
450.553	46720.82
450.76	47349.55
450.966	48969.49
451.172	48615.19
451.378	49563.4
451.584	48428.83
451.791	50018.05
451.997	49950.47
452.203	50747.13
452.409	50267.9
452.615	49954.57
452.821	48871.19
453.027	48248.61
453.233	50286.34
453.44	48715.54
453.646	49198.87
453.852	48914.2
454.058	50063.11
454.264	48699.16
454.47	50134.79
454.676	48215.84
454.882	49833.74
455.088	45715.27
455.294	46554.94
455.5	47347.5
455.705	47898.41
455.911	45983.55
456.117	44898.13
456.323	44525.4
456.529	42362.75
456.735	44070.75
456.941	42977.14
457.147	42313.59
457.352	40906.64
457.558	40697.75
457.764	40628.12
457.97	39966.62
458.176	39329.7
458.381	39499.69
458.587	37119.95
458.793	37187.53
458.999	35465.19
459.204	38129.59
459.41	36548.56
459.616	34392.05
459.821	34738.16
460.027	34213.88
460.233	33859.58
460.438	31895.58
460.644	32325.65
460.85	30687.28
461.055	30437.42
461.261	30474.29
461.466	28026.96
461.672	27357.28
461.878	29063.24
462.083	27222.11
462.289	26769.51
462.494	26386.54
462.7	25163.9
462.905	24627.34
463.111	25434.24
463.316	25548.92
463.522	25380.99
463.727	24950.92
463.932	24866.95
464.138	24842.37
464.343	24502.41
464.549	23638.17
464.754	24858.76
464.959	24737.93
465.165	24625.29
465.37	23589.02
465.575	22968.48
465.781	23701.65
465.986	23543.96
466.191	23058.59
466.397	22679.72
466.602	21278.91
466.807	22313.13
467.012	22472.87
467.218	22106.29
467.423	21809.33
467.628	22059.18
467.833	22958.24
468.038	22175.92
468.244	21440.7
468.449	22431.91
468.654	21588.15
468.859	21440.7
469.064	21072.06
469.269	20426.95
469.474	20850.88
469.679	21162.17
469.885	20388.04
470.09	20904.13
470.295	20463.82
470.5	20119.76
470.705	20072.65
470.91	19755.22
471.115	19378.39
471.32	19904.72
471.525	19712.21
471.73	19181.79
471.935	19235.03
472.139	18534.63
472.344	18579.68
472.549	18684.13
472.754	18440.42
472.959	18127.08
473.164	17721.59
473.369	17750.26
473.574	18387.18
473.778	17961.2
473.983	17823.98
474.188	17719.54
474.393	16867.58
474.598	17096.96
474.802	16787.71
475.007	16550.15
475.212	16558.34
475.417	16089.35
475.621	16109.83
475.826	16339.21
476.031	15677.71
476.235	15417.62
476.44	15929.61
476.645	15491.35
476.849	15554.83
477.054	15567.12
477.259	14997.79
477.463	15126.81
477.668	14663.97
477.872	15020.31
478.077	14610.72
478.282	14338.34
478.486	14121.26
478.691	14031.15
478.895	14057.77
479.1	13916.46
479.304	13873.45
479.509	13687.09
479.713	13951.28
479.918	13711.66
480.122	13334.84
480.326	13748.53
480.531	13357.36
480.735	13306.16
480.94	13117.75
481.144	13562.16
481.348	13007.16
481.553	13195.57
481.757	12736.83
481.961	13070.65
482.166	13041.98
482.37	12806.46
482.574	12775.74
482.778	12783.93
482.983	13312.31
483.187	13111.61
483.391	13250.87
483.595	12878.14
483.8	12790.08
484.004	13068.6
484.208	12980.54
484.412	12917.05
484.616	12974.39
484.821	12876.09
485.025	12898.62
485.229	13078.84
485.433	12839.23
485.637	12992.83
485.841	13074.74
486.045	12536.13
486.249	12745.02
486.453	12984.63
486.657	13015.35
486.861	12884.28
487.065	12898.62
487.269	12865.85
487.473	12745.02
487.677	13054.26
487.881	13379.89
488.085	13015.35
488.289	13039.93
488.493	12749.12
488.697	13171
488.901	13048.12
489.105	13029.69
489.309	12896.57
489.512	12892.48
489.716	13089.08
489.92	12982.59
490.124	12892.48
490.328	13416.76
490.531	12976.44
490.735	13121.85
490.939	13220.15
491.143	13277.49
491.346	13345.08
491.55	13408.56
491.754	13171
491.958	13365.56
492.161	13437.23
492.365	13494.58
492.569	13367.6
492.772	13615.41
492.976	13619.5
493.18	13709.61
493.383	13945.13
493.587	14127.4
493.79	14041.39
493.994	14006.57
494.197	14145.83
494.401	14258.47
494.605	14285.09
494.808	14389.54
495.012	14475.56
495.215	14520.61
495.419	14838.05
495.622	14530.85
495.825	14764.32
496.029	14817.57
496.232	14989.6
496.436	15173.91
496.639	15626.51
496.843	15354.13
497.046	15917.33
497.249	16050.44
497.453	15823.12
497.656	16206.09
497.859	16046.35
498.063	16462.08
498.266	16701.7
498.469	16767.23
498.673	16675.07
498.876	17162.49
499.079	17105.15
499.282	16990.46
499.485	17719.54
499.689	17752.31
499.892	17699.06
500.095	18149.61
500.298	18313.45
500.501	18082.03
500.705	18661.6
500.908	18884.83
501.111	19087.58
501.314	19501.27
501.517	19337.43
501.72	19722.45
501.923	19652.82
502.126	19998.93
502.329	20443.34
502.532	20654.28
502.735	20680.9
502.938	20801.73
503.141	21256.38
503.344	21375.16
503.547	21420.22
503.75	21573.81
503.953	21954.74
504.156	22237.36
504.359	22501.54
504.562	22644.9
504.765	22909.09
504.968	23259.29
505.17	23330.97
505.373	23402.65
505.576	23990.42
505.779	24113.3
505.982	24268.94
506.185	24637.58
506.387	24596.62
506.59	25266.3
506.793	25534.59
506.996	25485.44
507.198	26286.19
507.401	25946.23
507.604	26275.95
507.807	26701.93
508.009	26775.66
508.212	27168.87
508.415	27304.03
508.617	27529.31
508.82	27705.43
509.022	27838.55
509.225	28661.83
509.428	28723.27
509.63	28743.75
509.833	29145.16
510.035	29741.11
510.238	29710.39
510.44	29589.56
510.643	30390.32
510.845	30980.14
511.048	30625.84
511.25	31121.45
511.453	31330.34
511.655	32440.34
511.858	31514.66
512.06	31965.21
512.262	32761.87
512.465	32751.63
512.667	33226.76
512.87	33656.83
513.072	33468.42
513.274	34222.07
513.477	34553.84
513.679	34791.41
513.881	34975.72
514.084	35323.88
514.286	35219.43
514.488	35823.58
514.69	36351.96
514.893	36386.77
515.095	37042.12
515.297	36827.09
515.499	37160.9
515.701	37951.42
515.904	38088.63
516.106	38008.76
516.308	38074.3
516.51	39223.21
516.712	38942.64
516.914	39403.43
517.116	40368.02
517.318	39927.71
517.52	40513.43
517.722	40757.14
517.925	41338.76
518.127	41676.68
518.329	41553.8
518.531	41811.84
518.733	42487.67
518.935	42477.43
519.136	42573.69
519.338	43943.78
519.54	43691.88
519.742	43812.71
519.944	43650.92
520.146	44654.42
520.348	44703.57
520.55	44898.13
520.752	45113.17
520.954	46071.62
521.155	45668.17
521.357	46528.31
521.559	46395.2
521.761	47361.84
521.963	46776.12
522.164	47515.43
522.366	47722.28
522.568	48039.71
522.77	48613.15
522.971	48731.93
523.173	48490.27
523.375	49151.76
523.576	49430.29
523.778	49192.72
523.98	49977.09
524.181	50102.02
524.383	49919.75
524.584	50663.16
524.786	50736.89
524.988	50607.87
525.189	51445.49
525.391	51562.22
525.592	51685.1
525.794	51904.23
525.995	52057.83
526.197	52207.33
526.398	51891.94
526.6	52444.9
526.801	52821.72
527.003	52840.15
527.204	52942.55
527.406	53352.15
527.607	53313.23
527.808	53665.49
528.01	53085.91
528.211	53251.8
528.412	54089.41
528.614	53946.06
528.815	54023.88
529.016	54834.88
529.218	54208.2
529.419	53876.43
529.62	54472.38
529.822	54535.87
530.023	54525.63
530.224	55056.06
530.425	54914.75
530.626	54660.8
530.828	54716.09
531.029	55750.32
531.23	55025.34
531.431	55066.3
531.632	55035.58
531.833	55553.71
532.035	55166.65
532.236	55510.7
532.437	55987.88
532.638	55334.58
532.839	55754.41
533.04	55828.14
533.241	55275.19
533.442	56387.24
533.643	55774.89
533.844	55983.79
534.045	55860.91
534.246	55406.26
534.447	56391.33
534.648	55625.39
534.849	56104.62
535.05	55678.64
535.251	55959.21
535.451	55615.15
535.652	56121
535.853	55834.28
536.054	56288.93
536.255	55924.39
536.456	55672.49
536.657	56237.73
536.857	56133.29
537.058	55389.87
537.259	55936.68
537.46	55979.69
537.66	56354.47
537.861	55596.72
538.062	56192.68
538.263	55860.91
538.463	55846.57
538.664	56065.7
538.865	55940.78
539.065	55994.03
539.266	55549.62
539.466	56348.32
539.667	55899.82
539.868	56239.78
540.068	55727.79
540.269	56057.51
540.469	55914.15
540.67	55518.9
540.87	56321.7
541.071	55969.45
541.271	56039.08
541.472	55883.44
541.672	55436.98
541.873	55883.44
542.073	55424.69
542.274	55629.49
542.474	55867.05
542.675	55412.4
542.875	56225.45
543.075	55262.9
543.276	55015.1
543.476	55561.9
543.676	55592.62
543.877	55514.8
544.077	55801.52
544.277	55703.21
544.478	55314.1
544.678	55664.3
544.878	55471.79
545.078	55860.91
545.279	55273.14
545.479	55310
545.679	55613.1
545.879	55916.2
546.079	55566
546.28	55127.73
546.48	55115.45
546.68	55174.84
546.88	55434.93
547.08	55131.83
547.28	55375.54
547.48	54634.17
547.68	55396.02
547.88	55244.47
548.081	55637.68
548.281	55101.11
548.481	55101.11
548.681	55760.56
548.881	55103.16
549.081	55258.8
549.28	55062.2
549.48	55561.9
549.68	55297.72
549.88	55471.79
550.08	54668.99
550.28	55174.84
550.48	54791.87
550.68	55195.32
550.88	54841.02
551.08	54888.12
551.279	55006.9
551.479	54283.97
551.679	55174.84
551.879	54871.74
552.079	55041.72
552.278	54949.56
552.478	54607.55
552.678	54892.22
552.878	55074.49
553.077	54824.64
553.277	54537.92
553.477	55049.91
553.676	54816.44
553.876	54560.45
554.076	54585.02
554.275	54535.87
554.475	53878.47
554.674	54763.2
554.874	54191.81
555.074	54464.19
555.273	54359.75
555.473	54460.1
555.672	54222.53
555.872	54081.22
556.071	54324.93
556.271	54210.24
556.47	53974.73
556.67	53812.94
556.869	53831.37
557.068	54501.06
557.268	53683.92
557.467	53546.7
557.667	53673.68
557.866	53509.84
558.065	53640.91
558.265	53012.18
558.464	53274.32
558.663	53888.71
558.863	52719.32
559.062	53905.1
559.261	53055.19
559.461	53677.77
559.66	52731.61
559.859	53411.54
560.058	53010.14
560.258	52868.83
560.457	52356.83
560.656	53423.82
560.855	52385.5
561.054	52834.01
561.253	52641.5
561.453	52694.75
561.652	52571.87
561.851	52778.71
562.05	52221.67
562.249	51910.38
562.448	52528.86
562.647	52492
562.846	52051.69
563.045	51998.44
563.244	51441.39
563.443	52217.57
563.642	51343.09
563.841	52072.17
564.04	51269.36
564.239	51683.05
564.438	51203.83
564.637	51621.61
564.836	51281.65
565.035	51001.08
565.234	51281.65
565.432	50921.21
565.631	50824.95
565.83	50898.68
566.029	51234.55
566.228	50743.03
566.427	50130.69
566.625	49942.28
566.824	50317.06
567.023	50525.95
567.222	49237.78
567.42	50693.88
567.619	49938.18
567.818	49866.5
568.016	49997.57
568.215	50087.68
568.414	49379.09
568.612	50181.89
568.811	49178.39
569.01	49540.88
569.208	48682.78
569.407	49307.41
569.605	48951.06
569.804	49221.39
570.002	48469.79
570.201	48979.73
570.4	48154.4
570.598	48600.86
570.797	47990.56
570.995	48459.55
571.193	47802.15
571.392	48506.65
571.59	48064.29
571.789	47998.76
571.987	48097.06
572.186	47787.81
572.384	47451.95
572.582	47933.22
572.781	47894.31
572.979	47095.6
573.177	47537.96
573.376	47413.04
573.574	46862.13
573.772	47212.34
573.971	46690.1
574.169	46573.37
574.367	46348.09
574.565	46604.09
574.763	46378.81
574.962	46090.05
575.16	45950.79
575.358	46108.48
575.556	45328.2
575.754	46421.82
575.952	45606.73
576.151	46196.54
576.349	45461.32
576.547	45268.81
576.745	45315.92
576.943	45408.08
577.141	45272.91
577.339	45315.92
577.537	44939.09
577.735	45031.25
577.933	44709.72
578.131	44820.31
578.329	44545.88
578.527	44461.91
578.725	44603.22
578.923	44859.22
579.121	44351.32
579.319	43962.21
579.516	44302.17
579.714	44124
579.912	43616.1
580.11	43802.47
580.308	43671.4
580.506	43523.94
580.704	43046.77
580.901	43634.53
581.099	43421.55
581.297	42706.8
581.495	42805.11
581.692	42950.51
581.89	42827.63
582.088	43089.77
582.285	42872.69
582.483	42635.13
582.681	42241.92
582.878	42184.57
583.076	41789.31
583.274	42237.82
583.471	41793.41
583.669	42399.61
583.866	41553.8
584.064	41860.99
584.262	41740.16
584.459	41693.06
584.657	41170.83
584.854	41455.5
585.052	40939.41
585.249	40892.3
585.447	40923.02
585.644	40781.71
585.841	40624.02
586.039	40820.63
586.236	40222.62
586.434	40365.98
586.631	40402.84
586.828	40085.4
587.026	40263.58
587.223	39956.38
587.42	39952.29
587.618	40169.37
587.815	39247.79
588.012	39565.22
588.21	39237.55
588.407	39622.56
588.604	39266.22
588.801	39161.77
588.999	39223.21
589.196	38770.61
589.393	38817.71
589.59	39126.95
589.787	38379.45
589.984	38379.45
590.182	38037.44
590.379	38645.68
590.576	37736.38
590.773	37932.99
590.97	38088.63
591.167	37912.51
591.364	37418.95
591.561	37668.8
591.758	37369.8
591.955	37359.56
592.152	37683.14
592.349	37167.05
592.546	37334.98
592.743	37064.65
592.94	36610
593.137	36763.6
593.334	36935.63
593.531	36859.85
593.727	36782.03
593.924	36554.71
594.121	36241.37
594.318	36689.87
594.515	35659.74
594.712	36440.02
594.908	35930.08
595.105	35958.75
595.302	35471.33
595.499	35790.81
595.696	35665.89
595.892	35168.23
596.089	35387.36
596.286	35524.58
596.482	35203.05
596.679	34883.56
596.876	35100.65
597.072	34992.11
597.269	35149.8
597.466	34680.81
597.662	34385.91
597.859	34697.2
598.055	34383.86
598.252	34095.1
598.448	33832.96
598.645	34056.18
598.841	33875.96
599.038	33734.65
599.234	33794.04
599.431	33261.57
599.627	33433.6
599.824	33787.9
600.02	33419.27
600.217	33466.37
600.413	33480.71
600.609	32778.25
600.806	32983.05
601.002	33093.64
601.198	32790.54
601.395	32673.81
601.591	32491.54
601.787	32780.3
601.984	32337.94
602.18	32548.88
602.376	32002.07
602.572	32184.34
602.769	31887.39
602.965	31762.46
603.161	31891.48
603.357	31483.94
603.553	31225.89
603.75	31883.29
603.946	31014.95
604.142	31819.8
604.338	31336.48
604.534	31555.61
604.73	30902.31
604.926	30658.6
605.122	31029.29
605.318	30502.96
605.514	30758.95
605.71	30320.69
605.906	30351.41
606.102	30355.5
606.298	30658.6
606.494	30486.57
606.69	30423.09
606.886	30343.22
607.082	29954.1
607.278	30212.15
607.474	29712.44
607.67	30328.88
607.866	29689.91
608.062	29861.94
608.257	29544.51
608.453	29761.59
608.649	29929.53
608.845	29200.45
609.041	29499.45
609.236	29567.04
609.432	29268.03
609.628	29016.13
609.824	29192.26
610.019	29046.85
610.215	28954.69
610.411	29368.38
610.606	28887.11
610.802	28749.9
610.998	28770.38
611.193	28981.32
611.389	28678.22
611.584	28538.96
611.78	28866.63
611.976	28309.58
612.171	28303.44
612.367	28663.88
612.562	28225.62
612.758	27801.69
612.953	28041.3
613.149	28129.36
613.344	28117.07
613.539	28330.06
613.735	27754.58
613.93	28375.12
614.126	27832.41
614.321	27777.11
614.517	27899.99
614.712	27725.91
614.907	27557.98
615.103	27580.51
615.298	27496.54
615.493	27840.6
615.688	27156.58
615.884	27869.27
616.079	27103.33
616.274	27486.3
616.47	27357.28
616.665	27359.33
616.86	27015.27
617.055	27236.45
617.25	26757.22
617.445	27074.66
617.641	26482.8
617.836	26775.66
618.031	26251.38
618.226	27068.51
618.421	26523.76
618.616	26632.3
618.811	26243.18
619.006	26658.92
619.201	25966.71
619.396	26220.66
619.591	25923.7
619.786	26067.06
619.981	25829.49
620.176	25948.28
620.371	25661.56
620.566	25673.85
620.761	25462.91
620.956	25464.96
621.151	24938.63
621.346	25231.49
621.541	24406.16
621.735	25063.55
621.93	24856.71
622.125	24535.18
622.32	24338.57
622.515	24483.98
622.709	24471.69
622.904	24305.81
623.099	23947.41
623.294	23949.46
623.488	23623.83
623.683	24004.75
623.878	23265.44
624.072	23507.1
624.267	23488.67
624.462	23177.37
624.656	22988.96
624.851	23117.98
625.046	22796.45
625.24	22804.64
625.435	22370.47
625.629	22315.18
625.824	22706.34
626.018	22407.34
626.213	22007.98
626.407	22102.19
626.602	21950.64
626.796	21721.27
626.991	21590.2
627.185	21203.13
627.38	21491.9
627.574	21029.06
627.768	21289.15
627.963	21115.07
628.157	20910.27
628.352	21123.26
628.546	20918.46
628.74	20596.93
628.935	20455.62
629.129	20465.86
629.323	19925.2
629.517	20115.66
629.712	19894.48
629.906	20025.55
630.1	19855.57
630.294	19812.56
630.489	19917.01
630.683	19790.03
630.877	19480.79
631.071	19386.58
631.265	19581.14
631.459	19263.71
631.653	19175.64
631.848	19097.82
632.042	19165.4
632.236	19036.38
632.43	18503.91
632.624	18694.37
632.818	18385.13
633.012	18360.55
633.206	18632.93
633.4	18159.85
633.594	18096.36
633.788	17953.01
633.982	18063.6
634.176	17924.33
634.369	17643.76
634.563	17766.64
634.757	17514.74
634.951	17615.09
635.145	17311.99
635.339	17643.76
635.533	17336.57
635.726	17514.74
635.92	16949.5
636.114	16945.41
636.308	17203.45
636.501	16763.14
636.695	16742.66
636.889	16505.09
637.083	16464.13
637.276	16533.76
637.47	16380.17
637.664	16115.98
637.857	16173.32
638.051	16353.54
638.244	16005.39
638.438	15915.28
638.632	15907.09
638.825	15501.59
639.019	15829.26
639.212	15640.85
639.406	15489.3
639.599	15507.73
639.793	15571.22
639.986	15231.26
640.18	15536.4
640.373	15243.54
640.567	15003.93
640.76	14958.88
640.954	14766.37
641.147	14651.68
641.34	14580
641.534	14709.02
641.727	14629.15
641.92	14555.43
642.114	14479.65
642.307	14199.08
642.5	14293.29
642.694	13916.46
642.887	13900.08
643.08	14033.19
643.273	14010.67
643.467	14055.72
643.66	13848.88
643.853	13539.63
644.046	13736.24
644.239	13838.64
644.432	13453.62
644.626	13465.91
644.819	13582.64
645.012	13175.09
645.205	13447.47
645.398	13273.4
645.591	13107.51
645.784	13287.73
645.977	12984.63
646.17	13001.02
646.363	12757.31
646.556	12730.69
646.749	12740.93
646.942	12925.24
647.135	12587.33
647.328	12282.18
647.521	12366.15
647.714	12314.95
647.907	12370.24
648.099	12263.75
648.292	12294.47
648.485	12093.77
648.678	12065.1
648.871	11925.83
649.064	11995.46
649.256	12167.49
649.449	11739.47
649.642	11759.95
649.835	11688.27
650.027	11563.34
650.22	11608.4
650.413	11489.62
650.605	11479.38
650.798	11284.82
650.991	11405.65
651.183	11422.03
651.376	11374.93
651.568	11112.79
651.761	11034.97
651.954	10836.31
652.146	11043.16
652.339	10914.14
652.531	10850.65
652.724	10799.45
652.916	10424.67
653.109	10797.4
653.301	10596.7
653.494	10858.84
653.686	10467.68
653.879	10482.02
654.071	10619.23
654.263	10262.88
654.456	10301.79
654.648	10436.96
654.84	10217.83
655.033	10238.31
655.225	10191.2
655.417	9937.26
655.61	10195.3
655.802	9974.12
655.994	10051.94
656.186	10072.42
656.379	9859.43
656.571	9699.69
656.763	9509.23
656.955	9783.66
657.148	9763.18
657.34	9841
657.532	9505.13
657.724	9537.9
657.916	9394.54
658.108	9570.67
658.3	9351.54
658.492	9324.91
658.684	9331.06
658.876	9154.93
659.068	9185.65
659.26	9007.48
659.452	9159.03
659.644	9177.46
659.836	8982.9
660.028	9017.72
660.22	8964.47
660.412	8812.92
660.604	8710.52
660.796	8616.32
660.988	8718.71
661.18	8706.43
661.372	8667.52
661.563	8763.77
661.755	8556.93
661.947	8528.25
662.139	8573.31
662.331	8440.19
662.522	8374.66
662.714	8616.32
662.906	8350.08
663.097	8286.59
663.289	8198.53
663.481	8116.61
663.673	8239.49
663.864	8108.42
664.056	8294.79
664.247	8100.23
664.439	7784.84
664.631	8003.97
664.822	7956.87
665.014	7946.63
665.205	7928.2
665.397	7907.72
665.588	7668.11
665.78	7666.06
665.971	7762.31
666.163	7862.66
666.354	7614.86
666.546	7713.16
666.737	7600.52
666.929	7598.48
667.12	7510.41
667.311	7563.66
667.503	7381.39
667.694	7461.26
667.885	7596.43
668.077	7508.37
668.268	7301.52
668.459	7362.96
668.651	7223.7
668.842	7076.24
669.033	7111.06
669.224	7041.43
669.416	7190.93
669.607	7137.68
669.798	7182.74
669.989	7135.64
670.18	7109.01
670.371	7051.67
670.563	6914.45
670.754	7057.81
670.945	6789.53
671.136	6906.26
671.327	6820.25
671.518	7008.66
671.709	6893.97
671.9	6859.16
672.091	6842.78
672.282	6795.67
672.473	7023
672.664	6764.95
672.855	6769.05
673.046	6705.56
673.237	6764.95
673.428	6689.18
673.619	6762.9
673.809	6623.64
674	6521.24
674.191	6592.92
674.382	6341.02
674.573	6560.16
674.764	6412.7
674.954	6486.43
675.145	6504.86
675.336	6498.72
675.527	6556.06
675.717	6365.6
675.908	6539.68
676.099	6265.25
676.289	6422.94
676.48	6390.17
676.671	6468
676.861	6369.69
677.052	6386.08
677.243	6336.93
677.433	6328.74
677.624	6484.38
677.814	6318.5
678.005	6144.42
678.195	6410.65
678.386	6287.78
678.576	6324.64
678.767	6451.61
678.957	6255.01
679.148	6318.5
679.338	6242.72
679.529	6498.72
679.719	6222.24
679.909	6392.22
680.1	6332.83
680.29	6070.69
680.481	6240.67
680.671	6255.01
680.861	6140.32
681.052	6070.69
681.242	6166.95
681.432	6168.99
681.622	6115.75
681.813	6062.5
682.003	6209.95
682.193	6224.29
682.383	6156.71
682.573	6212
682.764	5956.01
682.954	5927.33
683.144	6035.88
683.334	6140.32
683.524	6076.84
683.714	6189.47
683.904	5960.1
684.094	5960.1
684.284	6025.64
684.474	6142.37
684.664	5845.41
684.854	5906.85
685.044	5853.61
685.234	5941.67
685.424	5886.37
685.614	5878.18
685.804	5726.63
685.994	5884.33
686.184	5824.94
686.374	5869.99
686.564	5763.5
686.753	5792.17
686.943	5605.8
687.133	5722.54
687.323	5626.28
687.513	5763.5
687.702	5706.15
687.892	5525.93
688.082	5530.03
688.272	5573.03
688.461	5573.03
688.651	5489.07
688.841	5425.58
689.03	5550.51
689.22	5493.16
689.41	5364.14
689.599	5345.71
689.789	5372.33
689.979	5497.26
690.168	5380.53
690.358	5163.44
690.547	5206.45
690.737	5224.88
690.926	5222.83
691.116	5099.95
691.305	5239.22
691.495	5134.77
691.684	5231.02
691.874	5208.5
692.063	5032.37
692.252	5026.23
692.442	4872.63
692.631	4983.22
692.82	4936.12
693.01	4800.95
693.199	4792.76
693.388	4839.86
693.578	4827.57
693.767	4692.41
693.956	4862.39
694.146	4884.92
694.335	4903.35
694.524	4774.33
694.713	4768.18
694.902	4725.18
695.092	4747.7
695.281	4737.46
695.47	4645.31
695.659	4735.42
695.848	4749.75
696.037	4620.73
696.226	4626.87
696.415	4469.18
696.604	4684.22
696.793	4559.29
696.982	4600.25
697.171	4481.47
697.36	4714.94
697.549	4661.69
697.738	4471.23
697.927	4342.21
698.116	4536.76
698.305	4583.87
698.494	4506.04
698.683	4520.38
698.872	4501.95
699.061	4463.04
699.25	4381.12
699.438	4481.47
699.627	4450.75
699.816	4497.85
700.005	4385.21
700.193	4510.14
700.382	4387.26
700.571	4315.58
700.76	4420.03
700.948	4358.59
701.137	4510.14
701.326	4305.34
701.514	4336.06
701.703	4377.02
701.892	4297.15
702.08	4489.66
702.269	4276.67
702.457	4280.77
702.646	4297.15
702.834	4262.33
703.023	4372.93
703.212	4403.64
703.4	4282.81
703.589	4383.17
703.777	4458.94
703.965	4370.88
704.154	4346.3
704.342	4348.35
704.531	4264.38
704.719	4504
704.907	4291.01
705.096	4280.77
705.284	4354.49
705.472	4327.87
705.661	4477.37
705.849	4256.19
706.037	4487.61
706.226	4395.45
706.414	4471.23
706.602	4288.96
706.79	4350.4
706.979	4248
707.167	4442.56
707.355	4407.74
707.543	4446.65
707.731	4491.71
707.919	4354.49
708.107	4344.25
708.296	4166.08
708.484	4258.24
708.672	4379.07
708.86	4272.57
709.048	4219.33
709.236	4436.41
709.424	4356.54
709.612	4317.63
709.8	4368.83
709.988	4407.74
710.176	4395.45
710.364	4280.77
710.551	4489.66
710.739	4276.67
710.927	4387.26
711.115	4407.74
711.303	4327.87
711.491	4372.93
711.679	4379.07
711.866	4336.06
712.054	4428.22
712.242	4243.9
712.43	4311.49
712.617	4477.37
712.805	4305.34
712.993	4274.62
713.181	4317.63
713.368	4465.08
713.556	4153.79
713.744	4327.87
713.931	4450.75
714.119	4446.65
714.306	4440.51
714.494	4397.5
714.682	4516.28
714.869	4286.91
715.057	4426.17
715.244	4268.48
715.432	4489.66
715.619	4313.53
715.807	4354.49
715.994	4481.47
716.182	4567.48
716.369	4360.64
716.556	4397.5
716.744	4360.64
716.931	4424.12
717.119	4485.56
717.306	4606.39
717.493	4331.97
717.681	4483.52
717.868	4417.98
718.055	4483.52
718.242	4528.57
718.43	4415.93
718.617	4544.95
718.804	4487.61
718.991	4469.18
719.179	4614.59
719.366	4262.33
719.553	4397.5
719.74	4446.65
719.927	4434.36
720.114	4460.99
720.301	4444.6
720.488	4452.8
720.676	4411.84
720.863	4534.71
721.05	4590.01
721.237	4450.75
721.424	4469.18
721.611	4598.2
721.798	4346.3
721.985	4381.12
722.172	4504
722.358	4401.6
722.545	4536.76
722.732	4463.04
722.919	4471.23
723.106	4403.64
723.293	4397.5
723.48	4587.96
723.667	4397.5
723.853	4317.63
724.04	4420.03
724.227	4497.85
724.414	4395.45
724.6	4442.56
724.787	4430.27
724.974	4491.71
725.161	4547
725.347	4579.77
725.534	4497.85
725.72	4516.28
725.907	4456.89
726.094	4528.57
726.28	4360.64
726.467	4510.14
726.653	4495.8
726.84	4321.73
727.027	4604.35
727.213	4426.17
727.4	4448.7
727.586	4616.63
727.773	4544.95
727.959	4581.82
728.145	4493.76
728.332	4428.22
728.518	4643.26
728.705	4585.91
728.891	4372.93
729.077	4362.69
729.264	4485.56
729.45	4542.91
729.636	4561.34
729.823	4430.27
730.009	4532.67
730.195	4641.21
730.382	4504
730.568	4395.45
730.754	4342.21
730.94	4463.04
731.126	4450.75
731.313	4504
731.499	4520.38
731.685	4651.45
731.871	4428.22
732.057	4499.9
732.243	4499.9
732.429	4475.32
732.615	4667.83
732.801	4454.84
732.987	4405.69
733.173	4360.64
733.359	4596.15
733.545	4520.38
733.731	4491.71
733.917	4417.98
734.103	4512.19
734.289	4602.3
734.475	4413.88
734.661	4555.19
734.847	4430.27
735.033	4551.1
735.219	4450.75
735.404	4487.61
735.59	4491.71
735.776	4422.08
735.962	4508.09
736.148	4612.54
736.333	4288.96
736.519	4360.64
736.705	4508.09
736.89	4397.5
737.076	4381.12
737.262	4268.48
737.447	4321.73
737.633	4348.35
737.819	4436.41
738.004	4313.53
738.19	4299.2
738.375	4194.75
738.561	4368.83
738.747	4336.06
738.932	4420.03
739.118	4436.41
739.303	4241.86
739.489	4381.12
739.674	4346.3
739.859	4368.83
740.045	4184.51
740.23	4129.22
740.416	4149.7
740.601	4254.14
740.786	4313.53
740.972	4256.19
741.157	4307.39
741.342	4061.63
741.528	4145.6
741.713	4297.15
741.898	4149.7
742.084	4282.81
742.269	4157.89
742.454	4098.5
742.639	4143.55
742.824	4037.06
743.01	4075.97
743.195	4176.32
743.38	3953.09
743.565	3944.9
743.75	4008.39
743.935	3846.6
744.12	4086.21
744.305	3813.83
744.49	3889.6
744.675	3865.03
744.86	3779.01
745.045	3963.33
745.23	3817.93
745.415	3862.98
745.6	3885.51
745.785	3824.07
745.97	3731.91
746.155	3766.73
746.34	3756.49
746.525	3690.95
746.71	3705.29
746.895	3529.16
747.079	3539.4
747.264	3611.08
747.449	3592.65
747.634	3668.42
747.819	3518.92
748.003	3555.79
748.188	3389.9
748.373	3539.4
748.557	3588.55
748.742	3383.76
748.927	3615.18
749.111	3490.25
749.296	3381.71
749.481	3412.43
749.665	3463.63
749.85	3297.74
750.034	3363.28
750.219	3420.62
750.404	3248.59
750.588	3236.3
750.773	3264.97
750.957	3117.52
751.141	3150.29
751.326	3117.52
751.51	3039.7
751.695	3097.04
751.879	3109.33
752.064	3238.35
752.248	3023.31
752.432	3109.33
752.617	2959.83
752.801	3060.18
752.985	2892.24
753.17	2959.83
753.354	2910.68
753.538	3006.93
753.722	2861.52
753.907	2810.33
754.091	2755.03
754.275	2789.85
754.459	2732.5
754.643	2783.7
754.828	2843.09
755.012	2855.38
755.196	2744.79
755.38	2617.82
755.564	2621.91
755.748	2572.76
755.932	2666.97
756.116	2728.41
756.3	2679.26
756.484	2609.62
756.668	2587.1
756.852	2509.27
757.036	2539.99
757.22	2464.22
757.404	2509.27
757.588	2451.93
757.772	2458.07
757.956	2388.44
758.14	2482.65
758.323	2421.21
758.507	2388.44
758.691	2339.29
758.875	2472.41
759.059	2314.72
759.242	2359.77
759.426	2290.14
759.61	2267.61
759.794	2226.65
759.977	2329.05
760.161	2300.38
760.345	2292.19
760.528	2238.94
760.712	2220.51
760.895	2269.66
761.079	2173.41
761.263	2187.74
761.446	2247.13
761.63	2240.99
761.813	2253.28
761.997	2154.98
762.18	1956.32
762.364	2193.89
762.547	2042.34
762.731	1964.51
762.914	2097.63
763.098	1941.99
763.281	2050.53
763.464	1948.13
763.648	2015.71
763.831	1982.95
764.015	2021.86
764.198	2085.34
764.381	2044.38
764.564	2064.86
764.748	2001.38
764.931	1970.66
765.114	1872.36
765.297	1905.12
765.481	1999.33
765.664	1796.58
765.847	1870.31
766.03	1839.59
766.213	1931.75
766.397	1987.04
766.58	1888.74
766.763	1843.68
766.946	1898.98
767.129	1831.4
767.312	1827.3
767.495	1753.57
767.678	1776.1
767.861	1866.21
768.044	1866.21
768.227	1720.81
768.41	1718.76
768.593	1802.72
768.776	1690.09
768.959	1810.92
769.142	1843.68
769.324	1718.76
769.507	1737.19
769.69	1665.51
769.873	1649.13
770.056	1712.61
770.239	1618.41
770.421	1749.48
770.604	1604.07
770.787	1720.81
770.97	1636.84
771.152	1591.78
771.335	1628.65
771.518	1575.4
771.7	1677.8
771.883	1700.33
772.066	1548.78
772.248	1475.05
772.431	1624.55
772.613	1653.22
772.796	1489.39
772.978	1554.92
773.161	1511.91
773.343	1516.01
773.526	1446.38
773.708	1368.56
773.891	1481.19
774.073	1454.57
774.256	1489.39
774.438	1505.77
774.621	1475.05
774.803	1413.61
774.985	1389.03
775.168	1487.34
775.35	1507.82
775.532	1372.65
775.715	1360.36
775.897	1372.65
776.079	1315.31
776.261	1456.62
776.444	1391.08
776.626	1239.53
776.808	1366.51
776.99	1243.63
777.173	1212.91
777.355	1282.54
777.537	1227.25
777.719	1217.01
777.901	1237.49
778.083	1260.01
778.265	1178.09
778.447	1194.48
778.629	1145.33
778.811	1180.14
778.993	1337.84
779.175	1040.88
779.357	1145.33
779.539	1094.13
779.721	1077.74
779.903	1069.55
780.085	1079.79
780.267	1114.61
780.449	1147.37
780.631	1210.86
780.812	1081.84
780.994	1114.61
781.176	1014.26
781.358	1055.22
781.54	1081.84
781.721	1163.76
781.903	987.63
782.085	1034.74
782.267	932.34
782.448	956.91
782.63	965.11
782.812	1008.11
782.993	1044.98
783.175	973.3
783.357	848.37
783.538	920.05
783.72	977.39
783.901	946.67
784.083	889.33
784.264	860.66
784.446	846.32
784.627	799.22
784.809	885.23
784.99	831.99
785.172	831.99
785.353	883.19
785.535	1004.02
785.716	807.41
785.897	870.9
786.079	831.99
786.26	733.68
786.441	856.56
786.623	795.12
786.804	825.84
786.985	788.98
787.167	768.5
787.348	762.36
787.529	731.64
787.71	911.86
787.891	766.45
788.073	688.63
788.254	698.87
788.435	782.84
788.616	879.09
788.797	741.88
788.978	717.3
789.159	686.58
789.34	827.89
789.522	684.53
789.703	713.21
789.884	752.12
790.065	709.11
790.246	735.73
790.427	696.82
790.607	729.59
790.788	668.15
790.969	598.52
791.15	647.67
791.331	627.19
791.512	657.91
791.693	600.57
791.874	504.31
792.054	651.77
792.235	717.3
792.416	557.56
792.597	584.18
792.778	604.66
792.958	598.52
793.139	596.47
793.32	580.09
793.5	561.66
793.681	664.05
793.862	627.19
794.042	586.23
794.223	508.41
794.404	492.02
794.584	569.85
794.765	717.3
794.945	567.8
795.126	553.46
795.306	545.27
795.487	496.12
795.667	535.03
795.848	547.32
796.028	479.74
796.209	537.08
796.389	487.93
796.57	477.69
796.75	457.21
796.93	498.17
797.111	455.16
797.291	457.21
797.471	553.46
797.652	539.13
797.832	477.69
798.012	524.79
798.192	485.88
798.373	395.77
798.553	504.31
798.733	522.74
798.913	471.54
799.093	500.22
799.274	522.74
799.454	487.93
799.634	428.54
799.814	483.83
799.994	506.36
800.174	477.69
800.354	371.19
800.534	449.02
800.714	469.5
800.894	381.43
801.074	397.82
801.254	426.49
801.434	524.79
801.614	473.59
801.794	381.43
801.974	1286.64
802.154	401.91
802.334	410.11
802.514	385.53
802.693	432.63
802.873	377.34
803.053	389.63
803.233	477.69
803.413	422.39
803.592	457.21
803.772	442.87
803.952	432.63
804.131	274.94
804.311	375.29
804.491	422.39
804.67	303.61
804.85	348.67
805.03	375.29
805.209	449.02
805.389	317.95
805.568	377.34
805.748	344.57
805.928	326.14
806.107	350.71
806.287	379.39
806.466	371.19
806.646	344.57
806.825	291.32
807.004	301.56
807.184	365.05
807.363	371.19
807.543	307.71
807.722	326.14
807.901	315.9
808.081	403.96
808.26	276.99
808.439	397.82
808.619	317.95
808.798	367.1
808.977	360.95
809.156	391.67
809.336	248.32
809.515	322.04
809.694	272.89
809.873	299.52
810.052	340.47
810.231	379.39
810.411	258.56
810.59	381.43
810.769	311.8
810.948	309.76
811.127	201.21
811.306	358.91
811.485	283.13
811.664	317.95
811.843	301.56
812.022	320
812.201	358.91
812.38	274.94
812.559	270.84
812.737	254.46
812.916	231.93
813.095	276.99
813.274	283.13
813.453	283.13
813.632	285.18
813.811	274.94
813.989	182.78
814.168	211.45
814.347	240.12
814.526	285.18
814.704	301.56
814.883	287.23
815.062	227.84
815.24	180.73
815.419	168.45
815.598	272.89
815.776	180.73
815.955	203.26
816.133	113.15
816.312	211.45
816.49	217.6
816.669	254.46
816.847	211.45
817.026	246.27
817.204	242.17
817.383	266.75
817.561	211.45
817.74	238.08
817.918	268.8
818.097	152.06
818.275	201.21
818.453	291.32
818.632	246.27
818.81	164.35
818.988	207.36
819.167	143.87
819.345	147.97
819.523	217.6
819.701	244.22
819.879	279.04
820.058	238.08
820.236	236.03
820.414	188.93
820.592	123.39
820.77	225.79
820.948	162.3
821.127	193.02
821.305	193.02
821.483	223.74
821.661	217.6
821.839	182.78
822.017	225.79
822.195	240.12
822.373	248.32
822.551	186.88
822.729	143.87
822.907	217.6
823.085	225.79
823.262	180.73
823.44	250.36
823.618	176.64
823.796	188.93
823.974	162.3
824.152	217.6
824.329	154.11
824.507	98.81
824.685	242.17
824.863	137.73
825.04	186.88
825.218	221.69
825.396	111.1
825.574	129.53
825.751	137.73
825.929	168.45
826.107	76.29
826.284	168.45
826.462	180.73
826.639	219.64
826.817	80.38
826.994	242.17
827.172	176.64
827.349	248.32
827.527	168.45
827.704	168.45
827.882	172.54
828.059	98.81
828.237	180.73
828.414	139.77
828.591	158.21
828.769	152.06
828.946	117.25
829.124	174.59
829.301	207.36
829.478	137.73
829.655	250.36
829.833	131.58
830.01	20.99
830.187	160.25
830.364	80.38
830.542	74.24
830.719	211.45
830.896	135.68
831.073	145.92
831.25	147.97
831.427	203.26
831.604	61.95
831.782	129.53
831.959	143.87
832.136	176.64
832.313	119.29
832.49	131.58
832.667	123.39
832.844	98.81
833.021	102.91
833.198	135.68
833.374	111.1
833.551	113.15
833.728	104.96
833.905	184.83
834.082	59.9
834.259	152.06
834.436	137.73
834.612	23.04
834.789	178.69
834.966	72.19
835.143	117.25
835.319	41.47
835.496	102.91
835.673	119.29
835.85	182.78
836.026	131.58
836.203	186.88
836.38	90.62
836.556	145.92
836.733	45.57
836.909	147.97
837.086	47.62
837.262	-1.54
837.439	168.45
837.616	78.33
837.792	61.95
837.968	121.34
838.145	45.57
838.321	78.33
838.498	45.57
838.674	107.01
838.851	47.62
839.027	127.49
839.203	125.44
839.38	111.1
839.556	66.05
839.732	137.73
839.909	139.77
840.085	102.91
840.261	111.1
840.437	104.96
840.614	139.77
840.79	123.39
840.966	92.67
841.142	104.96
841.318	64
841.494	133.63
841.671	98.81
841.847	51.71
842.023	39.42
842.199	121.34
842.375	129.53
842.551	4.61
842.727	-46.59
842.903	184.83
843.079	55.81
843.255	131.58
843.431	66.05
843.607	94.72
843.783	14.85
843.959	102.91
844.134	92.67
844.31	66.05
844.486	70.14
844.662	41.47
844.838	111.1
845.013	59.9
845.189	176.64
845.365	49.66
845.541	66.05
845.716	76.29
845.892	37.38
846.068	129.53
846.244	20.99
846.419	37.38
846.595	39.42
846.77	80.38
846.946	137.73
847.122	102.91
847.297	4.61
847.473	98.81
847.648	109.05
847.824	162.3
847.999	4.61
848.175	70.14
848.35	49.66
848.526	147.97
848.701	78.33
848.876	123.39
849.052	145.92
849.227	43.52
849.403	80.38
849.578	78.33
849.753	53.76
849.929	123.39
850.104	-32.26
850.279	6.66
850.454	86.53
850.63	80.38
850.805	100.86
850.98	61.95
851.155	64
851.33	135.68
851.505	41.47
851.681	121.34
851.856	14.85
852.031	6.66
852.206	68.09
852.381	31.23
852.556	53.76
852.731	111.1
852.906	80.38
853.081	0.51
853.256	104.96
853.431	70.14
853.606	68.09
853.781	-19.97
853.956	-22.02
854.131	76.29
854.305	29.18
854.48	-22.02
854.655	-24.06
854.83	14.85
855.005	8.7
855.18	-9.73
855.354	53.76
855.529	6.66
855.704	-44.54
855.879	-9.73
856.053	-34.3
856.228	61.95
856.403	-54.78
856.577	98.81
856.752	33.28
856.926	121.34
857.101	31.23
857.276	10.75
857.45	86.53
857.625	37.38
857.799	64
857.974	47.62
858.148	4.61
858.323	49.66
858.497	-17.92
858.672	51.71
858.846	0.51
859.02	70.14
859.195	10.75
859.369	45.57
859.543	14.85
859.718	70.14
859.892	59.9
860.066	70.14
860.241	-28.16
860.415	6.66
860.589	-24.06
860.763	25.09
860.938	-58.88
861.112	25.09
861.286	18.94
861.46	70.14
861.634	-28.16
861.808	70.14
861.982	12.8
862.157	27.14
862.331	20.99
862.505	12.8
862.679	6.66
862.853	-40.45
863.027	6.66
863.201	47.62
863.375	-44.54
863.549	47.62
863.722	-36.35
863.896	88.57
864.07	-9.73
864.244	-5.63
864.418	18.94
864.592	35.33
864.766	-15.87
864.939	107.01
865.113	-42.5
865.287	86.53
865.461	-15.87
865.634	10.75
865.808	37.38
865.982	-9.73
866.156	6.66
866.329	16.9
866.503	64
866.676	119.29
866.85	98.81
867.024	-1.54
867.197	37.38
867.371	23.04
867.544	70.14
867.718	2.56
867.891	68.09
868.065	-73.21
868.238	-28.16
868.412	29.18
868.585	2.56
868.759	64
868.932	-17.92
869.105	-44.54
869.279	-28.16
869.452	-73.21
869.625	39.42
869.799	20.99
869.972	-26.11
870.145	31.23
870.319	16.9
870.492	-3.58
870.665	-17.92
870.838	-50.69
871.011	-36.35
871.185	-44.54
871.358	-40.45
871.531	49.66
871.704	25.09
871.877	-36.35
872.05	37.38
872.223	-48.64
872.396	-11.78
872.569	8.7
872.742	-95.74
872.915	27.14
873.088	-17.92
873.261	74.24
873.434	-1.54
873.607	4.61
873.78	55.81
873.953	-110.08
874.126	-28.16
874.299	14.85
874.471	-83.45
874.644	-28.16
874.817	4.61
874.99	45.57
875.163	-9.73
875.335	31.23
875.508	-9.73
875.681	57.86
875.853	4.61
876.026	-26.11
876.199	41.47
876.371	-15.87
876.544	-24.06
876.717	45.57
876.889	39.42
877.062	45.57
877.234	39.42
877.407	-44.54
877.579	37.38
877.752	76.29
877.924	-5.63
878.097	-34.3
878.269	-19.97
878.442	12.8
878.614	-28.16
878.786	-22.02
878.959	61.95
879.131	37.38
879.303	-71.17
879.476	45.57
879.648	57.86
879.82	0.51
879.993	-60.93
880.165	-36.35
880.337	16.9
880.509	-3.58
880.681	-118.27
880.854	-7.68
881.026	70.14
881.198	49.66
881.37	8.7
881.542	90.62
881.714	-7.68
881.886	23.04
882.058	-9.73
882.23	-17.92
882.402	-15.87
882.574	-52.74
882.746	27.14
882.918	61.95
883.09	29.18
883.262	-3.58
883.434	37.38
883.606	-77.31
883.778	8.7
883.95	90.62
884.122	-38.4
884.293	98.81
884.465	31.23
884.637	39.42
884.809	-36.35
884.98	4.61
885.152	-19.97
885.324	-7.68
885.496	4.61
885.667	39.42
885.839	66.05
886.011	29.18
886.182	20.99
886.354	55.81
886.525	-40.45
886.697	0.51
886.869	-50.69
887.04	-7.68
887.212	78.33
887.383	125.44
887.555	27.14
887.726	-77.31
887.897	0.51
888.069	47.62
888.24	2.56
888.412	-19.97
888.583	8.7
888.754	-30.21
888.926	-46.59
889.097	-1.54
889.268	-65.02
889.44	-48.64
889.611	-79.36
889.782	-62.98
889.953	-19.97
890.125	94.72
890.296	-7.68
890.467	-11.78
890.638	-32.26
890.809	12.8
890.98	-48.64
891.151	4.61
891.323	4.61
891.494	-22.02
891.665	-5.63
891.836	43.52
892.007	31.23
892.178	-52.74
892.349	47.62
892.52	-60.93
892.691	2.56
892.862	-19.97
893.032	-79.36
893.203	-83.45
893.374	16.9
893.545	-11.78
893.716	-34.3
893.887	-5.63
894.057	-44.54
894.228	-36.35
894.399	-65.02
894.57	29.18
894.74	27.14
894.911	31.23
895.082	-56.83
895.253	2.56
895.423	-50.69
895.594	59.9
895.764	-54.78
895.935	-34.3
896.106	-13.82
896.276	-3.58
896.447	-50.69
896.617	4.61
896.788	-52.74
896.958	43.52
897.129	35.33
897.299	16.9
897.47	8.7
897.64	-44.54
897.81	12.8
897.981	23.04
898.151	-85.5
898.322	12.8
898.492	72.19
898.662	-89.6
898.832	-28.16
899.003	0.51
899.173	59.9
899.343	-34.3
899.513	-15.87
