Data from USB4F104151__30__13-04-49-967.txt Node

Date: Fri Mar 14 13:04:49 EDT 2025
User: louis
Spectrometer: USB4F10415
Trigger mode: 4
Integration Time (sec): 4.000000E-2
Scans to average: 1
Electric dark correction enabled: true
Nonlinearity correction enabled: false
Boxcar width: 0
XAxis mode: Wavelengths
Number of Pixels in Spectrum: 3648
>>>>>Begin Spectral Data<<<<<
178.204	-157.86
178.424	-157.86
178.644	-157.86
178.864	-215.21
179.084	-221.35
179.304	-18.6
179.524	-10.41
179.744	-14.51
179.964	20.31
180.184	-30.89
180.404	28.5
180.624	-16.55
180.844	-14.51
181.064	-10.41
181.283	44.88
181.503	-24.75
181.723	46.93
181.943	-28.84
182.163	59.22
182.383	-2.22
182.602	79.7
182.822	110.42
183.042	87.89
183.262	14.17
183.482	-28.84
183.701	-20.65
183.921	83.8
184.141	-63.66
184.361	69.46
184.58	28.5
184.8	57.17
185.02	-0.17
185.239	38.74
185.459	-24.75
185.679	55.12
185.898	-8.36
186.118	79.7
186.338	61.27
186.557	26.45
186.777	28.5
186.997	-22.7
187.216	38.74
187.436	59.22
187.655	71.51
187.875	85.84
188.095	55.12
188.314	96.08
188.534	114.52
188.753	1.88
188.973	77.65
189.192	10.07
189.412	34.64
189.631	124.76
189.851	24.4
190.07	96.08
190.29	10.07
190.509	36.69
190.729	42.84
190.948	48.98
191.168	182.1
191.387	104.28
191.607	-24.75
191.826	94.04
192.045	-30.89
192.265	38.74
192.484	40.79
192.704	30.55
192.923	36.69
193.142	153.43
193.362	73.56
193.581	147.28
193.8	120.66
194.02	81.75
194.239	30.55
194.458	94.04
194.678	-14.51
194.897	69.46
195.116	61.27
195.335	-22.7
195.555	3.93
195.774	20.31
195.993	128.85
196.212	55.12
196.432	57.17
196.651	46.93
196.87	12.12
197.089	194.39
197.308	128.85
197.528	34.64
197.747	48.98
197.966	110.42
198.185	96.08
198.404	-39.08
198.623	63.32
198.842	46.93
199.062	-18.6
199.281	108.37
199.5	3.93
199.719	71.51
199.938	55.12
200.157	128.85
200.376	67.41
200.595	91.99
200.814	55.12
201.033	67.41
201.252	36.69
201.471	79.7
201.69	81.75
201.909	79.7
202.128	40.79
202.347	75.6
202.566	24.4
202.785	-26.79
203.004	26.45
203.223	135
203.442	69.46
203.661	26.45
203.879	44.88
204.098	122.71
204.317	-37.03
204.536	100.18
204.755	149.33
204.974	38.74
205.193	46.93
205.411	112.47
205.63	83.8
205.849	30.55
206.068	28.5
206.287	48.98
206.505	46.93
206.724	77.65
206.943	-16.55
207.162	98.13
207.381	53.08
207.599	-67.75
207.818	53.08
208.037	53.08
208.255	34.64
208.474	73.56
208.693	44.88
208.911	3.93
209.13	69.46
209.349	46.93
209.567	91.99
209.786	73.56
210.005	40.79
210.223	55.12
210.442	-22.7
210.661	30.55
210.879	46.93
211.098	5.97
211.316	63.32
211.535	155.47
211.753	-14.51
211.972	65.36
212.191	3.93
212.409	34.64
212.628	73.56
212.846	1.88
213.065	20.31
213.283	143.19
213.502	-32.94
213.72	42.84
213.938	57.17
214.157	26.45
214.375	130.9
214.594	46.93
214.812	87.89
215.031	81.75
215.249	-4.27
215.467	98.13
215.686	55.12
215.904	42.84
216.122	102.23
216.341	89.94
216.559	55.12
216.778	98.13
216.996	110.42
217.214	38.74
217.432	30.55
217.651	-30.89
217.869	59.22
218.087	8.02
218.306	94.04
218.524	65.36
218.742	57.17
218.96	77.65
219.179	75.6
219.397	30.55
219.615	169.81
219.833	96.08
220.051	5.97
220.27	71.51
220.488	81.75
220.706	24.4
220.924	-12.46
221.142	40.79
221.36	28.5
221.578	28.5
221.796	20.31
222.015	135
222.233	132.95
222.451	48.98
222.669	-10.41
222.887	126.8
223.105	96.08
223.323	-12.46
223.541	67.41
223.759	-4.27
223.977	63.32
224.195	85.84
224.413	79.7
224.631	71.51
224.849	44.88
225.067	87.89
225.285	8.02
225.503	-24.75
225.721	-24.75
225.939	-0.17
226.157	-47.27
226.375	173.91
226.592	69.46
226.81	14.17
227.028	40.79
227.246	163.67
227.464	94.04
227.682	36.69
227.9	32.6
228.117	38.74
228.335	85.84
228.553	8.02
228.771	85.84
228.989	71.51
229.206	94.04
229.424	-16.55
229.642	12.12
229.86	-2.22
230.077	44.88
230.295	-4.27
230.513	85.84
230.731	63.32
230.948	104.28
231.166	169.81
231.384	98.13
231.601	38.74
231.819	126.8
232.037	75.6
232.254	26.45
232.472	55.12
232.689	-39.08
232.907	8.02
233.125	53.08
233.342	63.32
233.56	-12.46
233.777	12.12
233.995	65.36
234.213	36.69
234.43	42.84
234.648	89.94
234.865	-16.55
235.083	81.75
235.3	55.12
235.518	75.6
235.735	106.32
235.953	44.88
236.17	22.36
236.388	57.17
236.605	-39.08
236.822	48.98
237.04	143.19
237.257	61.27
237.475	44.88
237.692	55.12
237.909	-28.84
238.127	28.5
238.344	59.22
238.562	59.22
238.779	26.45
238.996	-22.7
239.214	38.74
239.431	102.23
239.648	-20.65
239.865	30.55
240.083	69.46
240.3	65.36
240.517	36.69
240.735	89.94
240.952	55.12
241.169	57.17
241.386	53.08
241.603	16.21
241.821	-20.65
242.038	71.51
242.255	-6.31
242.472	44.88
242.689	24.4
242.907	124.76
243.124	85.84
243.341	40.79
243.558	26.45
243.775	28.5
243.992	-43.18
244.209	112.47
244.426	91.99
244.643	114.52
244.86	16.21
245.078	102.23
245.295	61.27
245.512	24.4
245.729	91.99
245.946	8.02
246.163	42.84
246.38	89.94
246.597	30.55
246.814	53.08
247.031	65.36
247.248	38.74
247.464	81.75
247.681	91.99
247.898	89.94
248.115	14.17
248.332	63.32
248.549	63.32
248.766	126.8
248.983	89.94
249.2	137.04
249.417	55.12
249.633	53.08
249.85	57.17
250.067	1.88
250.284	48.98
250.501	89.94
250.717	110.42
250.934	-12.46
251.151	44.88
251.368	51.03
251.585	51.03
251.801	40.79
252.018	-8.36
252.235	73.56
252.451	1.88
252.668	44.88
252.885	8.02
253.102	12.12
253.318	85.84
253.535	85.84
253.752	-2.22
253.968	-26.79
254.185	-0.17
254.401	53.08
254.618	94.04
254.835	55.12
255.051	110.42
255.268	48.98
255.484	55.12
255.701	24.4
255.917	36.69
256.134	36.69
256.351	98.13
256.567	16.21
256.784	22.36
257	63.32
257.217	61.27
257.433	30.55
257.65	32.6
257.866	137.04
258.082	-61.61
258.299	44.88
258.515	51.03
258.732	-28.84
258.948	79.7
259.165	67.41
259.381	-20.65
259.597	100.18
259.814	-20.65
260.03	94.04
260.246	85.84
260.463	55.12
260.679	112.47
260.895	65.36
261.112	14.17
261.328	63.32
261.544	-51.37
261.761	157.52
261.977	53.08
262.193	-10.41
262.409	104.28
262.626	110.42
262.842	85.84
263.058	40.79
263.274	175.95
263.49	98.13
263.707	46.93
263.923	73.56
264.139	-0.17
264.355	-0.17
264.571	79.7
264.787	46.93
265.004	30.55
265.22	104.28
265.436	30.55
265.652	63.32
265.868	-4.27
266.084	3.93
266.3	98.13
266.516	75.6
266.732	116.56
266.948	34.64
267.164	79.7
267.38	40.79
267.596	96.08
267.812	114.52
268.028	30.55
268.244	59.22
268.46	40.79
268.676	42.84
268.892	3.93
269.108	24.4
269.324	20.31
269.54	30.55
269.756	73.56
269.972	-20.65
270.188	85.84
270.403	-0.17
270.619	89.94
270.835	-4.27
271.051	40.79
271.267	22.36
271.483	32.6
271.698	57.17
271.914	5.97
272.13	57.17
272.346	53.08
272.562	48.98
272.777	83.8
272.993	-16.55
273.209	61.27
273.425	69.46
273.64	-37.03
273.856	120.66
274.072	63.32
274.287	36.69
274.503	126.8
274.719	26.45
274.934	53.08
275.15	10.07
275.366	12.12
275.581	18.26
275.797	24.4
276.012	40.79
276.228	34.64
276.444	67.41
276.659	53.08
276.875	57.17
277.09	-12.46
277.306	10.07
277.521	53.08
277.737	79.7
277.952	1.88
278.168	40.79
278.383	81.75
278.599	-20.65
278.814	28.5
279.03	18.26
279.245	94.04
279.461	20.31
279.676	120.66
279.892	36.69
280.107	-12.46
280.322	24.4
280.538	77.65
280.753	30.55
280.969	40.79
281.184	5.97
281.399	73.56
281.615	57.17
281.83	1.88
282.045	-6.31
282.26	44.88
282.476	59.22
282.691	102.23
282.906	40.79
283.122	61.27
283.337	87.89
283.552	102.23
283.767	46.93
283.983	36.69
284.198	55.12
284.413	46.93
284.628	30.55
284.843	55.12
285.058	40.79
285.274	169.81
285.489	-41.13
285.704	89.94
285.919	55.12
286.134	28.5
286.349	10.07
286.564	69.46
286.779	135
286.995	-0.17
287.21	-34.99
287.425	135
287.64	-8.36
287.855	-30.89
288.07	20.31
288.285	147.28
288.5	61.27
288.715	69.46
288.93	40.79
289.145	20.31
289.36	73.56
289.575	16.21
289.79	71.51
290.004	104.28
290.219	30.55
290.434	73.56
290.649	67.41
290.864	26.45
291.079	18.26
291.294	79.7
291.509	59.22
291.724	79.7
291.938	100.18
292.153	24.4
292.368	16.21
292.583	120.66
292.798	-26.79
293.012	40.79
293.227	40.79
293.442	12.12
293.657	149.33
293.871	96.08
294.086	48.98
294.301	22.36
294.516	57.17
294.73	83.8
294.945	20.31
295.16	44.88
295.374	22.36
295.589	110.42
295.804	98.13
296.018	51.03
296.233	114.52
296.447	110.42
296.662	-30.89
296.877	85.84
297.091	28.5
297.306	61.27
297.52	-2.22
297.735	71.51
297.949	12.12
298.164	46.93
298.378	20.31
298.593	18.26
298.807	77.65
299.022	98.13
299.236	114.52
299.451	-14.51
299.665	63.32
299.88	-0.17
300.094	71.51
300.309	75.6
300.523	61.27
300.737	63.32
300.952	83.8
301.166	48.98
301.381	55.12
301.595	14.17
301.809	114.52
302.024	8.02
302.238	61.27
302.452	98.13
302.667	20.31
302.881	57.17
303.095	61.27
303.309	40.79
303.524	22.36
303.738	-4.27
303.952	-8.36
304.166	94.04
304.381	8.02
304.595	104.28
304.809	55.12
305.023	-34.99
305.237	83.8
305.452	22.36
305.666	141.14
305.88	20.31
306.094	132.95
306.308	79.7
306.522	-26.79
306.736	79.7
306.95	102.23
307.164	55.12
307.379	8.02
307.593	63.32
307.807	75.6
308.021	116.56
308.235	122.71
308.449	-24.75
308.663	32.6
308.877	188.24
309.091	30.55
309.305	102.23
309.519	28.5
309.733	94.04
309.947	28.5
310.161	61.27
310.374	63.32
310.588	94.04
310.802	26.45
311.016	36.69
311.23	73.56
311.444	-47.27
311.658	28.5
311.872	159.57
312.085	180.05
312.299	59.22
312.513	75.6
312.727	26.45
312.941	20.31
313.154	44.88
313.368	40.79
313.582	91.99
313.796	89.94
314.009	32.6
314.223	69.46
314.437	89.94
314.651	57.17
314.864	30.55
315.078	46.93
315.292	44.88
315.505	51.03
315.719	79.7
315.933	106.32
316.146	63.32
316.36	-10.41
316.573	77.65
316.787	71.51
317.001	30.55
317.214	-26.79
317.428	110.42
317.641	16.21
317.855	87.89
318.068	-14.51
318.282	55.12
318.495	122.71
318.709	77.65
318.922	5.97
319.136	79.7
319.349	94.04
319.563	-0.17
319.776	112.47
319.99	-16.55
320.203	16.21
320.417	32.6
320.63	85.84
320.843	188.24
321.057	32.6
321.27	53.08
321.483	69.46
321.697	200.53
321.91	139.09
322.124	112.47
322.337	20.31
322.55	38.74
322.763	26.45
322.977	14.17
323.19	-4.27
323.403	69.46
323.617	87.89
323.83	69.46
324.043	42.84
324.256	-12.46
324.469	89.94
324.683	61.27
324.896	40.79
325.109	61.27
325.322	-18.6
325.535	51.03
325.748	194.39
325.962	24.4
326.175	30.55
326.388	165.71
326.601	130.9
326.814	14.17
327.027	55.12
327.24	151.38
327.453	-32.94
327.666	65.36
327.879	87.89
328.092	89.94
328.305	106.32
328.518	32.6
328.731	59.22
328.944	73.56
329.157	36.69
329.37	175.95
329.583	159.57
329.796	145.24
330.009	48.98
330.222	161.62
330.435	53.08
330.648	65.36
330.861	87.89
331.073	96.08
331.286	139.09
331.499	77.65
331.712	57.17
331.925	83.8
332.138	71.51
332.35	159.57
332.563	46.93
332.776	87.89
332.989	22.36
333.202	161.62
333.414	30.55
333.627	137.04
333.84	94.04
334.053	36.69
334.265	63.32
334.478	16.21
334.691	65.36
334.903	12.12
335.116	53.08
335.329	48.98
335.541	106.32
335.754	161.62
335.966	112.47
336.179	44.88
336.392	59.22
336.604	89.94
336.817	30.55
337.029	55.12
337.242	26.45
337.454	130.9
337.667	26.45
337.88	165.71
338.092	48.98
338.305	85.84
338.517	16.21
338.729	130.9
338.942	108.37
339.154	26.45
339.367	-24.75
339.579	120.66
339.792	-24.75
340.004	85.84
340.217	89.94
340.429	75.6
340.641	71.51
340.854	36.69
341.066	44.88
341.278	110.42
341.491	61.27
341.703	16.21
341.915	3.93
342.128	128.85
342.34	69.46
342.552	42.84
342.764	106.32
342.977	71.51
343.189	48.98
343.401	20.31
343.613	20.31
343.826	-26.79
344.038	14.17
344.25	85.84
344.462	22.36
344.674	18.26
344.886	16.21
345.099	55.12
345.311	38.74
345.523	12.12
345.735	-22.7
345.947	122.71
346.159	102.23
346.371	32.6
346.583	28.5
346.795	122.71
347.007	28.5
347.219	59.22
347.431	38.74
347.643	94.04
347.855	69.46
348.067	96.08
348.279	28.5
348.491	30.55
348.703	44.88
348.915	124.76
349.127	34.64
349.339	63.32
349.551	40.79
349.763	77.65
349.975	44.88
350.187	30.55
350.399	132.95
350.61	63.32
350.822	65.36
351.034	81.75
351.246	85.84
351.458	151.38
351.669	77.65
351.881	65.36
352.093	61.27
352.305	87.89
352.517	73.56
352.728	46.93
352.94	116.56
353.152	42.84
353.363	36.69
353.575	46.93
353.787	77.65
353.999	59.22
354.21	110.42
354.422	40.79
354.633	83.8
354.845	63.32
355.057	-0.17
355.268	94.04
355.48	110.42
355.692	24.4
355.903	42.84
356.115	-8.36
356.326	24.4
356.538	89.94
356.749	126.8
356.961	182.1
357.172	36.69
357.384	24.4
357.595	184.15
357.807	104.28
358.018	65.36
358.23	63.32
358.441	65.36
358.653	143.19
358.864	87.89
359.075	40.79
359.287	55.12
359.498	151.38
359.709	104.28
359.921	46.93
360.132	79.7
360.344	149.33
360.555	67.41
360.766	24.4
360.977	10.07
361.189	59.22
361.4	118.61
361.611	87.89
361.823	75.6
362.034	91.99
362.245	-32.94
362.456	48.98
362.667	83.8
362.879	38.74
363.09	55.12
363.301	91.99
363.512	34.64
363.723	48.98
363.935	10.07
364.146	65.36
364.357	24.4
364.568	91.99
364.779	18.26
364.99	77.65
365.201	57.17
365.412	122.71
365.623	118.61
365.834	69.46
366.045	75.6
366.256	128.85
366.467	85.84
366.678	89.94
366.889	-4.27
367.1	34.64
367.311	124.76
367.522	65.36
367.733	67.41
367.944	63.32
368.155	24.4
368.366	110.42
368.577	75.6
368.788	85.84
368.999	-8.36
369.209	91.99
369.42	116.56
369.631	77.65
369.842	22.36
370.053	81.75
370.264	116.56
370.474	-57.51
370.685	-2.22
370.896	46.93
371.107	132.95
371.317	147.28
371.528	18.26
371.739	155.47
371.95	122.71
372.16	167.76
372.371	44.88
372.582	69.46
372.792	112.47
373.003	65.36
373.214	75.6
373.424	104.28
373.635	22.36
373.846	89.94
374.056	106.32
374.267	79.7
374.477	77.65
374.688	53.08
374.898	79.7
375.109	69.46
375.319	91.99
375.53	63.32
375.74	34.64
375.951	71.51
376.161	120.66
376.372	135
376.582	18.26
376.793	112.47
377.003	-0.17
377.214	96.08
377.424	28.5
377.635	79.7
377.845	79.7
378.055	106.32
378.266	-34.99
378.476	-20.65
378.686	87.89
378.897	175.95
379.107	100.18
379.317	106.32
379.528	10.07
379.738	59.22
379.948	61.27
380.158	124.76
380.369	108.37
380.579	63.32
380.789	26.45
380.999	73.56
381.21	77.65
381.42	192.34
381.63	91.99
381.84	159.57
382.05	151.38
382.261	71.51
382.471	55.12
382.681	59.22
382.891	55.12
383.101	126.8
383.311	87.89
383.521	44.88
383.731	75.6
383.941	178
384.151	77.65
384.361	40.79
384.571	48.98
384.781	71.51
384.991	106.32
385.201	208.72
385.411	87.89
385.621	75.6
385.831	132.95
386.041	110.42
386.251	71.51
386.461	143.19
386.671	81.75
386.881	145.24
387.091	102.23
387.301	104.28
387.511	128.85
387.72	91.99
387.93	147.28
388.14	3.93
388.35	87.89
388.56	173.91
388.769	155.47
388.979	96.08
389.189	36.69
389.399	91.99
389.609	143.19
389.818	87.89
390.028	5.97
390.238	89.94
390.447	40.79
390.657	81.75
390.867	75.6
391.076	14.17
391.286	71.51
391.496	69.46
391.705	98.13
391.915	122.71
392.125	132.95
392.334	153.43
392.544	38.74
392.753	83.8
392.963	28.5
393.172	153.43
393.382	77.65
393.591	126.8
393.801	102.23
394.01	120.66
394.22	118.61
394.429	75.6
394.639	145.24
394.848	102.23
395.058	110.42
395.267	94.04
395.477	102.23
395.686	175.95
395.895	190.29
396.105	163.67
396.314	124.76
396.524	85.84
396.733	110.42
396.942	143.19
397.152	159.57
397.361	214.87
397.57	63.32
397.78	171.86
397.989	126.8
398.198	175.95
398.407	110.42
398.617	112.47
398.826	143.19
399.035	112.47
399.244	182.1
399.453	130.9
399.663	171.86
399.872	89.94
400.081	87.89
400.29	216.91
400.499	96.08
400.708	182.1
400.917	204.63
401.127	106.32
401.336	149.33
401.545	208.72
401.754	225.11
401.963	208.72
402.172	79.7
402.381	180.05
402.59	143.19
402.799	151.38
403.008	126.8
403.217	171.86
403.426	149.33
403.635	169.81
403.844	212.82
404.053	116.56
404.262	100.18
404.471	237.39
404.68	175.95
404.888	186.19
405.097	149.33
405.306	190.29
405.515	206.67
405.724	157.52
405.933	282.45
406.142	216.91
406.35	304.98
406.559	175.95
406.768	266.07
406.977	337.74
407.185	216.91
407.394	229.2
407.603	239.44
407.812	206.67
408.02	380.75
408.229	280.4
408.438	278.35
408.646	274.26
408.855	309.07
409.064	343.89
409.272	329.55
409.481	425.81
409.69	298.83
409.898	298.83
410.107	390.99
410.315	317.26
410.524	411.47
410.733	470.86
410.941	360.27
411.15	405.33
411.358	440.14
411.567	526.16
411.775	462.67
411.984	479.05
412.192	589.64
412.401	542.54
412.609	556.88
412.818	667.47
413.026	597.84
413.234	565.07
413.443	694.09
413.651	620.36
413.86	636.75
414.068	769.87
414.276	741.19
414.485	745.29
414.693	794.44
414.901	868.17
415.11	864.07
415.318	849.74
415.526	943.94
415.734	1019.72
415.943	905.03
416.151	1034.05
416.359	1025.86
416.567	1081.16
416.776	1062.73
416.984	1314.63
417.192	1339.2
417.4	1158.98
417.608	1140.55
417.817	1314.63
418.025	1261.38
418.233	1398.59
418.441	1308.48
418.649	1445.7
418.857	1597.24
419.065	1525.57
419.273	1615.68
419.481	1681.21
419.689	1777.47
419.897	1789.75
420.105	1838.91
420.313	1847.1
420.521	1959.74
420.729	2025.27
420.937	2031.41
421.145	2094.9
421.353	2299.7
421.561	2414.38
421.769	2420.53
421.977	2506.54
422.185	2522.93
422.393	2688.81
422.601	2717.48
422.809	2694.96
423.017	2895.66
423.224	2969.38
423.432	2998.06
423.64	3041.06
423.848	3303.2
424.056	3274.53
424.263	3469.09
424.471	3487.52
424.679	3526.43
424.887	3733.28
425.094	3839.77
425.302	3839.77
425.51	3925.79
425.718	4124.44
425.925	4134.68
426.133	4206.36
426.341	4437.78
426.548	4726.54
426.756	4773.64
426.964	4796.17
427.171	5089.03
427.379	5383.94
427.586	5445.38
427.794	5467.91
428.001	5781.25
428.209	6137.59
428.417	5926.65
428.624	6340.34
428.832	6319.86
429.039	6373.11
429.247	6317.81
429.454	7034.6
429.662	7229.16
429.869	6917.87
430.076	7216.87
430.284	7083.75
430.491	7378.66
430.699	7913.18
430.906	7806.69
431.114	8052.44
431.321	8197.85
431.528	8494.8
431.736	9189.07
431.943	9416.39
432.15	9182.92
432.358	9103.05
432.565	9635.52
432.772	9813.7
432.979	10180.28
433.187	10354.36
433.394	10362.55
433.601	11284.14
433.808	11095.72
434.016	11196.07
434.223	11624.1
434.43	12258.97
434.637	12119.71
434.844	12752.53
435.052	13098.64
435.259	12934.8
435.466	12938.9
435.673	13029.01
435.88	13891.2
436.087	14528.12
436.294	14653.05
436.501	14337.66
436.708	14474.87
436.915	15181.42
437.122	15734.37
437.329	15761
437.537	16281.18
437.743	16549.46
437.95	16438.87
438.157	17114.7
438.364	17593.93
438.571	17634.89
438.778	17655.37
438.985	19582.51
439.192	18607.67
439.399	19338.8
439.606	18826.81
439.813	19836.45
440.02	21222.93
440.227	20801.05
440.433	20577.82
440.64	21218.83
440.847	21253.65
441.054	21663.24
441.261	23139.83
441.467	22748.67
441.674	23432.69
441.881	23977.45
442.088	24276.45
442.294	23776.75
442.501	24380.9
442.708	24884.7
442.914	26002.89
443.121	27067.83
443.328	26187.21
443.534	28222.89
443.741	27110.84
443.948	26860.99
444.154	28837.28
444.361	29095.32
444.568	28986.78
444.774	29224.34
444.981	29466
445.187	30088.59
445.394	31749.49
445.6	31354.23
445.807	34143.56
446.013	32935.26
446.22	32998.75
446.426	34190.67
446.633	34657.6
446.839	35966.26
447.046	34618.69
447.252	36427.05
447.459	36408.62
447.665	36465.96
447.871	37807.38
448.078	39466.24
448.284	38016.27
448.491	39128.32
448.697	40289.52
448.903	41153.76
449.11	41125.09
449.316	40596.71
449.522	41030.88
449.728	42235.09
449.935	42396.88
450.141	42443.98
450.347	43707.58
450.553	42323.15
450.76	43070.66
450.966	43859.13
451.172	43547.84
451.378	45124.77
451.584	44123.32
451.791	45477.02
451.997	44829.87
452.203	45786.27
452.409	46007.45
452.615	45313.19
452.821	44160.18
453.027	43027.65
453.233	45464.74
453.44	44299.44
453.646	44631.21
453.852	44436.66
454.058	45632.67
454.264	44164.28
454.47	45151.4
454.676	43961.53
454.882	45167.78
455.088	41358.56
455.294	42018
455.5	42706.12
455.705	43087.04
455.911	41641.18
456.117	40467.69
456.323	40320.24
456.529	38167.82
456.735	39736.57
456.941	38647.05
457.147	38364.43
457.352	36984.1
457.558	36660.52
457.764	36611.37
457.97	35839.28
458.176	35321.15
458.381	35503.42
458.587	33273.18
458.793	33776.98
458.999	31968.62
459.204	34096.46
459.41	33082.72
459.616	30985.6
459.821	31321.46
460.027	30721.41
460.233	30238.09
460.438	28579.23
460.644	29171.1
460.85	27708.85
461.055	27448.75
461.261	27164.09
461.466	25353.68
461.672	24829.4
461.878	26236.36
462.083	24540.64
462.289	23916.01
462.494	23899.62
462.7	22576.64
462.905	21812.74
463.111	22937.08
463.316	23025.14
463.522	22584.83
463.727	22470.14
463.932	22660.6
464.138	22132.23
464.343	22191.62
464.549	21628.43
464.754	22400.51
464.959	22162.95
465.165	22101.51
465.37	21083.67
465.575	20344.35
465.781	21429.77
465.986	21284.37
466.191	21030.42
466.397	20532.76
466.602	19213.87
466.807	20108.83
467.012	19951.14
467.218	20022.82
467.423	19609.13
467.628	19719.72
467.833	20702.75
468.038	19772.97
468.244	19269.17
468.449	20102.69
468.654	19480.11
468.859	19488.3
469.064	19168.82
469.269	18370.11
469.474	18331.2
469.679	18966.07
469.885	18134.59
470.09	18742.84
470.295	18357.82
470.5	18026.05
470.705	18200.13
470.91	17614.41
471.115	17622.6
471.32	17942.08
471.525	17780.29
471.73	17335.88
471.935	17456.71
472.139	16604.76
472.344	16827.99
472.549	16952.91
472.754	16723.54
472.959	16342.62
473.164	15896.16
473.369	15808.1
473.574	16375.39
473.778	16088.67
473.983	15826.53
474.188	15789.67
474.393	15212.14
474.598	15562.34
474.802	14970.48
475.007	15015.54
475.212	15113.84
475.417	14448.25
475.621	14401.15
475.826	14591.61
476.031	14263.93
476.235	14196.35
476.44	13964.93
476.645	13983.36
476.849	13905.54
477.054	13678.21
477.259	13594.25
477.463	13497.99
477.668	13373.07
477.872	13315.72
478.077	13145.74
478.282	12703.38
478.486	12768.91
478.691	12768.91
478.895	12680.85
479.1	12424.86
479.304	12689.04
479.509	12066.46
479.713	12488.34
479.918	12297.88
480.122	11927.2
480.326	12007.07
480.531	12078.75
480.735	12054.17
480.94	11744.93
481.144	12101.28
481.348	11585.19
481.553	11857.57
481.757	11425.45
481.961	11777.7
482.166	11869.86
482.37	11663.01
482.574	11620
482.778	11642.53
482.983	11923.1
483.187	11730.59
483.391	11693.73
483.595	11495.08
483.8	11490.98
484.004	11599.52
484.208	11964.06
484.412	11654.82
484.616	11605.67
484.821	11587.24
485.025	11519.65
485.229	11642.53
485.433	11513.51
485.637	11697.83
485.841	11417.26
486.045	11634.34
486.249	11703.97
486.453	11466.41
486.657	11515.56
486.861	11599.52
487.065	11263.66
487.269	11544.23
487.473	11335.34
487.677	11810.47
487.881	11726.5
488.085	11644.58
488.289	11740.83
488.493	11425.45
488.697	11595.43
488.901	11634.34
489.105	11533.99
489.309	11658.92
489.512	11773.6
489.716	11579.04
489.92	11546.28
490.124	11437.73
490.328	11845.28
490.531	11861.66
490.735	11771.55
490.939	11818.66
491.143	11880.1
491.346	11749.03
491.55	12136.09
491.754	12035.74
491.958	11939.49
492.161	11992.73
492.365	11990.69
492.569	12291.74
492.772	12035.74
492.976	12431
493.18	12375.7
493.383	12437.14
493.587	12619.41
493.79	12736.15
493.994	12648.08
494.197	12607.12
494.401	12887.7
494.605	12832.4
494.808	12942.99
495.012	12922.51
495.215	13086.35
495.419	13268.62
495.622	13227.66
495.825	13561.48
496.029	13346.44
496.232	13733.51
496.436	13424.26
496.639	14014.08
496.843	13827.71
497.046	14063.23
497.249	14300.8
497.453	14407.29
497.656	14290.56
497.859	14775.92
498.063	14712.44
498.266	14872.18
498.469	14876.27
498.673	15277.68
498.876	15222.38
499.079	15433.32
499.282	15451.75
499.485	15851.11
499.689	15857.25
499.892	16143.97
500.095	16084.58
500.298	16518.75
500.501	16258.65
500.705	17069.65
500.908	16770.65
501.111	17141.33
501.314	17393.23
501.517	17452.62
501.72	17925.7
501.923	17598.02
502.126	17997.38
502.329	18394.68
502.532	18382.4
502.735	18746.94
502.938	19183.15
503.141	18945.59
503.344	19240.5
503.547	19412.53
503.75	19430.96
503.953	19869.22
504.156	19869.22
504.359	20223.52
504.562	20420.13
504.765	20692.51
504.968	20928.02
505.17	20950.55
505.373	20950.55
505.576	21628.43
505.779	21745.16
505.982	21947.91
506.185	22371.84
506.387	22179.33
506.59	22674.94
506.793	22945.27
506.996	22701.56
507.198	23410.16
507.401	23215.6
507.604	23694.83
507.807	24212.96
508.009	24198.63
508.212	24823.26
508.415	24839.64
508.617	25181.65
508.82	25460.18
509.022	25105.88
509.225	25646.54
509.428	25988.55
509.63	26355.14
509.833	26553.79
510.035	26840.51
510.238	26953.15
510.44	27000.25
510.643	27278.77
510.845	27891.12
511.048	27727.28
511.25	28036.52
511.453	28013.99
511.655	29234.58
511.858	28994.97
512.06	28861.85
512.262	29599.12
512.465	29216.15
512.667	29965.71
512.87	30217.61
513.072	30274.95
513.274	31102.33
513.477	31053.18
513.679	31270.26
513.881	31583.6
514.084	31831.41
514.286	32187.75
514.488	32277.86
514.69	33070.43
514.893	33060.19
515.095	33305.95
515.297	33725.78
515.499	33912.14
515.701	34252.11
515.904	34491.72
516.106	34753.86
516.308	34968.9
516.51	35644.73
516.712	35407.16
516.914	35917.11
517.116	36154.67
517.318	36414.76
517.52	36664.61
517.722	36728.1
517.925	37297.44
518.127	37881.11
518.329	37764.37
518.531	37788.95
518.733	38634.76
518.935	38976.77
519.136	38880.52
519.338	39464.19
519.54	39558.39
519.742	39976.18
519.944	40170.74
520.146	40908.01
520.348	41043.17
520.55	41127.14
520.752	41381.09
520.954	41950.42
521.155	41481.44
521.357	42130.64
521.559	42163.41
521.761	43128
521.963	42521.8
522.164	43285.7
522.366	43351.23
522.568	43543.74
522.77	44160.18
522.971	44489.9
523.173	44164.28
523.375	44919.98
523.576	44981.41
523.778	45100.2
523.98	45718.68
524.181	45954.2
524.383	46095.51
524.584	46576.78
524.786	46245.01
524.988	46795.92
525.189	47494.27
525.391	47504.51
525.592	47352.96
525.794	47791.23
525.995	47443.07
526.197	47914.11
526.398	47940.73
526.6	48436.34
526.801	48512.11
527.003	48643.18
527.204	48581.74
527.406	49071.21
527.607	49347.68
527.808	49638.5
528.01	48614.51
528.211	48907.37
528.412	50553.94
528.614	49888.35
528.815	49957.98
529.016	50932.81
529.218	49683.55
529.419	50117.72
529.62	50324.57
529.822	50383.96
530.023	50392.15
530.224	50586.71
530.425	50863.18
530.626	50453.59
530.828	50818.13
531.029	51594.31
531.23	51043.4
531.431	50934.86
531.632	51465.28
531.833	51352.65
532.035	51438.66
532.236	51405.89
532.437	51735.62
532.638	51448.9
532.839	51534.91
533.04	51809.34
533.241	51061.83
533.442	52149.31
533.643	51735.62
533.844	51723.33
534.045	51899.45
534.246	51330.12
534.447	52407.35
534.648	51745.86
534.849	52331.57
535.05	51424.32
535.251	52034.62
535.451	52001.85
535.652	52157.5
535.853	51713.09
536.054	52384.82
536.255	52216.89
536.456	51842.11
536.657	52667.44
536.857	51440.71
537.058	52122.68
537.259	52206.65
537.46	52372.53
537.66	51780.67
537.861	51944.51
538.062	51598.4
538.263	51704.9
538.463	52139.07
538.664	51797.05
538.865	52485.17
539.065	52173.88
539.266	51381.32
539.466	52771.89
539.667	51387.46
539.868	52515.89
540.068	51870.78
540.269	51928.12
540.469	52149.31
540.67	52182.07
540.87	52159.55
541.071	51743.81
541.271	51981.37
541.472	52010.04
541.672	51809.34
541.873	51881.02
542.073	50822.22
542.274	52368.44
542.474	51489.86
542.675	51231.82
542.875	51856.45
543.075	51727.42
543.276	51260.49
543.476	52255.8
543.676	51668.03
543.877	51805.25
544.077	51661.89
544.277	51676.22
544.478	51285.06
544.678	51625.03
544.878	51461.19
545.078	51921.98
545.279	51274.82
545.479	51221.58
545.679	52069.43
545.879	51383.37
546.079	51416.13
546.28	51483.72
546.48	51043.4
546.68	51508.29
546.88	51616.83
547.08	51659.84
547.28	51258.44
547.48	51074.12
547.68	51393.61
547.88	51205.19
548.081	51500.1
548.281	51606.59
548.481	50979.92
548.681	51493.96
548.881	51463.24
549.081	51577.92
549.28	50609.23
549.48	51426.37
549.68	51375.17
549.88	51606.59
550.08	51317.83
550.28	51080.27
550.48	50850.89
550.68	51496
550.88	50957.39
551.08	51117.13
551.279	51242.06
551.479	50758.73
551.679	50898
551.879	51469.38
552.079	51082.31
552.278	50992.2
552.478	50795.6
552.678	51055.69
552.878	51231.82
553.077	50515.03
553.277	50639.95
553.477	51244.1
553.676	50734.16
553.876	50289.75
554.076	50586.71
554.275	50502.74
554.475	49908.83
554.674	50512.98
554.874	50617.42
555.074	50523.22
555.273	50973.77
555.473	51090.51
555.672	50119.77
555.872	50226.26
556.071	50130.01
556.271	50582.61
556.47	49964.12
556.67	50113.62
556.869	50160.73
557.068	50222.17
557.268	49935.45
557.467	50076.76
557.667	50013.27
557.866	50056.28
558.065	49540.19
558.265	49888.35
558.464	49069.16
558.663	49765.47
558.863	48876.65
559.062	50052.19
559.261	49192.04
559.461	49794.14
559.66	49157.22
559.859	49593.44
560.058	48942.19
560.258	49009.77
560.457	49063.02
560.656	48751.73
560.855	48710.77
561.054	48987.24
561.253	48301.17
561.453	48995.43
561.652	48897.13
561.851	48536.69
562.05	48446.58
562.249	47887.48
562.448	48964.71
562.647	48147.57
562.846	48200.82
563.045	47846.52
563.244	47940.73
563.443	48133.24
563.642	47860.86
563.841	47592.58
564.04	47438.98
564.239	47944.83
564.438	47500.42
564.637	47711.36
564.836	47746.17
565.035	46976.14
565.234	47180.93
565.432	47113.35
565.631	46863.5
565.83	47148.17
566.029	46716.04
566.228	46638.22
566.427	47002.76
566.625	46505.1
566.824	45747.36
567.023	46693.52
567.222	45616.29
567.42	46531.73
567.619	46048.41
567.818	45868.19
568.016	45923.48
568.215	46089.37
568.414	45597.85
568.612	45888.67
568.811	45245.6
569.01	45421.73
569.208	44983.46
569.407	45577.37
569.605	44514.48
569.804	45178.02
570.002	44539.05
570.201	44860.58
570.4	44293.3
570.598	44278.96
570.797	44297.39
570.995	44475.57
571.193	43838.65
571.392	44999.85
571.59	43961.53
571.789	44025.01
571.987	43951.29
572.186	44194.99
572.384	43629.76
572.582	43865.27
572.781	44115.12
572.979	42777.8
573.177	43351.23
573.376	43406.53
573.574	43082.95
573.772	43205.83
573.971	42536.14
574.169	42618.06
574.367	42579.15
574.565	42245.33
574.763	42429.65
574.962	42560.72
575.16	42230.99
575.358	42255.57
575.556	41972.95
575.754	41907.41
575.952	41788.63
576.151	42108.11
576.349	41620.7
576.547	41526.49
576.745	41313.5
576.943	41884.89
577.141	41219.3
577.339	41559.26
577.537	40821.99
577.735	41290.98
577.933	40635.63
578.131	41069.79
578.329	40609
578.527	40377.58
578.725	40422.64
578.923	40643.82
579.121	40277.23
579.319	40299.76
579.516	40150.26
579.714	40367.34
579.912	39886.07
580.11	39744.76
580.308	39953.65
580.506	39902.45
580.704	39542.01
580.901	39341.31
581.099	39879.92
581.297	39126.27
581.495	39068.93
581.692	39238.91
581.89	39079.17
582.088	39273.73
582.285	38663.43
582.483	39154.94
582.681	38771.97
582.878	38679.82
583.076	38348.04
583.274	38581.51
583.471	38100.24
583.669	38141.2
583.866	37829.91
584.064	38427.91
584.262	37397.79
584.459	37901.59
584.657	37393.69
584.854	37979.41
585.052	37055.78
585.249	37395.74
585.447	37657.88
585.644	36916.51
585.841	37258.52
586.039	37182.75
586.236	37020.96
586.434	36320.56
586.631	36504.87
586.828	36908.32
587.026	36586.79
587.223	36642.09
587.42	35917.11
587.618	36169.01
587.815	35925.3
588.012	35740.98
588.21	35882.29
588.407	36404.52
588.604	35816.75
588.801	35573.05
588.999	35493.18
589.196	35460.41
589.393	35372.35
589.59	35224.89
589.787	34837.83
589.984	34944.32
590.182	34520.39
590.379	34678.08
590.576	34594.12
590.773	34557.25
590.97	33946.96
591.167	34624.84
591.364	34155.85
591.561	34600.26
591.758	34043.21
591.955	33992.01
592.152	33903.95
592.349	33795.41
592.546	33811.79
592.743	34196.81
592.94	33455.45
593.137	33426.78
593.334	33211.74
593.531	33092.96
593.727	33617.24
593.924	33244.51
594.121	32959.84
594.318	32904.54
594.515	32726.37
594.712	33346.9
594.908	32759.14
595.105	32505.19
595.302	32308.58
595.499	32611.68
595.696	32058.73
595.892	32118.12
596.089	32261.48
596.286	32095.6
596.482	31714.67
596.679	31898.99
596.876	32308.58
597.072	31886.7
597.269	31341.94
597.466	31348.09
597.662	31327.61
597.859	31630.71
598.055	31628.66
598.252	31061.37
598.448	30915.97
598.645	31038.84
598.841	30502.28
599.038	30655.87
599.234	30883.2
599.431	30625.15
599.627	30563.71
599.824	30465.41
600.02	30303.62
600.217	30195.08
600.413	30389.64
600.609	30172.55
600.806	29978
601.002	30141.83
601.198	29848.97
601.395	29300.12
601.591	29613.46
601.787	29386.13
601.984	29191.58
602.18	29621.65
602.376	29199.77
602.572	29306.26
602.769	28968.35
602.965	28784.03
603.161	28822.94
603.357	28698.02
603.553	28579.23
603.75	28904.86
603.946	28790.17
604.142	28788.13
604.338	28030.38
604.534	28267.94
604.73	28020.14
604.926	27938.22
605.122	28216.74
605.318	27917.74
605.514	27889.07
605.71	27536.82
605.906	27950.51
606.102	27889.07
606.298	27758
606.494	27631.02
606.69	27467.19
606.886	27852.2
607.082	26891.71
607.278	27612.59
607.474	26774.97
607.67	27274.68
607.866	26897.85
608.062	27262.39
608.257	27192.76
608.453	26889.66
608.649	26922.43
608.845	26504.64
609.041	26850.75
609.236	26568.13
609.432	26854.84
609.628	26680.77
609.824	26371.52
610.019	26340.8
610.215	26301.89
610.411	26719.68
610.606	26107.33
610.802	26305.99
610.998	26254.79
611.193	26152.39
611.389	25861.58
611.584	25855.43
611.78	25925.07
611.976	25804.24
612.171	25863.63
612.367	25564.62
612.562	25771.47
612.758	25451.98
612.953	25425.36
613.149	25886.15
613.344	25206.23
613.539	25644.49
613.735	25273.81
613.93	25540.05
614.126	25378.26
614.321	25472.46
614.517	25476.56
614.712	25335.25
614.907	25277.91
615.103	25267.67
615.298	24823.26
615.493	25519.57
615.688	24401.38
615.884	25251.28
616.079	24464.86
616.274	24905.18
616.47	24755.68
616.665	24688.09
616.86	24362.47
617.055	24452.58
617.25	24770.01
617.445	24522.21
617.641	24055.27
617.836	24401.38
618.031	23954.92
618.226	24362.47
618.421	24221.16
618.616	24266.21
618.811	23637.48
619.006	24231.4
619.201	23641.58
619.396	23655.92
619.591	23494.13
619.786	23576.05
619.981	23205.36
620.176	23559.66
620.371	22851.06
620.566	23094.77
620.761	23207.41
620.956	23098.87
621.151	22689.28
621.346	22994.42
621.541	22593.02
621.735	22793.72
621.93	22248.96
622.125	22277.63
622.32	22048.26
622.515	22144.52
622.709	21790.22
622.904	22154.76
623.099	22001.16
623.294	21992.97
623.488	21564.94
623.683	21804.55
623.878	21304.85
624.072	21302.8
624.267	21437.97
624.462	21229.07
624.656	21380.62
624.851	20966.93
625.046	20600.35
625.24	20835.86
625.435	20493.85
625.629	20510.24
625.824	20141.6
626.018	20450.85
626.213	19832.36
626.407	19963.43
626.602	19926.57
626.796	20037.16
626.991	19650.09
627.185	19713.58
627.38	19496.49
627.574	19338.8
627.768	19113.52
627.963	19228.21
628.157	18937.4
628.352	19197.49
628.546	18796.09
628.74	19095.09
628.935	18572.86
629.129	18708.02
629.323	18116.16
629.517	18421.31
629.712	18320.96
629.906	18075.2
630.1	18138.69
630.294	18120.26
630.489	17669.7
630.683	18103.87
630.877	17612.36
631.071	17620.55
631.265	17608.26
631.459	17477.19
631.653	17325.64
631.848	17264.21
632.042	17403.47
632.236	17296.97
632.43	16741.97
632.624	17024.59
632.818	17151.57
633.012	17057.36
633.206	16868.95
633.4	16961.11
633.594	16303.71
633.788	16858.71
633.982	16232.03
634.176	16356.96
634.369	16219.74
634.563	16070.24
634.757	15986.27
634.951	16031.33
635.145	16184.93
635.339	16035.42
635.533	15511.14
635.726	15650.41
635.92	15224.43
636.114	15394.41
636.308	15646.31
636.501	15373.93
636.695	15306.35
636.889	15122.03
637.083	14970.48
637.276	15081.07
637.47	14808.69
637.664	14753.4
637.857	14706.29
638.051	14773.88
638.244	14825.08
638.438	14792.31
638.632	14438.01
638.825	14265.98
639.019	14194.3
639.212	14282.36
639.406	14083.71
639.599	14102.14
639.793	13973.12
639.986	13837.95
640.18	14044.8
640.373	13790.85
640.567	13694.6
640.76	14007.94
640.954	13596.29
641.147	13266.57
641.34	13336.2
641.534	13418.12
641.727	13461.13
641.92	13221.52
642.114	13117.07
642.307	12951.18
642.5	12924.56
642.694	12793.49
642.887	12863.12
643.08	12801.68
643.273	12777.11
643.467	12654.23
643.66	12609.17
643.853	12484.25
644.046	12304.03
644.239	12338.84
644.432	12406.42
644.626	12050.08
644.819	12236.44
645.012	12258.97
645.205	12218.01
645.398	12072.61
645.591	12007.07
645.784	12015.26
645.977	11789.99
646.17	11816.61
646.363	11663.01
646.556	11538.09
646.749	11642.53
646.942	11480.74
647.135	11294.38
647.328	11425.45
647.521	11466.41
647.714	11208.36
647.907	11222.7
648.099	11185.83
648.292	11232.94
648.485	11218.6
648.678	10999.47
648.871	10892.98
649.064	10950.32
649.256	10909.36
649.449	10729.14
649.642	10815.15
649.835	10501.81
650.027	10589.88
650.22	10481.33
650.413	10600.12
650.605	10520.24
650.798	10370.74
650.991	10237.63
651.183	10434.23
651.376	10221.24
651.568	10079.93
651.761	10120.89
651.954	10075.84
652.146	10024.64
652.339	10014.4
652.531	9883.33
652.724	9936.57
652.916	9928.38
653.109	9746.11
653.301	9664.19
653.494	9684.67
653.686	9807.55
653.879	9832.13
654.071	9574.08
654.263	9375.43
654.456	9625.28
654.648	9588.42
654.84	9264.84
655.033	9500.36
655.225	9375.43
655.417	9213.64
655.61	9252.55
655.802	9096.91
655.994	8967.88
656.186	9150.15
656.379	9031.37
656.571	8867.53
656.763	8785.62
656.955	8834.77
657.148	9027.28
657.34	8933.07
657.532	8691.41
657.724	8675.02
657.916	8863.44
658.108	8634.07
658.3	8478.42
658.492	8476.37
658.684	8531.67
658.876	8281.81
659.068	8484.56
659.26	8359.64
659.452	8210.14
659.644	8363.73
659.836	8400.6
660.028	8304.34
660.22	8281.81
660.412	8101.59
660.604	8087.26
660.796	8167.13
660.988	8117.98
661.18	8134.36
661.372	7859.93
661.563	8017.63
661.755	7886.56
661.947	7878.37
662.139	7778.01
662.331	7829.21
662.522	7763.68
662.714	7747.3
662.906	7573.22
663.097	7626.46
663.289	7567.07
663.481	7474.92
663.673	7544.55
663.864	7544.55
664.056	7419.62
664.247	7526.11
664.439	7323.37
664.631	7388.9
664.822	7349.99
665.014	7241.45
665.205	7130.86
665.397	7171.82
665.588	7257.83
665.78	7091.95
665.971	7208.68
666.163	7118.57
666.354	7229.16
666.546	7032.55
666.737	6938.35
666.929	7096.04
667.12	6981.35
667.311	7038.7
667.503	6725.36
667.694	6842.09
667.885	6770.41
668.077	6842.09
668.268	6706.93
668.459	6913.77
668.651	6776.56
668.842	6770.41
669.033	6731.5
669.224	6647.54
669.416	6661.87
669.607	6602.48
669.798	6491.89
669.989	6569.71
670.18	6582
670.371	6510.32
670.563	6530.8
670.754	6610.67
670.945	6436.6
671.136	6440.69
671.327	6430.45
671.518	6350.58
671.709	6528.75
671.9	6452.98
672.091	6450.93
672.282	6254.33
672.473	6311.67
672.664	6307.57
672.855	6196.98
673.046	6244.09
673.237	6221.56
673.428	6266.61
673.619	6295.29
673.809	6106.87
674	6242.04
674.191	6072.06
674.382	6045.43
674.573	6086.39
674.764	6096.63
674.954	6174.46
675.145	6125.3
675.336	6248.18
675.527	5977.85
675.717	6057.72
675.908	6086.39
676.099	6010.62
676.289	6074.1
676.48	5910.27
676.671	6047.48
676.861	6098.68
677.052	6016.76
677.243	5914.36
677.433	5912.32
677.624	6063.86
677.814	5947.13
678.005	5965.56
678.195	6035.19
678.386	5891.84
678.576	5949.18
678.767	5918.46
678.957	5973.75
679.148	5850.88
679.338	5977.85
679.529	5979.9
679.719	5816.06
679.909	5983.99
680.1	5871.36
680.29	5885.69
680.481	5705.47
680.671	5805.82
680.861	5832.44
681.052	5967.61
681.242	5775.1
681.432	6076.15
681.622	5652.22
681.813	5926.65
682.003	5746.43
682.193	5908.22
682.383	5914.36
682.573	5715.71
682.764	5592.83
682.954	5799.68
683.144	5771.01
683.334	5857.02
683.524	5619.46
683.714	5803.77
683.904	5701.37
684.094	5803.77
684.284	5648.13
684.474	5832.44
684.664	5705.47
684.854	5674.75
685.044	5644.03
685.234	5598.98
685.424	5562.11
685.614	5582.59
685.804	5582.59
685.994	5582.59
686.184	5625.6
686.374	5531.39
686.564	5517.06
686.753	5566.21
686.943	5545.73
687.133	5410.56
687.323	5271.3
687.513	5369.6
687.702	5347.08
687.892	5177.09
688.082	5312.26
688.272	5355.27
688.461	5134.09
688.651	5289.73
688.841	5127.94
689.03	5377.8
689.22	5070.6
689.41	5150.47
689.599	5048.07
689.789	5115.66
689.979	4972.3
690.168	5222.15
690.358	4976.39
690.547	4974.35
690.737	5007.11
690.926	4896.52
691.116	4935.43
691.305	4988.68
691.495	4747.02
691.684	4845.32
691.874	4964.11
692.063	4863.76
692.252	4841.23
692.442	4697.87
692.631	4587.28
692.82	4718.35
693.01	4591.38
693.199	4683.53
693.388	4513.55
693.578	4564.75
693.767	4622.09
693.956	4595.47
694.146	4517.65
694.335	4464.4
694.524	4562.7
694.713	4603.66
694.902	4554.51
695.092	4499.22
695.281	4343.57
695.47	4357.91
695.659	4445.97
695.848	4265.75
696.037	4372.24
696.226	4456.21
696.415	4239.12
696.604	4493.07
696.793	4173.59
696.982	4302.61
697.171	4347.67
697.36	4372.24
697.549	4349.71
697.738	4345.62
697.927	4189.97
698.116	4271.89
698.305	4243.22
698.494	4255.51
698.683	4257.56
698.872	4130.58
699.061	4089.62
699.25	4202.26
699.438	4204.31
699.627	4155.16
699.816	4222.74
700.005	4169.49
700.193	4222.74
700.382	4337.43
700.571	4267.8
700.76	4110.1
700.948	4183.83
701.137	4241.17
701.326	4036.38
701.514	4181.78
701.703	4255.51
701.892	4159.25
702.08	4230.93
702.269	4159.25
702.457	4259.6
702.646	4077.34
702.834	4189.97
703.023	4175.64
703.212	4167.45
703.4	4118.29
703.589	4044.57
703.777	4220.69
703.965	4128.53
704.154	4208.41
704.342	4230.93
704.531	4099.86
704.719	4083.48
704.907	4269.84
705.096	4169.49
705.284	4140.82
705.472	4106.01
705.661	4009.75
705.849	4171.54
706.037	4210.45
706.226	4095.77
706.414	4167.45
706.602	4058.9
706.79	4151.06
706.979	3958.55
707.167	4065.05
707.355	4044.57
707.543	4181.78
707.731	4108.05
707.919	4153.11
708.107	4144.92
708.296	4157.21
708.484	3956.5
708.672	4245.27
708.86	4081.43
709.048	4022.04
709.236	4157.21
709.424	4284.18
709.612	4144.92
709.8	4042.52
709.988	4044.57
710.176	4097.81
710.364	4161.3
710.551	4159.25
710.739	4103.96
710.927	4189.97
711.115	4120.34
711.303	4159.25
711.491	4222.74
711.679	4292.37
711.866	4163.35
712.054	4132.63
712.242	4171.54
712.43	4253.46
712.617	4269.84
712.805	4165.4
712.993	4405.01
713.181	4169.49
713.368	4337.43
713.556	4210.45
713.744	4177.69
713.931	4349.71
714.119	4200.21
714.306	4214.55
714.494	4298.52
714.682	4206.36
714.869	4196.12
715.057	4157.21
715.244	4181.78
715.432	4284.18
715.619	4273.94
715.807	4192.02
715.994	4230.93
716.182	4280.08
716.369	4228.88
716.556	4310.8
716.744	4222.74
716.931	4290.32
717.119	4319
717.306	4202.26
717.493	4357.91
717.681	4292.37
717.868	4321.04
718.055	4343.57
718.242	4343.57
718.43	4382.48
718.617	4312.85
718.804	4337.43
718.991	4273.94
719.179	4333.33
719.366	4314.9
719.553	4396.82
719.74	4316.95
719.927	4355.86
720.114	4179.73
720.301	4386.58
720.488	4232.98
720.676	4312.85
720.863	4431.63
721.05	4484.88
721.237	4370.19
721.424	4388.63
721.611	4480.78
721.798	4355.86
721.985	4337.43
722.172	4349.71
722.358	4271.89
722.545	4402.96
722.732	4374.29
722.919	4400.91
723.106	4312.85
723.293	4382.48
723.48	4319
723.667	4290.32
723.853	4331.28
724.04	4411.15
724.227	4409.11
724.414	4300.56
724.6	4382.48
724.787	4443.92
724.974	4546.32
725.161	4470.55
725.347	4445.97
725.534	4443.92
725.72	4615.95
725.907	4427.54
726.094	4278.04
726.28	4376.34
726.467	4368.15
726.653	4335.38
726.84	4495.12
727.027	4642.57
727.213	4411.15
727.4	4468.5
727.586	4570.9
727.773	4421.39
727.959	4476.69
728.145	4478.74
728.332	4531.98
728.518	4433.68
728.705	4441.87
728.891	4429.59
729.077	4390.67
729.264	4482.83
729.45	4597.52
729.636	4515.6
729.823	4306.71
730.009	4525.84
730.195	4364.05
730.382	4585.23
730.568	4388.63
730.754	4470.55
730.94	4398.87
731.126	4466.45
731.313	4480.78
731.499	4466.45
731.685	4443.92
731.871	4587.28
732.057	4499.22
732.243	4544.27
732.429	4562.7
732.615	4454.16
732.801	4497.17
732.987	4378.39
733.173	4613.9
733.359	4476.69
733.545	4396.82
733.731	4402.96
733.917	4624.14
734.103	4556.56
734.289	4435.73
734.475	4343.57
734.661	4591.38
734.847	4454.16
735.033	4583.18
735.219	4488.98
735.404	4390.67
735.59	4478.74
735.776	4359.95
735.962	4597.52
736.148	4579.09
736.333	4466.45
736.519	4398.87
736.705	4536.08
736.89	4493.07
737.076	4529.94
737.262	4378.39
737.447	4343.57
737.633	4394.77
737.819	4390.67
738.004	4353.81
738.19	4431.63
738.375	4157.21
738.561	4407.06
738.747	4337.43
738.932	4421.39
739.118	4398.87
739.303	4288.28
739.489	4280.08
739.674	4288.28
739.859	4271.89
740.045	4235.03
740.23	4339.48
740.416	4282.13
740.601	4431.63
740.786	4126.49
740.972	4284.18
741.157	4165.4
741.342	4304.66
741.528	4063
741.713	4081.43
741.898	4345.62
742.084	4114.2
742.269	4185.88
742.454	4192.02
742.639	4187.93
742.824	4042.52
743.01	4177.69
743.195	4001.56
743.38	4108.05
743.565	3938.07
743.75	4149.01
743.935	3831.58
744.12	4163.35
744.305	3938.07
744.49	4011.8
744.675	3931.93
744.86	3976.98
745.045	3878.68
745.23	3870.49
745.415	3903.26
745.6	3858.2
745.785	3817.24
745.97	3979.03
746.155	3741.47
746.34	3663.65
746.525	3677.98
746.71	3872.54
746.895	3796.76
747.079	3751.71
747.264	3657.5
747.449	3690.27
747.634	3725.08
747.819	3663.65
748.003	3538.72
748.188	3675.93
748.373	3542.82
748.557	3544.86
748.742	3575.58
748.927	3606.3
749.111	3600.16
749.296	3553.06
749.481	3424.03
749.665	3417.89
749.85	3209
750.034	3342.11
750.219	3354.4
750.404	3333.92
750.588	3348.26
750.773	3168.04
750.957	3325.73
751.141	3268.39
751.326	3323.68
751.51	3145.51
751.695	3200.8
751.879	3194.66
752.064	3256.1
752.248	3225.38
752.432	3135.27
752.617	3174.18
752.801	2936.62
752.985	3002.15
753.17	2936.62
753.354	2979.62
753.538	2840.36
753.722	2920.23
753.907	2905.9
754.091	2830.12
754.275	2905.9
754.459	2760.49
754.643	2758.44
754.828	2897.71
755.012	2909.99
755.196	2705.2
755.38	2742.06
755.564	2752.3
755.748	2649.9
755.932	2658.09
756.116	2731.82
756.3	2567.98
756.484	2617.13
756.668	2619.18
756.852	2549.55
757.036	2479.92
757.22	2504.5
757.404	2457.39
757.588	2604.85
757.772	2559.79
757.956	2516.78
758.14	2453.3
758.323	2430.77
758.507	2436.91
758.691	2414.38
758.875	2398
759.059	2492.21
759.242	2344.75
759.426	2457.39
759.61	2268.98
759.794	2209.59
759.977	2285.36
760.161	2346.8
760.345	2301.75
760.528	2314.03
760.712	2211.64
760.895	2340.66
761.079	2271.03
761.263	2234.16
761.446	2162.48
761.63	2166.58
761.813	2185.01
761.997	2230.07
762.18	2211.64
762.364	2238.26
762.547	1986.36
762.731	2096.95
762.914	2166.58
763.098	2043.7
763.281	2029.37
763.464	1943.35
763.648	2076.47
763.831	1994.55
764.015	2058.04
764.198	2043.7
764.381	2039.61
764.564	2060.09
764.748	2002.74
764.931	1994.55
765.114	1912.63
765.297	1992.5
765.481	1894.2
765.664	1908.54
765.847	2004.79
766.03	1877.82
766.213	1855.29
766.397	2017.08
766.58	1879.86
766.763	1920.82
766.946	1849.15
767.129	1863.48
767.312	1793.85
767.495	1830.71
767.678	1754.94
767.861	1756.99
768.044	1871.67
768.227	1781.56
768.41	1738.55
768.593	1720.12
768.776	1756.99
768.959	1761.08
769.142	1763.13
769.324	1693.5
769.507	1742.65
769.69	1677.12
769.873	1634.11
770.056	1748.79
770.239	1711.93
770.421	1728.31
770.604	1771.32
770.787	1691.45
770.97	1693.5
771.152	1535.81
771.335	1566.53
771.518	1572.67
771.7	1742.65
771.883	1650.49
772.066	1673.02
772.248	1638.2
772.431	1699.64
772.613	1552.19
772.796	1607.48
772.978	1611.58
773.161	1685.31
773.343	1519.42
773.526	1568.57
773.708	1531.71
773.891	1492.8
774.073	1494.85
774.256	1466.17
774.438	1589.05
774.621	1357.63
774.803	1544
774.985	1382.21
775.168	1378.11
775.35	1466.17
775.532	1484.61
775.715	1390.4
775.897	1392.45
776.079	1302.34
776.261	1316.67
776.444	1351.49
776.626	1320.77
776.808	1314.63
776.99	1269.57
777.173	1386.3
777.355	1341.25
777.537	1244.99
777.719	1292.1
777.901	1238.85
778.083	1277.76
778.265	1253.19
778.447	1236.8
778.629	1331.01
778.811	1292.1
778.993	1218.37
779.175	1136.45
779.357	1232.71
779.539	1197.89
779.721	1167.17
779.903	1226.56
780.085	1216.32
780.267	1197.89
780.449	1224.51
780.631	1183.56
780.812	1181.51
780.994	1120.07
781.176	1038.15
781.358	1023.81
781.54	1093.44
781.721	1058.63
781.903	1175.36
782.085	1107.78
782.267	1011.53
782.448	1019.72
782.63	927.56
782.812	1017.67
782.993	968.52
783.175	1036.1
783.357	1077.06
783.538	956.23
783.72	927.56
783.901	888.65
784.083	970.57
784.264	970.57
784.446	886.6
784.627	937.8
784.809	913.22
784.99	911.18
785.172	937.8
785.353	925.51
785.535	857.93
785.716	894.79
785.897	810.82
786.079	857.93
786.26	862.02
786.441	851.78
786.623	724.81
786.804	825.16
786.985	788.3
787.167	757.58
787.348	868.17
787.529	898.89
787.71	849.74
787.891	868.17
788.073	722.76
788.254	773.96
788.435	761.67
788.616	800.59
788.797	788.3
788.978	796.49
789.159	761.67
789.34	823.11
789.522	724.81
789.703	671.56
789.884	710.47
790.065	765.77
790.246	790.35
790.427	726.86
790.607	741.19
790.788	792.39
790.969	679.75
791.15	653.13
791.331	741.19
791.512	687.95
791.693	702.28
791.874	634.7
792.054	694.09
792.235	673.61
792.416	565.07
792.597	649.04
792.778	632.65
792.958	651.08
793.139	622.41
793.32	612.17
793.5	614.22
793.681	702.28
793.862	661.32
794.042	595.79
794.223	612.17
794.404	511.82
794.584	626.51
794.765	606.03
794.945	575.31
795.126	620.36
795.306	507.73
795.487	575.31
795.667	569.16
795.848	556.88
796.028	571.21
796.209	567.12
796.389	536.4
796.57	491.34
796.75	577.36
796.93	552.78
797.111	583.5
797.291	470.86
797.471	538.45
797.652	558.92
797.832	468.81
798.012	585.55
798.192	511.82
798.373	503.63
798.553	438.09
798.733	419.66
798.913	454.48
799.093	493.39
799.274	470.86
799.454	489.29
799.634	436.05
799.814	579.4
799.994	556.88
800.174	536.4
800.354	483.15
800.534	546.64
800.714	470.86
800.894	372.56
801.074	376.66
801.254	386.9
801.434	511.82
801.614	454.48
801.794	421.71
801.974	1412.93
802.154	409.42
802.334	376.66
802.514	409.42
802.693	474.96
802.873	442.19
803.053	442.19
803.233	448.33
803.413	464.72
803.592	425.81
803.772	382.8
803.952	407.38
804.131	337.74
804.311	415.57
804.491	431.95
804.67	415.57
804.85	454.48
805.03	411.47
805.209	436.05
805.389	374.61
805.568	358.22
805.748	411.47
805.928	466.77
806.107	409.42
806.287	333.65
806.466	380.75
806.646	407.38
806.825	307.02
807.004	358.22
807.184	395.09
807.363	399.18
807.543	360.27
807.722	356.18
807.901	434
808.081	358.22
808.26	347.98
808.439	372.56
808.619	327.5
808.798	319.31
808.977	333.65
809.156	462.67
809.336	343.89
809.515	405.33
809.694	366.42
809.873	274.26
810.052	309.07
810.231	429.9
810.411	255.83
810.59	345.94
810.769	313.17
810.948	417.61
811.127	292.69
811.306	286.54
811.485	284.5
811.664	302.93
811.843	384.85
812.022	298.83
812.201	321.36
812.38	249.68
812.559	290.64
812.737	356.18
812.916	266.07
813.095	302.93
813.274	280.4
813.453	315.22
813.632	317.26
813.811	356.18
813.989	235.35
814.168	372.56
814.347	290.64
814.526	251.73
814.704	292.69
814.883	339.79
815.062	233.3
815.24	319.31
815.419	249.68
815.598	284.5
815.776	290.64
815.955	282.45
816.133	259.92
816.312	290.64
816.49	261.97
816.669	276.31
816.847	284.5
817.026	331.6
817.204	184.15
817.383	325.46
817.561	245.59
817.74	282.45
817.918	284.5
818.097	307.02
818.275	126.8
818.453	319.31
818.632	261.97
818.81	241.49
818.988	300.88
819.167	208.72
819.345	266.07
819.523	153.43
819.701	223.06
819.879	274.26
820.058	251.73
820.236	218.96
820.414	233.3
820.592	259.92
820.77	225.11
820.948	190.29
821.127	231.25
821.305	274.26
821.483	143.19
821.661	266.07
821.839	247.63
822.017	194.39
822.195	247.63
822.373	253.78
822.551	241.49
822.729	145.24
822.907	266.07
823.085	259.92
823.262	218.96
823.44	249.68
823.618	122.71
823.796	229.2
823.974	178
824.152	171.86
824.329	178
824.507	214.87
824.685	218.96
824.863	194.39
825.04	145.24
825.218	257.87
825.396	161.62
825.574	241.49
825.751	274.26
825.929	253.78
826.107	196.43
826.284	178
826.462	178
826.639	149.33
826.817	126.8
826.994	233.3
827.172	204.63
827.349	253.78
827.527	178
827.704	128.85
827.882	229.2
828.059	157.52
828.237	120.66
828.414	216.91
828.591	169.81
828.769	233.3
828.946	120.66
829.124	198.48
829.301	221.01
829.478	165.71
829.655	120.66
829.833	169.81
830.01	178
830.187	186.19
830.364	178
830.542	235.35
830.719	173.91
830.896	96.08
831.073	141.14
831.25	167.76
831.427	218.96
831.604	173.91
831.782	178
831.959	194.39
832.136	214.87
832.313	147.28
832.49	137.04
832.667	135
832.844	159.57
833.021	206.67
833.198	118.61
833.374	141.14
833.551	186.19
833.728	143.19
833.905	145.24
834.082	135
834.259	128.85
834.436	192.34
834.612	118.61
834.789	180.05
834.966	165.71
835.143	200.53
835.319	81.75
835.496	235.35
835.673	124.76
835.85	153.43
836.026	104.28
836.203	188.24
836.38	118.61
836.556	130.9
836.733	87.89
836.909	204.63
837.086	122.71
837.262	61.27
837.439	55.12
837.616	89.94
837.792	30.55
837.968	161.62
838.145	61.27
838.321	139.09
838.498	163.67
838.674	155.47
838.851	135
839.027	145.24
839.203	85.84
839.38	44.88
839.556	169.81
839.732	91.99
839.909	143.19
840.085	190.29
840.261	128.85
840.437	122.71
840.614	137.04
840.79	91.99
840.966	65.36
841.142	75.6
841.318	98.13
841.494	89.94
841.671	118.61
841.847	116.56
842.023	112.47
842.199	147.28
842.375	161.62
842.551	34.64
842.727	71.51
842.903	180.05
843.079	112.47
843.255	151.38
843.431	128.85
843.607	137.04
843.783	34.64
843.959	178
844.134	128.85
844.31	159.57
844.486	118.61
844.662	48.98
844.838	53.08
845.013	128.85
845.189	145.24
845.365	87.89
845.541	96.08
845.716	100.18
845.892	112.47
846.068	-8.36
846.244	130.9
846.419	94.04
846.595	-6.31
846.77	73.56
846.946	106.32
847.122	24.4
847.297	161.62
847.473	122.71
847.648	91.99
847.824	112.47
847.999	30.55
848.175	89.94
848.35	77.65
848.526	192.34
848.701	36.69
848.876	112.47
849.052	73.56
849.227	89.94
849.403	94.04
849.578	104.28
849.753	59.22
849.929	102.23
850.104	-6.31
850.279	69.46
850.454	59.22
850.63	32.6
850.805	132.95
850.98	161.62
851.155	55.12
851.33	98.13
851.505	145.24
851.681	85.84
851.856	38.74
852.031	163.67
852.206	22.36
852.381	42.84
852.556	143.19
852.731	40.79
852.906	171.86
853.081	71.51
853.256	151.38
853.431	69.46
853.606	77.65
853.781	-37.03
853.956	79.7
854.131	48.98
854.305	-0.17
854.48	63.32
854.655	75.6
854.83	36.69
855.005	30.55
855.18	85.84
855.354	71.51
855.529	81.75
855.704	5.97
855.879	63.32
856.053	96.08
856.228	102.23
856.403	-2.22
856.577	67.41
856.752	85.84
856.926	102.23
857.101	69.46
857.276	44.88
857.45	14.17
857.625	63.32
857.799	98.13
857.974	36.69
858.148	-18.6
858.323	57.17
858.497	69.46
858.672	36.69
858.846	63.32
859.02	120.66
859.195	-16.55
859.369	-0.17
859.543	69.46
859.718	36.69
859.892	57.17
860.066	10.07
860.241	114.52
860.415	-6.31
860.589	36.69
860.763	-6.31
860.938	-6.31
861.112	104.28
861.286	20.31
861.46	104.28
861.634	61.27
861.808	10.07
861.982	104.28
862.157	89.94
862.331	36.69
862.505	36.69
862.679	-37.03
862.853	73.56
863.027	26.45
863.201	108.37
863.375	-14.51
863.549	63.32
863.722	126.8
863.896	44.88
864.07	-37.03
864.244	55.12
864.418	38.74
864.592	65.36
864.766	69.46
864.939	-4.27
865.113	38.74
865.287	94.04
865.461	53.08
865.634	65.36
865.808	71.51
865.982	14.17
866.156	63.32
866.329	-37.03
866.503	91.99
866.676	32.6
866.85	81.75
867.024	-45.23
867.197	98.13
867.371	98.13
867.544	55.12
867.718	44.88
867.891	77.65
868.065	-24.75
868.238	94.04
868.412	104.28
868.585	-24.75
868.759	-6.31
868.932	-55.47
869.105	61.27
869.279	106.32
869.452	61.27
869.625	63.32
869.799	10.07
869.972	32.6
870.145	1.88
870.319	112.47
870.492	26.45
870.665	-34.99
870.838	-96.43
871.011	-14.51
871.185	-10.41
871.358	48.98
871.531	112.47
871.704	-28.84
871.877	18.26
872.05	10.07
872.223	-4.27
872.396	32.6
872.569	55.12
872.742	-63.66
872.915	38.74
873.088	63.32
873.261	-18.6
873.434	59.22
873.607	96.08
873.78	24.4
873.953	87.89
874.126	30.55
874.299	110.42
874.471	48.98
874.644	75.6
874.817	100.18
874.99	102.23
875.163	-2.22
875.335	65.36
875.508	14.17
875.681	46.93
875.853	32.6
876.026	48.98
876.199	26.45
876.371	12.12
876.544	69.46
876.717	1.88
876.889	42.84
877.062	53.08
877.234	-26.79
877.407	22.36
877.579	24.4
877.752	67.41
877.924	89.94
878.097	32.6
878.269	48.98
878.442	12.12
878.614	-14.51
878.786	3.93
878.959	75.6
879.131	42.84
879.303	-77.99
879.476	8.02
879.648	100.18
879.82	40.79
879.993	32.6
880.165	-2.22
880.337	8.02
880.509	71.51
880.681	-2.22
880.854	-73.9
881.026	46.93
881.198	153.43
881.37	28.5
881.542	143.19
881.714	-16.55
881.886	-34.99
882.058	34.64
882.23	28.5
882.402	1.88
882.574	94.04
882.746	-8.36
882.918	79.7
883.09	102.23
883.262	-6.31
883.434	63.32
883.606	-41.13
883.778	5.97
883.95	175.95
884.122	-4.27
884.293	118.61
884.465	24.4
884.637	73.56
884.809	-73.9
884.98	51.03
885.152	3.93
885.324	65.36
885.496	32.6
885.667	16.21
885.839	48.98
886.011	67.41
886.182	34.64
886.354	-2.22
886.525	-26.79
886.697	8.02
886.869	1.88
887.04	100.18
887.212	18.26
887.383	114.52
887.555	36.69
887.726	-12.46
887.897	32.6
888.069	-61.61
888.24	73.56
888.412	-34.99
888.583	-18.6
888.754	75.6
888.926	-30.89
889.097	-53.42
889.268	-37.03
889.44	-6.31
889.611	-18.6
889.782	-57.51
889.953	-0.17
890.125	61.27
890.296	22.36
890.467	32.6
890.638	63.32
890.809	83.8
890.98	14.17
891.151	48.98
891.323	28.5
891.494	-20.65
891.665	18.26
891.836	91.99
892.007	14.17
892.178	22.36
892.349	96.08
892.52	-12.46
892.691	53.08
892.862	-34.99
893.032	-28.84
893.203	24.4
893.374	-39.08
893.545	53.08
893.716	12.12
893.887	69.46
894.057	30.55
894.228	40.79
894.399	-34.99
894.57	69.46
894.74	26.45
894.911	-24.75
895.082	36.69
895.253	96.08
895.423	16.21
895.594	-102.57
895.764	94.04
895.935	46.93
896.106	40.79
896.276	-4.27
896.447	36.69
896.617	-14.51
896.788	-61.61
896.958	61.27
897.129	59.22
897.299	-12.46
897.47	77.65
897.64	38.74
897.81	10.07
897.981	-2.22
898.151	-71.85
898.322	63.32
898.492	18.26
898.662	-61.61
898.832	-10.41
899.003	-26.79
899.173	85.84
899.343	-26.79
899.513	5.97
