Data from USB4F104151__2__13-04-07-412.txt Node

Date: Fri Mar 14 13:04:07 EDT 2025
User: louis
Spectrometer: USB4F10415
Trigger mode: 4
Integration Time (sec): 4.000000E-2
Scans to average: 1
Electric dark correction enabled: true
Nonlinearity correction enabled: false
Boxcar width: 0
XAxis mode: Wavelengths
Number of Pixels in Spectrum: 3648
>>>>>Begin Spectral Data<<<<<
178.204	-199.85
178.424	-199.85
178.644	-199.85
178.864	-150.7
179.084	-150.7
179.304	-42.15
179.524	13.14
179.744	41.81
179.964	62.29
180.184	-44.2
180.404	60.24
180.624	-21.67
180.844	13.14
181.064	-93.35
181.283	-36.01
181.503	25.43
181.723	21.33
181.943	33.62
182.163	88.92
182.383	82.77
182.602	13.14
182.822	39.76
183.042	58.2
183.262	-48.3
183.482	25.43
183.701	58.2
183.921	60.24
184.141	-7.34
184.361	72.53
184.58	54.1
184.8	68.44
185.02	54.1
185.239	35.67
185.459	-15.53
185.679	146.26
185.898	-56.49
186.118	60.24
186.338	-15.53
186.557	50
186.777	-31.91
186.997	11.09
187.216	21.33
187.436	142.16
187.655	68.44
187.875	47.96
188.095	19.29
188.314	39.76
188.534	138.07
188.753	-87.21
188.973	31.57
189.192	35.67
189.412	39.76
189.631	76.63
189.851	84.82
190.07	74.58
190.29	76.63
190.509	64.34
190.729	25.43
190.948	88.92
191.168	183.12
191.387	88.92
191.607	-27.82
191.826	37.72
192.045	-48.3
192.265	35.67
192.484	-11.43
192.704	76.63
192.923	9.05
193.142	144.21
193.362	33.62
193.581	68.44
193.8	4.95
194.02	33.62
194.239	78.68
194.458	7
194.678	70.48
194.897	-42.15
195.116	95.06
195.335	25.43
195.555	95.06
195.774	-31.91
195.993	43.86
196.212	27.48
196.432	9.05
196.651	11.09
196.87	39.76
197.089	105.3
197.308	82.77
197.528	72.53
197.747	4.95
197.966	-27.82
198.185	117.59
198.404	2.9
198.623	58.2
198.842	-25.77
199.062	45.91
199.281	-7.34
199.5	82.77
199.719	78.68
199.938	95.06
200.157	70.48
200.376	9.05
200.595	72.53
200.814	76.63
201.033	50
201.252	45.91
201.471	-25.77
201.69	25.43
201.909	80.72
202.128	15.19
202.347	25.43
202.566	80.72
202.785	-23.72
203.004	33.62
203.223	156.5
203.442	33.62
203.661	62.29
203.879	4.95
204.098	43.86
204.317	-11.43
204.536	39.76
204.755	41.81
204.974	60.24
205.193	41.81
205.411	101.2
205.63	39.76
205.849	66.39
206.068	33.62
206.287	29.52
206.505	56.15
206.724	41.81
206.943	-23.72
207.162	-13.48
207.381	-1.19
207.599	31.57
207.818	-5.29
208.037	41.81
208.255	-1.19
208.474	-15.53
208.693	15.19
208.911	50
209.13	68.44
209.349	54.1
209.567	19.29
209.786	74.58
210.005	95.06
210.223	47.96
210.442	7
210.661	45.91
210.879	0.85
211.098	0.85
211.316	58.2
211.535	93.01
211.753	21.33
211.972	78.68
212.191	9.05
212.409	35.67
212.628	33.62
212.846	-21.67
213.065	88.92
213.283	113.49
213.502	0.85
213.72	68.44
213.938	33.62
214.157	-15.53
214.375	39.76
214.594	-56.49
214.812	78.68
215.031	84.82
215.249	107.35
215.467	27.48
215.686	17.24
215.904	109.4
216.122	60.24
216.341	-42.15
216.559	31.57
216.778	58.2
216.996	68.44
217.214	41.81
217.432	4.95
217.651	-19.63
217.869	-33.96
218.087	31.57
218.306	41.81
218.524	47.96
218.742	33.62
218.96	121.68
219.179	-17.58
219.397	-40.11
219.615	115.54
219.833	64.34
220.051	27.48
220.27	82.77
220.488	60.24
220.706	37.72
220.924	76.63
221.142	7
221.36	-7.34
221.578	74.58
221.796	41.81
222.015	-5.29
222.233	-23.72
222.451	90.96
222.669	45.91
222.887	-21.67
223.105	19.29
223.323	33.62
223.541	43.86
223.759	13.14
223.977	-1.19
224.195	109.4
224.413	82.77
224.631	56.15
224.849	41.81
225.067	9.05
225.285	-27.82
225.503	62.29
225.721	-38.06
225.939	45.91
226.157	52.05
226.375	54.1
226.592	-25.77
226.81	74.58
227.028	52.05
227.246	54.1
227.464	82.77
227.682	25.43
227.9	78.68
228.117	-27.82
228.335	39.76
228.553	117.59
228.771	41.81
228.989	37.72
229.206	78.68
229.424	45.91
229.642	-46.25
229.86	-11.43
230.077	54.1
230.295	74.58
230.513	68.44
230.731	13.14
230.948	125.78
231.166	70.48
231.384	-31.91
231.601	-52.39
231.819	82.77
232.037	9.05
232.254	-54.44
232.472	-40.11
232.689	17.24
232.907	66.39
233.125	52.05
233.342	70.48
233.56	-1.19
233.777	4.95
233.995	11.09
234.213	13.14
234.43	78.68
234.648	9.05
234.865	31.57
235.083	-27.82
235.3	90.96
235.518	-23.72
235.735	97.11
235.953	117.59
236.17	-58.54
236.388	60.24
236.605	58.2
236.822	52.05
237.04	72.53
237.257	82.77
237.475	-25.77
237.692	19.29
237.909	125.78
238.127	27.48
238.344	144.21
238.562	60.24
238.779	66.39
238.996	43.86
239.214	47.96
239.431	109.4
239.648	52.05
239.865	21.33
240.083	125.78
240.3	9.05
240.517	-5.29
240.735	-13.48
240.952	78.68
241.169	25.43
241.386	37.72
241.603	-5.29
241.821	-54.44
242.038	123.73
242.255	29.52
242.472	-29.87
242.689	144.21
242.907	54.1
243.124	11.09
243.341	-17.58
243.558	27.48
243.775	23.38
243.992	-40.11
244.209	50
244.426	111.44
244.643	39.76
244.86	9.05
245.078	82.77
245.295	15.19
245.512	76.63
245.729	-72.87
245.946	60.24
246.163	4.95
246.38	-13.48
246.597	113.49
246.814	-46.25
247.031	78.68
247.248	13.14
247.464	17.24
247.681	47.96
247.898	35.67
248.115	13.14
248.332	-3.24
248.549	23.38
248.766	21.33
248.983	23.38
249.2	66.39
249.417	90.96
249.633	50
249.85	115.54
250.067	45.91
250.284	-15.53
250.501	15.19
250.717	93.01
250.934	9.05
251.151	56.15
251.368	-11.43
251.585	64.34
251.801	-25.77
252.018	-23.72
252.235	60.24
252.451	25.43
252.668	50
252.885	45.91
253.102	-36.01
253.318	50
253.535	9.05
253.752	-19.63
253.968	-46.25
254.185	13.14
254.401	11.09
254.618	41.81
254.835	68.44
255.051	41.81
255.268	109.4
255.484	33.62
255.701	47.96
255.917	97.11
256.134	7
256.351	-36.01
256.567	21.33
256.784	2.9
257	-19.63
257.217	9.05
257.433	37.72
257.65	29.52
257.866	52.05
258.082	-36.01
258.299	19.29
258.515	90.96
258.732	-83.11
258.948	-38.06
259.165	33.62
259.381	-68.78
259.597	21.33
259.814	43.86
260.03	-25.77
260.246	27.48
260.463	27.48
260.679	72.53
260.895	-3.24
261.112	0.85
261.328	35.67
261.544	74.58
261.761	62.29
261.977	27.48
262.193	27.48
262.409	58.2
262.626	25.43
262.842	54.1
263.058	-3.24
263.274	19.29
263.49	23.38
263.707	95.06
263.923	33.62
264.139	41.81
264.355	50
264.571	84.82
264.787	62.29
265.004	23.38
265.22	4.95
265.436	39.76
265.652	15.19
265.868	-3.24
266.084	21.33
266.3	13.14
266.516	58.2
266.732	19.29
266.948	56.15
267.164	66.39
267.38	-64.68
267.596	-7.34
267.812	140.12
268.028	-1.19
268.244	37.72
268.46	0.85
268.676	-17.58
268.892	11.09
269.108	9.05
269.324	4.95
269.54	37.72
269.756	54.1
269.972	-31.91
270.188	45.91
270.403	-50.35
270.619	41.81
270.835	35.67
271.051	-38.06
271.267	35.67
271.483	33.62
271.698	21.33
271.914	99.16
272.13	4.95
272.346	82.77
272.562	19.29
272.777	82.77
272.993	31.57
273.209	17.24
273.425	80.72
273.64	-23.72
273.856	39.76
274.072	13.14
274.287	52.05
274.503	62.29
274.719	68.44
274.934	-7.34
275.15	-5.29
275.366	82.77
275.581	-40.11
275.797	78.68
276.012	60.24
276.228	-15.53
276.444	11.09
276.659	33.62
276.875	15.19
277.09	64.34
277.306	39.76
277.521	93.01
277.737	21.33
277.952	86.87
278.168	9.05
278.383	39.76
278.599	35.67
278.814	9.05
279.03	29.52
279.245	121.68
279.461	27.48
279.676	-23.72
279.892	-38.06
280.107	62.29
280.322	25.43
280.538	50
280.753	-13.48
280.969	60.24
281.184	-33.96
281.399	66.39
281.615	80.72
281.83	109.4
282.045	-21.67
282.26	66.39
282.476	33.62
282.691	72.53
282.906	7
283.122	21.33
283.337	7
283.552	64.34
283.767	-21.67
283.983	2.9
284.198	58.2
284.413	31.57
284.628	11.09
284.843	37.72
285.058	45.91
285.274	41.81
285.489	-5.29
285.704	41.81
285.919	-31.91
286.134	-1.19
286.349	-64.68
286.564	-5.29
286.779	17.24
286.995	-5.29
287.21	-85.16
287.425	117.59
287.64	54.1
287.855	86.87
288.07	-33.96
288.285	43.86
288.5	105.3
288.715	86.87
288.93	0.85
289.145	11.09
289.36	35.67
289.575	21.33
289.79	0.85
290.004	4.95
290.219	9.05
290.434	-68.78
290.649	66.39
290.864	9.05
291.079	-21.67
291.294	50
291.509	41.81
291.724	29.52
291.938	-46.25
292.153	54.1
292.368	4.95
292.583	47.96
292.798	58.2
293.012	50
293.227	66.39
293.442	-1.19
293.657	58.2
293.871	164.69
294.086	50
294.301	70.48
294.516	52.05
294.73	50
294.945	21.33
295.16	-54.44
295.374	66.39
295.589	13.14
295.804	11.09
296.018	23.38
296.233	41.81
296.447	19.29
296.662	68.44
296.877	54.1
297.091	25.43
297.306	9.05
297.52	-31.91
297.735	15.19
297.949	64.34
298.164	90.96
298.378	-5.29
298.593	-7.34
298.807	-1.19
299.022	39.76
299.236	41.81
299.451	-36.01
299.665	-19.63
299.88	-46.25
300.094	19.29
300.309	41.81
300.523	21.33
300.737	21.33
300.952	4.95
301.166	25.43
301.381	-64.68
301.595	37.72
301.809	0.85
302.024	-7.34
302.238	62.29
302.452	35.67
302.667	4.95
302.881	88.92
303.095	47.96
303.309	41.81
303.524	-5.29
303.738	33.62
303.952	-60.59
304.166	-13.48
304.381	-44.2
304.595	158.55
304.809	-54.44
305.023	109.4
305.237	80.72
305.452	-48.3
305.666	115.54
305.88	90.96
306.094	29.52
306.308	60.24
306.522	74.58
306.736	41.81
306.95	56.15
307.164	9.05
307.379	33.62
307.593	76.63
307.807	11.09
308.021	54.1
308.235	52.05
308.449	-5.29
308.663	-7.34
308.877	74.58
309.091	45.91
309.305	93.01
309.519	4.95
309.733	138.07
309.947	-23.72
310.161	0.85
310.374	-40.11
310.588	-15.53
310.802	2.9
311.016	2.9
311.23	25.43
311.444	43.86
311.658	-1.19
311.872	119.64
312.085	74.58
312.299	66.39
312.513	21.33
312.727	54.1
312.941	-17.58
313.154	113.49
313.368	107.35
313.582	47.96
313.796	23.38
314.009	43.86
314.223	93.01
314.437	-11.43
314.651	62.29
314.864	82.77
315.078	17.24
315.292	41.81
315.505	13.14
315.719	-5.29
315.933	60.24
316.146	15.19
316.36	-72.87
316.573	29.52
316.787	50
317.001	27.48
317.214	-46.25
317.428	66.39
317.641	-29.87
317.855	19.29
318.068	25.43
318.282	27.48
318.495	78.68
318.709	37.72
318.922	50
319.136	78.68
319.349	41.81
319.563	21.33
319.776	13.14
319.99	-38.06
320.203	47.96
320.417	-9.39
320.63	52.05
320.843	138.07
321.057	23.38
321.27	41.81
321.483	58.2
321.697	99.16
321.91	31.57
322.124	9.05
322.337	68.44
322.55	0.85
322.763	-3.24
322.977	45.91
323.19	9.05
323.403	37.72
323.617	58.2
323.83	107.35
324.043	95.06
324.256	-7.34
324.469	-52.39
324.683	111.44
324.896	4.95
325.109	107.35
325.322	-9.39
325.535	-7.34
325.748	64.34
325.962	39.76
326.175	56.15
326.388	52.05
326.601	0.85
326.814	99.16
327.027	-60.59
327.24	66.39
327.453	-58.54
327.666	-42.15
327.879	123.73
328.092	52.05
328.305	90.96
328.518	54.1
328.731	-52.39
328.944	-19.63
329.157	86.87
329.37	-38.06
329.583	115.54
329.796	43.86
330.009	-1.19
330.222	74.58
330.435	66.39
330.648	-11.43
330.861	17.24
331.073	-19.63
331.286	29.52
331.499	82.77
331.712	21.33
331.925	27.48
332.138	27.48
332.35	74.58
332.563	-19.63
332.776	58.2
332.989	25.43
333.202	-38.06
333.414	90.96
333.627	9.05
333.84	60.24
334.053	9.05
334.265	58.2
334.478	-40.11
334.691	27.48
334.903	19.29
335.116	-68.78
335.329	13.14
335.541	60.24
335.754	64.34
335.966	-19.63
336.179	25.43
336.392	-44.2
336.604	2.9
336.817	95.06
337.029	68.44
337.242	21.33
337.454	62.29
337.667	33.62
337.88	101.2
338.092	103.25
338.305	50
338.517	25.43
338.729	86.87
338.942	95.06
339.154	-19.63
339.367	-109.74
339.579	-5.29
339.792	4.95
340.004	37.72
340.217	29.52
340.429	13.14
340.641	-3.24
340.854	-5.29
341.066	-89.26
341.278	0.85
341.491	72.53
341.703	82.77
341.915	41.81
342.128	66.39
342.34	52.05
342.552	-15.53
342.764	50
342.977	-9.39
343.189	50
343.401	17.24
343.613	23.38
343.826	17.24
344.038	-11.43
344.25	-7.34
344.462	23.38
344.674	35.67
344.886	-11.43
345.099	47.96
345.311	97.11
345.523	99.16
345.735	-9.39
345.947	-3.24
346.159	64.34
346.371	-29.87
346.583	27.48
346.795	68.44
347.007	-27.82
347.219	60.24
347.431	35.67
347.643	27.48
347.855	-44.2
348.067	2.9
348.279	7
348.491	58.2
348.703	-1.19
348.915	23.38
349.127	-46.25
349.339	86.87
349.551	-56.49
349.763	11.09
349.975	86.87
350.187	60.24
350.399	103.25
350.61	56.15
350.822	-19.63
351.034	43.86
351.246	56.15
351.458	13.14
351.669	80.72
351.881	68.44
352.093	74.58
352.305	86.87
352.517	33.62
352.728	72.53
352.94	54.1
353.152	74.58
353.363	52.05
353.575	109.4
353.787	88.92
353.999	62.29
354.21	-3.24
354.422	-25.77
354.633	25.43
354.845	-1.19
355.057	45.91
355.268	27.48
355.48	39.76
355.692	-15.53
355.903	-21.67
356.115	33.62
356.326	-40.11
356.538	93.01
356.749	47.96
356.961	107.35
357.172	0.85
357.384	2.9
357.595	133.97
357.807	13.14
358.018	33.62
358.23	13.14
358.441	29.52
358.653	76.63
358.864	15.19
359.075	-40.11
359.287	-21.67
359.498	76.63
359.709	35.67
359.921	-31.91
360.132	7
360.344	-23.72
360.555	-36.01
360.766	64.34
360.977	33.62
361.189	70.48
361.4	21.33
361.611	105.3
361.823	76.63
362.034	0.85
362.245	50
362.456	4.95
362.667	45.91
362.879	-27.82
363.09	119.64
363.301	27.48
363.512	101.2
363.723	43.86
363.935	31.57
364.146	37.72
364.357	-3.24
364.568	43.86
364.779	-11.43
364.99	72.53
365.201	21.33
365.412	58.2
365.623	-62.63
365.834	25.43
366.045	52.05
366.256	33.62
366.467	9.05
366.678	70.48
366.889	37.72
367.1	58.2
367.311	82.77
367.522	21.33
367.733	19.29
367.944	-5.29
368.155	58.2
368.366	74.58
368.577	90.96
368.788	99.16
368.999	-23.72
369.209	0.85
369.42	111.44
369.631	123.73
369.842	-5.29
370.053	35.67
370.264	58.2
370.474	15.19
370.685	-5.29
370.896	37.72
371.107	43.86
371.317	2.9
371.528	33.62
371.739	47.96
371.95	56.15
372.16	43.86
372.371	23.38
372.582	-27.82
372.792	52.05
373.003	-9.39
373.214	27.48
373.424	68.44
373.635	-66.73
373.846	156.5
374.056	103.25
374.267	82.77
374.477	-3.24
374.688	47.96
374.898	60.24
375.109	9.05
375.319	27.48
375.53	88.92
375.74	9.05
375.951	74.58
376.161	68.44
376.372	62.29
376.582	25.43
376.793	33.62
377.003	-7.34
377.214	27.48
377.424	21.33
377.635	9.05
377.845	39.76
378.055	52.05
378.266	-81.07
378.476	74.58
378.686	15.19
378.897	21.33
379.107	82.77
379.317	31.57
379.528	4.95
379.738	62.29
379.948	68.44
380.158	76.63
380.369	47.96
380.579	54.1
380.789	31.57
380.999	31.57
381.21	27.48
381.42	29.52
381.63	-42.15
381.84	99.16
382.05	64.34
382.261	74.58
382.471	99.16
382.681	-29.87
382.891	54.1
383.101	97.11
383.311	-15.53
383.521	7
383.731	80.72
383.941	39.76
384.151	58.2
384.361	19.29
384.571	41.81
384.781	43.86
384.991	78.68
385.201	113.49
385.411	41.81
385.621	72.53
385.831	27.48
386.041	111.44
386.251	62.29
386.461	9.05
386.671	66.39
386.881	-3.24
387.091	17.24
387.301	74.58
387.511	37.72
387.72	45.91
387.93	47.96
388.14	-7.34
388.35	9.05
388.56	84.82
388.769	66.39
388.979	50
389.189	27.48
389.399	47.96
389.609	70.48
389.818	84.82
390.028	111.44
390.238	4.95
390.447	19.29
390.657	82.77
390.867	2.9
391.076	27.48
391.286	-31.91
391.496	52.05
391.705	0.85
391.915	54.1
392.125	66.39
392.334	54.1
392.544	144.21
392.753	50
392.963	4.95
393.172	115.54
393.382	37.72
393.591	133.97
393.801	-11.43
394.01	101.2
394.22	66.39
394.429	-23.72
394.639	35.67
394.848	66.39
395.058	37.72
395.267	109.4
395.477	62.29
395.686	90.96
395.895	109.4
396.105	183.12
396.314	68.44
396.524	90.96
396.733	-3.24
396.942	66.39
397.152	45.91
397.361	41.81
397.57	90.96
397.78	33.62
397.989	47.96
398.198	95.06
398.407	45.91
398.617	103.25
398.826	54.1
399.035	43.86
399.244	33.62
399.453	45.91
399.663	62.29
399.872	50
400.081	107.35
400.29	164.69
400.499	13.14
400.708	76.63
400.917	54.1
401.127	84.82
401.336	101.2
401.545	189.27
401.754	164.69
401.963	164.69
402.172	62.29
402.381	50
402.59	39.76
402.799	90.96
403.008	131.92
403.217	70.48
403.426	127.83
403.635	99.16
403.844	60.24
404.053	95.06
404.262	74.58
404.471	138.07
404.68	97.11
404.888	70.48
405.097	140.12
405.306	125.78
405.515	176.98
405.724	78.68
405.933	156.5
406.142	99.16
406.35	197.46
406.559	144.21
406.768	111.44
406.977	224.08
407.185	136.02
407.394	191.31
407.603	80.72
407.812	174.93
408.02	191.31
408.229	131.92
408.438	172.88
408.646	117.59
408.855	150.36
409.064	228.18
409.272	183.12
409.481	230.23
409.69	256.85
409.898	150.36
410.107	234.32
410.315	277.33
410.524	289.62
410.733	279.38
410.941	293.71
411.15	351.06
411.358	279.38
411.567	371.54
411.775	308.05
411.984	334.67
412.192	314.19
412.401	336.72
412.609	404.3
412.818	326.48
413.026	371.54
413.234	410.45
413.443	402.26
413.651	371.54
413.86	445.26
414.068	533.33
414.276	504.65
414.485	385.87
414.693	547.66
414.901	600.91
415.11	480.08
415.318	600.91
415.526	490.32
415.734	574.28
415.943	566.09
416.151	758.6
416.359	631.63
416.567	729.93
416.776	697.16
416.984	785.23
417.192	822.09
417.4	707.4
417.608	674.64
417.817	774.99
418.025	813.9
418.233	893.77
418.441	861
418.649	949.06
418.857	912.2
419.065	1076.04
419.273	1010.5
419.481	977.73
419.689	1192.77
419.897	1160
420.105	1164.1
420.313	1262.4
420.521	1297.22
420.729	1293.12
420.937	1364.8
421.145	1297.22
421.353	1411.9
421.561	1598.27
421.769	1532.73
421.977	1585.98
422.185	1616.7
422.393	1647.42
422.601	1831.74
422.809	1772.35
423.017	1811.26
423.224	1944.38
423.432	1934.14
423.64	1938.23
423.848	2097.97
424.056	2048.82
424.263	2233.14
424.471	2149.17
424.679	2200.37
424.887	2366.26
425.094	2433.84
425.302	2417.46
425.51	2511.66
425.718	2747.18
425.925	2646.83
426.133	2679.6
426.341	2999.08
426.548	3091.24
426.756	3181.35
426.964	3228.45
427.171	3255.08
427.379	3375.91
427.586	3412.77
427.794	3478.3
428.001	3658.53
428.209	3828.51
428.417	3676.96
428.624	4051.74
428.832	3932.95
429.039	3961.62
429.247	4035.35
429.454	4434.71
429.662	4723.47
429.869	4236.05
430.076	4743.95
430.284	4637.45
430.491	4786.96
430.699	5051.14
430.906	5063.43
431.114	5079.82
431.321	5317.38
431.528	5382.92
431.736	5688.06
431.943	6202.1
432.15	5872.38
432.358	5931.77
432.565	6343.41
432.772	6116.09
432.979	6517.49
433.187	6642.42
433.394	6724.33
433.601	7090.92
433.808	7127.78
434.016	7078.63
434.223	7449.32
434.43	8012.51
434.637	7820
434.844	8223.45
435.052	8321.75
435.259	8366.81
435.466	8403.67
435.673	8299.22
435.88	8725.2
436.087	9296.58
436.294	9362.12
436.501	9175.75
436.708	9097.93
436.915	9540.29
437.122	10187.45
437.329	9956.03
437.537	10459.83
437.743	10474.17
437.95	10500.79
438.157	11014.83
438.364	11455.14
438.571	11489.96
438.778	11438.76
438.985	12307.1
439.192	12071.58
439.399	12329.63
439.606	11967.13
439.813	12862.1
440.02	13892.23
440.227	13351.56
440.433	13271.69
440.64	13597.32
440.847	13357.71
441.054	13908.61
441.261	14862.96
441.467	14711.41
441.674	14824.05
441.881	15469.16
442.088	15409.77
442.294	15192.69
442.501	15841.89
442.708	15975.01
442.914	16790.1
443.121	17504.84
443.328	16872.02
443.534	18086.47
443.741	17644.1
443.948	17281.61
444.154	18768.44
444.361	18534.97
444.568	18567.74
444.774	18596.41
444.981	18944.56
445.187	19520.04
445.394	20116
445.6	20001.32
445.807	21862.92
446.013	21031.44
446.22	21334.54
446.426	22354.43
446.633	22194.69
446.839	23149.04
447.046	22329.86
447.252	23314.93
447.459	23450.1
447.665	23558.64
447.871	24670.68
448.078	25866.7
448.284	24007.14
448.491	24840.67
448.697	25862.6
448.903	26395.07
449.11	26102.22
449.316	25809.36
449.522	26513.86
449.728	27386.29
449.935	27742.64
450.141	27433.39
450.347	28049.83
450.553	27193.78
450.76	27865.52
450.966	28381.6
451.172	27980.2
451.378	29057.43
451.584	28486.05
451.791	29118.87
451.997	28889.5
452.203	29221.27
452.409	29667.73
452.615	29174.17
452.821	28000.68
453.027	27972.01
453.233	29403.54
453.44	27949.48
453.646	28189.1
453.852	28631.46
454.058	29227.42
454.264	28336.55
454.47	28461.48
454.676	27767.21
454.882	29000.09
455.088	26386.88
455.294	26929.59
455.5	26999.23
455.705	27564.46
455.911	26474.95
456.117	25876.94
456.323	25199.06
456.529	24140.26
456.735	25141.72
456.941	24811.99
457.147	24465.89
457.352	23298.55
457.558	23306.74
457.764	23091.7
457.97	22747.64
458.176	22358.53
458.381	22338.05
458.587	21451.28
458.793	21062.16
458.999	19943.97
459.204	21586.44
459.41	21074.45
459.616	19657.26
459.821	19460.65
460.027	19657.26
460.233	18975.28
460.438	18391.61
460.644	18315.84
460.85	17615.43
461.055	17134.16
461.261	17228.37
461.466	16048.74
461.672	15473.26
461.878	16407.13
462.083	15278.7
462.289	15180.4
462.494	14729.84
462.7	14277.24
462.905	13886.08
463.111	14357.11
463.316	14682.74
463.522	14021.25
463.727	14103.17
463.932	14154.37
464.138	14129.79
464.343	14049.92
464.549	13677.19
464.754	14148.22
464.959	14172.8
465.165	13939.33
465.37	13310.6
465.575	12901.01
465.781	13429.38
465.986	13486.73
466.191	12950.16
466.397	12618.39
466.602	12079.77
466.807	12589.72
467.012	12853.91
467.218	12667.54
467.423	12399.26
467.628	12714.64
467.833	13126.29
468.038	12577.43
468.244	12208.8
468.449	12864.15
468.654	12485.27
468.859	11991.71
469.064	12184.22
469.269	11645.6
469.474	11928.22
469.679	12120.73
469.885	11661.99
470.09	11676.32
470.295	11633.32
470.5	11393.7
470.705	11537.06
470.91	11217.58
471.115	11274.92
471.32	11340.46
471.525	11170.47
471.73	10914.48
471.935	11039.4
472.139	10560.18
472.344	10838.7
472.549	10582.71
472.754	10488.5
472.959	10377.91
473.164	10197.69
473.369	9999.04
473.574	10068.67
473.778	10136.25
473.983	10142.39
474.188	10115.77
474.393	9564.87
474.598	9732.8
474.802	9380.55
475.007	9288.39
475.212	9384.65
475.417	9099.98
475.621	9167.56
475.826	9222.86
476.031	8768.21
476.235	8852.17
476.44	8807.12
476.645	8721.1
476.849	8938.19
477.054	8688.34
477.259	8508.12
477.463	8698.58
477.668	8395.48
477.872	8604.37
478.077	8446.68
478.282	7983.84
478.486	8071.9
478.691	8119
478.895	7916.25
479.1	8055.51
479.304	8045.27
479.509	7772.89
479.713	7965.4
479.918	7803.61
480.122	7695.07
480.326	7748.32
480.531	7686.88
480.735	7684.83
480.94	7512.8
481.144	7766.75
481.348	7484.13
481.553	7537.38
481.757	7326.44
481.961	7584.48
482.166	7717.6
482.37	7441.12
482.574	7277.29
482.778	7394.02
482.983	7486.18
483.187	7490.28
483.391	7471.84
483.595	7389.92
483.8	7381.73
484.004	7416.55
484.208	7514.85
484.412	7328.49
484.616	7504.61
484.821	7471.84
485.025	7258.85
485.229	7314.15
485.433	7496.42
485.637	7500.51
485.841	7430.88
486.045	7297.77
486.249	7688.93
486.453	7371.49
486.657	7484.13
486.861	7469.8
487.065	7213.8
487.269	7531.23
487.473	7369.44
487.677	7504.61
487.881	7590.63
488.085	7516.9
488.289	7424.74
488.493	7457.51
488.697	7561.95
488.901	7396.07
489.105	7447.27
489.309	7494.37
489.512	7367.4
489.716	7693.02
489.92	7508.71
490.124	7461.6
490.328	7449.32
490.531	7752.42
490.735	7545.57
490.939	7500.51
491.143	7449.32
491.346	7748.32
491.55	7727.84
491.754	7854.81
491.958	7797.47
492.161	7715.55
492.365	7893.72
492.569	7752.42
492.772	7916.25
492.976	7946.97
493.18	7897.82
493.383	8202.97
493.587	8174.3
493.79	8252.12
493.994	8094.43
494.197	8264.41
494.401	8200.92
494.605	8133.34
494.808	8434.39
495.012	8313.56
495.215	8485.59
495.419	8413.91
495.622	8452.82
495.825	8612.56
496.029	8770.26
496.232	8899.28
496.436	8823.5
496.639	9067.21
496.843	9052.88
497.046	9202.38
497.249	8999.63
497.453	9392.84
497.656	9476.8
497.859	9482.95
498.063	9392.84
498.266	9622.21
498.469	9634.5
498.673	9577.16
498.876	10019.52
499.079	9919.17
499.282	9953.98
499.485	10359.48
499.689	10191.55
499.892	10453.69
500.095	10414.77
500.298	10918.57
500.501	10662.58
500.705	10853.04
500.908	10842.8
501.111	11156.14
501.314	11195.05
501.517	11451.05
501.72	11494.05
501.923	11610.79
502.126	11743.91
502.329	12077.73
502.532	11987.61
502.735	11940.51
502.938	12448.41
503.141	12489.37
503.344	12530.33
503.547	12616.34
503.75	12923.54
503.953	13013.65
504.156	13042.32
504.359	13079.18
504.562	13302.41
504.765	13539.97
504.968	13550.21
505.17	13673.09
505.373	13763.2
505.576	13888.13
505.779	13984.38
505.982	14453.37
506.185	14551.67
506.387	14770.8
506.59	14748.28
506.793	15016.56
506.996	14985.84
507.198	15473.26
507.401	15231.6
507.604	15477.35
507.807	15800.93
508.009	15979.11
508.212	15903.33
508.415	16099.94
508.617	16319.07
508.82	16521.82
509.022	16276.06
509.225	16679.51
509.428	17064.53
509.63	17168.98
509.833	16894.55
510.035	17631.82
510.238	17654.34
510.44	17746.5
510.643	18045.51
510.845	18471.48
511.048	18268.73
511.25	18659.9
511.453	18584.12
511.655	19325.49
511.858	18788.92
512.06	19317.29
512.262	19300.91
512.465	19194.42
512.667	19857.96
512.87	19792.42
513.072	19911.21
513.274	20564.51
513.477	20748.82
513.679	20447.77
513.881	21150.23
514.084	20890.13
514.286	21211.67
514.488	21242.39
514.69	21934.6
514.893	21805.58
515.095	21813.77
515.297	22108.68
515.499	22399.49
515.701	22663.68
515.904	22790.65
516.106	22843.9
516.308	23237.11
516.51	23443.95
516.712	23536.11
516.914	23835.11
517.116	24345.06
517.318	24117.73
517.52	24463.84
517.722	24588.77
517.925	24887.77
518.127	25319.89
518.329	25582.03
518.531	25321.94
518.733	25606.61
518.935	25833.93
519.136	26143.17
519.338	26773.95
519.54	26184.13
519.742	26726.85
519.944	26982.84
520.146	27439.54
520.348	27425.2
520.55	27339.19
520.752	27599.28
520.954	28012.97
521.155	28090.79
521.357	28672.42
521.559	28541.35
521.761	28975.52
521.963	29041.05
522.164	29225.37
522.366	29243.8
522.568	29585.81
522.77	29559.19
522.971	30065.03
523.173	29852.05
523.375	30443.91
523.576	30075.27
523.778	30458.24
523.98	31441.27
524.181	31107.45
524.383	30982.52
524.584	31521.14
524.786	31797.62
524.988	31601.01
525.189	32006.51
525.391	32078.19
525.592	32330.09
525.794	32452.97
525.995	32561.51
526.197	32713.06
526.398	32668
526.6	32948.57
526.801	33016.16
527.003	33583.44
527.204	33472.85
527.406	33771.86
527.607	33534.29
527.808	33739.09
528.01	33456.47
528.211	34214.22
528.412	34322.76
528.614	34488.65
528.815	33941.84
529.016	34709.83
529.218	34341.19
529.419	34580.81
529.62	34382.15
529.822	34494.79
530.023	34533.7
530.224	34441.54
530.425	34621.77
530.626	34621.77
530.828	34758.98
531.029	35561.78
531.23	35461.43
531.431	35287.35
531.632	35551.54
531.833	35303.74
532.035	35209.53
532.236	35283.26
532.437	35664.18
532.638	35641.65
532.839	35576.12
533.04	35791.16
533.241	34931.01
533.442	36088.11
533.643	35899.7
533.844	35756.34
534.045	35899.7
534.246	35600.69
534.447	36258.09
534.648	35803.44
534.849	36174.13
535.05	35307.83
535.251	35776.82
535.451	35588.41
535.652	36014.38
535.853	36213.04
536.054	36086.06
536.255	36073.77
536.456	35768.63
536.657	36239.66
536.857	36106.54
537.058	35737.91
537.259	36102.45
537.46	35924.27
537.66	36102.45
537.861	35928.37
538.062	36088.11
538.263	35875.12
538.463	35828.02
538.664	35862.83
538.865	36114.73
539.065	36499.75
539.266	35815.73
539.466	36219.18
539.667	35469.62
539.868	36763.94
540.068	35733.81
540.269	36129.07
540.469	36112.69
540.67	36047.15
540.87	35780.92
541.071	35901.75
541.271	36364.59
541.472	36065.58
541.672	35850.55
541.873	36000.05
542.073	35737.91
542.274	36319.53
542.474	36110.64
542.675	35729.72
542.875	36022.58
543.075	35836.21
543.276	35606.84
543.476	36321.58
543.676	35793.2
543.877	36051.25
544.077	36043.06
544.277	35717.43
544.478	35840.31
544.678	35936.56
544.878	36069.68
545.078	35529.02
545.279	35608.89
545.479	35875.12
545.679	35887.41
545.879	35967.28
546.079	35699
546.28	35678.52
546.48	35377.47
546.68	36036.91
546.88	35440.95
547.08	35664.18
547.28	36034.86
547.48	35459.38
547.68	35606.84
547.88	35580.21
548.081	36245.8
548.281	35815.73
548.481	35395.9
548.681	36051.25
548.881	35637.56
549.081	35811.63
549.28	35727.67
549.48	35451.19
549.68	35569.97
549.88	36086.06
550.08	35582.26
550.28	35666.23
550.48	35463.48
550.68	35537.21
550.88	35471.67
551.08	35412.28
551.279	35778.87
551.479	35166.52
551.679	35295.55
551.879	35281.21
552.079	35567.93
552.278	35291.45
552.478	35389.75
552.678	35641.65
552.878	35498.3
553.077	35223.87
553.277	35180.86
553.477	35643.7
553.676	35119.42
553.876	35111.23
554.076	34984.26
554.275	35332.41
554.475	34613.57
554.674	35072.32
554.874	35125.57
555.074	35332.41
555.273	35385.66
555.473	35092.8
555.672	35135.81
555.872	34818.37
556.071	35189.05
556.271	35252.54
556.47	34756.93
556.67	34597.19
556.869	34523.46
557.068	34832.71
557.268	34447.69
557.467	34746.69
557.667	34550.09
557.866	34558.28
558.065	34451.78
558.265	34212.17
558.464	33804.63
558.663	34752.84
558.863	33976.65
559.062	34560.33
559.261	33915.22
559.461	34275.66
559.66	34064.72
559.859	33739.09
560.058	33657.17
560.258	34142.54
560.457	33757.52
560.656	34029.9
560.855	33640.79
561.054	33734.99
561.253	33544.53
561.453	33448.28
561.652	33814.87
561.851	33522.01
562.05	33685.84
562.249	33349.98
562.448	33485.14
562.647	33399.13
562.846	33462.61
563.045	33212.76
563.244	32903.52
563.443	33266.01
563.642	32661.86
563.841	33145.18
564.04	32598.37
564.239	32903.52
564.438	32229.74
564.637	32495.97
564.836	32885.09
565.035	32508.26
565.234	32416.1
565.432	32219.5
565.631	32385.38
565.83	32293.22
566.029	31895.92
566.228	32039.28
566.427	32213.35
566.625	31805.81
566.824	31394.17
567.023	32194.92
567.222	31281.53
567.42	31443.32
567.619	31594.87
567.818	31062.4
568.016	31371.64
568.215	31523.19
568.414	31308.15
568.612	31615.35
568.811	30613.89
569.01	31250.81
569.208	30742.91
569.407	31029.63
569.605	30673.28
569.804	30656.9
570.002	30337.41
570.201	30400.9
570.4	30505.35
570.598	30488.96
570.797	29950.35
570.995	30181.77
571.193	30024.08
571.392	30343.56
571.59	29624.72
571.789	29659.54
571.987	29809.04
572.186	29897.1
572.384	29452.69
572.582	29667.73
572.781	29813.13
572.979	29559.19
573.177	29329.81
573.376	29598.1
573.574	28934.56
573.772	29333.91
573.971	28803.49
574.169	28916.12
574.367	28826.01
574.565	28764.57
574.763	28545.44
574.962	28912.03
575.16	28066.22
575.358	28328.36
575.556	27785.65
575.754	28809.63
575.952	28137.9
576.151	28291.49
576.349	27736.49
576.547	27711.92
576.745	27886
576.943	27994.54
577.141	28033.45
577.339	27513.27
577.537	27691.44
577.735	27554.22
577.933	27390.39
578.131	27621.81
578.329	27294.13
578.527	27163.06
578.725	27261.37
578.923	27034.04
579.121	27093.43
579.319	26941.88
579.516	27089.34
579.714	27025.85
579.912	26782.14
580.11	26792.38
580.308	26757.57
580.506	26632.64
580.704	26247.62
580.901	26366.4
581.099	26673.6
581.297	26065.35
581.495	26122.69
581.692	26304.96
581.89	26188.23
582.088	26325.44
582.285	25921.99
582.483	25981.38
582.681	25782.73
582.878	25369.04
583.076	25455.06
583.274	25979.34
583.471	25354.71
583.669	25573.84
583.866	25256.4
584.064	25014.74
584.262	25248.21
584.459	25258.45
584.657	25151.96
584.854	25149.91
585.052	24564.19
585.249	24889.82
585.447	24674.78
585.644	24515.04
585.841	24693.21
586.039	24914.39
586.236	24494.56
586.434	24472.03
586.631	24541.66
586.828	24099.3
587.026	24201.7
587.223	24261.09
587.42	24398.31
587.618	23939.56
587.815	23978.47
588.012	23910.89
588.21	24074.73
588.407	24222.18
588.604	23785.96
588.801	23599.6
588.999	23546.35
589.196	23499.25
589.393	23476.72
589.59	23546.35
589.787	23269.87
589.984	23247.35
590.182	23001.59
590.379	23099.89
590.576	23292.4
590.773	23216.63
590.97	22782.46
591.167	22858.23
591.364	22389.25
591.561	22686.2
591.758	22532.61
591.955	22471.17
592.152	22776.31
592.349	22364.67
592.546	22555.13
592.743	22276.61
592.94	22129.16
593.137	22264.32
593.334	22342.14
593.531	21707.27
593.727	22227.46
593.924	22186.5
594.121	21813.77
594.318	22106.63
594.515	21582.35
594.712	21961.22
594.908	21600.78
595.105	21514.77
595.302	21578.25
595.499	21482
595.696	21182.99
595.892	21193.23
596.089	21254.67
596.286	21645.84
596.482	21340.69
596.679	21150.23
596.876	21252.63
597.072	21000.72
597.269	20810.26
597.466	20869.65
597.662	20773.4
597.859	20757.02
598.055	20408.86
598.252	20578.84
598.448	20374.05
598.645	20468.25
598.841	20116
599.038	20333.09
599.234	20425.25
599.431	20083.23
599.627	20050.47
599.824	20218.4
600.02	19999.27
600.217	20056.61
600.413	20023.84
600.609	19751.46
600.806	19917.35
601.002	19876.39
601.198	19718.7
601.395	19616.3
601.591	19374.64
601.787	19534.38
601.984	19474.99
602.18	19477.04
602.376	19153.46
602.572	19257.9
602.769	19198.51
602.965	18819.64
603.161	19092.02
603.357	18930.23
603.553	18901.56
603.75	19030.58
603.946	18737.72
604.142	18889.27
604.338	18704.95
604.534	18725.43
604.73	18375.23
604.926	18586.17
605.122	18516.54
605.318	18383.42
605.514	18350.65
605.71	18115.14
605.906	18362.94
606.102	18117.18
606.298	18448.96
606.494	18162.24
606.69	18072.13
606.886	18070.08
607.082	17939.01
607.278	18260.54
607.474	17982.02
607.67	18113.09
607.866	17433.16
608.062	18213.44
608.257	17826.37
608.453	18053.7
608.649	17605.19
608.845	17734.21
609.041	17642.06
609.236	17609.29
609.432	17363.53
609.628	17498.7
609.824	17541.71
610.019	17490.51
610.215	17312.33
610.411	17254.99
610.606	17287.76
610.802	17400.4
610.998	17490.51
611.193	17181.26
611.389	16890.45
611.584	17060.43
611.78	17029.71
611.976	16861.78
612.171	17089.1
612.367	17330.76
612.562	16826.96
612.758	16597.59
612.953	16575.06
613.149	16837.2
613.344	16681.56
613.539	16886.36
613.735	16736.85
613.93	16681.56
614.126	16573.02
614.321	16736.85
614.517	16747.09
614.712	16511.58
614.907	16362.08
615.103	16611.93
615.298	16597.59
615.493	16472.67
615.688	15938.15
615.884	16654.94
616.079	15993.44
616.274	16372.32
616.47	16233.05
616.665	16507.48
616.86	16169.57
617.055	16026.21
617.25	16181.85
617.445	16353.88
617.641	15753.83
617.836	16110.18
618.031	15782.5
618.226	15870.56
618.421	15725.16
618.616	15995.49
618.811	15581.8
619.006	16052.83
619.201	15540.84
619.396	15503.98
619.591	15651.43
619.786	15483.5
619.981	15272.56
620.176	15305.32
620.371	15153.77
620.566	15151.73
620.761	15211.12
620.956	15299.18
621.151	14914.16
621.346	15045.23
621.541	14938.74
621.735	14729.84
621.93	14504.57
622.125	14783.09
622.32	14357.11
622.515	14475.9
622.709	14619.25
622.904	14387.83
623.099	13998.72
623.294	14439.03
623.488	14389.88
623.683	14105.21
623.878	13976.19
624.072	14058.11
624.267	14154.37
624.462	13951.62
624.656	13886.08
624.851	13701.76
625.046	13308.55
625.24	13425.29
625.435	13478.54
625.629	13466.25
625.824	13208.2
626.018	13003.41
626.213	12974.74
626.407	13157
626.602	13077.13
626.796	12880.53
626.991	12984.98
627.185	12868.24
627.38	12673.68
627.574	12673.68
627.768	12503.7
627.963	12708.5
628.157	12559
628.352	12305.05
628.546	12130.97
628.74	12257.95
628.935	11965.09
629.129	12221.08
629.323	12108.44
629.517	11920.03
629.712	12024.48
629.906	11897.5
630.1	11901.6
630.294	11645.6
630.489	11506.34
630.683	11494.05
630.877	11526.82
631.071	11563.68
631.265	11586.21
631.459	11342.5
631.653	11307.69
631.848	11373.22
632.042	11225.77
632.236	11492.01
632.43	11186.86
632.624	10982.06
632.818	10996.4
633.012	10975.92
633.206	10805.94
633.4	10691.25
633.594	10535.6
633.788	10824.37
633.982	10613.43
634.176	10470.07
634.369	10586.8
634.563	10400.44
634.757	10465.97
634.951	10463.93
635.145	10455.73
635.339	10353.34
635.533	10126.01
635.726	10353.34
635.92	10093.24
636.114	9978.56
636.308	10052.28
636.501	10128.06
636.695	9908.93
636.889	9740.99
637.083	9843.39
637.276	9704.13
637.47	9519.81
637.664	9462.47
637.857	9593.54
638.051	9413.32
638.244	9413.32
638.438	9368.26
638.632	9642.69
638.825	9192.14
639.019	9241.29
639.212	9138.89
639.406	9298.63
639.599	9165.51
639.793	9216.71
639.986	8948.43
640.18	9118.41
640.373	8860.37
640.567	8852.17
640.76	8823.5
640.954	8630.99
641.147	8422.1
641.34	8540.88
641.534	8858.32
641.727	8710.86
641.92	8575.7
642.114	8692.43
642.307	8592.08
642.5	8407.77
642.694	8422.1
642.887	8327.89
643.08	8291.03
643.273	8370.9
643.467	8266.46
643.66	8336.09
643.853	8119
644.046	7996.12
644.239	8157.91
644.432	7699.17
644.626	7877.34
644.819	7920.35
645.012	7983.84
645.205	7899.87
645.398	7645.92
645.591	7912.16
645.784	7719.65
645.977	7719.65
646.17	7770.85
646.363	7643.87
646.556	7420.64
646.749	7459.56
646.942	7547.62
647.135	7322.34
647.328	7473.89
647.521	7330.53
647.714	7434.98
647.907	7308.01
648.099	7232.23
648.292	7318.25
648.485	7154.41
648.678	7011.05
648.871	6963.95
649.064	7043.82
649.256	7043.82
649.449	6988.52
649.642	6974.19
649.835	6736.62
650.027	6970.09
650.22	6902.51
650.413	6816.49
650.605	6740.72
650.798	6767.34
650.991	6509.3
651.183	6617.84
651.376	6759.15
651.568	6636.27
651.761	6507.25
651.954	6292.21
652.146	6640.37
652.339	6472.43
652.531	6482.67
652.724	6533.87
652.916	6220.53
653.109	6251.25
653.301	6247.16
653.494	6241.01
653.686	6361.84
653.879	6439.67
654.071	6255.35
654.263	6386.42
654.456	6036.22
654.648	6032.12
654.84	6062.84
655.033	5886.72
655.225	5985.02
655.417	5960.44
655.61	5946.11
655.802	5925.63
655.994	5954.3
656.186	5796.6
656.379	5718.78
656.571	5790.46
656.763	5753.6
656.955	5769.98
657.148	5753.6
657.34	5794.56
657.532	5655.3
657.724	5548.8
657.916	5718.78
658.108	5647.1
658.3	5370.63
658.492	5604.1
658.684	5507.84
658.876	5430.02
659.068	5272.32
659.26	5522.18
659.452	5352.2
659.644	5380.87
659.836	5339.91
660.028	5376.77
660.22	5272.32
660.412	5427.97
660.604	5038.86
660.796	5200.65
660.988	5176.07
661.18	5239.56
661.372	5233.41
661.563	5153.54
661.755	5018.38
661.947	4918.03
662.139	5065.48
662.331	5081.86
662.522	4930.31
662.714	5028.62
662.906	4924.17
663.097	4989.71
663.289	4985.61
663.481	4895.5
663.673	4844.3
663.864	4852.49
664.056	4854.54
664.247	5012.23
664.439	4584.21
664.631	4844.3
664.822	4887.31
665.014	4963.08
665.205	4809.48
665.397	4639.5
665.588	4692.75
665.78	4610.83
665.971	4692.75
666.163	4537.1
666.354	4743.95
666.546	4514.58
666.737	4580.11
666.929	4678.41
667.12	4500.24
667.311	4651.79
667.503	4477.71
667.694	4535.06
667.885	4475.67
668.077	4446.99
668.268	4434.71
668.459	4451.09
668.651	4500.24
668.842	4510.48
669.033	4430.61
669.224	4477.71
669.416	4506.38
669.607	4293.4
669.798	4240.15
669.989	4565.78
670.18	4244.24
670.371	4248.34
670.563	4225.81
670.754	4295.44
670.945	4358.93
671.136	4322.07
671.327	4264.72
671.518	4383.51
671.709	4432.66
671.9	4254.48
672.091	4324.12
672.282	4272.92
672.473	4387.6
672.664	4328.21
672.855	4172.57
673.046	4379.41
673.237	4156.18
673.428	4211.48
673.619	4191
673.809	4180.76
674	4162.33
674.191	4166.42
674.382	4094.74
674.573	4107.03
674.764	4154.13
674.954	4055.83
675.145	4072.22
675.336	4057.88
675.527	4023.06
675.717	4055.83
675.908	4104.98
676.099	4156.18
676.289	4170.52
676.48	3984.15
676.671	4031.26
676.861	4115.22
677.052	4098.84
677.243	3969.82
677.433	4139.8
677.624	4055.83
677.814	3973.91
678.005	4018.97
678.195	4211.48
678.386	4018.97
678.576	4160.28
678.767	4086.55
678.957	4008.73
679.148	4158.23
679.338	4016.92
679.529	4152.09
679.719	4119.32
679.909	4141.85
680.1	4072.22
680.29	4084.5
680.481	3998.49
680.671	4205.33
680.861	4006.68
681.052	4047.64
681.242	4076.31
681.432	4274.96
681.622	4096.79
681.813	4137.75
682.003	3965.72
682.193	3978.01
682.383	4107.03
682.573	4107.03
682.764	3982.1
682.954	4156.18
683.144	4227.86
683.334	3922.71
683.524	4004.63
683.714	4021.02
683.904	4082.46
684.094	4035.35
684.284	3883.8
684.474	4172.57
684.664	4031.26
684.854	4055.83
685.044	4049.69
685.234	4045.59
685.424	3926.81
685.614	3742.49
685.804	4068.12
685.994	3975.96
686.184	3846.94
686.374	3887.9
686.564	4072.22
686.753	3949.34
686.943	3795.74
687.133	3855.13
687.323	3810.08
687.513	3738.4
687.702	3851.03
687.892	3904.28
688.082	3930.91
688.272	3812.12
688.461	3908.38
688.651	3789.6
688.841	3793.69
689.03	3717.92
689.22	3619.61
689.41	3756.83
689.599	3732.25
689.789	3668.77
689.979	3597.09
690.168	3482.4
690.358	3568.41
690.547	3552.03
690.737	3623.71
690.926	3662.62
691.116	3447.58
691.305	3502.88
691.495	3361.57
691.684	3537.7
691.874	3492.64
692.063	3482.4
692.252	3369.76
692.442	3447.58
692.631	3425.06
692.82	3304.23
693.01	3304.23
693.199	3388.19
693.388	3289.89
693.578	3410.72
693.767	3369.76
693.956	3441.44
694.146	3322.66
694.335	3156.77
694.524	3293.99
694.713	3339.04
694.902	3318.56
695.092	3263.27
695.281	3191.59
695.47	3222.31
695.659	3162.92
695.848	3203.88
696.037	3269.41
696.226	3175.2
696.415	3261.22
696.604	3228.45
696.793	3113.77
696.982	3197.73
697.171	3334.95
697.36	3148.58
697.549	3175.2
697.738	3001.13
697.927	3183.4
698.116	3076.9
698.305	3158.82
698.494	3048.23
698.683	3148.58
698.872	3134.25
699.061	3167.01
699.25	3150.63
699.438	3164.97
699.627	3109.67
699.816	3177.25
700.005	3076.9
700.193	3091.24
700.382	3154.73
700.571	3205.92
700.76	3261.22
700.948	3191.59
701.137	3175.2
701.326	3130.15
701.514	3132.2
701.703	3109.67
701.892	3089.19
702.08	3154.73
702.269	3148.58
702.457	3113.77
702.646	2990.89
702.834	3146.53
703.023	3052.33
703.212	3160.87
703.4	3138.34
703.589	3013.42
703.777	3103.53
703.965	3064.61
704.154	3136.29
704.342	3072.81
704.531	2960.17
704.719	2982.7
704.907	3148.58
705.096	2982.7
705.284	3031.85
705.472	3240.74
705.661	3105.57
705.849	3156.77
706.037	3111.72
706.226	3250.98
706.414	3195.68
706.602	3066.66
706.79	3318.56
706.979	3095.33
707.167	3234.6
707.355	3205.92
707.543	3248.93
707.731	3173.16
707.919	3162.92
708.107	3095.33
708.296	3199.78
708.484	3117.86
708.672	3373.86
708.86	3230.5
709.048	3242.79
709.236	3244.84
709.424	3361.57
709.612	3238.69
709.8	3132.2
709.988	3296.04
710.176	3302.18
710.364	3361.57
710.551	3199.78
710.739	3357.47
710.927	3375.91
711.115	3302.18
711.303	3298.08
711.491	3289.89
711.679	3263.27
711.866	3257.12
712.054	3414.82
712.242	3380
712.43	3316.51
712.617	3296.04
712.805	3406.63
712.993	3189.54
713.181	3291.94
713.368	3310.37
713.556	3441.44
713.744	3281.7
713.931	3492.64
714.119	3326.75
714.306	3517.22
714.494	3398.43
714.682	3431.2
714.869	3343.14
715.057	3468.06
715.244	3343.14
715.432	3459.87
715.619	3418.91
715.807	3572.51
715.994	3470.11
716.182	3484.45
716.369	3580.7
716.556	3506.98
716.744	3486.5
716.931	3437.34
717.119	3582.75
717.306	3474.21
717.493	3554.08
717.681	3533.6
717.868	3490.59
718.055	3537.7
718.242	3623.71
718.43	3654.43
718.617	3646.24
718.804	3640.09
718.991	3453.73
719.179	3521.31
719.366	3621.66
719.553	3566.37
719.74	3601.18
719.927	3556.13
720.114	3552.03
720.301	3658.53
720.488	3552.03
720.676	3455.78
720.863	3744.54
721.05	3717.92
721.237	3703.58
721.424	3629.85
721.611	3588.89
721.798	3631.9
721.985	3685.15
722.172	3633.95
722.358	3703.58
722.545	3750.68
722.732	3656.48
722.919	3597.09
723.106	3687.2
723.293	3732.25
723.48	3744.54
723.667	3826.46
723.853	3728.16
724.04	3842.84
724.227	3691.29
724.414	3697.44
724.6	3828.51
724.787	3683.1
724.974	3736.35
725.161	3863.32
725.347	3760.92
725.534	3701.53
725.72	3828.51
725.907	3859.23
726.094	3883.8
726.28	3734.3
726.467	3724.06
726.653	3732.25
726.84	3883.8
727.027	3765.02
727.213	3715.87
727.4	3736.35
727.586	3740.44
727.773	3793.69
727.959	3879.71
728.145	3812.12
728.332	3824.41
728.518	3740.44
728.705	3982.1
728.891	3765.02
729.077	3779.36
729.264	3955.48
729.45	3926.81
729.636	4096.79
729.823	3973.91
730.009	3910.43
730.195	3814.17
730.382	4047.64
730.568	3805.98
730.754	3879.71
730.94	3891.99
731.126	4104.98
731.313	3889.95
731.499	3787.55
731.685	3937.05
731.871	3877.66
732.057	3820.32
732.243	4068.12
732.429	3906.33
732.615	3959.58
732.801	3982.1
732.987	3906.33
733.173	3926.81
733.359	3982.1
733.545	3920.67
733.731	3971.86
733.917	3957.53
734.103	3889.95
734.289	3932.95
734.475	3955.48
734.661	4049.69
734.847	4139.8
735.033	3908.38
735.219	3924.76
735.404	3863.32
735.59	3779.36
735.776	3867.42
735.962	3971.86
736.148	3969.82
736.333	3990.3
736.519	3949.34
736.705	4064.02
736.89	3898.14
737.076	3867.42
737.262	3719.96
737.447	4068.12
737.633	3805.98
737.819	3949.34
738.004	3894.04
738.19	3861.27
738.375	3797.79
738.561	3822.36
738.747	3787.55
738.932	3861.27
739.118	3742.49
739.303	3928.86
739.489	3773.21
739.674	3943.19
739.859	3867.42
740.045	3799.84
740.23	3826.46
740.416	3672.86
740.601	3812.12
740.786	3701.53
740.972	3808.03
741.157	3654.43
741.342	3533.6
741.528	3701.53
741.713	3650.33
741.898	3627.81
742.084	3670.81
742.269	3799.84
742.454	3695.39
742.639	3801.88
742.824	3672.86
743.01	3719.96
743.195	3805.98
743.38	3640.09
743.565	3619.61
743.75	3586.85
743.935	3453.73
744.12	3570.46
744.305	3384.1
744.49	3549.98
744.675	3556.13
744.86	3588.89
745.045	3433.25
745.23	3574.56
745.415	3449.63
745.6	3529.5
745.785	3408.67
745.97	3543.84
746.155	3361.57
746.34	3470.11
746.525	3355.43
746.71	3392.29
746.895	3183.4
747.079	3263.27
747.264	3277.6
747.449	3310.37
747.634	3191.59
747.819	3126.05
748.003	3220.26
748.188	3140.39
748.373	3179.3
748.557	3187.49
748.742	3142.44
748.927	3175.2
749.111	3031.85
749.296	2966.31
749.481	2982.7
749.665	3001.13
749.85	3029.8
750.034	3142.44
750.219	3085.09
750.404	3007.27
750.588	2933.54
750.773	2886.44
750.957	2964.26
751.141	2919.21
751.326	2898.73
751.51	2779.95
751.695	2763.56
751.879	2880.3
752.064	2859.82
752.248	2886.44
752.432	2825
752.617	2747.18
752.801	2646.83
752.985	2630.45
753.17	2689.84
753.354	2616.11
753.538	2671.4
753.722	2415.41
753.907	2569.01
754.091	2614.06
754.275	2433.84
754.459	2511.66
754.643	2513.71
754.828	2487.09
755.012	2378.55
755.196	2417.46
755.38	2550.57
755.564	2425.65
755.748	2356.02
755.932	2437.94
756.116	2390.83
756.3	2331.44
756.484	2329.39
756.668	2372.4
756.852	2198.32
757.036	2208.56
757.22	2151.22
757.404	2208.56
757.588	2208.56
757.772	2251.57
757.956	2171.7
758.14	2175.8
758.323	2163.51
758.507	2233.14
758.691	2200.37
758.875	2100.02
759.059	2222.9
759.242	2075.45
759.426	2093.88
759.61	2143.03
759.794	1995.57
759.977	2091.83
760.161	2163.51
760.345	2161.46
760.528	2001.72
760.712	1997.62
760.895	1925.94
761.079	2059.06
761.263	1868.6
761.446	1848.12
761.63	1923.9
761.813	1946.42
761.997	1884.98
762.18	2011.96
762.364	1854.27
762.547	1811.26
762.731	1846.07
762.914	1921.85
763.098	1788.73
763.281	1919.8
763.464	1805.11
763.648	1749.82
763.831	1821.5
764.015	1827.64
764.198	1827.64
764.381	1866.55
764.564	1796.92
764.748	1833.79
764.931	1786.68
765.114	1817.4
765.297	1696.57
765.481	1622.84
765.664	1753.91
765.847	1667.9
766.03	1731.39
766.213	1641.28
766.397	1616.7
766.58	1715
766.763	1698.62
766.946	1563.45
767.129	1610.56
767.312	1600.32
767.495	1637.18
767.678	1620.8
767.861	1606.46
768.044	1614.65
768.227	1577.79
768.41	1604.41
768.593	1604.41
768.776	1549.12
768.959	1624.89
769.142	1571.65
769.324	1588.03
769.507	1573.69
769.69	1645.37
769.873	1420.1
770.056	1631.04
770.239	1461.06
770.421	1581.89
770.604	1434.43
770.787	1379.14
770.97	1405.76
771.152	1553.21
771.335	1467.2
771.518	1459.01
771.7	1520.45
771.883	1459.01
772.066	1391.42
772.248	1491.77
772.431	1477.44
772.613	1483.58
772.796	1405.76
772.978	1416
773.161	1342.27
773.343	1372.99
773.526	1327.94
773.708	1315.65
773.891	1327.94
774.073	1381.18
774.256	1272.64
774.438	1430.34
774.621	1266.5
774.803	1170.24
774.985	1248.07
775.168	1243.97
775.35	1162.05
775.532	1231.68
775.715	1243.97
775.897	1213.25
776.079	1203.01
776.261	1182.53
776.444	1155.91
776.626	1215.3
776.808	1266.5
776.99	1125.19
777.173	1170.24
777.355	1127.24
777.537	1067.85
777.719	1084.23
777.901	1100.61
778.083	1088.32
778.265	1133.38
778.447	1121.09
778.629	1047.37
778.811	1106.76
778.993	1073.99
779.175	1063.75
779.357	1082.18
779.539	957.25
779.721	1035.08
779.903	1117
780.085	981.83
780.267	1037.13
780.449	1018.69
780.631	955.21
780.812	1035.08
780.994	981.83
781.176	990.02
781.358	1012.55
781.54	914.25
781.721	932.68
781.903	926.54
782.085	971.59
782.267	987.97
782.448	885.58
782.63	854.86
782.812	942.92
782.993	895.82
783.175	940.87
783.357	893.77
783.538	848.71
783.72	760.65
783.901	846.66
784.083	779.08
784.264	770.89
784.446	746.31
784.627	807.75
784.809	899.91
784.99	899.91
785.172	881.48
785.353	734.03
785.535	758.6
785.716	762.7
785.897	779.08
786.079	729.93
786.26	789.32
786.441	725.83
786.623	764.75
786.804	674.64
786.985	691.02
787.167	709.45
787.348	834.38
787.529	680.78
787.71	869.19
787.891	682.83
788.073	766.79
788.254	506.7
788.435	693.07
788.616	752.46
788.797	686.92
788.978	645.96
789.159	701.26
789.34	590.67
789.522	633.68
789.703	656.2
789.884	615.24
790.065	650.06
790.246	633.68
790.427	705.35
790.607	643.92
790.788	656.2
790.969	596.81
791.15	631.63
791.331	590.67
791.512	551.76
791.693	562
791.874	617.29
792.054	631.63
792.235	623.44
792.416	516.94
792.597	527.18
792.778	553.8
792.958	609.1
793.139	684.87
793.32	559.95
793.5	545.61
793.681	568.14
793.862	484.17
794.042	482.13
794.223	529.23
794.404	486.22
794.584	455.5
794.765	537.42
794.945	461.65
795.126	510.8
795.306	512.85
795.487	557.9
795.667	510.8
795.848	535.37
796.028	478.03
796.209	543.57
796.389	539.47
796.57	459.6
796.75	494.41
796.93	478.03
797.111	471.89
797.291	541.52
797.471	482.13
797.652	410.45
797.832	480.08
798.012	418.64
798.192	392.02
798.373	453.45
798.553	475.98
798.733	453.45
798.913	437.07
799.093	412.5
799.274	428.88
799.454	447.31
799.634	422.73
799.814	406.35
799.994	367.44
800.174	443.21
800.354	428.88
800.534	310.1
800.714	439.12
800.894	346.96
801.074	430.93
801.254	375.63
801.434	408.4
801.614	398.16
801.794	303.95
801.974	1248.07
802.154	371.54
802.334	394.06
802.514	426.83
802.693	293.71
802.873	398.16
803.053	453.45
803.233	387.92
803.413	387.92
803.592	267.09
803.772	375.63
803.952	361.3
804.131	363.34
804.311	349.01
804.491	357.2
804.67	217.94
804.85	246.61
805.03	369.49
805.209	451.41
805.389	330.58
805.568	312.14
805.748	281.43
805.928	328.53
806.107	349.01
806.287	377.68
806.466	344.91
806.646	351.06
806.825	328.53
807.004	353.1
807.184	394.06
807.363	303.95
807.543	303.95
807.722	271.19
807.901	398.16
808.081	318.29
808.26	256.85
808.439	285.52
808.619	275.28
808.798	320.34
808.977	279.38
809.156	297.81
809.336	252.75
809.515	435.02
809.694	238.42
809.873	361.3
810.052	260.95
810.231	320.34
810.411	248.66
810.59	371.54
810.769	256.85
810.948	334.67
811.127	222.03
811.306	297.81
811.485	242.51
811.664	301.9
811.843	306
812.022	193.36
812.201	228.18
812.38	303.95
812.559	265.04
812.737	258.9
812.916	250.71
813.095	213.84
813.274	238.42
813.453	213.84
813.632	324.43
813.811	299.86
813.989	158.55
814.168	312.14
814.347	256.85
814.526	209.75
814.704	303.95
814.883	279.38
815.062	238.42
815.24	303.95
815.419	228.18
815.598	191.31
815.776	213.84
815.955	217.94
816.133	129.88
816.312	256.85
816.49	226.13
816.669	224.08
816.847	164.69
817.026	189.27
817.204	156.5
817.383	172.88
817.561	181.07
817.74	205.65
817.918	146.26
818.097	187.22
818.275	176.98
818.453	254.8
818.632	246.61
818.81	234.32
818.988	164.69
819.167	232.27
819.345	242.51
819.523	185.17
819.701	226.13
819.879	148.31
820.058	207.7
820.236	226.13
820.414	125.78
820.592	248.66
820.77	226.13
820.948	191.31
821.127	162.64
821.305	174.93
821.483	197.46
821.661	224.08
821.839	160.59
822.017	131.92
822.195	207.7
822.373	179.03
822.551	189.27
822.729	183.12
822.907	125.78
823.085	222.03
823.262	217.94
823.44	152.4
823.618	197.46
823.796	230.23
823.974	99.16
824.152	86.87
824.329	273.23
824.507	181.07
824.685	238.42
824.863	201.55
825.04	181.07
825.218	154.45
825.396	179.03
825.574	131.92
825.751	168.79
825.929	267.09
826.107	95.06
826.284	93.01
826.462	211.79
826.639	103.25
826.817	131.92
826.994	138.07
827.172	168.79
827.349	181.07
827.527	160.59
827.704	222.03
827.882	179.03
828.059	56.15
828.237	111.44
828.414	254.8
828.591	74.58
828.769	121.68
828.946	68.44
829.124	101.2
829.301	119.64
829.478	84.82
829.655	176.98
829.833	150.36
830.01	64.34
830.187	166.74
830.364	123.73
830.542	181.07
830.719	158.55
830.896	250.71
831.073	131.92
831.25	211.79
831.427	133.97
831.604	154.45
831.782	164.69
831.959	183.12
832.136	164.69
832.313	78.68
832.49	138.07
832.667	33.62
832.844	41.81
833.021	203.6
833.198	70.48
833.374	140.12
833.551	82.77
833.728	93.01
833.905	146.26
834.082	60.24
834.259	197.46
834.436	158.55
834.612	95.06
834.789	170.83
834.966	123.73
835.143	148.31
835.319	93.01
835.496	93.01
835.673	121.68
835.85	191.31
836.026	138.07
836.203	111.44
836.38	140.12
836.556	160.59
836.733	76.63
836.909	129.88
837.086	95.06
837.262	17.24
837.439	50
837.616	41.81
837.792	80.72
837.968	119.64
838.145	58.2
838.321	99.16
838.498	50
838.674	95.06
838.851	117.59
839.027	93.01
839.203	103.25
839.38	47.96
839.556	78.68
839.732	99.16
839.909	148.31
840.085	125.78
840.261	2.9
840.437	140.12
840.614	119.64
840.79	117.59
840.966	113.49
841.142	111.44
841.318	95.06
841.494	123.73
841.671	70.48
841.847	56.15
842.023	11.09
842.199	60.24
842.375	95.06
842.551	0.85
842.727	56.15
842.903	168.79
843.079	27.48
843.255	74.58
843.431	127.83
843.607	142.16
843.783	11.09
843.959	54.1
844.134	33.62
844.31	107.35
844.486	37.72
844.662	76.63
844.838	95.06
845.013	74.58
845.189	117.59
845.365	101.2
845.541	84.82
845.716	97.11
845.892	121.68
846.068	95.06
846.244	21.33
846.419	47.96
846.595	7
846.77	123.73
846.946	103.25
847.122	58.2
847.297	62.29
847.473	74.58
847.648	-21.67
847.824	129.88
847.999	7
848.175	78.68
848.35	72.53
848.526	174.93
848.701	95.06
848.876	66.39
849.052	107.35
849.227	-19.63
849.403	70.48
849.578	74.58
849.753	115.54
849.929	58.2
850.104	-1.19
850.279	90.96
850.454	127.83
850.63	-5.29
850.805	64.34
850.98	115.54
851.155	117.59
851.33	35.67
851.505	39.76
851.681	193.36
851.856	4.95
852.031	131.92
852.206	41.81
852.381	47.96
852.556	19.29
852.731	95.06
852.906	60.24
853.081	23.38
853.256	4.95
853.431	35.67
853.606	2.9
853.781	66.39
853.956	58.2
854.131	93.01
854.305	31.57
854.48	82.77
854.655	2.9
854.83	31.57
855.005	-5.29
855.18	39.76
855.354	84.82
855.529	-38.06
855.704	29.52
855.879	76.63
856.053	29.52
856.228	-87.21
856.403	52.05
856.577	54.1
856.752	-72.87
856.926	21.33
857.101	21.33
857.276	11.09
857.45	76.63
857.625	47.96
857.799	-36.01
857.974	60.24
858.148	-119.98
858.323	70.48
858.497	41.81
858.672	35.67
858.846	-48.3
859.02	72.53
859.195	4.95
859.369	15.19
859.543	68.44
859.718	50
859.892	138.07
860.066	19.29
860.241	-15.53
860.415	35.67
860.589	23.38
860.763	13.14
860.938	41.81
861.112	35.67
861.286	-62.63
861.46	39.76
861.634	43.86
861.808	119.64
861.982	-19.63
862.157	-31.91
862.331	74.58
862.505	17.24
862.679	-83.11
862.853	-3.24
863.027	54.1
863.201	131.92
863.375	2.9
863.549	-31.91
863.722	64.34
863.896	101.2
864.07	-19.63
864.244	11.09
864.418	13.14
864.592	-19.63
864.766	19.29
864.939	54.1
865.113	19.29
865.287	88.92
865.461	-7.34
865.634	70.48
865.808	9.05
865.982	19.29
866.156	21.33
866.329	0.85
866.503	-9.39
866.676	15.19
866.85	13.14
867.024	4.95
867.197	82.77
867.371	140.12
867.544	41.81
867.718	-72.87
867.891	25.43
868.065	19.29
868.238	4.95
868.412	21.33
868.585	78.68
868.759	9.05
868.932	45.91
869.105	-31.91
869.279	2.9
869.452	-48.3
869.625	4.95
869.799	4.95
869.972	-21.67
870.145	-17.58
870.319	0.85
870.492	7
870.665	-40.11
870.838	-72.87
871.011	-31.91
871.185	60.24
871.358	-31.91
871.531	82.77
871.704	17.24
871.877	45.91
872.05	76.63
872.223	-70.83
872.396	64.34
872.569	54.1
872.742	-58.54
872.915	74.58
873.088	54.1
873.261	-48.3
873.434	29.52
873.607	99.16
873.78	-36.01
873.953	-5.29
874.126	54.1
874.299	0.85
874.471	-42.15
874.644	21.33
874.817	66.39
874.99	43.86
875.163	-64.68
875.335	-13.48
875.508	21.33
875.681	103.25
875.853	13.14
876.026	56.15
876.199	50
876.371	31.57
876.544	11.09
876.717	29.52
876.889	35.67
877.062	-33.96
877.234	-27.82
877.407	-52.39
877.579	0.85
877.752	56.15
877.924	97.11
878.097	90.96
878.269	64.34
878.442	13.14
878.614	60.24
878.786	0.85
878.959	31.57
879.131	17.24
879.303	-117.93
879.476	-46.25
879.648	117.59
879.82	31.57
879.993	-7.34
880.165	-9.39
880.337	-48.3
880.509	88.92
880.681	-50.35
880.854	19.29
881.026	72.53
881.198	78.68
881.37	-15.53
881.542	33.62
881.714	-36.01
881.886	-42.15
882.058	33.62
882.23	2.9
882.402	-40.11
882.574	68.44
882.746	107.35
882.918	-3.24
883.09	76.63
883.262	17.24
883.434	-15.53
883.606	-36.01
883.778	-7.34
883.95	84.82
884.122	11.09
884.293	50
884.465	-27.82
884.637	95.06
884.809	-21.67
884.98	52.05
885.152	31.57
885.324	35.67
885.496	64.34
885.667	-52.39
885.839	-13.48
886.011	74.58
886.182	11.09
886.354	76.63
886.525	27.48
886.697	54.1
886.869	25.43
887.04	-38.06
887.212	4.95
887.383	82.77
887.555	-15.53
887.726	-11.43
887.897	-13.48
888.069	11.09
888.24	54.1
888.412	13.14
888.583	-15.53
888.754	23.38
888.926	-62.63
889.097	84.82
889.268	-13.48
889.44	27.48
889.611	-46.25
889.782	-97.45
889.953	-21.67
890.125	-15.53
890.296	-15.53
890.467	-25.77
890.638	9.05
890.809	17.24
890.98	-62.63
891.151	7
891.323	95.06
891.494	-5.29
891.665	-64.68
891.836	-7.34
892.007	0.85
892.178	52.05
892.349	25.43
892.52	-19.63
892.691	31.57
892.862	-50.35
893.032	11.09
893.203	-1.19
893.374	50
893.545	-17.58
893.716	-13.48
893.887	35.67
894.057	-87.21
894.228	4.95
894.399	-19.63
894.57	41.81
894.74	9.05
894.911	4.95
895.082	25.43
895.253	-52.39
895.423	35.67
895.594	19.29
895.764	-7.34
895.935	-54.44
896.106	82.77
896.276	-27.82
896.447	11.09
896.617	-40.11
896.788	-101.55
896.958	29.52
897.129	-72.87
897.299	31.57
897.47	86.87
897.64	54.1
897.81	-31.91
897.981	19.29
898.151	19.29
898.322	-5.29
898.492	-11.43
898.662	-9.39
898.832	-60.59
899.003	-13.48
899.173	29.52
899.343	2.9
899.513	35.67
