Data from USB4F104151__55__13-05-38-523.txt Node

Date: Fri Mar 14 13:05:38 EDT 2025
User: louis
Spectrometer: USB4F10415
Trigger mode: 4
Integration Time (sec): 4.000000E-2
Scans to average: 1
Electric dark correction enabled: true
Nonlinearity correction enabled: false
Boxcar width: 0
XAxis mode: Wavelengths
Number of Pixels in Spectrum: 3648
>>>>>Begin Spectral Data<<<<<
178.204	-117.42
178.424	-117.42
178.644	-117.42
178.864	-189.1
179.084	-225.96
179.304	-6.83
179.524	7.51
179.744	-12.97
179.964	3.41
180.184	32.08
180.404	-8.87
180.624	27.99
180.844	23.89
181.064	-8.87
181.283	27.99
181.503	-90.79
181.723	5.46
181.943	-72.36
182.163	71
182.383	-2.73
182.602	40.28
182.822	40.28
183.042	120.15
183.262	-2.73
183.482	-51.88
183.701	40.28
183.921	23.89
184.141	15.7
184.361	34.13
184.58	52.56
184.8	13.65
185.02	5.46
185.239	62.8
185.459	7.51
185.679	25.94
185.898	-41.64
186.118	-31.4
186.338	-39.59
186.557	101.72
186.777	-23.21
186.997	-8.87
187.216	11.61
187.436	46.42
187.655	116.05
187.875	42.32
188.095	-23.21
188.314	79.19
188.534	134.48
188.753	38.23
188.973	109.91
189.192	68.95
189.412	99.67
189.631	62.8
189.851	48.47
190.07	42.32
190.29	-23.21
190.509	-49.83
190.729	-23.21
190.948	36.18
191.168	154.96
191.387	126.29
191.607	73.04
191.826	-4.78
192.045	-37.55
192.265	-105.13
192.484	36.18
192.704	97.62
192.923	30.04
193.142	128.34
193.362	42.32
193.581	60.76
193.8	44.37
194.02	40.28
194.239	81.24
194.458	-27.31
194.678	-21.16
194.897	46.42
195.116	-0.68
195.335	46.42
195.555	71
195.774	-21.16
195.993	60.76
196.212	-49.83
196.432	13.65
196.651	-4.78
196.87	-70.31
197.089	111.96
197.308	58.71
197.528	1.37
197.747	95.57
197.966	-4.78
198.185	-2.73
198.404	-4.78
198.623	124.24
198.842	114
199.062	9.56
199.281	-15.02
199.5	11.61
199.719	68.95
199.938	27.99
200.157	114
200.376	27.99
200.595	40.28
200.814	-4.78
201.033	5.46
201.252	68.95
201.471	9.56
201.69	73.04
201.909	68.95
202.128	101.72
202.347	32.08
202.566	-21.16
202.785	5.46
203.004	-8.87
203.223	68.95
203.442	85.33
203.661	-27.31
203.879	40.28
204.098	58.71
204.317	32.08
204.536	93.52
204.755	-21.16
204.974	54.61
205.193	25.94
205.411	134.48
205.63	42.32
205.849	36.18
206.068	-58.03
206.287	-19.11
206.505	85.33
206.724	-6.83
206.943	-64.17
207.162	-60.07
207.381	-27.31
207.599	52.56
207.818	38.23
208.037	46.42
208.255	17.75
208.474	36.18
208.693	87.38
208.911	62.8
209.13	48.47
209.349	128.34
209.567	79.19
209.786	91.48
210.005	40.28
210.223	64.85
210.442	-21.16
210.661	48.47
210.879	56.66
211.098	27.99
211.316	62.8
211.535	109.91
211.753	81.24
211.972	27.99
212.191	42.32
212.409	116.05
212.628	56.66
212.846	30.04
213.065	50.52
213.283	48.47
213.502	3.41
213.72	21.84
213.938	91.48
214.157	-66.22
214.375	11.61
214.594	114
214.812	81.24
215.031	32.08
215.249	1.37
215.467	-6.83
215.686	23.89
215.904	105.81
216.122	-29.35
216.341	48.47
216.559	15.7
216.778	89.43
216.996	27.99
217.214	9.56
217.432	34.13
217.651	3.41
217.869	3.41
218.087	-29.35
218.306	25.94
218.524	19.8
218.742	23.89
218.96	83.28
219.179	60.76
219.397	34.13
219.615	122.2
219.833	46.42
220.051	40.28
220.27	48.47
220.488	157.01
220.706	19.8
220.924	-25.26
221.142	-2.73
221.36	7.51
221.578	118.1
221.796	73.04
222.015	48.47
222.233	-49.83
222.451	103.76
222.669	-35.5
222.887	68.95
223.105	32.08
223.323	30.04
223.541	13.65
223.759	13.65
223.977	17.75
224.195	79.19
224.413	44.37
224.631	-86.7
224.849	48.47
225.067	138.58
225.285	25.94
225.503	5.46
225.721	-43.69
225.939	105.81
226.157	68.95
226.375	187.73
226.592	-12.97
226.81	7.51
227.028	34.13
227.246	97.62
227.464	42.32
227.682	40.28
227.9	13.65
228.117	34.13
228.335	-15.02
228.553	9.56
228.771	60.76
228.989	71
229.206	27.99
229.424	13.65
229.642	-8.87
229.86	52.56
230.077	95.57
230.295	48.47
230.513	83.28
230.731	9.56
230.948	68.95
231.166	97.62
231.384	9.56
231.601	32.08
231.819	91.48
232.037	23.89
232.254	-35.5
232.472	56.66
232.689	-31.4
232.907	95.57
233.125	52.56
233.342	-4.78
233.56	-0.68
233.777	-33.45
233.995	9.56
234.213	27.99
234.43	66.9
234.648	-10.92
234.865	-51.88
235.083	62.8
235.3	66.9
235.518	30.04
235.735	95.57
235.953	101.72
236.17	34.13
236.388	44.37
236.605	5.46
236.822	75.09
237.04	81.24
237.257	87.38
237.475	-35.5
237.692	-0.68
237.909	95.57
238.127	1.37
238.344	27.99
238.562	89.43
238.779	-90.79
238.996	89.43
239.214	-21.16
239.431	99.67
239.648	114
239.865	-4.78
240.083	54.61
240.3	34.13
240.517	-12.97
240.735	85.33
240.952	62.8
241.169	75.09
241.386	64.85
241.603	23.89
241.821	-4.78
242.038	44.37
242.255	-4.78
242.472	-105.13
242.689	-19.11
242.907	9.56
243.124	32.08
243.341	-25.26
243.558	-4.78
243.775	-25.26
243.992	-8.87
244.209	19.8
244.426	140.63
244.643	27.99
244.86	-6.83
245.078	13.65
245.295	36.18
245.512	30.04
245.729	38.23
245.946	-0.68
246.163	-43.69
246.38	116.05
246.597	-2.73
246.814	-19.11
247.031	38.23
247.248	52.56
247.464	27.99
247.681	19.8
247.898	13.65
248.115	38.23
248.332	93.52
248.549	50.52
248.766	107.86
248.983	7.51
249.2	38.23
249.417	77.14
249.633	60.76
249.85	62.8
250.067	-27.31
250.284	56.66
250.501	15.7
250.717	85.33
250.934	-37.55
251.151	11.61
251.368	44.37
251.585	107.86
251.801	54.61
252.018	81.24
252.235	46.42
252.451	11.61
252.668	-0.68
252.885	99.67
253.102	77.14
253.318	-8.87
253.535	-45.74
253.752	21.84
253.968	21.84
254.185	-4.78
254.401	58.71
254.618	36.18
254.835	-27.31
255.051	89.43
255.268	54.61
255.484	1.37
255.701	-0.68
255.917	83.28
256.134	25.94
256.351	-4.78
256.567	17.75
256.784	30.04
257	13.65
257.217	64.85
257.433	81.24
257.65	3.41
257.866	56.66
258.082	19.8
258.299	13.65
258.515	-35.5
258.732	40.28
258.948	-43.69
259.165	17.75
259.381	-8.87
259.597	105.81
259.814	30.04
260.03	73.04
260.246	19.8
260.463	81.24
260.679	95.57
260.895	11.61
261.112	68.95
261.328	34.13
261.544	62.8
261.761	124.24
261.977	13.65
262.193	46.42
262.409	19.8
262.626	40.28
262.842	25.94
263.058	40.28
263.274	56.66
263.49	52.56
263.707	62.8
263.923	83.28
264.139	-49.83
264.355	79.19
264.571	93.52
264.787	34.13
265.004	89.43
265.22	-4.78
265.436	-21.16
265.652	60.76
265.868	25.94
266.084	-12.97
266.3	25.94
266.516	9.56
266.732	21.84
266.948	85.33
267.164	44.37
267.38	7.51
267.596	44.37
267.812	54.61
268.028	60.76
268.244	-35.5
268.46	71
268.676	36.18
268.892	44.37
269.108	73.04
269.324	13.65
269.54	-17.07
269.756	68.95
269.972	54.61
270.188	40.28
270.403	-53.93
270.619	-15.02
270.835	23.89
271.051	52.56
271.267	36.18
271.483	17.75
271.698	60.76
271.914	71
272.13	40.28
272.346	5.46
272.562	23.89
272.777	48.47
272.993	85.33
273.209	11.61
273.425	64.85
273.64	-43.69
273.856	50.52
274.072	5.46
274.287	54.61
274.503	48.47
274.719	93.52
274.934	21.84
275.15	-37.55
275.366	-6.83
275.581	-45.74
275.797	7.51
276.012	9.56
276.228	-2.73
276.444	5.46
276.659	173.39
276.875	-23.21
277.09	44.37
277.306	-31.4
277.521	5.46
277.737	48.47
277.952	-10.92
278.168	13.65
278.383	42.32
278.599	30.04
278.814	62.8
279.03	79.19
279.245	71
279.461	109.91
279.676	42.32
279.892	-51.88
280.107	17.75
280.322	38.23
280.538	23.89
280.753	-12.97
280.969	60.76
281.184	77.14
281.399	54.61
281.615	62.8
281.83	-0.68
282.045	-43.69
282.26	32.08
282.476	-21.16
282.691	138.58
282.906	17.75
283.122	62.8
283.337	-62.12
283.552	56.66
283.767	23.89
283.983	36.18
284.198	34.13
284.413	122.2
284.628	-84.65
284.843	87.38
285.058	111.96
285.274	48.47
285.489	3.41
285.704	40.28
285.919	5.46
286.134	17.75
286.349	30.04
286.564	62.8
286.779	68.95
286.995	66.9
287.21	62.8
287.425	58.71
287.64	93.52
287.855	1.37
288.07	19.8
288.285	52.56
288.5	83.28
288.715	89.43
288.93	-0.68
289.145	11.61
289.36	-21.16
289.575	79.19
289.79	21.84
290.004	66.9
290.219	85.33
290.434	-8.87
290.649	-62.12
290.864	-17.07
291.079	71
291.294	-12.97
291.509	54.61
291.724	44.37
291.938	30.04
292.153	36.18
292.368	34.13
292.583	62.8
292.798	58.71
293.012	109.91
293.227	23.89
293.442	23.89
293.657	66.9
293.871	79.19
294.086	58.71
294.301	48.47
294.516	60.76
294.73	44.37
294.945	-33.45
295.16	44.37
295.374	-12.97
295.589	101.72
295.804	17.75
296.018	3.41
296.233	122.2
296.447	3.41
296.662	62.8
296.877	116.05
297.091	97.62
297.306	17.75
297.52	52.56
297.735	77.14
297.949	32.08
298.164	15.7
298.378	-2.73
298.593	-12.97
298.807	36.18
299.022	-8.87
299.236	122.2
299.451	56.66
299.665	-12.97
299.88	34.13
300.094	114
300.309	-8.87
300.523	11.61
300.737	79.19
300.952	71
301.166	101.72
301.381	-53.93
301.595	34.13
301.809	25.94
302.024	48.47
302.238	-19.11
302.452	46.42
302.667	32.08
302.881	54.61
303.095	148.82
303.309	-4.78
303.524	-10.92
303.738	3.41
303.952	23.89
304.166	68.95
304.381	-53.93
304.595	54.61
304.809	-27.31
305.023	44.37
305.237	118.1
305.452	13.65
305.666	42.32
305.88	103.76
306.094	11.61
306.308	52.56
306.522	19.8
306.736	105.81
306.95	30.04
307.164	85.33
307.379	1.37
307.593	85.33
307.807	95.57
308.021	44.37
308.235	-15.02
308.449	-58.03
308.663	58.71
308.877	105.81
309.091	-17.07
309.305	85.33
309.519	27.99
309.733	62.8
309.947	-33.45
310.161	95.57
310.374	11.61
310.588	38.23
310.802	5.46
311.016	-53.93
311.23	95.57
311.444	5.46
311.658	77.14
311.872	122.2
312.085	71
312.299	138.58
312.513	79.19
312.727	9.56
312.941	64.85
313.154	75.09
313.368	19.8
313.582	-8.87
313.796	62.8
314.009	-29.35
314.223	79.19
314.437	-33.45
314.651	109.91
314.864	25.94
315.078	44.37
315.292	13.65
315.505	-25.26
315.719	21.84
315.933	81.24
316.146	60.76
316.36	46.42
316.573	93.52
316.787	62.8
317.001	44.37
317.214	13.65
317.428	64.85
317.641	-2.73
317.855	73.04
318.068	56.66
318.282	71
318.495	40.28
318.709	17.75
318.922	15.7
319.136	118.1
319.349	-17.07
319.563	-10.92
319.776	32.08
319.99	-60.07
320.203	79.19
320.417	36.18
320.63	50.52
320.843	58.71
321.057	42.32
321.27	5.46
321.483	-27.31
321.697	134.48
321.91	42.32
322.124	101.72
322.337	40.28
322.55	5.46
322.763	56.66
322.977	15.7
323.19	-25.26
323.403	-19.11
323.617	-2.73
323.83	44.37
324.043	30.04
324.256	3.41
324.469	21.84
324.683	52.56
324.896	19.8
325.109	79.19
325.322	48.47
325.535	44.37
325.748	-12.97
325.962	-29.35
326.175	-27.31
326.388	19.8
326.601	126.29
326.814	5.46
327.027	58.71
327.24	97.62
327.453	-53.93
327.666	83.28
327.879	62.8
328.092	79.19
328.305	17.75
328.518	-27.31
328.731	9.56
328.944	-2.73
329.157	34.13
329.37	-12.97
329.583	95.57
329.796	107.86
330.009	-51.88
330.222	111.96
330.435	66.9
330.648	19.8
330.861	-10.92
331.073	23.89
331.286	99.67
331.499	103.76
331.712	15.7
331.925	-0.68
332.138	142.68
332.35	23.89
332.563	38.23
332.776	116.05
332.989	25.94
333.202	73.04
333.414	81.24
333.627	13.65
333.84	32.08
334.053	7.51
334.265	-25.26
334.478	60.76
334.691	19.8
334.903	93.52
335.116	15.7
335.329	38.23
335.541	89.43
335.754	118.1
335.966	-31.4
336.179	93.52
336.392	5.46
336.604	36.18
336.817	56.66
337.029	52.56
337.242	52.56
337.454	48.47
337.667	19.8
337.88	68.95
338.092	48.47
338.305	81.24
338.517	38.23
338.729	27.99
338.942	-12.97
339.154	-4.78
339.367	9.56
339.579	52.56
339.792	40.28
340.004	71
340.217	3.41
340.429	34.13
340.641	-15.02
340.854	-31.4
341.066	11.61
341.278	79.19
341.491	81.24
341.703	89.43
341.915	-35.5
342.128	64.85
342.34	-21.16
342.552	68.95
342.764	7.51
342.977	3.41
343.189	42.32
343.401	44.37
343.613	-45.74
343.826	-43.69
344.038	21.84
344.25	11.61
344.462	3.41
344.674	7.51
344.886	-55.98
345.099	30.04
345.311	34.13
345.523	62.8
345.735	3.41
345.947	68.95
346.159	-45.74
346.371	-8.87
346.583	-4.78
346.795	-4.78
347.007	68.95
347.219	13.65
347.431	46.42
347.643	114
347.855	44.37
348.067	148.82
348.279	25.94
348.491	62.8
348.703	71
348.915	11.61
349.127	-45.74
349.339	52.56
349.551	-6.83
349.763	40.28
349.975	23.89
350.187	103.76
350.399	118.1
350.61	73.04
350.822	48.47
351.034	77.14
351.246	81.24
351.458	-21.16
351.669	140.63
351.881	19.8
352.093	87.38
352.305	79.19
352.517	73.04
352.728	13.65
352.94	40.28
353.152	101.72
353.363	1.37
353.575	111.96
353.787	85.33
353.999	93.52
354.21	73.04
354.422	-29.35
354.633	87.38
354.845	42.32
355.057	56.66
355.268	19.8
355.48	40.28
355.692	32.08
355.903	-60.07
356.115	21.84
356.326	-39.59
356.538	130.39
356.749	-17.07
356.961	-2.73
357.172	83.28
357.384	34.13
357.595	144.72
357.807	64.85
358.018	109.91
358.23	56.66
358.441	101.72
358.653	58.71
358.864	32.08
359.075	66.9
359.287	91.48
359.498	150.87
359.709	3.41
359.921	32.08
360.132	60.76
360.344	107.86
360.555	64.85
360.766	87.38
360.977	19.8
361.189	56.66
361.4	34.13
361.611	42.32
361.823	56.66
362.034	103.76
362.245	48.47
362.456	79.19
362.667	77.14
362.879	52.56
363.09	93.52
363.301	79.19
363.512	-10.92
363.723	27.99
363.935	-29.35
364.146	-0.68
364.357	21.84
364.568	85.33
364.779	3.41
364.99	167.25
365.201	17.75
365.412	85.33
365.623	23.89
365.834	101.72
366.045	46.42
366.256	48.47
366.467	71
366.678	75.09
366.889	-19.11
367.1	19.8
367.311	111.96
367.522	13.65
367.733	38.23
367.944	23.89
368.155	42.32
368.366	27.99
368.577	114
368.788	142.68
368.999	52.56
369.209	66.9
369.42	105.81
369.631	159.06
369.842	44.37
370.053	21.84
370.264	87.38
370.474	3.41
370.685	64.85
370.896	64.85
371.107	68.95
371.317	101.72
371.528	111.96
371.739	23.89
371.95	107.86
372.16	77.14
372.371	-21.16
372.582	46.42
372.792	50.52
373.003	64.85
373.214	44.37
373.424	71
373.635	-29.35
373.846	52.56
374.056	-21.16
374.267	93.52
374.477	32.08
374.688	89.43
374.898	79.19
375.109	52.56
375.319	58.71
375.53	105.81
375.74	30.04
375.951	56.66
376.161	101.72
376.372	71
376.582	60.76
376.793	46.42
377.003	-39.59
377.214	66.9
377.424	111.96
377.635	40.28
377.845	32.08
378.055	114
378.266	40.28
378.476	44.37
378.686	-12.97
378.897	83.28
379.107	95.57
379.317	21.84
379.528	97.62
379.738	150.87
379.948	54.61
380.158	105.81
380.369	179.54
380.579	60.76
380.789	101.72
380.999	75.09
381.21	66.9
381.42	120.15
381.63	79.19
381.84	52.56
382.05	62.8
382.261	97.62
382.471	87.38
382.681	36.18
382.891	87.38
383.101	77.14
383.311	-35.5
383.521	30.04
383.731	109.91
383.941	83.28
384.151	77.14
384.361	38.23
384.571	44.37
384.781	34.13
384.991	128.34
385.201	85.33
385.411	114
385.621	73.04
385.831	105.81
386.041	146.77
386.251	64.85
386.461	79.19
386.671	134.48
386.881	83.28
387.091	68.95
387.301	130.39
387.511	77.14
387.72	7.51
387.93	3.41
388.14	109.91
388.35	56.66
388.56	56.66
388.769	79.19
388.979	13.65
389.189	-6.83
389.399	66.9
389.609	103.76
389.818	85.33
390.028	64.85
390.238	130.39
390.447	62.8
390.657	9.56
390.867	32.08
391.076	27.99
391.286	36.18
391.496	75.09
391.705	77.14
391.915	54.61
392.125	140.63
392.334	60.76
392.544	114
392.753	118.1
392.963	23.89
393.172	101.72
393.382	66.9
393.591	50.52
393.801	58.71
394.01	169.3
394.22	36.18
394.429	87.38
394.639	111.96
394.848	58.71
395.058	95.57
395.267	3.41
395.477	103.76
395.686	73.04
395.895	167.25
396.105	105.81
396.314	148.82
396.524	13.65
396.733	77.14
396.942	109.91
397.152	97.62
397.361	154.96
397.57	138.58
397.78	128.34
397.989	27.99
398.198	236.88
398.407	122.2
398.617	97.62
398.826	95.57
399.035	58.71
399.244	116.05
399.453	148.82
399.663	103.76
399.872	142.68
400.081	46.42
400.29	159.06
400.499	85.33
400.708	97.62
400.917	132.44
401.127	118.1
401.336	77.14
401.545	208.21
401.754	152.91
401.963	111.96
402.172	175.44
402.381	81.24
402.59	114
402.799	118.1
403.008	157.01
403.217	120.15
403.426	167.25
403.635	130.39
403.844	152.91
404.053	73.04
404.262	161.11
404.471	294.22
404.68	224.59
404.888	208.21
405.097	220.5
405.306	212.31
405.515	167.25
405.724	193.87
405.933	240.98
406.142	214.35
406.35	228.69
406.559	175.44
406.768	175.44
406.977	210.26
407.185	320.85
407.394	257.36
407.603	144.72
407.812	357.71
408.02	281.94
408.229	236.88
408.438	210.26
408.646	218.45
408.855	347.47
409.064	290.13
409.272	281.94
409.481	376.14
409.69	265.55
409.898	234.83
410.107	390.48
410.315	398.67
410.524	386.38
410.733	415.05
410.941	363.86
411.15	384.34
411.358	410.96
411.567	505.17
411.775	486.73
411.984	462.16
412.192	472.4
412.401	519.5
412.609	539.98
412.818	550.22
413.026	468.3
413.234	499.02
413.443	552.27
413.651	613.71
413.86	623.95
414.068	626
414.276	722.25
414.485	687.43
414.693	779.59
414.901	724.3
415.11	820.55
415.318	832.84
415.526	812.36
415.734	834.89
415.943	877.9
416.151	857.42
416.359	898.38
416.567	881.99
416.776	888.14
416.984	1025.35
417.192	1158.47
417.4	1146.18
417.608	1146.18
417.817	1113.41
418.025	1207.62
418.233	1322.31
418.441	1191.24
418.649	1307.97
418.857	1455.42
419.065	1434.94
419.273	1383.74
419.481	1535.29
419.689	1518.91
419.897	1631.55
420.105	1631.55
420.313	1727.8
420.521	1840.44
420.729	1844.54
420.937	1895.74
421.145	1848.63
421.353	1967.42
421.561	2067.77
421.769	2217.27
421.977	2268.47
422.185	2368.82
422.393	2456.88
422.601	2475.31
422.809	2393.39
423.017	2618.67
423.224	2735.4
423.432	2716.97
423.64	2749.74
423.848	2889
424.056	2903.34
424.263	3134.76
424.471	3149.09
424.679	3202.34
424.887	3431.71
425.094	3517.73
425.302	3544.35
425.51	3609.89
425.718	3888.41
425.925	3814.68
426.133	3904.79
426.341	4234.52
426.548	4379.92
426.756	4353.3
426.964	4373.78
427.171	4779.28
427.379	4721.93
427.586	4891.91
427.794	5045.51
428.001	5262.6
428.209	5412.1
428.417	5348.61
428.624	5690.62
428.832	5549.31
429.039	5762.3
429.247	5811.45
429.454	6182.13
429.662	6726.89
429.869	6431.99
430.076	6702.32
430.284	6460.66
430.491	6849.77
430.699	7331.05
430.906	7232.74
431.114	7341.29
431.321	7668.96
431.528	7728.35
431.736	8256.73
431.943	8424.66
432.15	8508.63
432.358	8549.59
432.565	8899.79
432.772	8826.06
432.979	9233.61
433.187	9553.09
433.394	9491.65
433.601	10069.18
433.808	10359.99
434.016	10198.2
434.223	10714.29
434.43	11277.48
434.637	11275.43
434.844	11836.58
435.052	11801.76
435.259	11840.67
435.466	12147.87
435.673	11707.55
435.88	12672.15
436.087	13307.02
436.294	13282.44
436.501	12901.52
436.708	13405.32
436.915	13651.08
437.122	14265.47
437.329	14417.02
437.537	14785.65
437.743	15094.9
437.95	14922.87
438.157	15625.32
438.364	16301.15
438.571	16223.33
438.778	16378.97
438.985	17812.55
439.192	17024.08
439.399	17648.71
439.606	17239.12
439.813	18275.39
440.02	19344.43
440.227	19147.83
440.433	19051.57
440.64	19342.38
440.847	19442.73
441.054	19725.35
441.261	21036.05
441.467	20845.59
441.674	21281.81
441.881	21804.04
442.088	22291.46
442.294	21828.62
442.501	22369.28
442.708	22752.25
442.914	23708.65
443.121	24734.68
443.328	23929.83
443.534	25822.16
443.741	25115.61
443.948	24646.62
444.154	26823.61
444.361	26377.15
444.568	26565.57
444.774	26700.73
444.981	27179.96
445.187	27532.21
445.394	28634.02
445.6	28801.95
445.807	31331.19
446.013	30208.9
446.22	30401.41
446.426	31550.32
446.633	31918.96
446.839	33100.64
447.046	31665.01
447.252	33176.41
447.459	33301.34
447.665	33428.31
447.871	34802.5
448.078	36205.36
448.284	34650.95
448.491	35763
448.697	36905.76
448.903	37845.78
449.11	38009.62
449.316	36928.29
449.522	37835.54
449.728	38853.38
449.935	39316.22
450.141	38675.21
450.347	40403.69
450.553	38992.64
450.76	38744.84
450.966	40547.05
451.172	40313.58
451.378	41353.95
451.584	40659.69
451.791	41568.99
451.997	41501.4
452.203	41962.2
452.409	42134.23
452.615	41439.96
452.821	40350.45
453.027	39912.18
453.233	42105.55
453.44	40381.17
453.646	41003.75
453.852	41186.02
454.058	41513.69
454.264	40233.71
454.47	41691.87
454.676	39998.19
454.882	41736.92
455.088	38081.3
455.294	38681.35
455.5	39404.28
455.705	39791.35
455.911	37958.42
456.117	37296.92
456.323	36832.04
456.529	35011.39
456.735	37229.34
456.941	35973.94
457.147	35117.89
457.352	33993.55
457.558	33909.58
457.764	33903.44
457.97	33399.64
458.176	32441.19
458.381	32617.32
458.587	30851.97
458.793	31054.72
458.999	29457.3
459.204	31452.02
459.41	30274.44
459.616	28265.38
459.821	28679.07
460.027	28044.2
460.233	27820.97
460.438	26358.72
460.644	26786.75
460.85	25426.9
461.055	25095.13
461.261	24966.1
461.466	23288.82
461.672	22510.59
461.878	23978.98
462.083	22336.51
462.289	21971.97
462.494	21912.58
462.7	21167.12
462.905	20292.64
463.111	21158.93
463.316	21062.68
463.522	20626.46
463.727	20614.17
463.932	20694.04
464.138	20538.4
464.343	20405.28
464.549	19915.81
464.754	20505.63
464.959	20216.86
465.165	20079.65
465.37	19350.57
465.575	19008.56
465.781	19678.25
465.986	19807.27
466.191	18895.92
466.397	18596.92
466.602	17613.9
466.807	18504.76
467.012	18273.34
467.218	18396.22
467.423	18035.78
467.628	18033.73
467.833	19156.02
468.038	18064.45
468.244	17611.85
468.449	18216
468.654	17822.79
468.859	17992.77
469.064	17470.54
469.269	16897.11
469.474	17032.27
469.679	17568.84
469.885	16825.43
470.09	17204.3
470.295	17204.3
470.5	16544.86
470.705	16868.44
470.91	16313.44
471.115	16501.85
471.32	16567.38
471.525	16381.02
471.73	16174.17
471.935	15559.78
472.139	15303.79
472.344	15576.17
472.549	15391.85
472.754	15260.78
472.959	15086.7
473.164	14511.22
473.369	14355.58
473.574	14799.99
473.778	14730.36
473.983	14480.5
474.188	14601.33
474.393	13763.72
474.598	14273.66
474.802	13786.24
475.007	13821.06
475.212	14013.57
475.417	13335.69
475.621	13356.17
475.826	13503.62
476.031	13151.37
476.235	12856.47
476.44	13366.41
476.645	12848.27
476.849	12864.66
477.054	12410.01
477.259	12364.95
477.463	12393.62
477.668	12209.31
477.872	12272.79
478.077	11936.93
478.282	11752.61
478.486	11764.9
478.691	11584.68
478.895	11734.18
479.1	11283.63
479.304	11545.77
479.509	11351.21
479.713	11521.19
479.918	11179.18
480.122	10855.6
480.326	11199.66
480.531	11017.39
480.735	10917.04
480.94	10757.3
481.144	11177.13
481.348	10667.19
481.553	10914.99
481.757	10562.74
481.961	10775.73
482.166	10808.5
482.37	10849.46
482.574	10509.49
482.778	10558.64
482.983	10734.77
483.187	10753.2
483.391	10658.99
483.595	10712.24
483.8	10575.03
484.004	10607.8
484.208	10544.31
484.412	10523.83
484.616	10579.12
484.821	10618.04
485.025	10572.98
485.229	10781.87
485.433	10673.33
485.637	10615.99
485.841	10579.12
486.045	10599.6
486.249	10765.49
486.453	10620.08
486.657	10579.12
486.861	10642.61
487.065	10409.14
487.269	10429.62
487.473	10675.38
487.677	10661.04
487.881	10792.11
488.085	10556.6
488.289	10601.65
488.493	10613.94
488.697	10843.31
488.901	10816.69
489.105	10712.24
489.309	10736.82
489.512	10837.17
489.716	10644.66
489.92	10718.39
490.124	10661.04
490.328	10783.92
490.531	10742.96
490.735	10919.09
490.939	10845.36
491.143	11003.05
491.346	10910.89
491.55	11234.47
491.754	11001.01
491.958	11162.8
492.161	11121.84
492.365	11224.23
492.569	11107.5
492.772	11265.19
492.976	11140.27
493.18	11396.26
493.383	11480.23
493.587	11586.72
493.79	11732.13
493.994	11447.46
494.197	11732.13
494.401	11785.38
494.605	11766.95
494.808	11818.14
495.012	11992.22
495.215	12137.63
495.419	11963.55
495.622	12197.02
495.825	12285.08
496.029	12207.26
496.232	12485.78
496.436	12354.71
496.639	12956.82
496.843	12727.44
497.046	13026.45
497.249	13214.86
497.453	13094.03
497.656	13151.37
497.859	13343.88
498.063	13520.01
498.266	13554.82
498.469	13446.28
498.673	14036.1
498.876	13915.26
499.079	14113.92
499.282	14034.05
499.485	14728.31
499.689	14441.59
499.892	14953.59
500.095	14931.06
500.298	15133.81
500.501	15113.33
500.705	15443.05
500.908	15619.17
501.111	15561.83
501.314	15809.64
501.517	15803.49
501.72	16405.59
501.923	16032.86
502.126	16452.7
502.329	16743.51
502.532	17140.82
502.735	17081.42
502.938	17202.25
503.141	17374.28
503.344	17714.25
503.547	17673.29
503.75	18084.93
503.953	18304.06
504.156	18373.69
504.359	18586.68
504.562	18732.09
504.765	18953.27
504.968	19080.24
505.17	19579.95
505.373	19407.92
505.576	19782.7
505.779	19878.95
505.982	20247.58
506.185	20286.5
506.387	20427.81
506.59	20526.11
506.793	21146.64
506.996	21105.68
507.198	21779.47
507.401	21490.7
507.604	21890.06
507.807	22031.37
508.009	22326.27
508.212	22361.09
508.415	22668.28
508.617	22920.18
508.82	23084.02
509.022	23057.4
509.225	23473.14
509.428	24105.96
509.63	23870.44
509.833	23940.07
510.035	24388.58
510.238	24761.31
510.44	24937.43
510.643	25277.4
510.845	25295.83
511.048	25314.26
511.25	25891.79
511.453	25701.33
511.655	26852.28
511.858	26491.84
512.06	27030.46
512.262	27057.08
512.465	27143.1
512.667	27655.09
512.87	27851.69
513.072	27798.45
513.274	28355.49
513.477	28779.42
513.679	28871.58
513.881	29260.69
514.084	29825.93
514.286	29387.67
514.488	29784.97
514.69	30387.08
514.893	30712.7
515.095	30485.38
515.297	30919.55
515.499	30950.27
515.701	31275.9
515.904	31591.28
516.106	31890.29
516.308	31966.06
516.51	32727.91
516.712	32691.04
516.914	33014.62
517.116	33047.39
517.318	33688.4
517.52	33639.25
517.722	33803.09
517.925	34382.66
518.127	34988.86
518.329	35021.63
518.531	34872.13
518.733	35584.82
518.935	35793.72
519.136	35636.02
519.338	36217.64
519.54	36465.45
519.742	36277.04
519.944	36809.51
520.146	37632.79
520.348	38003.47
520.55	37745.43
520.752	38255.37
520.954	39019.27
521.155	38640.39
521.357	39031.55
521.559	39215.87
521.761	39647.99
521.963	39873.27
522.164	40012.53
522.366	40149.74
522.568	40631.02
522.77	40882.92
522.971	41513.69
523.173	40753.9
523.375	41775.83
523.576	41509.6
523.778	41560.8
523.98	42117.84
524.181	42359.5
524.383	42298.06
524.584	42937.03
524.786	42832.58
524.988	42783.43
525.189	43446.97
525.391	43311.81
525.592	43737.79
525.794	43936.44
525.995	44296.88
526.197	44425.9
526.398	44133.04
526.6	44688.04
526.801	45120.16
527.003	44987.05
527.204	44786.35
527.406	45646.49
527.607	45675.16
527.808	45712.03
528.01	45589.15
528.211	45529.76
528.412	46320.27
528.614	46191.25
528.815	46375.57
529.016	46258.84
529.218	46260.88
529.419	46926.47
529.62	46361.23
529.822	46639.76
530.023	46949
530.224	46760.59
530.425	46621.33
530.626	46574.22
530.828	46432.91
531.029	47377.03
531.23	46936.71
531.431	47121.03
531.632	47495.81
531.833	47137.41
532.035	47766.14
532.236	47919.74
532.437	47970.94
532.638	47710.85
532.839	47626.88
533.04	47669.89
533.241	47612.54
533.442	48163.45
533.643	48159.35
533.844	48126.58
534.045	48063.1
534.246	47780.48
534.447	47970.94
534.648	47936.12
534.849	48065.14
535.05	47870.59
535.251	47968.89
535.451	47596.16
535.652	48204.41
535.853	48073.34
536.054	48013.94
536.255	48218.74
536.456	47739.52
536.657	48527.98
536.857	47987.32
537.058	47743.61
537.259	48501.36
537.46	47729.28
537.66	48116.34
537.861	48253.56
538.062	47760
538.263	48214.65
538.463	48071.29
538.664	48278.13
538.865	48339.57
539.065	48478.83
539.266	47880.83
539.466	49056.36
539.667	47899.26
539.868	48374.39
540.068	47991.42
540.269	48286.32
540.469	48159.35
540.67	47594.11
540.87	48038.52
541.071	47970.94
541.271	48667.25
541.472	47639.17
541.672	47831.68
541.873	48165.49
542.073	47526.53
542.274	48241.27
542.474	47782.52
542.675	47848.06
542.875	47948.41
543.075	47743.61
543.276	47217.28
543.476	48112.25
543.676	47819.39
543.877	48134.77
544.077	47866.49
544.277	47628.93
544.478	47891.07
544.678	47817.34
544.878	47823.48
545.078	47747.71
545.279	47125.13
545.479	47446.66
545.679	48130.68
545.879	47618.69
546.079	47600.25
546.28	46983.82
546.48	46992.01
546.68	47587.97
546.88	47540.86
547.08	47848.06
547.28	47469.18
547.48	47434.37
547.68	47436.42
547.88	47321.73
548.081	47448.71
548.281	47374.98
548.481	47639.17
548.681	47649.41
548.881	47559.3
549.081	47141.51
549.28	47307.4
549.48	47749.76
549.68	47587.97
549.88	47626.88
550.08	47272.58
550.28	47301.25
550.48	47403.65
550.68	47948.41
550.88	47196.81
551.08	47342.21
551.279	47667.84
551.479	46858.89
551.679	46967.43
551.879	46803.6
552.079	47827.58
552.278	47067.78
552.478	47157.89
552.678	46877.32
552.878	47604.35
553.077	46819.98
553.277	46748.3
553.477	47338.11
553.676	47075.97
553.876	47030.92
554.076	46920.33
554.275	46662.29
554.475	46342.8
554.674	47274.63
554.874	46807.69
555.074	46627.47
555.273	46985.86
555.473	46693
555.672	46568.08
555.872	46586.51
556.071	46971.53
556.271	46496.4
556.47	46443.15
556.67	45970.07
556.869	46449.3
557.068	46291.6
557.268	46168.72
557.467	45798.04
557.667	45998.74
557.866	46211.73
558.065	45908.63
558.265	45968.02
558.464	45589.15
558.663	46334.61
558.863	45490.85
559.062	46293.65
559.261	45294.24
559.461	46115.48
559.66	45150.88
559.859	45632.16
560.058	44923.56
560.258	45200.04
560.457	45122.21
560.656	45546.14
560.855	45179.56
561.054	45345.44
561.253	44554.93
561.453	45263.52
561.652	44595.88
561.851	44759.72
562.05	44679.85
562.249	44696.24
562.448	44692.14
562.647	44473.01
562.846	44315.31
563.045	44419.76
563.244	44059.32
563.443	44606.12
563.642	43866.81
563.841	44100.28
564.04	43969.21
564.239	44137.14
564.438	43756.22
564.637	44202.67
564.836	43549.37
565.035	43119.3
565.234	43776.7
565.432	43315.9
565.631	43539.13
565.83	43291.33
566.029	43356.86
566.228	43023.04
566.427	43002.57
566.625	42681.03
566.824	42609.36
567.023	43240.13
567.222	41896.66
567.42	42644.17
567.619	42818.25
567.818	42547.92
568.016	42355.41
568.215	42861.26
568.414	42044.12
568.612	42441.42
568.811	42150.61
569.01	42513.1
569.208	41708.25
569.407	41792.22
569.605	41298.66
569.804	41874.13
570.002	41403.1
570.201	41677.53
570.4	41175.78
570.598	41292.51
570.797	40723.18
570.995	40909.54
571.193	40254.19
571.392	41044.71
571.59	40631.02
571.789	40411.88
571.987	40456.94
572.186	40344.3
572.384	40295.15
572.582	40415.98
572.781	40170.22
572.979	39793.4
573.177	40403.69
573.376	39836.41
573.574	39549.69
573.772	40010.48
573.971	39387.9
574.169	39092.99
574.367	39260.93
574.565	39590.65
574.763	39078.66
574.962	39265.02
575.16	38873.86
575.358	38724.36
575.556	38718.21
575.754	39250.69
575.952	38685.45
576.151	38646.54
576.349	38253.33
576.547	37841.68
576.745	38030.1
576.943	38564.62
577.141	38249.23
577.339	37706.52
577.537	37671.7
577.735	37847.83
577.933	37614.36
578.131	37755.67
578.329	37215.01
578.527	37229.34
578.725	37407.51
578.923	37458.71
579.121	36879.14
579.319	37425.95
579.516	37155.61
579.714	36617
579.912	36598.57
580.11	36537.13
580.308	36653.86
580.506	36172.59
580.704	35885.87
580.901	36662.05
581.099	36668.2
581.297	35728.18
581.495	36113.2
581.692	36350.76
581.89	35973.94
582.088	36113.2
582.285	35781.43
582.483	35617.59
582.681	35949.36
582.878	35660.6
583.076	34900.8
583.274	35443.51
583.471	35007.3
583.669	35212.09
583.866	34782.02
584.064	35201.85
584.262	34757.44
584.459	34990.91
584.657	34739.01
584.854	34863.94
585.052	33948.5
585.249	34476.87
585.447	34597.7
585.644	33825.62
585.841	34317.13
586.039	34581.32
586.236	33723.22
586.434	33557.33
586.631	33811.28
586.828	33698.64
587.026	33940.3
587.223	33577.81
587.42	33690.45
587.618	33301.34
587.815	32959.33
588.012	33057.63
588.21	33129.31
588.407	32797.54
588.604	32478.05
588.801	32951.13
588.999	32936.8
589.196	32461.67
589.393	32539.49
589.59	32607.08
589.787	32697.19
589.984	32105.32
590.182	32170.86
590.379	32263.02
590.576	31775.6
590.773	31873.9
590.97	31628.15
591.167	31636.34
591.364	31169.4
591.561	31603.57
591.758	31296.38
591.955	31441.78
592.152	31271.8
592.349	31087.48
592.546	31527.8
592.743	31081.34
592.94	30552.96
593.137	30950.27
593.334	31038.33
593.531	30309.25
593.727	30815.1
593.924	30493.57
594.121	29963.15
594.318	30364.55
594.515	29813.65
594.712	30432.13
594.908	29649.81
595.105	30102.41
595.302	29565.84
595.499	29774.73
595.696	29690.77
595.892	29459.35
596.089	29809.55
596.286	29684.62
596.482	29393.81
596.679	29367.19
596.876	29576.08
597.072	29193.11
597.269	29305.75
597.466	28896.16
597.662	28836.77
597.859	28597.15
598.055	28609.44
598.252	28292.01
598.448	28486.56
598.645	28208.04
598.841	28019.63
599.038	28255.14
599.234	27866.03
599.431	28060.59
599.627	28054.44
599.824	28294.05
600.02	27849.64
600.217	28029.87
600.413	27872.17
600.609	27472.82
600.806	27460.53
601.002	27403.19
601.198	27270.07
601.395	27474.87
601.591	27440.05
601.787	27120.57
601.984	27175.86
602.18	27237.3
602.376	26745.79
602.572	26633.15
602.769	26692.54
602.965	26536.9
603.161	26661.82
603.357	26328
603.553	26381.25
603.75	26475.46
603.946	26108.87
604.142	26409.92
604.338	25791.44
604.534	26000.33
604.73	25824.2
604.926	25967.56
605.122	25889.74
605.318	25635.79
605.514	25582.54
605.71	25643.98
605.906	25428.95
606.102	25531.34
606.298	25603.02
606.494	25586.64
606.69	24992.73
606.886	25226.2
607.082	25078.74
607.278	25293.78
607.474	24890.33
607.67	24773.6
607.866	24120.29
608.062	24865.75
608.257	24718.3
608.453	24656.86
608.649	24624.09
608.845	24495.07
609.041	24800.22
609.236	24816.6
609.432	24353.76
609.628	24480.74
609.824	24058.85
610.019	24241.12
610.215	24404.96
610.411	24101.86
610.606	23921.64
610.802	24312.8
610.998	24204.26
611.193	23800.81
611.389	23712.75
611.584	23694.32
611.78	23487.47
611.976	23847.91
612.171	23983.08
612.367	23722.99
612.562	23487.47
612.758	23428.08
612.953	23266.29
613.149	23649.26
613.344	23227.38
613.539	23616.49
613.735	23170.04
613.93	23399.41
614.126	23153.65
614.321	23462.9
614.517	23223.28
614.712	23186.42
614.907	23067.64
615.103	23297.01
615.298	22680.57
615.493	23303.15
615.688	22922.23
615.884	23143.41
616.079	22600.7
616.274	22952.95
616.47	22789.11
616.665	22645.76
616.86	22737.91
617.055	22434.81
617.25	22361.09
617.445	22557.69
617.641	22129.67
617.836	22313.98
618.031	21965.83
618.226	22162.44
618.421	21902.34
618.616	22418.43
618.811	21834.76
619.006	22426.62
619.201	21525.52
619.396	21906.44
619.591	21552.14
619.786	21902.34
619.981	21326.86
620.176	21623.82
620.371	21199.89
620.566	21507.09
620.761	21089.3
620.956	21308.43
621.151	20823.06
621.346	21021.72
621.541	20634.65
621.735	20945.94
621.93	20298.78
622.125	20456.48
622.32	19952.68
622.515	20405.28
622.709	20024.36
622.904	20089.89
623.099	20218.91
623.294	20022.31
623.488	19696.68
623.683	19833.89
623.878	19278.9
624.072	19581.99
624.267	19479.6
624.462	19600.43
624.656	19323.95
624.851	19231.79
625.046	18930.74
625.24	18906.16
625.435	18830.39
625.629	18682.94
625.824	18873.4
626.018	18717.75
626.213	18185.28
626.407	18406.46
626.602	18435.13
626.796	18385.98
626.991	18213.95
627.185	17806.41
627.38	17732.68
627.574	17730.63
627.768	17558.6
627.963	17562.7
628.157	17527.88
628.352	17667.14
628.546	17196.11
628.74	17273.93
628.935	17040.47
629.129	17409.1
629.323	17071.18
629.517	16938.07
629.712	16845.91
629.906	16624.73
630.1	16393.31
630.294	16454.75
630.489	16411.74
630.683	16358.49
630.877	16182.37
631.071	16094.3
631.265	16471.13
631.459	16174.17
631.653	15862.88
631.848	15848.55
632.042	15709.29
632.236	15592.55
632.43	15653.99
632.624	15527.02
632.818	15469.67
633.012	15051.89
633.206	15191.15
633.4	15197.29
633.594	14879.86
633.788	14990.45
633.982	15051.89
634.176	15080.56
634.369	14701.68
634.563	14957.68
634.757	14535.8
634.951	14548.09
635.145	14605.43
635.339	14818.42
635.533	14527.61
635.726	14242.94
635.92	14201.98
636.114	14068.86
636.308	14036.1
636.501	14126.21
636.695	13792.39
636.889	13816.96
637.083	13657.22
637.276	13563.01
637.47	13479.05
637.664	13368.46
637.857	13560.97
638.051	13552.77
638.244	13307.02
638.438	13053.07
638.632	13141.13
638.825	13231.24
639.019	13055.12
639.212	12930.19
639.406	12870.8
639.599	12862.61
639.793	12766.35
639.986	12668.05
640.18	12725.4
640.373	12555.41
640.567	12182.68
640.76	12661.91
640.954	12637.33
641.147	12141.72
641.34	12119.2
641.534	12489.88
641.727	12319.9
641.92	12006.56
642.114	12250.27
642.307	12070.05
642.5	12037.28
642.694	11838.62
642.887	11574.44
643.08	11996.32
643.273	11740.32
643.467	11723.94
643.66	11455.65
643.853	11420.84
644.046	11381.93
644.239	11336.87
644.432	11455.65
644.626	11250.86
644.819	11064.49
645.012	11125.93
645.205	11353.26
645.398	11105.45
645.591	11095.21
645.784	10824.88
645.977	10693.81
646.17	10718.39
646.363	10773.68
646.556	10603.7
646.749	10636.47
646.942	10763.44
647.135	10407.09
647.328	10374.33
647.521	10286.26
647.714	10319.03
647.907	10151.1
648.099	10319.03
648.292	10298.55
648.485	10169.53
648.678	10036.41
648.871	10222.78
649.064	9952.45
649.256	9813.18
649.449	9891.01
649.642	9784.51
649.835	9848
650.027	9950.4
650.22	9876.67
650.413	9751.74
650.605	9761.98
650.798	9589.95
650.991	9538.76
651.183	9227.46
651.376	9505.99
651.568	9563.33
651.761	9186.51
651.954	9293
652.146	9280.71
652.339	9254.09
652.531	9260.23
652.724	9276.62
652.916	8883.41
653.109	8957.13
653.301	9168.07
653.494	8778.96
653.686	8750.29
653.879	8969.42
654.071	8850.64
654.263	8574.16
654.456	8686.8
654.648	8615.12
654.84	8449.24
655.033	8486.1
655.225	8307.93
655.417	8383.7
655.61	8355.03
655.802	8545.49
655.994	8269.02
656.186	8238.3
656.379	8117.47
656.571	8144.09
656.763	8328.41
656.955	8035.55
657.148	8076.51
657.34	8166.62
657.532	7859.42
657.724	7853.28
657.916	7920.86
658.108	8015.07
658.3	7871.71
658.492	7834.85
658.684	7636.19
658.876	7927
659.068	7501.03
659.26	7582.95
659.452	7523.55
659.644	7673.06
659.836	7695.58
660.028	7539.94
660.22	7298.28
660.412	7347.43
660.604	7484.64
660.796	7402.72
660.988	7281.89
661.18	7384.29
661.372	7419.11
661.563	7376.1
661.755	7001.32
661.947	7167.21
662.139	7050.47
662.331	7296.23
662.522	6978.79
662.714	6917.36
662.906	7017.71
663.097	6917.36
663.289	6925.55
663.481	6833.39
663.673	6966.51
663.864	6741.23
664.056	6825.2
664.247	6712.56
664.439	6647.02
664.631	6886.64
664.822	6669.55
665.014	6788.33
665.205	6589.68
665.397	6548.72
665.588	6663.41
665.78	6442.23
665.971	6491.38
666.163	6573.3
666.354	6520.05
666.546	6362.36
666.737	6352.12
666.929	6239.48
667.12	6411.51
667.311	6245.62
667.503	6319.35
667.694	6364.4
667.885	6360.31
668.077	6221.05
668.268	6137.08
668.459	6188.28
668.651	6231.29
668.842	6270.2
669.033	6053.11
669.224	6229.24
669.416	6237.43
669.607	5930.23
669.798	5938.43
669.989	6085.88
670.18	5979.39
670.371	5917.95
670.563	5735.68
670.754	6089.98
670.945	5950.71
671.136	5997.82
671.327	5862.65
671.518	5811.45
671.709	6073.59
671.9	6042.87
672.091	5829.88
672.282	5811.45
672.473	5797.12
672.664	5692.67
672.855	5754.11
673.046	5623.04
673.237	5881.08
673.428	5719.29
673.619	5641.47
673.809	5805.31
674	5745.92
674.191	5836.03
674.382	5674.24
674.573	5557.5
674.764	5547.26
674.954	5606.66
675.145	5670.14
675.336	5584.13
675.527	5557.5
675.717	5600.51
675.908	5549.31
676.099	5498.11
676.289	5381.38
676.48	5635.33
676.671	5385.48
676.861	5582.08
677.052	5479.68
677.243	5442.82
677.433	5491.97
677.624	5664
677.814	5399.81
678.005	5600.51
678.195	5573.89
678.386	5461.25
678.576	5467.39
678.767	5203.21
678.957	5444.87
679.148	5584.13
679.338	5514.5
679.529	5541.12
679.719	5350.66
679.909	5451.01
680.1	5246.21
680.29	5397.76
680.481	5403.91
680.671	5506.31
680.861	5451.01
681.052	5145.86
681.242	5410.05
681.432	5487.87
681.622	5346.56
681.813	5457.15
682.003	5305.6
682.193	5373.19
682.383	5334.28
682.573	5356.8
682.764	5289.22
682.954	5518.59
683.144	5459.2
683.334	5317.89
683.524	5240.07
683.714	5147.91
683.904	5338.37
684.094	5272.84
684.284	5285.12
684.474	5393.67
684.664	5127.43
684.854	5256.45
685.044	5104.9
685.234	5045.51
685.424	5182.73
685.614	5203.21
685.804	5278.98
685.994	5197.06
686.184	5217.54
686.374	5244.17
686.564	5133.57
686.753	5072.14
686.943	5068.04
687.133	4998.41
687.323	4926.73
687.513	5012.74
687.702	4924.68
687.892	4898.06
688.082	4990.22
688.272	4865.29
688.461	4861.2
688.651	4996.36
688.841	4879.63
689.03	4883.72
689.22	4689.17
689.41	4799.76
689.599	4715.79
689.789	4705.55
689.979	4754.7
690.168	4615.44
690.358	4652.3
690.547	4400.4
690.737	4592.91
690.926	4689.17
691.116	4498.7
691.305	4640.01
691.495	4523.28
691.684	4394.26
691.874	4578.58
692.063	4236.56
692.252	4474.13
692.442	4357.39
692.631	4324.63
692.82	4394.26
693.01	4394.26
693.199	4324.63
693.388	4076.82
693.578	4240.66
693.767	4279.57
693.956	4361.49
694.146	4173.08
694.335	4093.21
694.524	4160.79
694.713	4107.54
694.902	4060.44
695.092	4070.68
695.281	4044.06
695.47	4103.45
695.659	3962.14
695.848	4187.41
696.037	3960.09
696.226	4060.44
696.415	3992.86
696.604	4039.96
696.793	3960.09
696.982	3996.95
697.171	4089.11
697.36	3994.9
697.549	3888.41
697.738	3990.81
697.927	4070.68
698.116	3857.69
698.305	3892.51
698.494	4025.62
698.683	3943.71
698.872	3947.8
699.061	3945.75
699.25	3810.59
699.438	3902.75
699.627	3759.39
699.816	3882.27
700.005	3783.96
700.193	3925.27
700.382	3910.94
700.571	4019.48
700.76	3839.26
700.948	3831.07
701.137	3972.38
701.326	3896.6
701.514	3771.68
701.703	3874.07
701.892	3833.11
702.08	3941.66
702.269	3788.06
702.457	3712.28
702.646	3833.11
702.834	3775.77
703.023	3755.29
703.212	3796.25
703.4	3835.16
703.589	3763.48
703.777	3919.13
703.965	3626.27
704.154	3779.87
704.342	3636.51
704.531	3847.45
704.719	3781.92
704.907	3792.16
705.096	3620.13
705.284	3839.26
705.472	3757.34
705.661	3812.64
705.849	3851.55
706.037	3853.59
706.226	3904.79
706.414	3917.08
706.602	3806.49
706.79	3820.83
706.979	3751.2
707.167	3798.3
707.355	3806.49
707.543	3824.92
707.731	3921.18
707.919	3732.76
708.107	3755.29
708.296	3783.96
708.484	3685.66
708.672	3904.79
708.86	3718.43
709.048	3822.88
709.236	3896.6
709.424	3749.15
709.612	3837.21
709.8	3781.92
709.988	3925.27
710.176	3958.04
710.364	3917.08
710.551	3833.11
710.739	3831.07
710.927	3806.49
711.115	3822.88
711.303	3714.33
711.491	3910.94
711.679	3786.01
711.866	3878.17
712.054	3826.97
712.242	3773.72
712.43	4044.06
712.617	3812.64
712.805	3900.7
712.993	3806.49
713.181	3781.92
713.368	3851.55
713.556	3792.16
713.744	3863.83
713.931	4003.1
714.119	3853.59
714.306	3841.31
714.494	4033.82
714.682	3915.03
714.869	3855.64
715.057	3941.66
715.244	3935.51
715.432	3931.42
715.619	3886.36
715.807	4005.14
715.994	3820.83
716.182	3947.8
716.369	4033.82
716.556	4017.43
716.744	3955.99
716.931	3853.59
717.119	4107.54
717.306	3945.75
717.493	3986.71
717.681	4025.62
717.868	4113.69
718.055	3996.95
718.242	3921.18
718.43	4080.92
718.617	3876.12
718.804	4058.39
718.991	3829.02
719.179	4062.49
719.366	4019.48
719.553	3951.9
719.74	4218.13
719.927	3976.47
720.114	4056.34
720.301	4054.3
720.488	4080.92
720.676	4039.96
720.863	4191.51
721.05	4085.01
721.237	4152.6
721.424	4115.73
721.611	4066.58
721.798	3984.66
721.985	4099.35
722.172	4050.2
722.358	4093.21
722.545	4150.55
722.732	4113.69
722.919	4136.21
723.106	4101.4
723.293	4033.82
723.48	3988.76
723.667	4142.36
723.853	4013.34
724.04	4115.73
724.227	4148.5
724.414	4240.66
724.6	4074.78
724.787	4058.39
724.974	4138.26
725.161	4087.06
725.347	4019.48
725.534	4093.21
725.72	4128.02
725.907	4257.04
726.094	4189.46
726.28	4105.49
726.467	4289.81
726.653	4066.58
726.84	4197.65
727.027	4314.39
727.213	4074.78
727.4	4093.21
727.586	4115.73
727.773	4242.71
727.959	4062.49
728.145	4214.04
728.332	4150.55
728.518	4085.01
728.705	4160.79
728.891	4072.73
729.077	4222.23
729.264	4021.53
729.45	4173.08
729.636	4263.19
729.823	4162.84
730.009	4236.56
730.195	4177.17
730.382	4232.47
730.568	4121.88
730.754	4228.37
730.94	4238.61
731.126	4164.89
731.313	4080.92
731.499	4209.94
731.685	4156.69
731.871	4173.08
732.057	4220.18
732.243	4132.12
732.429	4205.85
732.615	4185.37
732.801	4152.6
732.987	4214.04
733.173	4197.65
733.359	4181.27
733.545	4199.7
733.731	4113.69
733.917	4281.62
734.103	4242.71
734.289	4189.46
734.475	4062.49
734.661	4345.11
734.847	4234.52
735.033	4181.27
735.219	4173.08
735.404	3986.71
735.59	4148.5
735.776	4189.46
735.962	4013.34
736.148	4111.64
736.333	4277.52
736.519	4162.84
736.705	4095.25
736.89	4117.78
737.076	4232.47
737.262	3972.38
737.447	4056.34
737.633	4111.64
737.819	3974.42
738.004	3970.33
738.19	4048.15
738.375	4103.45
738.561	4152.6
738.747	3962.14
738.932	4099.35
739.118	4017.43
739.303	4089.11
739.489	4101.4
739.674	4037.91
739.859	3996.95
740.045	4054.3
740.23	4035.86
740.416	4009.24
740.601	3964.18
740.786	3955.99
740.972	3960.09
741.157	3880.22
741.342	3927.32
741.528	3960.09
741.713	3951.9
741.898	4082.97
742.084	3915.03
742.269	3915.03
742.454	3845.4
742.639	3806.49
742.824	3773.72
743.01	3865.88
743.195	3890.46
743.38	3640.61
743.565	3777.82
743.75	3865.88
743.935	3677.47
744.12	3706.14
744.305	3532.06
744.49	3607.84
744.675	3585.31
744.86	3714.33
745.045	3605.79
745.23	3501.34
745.415	3573.02
745.6	3716.38
745.785	3497.25
745.97	3603.74
746.155	3472.67
746.34	3513.63
746.525	3550.5
746.71	3544.35
746.895	3515.68
747.079	3429.66
747.264	3394.85
747.449	3392.8
747.634	3339.55
747.819	3417.38
748.003	3364.13
748.188	3265.83
748.373	3374.37
748.557	3075.37
748.742	3128.61
748.927	3314.98
749.111	3116.33
749.296	3073.32
749.481	3284.26
749.665	3161.38
749.85	3173.67
750.034	3147.05
750.219	3071.27
750.404	3065.13
750.588	3003.69
750.773	3128.61
750.957	3036.45
751.141	3056.93
751.326	2948.39
751.51	3015.98
751.695	2946.34
751.879	2936.1
752.064	3005.74
752.248	2942.25
752.432	2995.5
752.617	2972.97
752.801	2917.67
752.985	2723.12
753.17	2845.99
753.354	2723.12
753.538	2889
753.722	2772.27
753.907	2653.48
754.091	2702.64
754.275	2639.15
754.459	2645.29
754.643	2563.37
754.828	2653.48
755.012	2575.66
755.196	2501.94
755.38	2573.61
755.564	2479.41
755.748	2610.48
755.932	2522.41
756.116	2487.6
756.3	2606.38
756.484	2381.1
756.668	2516.27
756.852	2268.47
757.036	2381.1
757.22	2313.52
757.404	2358.58
757.588	2299.19
757.772	2360.63
757.956	2368.82
758.14	2221.36
758.323	2325.81
758.507	2270.51
758.691	2192.69
758.875	2231.6
759.059	2207.03
759.242	2194.74
759.426	2217.27
759.61	2082.1
759.794	2176.31
759.977	2196.79
760.161	2268.47
760.345	2110.77
760.528	2123.06
760.712	2176.31
760.895	2067.77
761.079	2020.66
761.263	2094.39
761.446	1969.46
761.63	2059.57
761.813	2100.53
761.997	1951.03
762.18	2018.61
762.364	2035
762.547	1957.18
762.731	2018.61
762.914	1881.4
763.098	2035
763.281	1961.27
763.464	1854.78
763.648	1852.73
763.831	1854.78
764.015	1887.54
764.198	1838.39
764.381	1875.26
764.564	1899.83
764.748	1875.26
764.931	1918.26
765.114	1803.58
765.297	1922.36
765.481	1766.71
765.664	1824.06
765.847	1832.25
766.03	1893.69
766.213	1805.63
766.397	1897.78
766.58	1711.42
766.763	1729.85
766.946	1656.12
767.129	1660.22
767.312	1660.22
767.495	1811.77
767.678	1621.31
767.861	1692.99
768.044	1643.84
768.227	1637.69
768.41	1637.69
768.593	1676.6
768.776	1697.08
768.959	1690.94
769.142	1717.56
769.324	1547.58
769.507	1664.32
769.69	1529.15
769.873	1525.05
770.056	1633.6
770.239	1596.73
770.421	1621.31
770.604	1465.66
770.787	1531.2
770.97	1602.88
771.152	1488.19
771.335	1566.01
771.518	1457.47
771.7	1631.55
771.883	1416.51
772.066	1494.33
772.248	1381.7
772.431	1520.96
772.613	1465.66
772.796	1439.04
772.978	1477.95
773.161	1422.66
773.343	1549.63
773.526	1436.99
773.708	1307.97
773.891	1463.61
774.073	1355.07
774.256	1424.7
774.438	1424.7
774.621	1293.63
774.803	1379.65
774.985	1355.07
775.168	1441.09
775.35	1277.25
775.532	1344.83
775.715	1346.88
775.897	1357.12
776.079	1303.87
776.261	1191.24
776.444	1224
776.626	1273.15
776.808	1154.37
776.99	1232.19
777.173	1189.19
777.355	1273.15
777.537	1168.71
777.719	1213.76
777.901	1162.56
778.083	1092.93
778.265	1101.12
778.447	1107.27
778.629	1103.17
778.811	1144.13
778.993	1121.6
779.175	1154.37
779.357	1115.46
779.539	1049.93
779.721	1045.83
779.903	1127.75
780.085	1123.65
780.267	980.29
780.449	1023.3
780.631	996.68
780.812	965.96
780.994	1035.59
781.176	1045.83
781.358	920.9
781.54	980.29
781.721	1017.16
781.903	1006.92
782.085	1035.59
782.267	996.68
782.448	779.59
782.63	922.95
782.812	953.67
782.993	941.38
783.175	945.48
783.357	894.28
783.538	888.14
783.72	869.7
783.901	859.46
784.083	925
784.264	888.14
784.446	927.05
784.627	697.67
784.809	855.37
784.99	777.55
785.172	791.88
785.353	931.14
785.535	781.64
785.716	767.31
785.897	757.07
786.079	804.17
786.26	808.26
786.441	834.89
786.623	662.86
786.804	685.39
786.985	773.45
787.167	841.03
787.348	716.11
787.529	660.81
787.71	828.74
787.891	736.59
788.073	687.43
788.254	703.82
788.435	802.12
788.616	716.11
788.797	617.8
788.978	703.82
789.159	632.14
789.34	677.19
789.522	617.8
789.703	656.72
789.884	634.19
790.065	732.49
790.246	714.06
790.427	656.72
790.607	691.53
790.788	605.52
790.969	585.04
791.15	603.47
791.331	564.56
791.512	605.52
791.693	560.46
791.874	630.09
792.054	683.34
792.235	695.63
792.416	630.09
792.597	576.84
792.778	648.52
792.958	623.95
793.139	621.9
793.32	589.13
793.5	546.12
793.681	626
793.862	560.46
794.042	527.69
794.223	535.89
794.404	494.93
794.584	494.93
794.765	517.45
794.945	507.21
795.126	548.17
795.306	519.5
795.487	503.12
795.667	521.55
795.848	578.89
796.028	507.21
796.209	537.93
796.389	550.22
796.57	554.32
796.75	478.54
796.93	519.5
797.111	460.11
797.291	484.69
797.471	464.21
797.652	537.93
797.832	558.41
798.012	527.69
798.192	447.82
798.373	396.62
798.553	482.64
798.733	384.34
798.913	458.06
799.093	431.44
799.274	439.63
799.454	456.01
799.634	488.78
799.814	433.49
799.994	505.17
800.174	525.65
800.354	413.01
800.534	402.77
800.714	468.3
800.894	392.53
801.074	382.29
801.254	372.05
801.434	415.05
801.614	406.86
801.794	372.05
801.974	1428.8
802.154	380.24
802.334	429.39
802.514	320.85
802.693	425.29
802.873	421.2
803.053	365.9
803.233	355.66
803.413	372.05
803.592	335.18
803.772	277.84
803.952	406.86
804.131	300.37
804.311	374.1
804.491	527.69
804.67	306.51
804.85	372.05
805.03	396.62
805.209	351.57
805.389	355.66
805.568	341.33
805.748	333.14
805.928	363.86
806.107	324.94
806.287	232.79
806.466	365.9
806.646	275.79
806.825	263.51
807.004	316.75
807.184	326.99
807.363	290.13
807.543	286.03
807.722	351.57
807.901	337.23
808.081	417.1
808.26	337.23
808.439	294.22
808.619	320.85
808.798	251.22
808.977	357.71
809.156	339.28
809.336	257.36
809.515	300.37
809.694	306.51
809.873	316.75
810.052	322.9
810.231	292.18
810.411	290.13
810.59	267.6
810.769	253.27
810.948	372.05
811.127	230.74
811.306	249.17
811.485	300.37
811.664	345.42
811.843	261.46
812.022	271.7
812.201	206.16
812.38	177.49
812.559	249.17
812.737	308.56
812.916	204.11
813.095	204.11
813.274	296.27
813.453	326.99
813.632	302.42
813.811	286.03
813.989	167.25
814.168	245.07
814.347	191.83
814.526	267.6
814.704	353.62
814.883	316.75
815.062	165.2
815.24	406.86
815.419	243.03
815.598	220.5
815.776	171.35
815.955	292.18
816.133	249.17
816.312	243.03
816.49	204.11
816.669	154.96
816.847	265.55
817.026	279.89
817.204	238.93
817.383	193.87
817.561	218.45
817.74	224.59
817.918	216.4
818.097	253.27
818.275	245.07
818.453	214.35
818.632	144.72
818.81	224.59
818.988	206.16
819.167	210.26
819.345	187.73
819.523	142.68
819.701	247.12
819.879	175.44
820.058	195.92
820.236	210.26
820.414	220.5
820.592	206.16
820.77	267.6
820.948	193.87
821.127	236.88
821.305	152.91
821.483	200.02
821.661	193.87
821.839	236.88
822.017	226.64
822.195	206.16
822.373	222.55
822.551	236.88
822.729	298.32
822.907	259.41
823.085	218.45
823.262	169.3
823.44	97.62
823.618	144.72
823.796	212.31
823.974	189.78
824.152	142.68
824.329	173.39
824.507	200.02
824.685	224.59
824.863	193.87
825.04	146.77
825.218	200.02
825.396	204.11
825.574	152.91
825.751	159.06
825.929	216.4
826.107	138.58
826.284	163.15
826.462	181.59
826.639	148.82
826.817	103.76
826.994	216.4
827.172	144.72
827.349	171.35
827.527	161.11
827.704	191.83
827.882	124.24
828.059	136.53
828.237	152.91
828.414	240.98
828.591	77.14
828.769	183.63
828.946	79.19
829.124	216.4
829.301	191.83
829.478	89.43
829.655	263.51
829.833	173.39
830.01	79.19
830.187	165.2
830.364	175.44
830.542	114
830.719	73.04
830.896	193.87
831.073	122.2
831.25	204.11
831.427	114
831.604	126.29
831.782	114
831.959	171.35
832.136	150.87
832.313	154.96
832.49	140.63
832.667	130.39
832.844	105.81
833.021	159.06
833.198	202.07
833.374	132.44
833.551	179.54
833.728	87.38
833.905	171.35
834.082	46.42
834.259	224.59
834.436	171.35
834.612	91.48
834.789	58.71
834.966	101.72
835.143	60.76
835.319	7.51
835.496	95.57
835.673	142.68
835.85	93.52
836.026	150.87
836.203	216.4
836.38	71
836.556	118.1
836.733	87.38
836.909	171.35
837.086	89.43
837.262	40.28
837.439	103.76
837.616	89.43
837.792	103.76
837.968	91.48
838.145	7.51
838.321	101.72
838.498	75.09
838.674	103.76
838.851	99.67
839.027	71
839.203	128.34
839.38	107.86
839.556	109.91
839.732	142.68
839.909	114
840.085	118.1
840.261	58.71
840.437	101.72
840.614	122.2
840.79	95.57
840.966	83.28
841.142	97.62
841.318	66.9
841.494	167.25
841.671	152.91
841.847	54.61
842.023	114
842.199	183.63
842.375	136.53
842.551	79.19
842.727	64.85
842.903	93.52
843.079	58.71
843.255	114
843.431	93.52
843.607	154.96
843.783	-51.88
843.959	132.44
844.134	13.65
844.31	103.76
844.486	79.19
844.662	79.19
844.838	75.09
845.013	134.48
845.189	103.76
845.365	77.14
845.541	60.76
845.716	64.85
845.892	132.44
846.068	-23.21
846.244	107.86
846.419	17.75
846.595	118.1
846.77	91.48
846.946	118.1
847.122	71
847.297	66.9
847.473	118.1
847.648	73.04
847.824	124.24
847.999	42.32
848.175	68.95
848.35	34.13
848.526	85.33
848.701	161.11
848.876	73.04
849.052	85.33
849.227	109.91
849.403	64.85
849.578	3.41
849.753	126.29
849.929	142.68
850.104	64.85
850.279	60.76
850.454	56.66
850.63	32.08
850.805	15.7
850.98	60.76
851.155	7.51
851.33	111.96
851.505	-17.07
851.681	161.11
851.856	79.19
852.031	128.34
852.206	109.91
852.381	36.18
852.556	81.24
852.731	50.52
852.906	120.15
853.081	48.47
853.256	111.96
853.431	77.14
853.606	7.51
853.781	-12.97
853.956	52.56
854.131	93.52
854.305	15.7
854.48	73.04
854.655	1.37
854.83	23.89
855.005	75.09
855.18	79.19
855.354	-37.55
855.529	44.37
855.704	89.43
855.879	-17.07
856.053	48.47
856.228	7.51
856.403	-23.21
856.577	11.61
856.752	-33.45
856.926	122.2
857.101	9.56
857.276	77.14
857.45	60.76
857.625	79.19
857.799	73.04
857.974	77.14
858.148	77.14
858.323	23.89
858.497	64.85
858.672	42.32
858.846	23.89
859.02	-17.07
859.195	85.33
859.369	21.84
859.543	73.04
859.718	15.7
859.892	21.84
860.066	89.43
860.241	30.04
860.415	-39.59
860.589	-8.87
860.763	-62.12
860.938	27.99
861.112	17.75
861.286	34.13
861.46	-4.78
861.634	-66.22
861.808	87.38
861.982	19.8
862.157	42.32
862.331	-78.51
862.505	-0.68
862.679	40.28
862.853	46.42
863.027	62.8
863.201	122.2
863.375	-27.31
863.549	62.8
863.722	9.56
863.896	101.72
864.07	3.41
864.244	71
864.418	9.56
864.592	75.09
864.766	-15.02
864.939	36.18
865.113	40.28
865.287	71
865.461	-2.73
865.634	36.18
865.808	52.56
865.982	36.18
866.156	36.18
866.329	-2.73
866.503	23.89
866.676	9.56
866.85	56.66
867.024	5.46
867.197	9.56
867.371	79.19
867.544	40.28
867.718	-123.56
867.891	60.76
868.065	9.56
868.238	52.56
868.412	85.33
868.585	52.56
868.759	13.65
868.932	-8.87
869.105	-41.64
869.279	11.61
869.452	7.51
869.625	46.42
869.799	-31.4
869.972	30.04
870.145	-35.5
870.319	-0.68
870.492	36.18
870.665	11.61
870.838	5.46
871.011	-17.07
871.185	23.89
871.358	95.57
871.531	34.13
871.704	50.52
871.877	9.56
872.05	42.32
872.223	66.9
872.396	13.65
872.569	-4.78
872.742	-8.87
872.915	-62.12
873.088	3.41
873.261	-17.07
873.434	44.37
873.607	27.99
873.78	62.8
873.953	-49.83
874.126	15.7
874.299	-2.73
874.471	-4.78
874.644	17.75
874.817	15.7
874.99	52.56
875.163	25.94
875.335	-41.64
875.508	23.89
875.681	-12.97
875.853	81.24
876.026	9.56
876.199	40.28
876.371	-27.31
876.544	21.84
876.717	3.41
876.889	-35.5
877.062	-29.35
877.234	-0.68
877.407	-113.32
877.579	-0.68
877.752	15.7
877.924	27.99
878.097	-4.78
878.269	-8.87
878.442	58.71
878.614	-6.83
878.786	48.47
878.959	13.65
879.131	15.7
879.303	32.08
879.476	27.99
879.648	-6.83
879.82	-6.83
879.993	5.46
880.165	9.56
880.337	-74.41
880.509	40.28
880.681	-35.5
880.854	9.56
881.026	21.84
881.198	85.33
881.37	-4.78
881.542	101.72
881.714	-15.02
881.886	-60.07
882.058	-4.78
882.23	-4.78
882.402	-15.02
882.574	-15.02
882.746	46.42
882.918	73.04
883.09	95.57
883.262	-96.94
883.434	52.56
883.606	-58.03
883.778	1.37
883.95	97.62
884.122	-12.97
884.293	36.18
884.465	62.8
884.637	-4.78
884.809	5.46
884.98	52.56
885.152	79.19
885.324	3.41
885.496	-12.97
885.667	11.61
885.839	54.61
886.011	87.38
886.182	15.7
886.354	-4.78
886.525	-23.21
886.697	-2.73
886.869	40.28
887.04	9.56
887.212	103.76
887.383	89.43
887.555	-0.68
887.726	17.75
887.897	-8.87
888.069	36.18
888.24	-31.4
888.412	-10.92
888.583	1.37
888.754	38.23
888.926	-12.97
889.097	32.08
889.268	-35.5
889.44	19.8
889.611	-74.41
889.782	-90.79
889.953	-64.17
890.125	68.95
890.296	-21.16
890.467	52.56
890.638	15.7
890.809	11.61
890.98	-8.87
891.151	3.41
891.323	62.8
891.494	-45.74
891.665	81.24
891.836	-51.88
892.007	-6.83
892.178	60.76
892.349	-25.26
892.52	-8.87
892.691	34.13
892.862	-45.74
893.032	-74.41
893.203	7.51
893.374	-58.03
893.545	54.61
893.716	-41.64
893.887	-25.26
894.057	-43.69
894.228	27.99
894.399	-51.88
894.57	21.84
894.74	11.61
894.911	13.65
895.082	34.13
895.253	-41.64
895.423	27.99
895.594	-4.78
895.764	-41.64
895.935	-10.92
896.106	5.46
896.276	-53.93
896.447	66.9
896.617	-101.03
896.788	-60.07
896.958	13.65
897.129	-4.78
897.299	-35.5
897.47	13.65
897.64	-12.97
897.81	34.13
897.981	-8.87
898.151	-66.22
898.322	-29.35
898.492	-2.73
898.662	-19.11
898.832	1.37
899.003	-23.21
899.173	11.61
899.343	-6.83
899.513	-27.31
