Data from USB4F104151__96__13-06-31-476.txt Node

Date: Fri Mar 14 13:06:31 EDT 2025
User: louis
Spectrometer: USB4F10415
Trigger mode: 4
Integration Time (sec): 4.000000E-2
Scans to average: 1
Electric dark correction enabled: true
Nonlinearity correction enabled: false
Boxcar width: 0
XAxis mode: Wavelengths
Number of Pixels in Spectrum: 3648
>>>>>Begin Spectral Data<<<<<
178.204	-150.18
178.424	-150.18
178.644	-150.18
178.864	-205.48
179.084	-195.24
179.304	-62.12
179.524	-43.69
179.744	-2.73
179.964	27.99
180.184	9.56
180.404	34.13
180.624	38.23
180.844	32.08
181.064	-10.92
181.283	-15.02
181.503	-19.11
181.723	11.61
181.943	-41.64
182.163	95.57
182.383	77.14
182.602	77.14
182.822	146.77
183.042	58.71
183.262	64.85
183.482	56.66
183.701	32.08
183.921	105.81
184.141	-8.87
184.361	68.95
184.58	73.04
184.8	52.56
185.02	3.41
185.239	142.68
185.459	58.71
185.679	118.1
185.898	-45.74
186.118	126.29
186.338	58.71
186.557	85.33
186.777	52.56
186.997	48.47
187.216	-33.45
187.436	103.76
187.655	48.47
187.875	132.44
188.095	32.08
188.314	52.56
188.534	124.24
188.753	60.76
188.973	85.33
189.192	46.42
189.412	5.46
189.631	77.14
189.851	21.85
190.07	38.23
190.29	52.56
190.509	44.37
190.729	64.85
190.948	48.47
191.168	191.83
191.387	56.66
191.607	68.95
191.826	44.37
192.045	56.66
192.265	11.61
192.484	7.51
192.704	-10.92
192.923	-2.73
193.142	91.48
193.362	66.9
193.581	109.91
193.8	60.76
194.02	-0.68
194.239	44.37
194.458	89.43
194.678	36.18
194.897	42.32
195.116	-19.11
195.335	62.8
195.555	132.44
195.774	85.33
195.993	60.76
196.212	5.46
196.432	23.89
196.651	11.61
196.87	30.04
197.089	200.02
197.308	46.42
197.528	101.72
197.747	-10.92
197.966	101.72
198.185	87.38
198.404	56.66
198.623	5.46
198.842	118.1
199.062	68.95
199.281	130.39
199.5	44.37
199.719	71
199.938	97.62
200.157	134.48
200.376	83.28
200.595	-4.78
200.814	73.04
201.033	36.18
201.252	97.62
201.471	13.65
201.69	60.76
201.909	60.76
202.128	93.52
202.347	95.57
202.566	64.85
202.785	27.99
203.004	-33.45
203.223	157.01
203.442	64.85
203.661	32.08
203.879	11.61
204.098	75.09
204.317	13.65
204.536	99.67
204.755	89.43
204.974	140.63
205.193	150.87
205.411	130.39
205.63	81.24
205.849	36.18
206.068	19.8
206.287	30.04
206.505	36.18
206.724	75.09
206.943	81.24
207.162	-17.07
207.381	95.57
207.599	-12.97
207.818	-41.64
208.037	75.09
208.255	19.8
208.474	46.42
208.693	52.56
208.911	-37.55
209.13	62.8
209.349	71
209.567	38.23
209.786	40.28
210.005	-2.73
210.223	-19.11
210.442	36.18
210.661	77.14
210.879	3.41
211.098	36.18
211.316	44.37
211.535	73.04
211.753	71
211.972	114
212.191	11.61
212.409	-6.83
212.628	46.42
212.846	36.18
213.065	73.04
213.283	93.52
213.502	34.13
213.72	-2.73
213.938	46.42
214.157	136.53
214.375	81.24
214.594	-19.11
214.812	32.08
215.031	58.71
215.249	68.95
215.467	114
215.686	68.95
215.904	32.08
216.122	-41.64
216.341	152.92
216.559	97.62
216.778	89.43
216.996	64.85
217.214	-12.97
217.432	17.75
217.651	-0.68
217.869	77.14
218.087	-0.68
218.306	36.18
218.524	101.72
218.742	62.8
218.96	13.65
219.179	42.32
219.397	99.67
219.615	89.43
219.833	46.42
220.051	68.95
220.27	77.14
220.488	15.7
220.706	116.05
220.924	99.67
221.142	11.61
221.36	79.19
221.578	101.72
221.796	103.76
222.015	1.37
222.233	85.33
222.451	52.56
222.669	25.94
222.887	77.14
223.105	50.52
223.323	81.24
223.541	-49.83
223.759	105.81
223.977	64.85
224.195	126.29
224.413	66.9
224.631	126.29
224.849	116.05
225.067	114
225.285	27.99
225.503	71
225.721	21.85
225.939	48.47
226.157	103.76
226.375	150.87
226.592	-2.73
226.81	77.14
227.028	87.38
227.246	118.1
227.464	58.71
227.682	103.76
227.9	21.85
228.117	13.65
228.335	71
228.553	3.41
228.771	44.37
228.989	44.37
229.206	15.7
229.424	-33.45
229.642	93.52
229.86	-55.98
230.077	9.56
230.295	23.89
230.513	114
230.731	34.13
230.948	136.53
231.166	71
231.384	52.56
231.601	11.61
231.819	136.53
232.037	58.71
232.254	-15.02
232.472	71
232.689	-19.11
232.907	60.76
233.125	87.38
233.342	21.85
233.56	-68.27
233.777	50.52
233.995	19.8
234.213	95.57
234.43	52.56
234.648	21.85
234.865	30.04
235.083	97.62
235.3	30.04
235.518	134.48
235.735	109.91
235.953	48.47
236.17	54.61
236.388	7.51
236.605	17.75
236.822	116.05
237.04	91.48
237.257	44.37
237.475	50.52
237.692	30.04
237.909	87.38
238.127	-29.35
238.344	66.9
238.562	54.61
238.779	-119.46
238.996	-43.69
239.214	7.51
239.431	54.61
239.648	11.61
239.865	46.42
240.083	68.95
240.3	38.23
240.517	50.52
240.735	36.18
240.952	97.62
241.169	95.57
241.386	-2.73
241.603	-2.73
241.821	-2.73
242.038	77.14
242.255	87.38
242.472	19.8
242.689	64.85
242.907	62.8
243.124	32.08
243.341	5.46
243.558	46.42
243.775	-4.78
243.992	75.09
244.209	34.13
244.426	179.54
244.643	36.18
244.86	-10.92
245.078	58.71
245.295	73.04
245.512	-4.78
245.729	21.85
245.946	36.18
246.163	15.7
246.38	101.72
246.597	52.56
246.814	9.56
247.031	120.15
247.248	46.42
247.464	109.91
247.681	40.28
247.898	54.61
248.115	105.81
248.332	23.89
248.549	89.43
248.766	163.15
248.983	23.89
249.2	19.8
249.417	68.95
249.633	15.7
249.85	75.09
250.067	-10.92
250.284	68.95
250.501	64.85
250.717	101.72
250.934	-0.68
251.151	44.37
251.368	52.56
251.585	44.37
251.801	77.14
252.018	27.99
252.235	68.95
252.451	-35.5
252.668	7.51
252.885	83.28
253.102	32.08
253.318	11.61
253.535	-41.64
253.752	23.89
253.968	-15.02
254.185	-10.92
254.401	77.14
254.618	-68.27
254.835	-15.02
255.051	99.67
255.268	13.65
255.484	40.28
255.701	152.92
255.917	68.95
256.134	-19.11
256.351	-33.45
256.567	9.56
256.784	-33.45
257	-37.55
257.217	101.72
257.433	46.42
257.65	75.09
257.866	54.61
258.082	-12.97
258.299	75.09
258.515	77.14
258.732	91.48
258.948	38.23
259.165	52.56
259.381	58.71
259.597	68.95
259.814	48.47
260.03	101.72
260.246	85.33
260.463	126.29
260.679	42.32
260.895	77.14
261.112	-2.73
261.328	83.28
261.544	27.99
261.761	165.2
261.977	-66.22
262.193	-12.97
262.409	15.7
262.626	27.99
262.842	46.42
263.058	58.71
263.274	146.77
263.49	34.13
263.707	91.48
263.923	11.61
264.139	15.7
264.355	91.48
264.571	87.38
264.787	32.08
265.004	118.1
265.22	3.41
265.436	36.18
265.652	85.33
265.868	83.28
266.084	32.08
266.3	50.52
266.516	38.23
266.732	68.95
266.948	44.37
267.164	89.43
267.38	11.61
267.596	68.95
267.812	95.57
268.028	52.56
268.244	44.37
268.46	71
268.676	7.51
268.892	50.52
269.108	79.19
269.324	1.37
269.54	11.61
269.756	17.75
269.972	-27.31
270.188	1.37
270.403	75.09
270.619	56.66
270.835	23.89
271.051	109.91
271.267	114
271.483	7.51
271.698	73.04
271.914	62.8
272.13	58.71
272.346	42.32
272.562	68.95
272.777	87.38
272.993	5.46
273.209	-2.73
273.425	77.14
273.64	-6.83
273.856	36.18
274.072	30.04
274.287	42.32
274.503	73.04
274.719	62.8
274.934	44.37
275.15	-41.64
275.366	68.95
275.581	-21.16
275.797	38.23
276.012	36.18
276.228	17.75
276.444	46.42
276.659	163.15
276.875	1.37
277.09	40.28
277.306	38.23
277.521	87.38
277.737	56.66
277.952	122.2
278.168	44.37
278.383	105.81
278.599	77.14
278.814	64.85
279.03	27.99
279.245	200.02
279.461	42.32
279.676	114
279.892	-10.92
280.107	-0.68
280.322	21.85
280.538	66.9
280.753	60.76
280.969	38.23
281.184	-6.83
281.399	138.58
281.615	54.61
281.83	23.89
282.045	13.65
282.26	40.28
282.476	83.28
282.691	62.8
282.906	109.91
283.122	-25.26
283.337	99.67
283.552	21.85
283.767	19.8
283.983	40.28
284.198	13.65
284.413	13.65
284.628	71
284.843	46.42
285.058	52.56
285.274	32.08
285.489	-58.03
285.704	46.42
285.919	23.89
286.134	60.76
286.349	52.56
286.564	87.38
286.779	161.11
286.995	7.51
287.21	-53.93
287.425	81.24
287.64	97.62
287.855	58.71
288.07	-2.73
288.285	128.34
288.5	42.32
288.715	5.46
288.93	21.85
289.145	66.9
289.36	114
289.575	91.48
289.79	79.19
290.004	87.38
290.219	42.32
290.434	13.65
290.649	36.18
290.864	38.23
291.079	13.65
291.294	23.89
291.509	79.19
291.724	38.23
291.938	58.71
292.153	77.14
292.368	-4.78
292.583	50.52
292.798	58.71
293.012	87.38
293.227	91.48
293.442	15.7
293.657	171.35
293.871	73.04
294.086	75.09
294.301	13.65
294.516	146.77
294.73	-17.07
294.945	-2.73
295.16	126.29
295.374	79.19
295.589	38.23
295.804	52.56
296.018	95.57
296.233	154.96
296.447	62.8
296.662	-8.87
296.877	109.91
297.091	21.85
297.306	-27.31
297.52	-37.55
297.735	118.1
297.949	81.24
298.164	42.32
298.378	60.76
298.593	27.99
298.807	-12.97
299.022	25.94
299.236	87.38
299.451	77.14
299.665	-23.21
299.88	56.66
300.094	95.57
300.309	85.33
300.523	93.52
300.737	50.52
300.952	1.37
301.166	44.37
301.381	-23.21
301.595	-21.16
301.809	56.66
302.024	46.42
302.238	-64.17
302.452	83.28
302.667	42.32
302.881	7.51
303.095	25.94
303.309	71
303.524	42.32
303.738	120.15
303.952	21.85
304.166	30.04
304.381	-25.26
304.595	23.89
304.809	81.24
305.023	85.33
305.237	5.46
305.452	60.76
305.666	71
305.88	54.61
306.094	66.9
306.308	116.05
306.522	48.47
306.736	23.89
306.95	93.52
307.164	79.19
307.379	89.43
307.593	87.38
307.807	97.62
308.021	36.18
308.235	89.43
308.449	-10.92
308.663	75.09
308.877	165.2
309.091	9.56
309.305	62.8
309.519	-76.46
309.733	111.96
309.947	-17.07
310.161	122.2
310.374	11.61
310.588	87.38
310.802	60.76
311.016	1.37
311.23	64.85
311.444	130.39
311.658	71
311.872	60.76
312.085	68.95
312.299	118.1
312.513	73.04
312.727	118.1
312.941	-29.35
313.154	85.33
313.368	44.37
313.582	111.96
313.796	68.95
314.009	32.08
314.223	118.1
314.437	105.81
314.651	97.62
314.864	15.7
315.078	99.67
315.292	5.46
315.505	64.85
315.719	103.76
315.933	-2.73
316.146	89.43
316.36	-21.16
316.573	89.43
316.787	83.28
317.001	124.24
317.214	3.41
317.428	-2.73
317.641	-12.97
317.855	93.52
318.068	11.61
318.282	40.28
318.495	204.11
318.709	36.18
318.922	81.24
319.136	107.86
319.349	99.67
319.563	111.96
319.776	101.72
319.99	11.61
320.203	58.71
320.417	105.81
320.63	93.52
320.843	185.68
321.057	-2.73
321.27	83.28
321.483	42.32
321.697	32.08
321.91	73.04
322.124	21.85
322.337	52.56
322.55	19.8
322.763	40.28
322.977	68.95
323.19	48.47
323.403	77.14
323.617	97.62
323.83	60.76
324.043	52.56
324.256	46.42
324.469	-84.65
324.683	97.62
324.896	-35.5
325.109	89.43
325.322	11.61
325.535	52.56
325.748	27.99
325.962	34.13
326.175	77.14
326.388	81.24
326.601	103.76
326.814	19.8
327.027	77.14
327.24	68.95
327.453	19.8
327.666	116.05
327.879	109.91
328.092	11.61
328.305	105.81
328.518	15.7
328.731	13.65
328.944	81.24
329.157	93.52
329.37	62.8
329.583	85.33
329.796	142.68
330.009	73.04
330.222	89.43
330.435	48.47
330.648	44.37
330.861	64.85
331.073	25.94
331.286	114
331.499	109.91
331.712	77.14
331.925	68.95
332.138	122.2
332.35	134.48
332.563	42.32
332.776	79.19
332.989	68.95
333.202	7.51
333.414	138.58
333.627	54.61
333.84	-23.21
334.053	46.42
334.265	66.9
334.478	3.41
334.691	34.13
334.903	136.53
335.116	66.9
335.329	93.52
335.541	9.56
335.754	157.01
335.966	-17.07
336.179	83.28
336.392	93.52
336.604	-33.45
336.817	161.11
337.029	146.77
337.242	60.76
337.454	87.38
337.667	75.09
337.88	77.14
338.092	77.14
338.305	13.65
338.517	68.95
338.729	142.68
338.942	83.28
339.154	30.04
339.367	30.04
339.579	-19.11
339.792	23.89
340.004	103.76
340.217	-4.78
340.429	81.24
340.641	38.23
340.854	21.85
341.066	101.72
341.278	21.85
341.491	109.91
341.703	103.76
341.915	1.37
342.128	27.99
342.34	64.85
342.552	1.37
342.764	-43.69
342.977	40.28
343.189	97.62
343.401	120.15
343.613	40.28
343.826	134.48
344.038	-51.88
344.25	60.76
344.462	-25.26
344.674	83.28
344.886	48.47
345.099	183.63
345.311	118.1
345.523	23.89
345.735	-4.78
345.947	30.04
346.159	68.95
346.371	-21.16
346.583	77.14
346.795	154.96
347.007	-60.07
347.219	85.33
347.431	54.61
347.643	134.48
347.855	13.65
348.067	54.61
348.279	46.42
348.491	48.47
348.703	13.65
348.915	19.8
349.127	25.94
349.339	91.48
349.551	56.66
349.763	34.13
349.975	54.61
350.187	36.18
350.399	193.87
350.61	87.38
350.822	-2.73
351.034	126.29
351.246	-12.97
351.458	148.82
351.669	68.95
351.881	144.72
352.093	27.99
352.305	87.38
352.517	44.37
352.728	116.05
352.94	36.18
353.152	27.99
353.363	40.28
353.575	56.66
353.787	99.67
353.999	44.37
354.21	111.96
354.422	-35.5
354.633	52.56
354.845	34.13
355.057	77.14
355.268	62.8
355.48	91.48
355.692	50.52
355.903	89.43
356.115	105.81
356.326	5.46
356.538	91.48
356.749	150.87
356.961	116.05
357.172	32.08
357.384	17.75
357.595	187.73
357.807	19.8
358.018	5.46
358.23	60.76
358.441	154.96
358.653	103.76
358.864	50.52
359.075	56.66
359.287	85.33
359.498	124.24
359.709	150.87
359.921	54.61
360.132	7.51
360.344	77.14
360.555	81.24
360.766	111.96
360.977	19.8
361.189	103.76
361.4	-66.22
361.611	19.8
361.823	120.15
362.034	105.81
362.245	52.56
362.456	71
362.667	40.28
362.879	11.61
363.09	89.43
363.301	118.1
363.512	44.37
363.723	128.34
363.935	93.52
364.146	68.95
364.357	81.24
364.568	95.57
364.779	36.18
364.99	77.14
365.201	-0.68
365.412	85.33
365.623	-10.92
365.834	101.72
366.045	99.67
366.256	87.38
366.467	122.2
366.678	-4.78
366.889	36.18
367.1	62.8
367.311	154.96
367.522	48.47
367.733	150.87
367.944	101.72
368.155	44.37
368.366	126.29
368.577	56.66
368.788	130.39
368.999	40.28
369.209	27.99
369.42	167.25
369.631	148.82
369.842	130.39
370.053	23.89
370.264	85.33
370.474	46.42
370.685	40.28
370.896	58.71
371.107	114
371.317	71
371.528	44.37
371.739	163.15
371.95	32.08
372.16	126.29
372.371	32.08
372.582	73.04
372.792	114
373.003	62.8
373.214	1.37
373.424	73.04
373.635	13.65
373.846	118.1
374.056	40.28
374.267	87.38
374.477	122.2
374.688	60.76
374.898	89.43
375.109	101.72
375.319	66.9
375.53	136.53
375.74	95.57
375.951	136.53
376.161	140.63
376.372	128.34
376.582	109.91
376.793	42.32
377.003	91.48
377.214	52.56
377.424	79.19
377.635	46.42
377.845	64.85
378.055	148.82
378.266	64.85
378.476	38.23
378.686	101.72
378.897	11.61
379.107	44.37
379.317	48.47
379.528	17.75
379.738	101.72
379.948	15.7
380.158	89.43
380.369	79.19
380.579	97.62
380.789	66.9
380.999	79.19
381.21	48.47
381.42	138.58
381.63	11.61
381.84	179.54
382.05	54.61
382.261	101.72
382.471	44.37
382.681	3.41
382.891	120.15
383.101	120.15
383.311	32.08
383.521	27.99
383.731	107.86
383.941	56.66
384.151	38.23
384.361	111.96
384.571	32.08
384.781	105.81
384.991	109.91
385.201	212.31
385.411	150.87
385.621	107.86
385.831	111.96
386.041	44.37
386.251	95.57
386.461	152.92
386.671	52.56
386.881	7.51
387.091	99.67
387.301	142.68
387.511	171.35
387.72	140.63
387.93	99.67
388.14	27.99
388.35	138.58
388.56	187.73
388.769	111.96
388.979	44.37
389.189	50.52
389.399	38.23
389.609	91.48
389.818	146.77
390.028	177.49
390.238	159.06
390.447	50.52
390.657	64.85
390.867	73.04
391.076	3.41
391.286	79.19
391.496	73.04
391.705	44.37
391.915	187.73
392.125	93.52
392.334	5.46
392.544	144.72
392.753	93.52
392.963	122.2
393.172	75.09
393.382	73.04
393.591	181.59
393.801	77.14
394.01	228.69
394.22	136.53
394.429	142.68
394.639	87.38
394.848	142.68
395.058	120.15
395.267	152.92
395.477	85.33
395.686	159.06
395.895	189.78
396.105	134.48
396.314	159.06
396.524	52.56
396.733	48.47
396.942	111.96
397.152	204.11
397.361	138.58
397.57	126.29
397.78	138.58
397.989	169.3
398.198	195.92
398.407	138.58
398.617	87.38
398.826	68.95
399.035	68.95
399.244	105.81
399.453	126.29
399.663	208.21
399.872	222.55
400.081	154.96
400.29	159.06
400.499	216.4
400.708	224.59
400.917	103.76
401.127	109.91
401.336	185.68
401.545	283.99
401.754	228.69
401.963	134.48
402.172	148.82
402.381	191.83
402.59	163.15
402.799	167.25
403.008	138.58
403.217	208.21
403.426	212.31
403.635	132.44
403.844	183.63
404.053	132.44
404.262	202.07
404.471	224.59
404.68	189.78
404.888	154.96
405.097	232.79
405.306	218.45
405.515	253.27
405.724	216.4
405.933	286.03
406.142	361.81
406.35	247.12
406.559	298.32
406.768	218.45
406.977	296.27
407.185	357.71
407.394	255.31
407.603	292.18
407.812	255.31
408.02	425.29
408.229	365.9
408.438	351.57
408.646	236.88
408.855	372.05
409.064	345.42
409.272	380.24
409.481	406.86
409.69	339.28
409.898	415.06
410.107	410.96
410.315	496.97
410.524	443.73
410.733	546.13
410.941	453.97
411.15	499.02
411.358	548.17
411.567	677.19
411.775	505.17
411.984	531.79
412.192	607.56
412.401	640.33
412.609	716.11
412.818	654.67
413.026	675.15
413.234	701.77
413.443	699.72
413.651	818.5
413.86	791.88
414.068	757.07
414.276	804.17
414.485	810.31
414.693	910.66
414.901	992.58
415.11	845.13
415.318	1000.77
415.526	1054.02
415.734	1019.21
415.943	1115.46
416.151	1113.41
416.359	1133.89
416.567	1127.75
416.776	1168.71
416.984	1314.11
417.192	1213.76
417.4	1307.97
417.608	1367.36
417.817	1318.21
418.025	1457.47
418.233	1647.93
418.441	1559.87
418.649	1568.06
418.857	1729.85
419.065	1824.06
419.273	1756.47
419.481	1828.15
419.689	1924.41
419.897	1991.99
420.105	2096.44
420.313	2135.35
420.521	2342.19
420.729	2260.27
420.937	2274.61
421.145	2381.1
421.353	2397.49
421.561	2690.35
421.769	2692.4
421.977	2792.75
422.185	2819.37
422.393	2868.52
422.601	3050.79
422.809	3036.45
423.017	3077.41
423.224	3198.24
423.432	3388.71
423.64	3347.75
423.848	3700
424.056	3534.11
424.263	3902.75
424.471	3816.73
424.679	3847.45
424.887	4226.32
425.094	4338.96
425.302	4177.17
425.51	4523.28
425.718	4660.49
425.925	4672.78
426.133	4926.73
426.341	5123.34
426.548	5373.19
426.756	5465.35
426.964	5418.24
427.171	5604.61
427.379	5848.32
427.586	5817.6
427.794	6034.68
428.001	6395.12
428.209	6790.38
428.417	6767.85
428.624	7105.77
428.832	7126.25
429.039	7068.91
429.247	6888.68
429.454	7701.73
429.662	8203.48
429.869	7728.35
430.076	8228.06
430.284	8047.83
430.491	8342.74
430.699	8746.19
430.906	8912.08
431.114	9020.62
431.321	9317.58
431.528	9422.02
431.736	10034.36
431.943	10448.05
432.15	10206.39
432.358	10497.21
432.565	10861.74
432.772	10914.99
432.979	11539.62
433.187	11539.62
433.394	11609.25
433.601	12340.38
433.808	12610.71
434.016	12371.1
434.223	13100.17
434.43	13872.26
434.637	13405.32
434.844	14335.1
435.052	14523.51
435.259	14417.02
435.466	14765.17
435.673	14425.21
435.88	15504.49
436.087	16280.67
436.294	16180.32
436.501	15879.27
436.708	16239.71
436.915	16917.59
437.122	17407.05
437.329	17439.82
437.537	17742.92
437.743	18375.74
437.95	18193.47
438.157	19156.02
438.364	19670.06
438.571	19854.37
438.778	19895.33
438.985	21558.28
439.192	20800.54
439.399	21543.95
439.606	21249.04
439.813	22387.71
440.02	23708.65
440.227	23352.31
440.433	23043.06
440.64	23823.34
440.847	23319.54
441.054	24046.57
441.261	25813.96
441.467	25531.34
441.674	26033.1
441.881	26928.06
442.088	26891.19
442.294	26684.35
442.501	27343.8
442.708	27898.8
442.914	28756.89
443.121	30243.72
443.328	29690.77
443.534	31624.05
443.741	30514.05
443.948	30083.98
444.154	32506.73
444.361	32050.03
444.568	32457.57
444.774	32170.86
444.981	32455.53
445.187	33610.58
445.394	35089.21
445.6	34784.07
445.807	37831.44
446.013	36512.55
446.22	37020.45
446.426	38253.33
446.633	38753.03
446.839	40383.21
447.046	38605.58
447.252	40495.85
447.459	40866.53
447.665	40577.77
447.871	42500.81
448.078	43936.44
448.284	41935.57
448.491	43014.85
448.697	44958.38
448.903	45832.86
449.11	45793.95
449.316	44913.32
449.522	45746.84
449.728	47137.41
449.935	47665.79
450.141	47526.53
450.347	48321.14
450.553	47104.65
450.76	47635.07
450.966	49261.16
451.172	48886.38
451.378	50274.9
451.584	49029.74
451.791	50559.57
451.997	49760.86
452.203	50940.49
452.409	50950.73
452.615	50391.64
452.821	48820.84
453.027	48413.3
453.233	51001.93
453.44	49001.07
453.646	49408.61
453.852	49615.46
454.058	50690.64
454.264	48921.19
454.47	50311.77
454.676	48917.1
454.882	50381.4
455.088	46467.73
455.294	47004.3
455.5	47790.72
455.705	48122.49
455.911	46516.88
456.117	45054.63
456.323	44825.26
456.529	42595.02
456.735	44427.95
456.941	43713.21
457.147	42709.71
457.352	41409.25
457.558	41016.04
457.764	40923.88
457.97	40237.81
458.176	39783.16
458.381	39555.83
458.587	37581.59
458.793	37554.97
458.999	35709.75
459.204	38267.66
459.41	36883.23
459.616	34493.25
459.821	35208
460.027	34251.59
460.233	34046.8
460.438	32389.99
460.644	32449.38
460.85	31165.31
461.055	30698.37
461.261	30397.32
461.466	28156.84
461.672	27655.09
461.878	29250.45
462.083	27282.36
462.289	27124.66
462.494	26893.24
462.7	25785.29
462.905	24691.68
463.111	25402.32
463.316	25699.28
463.522	25197.52
463.727	25310.16
463.932	24988.63
464.138	24761.31
464.343	25021.4
464.549	24245.22
464.754	24996.82
464.959	24927.19
465.165	24849.37
465.37	23923.69
465.575	23122.93
465.781	24083.43
465.986	24187.88
466.191	23256.05
466.397	22651.9
466.602	21801.99
466.807	22266.88
467.012	22512.64
467.218	22252.55
467.423	22035.46
467.628	22146.05
467.833	23051.25
468.038	22047.75
468.244	21580.81
468.449	22350.85
468.654	21910.53
468.859	21812.23
469.064	21382.16
469.269	20640.79
469.474	20814.87
469.679	21195.79
469.885	20616.22
470.09	21156.88
470.295	20616.22
470.5	20696.09
470.705	20298.78
470.91	20067.36
471.115	19629.1
471.32	20335.65
471.525	19993.64
471.73	19610.67
471.935	19260.46
472.139	18709.56
472.344	19176.5
472.549	18660.41
472.754	18631.74
472.959	18457.66
473.164	17943.62
473.369	17912.9
473.574	18252.86
473.778	17804.36
473.983	18066.5
474.188	17935.43
474.393	16761.94
474.598	17015.89
474.802	16911.44
475.007	16768.09
475.212	16749.65
475.417	16282.72
475.621	16088.16
475.826	16491.61
476.031	15805.54
476.235	15690.85
476.44	15983.71
476.645	15733.86
476.849	15635.56
477.054	15387.75
477.259	15232.11
477.463	15477.87
477.668	14771.32
477.872	14943.35
478.077	14683.25
478.282	14341.24
478.486	14224.51
478.691	14269.56
478.895	14169.21
479.1	14277.76
479.304	14259.32
479.509	13571.21
479.713	13849.73
479.918	13841.54
480.122	13397.13
480.326	13765.76
480.531	13503.62
480.735	13429.9
480.94	13421.7
481.144	13618.31
481.348	13026.45
481.553	13251.72
481.757	12852.37
481.961	13309.07
482.166	13440.14
482.37	13421.7
482.574	12760.21
482.778	13128.84
482.983	12938.38
483.187	12954.77
483.391	13122.7
483.595	13126.8
483.8	12844.18
484.004	13182.09
484.208	13272.2
484.412	12907.66
484.616	13216.91
484.821	13118.61
485.025	12620.95
485.229	13417.61
485.433	12940.43
485.637	12774.55
485.841	12573.85
486.045	12872.85
486.249	12993.68
486.453	12913.81
486.657	12975.25
486.861	12862.61
487.065	12878.99
487.269	12889.23
487.473	12520.6
487.677	12952.72
487.881	13042.83
488.085	13057.17
488.289	13120.65
488.493	13091.98
488.697	13167.76
488.901	13214.86
489.105	13102.22
489.309	12952.72
489.512	12950.67
489.716	13114.51
489.92	13046.93
490.124	13104.27
490.328	13466.76
490.531	13073.55
490.735	13454.47
490.939	13495.43
491.143	13333.64
491.346	13251.72
491.55	13454.47
491.754	13503.62
491.958	13593.73
492.161	13522.06
492.365	13790.34
492.569	13552.77
492.772	13626.5
492.976	13886.59
493.18	13915.26
493.383	13913.22
493.587	13968.51
493.79	14208.12
493.994	13978.75
494.197	14279.8
494.401	14310.52
494.605	14214.27
494.808	14486.65
495.012	14494.84
495.215	14441.59
495.419	14728.31
495.622	14601.33
495.825	14834.8
496.029	14996.59
496.232	15373.42
496.436	15232.11
496.639	15641.7
496.843	15504.49
497.046	15561.83
497.249	16024.67
497.453	16008.29
497.656	16135.26
497.859	16356.44
498.063	16637.02
498.266	16995.41
498.469	16837.72
498.673	16948.31
498.876	17071.18
499.079	17112.14
499.282	17331.28
499.485	17777.73
499.689	17747.01
499.892	18156.61
500.095	18166.85
500.298	18304.06
500.501	18146.37
500.705	19033.14
500.908	19055.67
501.111	19219.5
501.314	19436.59
501.517	19563.56
501.72	19717.16
501.923	19682.34
502.126	20245.54
502.329	20556.83
502.532	20427.81
502.735	20839.45
502.938	21130.26
503.141	21189.65
503.344	21638.16
503.547	21828.62
503.75	21740.55
503.953	22199.3
504.156	22318.08
504.359	22567.93
504.562	22891.51
504.765	23354.35
504.968	23172.08
505.17	23507.95
505.373	23696.36
505.576	24345.57
505.779	24136.68
505.982	24628.19
506.185	24904.67
506.387	24943.58
506.59	25277.4
506.793	25723.85
506.996	25740.24
507.198	26076.1
507.401	26348.48
507.604	26692.54
507.807	27220.92
508.009	26917.82
508.212	27468.72
508.415	27587.5
508.617	27814.83
508.82	27749.29
509.022	27913.13
509.225	28527.52
509.428	29062.04
509.63	29051.8
509.833	29334.42
510.035	30147.47
510.238	29971.34
510.44	30237.58
510.643	30583.68
510.845	30927.74
511.048	30745.47
511.25	31060.86
511.453	31464.31
511.655	32484.2
511.858	31982.45
512.06	32512.87
512.262	32762.72
512.465	32588.64
512.667	33104.73
512.87	33987.41
513.072	33653.59
513.274	34308.94
513.477	34577.22
513.679	34839.36
513.881	35046.21
514.084	35429.18
514.286	35261.24
514.488	36047.66
514.69	36834.08
514.893	36846.37
515.095	36903.71
515.297	37798.68
515.499	37524.25
515.701	37737.24
515.904	38214.41
516.106	38689.54
516.308	38849.28
516.51	39435
516.712	39531.26
516.914	40008.43
517.116	40350.45
517.318	40237.81
517.52	40600.3
517.722	41003.75
517.925	41450.2
518.127	41657.05
518.329	42113.75
518.531	42123.99
518.733	42603.21
518.935	43168.45
519.136	43061.96
519.338	43676.35
519.54	43907.77
519.742	44120.76
519.944	44544.69
520.146	45046.44
520.348	45095.59
520.55	45081.25
520.752	45750.94
520.954	46398.1
521.155	46312.08
521.357	46527.12
521.559	46996.1
521.761	47409.79
521.963	47626.88
522.164	47549.06
522.366	48038.52
522.568	48521.84
522.77	48583.28
522.971	49074.79
523.173	48700.01
523.375	49666.66
523.576	49908.32
523.778	49441.38
523.98	50166.36
524.181	50211.42
524.383	50797.13
524.584	50997.84
524.786	50948.68
524.988	50985.55
525.189	51259.98
525.391	51626.56
525.592	52185.66
525.794	51982.91
525.995	52202.04
526.197	52179.51
526.398	52562.48
526.6	52455.99
526.801	52787.76
527.003	53240.36
527.204	53434.92
527.406	53490.21
527.607	53430.82
527.808	54100.51
528.01	53344.81
528.211	53981.73
528.412	54524.44
528.614	54366.74
528.815	54651.41
529.016	54776.34
529.218	54391.32
529.419	55095.82
529.62	54678.03
529.822	54606.36
530.023	55095.82
530.224	55403.02
530.425	54903.31
530.626	54675.99
530.828	55171.6
531.029	56207.87
531.23	55185.93
531.431	55087.63
531.632	55632.39
531.833	55458.31
532.035	55538.18
532.236	55763.46
532.437	55886.34
532.638	55769.6
532.839	56693.24
533.04	56162.81
533.241	55794.18
533.442	56607.22
533.643	55818.75
533.844	56451.58
534.045	56369.66
534.246	55915.01
534.447	56150.52
534.648	55970.3
534.849	56369.66
535.05	55970.3
535.251	56519.16
535.451	56410.62
535.652	56898.03
535.853	56361.47
536.054	56406.52
536.255	56214.01
536.456	55986.69
536.657	56885.75
536.857	56080.89
537.058	56125.95
537.259	56332.79
537.46	56592.89
537.66	56201.72
537.861	56685.04
538.062	56271.35
538.263	56025.6
538.463	56343.03
538.664	56599.03
538.865	56568.31
539.065	56422.9
539.266	55933.44
539.466	56699.38
539.667	55740.93
539.868	56748.53
540.068	56089.09
540.269	56496.63
540.469	56394.23
540.67	55953.92
540.87	56205.82
541.071	56293.88
541.271	56001.02
541.472	56250.87
541.672	56084.99
541.873	56117.76
542.073	55327.24
542.274	56414.71
542.474	55761.41
542.675	55566.85
542.875	56580.6
543.075	55923.2
543.276	55394.82
543.476	56427
543.676	55874.05
543.877	55886.34
544.077	55898.62
544.277	56293.88
544.478	55482.89
544.678	55843.33
544.878	55818.75
545.078	56048.13
545.279	55818.75
545.479	55534.09
545.679	56070.65
545.879	55915.01
546.079	55910.91
546.28	55245.32
546.48	55071.24
546.68	55962.11
546.88	55806.47
547.08	55278.09
547.28	55882.24
547.48	55491.08
547.68	55601.67
547.88	55151.12
548.081	55841.28
548.281	55792.13
548.481	55441.93
548.681	56097.28
548.881	55583.24
549.081	55233.03
549.28	55265.8
549.48	55273.99
549.68	55566.85
549.88	56162.81
550.08	55269.9
550.28	55425.54
550.48	55144.97
550.68	55618.05
550.88	55106.06
551.08	55054.86
551.279	55564.81
551.479	54815.25
551.679	55618.05
551.879	54907.41
552.079	55921.15
552.278	54931.98
552.478	55243.27
552.678	55036.43
552.878	55321.1
553.077	54958.61
553.277	54860.3
553.477	55392.78
553.676	54718.99
553.876	55093.77
554.076	54786.58
554.275	54757.91
554.475	54084.12
554.674	55028.24
554.874	54583.83
555.074	54526.49
555.273	54841.87
555.473	54845.97
555.672	54469.14
555.872	54542.87
556.071	54700.56
556.271	54835.73
556.47	54350.36
556.67	53883.42
556.869	53871.14
557.068	54743.57
557.268	54102.56
557.467	54221.34
557.667	54288.92
557.866	54241.82
558.065	54024.73
558.265	53385.77
558.464	53979.68
558.663	54090.27
558.863	53248.55
559.062	54131.23
559.261	53451.3
559.461	53817.89
559.66	53060.14
559.859	53383.72
560.058	53125.67
560.258	53113.39
560.457	53213.74
560.656	53256.74
560.855	52828.72
561.054	53109.29
561.253	53101.1
561.453	52990.51
561.652	52869.68
561.851	53164.59
562.05	52937.26
562.249	52394.55
562.448	52845.1
562.647	52480.56
562.846	52253.24
563.045	52476.47
563.244	52603.44
563.443	52679.22
563.642	51538.5
563.841	52083.26
564.04	51792.45
564.239	51778.11
564.438	51827.26
564.637	51778.11
564.836	51829.31
565.035	51255.88
565.234	51464.77
565.432	51298.89
565.631	51141.19
565.83	51604.03
566.029	51223.11
566.228	51018.31
566.427	51016.27
566.625	50750.03
566.824	50068.06
567.023	50924.11
567.222	49576.54
567.42	50532.95
567.619	50647.63
567.818	50082.39
568.016	50709.07
568.215	50018.91
568.414	49578.59
568.612	50315.86
568.811	49832.54
569.01	49951.32
569.208	49199.72
569.407	49762.91
569.605	49302.12
569.804	49947.23
570.002	48646.77
570.201	49478.24
570.4	48736.88
570.598	48855.66
570.797	48700.01
570.995	48691.82
571.193	48200.31
571.392	48685.68
571.59	47911.55
571.789	48474.74
571.987	48181.88
572.186	48024.18
572.384	48013.94
572.582	48046.71
572.781	47843.96
572.979	47078.02
573.177	47579.78
573.376	47856.25
573.574	47303.3
573.772	47454.85
573.971	47424.13
574.169	46779.02
574.367	46551.69
574.565	47381.12
574.763	46645.9
574.962	46291.6
575.16	45920.92
575.358	46449.3
575.556	46146.2
575.754	46686.86
575.952	46213.78
576.151	46377.62
576.349	45752.99
576.547	45558.43
576.745	46008.98
576.943	46113.43
577.141	45664.92
577.339	45630.11
577.537	45593.25
577.735	45580.96
577.933	44751.53
578.131	45206.18
578.329	45087.4
578.527	44675.76
578.725	44995.24
578.923	44948.14
579.121	44583.6
579.319	44409.52
579.516	44542.64
579.714	44595.88
579.912	44288.69
580.11	44096.18
580.308	44135.09
580.506	43868.86
580.704	43406.01
580.901	43875
581.099	43915.96
581.297	43205.31
581.495	43256.51
581.692	43457.21
581.89	42963.65
582.088	43203.27
582.285	42937.03
582.483	43328.19
582.681	42597.07
582.878	42547.92
583.076	42242.77
583.274	43070.15
583.471	41716.44
583.669	42285.78
583.866	41794.26
584.064	42353.36
584.262	41525.98
584.459	42449.61
584.657	41704.15
584.854	41781.98
585.052	40721.13
585.249	41341.66
585.447	41546.46
585.644	40776.42
585.841	40846.05
586.039	41229.02
586.236	40762.09
586.434	40805.09
586.631	40725.22
586.828	40909.54
587.026	40260.33
587.223	40356.59
587.42	39906.04
587.618	40106.74
587.815	39795.45
588.012	39568.12
588.21	39451.39
588.407	39869.17
588.604	39592.7
588.801	39136
588.999	39318.27
589.196	39144.19
589.393	38953.73
589.59	38757.13
589.787	38925.06
589.984	38791.94
590.182	38472.46
590.379	39152.38
590.576	38716.17
590.773	38531.85
590.97	38118.16
591.167	38257.42
591.364	37872.4
591.561	38138.64
591.758	37776.15
591.955	37679.89
592.152	37985.04
592.349	37499.67
592.546	37614.36
592.743	37573.4
592.94	36883.23
593.137	37079.84
593.334	37403.42
593.531	36449.07
593.727	36811.56
593.924	36762.4
594.121	36401.96
594.318	36582.18
594.515	36096.81
594.712	36883.23
594.908	36240.17
595.105	36535.08
595.302	35849.01
595.499	36064.05
595.696	35930.93
595.892	35466.04
596.089	35578.68
596.286	35527.48
596.482	35676.98
596.679	35406.65
596.876	35201.85
597.072	35015.49
597.269	35298.11
597.466	35013.44
597.662	34884.42
597.859	34878.27
598.055	34829.12
598.252	34259.79
598.448	34530.12
598.645	34237.26
598.841	33999.69
599.038	33964.88
599.234	34419.53
599.431	33839.95
599.627	33938.26
599.824	33669.97
600.02	33508.18
600.217	33778.51
600.413	33184.6
600.609	33196.89
600.806	32914.27
601.002	33508.18
601.198	32914.27
601.395	32813.92
601.591	32615.27
601.787	32799.58
601.984	32605.03
602.18	33098.59
602.376	32469.86
602.572	32394.09
602.769	32504.68
602.965	31939.44
603.161	31990.64
603.357	31847.28
603.553	31888.24
603.75	31685.49
603.946	31105.91
604.142	31785.84
604.338	31196.03
604.534	31380.34
604.73	31038.33
604.926	31183.74
605.122	31538.04
605.318	31021.95
605.514	30563.2
605.71	30800.77
605.906	30778.24
606.102	30694.27
606.298	30641.03
606.494	30747.52
606.69	30616.45
606.886	30385.03
607.082	29776.78
607.278	30407.56
607.474	29860.75
607.67	30190.47
607.866	29715.34
608.062	30096.27
608.257	30051.21
608.453	30024.59
608.649	29719.44
608.845	29547.41
609.041	29629.33
609.236	29727.63
609.432	29490.07
609.628	29483.92
609.824	29344.66
610.019	29346.71
610.215	29371.29
610.411	29270.93
610.606	29182.87
610.802	28982.17
610.998	29076.38
611.193	29197.21
611.389	28705.7
611.584	28742.56
611.78	28728.22
611.976	28867.48
612.171	28914.59
612.367	28713.89
612.562	28332.97
612.758	28165.03
612.953	27773.87
613.149	28461.99
613.344	28083.11
613.539	28236.71
613.735	28371.88
613.93	28355.49
614.126	28191.66
614.321	28294.05
614.517	28185.51
614.712	27863.98
614.907	27909.04
615.103	28275.62
615.298	28162.98
615.493	27734.96
615.688	27456.43
615.884	28220.33
616.079	27255.73
616.274	28046.25
616.47	27526.07
616.665	27653.04
616.86	27354.04
617.055	27112.38
617.25	27145.14
617.445	27460.53
617.641	26735.55
617.836	26938.3
618.031	26561.47
618.226	27040.7
618.421	26911.67
618.616	27012.03
618.811	26371.01
619.006	26725.31
619.201	25947.08
619.396	26510.27
619.591	26131.4
619.786	26403.78
619.981	26299.33
620.176	26016.71
620.371	25625.55
620.566	25709.52
620.761	25570.26
620.956	25893.83
621.151	25070.55
621.346	25471.95
621.541	24556.51
621.735	25324.5
621.93	24724.44
622.125	25007.06
622.32	24497.12
622.515	24538.08
622.709	24546.27
622.904	24318.95
623.099	24026.09
623.294	24044.52
623.488	24042.47
623.683	23974.89
623.878	23466.99
624.072	23854.06
624.267	23548.91
624.462	23563.25
624.656	23178.23
624.851	23229.43
625.046	23010.29
625.24	23145.46
625.435	22807.55
625.629	22588.41
625.824	22436.86
626.018	22408.19
626.213	22053.89
626.407	22236.16
626.602	22029.32
626.796	22111.24
626.991	22000.65
627.185	21464.08
627.38	21511.18
627.574	21378.06
627.768	21238.8
627.963	21328.91
628.157	21179.41
628.352	21382.16
628.546	20661.27
628.74	21097.49
628.935	20628.51
629.129	20691.99
629.323	20139.04
629.517	20220.96
629.712	20313.12
629.906	20186.15
630.1	19825.7
630.294	20141.09
630.489	19858.47
630.683	19665.96
630.877	19751.98
631.071	19543.08
631.265	19823.65
631.459	19432.49
631.653	19242.03
631.848	18953.27
632.042	18963.51
632.236	19102.77
632.43	18910.26
632.624	18828.34
632.818	18791.48
633.012	18459.71
633.206	18523.19
633.4	18615.35
633.594	18181.18
633.788	18345.02
633.982	18082.88
634.176	18025.54
634.369	17919.04
634.563	18039.87
634.757	17726.53
634.951	17904.71
635.145	17945.67
635.339	17783.88
635.533	17484.87
635.726	17359.95
635.92	17196.11
636.114	17171.54
636.308	17151.06
636.501	17001.55
636.695	17149.01
636.889	16536.67
637.083	16667.74
637.276	16866.39
637.47	16612.44
637.664	16444.51
637.857	16454.75
638.051	16401.5
638.244	15899.75
638.438	16215.13
638.632	15838.31
638.825	15948.9
639.019	15760.48
639.212	15819.88
639.406	15746.15
639.599	15557.74
639.793	15359.08
639.986	15408.23
640.18	15397.99
640.373	15381.61
640.567	15123.57
640.76	15262.83
640.954	14683.25
641.147	14890.1
641.34	14865.52
641.534	14974.06
641.727	14959.73
641.92	14740.6
642.114	14412.92
642.307	14443.64
642.5	14527.61
642.694	14154.88
642.887	14023.81
643.08	14611.57
643.273	14185.6
643.467	14167.17
643.66	13978.75
643.853	13925.5
644.046	13704.32
644.239	13780.1
644.432	13595.78
644.626	13603.97
644.819	13536.39
645.012	13546.63
645.205	13399.18
645.398	13503.62
645.591	13266.06
645.784	13178
645.977	13126.8
646.17	13089.93
646.363	13020.3
646.556	12729.49
646.749	12924.05
646.942	12872.85
647.135	12852.37
647.328	12600.47
647.521	12565.65
647.714	12375.19
647.907	12631.19
648.099	12364.95
648.292	12338.33
648.485	12307.61
648.678	12012.7
648.871	12000.41
649.064	12008.61
649.256	12149.92
649.449	12121.24
649.642	11719.84
649.835	11795.62
650.027	11926.69
650.22	11678.88
650.413	11513
650.605	11701.41
650.798	11439.27
650.991	11379.88
651.183	11457.7
651.376	11439.27
651.568	11568.29
651.761	11443.37
651.954	11332.78
652.146	11052.2
652.339	11218.09
652.531	11021.49
652.724	11140.27
652.916	10785.97
653.109	11044.01
653.301	10941.61
653.494	10661.04
653.686	10499.25
653.879	10728.63
654.071	10564.79
654.263	10400.95
654.456	10570.93
654.648	10605.75
654.84	10202.3
655.033	10347.7
655.225	10284.22
655.417	10126.52
655.61	10194.11
655.802	10300.6
655.994	9862.33
656.186	9974.97
656.379	9999.55
656.571	9831.62
656.763	9747.65
656.955	9831.62
657.148	9761.98
657.34	9768.13
657.532	9653.44
657.724	9376.97
657.916	9546.95
658.108	9745.6
658.3	9262.28
658.492	9331.91
658.684	9366.73
658.876	9315.53
659.068	9120.97
659.26	9217.22
659.452	9221.32
659.644	9233.61
659.836	8953.04
660.028	9028.81
660.22	8793.3
660.412	8920.27
660.604	9012.43
660.796	8875.21
660.988	8731.86
661.18	8721.62
661.372	8803.53
661.563	8719.57
661.755	8611.03
661.947	8721.62
662.139	8555.73
662.331	8645.84
662.522	8463.57
662.714	8379.61
662.906	8404.18
663.097	8506.58
663.289	8355.03
663.481	8205.53
663.673	8262.87
663.864	8187.1
664.056	8029.4
664.247	8256.73
664.439	7994.59
664.631	8260.82
664.822	8047.83
665.014	8021.21
665.205	7980.25
665.397	7927
665.588	7970.01
665.78	7939.29
665.971	7787.74
666.163	7845.09
666.354	7668.96
666.546	7621.86
666.737	7621.86
666.929	7711.97
667.12	7699.68
667.311	7556.32
667.503	7367.91
667.694	7498.98
667.885	7361.76
668.077	7527.65
668.268	7232.74
668.459	7273.7
668.651	7423.2
668.842	7187.69
669.033	7181.54
669.224	7230.69
669.416	7380.2
669.607	7281.89
669.798	7245.03
669.989	7236.84
670.18	7156.97
670.371	7073
670.563	6927.6
670.754	7132.39
670.945	7052.52
671.136	7062.76
671.327	6917.36
671.518	6835.44
671.709	6866.16
671.9	7066.86
672.091	7058.67
672.282	6862.06
672.473	6919.4
672.664	6915.31
672.855	6755.57
673.046	6837.49
673.237	6788.33
673.428	6712.56
673.619	6599.92
673.809	6720.75
674	6835.44
674.191	6716.65
674.382	6679.79
674.573	6565.11
674.764	6616.3
674.954	6784.24
675.145	6544.63
675.336	6624.5
675.527	6513.91
675.717	6550.77
675.908	6513.91
676.099	6474.99
676.289	6618.35
676.48	6626.54
676.671	6425.84
676.861	6280.44
677.052	6419.7
677.243	6415.6
677.433	6300.92
677.624	6487.28
677.814	6485.23
678.005	6423.8
678.195	6341.88
678.386	6294.77
678.576	6264.05
678.767	6327.54
678.957	6184.18
679.148	6395.12
679.338	6345.97
679.529	6194.42
679.719	6147.32
679.909	6352.12
680.1	6327.54
680.29	6221.05
680.481	6298.87
680.671	6245.62
680.861	6247.67
681.052	6161.66
681.242	6067.45
681.432	6212.85
681.622	6094.07
681.813	6116.6
682.003	6229.24
682.193	6034.68
682.383	6266.1
682.573	6188.28
682.764	6077.69
682.954	6089.98
683.144	6175.99
683.334	6055.16
683.524	6173.94
683.714	6028.54
683.904	5952.76
684.094	6210.81
684.284	6051.06
684.474	6180.09
684.664	6071.54
684.854	5885.18
685.044	5778.69
685.234	5971.19
685.424	5891.32
685.614	5774.59
685.804	5805.31
685.994	5936.38
686.184	5893.37
686.374	5840.12
686.564	5840.12
686.753	5793.02
686.943	5696.77
687.133	5831.93
687.323	5774.59
687.513	5754.11
687.702	5606.66
687.892	5760.25
688.082	5614.85
688.272	5657.86
688.461	5487.87
688.651	5596.42
688.841	5590.27
689.03	5592.32
689.22	5442.82
689.41	5453.06
689.599	5264.65
689.789	5303.56
689.979	5295.36
690.168	5436.67
690.358	5264.65
690.547	5270.79
690.737	5338.37
690.926	5367.04
691.116	5197.06
691.305	5225.73
691.495	5018.89
691.684	5031.18
691.874	5127.43
692.063	5045.51
692.252	5045.51
692.442	5145.86
692.631	4873.48
692.82	5018.89
693.01	4920.59
693.199	4918.54
693.388	4859.15
693.578	4801.8
693.767	5025.03
693.956	4834.57
694.146	4814.09
694.335	4781.32
694.524	4699.41
694.713	4795.66
694.902	4699.41
695.092	4810
695.281	4805.9
695.47	4881.67
695.659	4732.17
695.848	4713.74
696.037	4713.74
696.226	4695.31
696.415	4721.93
696.604	4756.75
696.793	4637.97
696.982	4689.17
697.171	4656.4
697.36	4504.85
697.549	4535.57
697.738	4510.99
697.927	4455.7
698.116	4381.97
698.305	4525.33
698.494	4445.46
698.683	4494.61
698.872	4660.49
699.061	4578.58
699.25	4535.57
699.438	4439.31
699.627	4515.09
699.816	4617.49
700.005	4463.89
700.193	4449.55
700.382	4336.92
700.571	4418.83
700.76	4472.08
700.948	4341.01
701.137	4564.24
701.326	4414.74
701.514	4484.37
701.703	4263.19
701.892	4394.26
702.08	4508.94
702.269	4480.27
702.457	4345.11
702.646	4535.57
702.834	4386.07
703.023	4390.16
703.212	4519.18
703.4	4451.6
703.589	4291.86
703.777	4369.68
703.965	4441.36
704.154	4312.34
704.342	4220.18
704.531	4259.09
704.719	4218.13
704.907	4390.16
705.096	4246.8
705.284	4437.27
705.472	4320.53
705.661	4275.48
705.849	4361.49
706.037	4474.13
706.226	4234.52
706.414	4304.15
706.602	4316.44
706.79	4318.48
706.979	4375.83
707.167	4363.54
707.355	4312.34
707.543	4355.35
707.731	4365.59
707.919	4361.49
708.107	4203.8
708.296	4330.77
708.484	4250.9
708.672	4283.67
708.86	4369.68
709.048	4500.75
709.236	4484.37
709.424	4422.93
709.612	4394.26
709.8	4312.34
709.988	4271.38
710.176	4367.63
710.364	4310.29
710.551	4287.76
710.739	4341.01
710.927	4277.52
711.115	4361.49
711.303	4412.69
711.491	4449.55
711.679	4295.96
711.866	4281.62
712.054	4392.21
712.242	4361.49
712.43	4461.84
712.617	4298
712.805	4330.77
712.993	4336.92
713.181	4181.27
713.368	4404.5
713.556	4404.5
713.744	4318.48
713.931	4543.76
714.119	4355.35
714.306	4371.73
714.494	4447.51
714.682	4240.66
714.869	4191.51
715.057	4416.79
715.244	4355.35
715.432	4408.59
715.619	4304.15
715.807	4396.31
715.994	4359.44
716.182	4265.24
716.369	4392.21
716.556	4437.27
716.744	4283.67
716.931	4375.83
717.119	4480.27
717.306	4390.16
717.493	4461.84
717.681	4359.44
717.868	4345.11
718.055	4390.16
718.242	4412.69
718.43	4527.38
718.617	4453.65
718.804	4386.07
718.991	4353.3
719.179	4582.67
719.366	4414.74
719.553	4359.44
719.74	4539.66
719.927	4412.69
720.114	4381.97
720.301	4533.52
720.488	4461.84
720.676	4347.15
720.863	4353.3
721.05	4363.54
721.237	4384.02
721.424	4451.6
721.611	4375.83
721.798	4398.35
721.985	4510.99
722.172	4510.99
722.358	4467.99
722.545	4642.06
722.732	4345.11
722.919	4541.71
723.106	4388.11
723.293	4384.02
723.48	4330.77
723.667	4375.83
723.853	4461.84
724.04	4510.99
724.227	4478.23
724.414	4521.23
724.6	4478.23
724.787	4529.42
724.974	4490.51
725.161	4633.87
725.347	4445.46
725.534	4482.32
725.72	4408.59
725.907	4551.95
726.094	4502.8
726.28	4412.69
726.467	4508.94
726.653	4453.65
726.84	4457.75
727.027	4613.39
727.213	4338.96
727.4	4584.72
727.586	4549.9
727.773	4437.27
727.959	4472.08
728.145	4623.63
728.332	4492.56
728.518	4578.58
728.705	4504.85
728.891	4685.07
729.077	4410.64
729.264	4498.7
729.45	4560.14
729.636	4470.03
729.823	4353.3
730.009	4539.66
730.195	4568.34
730.382	4599.06
730.568	4586.77
730.754	4451.6
730.94	4353.3
731.126	4410.64
731.313	4433.17
731.499	4482.32
731.685	4590.86
731.871	4537.62
732.057	4678.93
732.243	4685.07
732.429	4402.45
732.615	4463.89
732.801	4486.42
732.987	4453.65
733.173	4549.9
733.359	4527.38
733.545	4472.08
733.731	4508.94
733.917	4556.05
734.103	4345.11
734.289	4527.38
734.475	4377.87
734.661	4494.61
734.847	4490.51
735.033	4447.51
735.219	4377.87
735.404	4490.51
735.59	4476.18
735.776	4318.48
735.962	4390.16
736.148	4437.27
736.333	4500.75
736.519	4476.18
736.705	4480.27
736.89	4334.87
737.076	4435.22
737.262	4277.52
737.447	4326.68
737.633	4388.11
737.819	4357.39
738.004	4312.34
738.19	4459.79
738.375	4326.68
738.561	4418.83
738.747	4226.32
738.932	4400.4
739.118	4320.53
739.303	4263.19
739.489	4343.06
739.674	4289.81
739.859	4195.61
740.045	4218.13
740.23	4214.04
740.416	4168.98
740.601	4242.71
740.786	4191.51
740.972	4140.31
741.157	4123.93
741.342	4033.82
741.528	4054.3
741.713	4291.86
741.898	4218.13
742.084	4150.55
742.269	4187.41
742.454	4128.02
742.639	4164.89
742.824	4031.77
743.01	4162.84
743.195	4085.02
743.38	3978.52
743.565	3943.71
743.75	4146.45
743.935	3972.38
744.12	4074.78
744.305	3882.27
744.49	3880.22
744.675	3808.54
744.86	3925.27
745.045	3898.65
745.23	3984.66
745.415	3925.27
745.6	3829.02
745.785	3751.2
745.97	3816.73
746.155	3704.09
746.34	3798.3
746.525	3665.18
746.71	3751.2
746.895	3656.99
747.079	3564.83
747.264	3441.95
747.449	3695.9
747.634	3560.74
747.819	3493.15
748.003	3591.45
748.188	3519.78
748.373	3597.6
748.557	3507.49
748.742	3624.22
748.927	3444
749.111	3435.81
749.296	3292.45
749.481	3392.8
749.665	3487.01
749.85	3384.61
750.034	3312.93
750.219	3380.51
750.404	3202.34
750.588	3218.72
750.773	3147.05
750.957	3261.73
751.141	3231.01
751.326	3040.55
751.51	3126.57
751.695	3206.44
751.879	3175.72
752.064	3089.7
752.248	3020.07
752.432	3104.04
752.617	3134.76
752.801	2977.06
752.985	3001.64
753.17	3024.17
753.354	2979.11
753.538	2962.73
753.722	2821.42
753.907	2911.53
754.091	2813.23
754.275	2903.34
754.459	2796.84
754.643	2739.5
754.828	2641.2
755.012	2845.99
755.196	2731.31
755.38	2710.83
755.564	2712.88
755.748	2661.68
755.932	2735.4
756.116	2608.43
756.3	2600.24
756.484	2542.89
756.668	2579.76
756.852	2620.72
757.036	2575.66
757.22	2460.98
757.404	2401.58
757.588	2528.56
757.772	2538.8
757.956	2385.2
758.14	2522.41
758.323	2321.71
758.507	2428.21
758.691	2350.39
758.875	2448.69
759.059	2254.13
759.242	2342.19
759.426	2381.1
759.61	2284.85
759.794	2307.38
759.977	2301.23
760.161	2522.41
760.345	2121.01
760.528	2211.12
760.712	2231.6
760.895	2174.26
761.079	2174.26
761.263	2139.44
761.446	2096.44
761.63	2141.49
761.813	2049.33
761.997	2182.45
762.18	2182.45
762.364	2043.19
762.547	2055.48
762.731	2028.85
762.914	2075.96
763.098	2061.62
763.281	1940.79
763.464	2061.62
763.648	2049.33
763.831	1957.18
764.015	1951.03
764.198	2008.37
764.381	1961.27
764.564	1955.13
764.748	1981.75
764.931	1961.27
765.114	1828.15
765.297	1850.68
765.481	1991.99
765.664	1969.46
765.847	1910.07
766.03	1957.18
766.213	1844.54
766.397	1899.83
766.58	1819.96
766.763	1953.08
766.946	1758.52
767.129	1817.91
767.312	1740.09
767.495	1787.19
767.678	1879.35
767.861	1735.99
768.044	1834.3
768.227	1719.61
768.41	1774.91
768.593	1862.97
768.776	1709.37
768.959	1709.37
769.142	1768.76
769.324	1645.88
769.507	1725.75
769.69	1588.54
769.873	1649.98
770.056	1652.03
770.239	1664.32
770.421	1774.91
770.604	1715.52
770.787	1662.27
770.97	1584.45
771.152	1598.78
771.335	1633.6
771.518	1709.37
771.7	1609.02
771.883	1541.44
772.066	1574.21
772.248	1600.83
772.431	1582.4
772.613	1740.09
772.796	1461.57
772.978	1527.1
773.161	1590.59
773.343	1443.14
773.526	1523.01
773.708	1459.52
773.891	1461.57
774.073	1498.43
774.256	1406.27
774.438	1512.77
774.621	1412.42
774.803	1393.98
774.985	1420.61
775.168	1422.66
775.35	1408.32
775.532	1363.26
775.715	1408.32
775.897	1398.08
776.079	1408.32
776.261	1346.88
776.444	1353.02
776.626	1412.42
776.808	1353.02
776.99	1248.58
777.173	1281.35
777.355	1275.2
777.537	1244.48
777.719	1326.4
777.901	1289.54
778.083	1217.86
778.265	1197.38
778.447	1234.24
778.629	1150.28
778.811	1271.11
778.993	1203.52
779.175	1178.95
779.357	1269.06
779.539	1056.07
779.721	1234.24
779.903	1160.52
780.085	1119.56
780.267	1072.45
780.449	1183.04
780.631	1043.78
780.812	1072.45
780.994	1021.25
781.176	980.29
781.358	1025.35
781.54	1070.4
781.721	1119.56
781.903	1017.16
782.085	1070.4
782.267	1047.88
782.448	1056.07
782.63	961.86
782.812	1150.28
782.993	965.96
783.175	1076.55
783.357	957.77
783.538	908.62
783.72	892.23
783.901	1027.4
784.083	957.77
784.264	988.49
784.446	925
784.627	847.18
784.809	857.42
784.99	904.52
785.172	931.14
785.353	853.32
785.535	912.71
785.716	863.56
785.897	785.74
786.079	781.64
786.26	892.23
786.441	965.96
786.623	726.35
786.804	816.46
786.985	810.31
787.167	855.37
787.348	812.36
787.529	783.69
787.71	896.33
787.891	752.97
788.073	740.68
788.254	759.11
788.435	755.02
788.616	732.49
788.797	703.82
788.978	650.57
789.159	718.15
789.34	685.39
789.522	791.88
789.703	812.36
789.884	746.83
790.065	767.31
790.246	705.87
790.427	720.2
790.607	709.96
790.788	755.02
790.969	677.19
791.15	691.53
791.331	650.57
791.512	585.04
791.693	591.18
791.874	642.38
792.054	687.43
792.235	666.96
792.416	574.8
792.597	574.8
792.778	724.3
792.958	644.43
793.139	716.11
793.32	611.66
793.5	568.65
793.681	652.62
793.862	677.19
794.042	628.04
794.223	570.7
794.404	574.8
794.584	552.27
794.765	513.36
794.945	523.6
795.126	529.74
795.306	587.08
795.487	568.65
795.667	556.36
795.848	560.46
796.028	576.84
796.209	603.47
796.389	570.7
796.57	560.46
796.75	470.35
796.93	595.28
797.111	503.12
797.291	466.25
797.471	605.52
797.652	472.4
797.832	507.21
798.012	533.84
798.192	470.35
798.373	449.87
798.553	521.55
798.733	554.32
798.913	542.03
799.093	490.83
799.274	611.66
799.454	482.64
799.634	519.5
799.814	480.59
799.994	515.41
800.174	466.25
800.354	529.74
800.534	396.62
800.714	554.32
800.894	470.35
801.074	433.49
801.254	392.53
801.434	486.73
801.614	437.58
801.794	458.06
801.974	1289.54
802.154	439.63
802.334	435.53
802.514	320.85
802.693	433.49
802.873	417.1
803.053	464.21
803.233	349.52
803.413	413.01
803.592	437.58
803.772	374.1
803.952	519.5
804.131	384.34
804.311	382.29
804.491	488.78
804.67	388.43
804.85	415.06
805.03	382.29
805.209	499.02
805.389	298.32
805.568	415.06
805.748	326.99
805.928	382.29
806.107	458.06
806.287	460.11
806.466	400.72
806.646	421.2
806.825	410.96
807.004	337.23
807.184	316.75
807.363	437.58
807.543	421.2
807.722	341.33
807.901	324.94
808.081	339.28
808.26	275.79
808.439	388.43
808.619	341.33
808.798	314.7
808.977	384.34
809.156	374.1
809.336	306.51
809.515	374.1
809.694	288.08
809.873	290.13
810.052	292.18
810.231	277.84
810.411	324.94
810.59	351.57
810.769	322.9
810.948	308.56
811.127	236.88
811.306	337.23
811.485	337.23
811.664	439.63
811.843	263.51
812.022	347.47
812.201	318.8
812.38	286.03
812.559	230.74
812.737	314.7
812.916	257.36
813.095	257.36
813.274	326.99
813.453	257.36
813.632	304.46
813.811	283.99
813.989	245.07
814.168	243.03
814.347	230.74
814.526	294.22
814.704	326.99
814.883	302.42
815.062	290.13
815.24	333.14
815.419	224.59
815.598	290.13
815.776	245.07
815.955	318.8
816.133	165.2
816.312	286.03
816.49	253.27
816.669	275.79
816.847	253.27
817.026	306.51
817.204	263.51
817.383	261.46
817.561	134.48
817.74	273.75
817.918	232.79
818.097	167.25
818.275	245.07
818.453	263.51
818.632	238.93
818.81	218.45
818.988	202.07
819.167	183.63
819.345	234.83
819.523	234.83
819.701	247.12
819.879	300.37
820.058	202.07
820.236	187.73
820.414	240.98
820.592	286.03
820.77	228.69
820.948	251.22
821.127	189.78
821.305	236.88
821.483	234.83
821.661	240.98
821.839	140.63
822.017	128.34
822.195	193.87
822.373	177.49
822.551	232.79
822.729	318.8
822.907	234.83
823.085	220.5
823.262	257.36
823.44	183.63
823.618	200.02
823.796	202.07
823.974	214.35
824.152	175.44
824.329	189.78
824.507	212.31
824.685	230.74
824.863	161.11
825.04	218.45
825.218	200.02
825.396	167.25
825.574	204.11
825.751	222.55
825.929	202.07
826.107	140.63
826.284	167.25
826.462	240.98
826.639	167.25
826.817	130.39
826.994	224.59
827.172	120.15
827.349	263.51
827.527	154.96
827.704	212.31
827.882	169.3
828.059	111.96
828.237	126.29
828.414	183.63
828.591	120.15
828.769	234.83
828.946	79.19
829.124	240.98
829.301	150.87
829.478	236.88
829.655	134.48
829.833	105.81
830.01	150.87
830.187	187.73
830.364	114
830.542	154.96
830.719	202.07
830.896	216.4
831.073	191.83
831.25	195.92
831.427	154.96
831.604	214.35
831.782	148.82
831.959	169.3
832.136	81.24
832.313	114
832.49	116.05
832.667	171.35
832.844	85.33
833.021	157.01
833.198	134.48
833.374	210.26
833.551	165.2
833.728	144.72
833.905	185.68
834.082	60.76
834.259	120.15
834.436	152.92
834.612	130.39
834.789	187.73
834.966	122.2
835.143	173.39
835.319	32.08
835.496	159.06
835.673	175.44
835.85	148.82
836.026	175.44
836.203	136.53
836.38	109.91
836.556	134.48
836.733	71
836.909	216.4
837.086	103.76
837.262	11.61
837.439	118.1
837.616	118.1
837.792	83.28
837.968	101.72
838.145	62.8
838.321	111.96
838.498	134.48
838.674	148.82
838.851	159.06
839.027	101.72
839.203	91.48
839.38	146.77
839.556	71
839.732	234.83
839.909	85.33
840.085	150.87
840.261	36.18
840.437	118.1
840.614	79.19
840.79	87.38
840.966	142.68
841.142	124.24
841.318	150.87
841.494	68.95
841.671	111.96
841.847	101.72
842.023	130.39
842.199	48.47
842.375	159.06
842.551	118.1
842.727	23.89
842.903	181.59
843.079	32.08
843.255	142.68
843.431	111.96
843.607	89.43
843.783	68.95
843.959	111.96
844.134	103.76
844.31	159.06
844.486	85.33
844.662	109.91
844.838	161.11
845.013	64.85
845.189	42.32
845.365	157.01
845.541	93.52
845.716	169.3
845.892	95.57
846.068	46.42
846.244	40.28
846.419	44.37
846.595	13.65
846.77	48.47
846.946	118.1
847.122	21.85
847.297	77.14
847.473	64.85
847.648	48.47
847.824	85.33
847.999	5.46
848.175	109.91
848.35	91.48
848.526	77.14
848.701	191.83
848.876	101.72
849.052	163.15
849.227	60.76
849.403	77.14
849.578	60.76
849.753	105.81
849.929	95.57
850.104	19.8
850.279	81.24
850.454	87.38
850.63	109.91
850.805	13.65
850.98	62.8
851.155	79.19
851.33	27.99
851.505	87.38
851.681	77.14
851.856	95.57
852.031	167.25
852.206	42.32
852.381	46.42
852.556	68.95
852.731	93.52
852.906	91.48
853.081	40.28
853.256	105.81
853.431	85.33
853.606	-21.16
853.781	-29.35
853.956	11.61
854.131	23.89
854.305	34.13
854.48	30.04
854.655	48.47
854.83	91.48
855.005	38.23
855.18	30.04
855.354	85.33
855.529	77.14
855.704	32.08
855.879	36.18
856.053	62.8
856.228	48.47
856.403	11.61
856.577	81.24
856.752	73.04
856.926	-25.26
857.101	32.08
857.276	68.95
857.45	66.9
857.625	60.76
857.799	52.56
857.974	32.08
858.148	19.8
858.323	54.61
858.497	-8.87
858.672	-6.83
858.846	23.89
859.02	132.44
859.195	23.89
859.369	44.37
859.543	93.52
859.718	11.61
859.892	64.85
860.066	1.37
860.241	46.42
860.415	40.28
860.589	-21.16
860.763	-37.55
860.938	25.94
861.112	89.43
861.286	-10.92
861.46	109.91
861.634	52.56
861.808	91.48
861.982	-27.31
862.157	-21.16
862.331	30.04
862.505	56.66
862.679	21.85
862.853	9.56
863.027	46.42
863.201	54.61
863.375	58.71
863.549	128.34
863.722	13.65
863.896	95.57
864.07	-4.78
864.244	-86.7
864.418	148.82
864.592	42.32
864.766	36.18
864.939	30.04
865.113	-8.87
865.287	120.15
865.461	-2.73
865.634	81.24
865.808	38.23
865.982	17.75
866.156	-96.94
866.329	-15.02
866.503	5.46
866.676	60.76
866.85	91.48
867.024	9.56
867.197	109.91
867.371	93.52
867.544	7.51
867.718	-10.92
867.891	73.04
868.065	-23.21
868.238	23.89
868.412	93.52
868.585	79.19
868.759	19.8
868.932	13.65
869.105	-68.27
869.279	36.18
869.452	62.8
869.625	13.65
869.799	17.75
869.972	-41.64
870.145	36.18
870.319	50.52
870.492	30.04
870.665	40.28
870.838	64.85
871.011	-58.03
871.185	-6.83
871.358	13.65
871.531	68.95
871.704	5.46
871.877	36.18
872.05	25.94
872.223	25.94
872.396	103.76
872.569	87.38
872.742	21.85
872.915	64.85
873.088	-62.12
873.261	73.04
873.434	71
873.607	38.23
873.78	21.85
873.953	-53.93
874.126	15.7
874.299	34.13
874.471	54.61
874.644	52.56
874.817	75.09
874.99	107.86
875.163	38.23
875.335	79.19
875.508	50.52
875.681	27.99
875.853	52.56
876.026	-12.97
876.199	13.65
876.371	79.19
876.544	5.46
876.717	97.62
876.889	3.41
877.062	7.51
877.234	-12.97
877.407	114
877.579	30.04
877.752	68.95
877.924	-25.26
878.097	126.29
878.269	13.65
878.442	-4.78
878.614	85.33
878.786	87.38
878.959	64.85
879.131	44.37
879.303	-12.97
879.476	-10.92
879.648	21.85
879.82	-12.97
879.993	-68.27
880.165	13.65
880.337	11.61
880.509	38.23
880.681	7.51
880.854	27.99
881.026	32.08
881.198	138.58
881.37	11.61
881.542	83.28
881.714	1.37
881.886	124.24
882.058	23.89
882.23	32.08
882.402	-23.21
882.574	21.85
882.746	87.38
882.918	107.86
883.09	122.2
883.262	9.56
883.434	-33.45
883.606	-60.07
883.778	27.99
883.95	73.04
884.122	-17.07
884.293	81.24
884.465	19.8
884.637	77.14
884.809	7.51
884.98	-31.4
885.152	48.47
885.324	36.18
885.496	34.13
885.667	19.8
885.839	-58.03
886.011	114
886.182	48.47
886.354	126.29
886.525	15.7
886.697	3.41
886.869	7.51
887.04	-0.68
887.212	34.13
887.383	52.56
887.555	3.41
887.726	9.56
887.897	30.04
888.069	46.42
888.24	58.71
888.412	15.7
888.583	3.41
888.754	-12.97
888.926	27.99
889.097	36.18
889.268	-10.92
889.44	56.66
889.611	-33.45
889.782	36.18
889.953	-37.55
890.125	62.8
890.296	-8.87
890.467	54.61
890.638	7.51
890.809	60.76
890.98	5.46
891.151	48.47
891.323	7.51
891.494	40.28
891.665	-33.45
891.836	-33.45
892.007	11.61
892.178	27.99
892.349	-6.83
892.52	-70.31
892.691	40.28
892.862	-45.74
893.032	-45.74
893.203	-45.74
893.374	9.56
893.545	13.65
893.716	-66.22
893.887	25.94
894.057	-62.12
894.228	11.61
894.399	-19.11
894.57	9.56
894.74	1.37
894.911	-23.21
895.082	62.8
895.253	3.41
895.423	46.42
895.594	52.56
895.764	11.61
895.935	-12.97
896.106	32.08
896.276	-53.93
896.447	38.23
896.617	36.18
896.788	-29.35
896.958	-47.79
897.129	-31.4
897.299	-37.55
897.47	-10.92
897.64	-19.11
897.81	13.65
897.981	42.32
898.151	19.8
898.322	60.76
898.492	40.28
898.662	54.61
898.832	30.04
899.003	-2.73
899.173	134.48
899.343	3.41
899.513	-70.31
