Data from USB4F104151__47__13-05-23-164.txt Node

Date: Fri Mar 14 13:05:23 EDT 2025
User: louis
Spectrometer: USB4F10415
Trigger mode: 4
Integration Time (sec): 4.000000E-2
Scans to average: 1
Electric dark correction enabled: true
Nonlinearity correction enabled: false
Boxcar width: 0
XAxis mode: Wavelengths
Number of Pixels in Spectrum: 3648
>>>>>Begin Spectral Data<<<<<
178.204	-242.51
178.424	-242.51
178.644	-242.51
178.864	-103.25
179.084	-185.17
179.304	-7
179.524	19.63
179.744	-2.9
179.964	31.91
180.184	9.39
180.404	1.19
180.624	-62.29
180.844	13.48
181.064	-39.76
181.283	62.63
181.503	-68.44
181.723	42.15
181.943	-47.96
182.163	91.31
182.383	-80.72
182.602	85.16
182.822	76.97
183.042	-4.95
183.262	-21.33
183.482	-47.96
183.701	-11.09
183.921	13.48
184.141	11.43
184.361	87.21
184.58	60.59
184.8	85.16
185.02	-52.05
185.239	-4.95
185.459	23.72
185.679	72.87
185.898	-21.33
186.118	74.92
186.338	33.96
186.557	-29.52
186.777	33.96
186.997	27.82
187.216	44.2
187.436	99.5
187.655	56.49
187.875	72.87
188.095	-9.05
188.314	74.92
188.534	52.39
188.753	38.06
188.973	15.53
189.192	126.12
189.412	9.39
189.631	58.54
189.851	11.43
190.07	162.98
190.29	-21.33
190.509	48.3
190.729	3.24
190.948	38.06
191.168	201.9
191.387	9.39
191.607	-35.67
191.826	60.59
192.045	21.67
192.265	21.67
192.484	74.92
192.704	33.96
192.923	-7
193.142	50.35
193.362	44.2
193.581	81.07
193.8	5.29
194.02	50.35
194.239	89.26
194.458	74.92
194.678	9.39
194.897	9.39
195.116	58.54
195.335	3.24
195.555	83.11
195.774	-19.29
195.993	42.15
196.212	-64.34
196.432	15.53
196.651	33.96
196.87	21.67
197.089	87.21
197.308	70.83
197.528	-0.85
197.747	-33.62
197.966	23.72
198.185	3.24
198.404	11.43
198.623	27.82
198.842	83.11
199.062	44.2
199.281	1.19
199.5	42.15
199.719	21.67
199.938	-19.29
200.157	117.93
200.376	85.16
200.595	44.2
200.814	46.25
201.033	-35.67
201.252	-7
201.471	-31.57
201.69	46.25
201.909	74.92
202.128	54.44
202.347	15.53
202.566	44.2
202.785	9.39
203.004	-97.11
203.223	113.83
203.442	1.19
203.661	-47.96
203.879	-66.39
204.098	-4.95
204.317	-43.86
204.536	-7
204.755	3.24
204.974	-19.29
205.193	33.96
205.411	68.78
205.63	62.63
205.849	29.87
206.068	33.96
206.287	-39.76
206.505	40.11
206.724	58.54
206.943	-29.52
207.162	31.91
207.381	-97.11
207.599	23.72
207.818	48.3
208.037	-41.81
208.255	-23.38
208.474	-13.14
208.693	23.72
208.911	21.67
209.13	36.01
209.349	64.68
209.567	1.19
209.786	91.31
210.005	91.31
210.223	19.63
210.442	-45.91
210.661	27.82
210.879	40.11
211.098	9.39
211.316	87.21
211.535	74.92
211.753	-23.38
211.972	89.26
212.191	-72.53
212.409	54.44
212.628	31.91
212.846	-39.76
213.065	-9.05
213.283	44.2
213.502	42.15
213.72	54.44
213.938	21.67
214.157	7.34
214.375	56.49
214.594	33.96
214.812	54.44
215.031	91.31
215.249	70.83
215.467	-62.29
215.686	-19.29
215.904	72.87
216.122	72.87
216.341	27.82
216.559	91.31
216.778	72.87
216.996	103.59
217.214	9.39
217.432	38.06
217.651	-29.52
217.869	70.83
218.087	-7
218.306	-39.76
218.524	46.25
218.742	21.67
218.96	-7
219.179	-17.24
219.397	29.87
219.615	165.03
219.833	9.39
220.051	27.82
220.27	60.59
220.488	87.21
220.706	91.31
220.924	33.96
221.142	-11.09
221.36	-19.29
221.578	44.2
221.796	40.11
222.015	-19.29
222.233	81.07
222.451	74.92
222.669	3.24
222.887	17.58
223.105	-52.05
223.323	-13.14
223.541	-27.48
223.759	58.54
223.977	21.67
224.195	68.78
224.413	87.21
224.631	83.11
224.849	15.53
225.067	48.3
225.285	-37.72
225.503	-25.43
225.721	-99.16
225.939	42.15
226.157	-11.09
226.375	132.26
226.592	-60.24
226.81	-15.19
227.028	33.96
227.246	46.25
227.464	52.39
227.682	25.77
227.9	91.31
228.117	42.15
228.335	83.11
228.553	40.11
228.771	85.16
228.989	5.29
229.206	21.67
229.424	1.19
229.642	56.49
229.86	27.82
230.077	1.19
230.295	36.01
230.513	46.25
230.731	68.78
230.948	27.82
231.166	105.64
231.384	29.87
231.601	44.2
231.819	115.88
232.037	-4.95
232.254	-68.44
232.472	-4.95
232.689	3.24
232.907	52.39
233.125	23.72
233.342	50.35
233.56	-15.19
233.777	66.73
233.995	1.19
234.213	87.21
234.43	19.63
234.648	23.72
234.865	-76.63
235.083	31.91
235.3	-41.81
235.518	91.31
235.735	87.21
235.953	29.87
236.17	21.67
236.388	23.72
236.605	31.91
236.822	44.2
237.04	-0.85
237.257	21.67
237.475	19.63
237.692	42.15
237.909	42.15
238.127	-4.95
238.344	136.36
238.562	-2.9
238.779	-25.43
238.996	-121.68
239.214	-64.34
239.431	83.11
239.648	-0.85
239.865	11.43
240.083	31.91
240.3	-9.05
240.517	-58.2
240.735	-19.29
240.952	128.17
241.169	130.22
241.386	1.19
241.603	-4.95
241.821	-7
242.038	66.73
242.255	17.58
242.472	-15.19
242.689	19.63
242.907	48.3
243.124	-15.19
243.341	46.25
243.558	-13.14
243.775	3.24
243.992	-39.76
244.209	70.83
244.426	54.44
244.643	19.63
244.86	40.11
245.078	23.72
245.295	62.63
245.512	79.02
245.729	27.82
245.946	48.3
246.163	42.15
246.38	23.72
246.597	29.87
246.814	58.54
247.031	-4.95
247.248	23.72
247.464	58.54
247.681	-19.29
247.898	109.74
248.115	64.68
248.332	-9.05
248.549	66.73
248.766	74.92
248.983	-15.19
249.2	9.39
249.417	27.82
249.633	79.02
249.85	85.16
250.067	1.19
250.284	-41.81
250.501	93.35
250.717	17.58
250.934	38.06
251.151	-15.19
251.368	-17.24
251.585	52.39
251.801	72.87
252.018	1.19
252.235	109.74
252.451	-58.2
252.668	15.53
252.885	58.54
253.102	83.11
253.318	50.35
253.535	-27.48
253.752	5.29
253.968	70.83
254.185	64.68
254.401	76.97
254.618	-17.24
254.835	13.48
255.051	111.78
255.268	33.96
255.484	-15.19
255.701	134.31
255.917	44.2
256.134	-23.38
256.351	33.96
256.567	15.53
256.784	23.72
257	-15.19
257.217	9.39
257.433	81.07
257.65	33.96
257.866	152.74
258.082	1.19
258.299	19.63
258.515	-23.38
258.732	29.87
258.948	25.77
259.165	66.73
259.381	5.29
259.597	95.4
259.814	60.59
260.03	40.11
260.246	29.87
260.463	66.73
260.679	62.63
260.895	115.88
261.112	3.24
261.328	11.43
261.544	-13.14
261.761	68.78
261.977	5.29
262.193	-25.43
262.409	74.92
262.626	13.48
262.842	25.77
263.058	-7
263.274	136.36
263.49	87.21
263.707	85.16
263.923	5.29
264.139	-19.29
264.355	76.97
264.571	66.73
264.787	29.87
265.004	101.55
265.22	13.48
265.436	-4.95
265.652	15.53
265.868	91.31
266.084	-62.29
266.3	83.11
266.516	27.82
266.732	-19.29
266.948	-13.14
267.164	11.43
267.38	7.34
267.596	27.82
267.812	64.68
268.028	1.19
268.244	13.48
268.46	13.48
268.676	11.43
268.892	9.39
269.108	15.53
269.324	-66.39
269.54	7.34
269.756	83.11
269.972	25.77
270.188	13.48
270.403	66.73
270.619	1.19
270.835	-0.85
271.051	99.5
271.267	50.35
271.483	-33.62
271.698	23.72
271.914	-37.72
272.13	44.2
272.346	48.3
272.562	-47.96
272.777	50.35
272.993	9.39
273.209	5.29
273.425	79.02
273.64	-23.38
273.856	33.96
274.072	-70.48
274.287	56.49
274.503	81.07
274.719	101.55
274.934	1.19
275.15	36.01
275.366	40.11
275.581	60.59
275.797	-7
276.012	21.67
276.228	60.59
276.444	31.91
276.659	27.82
276.875	-13.14
277.09	42.15
277.306	-27.48
277.521	113.83
277.737	5.29
277.952	87.21
278.168	1.19
278.383	60.59
278.599	-25.43
278.814	44.2
279.03	27.82
279.245	181.42
279.461	58.54
279.676	95.4
279.892	-4.95
280.107	-23.38
280.322	-4.95
280.538	21.67
280.753	36.01
280.969	62.63
281.184	5.29
281.399	36.01
281.615	19.63
281.83	89.26
282.045	-43.86
282.26	19.63
282.476	-23.38
282.691	83.11
282.906	-7
283.122	44.2
283.337	-39.76
283.552	27.82
283.767	42.15
283.983	17.58
284.198	19.63
284.413	19.63
284.628	17.58
284.843	91.31
285.058	124.07
285.274	91.31
285.489	-64.34
285.704	89.26
285.919	-33.62
286.134	3.24
286.349	-29.52
286.564	-23.38
286.779	25.77
286.995	5.29
287.21	17.58
287.425	64.68
287.64	36.01
287.855	101.55
288.07	1.19
288.285	58.54
288.5	81.07
288.715	58.54
288.93	60.59
289.145	7.34
289.36	60.59
289.575	7.34
289.79	42.15
290.004	19.63
290.219	50.35
290.434	95.4
290.649	-50
290.864	29.87
291.079	62.63
291.294	87.21
291.509	50.35
291.724	9.39
291.938	101.55
292.153	-25.43
292.368	-15.19
292.583	9.39
292.798	29.87
293.012	29.87
293.227	-41.81
293.442	11.43
293.657	68.78
293.871	74.92
294.086	7.34
294.301	109.74
294.516	66.73
294.73	85.16
294.945	-47.96
295.16	-7
295.374	76.97
295.589	42.15
295.804	91.31
296.018	-21.33
296.233	113.83
296.447	33.96
296.662	-33.62
296.877	111.78
297.091	13.48
297.306	40.11
297.52	40.11
297.735	44.2
297.949	33.96
298.164	5.29
298.378	-7
298.593	-31.57
298.807	-64.34
299.022	29.87
299.236	60.59
299.451	-47.96
299.665	38.06
299.88	-2.9
300.094	76.97
300.309	-11.09
300.523	-43.86
300.737	-23.38
300.952	29.87
301.166	66.73
301.381	25.77
301.595	7.34
301.809	-4.95
302.024	48.3
302.238	33.96
302.452	113.83
302.667	-23.38
302.881	25.77
303.095	85.16
303.309	-2.9
303.524	-7
303.738	74.92
303.952	-27.48
304.166	50.35
304.381	-58.2
304.595	21.67
304.809	72.87
305.023	-25.43
305.237	25.77
305.452	46.25
305.666	52.39
305.88	107.69
306.094	58.54
306.308	91.31
306.522	60.59
306.736	15.53
306.95	54.44
307.164	17.58
307.379	87.21
307.593	25.77
307.807	9.39
308.021	52.39
308.235	70.83
308.449	1.19
308.663	-13.14
308.877	165.03
309.091	-2.9
309.305	70.83
309.519	-31.57
309.733	48.3
309.947	-47.96
310.161	60.59
310.374	31.91
310.588	107.69
310.802	-4.95
311.016	42.15
311.23	64.68
311.444	19.63
311.658	85.16
311.872	91.31
312.085	85.16
312.299	23.72
312.513	62.63
312.727	42.15
312.941	-39.76
313.154	40.11
313.368	74.92
313.582	115.88
313.796	44.2
314.009	46.25
314.223	-13.14
314.437	23.72
314.651	38.06
314.864	23.72
315.078	66.73
315.292	1.19
315.505	3.24
315.719	17.58
315.933	87.21
316.146	-62.29
316.36	13.48
316.573	52.39
316.787	13.48
317.001	46.25
317.214	-0.85
317.428	5.29
317.641	-21.33
317.855	17.58
318.068	27.82
318.282	50.35
318.495	179.37
318.709	1.19
318.922	-9.05
319.136	140.46
319.349	74.92
319.563	13.48
319.776	103.59
319.99	-103.25
320.203	62.63
320.417	72.87
320.63	74.92
320.843	124.07
321.057	-7
321.27	38.06
321.483	-23.38
321.697	-7
321.91	54.44
322.124	25.77
322.337	99.5
322.55	101.55
322.763	29.87
322.977	25.77
323.19	-50
323.403	-17.24
323.617	38.06
323.83	62.63
324.043	56.49
324.256	42.15
324.469	21.67
324.683	76.97
324.896	56.49
325.109	-27.48
325.322	-58.2
325.535	74.92
325.748	46.25
325.962	11.43
326.175	17.58
326.388	38.06
326.601	-27.48
326.814	17.58
327.027	-17.24
327.24	109.74
327.453	-39.76
327.666	58.54
327.879	113.83
328.092	79.02
328.305	19.63
328.518	13.48
328.731	-45.91
328.944	-23.38
329.157	74.92
329.37	17.58
329.583	91.31
329.796	54.44
330.009	-7
330.222	9.39
330.435	89.26
330.648	62.63
330.861	-7
331.073	36.01
331.286	50.35
331.499	52.39
331.712	38.06
331.925	50.35
332.138	3.24
332.35	93.35
332.563	48.3
332.776	85.16
332.989	-31.57
333.202	31.91
333.414	44.2
333.627	44.2
333.84	9.39
334.053	66.73
334.265	5.29
334.478	15.53
334.691	85.16
334.903	-11.09
335.116	-15.19
335.329	-31.57
335.541	74.92
335.754	171.18
335.966	-37.72
336.179	7.34
336.392	-56.15
336.604	81.07
336.817	42.15
337.029	-7
337.242	42.15
337.454	3.24
337.667	40.11
337.88	140.46
338.092	29.87
338.305	91.31
338.517	44.2
338.729	150.7
338.942	23.72
339.154	-25.43
339.367	19.63
339.579	25.77
339.792	11.43
340.004	60.59
340.217	1.19
340.429	-2.9
340.641	68.78
340.854	-13.14
341.066	62.63
341.278	101.55
341.491	52.39
341.703	-0.85
341.915	-47.96
342.128	132.26
342.34	-2.9
342.552	42.15
342.764	33.96
342.977	1.19
343.189	44.2
343.401	29.87
343.613	-31.57
343.826	3.24
344.038	-29.52
344.25	-29.52
344.462	-2.9
344.674	19.63
344.886	-13.14
345.099	46.25
345.311	66.73
345.523	-13.14
345.735	-7
345.947	17.58
346.159	13.48
346.371	58.54
346.583	19.63
346.795	171.18
347.007	66.73
347.219	60.59
347.431	27.82
347.643	107.69
347.855	42.15
348.067	19.63
348.279	-7
348.491	7.34
348.703	76.97
348.915	38.06
349.127	38.06
349.339	44.2
349.551	-7
349.763	68.78
349.975	-13.14
350.187	97.45
350.399	64.68
350.61	25.77
350.822	93.35
351.034	36.01
351.246	-17.24
351.458	25.77
351.669	64.68
351.881	17.58
352.093	21.67
352.305	95.4
352.517	48.3
352.728	-27.48
352.94	-41.81
353.152	27.82
353.363	58.54
353.575	11.43
353.787	52.39
353.999	33.96
354.21	89.26
354.422	-35.67
354.633	-25.43
354.845	58.54
355.057	38.06
355.268	19.63
355.48	119.98
355.692	-23.38
355.903	25.77
356.115	9.39
356.326	-47.96
356.538	97.45
356.749	56.49
356.961	17.58
357.172	7.34
357.384	48.3
357.595	124.07
357.807	5.29
358.018	3.24
358.23	-33.62
358.441	117.93
358.653	-31.57
358.864	19.63
359.075	-56.15
359.287	72.87
359.498	33.96
359.709	109.74
359.921	23.72
360.132	11.43
360.344	58.54
360.555	50.35
360.766	109.74
360.977	72.87
361.189	113.83
361.4	17.58
361.611	64.68
361.823	79.02
362.034	42.15
362.245	-4.95
362.456	42.15
362.667	27.82
362.879	31.91
363.09	36.01
363.301	-11.09
363.512	9.39
363.723	9.39
363.935	40.11
364.146	66.73
364.357	62.63
364.568	21.67
364.779	9.39
364.99	165.03
365.201	25.77
365.412	101.55
365.623	-0.85
365.834	9.39
366.045	9.39
366.256	66.73
366.467	107.69
366.678	-15.19
366.889	42.15
367.1	50.35
367.311	146.6
367.522	15.53
367.733	58.54
367.944	66.73
368.155	29.87
368.366	66.73
368.577	66.73
368.788	105.64
368.999	-39.76
369.209	42.15
369.42	160.94
369.631	93.35
369.842	87.21
370.053	66.73
370.264	44.2
370.474	76.97
370.685	17.58
370.896	13.48
371.107	56.49
371.317	50.35
371.528	60.59
371.739	27.82
371.95	38.06
372.16	70.83
372.371	-4.95
372.582	9.39
372.792	42.15
373.003	-0.85
373.214	15.53
373.424	97.45
373.635	33.96
373.846	79.02
374.056	54.44
374.267	83.11
374.477	-37.72
374.688	-2.9
374.898	54.44
375.109	50.35
375.319	-2.9
375.53	117.93
375.74	58.54
375.951	21.67
376.161	42.15
376.372	105.64
376.582	50.35
376.793	44.2
377.003	29.87
377.214	50.35
377.424	60.59
377.635	19.63
377.845	25.77
378.055	117.93
378.266	62.63
378.476	36.01
378.686	66.73
378.897	42.15
379.107	44.2
379.317	93.35
379.528	46.25
379.738	79.02
379.948	-15.19
380.158	50.35
380.369	64.68
380.579	27.82
380.789	46.25
380.999	54.44
381.21	126.12
381.42	85.16
381.63	-35.67
381.84	117.93
382.05	40.11
382.261	58.54
382.471	79.02
382.681	50.35
382.891	79.02
383.101	46.25
383.311	68.78
383.521	-27.48
383.731	-54.1
383.941	109.74
384.151	-4.95
384.361	38.06
384.571	66.73
384.781	5.29
384.991	99.5
385.201	54.44
385.411	101.55
385.621	91.31
385.831	-23.38
386.041	3.24
386.251	62.63
386.461	85.16
386.671	-13.14
386.881	91.31
387.091	15.53
387.301	109.74
387.511	-7
387.72	99.5
387.93	52.39
388.14	40.11
388.35	52.39
388.56	31.91
388.769	134.31
388.979	-7
389.189	44.2
389.399	7.34
389.609	-4.95
389.818	29.87
390.028	46.25
390.238	93.35
390.447	25.77
390.657	70.83
390.867	9.39
391.076	42.15
391.286	99.5
391.496	33.96
391.705	54.44
391.915	44.2
392.125	128.17
392.334	111.78
392.544	101.55
392.753	72.87
392.963	-47.96
393.172	29.87
393.382	58.54
393.591	68.78
393.801	66.73
394.01	128.17
394.22	101.55
394.429	140.46
394.639	54.44
394.848	99.5
395.058	99.5
395.267	50.35
395.477	62.63
395.686	31.91
395.895	181.42
396.105	124.07
396.314	101.55
396.524	93.35
396.733	44.2
396.942	101.55
397.152	60.59
397.361	119.98
397.57	21.67
397.78	13.48
397.989	117.93
398.198	205.99
398.407	54.44
398.617	68.78
398.826	74.92
399.035	58.54
399.244	150.7
399.453	148.65
399.663	72.87
399.872	156.84
400.081	87.21
400.29	79.02
400.499	-13.14
400.708	66.73
400.917	27.82
401.127	72.87
401.336	91.31
401.545	158.89
401.754	158.89
401.963	60.59
402.172	124.07
402.381	103.59
402.59	17.58
402.799	62.63
403.008	175.27
403.217	97.45
403.426	40.11
403.635	54.44
403.844	60.59
404.053	91.31
404.262	91.31
404.471	85.16
404.68	130.22
404.888	103.59
405.097	148.65
405.306	214.18
405.515	242.85
405.724	109.74
405.933	183.46
406.142	187.56
406.35	222.38
406.559	226.47
406.768	142.5
406.977	197.8
407.185	193.7
407.394	162.98
407.603	76.97
407.812	152.74
408.02	191.66
408.229	226.47
408.438	208.04
408.646	179.37
408.855	222.38
409.064	216.23
409.272	160.94
409.481	171.18
409.69	191.66
409.898	220.33
410.107	326.82
410.315	310.44
410.524	255.14
410.733	255.14
410.941	302.25
411.15	373.92
411.358	308.39
411.567	378.02
411.775	339.11
411.984	314.53
412.192	398.5
412.401	337.06
412.609	443.56
412.818	402.6
413.026	369.83
413.234	443.56
413.443	472.23
413.651	429.22
413.86	515.23
414.068	576.67
414.276	566.43
414.485	488.61
414.693	513.19
414.901	586.91
415.11	674.98
415.318	584.87
415.526	631.97
415.734	775.33
415.943	674.98
416.151	636.06
416.359	615.59
416.567	672.93
416.776	699.55
416.984	787.61
417.192	902.3
417.4	781.47
417.608	801.95
417.817	857.25
418.025	969.88
418.233	1033.37
418.441	896.16
418.649	1029.27
418.857	1076.38
419.065	1148.06
419.273	1068.19
419.481	1123.48
419.689	1168.54
419.897	1281.18
420.105	1203.35
420.313	1410.2
420.521	1254.55
420.729	1440.92
420.937	1383.57
421.145	1387.67
421.353	1629.33
421.561	1643.67
421.769	1553.55
421.977	1621.14
422.185	1748.11
422.393	1852.56
422.601	1926.29
422.809	1901.71
423.017	1934.48
423.224	2008.2
423.432	2122.89
423.64	2012.3
423.848	2368.65
424.056	2131.08
424.263	2421.89
424.471	2446.47
424.679	2518.15
424.887	2659.46
425.094	2753.66
425.302	2679.94
425.51	2837.63
425.718	2964.61
425.925	2899.07
426.133	2784.38
426.341	3155.07
426.548	3259.51
426.756	3267.7
426.964	3327.1
427.171	3439.73
427.379	3630.2
427.586	3724.4
427.794	3656.82
428.001	3978.35
428.209	4273.26
428.417	4084.84
428.624	4387.94
428.832	4478.05
429.039	4330.6
429.247	4316.26
429.454	4867.17
429.662	5117.02
429.869	4770.91
430.076	5162.08
430.284	4750.43
430.491	5211.23
430.699	5489.75
430.906	5358.68
431.114	5571.67
431.321	5798.99
431.528	5909.58
431.736	6171.72
431.943	6573.13
432.15	6335.56
432.358	6597.7
432.565	6812.74
432.772	6759.49
432.979	7027.78
433.187	7326.78
433.394	7212.09
433.601	7715.89
433.808	7740.47
434.016	7783.48
434.223	8152.11
434.43	8395.82
434.637	8352.81
434.844	8819.75
435.052	9083.94
435.259	9124.9
435.466	9004.07
435.673	9012.26
435.88	9638.94
436.087	9950.23
436.294	10034.19
436.501	9839.64
436.708	10292.24
436.915	10314.77
437.122	10939.4
437.329	10581
437.537	11131.9
437.743	11379.71
437.95	11179.01
438.157	11889.65
438.364	12289.01
438.571	12258.29
438.778	12254.19
438.985	13589.47
439.192	12940.26
439.399	13366.24
439.606	13169.63
439.813	13888.47
440.02	14848.97
440.227	14320.59
440.433	14162.9
440.64	14707.66
440.847	14449.61
441.054	14996.42
441.261	16116.66
441.467	15940.54
441.674	15868.86
441.881	16837.55
442.088	16655.28
442.294	16530.35
442.501	16931.75
442.708	17445.79
442.914	18187.16
443.121	18973.58
443.328	18297.75
443.534	19549.06
443.741	18967.43
443.948	18611.09
444.154	19975.03
444.361	20243.32
444.568	20128.63
444.774	20261.75
444.981	20251.51
445.187	21257.06
445.394	22012.76
445.6	21697.38
445.807	23835.45
446.013	22545.23
446.22	23003.98
446.426	24058.68
446.633	24191.8
446.839	24978.22
447.046	24025.92
447.252	25570.08
447.459	25393.96
447.665	25174.83
447.871	26628.88
448.078	27699.97
448.284	26321.69
448.491	26944.27
448.697	28152.57
448.903	28717.81
449.11	28736.24
449.316	27923.2
449.522	28926.71
449.728	29776.61
449.935	29715.17
450.141	29977.31
450.347	30493.4
450.553	29743.84
450.76	29858.53
450.966	30599.9
451.172	30464.73
451.378	31296.21
451.584	31056.59
451.791	31644.36
451.997	31619.78
452.203	32094.91
452.409	32117.44
452.615	32053.95
452.821	30784.21
453.027	30630.62
453.233	32453.31
453.44	30767.83
453.646	31290.06
453.852	31419.08
454.058	31795.91
454.264	30943.95
454.47	31660.74
454.676	30806.74
454.882	31980.23
455.088	29158.13
455.294	29614.82
455.5	30196.45
455.705	31032.02
455.911	29106.93
456.117	28693.24
456.323	28369.66
456.529	26714.9
456.735	28109.57
456.941	27568.9
457.147	27179.79
457.352	26116.89
457.558	25699.11
457.764	26200.86
457.97	25606.95
458.176	24890.16
458.381	24632.11
458.587	23483.2
458.793	23601.99
458.999	22612.82
459.204	24175.42
459.41	23270.22
459.616	21910.36
459.821	22031.19
460.027	21678.94
460.233	21173.1
460.438	20327.28
460.644	20652.91
460.85	19524.48
461.055	19108.74
461.261	18957.19
461.466	17730.46
461.672	17251.24
461.878	18482.06
462.083	17292.19
462.289	17019.81
462.494	16999.34
462.7	15969.21
462.905	15631.29
463.111	16319.41
463.316	16430
463.522	15700.92
463.727	15805.37
463.932	15926.2
464.138	15809.47
464.343	15653.82
464.549	15164.36
464.754	15754.17
464.959	15698.88
465.165	15565.76
465.37	14689.23
465.575	14525.39
465.781	14982.09
465.986	15303.62
466.191	14640.08
466.397	14177.23
466.602	13601.76
466.807	14128.08
467.012	14128.08
467.218	14019.54
467.423	13943.77
467.628	14087.12
467.833	14658.51
468.038	13763.54
468.244	13734.87
468.449	14085.08
468.654	13618.14
468.859	13489.12
469.064	13509.6
469.269	12905.45
469.474	12993.51
469.679	13108.19
469.885	13065.19
470.09	13120.48
470.295	13046.76
470.5	12641.26
470.705	12811.24
470.91	12616.68
471.115	12504.04
471.32	12508.14
471.525	12452.84
471.73	12180.46
471.935	12133.36
472.139	11760.63
472.344	11938.8
472.549	11736.06
472.754	11629.56
472.959	11361.28
473.164	11191.3
473.369	10920.96
473.574	11398.14
473.778	11478.01
473.983	11078.66
474.188	11250.69
474.393	10746.89
474.598	10677.26
474.802	10800.13
475.007	10593.29
475.212	10750.98
475.417	10120.21
475.621	10167.31
475.826	10112.02
476.031	10212.37
476.235	9993.23
476.44	9911.32
476.645	9858.07
476.849	10001.43
477.054	9917.46
477.259	9497.63
477.463	9665.56
477.668	9370.65
477.872	9509.91
478.077	9151.52
478.282	8975.39
478.486	9030.69
478.691	8907.81
478.895	8815.65
479.1	8805.41
479.304	8711.21
479.509	8520.74
479.713	8829.99
479.918	8614.95
480.122	8422.44
480.326	8586.28
480.531	8700.97
480.735	8420.39
480.94	8293.42
481.144	8627.24
481.348	8152.11
481.553	8348.72
481.757	8195.12
481.961	8201.26
482.166	8361
482.37	8309.8
482.574	8006.7
482.778	8090.67
482.983	8444.97
483.187	8102.96
483.391	8297.52
483.595	8084.53
483.8	8096.82
484.004	8295.47
484.208	8274.99
484.412	8383.53
484.616	8410.15
484.821	8236.08
485.025	7971.89
485.229	8268.84
485.433	8162.35
485.637	8002.61
485.841	7969.84
486.045	8064.05
486.249	8145.97
486.453	8227.89
486.657	8053.81
486.861	8205.36
487.065	7892.02
487.269	8033.33
487.473	7992.37
487.677	8137.77
487.881	8264.75
488.085	8002.61
488.289	8166.45
488.493	8039.47
488.697	8035.38
488.901	8197.17
489.105	8250.41
489.309	8211.5
489.512	8209.45
489.716	8350.76
489.92	8361
490.124	8217.65
490.328	8414.25
490.531	8442.92
490.735	8320.04
490.939	8422.44
491.143	8186.93
491.346	8260.65
491.55	8518.7
491.754	8385.58
491.958	8567.85
492.161	8336.43
492.365	8565.8
492.569	8498.22
492.772	8502.31
492.976	8580.14
493.18	8612.9
493.383	8711.21
493.587	8682.53
493.79	8786.98
493.994	8719.4
494.197	8877.09
494.401	9081.89
494.605	9055.26
494.808	9208.86
495.012	9182.24
495.215	9268.25
495.419	9460.76
495.622	9430.04
495.825	9241.63
496.029	9415.71
496.232	9534.49
496.436	9487.39
496.639	9937.94
496.843	9649.18
497.046	9757.72
497.249	9989.14
497.453	10109.97
497.656	10245.13
497.859	10273.81
498.063	10218.51
498.266	10363.92
498.469	10605.58
498.673	10527.75
498.876	10798.09
499.079	10718.22
499.282	10863.62
499.485	11017.22
499.689	11138.05
499.892	11232.26
500.095	11389.95
500.298	11617.27
500.501	11529.21
500.705	11529.21
500.908	11869.17
501.111	11971.57
501.314	12334.06
501.517	12395.5
501.72	12295.15
501.923	12340.21
502.126	12739.56
502.329	12936.17
502.532	12798.95
502.735	13102.05
502.938	13267.94
503.141	13329.38
503.344	13759.45
503.547	13503.45
503.75	13784.02
503.953	13906.9
504.156	14029.78
504.359	14195.67
504.562	14345.17
504.765	14392.27
504.968	14742.47
505.17	14894.02
505.373	14826.44
505.576	15098.82
505.779	15320
505.982	15346.62
506.185	15584.19
506.387	15762.36
506.59	15868.86
506.793	16284.59
506.996	16167.86
507.198	16653.23
507.401	16649.13
507.604	16614.32
507.807	16941.99
508.009	16903.08
508.212	17286.05
508.415	17247.14
508.617	17802.14
508.82	17796
509.022	17339.3
509.225	18146.2
509.428	18279.32
509.63	18256.79
509.833	18508.69
510.035	19143.56
510.238	18719.63
510.44	19026.82
510.643	19506.05
510.845	19524.48
511.048	19417.99
511.25	20038.52
511.453	20052.86
511.655	20644.72
511.858	20271.99
512.06	20683.63
512.262	20654.96
512.465	21171.05
512.667	21177.19
512.87	21234.53
513.072	21498.72
513.274	22049.63
513.477	22070.11
513.679	22319.96
513.881	22526.8
514.084	22516.56
514.286	22676.3
514.488	22858.57
514.69	23548.74
514.893	23503.68
515.095	23579.46
515.297	23974.72
515.499	23874.37
515.701	24093.5
515.904	24482.61
516.106	24804.14
516.308	25117.48
516.51	25185.07
516.712	25054
516.914	25570.08
517.116	25959.2
517.318	26041.12
517.52	25975.58
517.722	26389.27
517.925	26739.47
518.127	26907.41
518.329	27282.19
518.531	26878.74
518.733	27763.46
518.935	27550.47
519.136	27859.71
519.338	28228.35
519.54	28435.19
519.742	28717.81
519.944	28941.04
520.146	29352.68
520.348	29270.76
520.55	29434.6
520.752	29604.58
520.954	30223.07
521.155	30102.24
521.357	30581.46
521.559	30569.18
521.761	31089.36
521.963	31027.92
522.164	31361.74
522.366	31216.33
522.568	31763.14
522.77	31875.78
522.971	32244.41
523.173	31896.26
523.375	32676.54
523.576	32727.74
523.778	32408.25
523.98	33106.61
524.181	33176.24
524.383	33055.41
524.584	33485.48
524.786	33538.73
524.988	33798.82
525.189	34116.26
525.391	34173.6
525.592	34529.95
525.794	34749.08
525.995	34503.32
526.197	34798.23
526.398	35238.54
526.6	35297.94
526.801	35582.6
527.003	35291.79
527.204	35416.72
527.406	35965.57
527.607	36199.04
527.808	35922.57
528.01	35504.78
528.211	35705.48
528.412	36950.65
528.614	36479.61
528.815	36371.07
529.016	37055.09
529.218	36424.32
529.419	36672.12
529.62	36762.23
529.822	36774.52
530.023	36758.14
530.224	36934.26
530.425	36887.16
530.626	36919.93
530.828	37055.09
531.029	37689.96
531.23	37241.46
531.431	37380.72
531.632	37378.67
531.833	37724.78
532.035	37694.06
532.236	37941.86
532.437	38294.11
532.638	37603.95
532.839	38023.78
533.04	37902.95
533.241	37655.15
533.442	38251.11
533.643	38306.4
533.844	38308.45
534.045	38281.83
534.246	37616.24
534.447	37900.9
534.648	38101.61
534.849	38146.66
535.05	37886.57
535.251	38306.4
535.451	37978.73
535.652	38314.59
535.853	38079.08
536.054	38214.24
536.255	38494.82
536.456	38017.64
536.657	38560.35
536.857	38003.3
537.058	37935.72
537.259	38623.84
537.46	38380.13
537.66	37937.77
537.861	38388.32
538.062	37898.86
538.263	38361.7
538.463	38161
538.664	37829.23
538.865	38132.32
539.065	38861.4
539.266	38136.42
539.466	38576.73
539.667	38169.19
539.868	38414.94
540.068	38255.2
540.269	38060.65
540.469	38455.9
540.67	37759.59
540.87	38249.06
541.071	38390.37
541.271	38607.45
541.472	38384.22
541.672	38343.27
541.873	38093.41
542.073	37653.1
542.274	38296.16
542.474	38611.55
542.675	37900.9
542.875	38322.79
543.075	37972.58
543.276	37603.95
543.476	38136.42
543.676	37988.97
543.877	38423.14
544.077	37927.53
544.277	38206.05
544.478	38095.46
544.678	38095.46
544.878	38046.31
545.078	37923.43
545.279	38132.32
545.479	37769.83
545.679	37997.16
545.879	37831.27
546.079	37943.91
546.28	37909.1
546.48	38189.67
546.68	38439.52
546.88	37970.54
547.08	37616.24
547.28	38038.12
547.48	37331.57
547.68	38146.66
547.88	37460.59
548.081	38732.38
548.281	37780.07
548.481	38058.6
548.681	38132.32
548.881	37888.62
549.081	37909.1
549.28	37489.26
549.48	38079.08
549.68	38564.45
549.88	38339.17
550.08	37634.67
550.28	37970.54
550.48	37970.54
550.68	37706.35
550.88	37917.29
551.08	37923.43
551.279	37894.76
551.479	37292.66
551.679	37438.06
551.879	37685.87
552.079	37503.6
552.278	37462.64
552.478	37884.52
552.678	37300.85
552.878	37730.92
553.077	37653.1
553.277	37026.42
553.477	37823.08
553.676	37286.51
553.876	37616.24
554.076	37147.25
554.275	37843.56
554.475	36786.81
554.674	37800.55
554.874	37282.42
555.074	37507.69
555.273	37257.84
555.473	37378.67
555.672	36622.97
555.872	36881.02
556.071	37421.68
556.271	37206.64
556.47	36979.32
556.67	36872.82
556.869	37354.1
557.068	37384.82
557.268	37069.43
557.467	36967.03
557.667	36498.05
557.866	36909.69
558.065	36692.6
558.265	36307.58
558.464	36326.02
558.663	36391.55
558.863	36180.61
559.062	36684.41
559.261	36362.88
559.461	36586.11
559.66	36067.97
559.859	36287.1
560.058	36027.01
560.258	36070.02
560.457	35920.52
560.656	36248.19
560.855	35920.52
561.054	36084.36
561.253	35564.17
561.453	35705.48
561.652	36471.42
561.851	36039.3
562.05	35742.35
562.249	35369.61
562.448	35906.18
562.647	35285.65
562.846	35467.92
563.045	35201.68
563.244	34910.87
563.443	35293.84
563.642	34706.07
563.841	34982.55
564.04	35007.12
564.239	35089.04
564.438	34863.77
564.637	34828.95
564.836	35078.8
565.035	34468.51
565.234	34902.68
565.432	34665.11
565.631	34472.6
565.83	34296.48
566.029	34396.83
566.228	33931.94
566.427	34310.82
566.625	34091.68
566.824	33620.65
567.023	34210.46
567.222	33364.65
567.42	33362.61
567.619	33673.9
567.818	33751.72
568.016	33274.54
568.215	33575.59
568.414	33497.77
568.612	33581.74
568.811	33026.74
569.01	33387.18
569.208	32905.91
569.407	32639.67
569.605	32654.01
569.804	32862.9
570.002	32684.73
570.201	32475.84
570.4	32434.88
570.598	32385.72
570.797	32250.56
570.995	32584.38
571.193	32221.89
571.392	32424.64
571.59	32318.14
571.789	32096.96
571.987	32008.9
572.186	31933.12
572.384	31816.39
572.582	31777.48
572.781	31607.5
572.979	31310.54
573.177	31412.94
573.376	31902.4
573.574	31363.79
573.772	31414.99
573.971	30913.23
574.169	30773.97
574.367	30927.57
574.565	31083.22
574.763	30923.47
574.962	30663.38
575.16	30450.39
575.358	30749.4
575.556	30388.95
575.754	30429.91
575.952	30274.27
576.151	30470.87
576.349	30048.99
576.547	29821.67
576.745	29717.22
576.943	30042.85
577.141	29715.17
577.339	29534.95
577.537	29821.67
577.735	29690.6
577.933	29270.76
578.131	29358.83
578.329	29627.11
578.527	29104.88
578.725	29137.65
578.923	29121.26
579.121	28959.47
579.319	29008.62
579.516	29358.83
579.714	28947.18
579.912	28734.2
580.11	28836.59
580.308	28582.65
580.506	28379.9
580.704	28183.29
580.901	28185.34
581.099	28867.31
581.297	28154.62
581.495	28146.43
581.692	28138.24
581.89	27968.26
582.088	28240.64
582.285	27691.78
582.483	28103.42
582.681	28150.53
582.878	27702.02
583.076	27570.95
583.274	27611.91
583.471	27480.84
583.669	27507.46
583.866	27169.55
584.064	26944.27
584.262	26864.4
584.459	27529.99
584.657	27187.98
584.854	27003.66
585.052	26708.76
585.249	26891.02
585.447	26671.89
585.644	26448.66
585.841	26706.71
586.039	26741.52
586.236	26225.43
586.434	26264.35
586.631	26118.94
586.828	26270.49
587.026	26192.67
587.223	26032.93
587.42	25985.82
587.618	25975.58
587.815	26032.93
588.012	25639.72
588.21	25725.73
588.407	25928.48
588.604	25568.04
588.801	25508.65
588.999	25277.22
589.196	25211.69
589.393	25348.9
589.59	25062.19
589.787	25072.43
589.984	24937.26
590.182	24707.89
590.379	24798
590.576	25021.23
590.773	24929.07
590.97	24619.83
591.167	24830.77
591.364	24494.9
591.561	24449.85
591.758	24138.55
591.955	24417.08
592.152	24345.4
592.349	23964.48
592.546	24505.14
592.743	24251.19
592.94	23700.29
593.137	23993.15
593.334	24064.83
593.531	23653.19
593.727	23663.43
593.924	23685.95
594.121	23505.73
594.318	23851.84
594.515	23405.38
594.712	23526.21
594.908	23214.92
595.105	23468.87
595.302	23003.98
595.499	23094.09
595.696	23012.17
595.892	22653.78
596.089	22928.2
596.286	23153.48
596.482	22524.75
596.679	22772.56
596.876	22532.95
597.072	22680.4
597.269	22461.27
597.466	22131.54
597.662	22217.56
597.859	22287.19
598.055	22299.48
598.252	22129.5
598.448	21904.22
598.645	21920.6
598.841	21879.64
599.038	21844.83
599.234	22090.59
599.431	21482.34
599.627	21711.71
599.824	21836.64
600.02	21422.95
600.217	21648.22
600.413	21500.77
600.609	21375.84
600.806	21515.11
601.002	21332.84
601.198	21074.79
601.395	21271.4
601.591	21064.55
601.787	20910.96
601.984	20757.36
602.18	21111.66
602.376	20745.07
602.572	20796.27
602.769	20564.85
602.965	20452.21
603.161	20419.44
603.357	20710.25
603.553	20228.98
603.75	20476.79
603.946	19987.32
604.142	20388.72
604.338	19948.41
604.534	20034.42
604.73	20102.01
604.926	19880.83
605.122	20169.59
605.318	19929.98
605.514	19712.89
605.71	19633.02
605.906	19630.98
606.102	19573.63
606.298	19571.58
606.494	19479.43
606.69	19620.74
606.886	19676.03
607.082	19495.81
607.278	19483.52
607.474	18834.32
607.67	19334.02
607.866	18998.15
608.062	19299.2
608.257	19262.34
608.453	19239.81
608.649	19186.57
608.845	18819.98
609.041	19024.78
609.236	19045.26
609.432	18938.76
609.628	19026.82
609.824	18801.55
610.019	18584.46
610.215	18674.57
610.411	18654.09
610.606	18432.91
610.802	18482.06
610.998	18471.82
611.193	18561.94
611.389	18408.34
611.584	18422.67
611.78	18430.87
611.976	18285.46
612.171	18375.57
612.367	18156.44
612.562	18287.51
612.758	17992.6
612.953	17912.73
613.149	18058.14
613.344	17943.45
613.539	18412.43
613.735	17730.46
613.93	17974.17
614.126	17755.04
614.321	18019.22
614.517	17646.49
614.712	17722.27
614.907	17490.85
615.103	17892.25
615.298	17623.97
615.493	17675.16
615.688	17337.25
615.884	17820.57
616.079	17499.04
616.274	17513.38
616.47	17417.12
616.665	17451.94
616.86	17433.5
617.055	17136.55
617.25	17277.86
617.445	17234.85
617.641	16980.9
617.836	17001.38
618.031	17042.34
618.226	17028.01
618.421	17050.53
618.616	16993.19
618.811	16726.96
619.006	17009.58
619.201	16610.22
619.396	16841.64
619.591	16440.24
619.786	16802.73
619.981	16495.53
620.176	16413.62
620.371	16409.52
620.566	16481.2
620.761	16313.27
620.956	16270.26
621.151	16268.21
621.346	16014.26
621.541	15870.9
621.735	15954.87
621.93	15807.42
622.125	15836.09
622.32	15684.54
622.515	15782.84
622.709	15631.29
622.904	15586.24
623.099	15397.82
623.294	15399.87
623.488	15238.08
623.683	15442.88
623.878	15143.88
624.072	15086.53
624.267	15107.01
624.462	14908.36
624.656	14642.12
624.851	15027.14
625.046	14742.47
625.24	14504.91
625.435	14400.46
625.629	14480.33
625.824	14214.1
626.018	14240.72
626.213	14119.89
626.407	14255.06
626.602	13779.93
626.796	14021.59
626.991	13794.26
627.185	13814.74
627.38	13804.5
627.574	13444.06
627.768	13673.43
627.963	13446.11
628.157	13358.05
628.352	13417.44
628.546	13108.19
628.74	13485.02
628.935	13091.81
629.129	13063.14
629.323	12968.93
629.517	12960.74
629.712	12835.81
629.906	12782.57
630.1	12651.5
630.294	12852.2
630.489	12594.15
630.683	12377.07
630.877	12534.76
631.071	12485.61
631.265	12561.39
631.459	12200.94
631.653	12170.22
631.848	12469.23
632.042	12194.8
632.236	12248.05
632.43	11973.62
632.624	12022.77
632.818	11869.17
633.012	11664.38
633.206	11734.01
633.4	11914.23
633.594	11566.07
633.788	11471.87
633.982	11807.73
634.176	11617.27
634.369	11277.31
634.563	11215.87
634.757	11514.87
634.951	11260.93
635.145	11176.96
635.339	11027.46
635.533	11172.86
635.726	11113.47
635.92	10882.05
636.114	11023.36
636.308	10767.37
636.501	10931.2
636.695	10867.72
636.889	10613.77
637.083	10585.1
637.276	10521.61
637.47	10642.44
637.664	10335.24
637.857	10437.64
638.051	10361.87
638.244	10230.8
638.438	9937.94
638.632	10167.31
638.825	9903.12
639.019	9966.61
639.212	10114.06
639.406	9980.95
639.599	9933.84
639.793	9878.55
639.986	9727
640.18	9827.35
640.373	9440.28
640.567	9552.92
640.76	9561.11
640.954	9450.52
641.147	9327.64
641.34	9413.66
641.534	9354.27
641.727	9374.75
641.92	9335.84
642.114	9286.68
642.307	9210.91
642.5	9143.33
642.694	8922.15
642.887	8688.68
643.08	8924.19
643.273	9012.26
643.467	8836.13
643.66	8860.71
643.853	8649.77
644.046	8713.25
644.239	8664.1
644.432	8739.88
644.626	8490.03
644.819	8397.87
645.012	8447.02
645.205	8594.47
645.398	8365.1
645.591	8307.76
645.784	8367.15
645.977	8346.67
646.17	8334.38
646.363	8117.29
646.556	8127.53
646.749	8008.75
646.942	8180.78
647.135	7998.51
647.328	7828.53
647.521	7949.36
647.714	7795.76
647.907	7763
648.099	7642.17
648.292	7894.07
648.485	7914.55
648.678	7672.89
648.871	7828.53
649.064	7685.17
649.256	7574.58
649.449	7607.35
649.642	7611.45
649.835	7287.87
650.027	7476.28
650.22	7332.92
650.413	7365.69
650.605	7349.31
650.798	7238.72
650.991	7224.38
651.183	7146.56
651.376	7169.09
651.568	7269.44
651.761	7038.02
651.954	7019.58
652.146	7070.78
652.339	6972.48
652.531	6939.71
652.724	6943.81
652.916	6931.52
653.109	6736.96
653.301	6753.35
653.494	6868.03
653.686	6792.26
653.879	6937.66
654.071	6884.42
654.263	6790.21
654.456	6538.31
654.648	6696
654.84	6530.12
655.033	6550.6
655.225	6526.02
655.417	6310.99
655.61	6366.28
655.802	6444.1
655.994	6288.46
656.186	6321.23
656.379	6270.03
656.571	6177.87
656.763	6122.57
656.955	6155.34
657.148	6337.61
657.34	6149.2
657.532	6188.11
657.724	5958.74
657.916	6022.22
658.108	6018.13
658.3	5915.73
658.492	6038.61
658.684	5876.82
658.876	5999.7
659.068	5674.07
659.26	5870.67
659.452	5821.52
659.644	5833.81
659.836	5727.32
660.028	5868.63
660.22	5520.47
660.412	5784.66
660.604	5719.12
660.796	5493.85
660.988	5620.82
661.18	5692.5
661.372	5481.56
661.563	5635.16
661.755	5459.03
661.947	5438.55
662.139	5260.38
662.331	5217.37
662.522	5301.34
662.714	5250.14
662.906	5456.98
663.097	5319.77
663.289	5211.23
663.481	5186.65
663.673	5297.24
663.864	5248.09
664.056	5147.74
664.247	5114.97
664.439	5135.45
664.631	5098.59
664.822	5045.34
665.014	5059.68
665.205	5188.7
665.397	4889.7
665.588	5055.58
665.78	4985.95
665.971	5172.32
666.163	5012.57
666.354	5063.77
666.546	4928.61
666.737	4938.85
666.929	4969.57
667.12	4818.02
667.311	4877.41
667.503	4781.15
667.694	4922.46
667.885	4844.64
668.077	4762.72
668.268	4785.25
668.459	4697.19
668.651	4580.45
668.842	4883.55
669.033	4637.8
669.224	4705.38
669.416	4676.71
669.607	4566.12
669.798	4654.18
669.989	4707.43
670.18	4506.73
670.371	4625.51
670.563	4457.57
670.754	4664.42
670.945	4590.69
671.136	4598.88
671.327	4453.48
671.518	4490.34
671.709	4471.91
671.9	4654.18
672.091	4553.83
672.282	4334.7
672.473	4326.5
672.664	4582.5
672.855	4523.11
673.046	4375.66
673.237	4537.45
673.428	4437.09
673.619	4340.84
673.809	4197.48
674	4359.27
674.191	4318.31
674.382	4379.75
674.573	4340.84
674.764	4271.21
674.954	4254.83
675.145	4254.83
675.336	4250.73
675.527	4344.94
675.717	4426.86
675.908	4322.41
676.099	4107.37
676.289	4433
676.48	4230.25
676.671	4269.16
676.861	4183.15
677.052	4252.78
677.243	4301.93
677.433	4367.46
677.624	4297.83
677.814	4215.91
678.005	4134
678.195	4340.84
678.386	4201.58
678.576	4119.66
678.767	4021.36
678.957	4072.56
679.148	4131.95
679.338	4279.4
679.529	4217.96
679.719	4215.91
679.909	4222.06
680.1	4068.46
680.29	4306.02
680.481	4154.48
680.671	4256.87
680.861	4127.85
681.052	4146.28
681.242	4154.48
681.432	4220.01
681.622	4021.36
681.813	4226.15
682.003	4189.29
682.193	4068.46
682.383	4230.25
682.573	4181.1
682.764	4013.17
682.954	4052.08
683.144	4217.96
683.334	4127.85
683.524	3984.49
683.714	4088.94
683.904	4152.43
684.094	4252.78
684.284	4097.13
684.474	4035.69
684.664	4037.74
684.854	4072.56
685.044	4103.28
685.234	3945.58
685.424	3976.3
685.614	3976.3
685.804	4076.65
685.994	3959.92
686.184	4007.02
686.374	3957.87
686.564	3843.18
686.753	3951.73
686.943	3869.81
687.133	4029.55
687.323	3744.88
687.513	3894.38
687.702	3882.1
687.892	3880.05
688.082	3839.09
688.272	3839.09
688.461	3703.92
688.651	3910.77
688.841	3873.9
689.03	3927.15
689.22	3738.74
689.41	3851.38
689.599	3755.12
689.789	3783.79
689.979	3599.48
690.168	3689.59
690.358	3714.16
690.547	3597.43
690.737	3572.85
690.926	3662.96
691.116	3535.99
691.305	3429.49
691.495	3574.9
691.684	3409.01
691.874	3445.88
692.063	3599.48
692.252	3587.19
692.442	3456.12
692.631	3435.64
692.82	3462.26
693.01	3366.01
693.199	3411.06
693.388	3386.49
693.578	3404.92
693.767	3431.54
693.956	3525.75
694.146	3378.3
694.335	3325.05
694.524	3177.59
694.713	3419.25
694.902	3378.3
695.092	3302.52
695.281	3361.91
695.47	3370.1
695.659	3267.7
695.848	3093.63
696.037	3380.34
696.226	3472.5
696.415	3148.92
696.604	3392.63
696.793	3337.34
696.982	3198.07
697.171	3290.23
697.36	3327.1
697.549	3157.11
697.738	3286.14
697.927	3269.75
698.116	3222.65
698.305	3290.23
698.494	3101.82
698.683	3165.31
698.872	3138.68
699.061	3224.7
699.25	3107.96
699.438	3179.64
699.627	3083.39
699.816	3191.93
700.005	3142.78
700.193	3128.44
700.382	3140.73
700.571	3122.3
700.76	3179.64
700.948	3245.18
701.137	3153.02
701.326	3183.74
701.514	3318.9
701.703	3079.29
701.892	3210.36
702.08	3349.62
702.269	3267.7
702.457	3239.03
702.646	3196.03
702.834	3183.74
703.023	3265.66
703.212	3400.82
703.4	3150.97
703.589	3118.2
703.777	3116.16
703.965	3071.1
704.154	3155.07
704.342	3120.25
704.531	3224.7
704.719	3212.41
704.907	3230.84
705.096	3075.2
705.284	3265.66
705.472	3140.73
705.661	3347.58
705.849	3261.56
706.037	3212.41
706.226	3122.3
706.414	3189.88
706.602	3118.2
706.79	3331.19
706.979	3228.79
707.167	3314.81
707.355	3232.89
707.543	3304.57
707.731	3161.21
707.919	3189.88
708.107	3292.28
708.296	3239.03
708.484	3300.47
708.672	3370.1
708.86	3288.18
709.048	3191.93
709.236	3171.45
709.424	3239.03
709.612	3343.48
709.8	3261.56
709.988	3263.61
710.176	3234.94
710.364	3198.07
710.551	3374.2
710.739	3226.75
710.927	3339.38
711.115	3222.65
711.303	3357.82
711.491	3318.9
711.679	3302.52
711.866	3333.24
712.054	3515.51
712.242	3288.18
712.43	3341.43
712.617	3196.03
712.805	3462.26
712.993	3456.12
713.181	3337.34
713.368	3421.3
713.556	3519.6
713.744	3409.01
713.931	3413.11
714.119	3374.2
714.306	3441.78
714.494	3396.73
714.682	3316.86
714.869	3329.14
715.057	3437.69
715.244	3406.97
715.432	3343.48
715.619	3478.65
715.807	3544.18
715.994	3521.65
716.182	3411.06
716.369	3429.49
716.556	3458.17
716.744	3341.43
716.931	3382.39
717.119	3361.91
717.306	3452.02
717.493	3490.93
717.681	3347.58
717.868	3517.56
718.055	3525.75
718.242	3509.37
718.43	3462.26
718.617	3576.95
718.804	3495.03
718.991	3452.02
719.179	3589.24
719.366	3517.56
719.553	3595.38
719.74	3546.23
719.927	3495.03
720.114	3441.78
720.301	3529.84
720.488	3652.72
720.676	3556.47
720.863	3556.47
721.05	3570.8
721.237	3703.92
721.424	3576.95
721.611	3562.61
721.798	3585.14
721.985	3429.49
722.172	3546.23
722.358	3533.94
722.545	3617.91
722.732	3533.94
722.919	3812.46
723.106	3624.05
723.293	3748.98
723.48	3640.44
723.667	3640.44
723.853	3632.24
724.04	3583.09
724.227	3638.39
724.414	3624.05
724.6	3714.16
724.787	3650.67
724.974	3572.85
725.161	3570.8
725.347	3579
725.534	3630.2
725.72	3644.53
725.907	3601.52
726.094	3703.92
726.28	3540.08
726.467	3628.15
726.653	3597.43
726.84	3665.01
727.027	3759.22
727.213	3511.41
727.4	3814.51
727.586	3722.35
727.773	3695.73
727.959	3845.23
728.145	3712.11
728.332	3556.47
728.518	3681.39
728.705	3656.82
728.891	3585.14
729.077	3714.16
729.264	3751.03
729.45	3677.3
729.636	3773.55
729.823	3789.94
730.009	3753.07
730.195	3878
730.382	3699.83
730.568	3628.15
730.754	3710.07
730.94	3789.94
731.126	3832.94
731.313	3587.19
731.499	3691.63
731.685	3703.92
731.871	3890.29
732.057	3714.16
732.243	3667.06
732.429	3748.98
732.615	3775.6
732.801	3843.18
732.987	3714.16
733.173	3765.36
733.359	3716.21
733.545	3769.46
733.731	3763.31
733.917	3855.47
734.103	3695.73
734.289	3761.27
734.475	3718.26
734.661	3605.62
734.847	3908.72
735.033	3695.73
735.219	3697.78
735.404	3765.36
735.59	3677.3
735.776	3718.26
735.962	3763.31
736.148	3646.58
736.333	3716.21
736.519	3638.39
736.705	3607.67
736.89	3605.62
737.076	3658.87
737.262	3769.46
737.447	3615.86
737.633	3626.1
737.819	3720.31
738.004	3566.71
738.19	3679.35
738.375	3699.83
738.561	3761.27
738.747	3691.63
738.932	3632.24
739.118	3699.83
739.303	3617.91
739.489	3538.04
739.674	3570.8
739.859	3632.24
740.045	3599.48
740.23	3540.08
740.416	3605.62
740.601	3652.72
740.786	3515.51
740.972	3566.71
741.157	3644.53
741.342	3630.2
741.528	3400.82
741.713	3535.99
741.898	3527.8
742.084	3466.36
742.269	3574.9
742.454	3443.83
742.639	3601.52
742.824	3361.91
743.01	3466.36
743.195	3390.58
743.38	3507.32
743.565	3359.86
743.75	3355.77
743.935	3581.04
744.12	3429.49
744.305	3204.22
744.49	3374.2
744.675	3296.38
744.86	3363.96
745.045	3339.38
745.23	3304.57
745.415	3271.8
745.6	3282.04
745.785	3284.09
745.97	3392.63
746.155	3085.44
746.34	3288.18
746.525	3159.16
746.71	3273.85
746.895	3089.53
747.079	3177.59
747.264	3095.68
747.449	3179.64
747.634	3136.63
747.819	3069.05
748.003	2942.08
748.188	3040.38
748.373	3011.71
748.557	3142.78
748.742	2999.42
748.927	2970.75
749.111	2800.77
749.296	2876.54
749.481	2890.88
749.665	3007.61
749.85	2849.92
750.034	2948.22
750.219	2808.96
750.404	2774.14
750.588	2761.86
750.773	2753.66
750.957	2782.34
751.141	2716.8
751.326	2776.19
751.51	2602.11
751.695	2659.46
751.879	2729.09
752.064	2731.14
752.248	2583.68
752.432	2647.17
752.617	2684.03
752.801	2610.31
752.985	2647.17
753.17	2577.54
753.354	2581.64
753.538	2516.1
753.722	2346.12
753.907	2550.92
754.091	2333.83
754.275	2368.65
754.459	2403.46
754.643	2380.93
754.828	2389.13
755.012	2475.14
755.196	2354.31
755.38	2364.55
755.564	2262.15
755.748	2270.34
755.932	2339.97
756.116	2294.92
756.3	2247.82
756.484	2153.61
756.668	2245.77
756.852	2104.46
757.036	2153.61
757.22	2169.99
757.404	2022.54
757.588	2118.79
757.772	2139.27
757.956	2141.32
758.14	2118.79
758.323	2026.64
758.507	2061.45
758.691	2122.89
758.875	2090.12
759.059	2020.49
759.242	1928.33
759.426	1883.28
759.61	1959.05
759.794	2040.97
759.977	2102.41
760.161	2090.12
760.345	1895.57
760.528	1985.68
760.712	1975.44
760.895	1924.24
761.079	1903.76
761.263	1819.79
761.446	1737.87
761.63	1764.5
761.813	1791.12
761.997	1926.29
762.18	1707.15
762.364	1762.45
762.547	1748.11
762.731	1729.68
762.914	1795.22
763.098	1924.24
763.281	1741.97
763.464	1766.54
763.648	1778.83
763.831	1727.63
764.015	1692.82
764.198	1748.11
764.381	1696.91
764.564	1746.06
764.748	1758.35
764.931	1651.86
765.114	1588.37
765.297	1692.82
765.481	1641.62
765.664	1670.29
765.847	1594.51
766.03	1627.28
766.213	1561.75
766.397	1643.67
766.58	1526.93
766.763	1662.1
766.946	1619.09
767.129	1526.93
767.312	1576.08
767.495	1531.03
767.678	1567.89
767.861	1551.51
768.044	1586.32
768.227	1504.4
768.41	1475.73
768.593	1492.12
768.776	1494.16
768.959	1520.79
769.142	1488.02
769.324	1467.54
769.507	1416.34
769.69	1494.16
769.873	1397.91
770.056	1584.27
770.239	1346.71
770.421	1508.5
770.604	1485.97
770.787	1336.47
770.97	1451.16
771.152	1342.61
771.335	1293.46
771.518	1498.26
771.7	1432.72
771.883	1318.04
772.066	1385.62
772.248	1315.99
772.431	1324.18
772.613	1348.76
772.796	1318.04
772.978	1395.86
773.161	1410.2
773.343	1281.18
773.526	1242.26
773.708	1189.02
773.891	1238.17
774.073	1262.74
774.256	1277.08
774.438	1367.19
774.621	1277.08
774.803	1264.79
774.985	1150.11
775.168	1234.07
775.35	1215.64
775.532	1223.83
775.715	1234.07
775.897	1176.73
776.079	1156.25
776.261	1045.66
776.444	1232.02
776.626	1051.8
776.808	1096.86
776.99	1080.47
777.173	1055.9
777.355	1090.71
777.537	1090.71
777.719	1037.47
777.901	1070.23
778.083	890.01
778.265	1033.37
778.447	1025.18
778.629	1129.63
778.811	992.41
778.993	1033.37
779.175	1064.09
779.357	971.93
779.539	967.84
779.721	976.03
779.903	980.12
780.085	951.45
780.267	1033.37
780.449	943.26
780.631	1094.81
780.812	959.64
780.994	887.97
781.176	875.68
781.358	877.73
781.54	765.09
781.721	906.4
781.903	984.22
782.085	857.25
782.267	912.54
782.448	853.15
782.63	910.49
782.812	808.09
782.993	797.85
783.175	883.87
783.357	791.71
783.538	773.28
783.72	765.09
783.901	754.85
784.083	767.13
784.264	783.52
784.446	722.08
784.627	732.32
784.809	754.85
784.99	730.27
785.172	855.2
785.353	775.33
785.535	713.89
785.716	685.22
785.897	738.46
786.079	722.08
786.26	644.26
786.441	760.99
786.623	642.21
786.804	650.4
786.985	636.06
787.167	631.97
787.348	634.02
787.529	687.26
787.71	754.85
787.891	662.69
788.073	623.78
788.254	617.63
788.435	738.46
788.616	597.15
788.797	527.52
788.978	615.59
789.159	615.59
789.34	689.31
789.522	550.05
789.703	593.06
789.884	570.53
790.065	574.63
790.246	707.74
790.427	562.34
790.607	656.54
790.788	611.49
790.969	496.8
791.15	574.63
791.331	535.71
791.512	548
791.693	527.52
791.874	509.09
792.054	607.39
792.235	509.09
792.416	455.84
792.597	439.46
792.778	537.76
792.958	484.52
793.139	535.71
793.32	578.72
793.5	445.6
793.681	507.04
793.862	484.52
794.042	525.47
794.223	414.88
794.404	488.61
794.584	474.28
794.765	484.52
794.945	461.99
795.126	521.38
795.306	480.42
795.487	451.75
795.667	500.9
795.848	517.28
796.028	470.18
796.209	371.88
796.389	470.18
796.57	470.18
796.75	478.37
796.93	455.84
797.111	453.8
797.291	394.4
797.471	470.18
797.652	423.08
797.832	443.56
798.012	410.79
798.192	476.32
798.373	416.93
798.553	402.6
798.733	445.6
798.913	339.11
799.093	396.45
799.274	402.6
799.454	441.51
799.634	464.04
799.814	330.92
799.994	328.87
800.174	429.22
800.354	445.6
800.534	349.35
800.714	425.12
800.894	341.16
801.074	328.87
801.254	328.87
801.434	488.61
801.614	375.97
801.794	343.21
801.974	1338.52
802.154	355.49
802.334	394.4
802.514	349.35
802.693	367.78
802.873	320.68
803.053	435.36
803.233	253.09
803.413	371.88
803.592	345.25
803.772	261.29
803.952	337.06
804.131	183.46
804.311	378.02
804.491	355.49
804.67	316.58
804.85	355.49
805.03	312.49
805.209	322.73
805.389	255.14
805.568	242.85
805.748	300.2
805.928	271.53
806.107	345.25
806.287	357.54
806.466	306.34
806.646	279.72
806.825	263.33
807.004	265.38
807.184	396.45
807.363	249
807.543	261.29
807.722	267.43
807.901	306.34
808.081	332.97
808.26	251.05
808.439	273.57
808.619	287.91
808.798	205.99
808.977	251.05
809.156	287.91
809.336	269.48
809.515	335.01
809.694	228.52
809.873	242.85
810.052	242.85
810.231	304.29
810.411	281.77
810.59	255.14
810.769	263.33
810.948	275.62
811.127	287.91
811.306	251.05
811.485	232.62
811.664	341.16
811.843	328.87
812.022	242.85
812.201	171.18
812.38	310.44
812.559	255.14
812.737	224.42
812.916	167.08
813.095	201.9
813.274	232.62
813.453	263.33
813.632	328.87
813.811	298.15
813.989	185.51
814.168	238.76
814.347	156.84
814.526	205.99
814.704	232.62
814.883	181.42
815.062	158.89
815.24	232.62
815.419	181.42
815.598	183.46
815.776	134.31
815.955	208.04
816.133	38.06
816.312	251.05
816.49	152.74
816.669	173.22
816.847	208.04
817.026	201.9
817.204	193.7
817.383	224.42
817.561	197.8
817.74	238.76
817.918	169.13
818.097	205.99
818.275	132.26
818.453	257.19
818.632	199.85
818.81	132.26
818.988	205.99
819.167	185.51
819.345	232.62
819.523	240.81
819.701	195.75
819.879	251.05
820.058	167.08
820.236	199.85
820.414	165.03
820.592	107.69
820.77	214.18
820.948	95.4
821.127	85.16
821.305	216.23
821.483	89.26
821.661	173.22
821.839	251.05
822.017	165.03
822.195	115.88
822.373	257.19
822.551	185.51
822.729	249
822.907	134.31
823.085	208.04
823.262	210.09
823.44	189.61
823.618	109.74
823.796	83.11
823.974	222.38
824.152	193.7
824.329	119.98
824.507	79.02
824.685	177.32
824.863	95.4
825.04	105.64
825.218	246.95
825.396	132.26
825.574	210.09
825.751	62.63
825.929	162.98
826.107	93.35
826.284	150.7
826.462	154.79
826.639	162.98
826.817	93.35
826.994	117.93
827.172	218.28
827.349	220.33
827.527	173.22
827.704	216.23
827.882	136.36
828.059	179.37
828.237	99.5
828.414	93.35
828.591	101.55
828.769	142.5
828.946	115.88
829.124	156.84
829.301	111.78
829.478	52.39
829.655	140.46
829.833	165.03
830.01	160.94
830.187	148.65
830.364	87.21
830.542	140.46
830.719	238.76
830.896	222.38
831.073	150.7
831.25	140.46
831.427	179.37
831.604	117.93
831.782	99.5
831.959	175.27
832.136	154.79
832.313	103.59
832.49	148.65
832.667	79.02
832.844	115.88
833.021	167.08
833.198	46.25
833.374	33.96
833.551	148.65
833.728	107.69
833.905	128.17
834.082	50.35
834.259	152.74
834.436	97.45
834.612	44.2
834.789	177.32
834.966	81.07
835.143	146.6
835.319	101.55
835.496	89.26
835.673	144.55
835.85	144.55
836.026	81.07
836.203	119.98
836.38	99.5
836.556	117.93
836.733	64.68
836.909	124.07
837.086	126.12
837.262	64.68
837.439	128.17
837.616	7.34
837.792	58.54
837.968	101.55
838.145	83.11
838.321	154.79
838.498	115.88
838.674	130.22
838.851	132.26
839.027	95.4
839.203	60.59
839.38	140.46
839.556	76.97
839.732	79.02
839.909	66.73
840.085	115.88
840.261	66.73
840.437	83.11
840.614	83.11
840.79	107.69
840.966	150.7
841.142	162.98
841.318	105.64
841.494	113.83
841.671	107.69
841.847	115.88
842.023	115.88
842.199	95.4
842.375	87.21
842.551	23.72
842.727	54.44
842.903	136.36
843.079	48.3
843.255	134.31
843.431	7.34
843.607	152.74
843.783	52.39
843.959	113.83
844.134	70.83
844.31	101.55
844.486	85.16
844.662	3.24
844.838	91.31
845.013	175.27
845.189	62.63
845.365	42.15
845.541	109.74
845.716	-4.95
845.892	89.26
846.068	72.87
846.244	13.48
846.419	58.54
846.595	70.83
846.77	-2.9
846.946	60.59
847.122	-21.33
847.297	19.63
847.473	76.97
847.648	17.58
847.824	66.73
847.999	42.15
848.175	17.58
848.35	3.24
848.526	79.02
848.701	93.35
848.876	27.82
849.052	126.12
849.227	-54.1
849.403	76.97
849.578	95.4
849.753	25.77
849.929	95.4
850.104	50.35
850.279	52.39
850.454	33.96
850.63	169.13
850.805	99.5
850.98	58.54
851.155	1.19
851.33	76.97
851.505	-7
851.681	150.7
851.856	36.01
852.031	117.93
852.206	44.2
852.381	-17.24
852.556	-9.05
852.731	134.31
852.906	103.59
853.081	21.67
853.256	68.78
853.431	33.96
853.606	50.35
853.781	-11.09
853.956	46.25
854.131	44.2
854.305	7.34
854.48	99.5
854.655	36.01
854.83	-2.9
855.005	66.73
855.18	66.73
855.354	54.44
855.529	87.21
855.704	7.34
855.879	-2.9
856.053	-72.53
856.228	17.58
856.403	1.19
856.577	83.11
856.752	27.82
856.926	-13.14
857.101	60.59
857.276	36.01
857.45	70.83
857.625	74.92
857.799	-11.09
857.974	7.34
858.148	-50
858.323	72.87
858.497	50.35
858.672	60.59
858.846	17.58
859.02	38.06
859.195	25.77
859.369	5.29
859.543	-37.72
859.718	119.98
859.892	-43.86
860.066	33.96
860.241	11.43
860.415	33.96
860.589	48.3
860.763	21.67
860.938	54.44
861.112	42.15
861.286	54.44
861.46	-37.72
861.634	-7
861.808	54.44
861.982	40.11
862.157	33.96
862.331	-7
862.505	1.19
862.679	-37.72
862.853	23.72
863.027	-0.85
863.201	66.73
863.375	48.3
863.549	-15.19
863.722	52.39
863.896	101.55
864.07	-15.19
864.244	31.91
864.418	83.11
864.592	113.83
864.766	13.48
864.939	40.11
865.113	-2.9
865.287	97.45
865.461	17.58
865.634	109.74
865.808	17.58
865.982	-4.95
866.156	-0.85
866.329	-58.2
866.503	27.82
866.676	52.39
866.85	-37.72
867.024	1.19
867.197	83.11
867.371	44.2
867.544	29.87
867.718	-17.24
867.891	44.2
868.065	-27.48
868.238	-86.87
868.412	81.07
868.585	36.01
868.759	15.53
868.932	1.19
869.105	-72.53
869.279	134.31
869.452	-45.91
869.625	5.29
869.799	15.53
869.972	23.72
870.145	-21.33
870.319	29.87
870.492	-13.14
870.665	11.43
870.838	7.34
871.011	-58.2
871.185	87.21
871.358	-45.91
871.531	60.59
871.704	-23.38
871.877	-19.29
872.05	19.63
872.223	9.39
872.396	23.72
872.569	1.19
872.742	-25.43
872.915	91.31
873.088	-64.34
873.261	-29.52
873.434	27.82
873.607	-0.85
873.78	74.92
873.953	-58.2
874.126	15.53
874.299	-23.38
874.471	-4.95
874.644	-23.38
874.817	-4.95
874.99	85.16
875.163	33.96
875.335	50.35
875.508	-15.19
875.681	89.26
875.853	-9.05
876.026	-0.85
876.199	87.21
876.371	48.3
876.544	58.54
876.717	-29.52
876.889	9.39
877.062	109.74
877.234	9.39
877.407	27.82
877.579	-23.38
877.752	-0.85
877.924	107.69
878.097	13.48
878.269	29.87
878.442	-7
878.614	-9.05
878.786	46.25
878.959	62.63
879.131	-19.29
879.303	-64.34
879.476	19.63
879.648	33.96
879.82	-25.43
879.993	27.82
880.165	48.3
880.337	1.19
880.509	9.39
880.681	25.77
880.854	-17.24
881.026	19.63
881.198	134.31
881.37	-23.38
881.542	3.24
881.714	-39.76
881.886	42.15
882.058	-7
882.23	-17.24
882.402	-15.19
882.574	19.63
882.746	21.67
882.918	70.83
883.09	56.49
883.262	60.59
883.434	21.67
883.606	-19.29
883.778	-43.86
883.95	117.93
884.122	89.26
884.293	60.59
884.465	25.77
884.637	19.63
884.809	31.91
884.98	-47.96
885.152	5.29
885.324	13.48
885.496	-47.96
885.667	-37.72
885.839	-31.57
886.011	85.16
886.182	50.35
886.354	17.58
886.525	-7
886.697	-7
886.869	44.2
887.04	-39.76
887.212	81.07
887.383	62.63
887.555	5.29
887.726	-45.91
887.897	-9.05
888.069	3.24
888.24	52.39
888.412	23.72
888.583	-64.34
888.754	-29.52
888.926	-35.67
889.097	-37.72
889.268	-43.86
889.44	21.67
889.611	-64.34
889.782	-62.29
889.953	-52.05
890.125	50.35
890.296	21.67
890.467	9.39
890.638	-9.05
890.809	-2.9
890.98	38.06
891.151	-45.91
891.323	79.02
891.494	-15.19
891.665	17.58
891.836	-39.76
892.007	-113.49
892.178	9.39
892.349	83.11
892.52	5.29
892.691	-0.85
892.862	23.72
893.032	-62.29
893.203	-47.96
893.374	-41.81
893.545	48.3
893.716	-68.44
893.887	81.07
894.057	27.82
894.228	-27.48
894.399	-68.44
894.57	72.87
894.74	60.59
894.911	-19.29
895.082	-7
895.253	-19.29
895.423	-60.24
895.594	36.01
895.764	19.63
895.935	-23.38
896.106	52.39
896.276	-31.57
896.447	13.48
896.617	-39.76
896.788	-56.15
896.958	-0.85
897.129	-113.49
897.299	17.58
897.47	99.5
897.64	-2.9
897.81	38.06
897.981	15.53
898.151	-64.34
898.322	1.19
898.492	44.2
898.662	38.06
898.832	-88.92
899.003	-39.76
899.173	74.92
899.343	-64.34
899.513	-33.62
