Data from USB4F104151__95__13-06-26-597.txt Node

Date: Fri Mar 14 13:06:26 EDT 2025
User: louis
Spectrometer: USB4F10415
Trigger mode: 4
Integration Time (sec): 4.000000E-2
Scans to average: 1
Electric dark correction enabled: true
Nonlinearity correction enabled: false
Boxcar width: 0
XAxis mode: Wavelengths
Number of Pixels in Spectrum: 3648
>>>>>Begin Spectral Data<<<<<
178.204	-190.29
178.424	-190.29
178.644	-190.29
178.864	-167.76
179.084	-130.9
179.304	4.27
179.524	-59.22
179.744	-30.55
179.964	10.41
180.184	2.22
180.404	-18.26
180.624	24.75
180.844	14.51
181.064	-51.03
181.283	63.66
181.503	-5.97
181.723	45.23
181.943	-69.46
182.163	98.47
182.383	-20.31
182.602	82.09
182.822	65.71
183.042	30.89
183.262	34.99
183.482	-16.21
183.701	-18.26
183.921	49.32
184.141	34.99
184.361	61.61
184.58	88.23
184.8	2.22
185.02	61.61
185.239	96.43
185.459	-1.88
185.679	57.51
185.898	-5.97
186.118	55.47
186.338	16.55
186.557	26.79
186.777	88.23
186.997	47.27
187.216	24.75
187.436	32.94
187.655	16.55
187.875	129.19
188.095	6.31
188.314	61.61
188.534	75.95
188.753	-8.02
188.973	82.09
189.192	6.31
189.412	22.7
189.631	20.65
189.851	90.28
190.07	59.56
190.29	-32.6
190.509	8.36
190.729	53.42
190.948	61.61
191.168	211.11
191.387	125.1
191.607	-18.26
191.826	135.34
192.045	28.84
192.265	26.79
192.484	57.51
192.704	26.79
192.923	12.46
193.142	129.19
193.362	53.42
193.581	67.75
193.8	-12.12
194.02	98.47
194.239	-5.97
194.458	47.27
194.678	12.46
194.897	-24.4
195.116	41.13
195.335	41.13
195.555	71.85
195.774	24.75
195.993	86.19
196.212	16.55
196.432	39.08
196.651	59.56
196.87	-10.07
197.089	106.67
197.308	108.71
197.528	34.99
197.747	34.99
197.966	47.27
198.185	153.77
198.404	-61.27
198.623	71.85
198.842	20.65
199.062	8.36
199.281	69.8
199.5	43.18
199.719	-8.02
199.938	10.41
200.157	207.02
200.376	8.36
200.595	123.05
200.814	57.51
201.033	-24.4
201.252	112.81
201.471	98.47
201.69	121
201.909	28.84
202.128	-24.4
202.347	51.37
202.566	73.9
202.785	24.75
203.004	-36.69
203.223	51.37
203.442	39.08
203.661	-61.27
203.879	57.51
204.098	75.95
204.317	-28.5
204.536	82.09
204.755	57.51
204.974	37.03
205.193	2.22
205.411	149.67
205.63	16.55
205.849	55.47
206.068	12.46
206.287	73.9
206.505	32.94
206.724	57.51
206.943	-30.55
207.162	-8.02
207.381	73.9
207.599	18.6
207.818	-18.26
208.037	10.41
208.255	45.23
208.474	6.31
208.693	49.32
208.911	18.6
209.13	80.04
209.349	-28.5
209.567	114.86
209.786	110.76
210.005	47.27
210.223	28.84
210.442	-12.12
210.661	37.03
210.879	34.99
211.098	34.99
211.316	39.08
211.535	71.85
211.753	75.95
211.972	82.09
212.191	28.84
212.409	30.89
212.628	20.65
212.846	-20.31
213.065	4.27
213.283	127.14
213.502	12.46
213.72	94.38
213.938	55.47
214.157	20.65
214.375	139.43
214.594	53.42
214.812	55.47
215.031	77.99
215.249	73.9
215.467	32.94
215.686	-36.69
215.904	73.9
216.122	41.13
216.341	137.38
216.559	106.67
216.778	12.46
216.996	98.47
217.214	32.94
217.432	-75.6
217.651	12.46
217.869	43.18
218.087	2.22
218.306	-28.5
218.524	37.03
218.742	43.18
218.96	57.51
219.179	-14.17
219.397	145.58
219.615	43.18
219.833	49.32
220.051	20.65
220.27	161.96
220.488	116.9
220.706	53.42
220.924	51.37
221.142	28.84
221.36	30.89
221.578	24.75
221.796	41.13
222.015	67.75
222.233	18.6
222.451	69.8
222.669	-38.74
222.887	67.75
223.105	-5.97
223.323	75.95
223.541	53.42
223.759	123.05
223.977	24.75
224.195	75.95
224.413	51.37
224.631	30.89
224.849	57.51
225.067	73.9
225.285	49.32
225.503	12.46
225.721	-16.21
225.939	-8.02
226.157	26.79
226.375	188.58
226.592	34.99
226.81	65.71
227.028	59.56
227.246	110.76
227.464	80.04
227.682	53.42
227.9	45.23
228.117	30.89
228.335	59.56
228.553	18.6
228.771	12.46
228.989	-1.88
229.206	149.67
229.424	51.37
229.642	65.71
229.86	-5.97
230.077	118.95
230.295	14.51
230.513	75.95
230.731	92.33
230.948	86.19
231.166	106.67
231.384	4.27
231.601	43.18
231.819	135.34
232.037	8.36
232.254	22.7
232.472	55.47
232.689	-38.74
232.907	98.47
233.125	-5.97
233.342	51.37
233.56	-96.08
233.777	4.27
233.995	32.94
234.213	61.61
234.43	67.75
234.648	0.17
234.865	55.47
235.083	16.55
235.3	26.79
235.518	90.28
235.735	18.6
235.953	73.9
236.17	98.47
236.388	49.32
236.605	61.61
236.822	57.51
237.04	32.94
237.257	32.94
237.475	2.22
237.692	24.75
237.909	92.33
238.127	32.94
238.344	43.18
238.562	-32.6
238.779	37.03
238.996	20.65
239.214	34.99
239.431	131.24
239.648	-42.84
239.865	51.37
240.083	34.99
240.3	22.7
240.517	112.81
240.735	57.51
240.952	37.03
241.169	39.08
241.386	18.6
241.603	-28.5
241.821	16.55
242.038	96.43
242.255	96.43
242.472	-30.55
242.689	86.19
242.907	71.85
243.124	55.47
243.341	8.36
243.558	-65.36
243.775	41.13
243.992	51.37
244.209	24.75
244.426	133.29
244.643	102.57
244.86	30.89
245.078	-3.93
245.295	10.41
245.512	65.71
245.729	12.46
245.946	22.7
246.163	28.84
246.38	67.75
246.597	118.95
246.814	49.32
247.031	69.8
247.248	24.75
247.464	18.6
247.681	123.05
247.898	41.13
248.115	80.04
248.332	32.94
248.549	166.06
248.766	26.79
248.983	63.66
249.2	59.56
249.417	98.47
249.633	20.65
249.85	71.85
250.067	-26.45
250.284	43.18
250.501	18.6
250.717	116.9
250.934	8.36
251.151	16.55
251.368	28.84
251.585	92.33
251.801	73.9
252.018	51.37
252.235	63.66
252.451	8.36
252.668	-24.4
252.885	4.27
253.102	86.19
253.318	57.51
253.535	59.56
253.752	-10.07
253.968	34.99
254.185	12.46
254.401	82.09
254.618	67.75
254.835	-8.02
255.051	98.47
255.268	86.19
255.484	0.17
255.701	53.42
255.917	39.08
256.134	-48.98
256.351	53.42
256.567	16.55
256.784	84.14
257	10.41
257.217	73.9
257.433	18.6
257.65	73.9
257.866	8.36
258.082	10.41
258.299	20.65
258.515	98.47
258.732	-8.02
258.948	43.18
259.165	12.46
259.381	49.32
259.597	24.75
259.814	18.6
260.03	77.99
260.246	8.36
260.463	94.38
260.679	86.19
260.895	47.27
261.112	114.86
261.328	-44.88
261.544	-48.98
261.761	129.19
261.977	20.65
262.193	-12.12
262.409	0.17
262.626	92.33
262.842	75.95
263.058	47.27
263.274	80.04
263.49	125.1
263.707	41.13
263.923	4.27
264.139	43.18
264.355	-18.26
264.571	127.14
264.787	0.17
265.004	96.43
265.22	73.9
265.436	-14.17
265.652	43.18
265.868	127.14
266.084	45.23
266.3	61.61
266.516	-8.02
266.732	-36.69
266.948	116.9
267.164	12.46
267.38	49.32
267.596	24.75
267.812	63.66
268.028	59.56
268.244	-32.6
268.46	22.7
268.676	32.94
268.892	123.05
269.108	106.67
269.324	77.99
269.54	14.51
269.756	106.67
269.972	-30.55
270.188	59.56
270.403	47.27
270.619	118.95
270.835	69.8
271.051	-42.84
271.267	73.9
271.483	16.55
271.698	53.42
271.914	2.22
272.13	57.51
272.346	10.41
272.562	63.66
272.777	88.23
272.993	20.65
273.209	98.47
273.425	73.9
273.64	-16.21
273.856	34.99
274.072	61.61
274.287	-26.45
274.503	26.79
274.719	102.57
274.934	10.41
275.15	-57.17
275.366	43.18
275.581	39.08
275.797	24.75
276.012	-5.97
276.228	14.51
276.444	-8.02
276.659	108.71
276.875	22.7
277.09	8.36
277.306	-30.55
277.521	71.85
277.737	59.56
277.952	51.37
278.168	155.82
278.383	61.61
278.599	61.61
278.814	-8.02
279.03	-5.97
279.245	82.09
279.461	-5.97
279.676	-22.36
279.892	37.03
280.107	-24.4
280.322	-5.97
280.538	73.9
280.753	14.51
280.969	6.31
281.184	32.94
281.399	106.67
281.615	73.9
281.83	39.08
282.045	18.6
282.26	-5.97
282.476	-1.88
282.691	41.13
282.906	-40.79
283.122	69.8
283.337	-8.02
283.552	57.51
283.767	77.99
283.983	121
284.198	-36.69
284.413	-40.79
284.628	-51.03
284.843	32.94
285.058	28.84
285.274	-8.02
285.489	49.32
285.704	92.33
285.919	67.75
286.134	73.9
286.349	53.42
286.564	14.51
286.779	88.23
286.995	24.75
287.21	6.31
287.425	57.51
287.64	32.94
287.855	59.56
288.07	24.75
288.285	112.81
288.5	116.9
288.715	55.47
288.93	-10.07
289.145	94.38
289.36	73.9
289.575	0.17
289.79	141.48
290.004	41.13
290.219	80.04
290.434	8.36
290.649	32.94
290.864	-24.4
291.079	20.65
291.294	32.94
291.509	55.47
291.724	-26.45
291.938	-30.55
292.153	28.84
292.368	73.9
292.583	135.34
292.798	20.65
293.012	57.51
293.227	59.56
293.442	-32.6
293.657	123.05
293.871	65.71
294.086	100.52
294.301	104.62
294.516	77.99
294.73	20.65
294.945	-65.36
295.16	65.71
295.374	49.32
295.589	100.52
295.804	37.03
296.018	49.32
296.233	86.19
296.447	73.9
296.662	10.41
296.877	57.51
297.091	127.14
297.306	-16.21
297.52	14.51
297.735	49.32
297.949	71.85
298.164	-1.88
298.378	75.95
298.593	0.17
298.807	-8.02
299.022	53.42
299.236	145.58
299.451	57.51
299.665	-3.93
299.88	10.41
300.094	2.22
300.309	32.94
300.523	0.17
300.737	65.71
300.952	135.34
301.166	73.9
301.381	10.41
301.595	49.32
301.809	61.61
302.024	73.9
302.238	69.8
302.452	57.51
302.667	18.6
302.881	104.62
303.095	51.37
303.309	73.9
303.524	47.27
303.738	55.47
303.952	47.27
304.166	45.23
304.381	-8.02
304.595	65.71
304.809	-67.41
305.023	63.66
305.237	32.94
305.452	30.89
305.666	57.51
305.88	108.71
306.094	45.23
306.308	10.41
306.522	65.71
306.736	39.08
306.95	69.8
307.164	88.23
307.379	2.22
307.593	102.57
307.807	104.62
308.021	135.34
308.235	57.51
308.449	37.03
308.663	37.03
308.877	151.72
309.091	127.14
309.305	63.66
309.519	16.55
309.733	86.19
309.947	-10.07
310.161	135.34
310.374	47.27
310.588	73.9
310.802	20.65
311.016	-5.97
311.23	67.75
311.444	-55.12
311.658	80.04
311.872	123.05
312.085	166.06
312.299	121
312.513	53.42
312.727	37.03
312.941	100.52
313.154	88.23
313.368	22.7
313.582	26.79
313.796	61.61
314.009	51.37
314.223	71.85
314.437	90.28
314.651	30.89
314.864	12.46
315.078	43.18
315.292	24.75
315.505	-20.31
315.719	57.51
315.933	37.03
316.146	-3.93
316.36	-8.02
316.573	51.37
316.787	77.99
317.001	151.72
317.214	-28.5
317.428	43.18
317.641	67.75
317.855	45.23
318.068	94.38
318.282	-12.12
318.495	80.04
318.709	100.52
318.922	55.47
319.136	22.7
319.349	-3.93
319.563	57.51
319.776	49.32
319.99	0.17
320.203	73.9
320.417	41.13
320.63	37.03
320.843	149.67
321.057	12.46
321.27	57.51
321.483	41.13
321.697	32.94
321.91	88.23
322.124	131.24
322.337	10.41
322.55	34.99
322.763	18.6
322.977	100.52
323.19	-26.45
323.403	-12.12
323.617	59.56
323.83	102.57
324.043	77.99
324.256	86.19
324.469	-1.88
324.683	71.85
324.896	55.47
325.109	59.56
325.322	4.27
325.535	41.13
325.748	20.65
325.962	-8.02
326.175	-10.07
326.388	129.19
326.601	71.85
326.814	12.46
327.027	10.41
327.24	88.23
327.453	-24.4
327.666	71.85
327.879	149.67
328.092	51.37
328.305	102.57
328.518	32.94
328.731	-18.26
328.944	-40.79
329.157	75.95
329.37	108.71
329.583	112.81
329.796	168.1
330.009	-40.79
330.222	0.17
330.435	-16.21
330.648	-20.31
330.861	141.48
331.073	28.84
331.286	24.75
331.499	28.84
331.712	34.99
331.925	43.18
332.138	22.7
332.35	49.32
332.563	0.17
332.776	86.19
332.989	43.18
333.202	77.99
333.414	24.75
333.627	57.51
333.84	-3.93
334.053	86.19
334.265	-16.21
334.478	10.41
334.691	98.47
334.903	63.66
335.116	43.18
335.329	-5.97
335.541	2.22
335.754	116.9
335.966	10.41
336.179	51.37
336.392	73.9
336.604	12.46
336.817	77.99
337.029	65.71
337.242	88.23
337.454	39.08
337.667	28.84
337.88	127.14
338.092	47.27
338.305	86.19
338.517	77.99
338.729	75.95
338.942	75.95
339.154	22.7
339.367	90.28
339.579	90.28
339.792	-48.98
340.004	26.79
340.217	-36.69
340.429	59.56
340.641	114.86
340.854	34.99
341.066	-16.21
341.278	98.47
341.491	143.53
341.703	96.43
341.915	26.79
342.128	108.71
342.34	63.66
342.552	32.94
342.764	53.42
342.977	75.95
343.189	-24.4
343.401	112.81
343.613	10.41
343.826	51.37
344.038	47.27
344.25	127.14
344.462	4.27
344.674	20.65
344.886	94.38
345.099	34.99
345.311	133.29
345.523	77.99
345.735	84.14
345.947	82.09
346.159	6.31
346.371	26.79
346.583	10.41
346.795	77.99
347.007	37.03
347.219	63.66
347.431	32.94
347.643	63.66
347.855	-20.31
348.067	106.67
348.279	-5.97
348.491	4.27
348.703	55.47
348.915	18.6
349.127	96.43
349.339	61.61
349.551	32.94
349.763	47.27
349.975	73.9
350.187	59.56
350.399	172.2
350.61	67.75
350.822	61.61
351.034	24.75
351.246	28.84
351.458	73.9
351.669	47.27
351.881	75.95
352.093	104.62
352.305	34.99
352.517	123.05
352.728	86.19
352.94	77.99
353.152	118.95
353.363	47.27
353.575	43.18
353.787	65.71
353.999	57.51
354.21	61.61
354.422	53.42
354.633	10.41
354.845	57.51
355.057	24.75
355.268	34.99
355.48	53.42
355.692	102.57
355.903	84.14
356.115	61.61
356.326	2.22
356.538	75.95
356.749	141.48
356.961	147.62
357.172	127.14
357.384	30.89
357.595	77.99
357.807	28.84
358.018	57.51
358.23	63.66
358.441	73.9
358.653	18.6
358.864	90.28
359.075	43.18
359.287	57.51
359.498	116.9
359.709	92.33
359.921	98.47
360.132	41.13
360.344	26.79
360.555	30.89
360.766	84.14
360.977	26.79
361.189	53.42
361.4	0.17
361.611	69.8
361.823	112.81
362.034	118.95
362.245	8.36
362.456	123.05
362.667	30.89
362.879	110.76
363.09	114.86
363.301	88.23
363.512	20.65
363.723	20.65
363.935	123.05
364.146	92.33
364.357	4.27
364.568	104.62
364.779	39.08
364.99	131.24
365.201	-28.5
365.412	49.32
365.623	45.23
365.834	75.95
366.045	22.7
366.256	123.05
366.467	82.09
366.678	18.6
366.889	-12.12
367.1	49.32
367.311	129.19
367.522	-8.02
367.733	32.94
367.944	98.47
368.155	39.08
368.366	18.6
368.577	118.95
368.788	92.33
368.999	-16.21
369.209	67.75
369.42	71.85
369.631	143.53
369.842	110.76
370.053	65.71
370.264	108.71
370.474	61.61
370.685	75.95
370.896	-8.02
371.107	45.23
371.317	32.94
371.528	92.33
371.739	67.75
371.95	69.8
372.16	67.75
372.371	-59.22
372.582	57.51
372.792	149.67
373.003	30.89
373.214	34.99
373.424	141.48
373.635	28.84
373.846	71.85
374.056	28.84
374.267	94.38
374.477	18.6
374.688	34.99
374.898	102.57
375.109	63.66
375.319	63.66
375.53	49.32
375.74	57.51
375.951	49.32
376.161	63.66
376.372	94.38
376.582	47.27
376.793	49.32
377.003	45.23
377.214	41.13
377.424	59.56
377.635	12.46
377.845	16.55
378.055	41.13
378.266	16.55
378.476	59.56
378.686	82.09
378.897	-16.21
379.107	53.42
379.317	37.03
379.528	61.61
379.738	159.91
379.948	55.47
380.158	82.09
380.369	98.47
380.579	90.28
380.789	106.67
380.999	67.75
381.21	92.33
381.42	131.24
381.63	116.9
381.84	116.9
382.05	75.95
382.261	108.71
382.471	100.52
382.681	8.36
382.891	147.62
383.101	57.51
383.311	14.51
383.521	57.51
383.731	106.67
383.941	80.04
384.151	88.23
384.361	96.43
384.571	59.56
384.781	172.2
384.991	110.76
385.201	110.76
385.411	125.1
385.621	37.03
385.831	86.19
386.041	65.71
386.251	34.99
386.461	82.09
386.671	131.24
386.881	116.9
387.091	2.22
387.301	49.32
387.511	75.95
387.72	123.05
387.93	102.57
388.14	45.23
388.35	110.76
388.56	59.56
388.769	110.76
388.979	157.86
389.189	47.27
389.399	100.52
389.609	129.19
389.818	172.2
390.028	123.05
390.238	80.04
390.447	118.95
390.657	98.47
390.867	98.47
391.076	43.18
391.286	141.48
391.496	77.99
391.705	112.81
391.915	106.67
392.125	71.85
392.334	100.52
392.544	86.19
392.753	129.19
392.963	-12.12
393.172	57.51
393.382	67.75
393.591	172.2
393.801	14.51
394.01	219.3
394.22	151.72
394.429	82.09
394.639	73.9
394.848	-16.21
395.058	149.67
395.267	59.56
395.477	102.57
395.686	43.18
395.895	155.82
396.105	202.92
396.314	164.01
396.524	77.99
396.733	116.9
396.942	176.3
397.152	123.05
397.361	164.01
397.57	114.86
397.78	92.33
397.989	84.14
398.198	172.2
398.407	116.9
398.617	139.43
398.826	106.67
399.035	94.38
399.244	37.03
399.453	161.96
399.663	153.77
399.872	143.53
400.081	96.43
400.29	204.97
400.499	71.85
400.708	164.01
400.917	143.53
401.127	131.24
401.336	98.47
401.545	229.54
401.754	161.96
401.963	145.58
402.172	143.53
402.381	45.23
402.59	139.43
402.799	161.96
403.008	161.96
403.217	221.35
403.426	221.35
403.635	129.19
403.844	147.62
404.053	180.39
404.262	188.58
404.471	135.34
404.68	186.54
404.888	149.67
405.097	155.82
405.306	217.26
405.515	215.21
405.724	178.34
405.933	174.25
406.142	321.7
406.35	286.89
406.559	258.21
406.768	233.64
406.977	280.74
407.185	241.83
407.394	235.69
407.603	188.58
407.812	215.21
408.02	313.51
408.229	268.45
408.438	286.89
408.646	282.79
408.855	315.56
409.064	274.6
409.272	374.95
409.481	385.19
409.69	299.17
409.898	241.83
410.107	264.36
410.315	409.76
410.524	338.09
410.733	262.31
410.941	401.57
411.15	405.67
411.358	438.44
411.567	514.21
411.775	456.87
411.984	344.23
412.192	583.84
412.401	508.07
412.609	483.49
412.818	622.75
413.026	477.35
413.234	487.59
413.443	649.38
413.651	553.12
413.86	635.04
414.068	729.25
414.276	778.4
414.485	659.62
414.693	688.29
414.901	800.93
415.11	766.11
415.318	807.07
415.526	768.16
415.734	895.13
415.943	882.85
416.151	901.28
416.359	946.33
416.567	989.34
416.776	940.19
416.984	1118.36
417.192	1099.93
417.4	1075.35
417.608	1065.11
417.817	1085.59
418.025	1200.28
418.233	1298.58
418.441	1190.04
418.649	1368.21
418.857	1388.69
419.065	1487
419.273	1460.37
419.481	1513.62
419.689	1536.15
419.897	1585.3
420.105	1687.7
420.313	1634.45
420.521	1706.13
420.729	1912.97
420.937	1706.13
421.145	1806.48
421.353	1964.17
421.561	2113.67
421.769	2080.91
421.977	2328.71
422.185	2244.74
422.393	2402.44
422.601	2445.45
422.809	2672.77
423.017	2476.16
423.224	2635.91
423.432	2652.29
423.64	2728.07
423.848	2902.14
424.056	2881.66
424.263	3170.43
424.471	3221.63
424.679	3125.37
424.887	3350.65
425.094	3508.34
425.302	3530.87
425.51	3653.75
425.718	3670.13
425.925	3842.16
426.133	3934.32
426.341	4081.77
426.548	4337.77
426.756	4438.12
426.964	4515.94
427.171	4610.15
427.379	4722.79
427.586	4704.35
427.794	4956.26
428.001	5134.43
428.209	5503.06
428.417	5318.75
428.624	5711.96
428.832	5720.15
429.039	5734.48
429.247	5736.53
429.454	6334.54
429.662	6721.6
429.869	6338.63
430.076	6629.45
430.284	6525
430.491	6885.44
430.699	7204.92
430.906	7292.99
431.114	7286.84
431.321	7501.88
431.528	7788.6
431.736	8157.23
431.943	8501.29
432.15	8230.96
432.358	8536.1
432.565	8712.23
432.772	8661.03
432.979	9318.43
433.187	9338.91
433.394	9498.65
433.601	10158.1
433.808	10164.24
434.016	10147.86
434.223	10596.36
434.43	11214.85
434.637	10979.33
434.844	11659.26
435.052	12017.65
435.259	11870.2
435.466	12013.56
435.673	11806.71
435.88	12640.23
436.087	13010.92
436.294	13350.88
436.501	12918.76
436.708	13443.04
436.915	13748.18
437.122	14493.65
437.329	14329.81
437.537	14854.09
437.743	14829.51
437.95	14741.45
438.157	15759.29
438.364	16230.32
438.571	16113.59
438.778	16273.33
438.985	17637.28
439.192	17090.47
439.399	17801.12
439.606	16994.22
439.813	18395.03
440.02	19302.28
440.227	18724.75
440.433	18753.42
440.64	19103.62
440.847	19242.89
441.054	19806.08
441.261	20969.32
441.467	20805.49
441.674	21100.39
441.881	21919.58
442.088	22095.71
442.294	21749.6
442.501	22460.24
442.708	23127.88
442.914	23490.37
443.121	24465.21
443.328	24059.71
443.534	25747.23
443.741	24835.89
443.948	24715.06
444.154	26466.07
444.361	26582.81
444.568	26474.26
444.774	26558.23
444.981	27035.41
445.187	27764.48
445.394	28970.74
445.6	28233.47
445.807	30979.79
446.013	29812.45
446.22	30312.16
446.426	31672.01
446.633	31909.57
446.839	33283.76
447.046	31387.34
447.252	33654.44
447.459	33429.16
447.665	33328.81
447.871	34920.09
448.078	36007.56
448.284	34473.63
448.491	35380.88
448.697	37035.64
448.903	37846.63
449.11	37852.78
449.316	36742.78
449.522	37723.76
449.728	38788.7
449.935	39323.22
450.141	39163.48
450.347	39976.52
450.553	38968.92
450.76	39282.26
450.966	41035.32
451.172	40113.73
451.378	41545.26
451.584	40289.86
451.791	41401.91
451.997	41408.05
452.203	41940.52
452.409	42163.75
452.615	42090.02
452.821	40506.94
453.027	40187.46
453.233	42036.78
453.44	40496.7
453.646	41115.19
453.852	41094.71
454.058	42012.2
454.264	40267.33
454.47	41526.83
454.676	40697.41
454.882	42024.49
455.088	38135.4
455.294	39261.78
455.5	39468.62
455.705	39933.51
455.911	38764.12
456.117	37310.07
456.323	37183.09
456.529	35344.02
456.735	37101.17
456.941	36011.65
457.147	35384.97
457.352	34463.39
457.558	34379.42
457.764	34162.34
457.97	33154.74
458.176	32659.13
458.381	32763.57
458.587	31321.8
458.793	31205.07
458.999	29249.26
459.204	31682.25
459.41	30758.61
459.616	28937.97
459.821	28772.08
460.027	28530.42
460.233	28366.59
460.438	26986.25
460.644	27078.41
460.85	25884.45
461.055	25634.6
461.261	25143.08
461.466	23371.59
461.672	22785.87
461.878	24325.94
462.083	22910.8
462.289	22376.28
462.494	22349.65
462.7	21129.06
462.905	20492.15
463.111	21233.51
463.316	21528.42
463.522	20838.25
463.727	20875.12
463.932	20754.29
464.138	20735.85
464.343	20789.1
464.549	19965.82
464.754	20803.44
464.959	20502.39
465.165	20397.94
465.37	19486.59
465.575	19087.24
465.781	19814.27
465.986	19959.67
466.191	19009.42
466.397	18745.23
466.602	18122.65
466.807	18345.87
467.012	18579.34
467.218	18540.43
467.423	18395.03
467.628	18352.02
467.833	18937.74
468.038	18364.31
468.244	18032.54
468.449	18763.66
468.654	17956.76
468.859	17729.44
469.064	17846.17
469.269	17084.33
469.474	17285.03
469.679	17637.28
469.885	17160.1
470.09	17366.95
470.295	17323.94
470.5	16990.12
470.705	16902.06
470.91	16467.89
471.115	16463.79
471.32	16551.85
471.525	16422.83
471.73	15974.33
471.935	15970.23
472.139	15458.24
472.344	15638.46
472.549	15644.6
472.754	15351.74
472.959	14784.46
473.164	14712.78
473.369	14530.51
473.574	15237.06
473.778	14876.62
473.983	14890.95
474.188	14659.53
474.393	14155.73
474.598	14223.31
474.802	14030.8
475.007	14018.52
475.212	14155.73
475.417	13543.39
475.621	13459.42
475.826	13563.87
476.031	13271.01
476.235	12920.81
476.44	13375.45
476.645	13033.44
476.849	12888.04
477.054	12763.11
477.259	12435.44
477.463	12576.75
477.668	12445.68
477.872	12398.57
478.077	12095.47
478.282	12003.32
478.486	11921.4
478.691	11909.11
478.895	11575.29
479.1	11644.92
479.304	11569.15
479.509	11403.26
479.713	11509.76
479.918	11309.05
480.122	11055.11
480.326	11360.25
480.531	11352.06
480.735	10919.94
480.94	10960.9
481.144	11247.62
481.348	11055.11
481.553	10997.76
481.757	10446.86
481.961	10829.83
482.166	10827.78
482.37	10848.26
482.574	10682.38
482.778	10567.69
482.983	11110.4
483.187	10665.99
483.391	10971.14
483.595	10756.1
483.8	10870.79
484.004	10846.21
484.208	10715.14
484.412	10733.57
484.616	10903.56
484.821	10727.43
485.025	10633.22
485.229	10876.93
485.433	10799.11
485.637	10545.16
485.841	10571.79
486.045	10661.9
486.249	10635.27
486.453	10756.1
486.657	10762.25
486.861	11036.67
487.065	10512.39
487.269	10727.43
487.473	10496.01
487.677	10618.89
487.881	10860.55
488.085	10680.33
488.289	10844.17
488.493	10895.36
488.697	10618.89
488.901	10788.87
489.105	10878.98
489.309	11128.83
489.512	10747.91
489.716	10870.79
489.92	11001.86
490.124	10921.99
490.328	11192.32
490.531	10872.84
490.735	10946.56
490.939	10944.52
491.143	10864.64
491.346	11071.49
491.55	11186.18
491.754	11214.85
491.958	11261.95
492.161	11247.62
492.365	11165.7
492.569	11243.52
492.772	11190.27
492.976	11395.07
493.18	11307.01
493.383	11612.15
493.587	11687.93
493.79	11563
493.994	11716.6
494.197	11775.99
494.401	12048.37
494.605	11814.9
494.808	12040.18
495.012	12255.22
495.215	12316.65
495.419	12144.63
495.622	12058.61
495.825	12314.61
496.029	12460.01
496.232	12810.22
496.436	12441.58
496.639	12996.58
496.843	12822.5
497.046	13033.44
497.249	13184.99
497.453	13264.86
497.656	13686.75
497.859	13324.26
498.063	13729.75
498.266	13891.54
498.469	13858.78
498.673	13969.37
498.876	14065.62
499.079	14524.37
499.282	14274.51
499.485	14917.58
499.689	14702.54
499.892	14714.83
500.095	14766.03
500.298	15120.32
500.501	14958.53
500.705	15603.64
500.908	15611.84
501.111	15812.54
501.314	15986.61
501.517	16048.05
501.72	16400.3
501.923	16330.67
502.126	16617.39
502.329	16637.87
502.532	17086.37
502.735	16910.25
502.938	17471.39
503.141	17467.3
503.344	17792.92
503.547	17864.6
503.75	18116.5
503.953	18413.46
504.156	18503.57
504.359	18761.61
504.562	18802.57
504.765	19326.85
504.968	19378.05
505.17	19672.96
505.373	19783.55
505.576	19767.17
505.779	20070.26
505.982	20049.78
506.185	20461.43
506.387	20823.92
506.59	21043.05
506.793	21288.81
506.996	21243.75
507.198	21835.61
507.401	21892.96
507.604	22030.17
507.807	22363.99
508.009	22658.9
508.212	23033.68
508.415	22898.51
508.617	23025.48
508.82	23035.72
509.022	23148.36
509.225	23885.63
509.428	23867.2
509.63	23789.38
509.833	24061.76
510.035	24749.87
510.238	25044.78
510.44	25163.56
510.643	25521.96
510.845	25839.39
511.048	25519.91
511.25	26081.05
511.453	26306.33
511.655	27115.28
511.858	26707.73
512.06	27137.8
512.262	27184.91
512.465	27076.37
512.667	27662.08
512.87	27907.84
513.072	28165.88
513.274	28391.16
513.477	28731.12
513.679	29155.05
513.881	29341.42
514.084	29763.3
514.286	29794.02
514.488	29771.49
514.69	30514.91
514.893	30623.45
515.095	30789.33
515.297	30973.65
515.499	31278.8
515.701	31766.21
515.904	31899.33
516.106	32224.96
516.308	32542.39
516.51	32898.74
516.712	32669.37
516.914	33216.18
517.116	34070.18
517.318	33775.27
517.52	34035.36
517.722	34432.67
517.925	34297.5
518.127	35071.64
518.329	35333.78
518.531	34993.81
518.733	36023.94
518.935	35808.9
519.136	36015.75
519.338	36185.73
519.54	36607.61
519.742	36957.81
519.944	37357.17
520.146	37746.28
520.348	37836.39
520.55	37748.33
520.752	38516.32
520.954	38815.32
521.155	38499.94
521.357	39083.61
521.559	39886.41
521.761	40267.33
521.963	39599.69
522.164	40083.02
522.366	40214.09
522.568	40726.08
522.77	40693.31
522.971	41256.5
523.173	41012.79
523.375	41363
523.576	41141.81
523.778	41471.54
523.98	42092.07
524.181	42229.29
524.383	42223.14
524.584	43101.72
524.786	43169.3
524.988	42673.7
525.189	43642.38
525.391	43648.53
525.592	43660.82
525.794	43920.91
525.995	43873.81
526.197	44437
526.398	44279.3
526.6	44873.21
526.801	44719.62
527.003	45291
527.204	45127.16
527.406	45538.8
527.607	45682.16
527.808	45387.25
528.01	45149.69
528.211	45575.67
528.412	46403.05
528.614	46157.29
528.815	46015.98
529.016	46798.3
529.218	46267.88
529.419	46820.83
529.62	46388.71
529.822	46714.34
530.023	46736.87
530.224	46210.54
530.425	46706.15
530.626	46802.4
530.828	46579.17
531.029	47537.62
531.23	47160.8
531.431	47128.03
531.632	47414.74
531.833	47740.37
532.035	47379.93
532.236	47592.92
532.437	47375.83
532.638	47015.39
532.839	47664.6
533.04	48123.34
533.241	47353.3
533.442	48123.34
533.643	47556.05
533.844	47631.83
534.045	47848.91
534.246	47179.23
534.447	47906.26
534.648	47408.6
534.849	47898.06
535.05	47967.69
535.251	48117.2
535.451	47781.33
535.652	47994.32
535.853	47482.33
536.054	47805.91
536.255	47771.09
536.456	47719.89
536.657	48688.58
536.857	47846.86
537.058	47650.26
537.259	48352.71
537.46	47885.78
537.66	47697.36
537.861	48248.27
538.062	48000.46
538.263	47918.54
538.463	47979.98
538.664	47746.51
538.865	48004.56
539.065	48215.5
539.266	47619.54
539.466	48268.75
539.667	47488.47
539.868	48299.47
540.068	48180.68
540.269	47830.48
540.469	48156.11
540.67	47652.31
540.87	48092.62
541.071	47554.01
541.271	47863.25
541.472	47943.12
541.672	47707.6
541.873	47441.37
542.073	47246.81
542.274	48147.92
542.474	47691.22
542.675	47637.97
542.875	47930.83
543.075	47805.91
543.276	47500.76
543.476	48291.27
543.676	47627.73
543.877	47986.13
544.077	48127.44
544.277	47418.84
544.478	47156.7
544.678	47689.17
544.878	47642.07
545.078	47924.69
545.279	47293.91
545.479	47197.66
545.679	47396.31
545.879	47967.69
546.079	47394.26
546.28	47400.41
546.48	47205.85
546.68	47959.5
546.88	47764.95
547.08	47400.41
547.28	46927.33
547.48	46847.46
547.68	47465.94
547.88	47093.21
548.081	47545.81
548.281	47683.03
548.481	47408.6
548.681	47732.18
548.881	47252.95
549.081	47379.93
549.28	47306.2
549.48	47351.26
549.68	47201.75
549.88	47828.43
550.08	47498.71
550.28	47140.32
550.48	47078.88
550.68	47535.57
550.88	47478.23
551.08	47207.9
551.279	47459.8
551.479	46636.52
551.679	46902.75
551.879	46640.61
552.079	47304.15
552.278	46931.42
552.478	47291.87
552.678	47197.66
552.878	47269.34
553.077	46601.7
553.277	46370.28
553.477	47341.02
553.676	46915.04
553.876	46708.19
554.076	47074.78
554.275	46546.4
554.475	46269.93
554.674	46999.01
554.874	46771.68
555.074	46429.67
555.273	46906.85
555.473	47197.66
555.672	46235.11
555.872	46415.33
556.071	46269.93
556.271	46695.91
556.47	46177.77
556.67	45856.24
556.869	46362.09
557.068	46474.73
557.268	46126.57
557.467	46110.19
557.667	46048.75
557.866	46169.58
558.065	46040.56
558.265	45817.33
558.464	45383.16
558.663	46030.32
558.863	45946.35
559.062	46134.76
559.261	45420.02
559.461	45913.58
559.66	45475.32
559.859	45415.93
560.058	45241.85
560.258	45305.34
560.457	45014.52
560.656	45438.45
560.855	45454.84
561.054	45247.99
561.253	44981.76
561.453	44797.44
561.652	45409.78
561.851	44875.26
562.05	45075.96
562.249	44828.16
562.448	44977.66
562.647	44553.73
562.846	44893.69
563.045	44766.72
563.244	44375.56
563.443	44539.4
563.642	43902.48
563.841	43798.03
564.04	44219.91
564.239	44242.44
564.438	43707.92
564.637	44322.31
564.836	44402.18
565.035	43572.75
565.234	43662.86
565.432	43705.87
565.631	43525.65
565.83	43279.89
566.029	43425.3
566.228	43236.89
566.427	43345.43
566.625	43208.22
566.824	42538.53
567.023	43478.55
567.222	42309.16
567.42	43431.44
567.619	42532.39
567.818	42546.72
568.016	42569.25
568.215	42372.64
568.414	42602.02
568.612	42587.68
568.811	42229.29
569.01	42421.8
569.208	41946.67
569.407	42425.89
569.605	41623.09
569.804	42049.07
570.002	41709.1
570.201	41317.94
570.4	41752.11
570.598	41616.94
570.797	41489.97
570.995	41702.96
571.193	40760.89
571.392	41201.21
571.59	40857.15
571.789	41082.42
571.987	40916.54
572.186	40898.11
572.384	40822.33
572.582	40851
572.781	40697.41
572.979	39923.27
573.177	40390.21
573.376	40392.26
573.574	40173.13
573.772	39999.05
573.971	40060.49
574.169	40037.96
574.367	39870.03
574.565	40013.38
574.763	39325.27
574.962	39384.66
575.16	39386.71
575.358	39493.2
575.556	38753.88
575.754	39409.23
575.952	38667.87
576.151	39190.1
576.349	38823.51
576.547	38534.75
576.745	38686.3
576.943	38934.1
577.141	38612.57
577.339	38590.05
577.537	38172.26
577.735	38235.75
577.933	38055.53
578.131	38112.87
578.329	37602.92
578.527	37482.09
578.725	37770.86
578.923	38000.23
579.121	37774.95
579.319	37641.84
579.516	37690.99
579.714	37754.47
579.912	37404.27
580.11	37113.46
580.308	37344.88
580.506	37119.6
580.704	36337.28
580.901	36793.98
581.099	36873.85
581.297	36775.55
581.495	36376.19
581.692	36322.94
581.89	36398.72
582.088	36404.86
582.285	36169.35
582.483	36177.54
582.681	35796.62
582.878	36081.28
583.076	35681.93
583.274	35993.22
583.471	35651.21
583.669	35520.14
583.866	35686.03
584.064	35528.33
584.262	35292.82
584.459	35473.04
584.657	35231.38
584.854	35292.82
585.052	34727.58
585.249	35073.68
585.447	34739.86
585.644	34219.68
585.841	34899.61
586.039	34856.6
586.236	34518.68
586.434	34201.25
586.631	33922.73
586.828	34180.77
587.026	34070.18
587.223	34031.27
587.42	33539.75
587.618	33945.25
587.815	33732.26
588.012	33652.39
588.21	33435.31
588.407	33779.37
588.604	33218.22
588.801	33105.59
588.999	32917.17
589.196	32648.89
589.393	33013.43
589.59	32904.88
589.787	32691.9
589.984	32868.02
590.182	32274.11
590.379	32771.77
590.576	32188.1
590.773	32224.96
590.97	32425.66
591.167	32161.47
591.364	31606.47
591.561	31805.13
591.758	31753.93
591.955	31819.46
592.152	31944.39
592.349	31387.34
592.546	31903.43
592.743	31196.88
592.94	31100.62
593.137	31364.81
593.334	31573.7
593.531	30633.69
593.727	31014.61
593.924	31108.82
594.121	30680.79
594.318	30799.57
594.515	30314.2
594.712	30818
594.908	30410.46
595.105	30392.03
595.302	29927.14
595.499	30400.22
595.696	30269.15
595.892	29865.7
596.089	30211.81
596.286	30365.4
596.482	29847.27
596.679	29738.72
596.876	29830.88
597.072	29304.56
597.269	29550.31
597.466	29605.61
597.662	29396.71
597.859	29163.25
598.055	28948.21
598.252	28704.5
598.448	28980.98
598.645	28817.14
598.841	28833.52
599.038	28632.82
599.234	28876.53
599.431	28008.19
599.627	28530.42
599.824	28387.07
600.02	28229.37
600.217	28354.3
600.413	28108.54
600.609	27690.76
600.806	28010.24
601.002	28227.32
601.198	27811.59
601.395	27494.15
601.591	27846.4
601.787	27768.58
601.984	27252.49
602.18	27479.82
602.376	27217.68
602.572	27084.56
602.769	26933.01
602.965	26666.77
603.161	27158.28
603.357	26607.38
603.553	26951.44
603.75	26621.72
603.946	26451.74
604.142	26642.2
604.338	26416.92
604.534	26212.12
604.73	26382.1
604.926	26169.12
605.122	26478.36
605.318	25966.37
605.514	26074.91
605.71	26011.42
605.906	25612.07
606.102	26218.27
606.298	25861.92
606.494	25706.27
606.69	25780
606.886	25919.26
607.082	25212.71
607.278	25476.9
607.474	24844.08
607.67	25427.75
607.866	25159.47
608.062	25333.54
608.257	25085.74
608.453	25032.49
608.649	25024.3
608.845	24725.3
609.041	25149.23
609.236	24842.03
609.432	24459.06
609.628	24655.67
609.824	24708.91
610.019	24567.6
610.215	24409.91
610.411	24786.74
610.606	24184.63
610.802	24387.38
610.998	24065.85
611.193	24391.48
611.389	24139.58
611.584	24194.87
611.78	24104.76
611.976	23998.27
612.171	24575.8
612.367	24010.56
612.562	23781.18
612.758	23592.77
612.953	23508.8
613.149	23906.11
613.344	23633.73
613.539	23861.05
613.735	23725.89
613.93	23408.45
614.126	23527.24
614.321	23498.56
614.517	23494.47
614.712	23592.77
614.907	23267.14
615.103	23367.49
615.298	23086.92
615.493	23189.32
615.688	22695.76
615.884	23654.21
616.079	22873.93
616.274	22994.76
616.47	22986.57
616.665	22894.41
616.86	22978.38
617.055	22697.81
617.25	22648.66
617.445	22927.18
617.641	22407
617.836	22914.89
618.031	22363.99
618.226	22660.94
618.421	22048.6
618.616	22409.04
618.811	22030.17
619.006	22589.27
619.201	21788.51
619.396	22064.99
619.591	21921.63
619.786	22048.6
619.981	21471.08
620.176	21974.88
620.371	21608.29
620.566	21303.14
620.761	21403.49
620.956	21505.89
621.151	20969.32
621.346	21120.87
621.541	20895.6
621.735	21094.25
621.93	20793.2
622.125	20916.08
622.32	20723.57
622.515	20653.94
622.709	20518.77
622.904	20459.38
623.099	20498.29
623.294	20320.12
623.488	19904.38
623.683	20203.38
623.878	19822.46
624.072	19836.8
624.267	20008.83
624.462	19380.1
624.656	19502.98
624.851	19165.06
625.046	19396.48
625.24	19212.17
625.435	19038.09
625.629	18937.74
625.824	18964.36
626.018	18915.21
626.213	18300.82
626.407	18515.86
626.602	18349.97
626.796	18276.24
626.991	18356.11
627.185	18286.48
627.38	18298.77
627.574	18392.98
627.768	17702.81
627.963	17725.34
628.157	17678.24
628.352	17727.39
628.546	17739.68
628.74	17639.33
628.935	17215.4
629.129	17248.16
629.323	16981.93
629.517	17123.24
629.712	16955.3
629.906	17135.53
630.1	16588.72
630.294	16617.39
630.489	16670.64
630.683	16828.33
630.877	16371.63
631.071	16428.98
631.265	16439.22
631.459	16015.29
631.653	15998.9
631.848	16109.49
632.042	15857.59
632.236	15984.57
632.43	15896.5
632.624	16023.48
632.818	15726.52
633.012	15450.05
633.206	15515.58
633.4	15546.3
633.594	15359.94
633.788	15329.22
633.982	15302.59
634.176	15026.12
634.369	14837.7
634.563	15120.32
634.757	14901.19
634.951	14790.6
635.145	14725.07
635.339	14806.98
635.533	14657.48
635.726	14604.24
635.92	14460.88
636.114	14325.71
636.308	14284.75
636.501	14280.66
636.695	14090.2
636.889	14008.28
637.083	13981.65
637.276	13809.62
637.47	13903.83
637.664	13733.85
637.857	13647.83
638.051	13539.29
638.244	13543.39
638.438	13463.52
638.632	13619.16
638.825	13344.74
639.019	13258.72
639.212	13244.38
639.406	13242.34
639.599	13156.32
639.793	12992.48
639.986	12926.95
640.18	13115.36
640.373	12918.76
640.567	12885.99
640.76	12668.91
640.954	12466.16
641.147	12306.41
641.34	12388.33
641.534	12300.27
641.727	12290.03
641.92	12365.81
642.114	12269.55
642.307	12142.58
642.5	12275.7
642.694	11632.63
642.887	11950.07
643.08	11855.86
643.273	11962.36
643.467	11669.5
643.66	11747.32
643.853	11747.32
644.046	11573.24
644.239	11616.25
644.432	11298.81
644.626	11495.42
644.819	11505.66
645.012	11356.16
645.205	11393.02
645.398	11218.94
645.591	11157.5
645.784	11096.07
645.977	11079.68
646.17	10870.79
646.363	10944.52
646.556	10749.96
646.749	10655.75
646.942	10690.57
647.135	10465.29
647.328	10706.95
647.521	10565.64
647.714	10477.58
647.907	10410
648.099	10311.69
648.292	10410
648.485	10330.13
648.678	10113.04
648.871	10145.81
649.064	9961.49
649.256	10072.08
649.449	10033.17
649.642	9773.08
649.835	9818.13
650.027	9906.2
650.22	10096.66
650.413	9611.29
650.605	9838.61
650.798	9502.75
650.991	9453.59
651.183	9695.25
651.376	9459.74
651.568	9588.76
651.761	9463.83
651.954	9429.02
652.146	9375.77
652.339	9289.76
652.531	9279.52
652.724	9148.45
652.916	8980.51
653.109	9060.38
653.301	8925.22
653.494	9023.52
653.686	8863.78
653.879	9035.81
654.071	8835.11
654.263	8671.27
654.456	8687.65
654.648	8699.94
654.84	8620.07
655.033	8765.48
655.225	8417.32
655.417	8458.28
655.61	8394.79
655.802	8402.99
655.994	8405.03
656.186	8411.18
656.379	8282.16
656.571	8208.43
656.763	8294.44
656.955	7985.2
657.148	8212.53
657.34	8226.86
657.532	8060.98
657.724	7938.1
657.916	7993.39
658.108	8026.16
658.3	7731.25
658.492	7958.58
658.684	7811.12
658.876	7893.04
659.068	7868.47
659.26	7725.11
659.452	7571.51
659.644	7780.4
659.836	7458.87
660.028	7598.13
660.22	7419.96
660.412	7503.93
660.604	7200.83
660.796	7426.11
660.988	7381.05
661.18	7340.09
661.372	7258.17
661.563	7366.71
661.755	7292.99
661.947	7194.68
662.139	7118.91
662.331	6750.28
662.522	6953.02
662.714	7024.7
662.906	6971.46
663.097	7075.9
663.289	6883.39
663.481	6797.38
663.673	6953.02
663.864	6834.24
664.056	6723.65
664.247	6996.03
664.439	6871.11
664.631	6834.24
664.822	6590.53
665.014	6635.59
665.205	6858.82
665.397	6561.86
665.588	6789.19
665.78	6576.2
665.971	6510.66
666.163	6643.78
666.354	6428.74
666.546	6608.97
666.737	6369.35
666.929	6570.05
667.12	6506.57
667.311	6264.91
667.503	6269
667.694	6291.53
667.885	6154.32
668.077	6211.66
668.268	6035.53
668.459	6260.81
668.651	6150.22
668.842	6123.6
669.033	6139.98
669.224	5939.28
669.416	6191.18
669.607	5955.66
669.798	5943.38
669.989	5941.33
670.18	6039.63
670.371	5957.71
670.563	5853.27
670.754	6041.68
670.945	5812.31
671.136	5941.33
671.327	5910.61
671.518	5834.83
671.709	5924.94
671.9	5873.75
672.091	5769.3
672.282	5795.92
672.473	5703.76
672.664	5814.35
672.855	5648.47
673.046	5460.06
673.237	5763.15
673.428	5800.02
673.619	5652.56
673.809	5580.89
674	5673.04
674.191	5591.13
674.382	5566.55
674.573	5654.61
674.764	5597.27
674.954	5562.45
675.145	5496.92
675.336	5365.85
675.527	5550.17
675.717	5587.03
675.908	5429.34
676.099	5554.26
676.289	5429.34
676.48	5324.89
676.671	5316.7
676.861	5384.28
677.052	5357.66
677.243	5404.76
677.433	5273.69
677.624	5255.26
677.814	5361.75
678.005	5453.91
678.195	5431.38
678.386	5269.59
678.576	5367.9
678.767	5390.42
678.957	5402.71
679.148	5304.41
679.338	5478.49
679.529	5113.95
679.719	5195.87
679.909	5314.65
680.1	5206.11
680.29	5347.42
680.481	5242.97
680.671	5234.78
680.861	5165.15
681.052	5175.39
681.242	5124.19
681.432	5294.17
681.622	5068.89
681.813	5169.24
682.003	5152.86
682.193	5156.96
682.383	5208.16
682.573	5187.68
682.764	5179.48
682.954	5103.71
683.144	5152.86
683.334	5187.68
683.524	5236.83
683.714	5165.15
683.904	5029.98
684.094	4923.49
684.284	5077.09
684.474	5107.8
684.664	4931.68
684.854	4931.68
685.044	5027.93
685.234	4976.73
685.424	4980.83
685.614	4857.95
685.804	4991.07
685.994	4931.68
686.184	5054.56
686.374	4853.86
686.564	4751.46
686.753	4784.23
686.943	4868.19
687.133	4892.77
687.323	4847.71
687.513	4759.65
687.702	4884.58
687.892	4696.16
688.082	4767.84
688.272	4653.16
688.461	4651.11
688.651	4714.59
688.841	4663.4
689.03	4561
689.22	4749.41
689.41	4679.78
689.599	4571.24
689.789	4487.27
689.979	4546.66
690.168	4452.45
690.358	4448.36
690.547	4413.54
690.737	4470.89
690.926	4513.89
691.116	4368.49
691.305	4403.3
691.495	4292.71
691.684	4276.33
691.874	4214.89
692.063	4309.1
692.252	4218.99
692.442	4237.42
692.631	4081.77
692.82	4169.84
693.01	4159.6
693.199	4208.75
693.388	4124.78
693.578	4130.92
693.767	4151.4
693.956	3932.27
694.146	3969.13
694.335	3901.55
694.524	4057.2
694.713	3948.65
694.902	4042.86
695.092	4061.29
695.281	3965.04
695.47	3967.09
695.659	3940.46
695.848	4036.72
696.037	3850.35
696.226	4020.33
696.415	3893.36
696.604	3985.52
696.793	3950.7
696.982	3901.55
697.171	3752.05
697.36	3887.22
697.549	3727.47
697.738	3856.5
697.927	3676.27
698.116	3827.82
698.305	3713.14
698.494	3948.65
698.683	3831.92
698.872	3858.54
699.061	3801.2
699.25	3784.82
699.438	3811.44
699.627	3866.74
699.816	3661.94
700.005	3610.74
700.193	3772.53
700.382	3743.86
700.571	3786.86
700.76	3768.43
700.948	3889.26
701.137	3713.14
701.326	3780.72
701.514	3674.23
701.703	3745.91
701.892	3580.02
702.08	3745.91
702.269	3813.49
702.457	3655.79
702.646	3682.42
702.834	3750
703.023	3606.64
703.212	3762.29
703.4	3686.51
703.589	3752.05
703.777	3825.78
703.965	3813.49
704.154	3518.58
704.342	3614.84
704.531	3715.19
704.719	3690.61
704.907	3688.56
705.096	3682.42
705.284	3633.27
705.472	3661.94
705.661	3549.3
705.849	3743.86
706.037	3680.37
706.226	3780.72
706.414	3680.37
706.602	3528.82
706.79	3774.58
706.979	3655.79
707.167	3625.08
707.355	3623.03
707.543	3606.64
707.731	3680.37
707.919	3575.92
708.107	3604.6
708.296	3676.27
708.484	3606.64
708.672	3600.5
708.86	3680.37
709.048	3698.8
709.236	3661.94
709.424	3688.56
709.612	3639.41
709.8	3739.76
709.988	3623.03
710.176	3596.4
710.364	3643.51
710.551	3680.37
710.739	3649.65
710.927	3721.33
711.115	3684.47
711.303	3655.79
711.491	3641.46
711.679	3739.76
711.866	3614.84
712.054	3735.67
712.242	3565.68
712.43	3823.73
712.617	3618.93
712.805	3690.61
712.993	3885.17
713.181	3645.56
713.368	3754.1
713.556	3743.86
713.744	3612.79
713.931	3807.34
714.119	3608.69
714.306	3803.25
714.494	3698.8
714.682	3704.95
714.869	3719.28
715.057	3846.26
715.244	3655.79
715.432	3678.32
715.619	3854.45
715.807	3737.71
715.994	3731.57
716.182	3790.96
716.369	3793.01
716.556	3764.34
716.744	3674.23
716.931	3680.37
717.119	3838.06
717.306	3715.19
717.493	3756.15
717.681	3813.49
717.868	3858.54
718.055	3676.27
718.242	3616.88
718.43	3805.3
718.617	3756.15
718.804	3772.53
718.991	3844.21
719.179	3821.68
719.366	3803.25
719.553	3844.21
719.74	3866.74
719.927	3799.15
720.114	3977.33
720.301	3807.34
720.488	3766.39
720.676	3813.49
720.863	3852.4
721.05	3913.84
721.237	3741.81
721.424	3801.2
721.611	3803.25
721.798	3672.18
721.985	3678.32
722.172	3682.42
722.358	3825.78
722.545	3833.97
722.732	3854.45
722.919	3852.4
723.106	3657.84
723.293	3817.58
723.48	3919.98
723.667	3870.83
723.853	3813.49
724.04	3774.58
724.227	3850.35
724.414	3700.85
724.6	3813.49
724.787	3932.27
724.974	3965.04
725.161	3846.26
725.347	3774.58
725.534	3932.27
725.72	3930.22
725.907	3645.56
726.094	3793.01
726.28	3815.54
726.467	3862.64
726.653	3815.54
726.84	3903.6
727.027	3975.28
727.213	3950.7
727.4	4020.33
727.586	3946.61
727.773	3784.82
727.959	3850.35
728.145	4003.95
728.332	3874.93
728.518	3727.47
728.705	3930.22
728.891	3844.21
729.077	3928.17
729.264	3858.54
729.45	3813.49
729.636	3977.33
729.823	3829.87
730.009	3856.5
730.195	3795.06
730.382	3848.3
730.568	3866.74
730.754	3852.4
730.94	3879.02
731.126	3903.6
731.313	3817.58
731.499	3840.11
731.685	3797.1
731.871	3942.51
732.057	3756.15
732.243	3971.18
732.429	3897.46
732.615	3870.83
732.801	3917.93
732.987	3977.33
733.173	3872.88
733.359	3956.85
733.545	3879.02
733.731	3850.35
733.917	4008.05
734.103	3993.71
734.289	3797.1
734.475	3889.26
734.661	3833.97
734.847	3899.5
735.033	4022.38
735.219	3889.26
735.404	3688.56
735.59	3827.82
735.776	3729.52
735.962	3899.5
736.148	3842.16
736.333	3719.28
736.519	3784.82
736.705	3756.15
736.89	3776.63
737.076	3819.63
737.262	3694.71
737.447	3768.43
737.633	3663.99
737.819	3958.89
738.004	3881.07
738.19	3915.89
738.375	3713.14
738.561	3876.98
738.747	3817.58
738.932	3659.89
739.118	3948.65
739.303	3668.08
739.489	3737.71
739.674	3682.42
739.859	3649.65
740.045	3719.28
740.23	3561.59
740.416	3637.36
740.601	3723.38
740.786	3680.37
740.972	3690.61
741.157	3723.38
741.342	3604.6
741.528	3637.36
741.713	3530.87
741.898	3633.27
742.084	3444.85
742.269	3602.55
742.454	3598.45
742.639	3514.49
742.824	3582.07
743.01	3516.53
743.195	3666.03
743.38	3498.1
743.565	3418.23
743.75	3530.87
743.935	3416.18
744.12	3514.49
744.305	3444.85
744.49	3373.18
744.675	3375.22
744.86	3328.12
745.045	3227.77
745.23	3256.44
745.415	3381.37
745.6	3350.65
745.785	3295.35
745.97	3223.67
746.155	3307.64
746.34	3330.17
746.525	3289.21
746.71	3231.87
746.895	3238.01
747.079	3115.13
747.264	3158.14
747.449	3176.57
747.634	3166.33
747.819	3055.74
748.003	2986.11
748.188	2924.67
748.373	2945.15
748.557	3039.36
748.742	2992.25
748.927	3000.44
749.111	2949.25
749.296	2959.49
749.481	2996.35
749.665	3039.36
749.85	2971.77
750.034	2922.62
750.219	2875.52
750.404	2773.12
750.588	2891.9
750.773	2797.7
750.957	2680.96
751.141	2730.11
751.326	2754.69
751.51	2680.96
751.695	2775.17
751.879	2728.07
752.064	2685.06
752.248	2687.11
752.432	2791.55
752.617	2744.45
752.801	2549.89
752.985	2613.38
753.17	2689.15
753.354	2523.27
753.538	2564.23
753.722	2490.5
753.907	2531.46
754.091	2418.82
754.275	2437.25
754.459	2416.77
754.643	2343.05
754.828	2449.54
755.012	2484.36
755.196	2353.29
755.38	2496.64
755.564	2359.43
755.748	2240.65
755.932	2318.47
756.116	2257.03
756.3	2271.37
756.484	2295.94
756.668	2371.72
756.852	2216.07
757.036	2183.31
757.22	2207.88
757.404	2117.77
757.588	2187.4
757.772	2050.19
757.956	2154.63
758.14	2078.86
758.323	1958.03
758.507	2080.91
758.691	2146.44
758.875	2117.77
759.059	2087.05
759.242	1994.89
759.426	1978.51
759.61	2056.33
759.794	1888.4
759.977	2009.23
760.161	2121.87
760.345	2013.32
760.528	1884.3
760.712	2037.9
760.895	1941.65
761.079	1915.02
761.263	1908.88
761.446	1831.05
761.63	1867.92
761.813	1847.44
761.997	1951.88
762.18	1829.01
762.364	1908.88
762.547	1876.11
762.731	1769.62
762.914	1796.24
763.098	1833.1
763.281	1761.42
763.464	1765.52
763.648	1761.42
763.831	1683.6
764.015	1781.9
764.198	1663.12
764.381	1673.36
764.564	1751.18
764.748	1697.94
764.931	1753.23
765.114	1708.18
765.297	1687.7
765.481	1659.03
765.664	1736.85
765.847	1679.51
766.03	1695.89
766.213	1656.98
766.397	1589.39
766.58	1648.79
766.763	1763.47
766.946	1597.59
767.129	1558.67
767.312	1597.59
767.495	1626.26
767.678	1605.78
767.861	1697.94
768.044	1499.28
768.227	1501.33
768.41	1671.31
768.593	1564.82
768.776	1552.53
768.959	1544.34
769.142	1503.38
769.324	1472.66
769.507	1439.89
769.69	1441.94
769.873	1478.8
770.056	1581.2
770.239	1423.51
770.421	1489.04
770.604	1515.67
770.787	1415.32
770.97	1370.26
771.152	1388.69
771.335	1462.42
771.518	1441.94
771.7	1429.65
771.883	1458.32
772.066	1349.78
772.248	1335.45
772.431	1400.98
772.613	1433.75
772.796	1319.06
772.978	1306.77
773.161	1398.93
773.343	1376.41
773.526	1220.76
773.708	1286.3
773.891	1343.64
774.073	1398.93
774.256	1245.34
774.438	1312.92
774.621	1128.6
774.803	1306.77
774.985	1194.14
775.168	1220.76
775.35	1165.46
775.532	1224.86
775.715	1175.7
775.897	1157.27
776.079	1175.7
776.261	1220.76
776.444	1132.7
776.626	1167.51
776.808	1095.83
776.99	1101.98
777.173	1161.37
777.355	1091.74
777.537	1177.75
777.719	1124.51
777.901	1126.55
778.083	1099.93
778.265	1120.41
778.447	1091.74
778.629	1040.54
778.811	995.48
778.993	1159.32
779.175	1048.73
779.357	1091.74
779.539	997.53
779.721	964.76
779.903	946.33
780.085	1026.2
780.267	958.62
780.449	1020.06
780.631	1007.77
780.812	1042.59
780.994	882.85
781.176	975
781.358	966.81
781.54	1001.63
781.721	872.61
781.903	843.93
782.085	897.18
782.267	1005.72
782.448	843.93
782.63	946.33
782.812	909.47
782.993	903.32
783.175	891.04
783.357	811.17
783.538	911.52
783.72	716.96
783.901	772.25
784.083	825.5
784.264	823.45
784.446	762.02
784.627	817.31
784.809	712.86
784.99	786.59
785.172	805.02
785.353	860.32
785.535	755.87
785.716	749.73
785.897	698.53
786.079	626.85
786.26	764.06
786.441	727.2
786.623	725.15
786.804	671.9
786.985	704.67
787.167	696.48
787.348	694.43
787.529	727.2
787.71	688.29
787.891	676
788.073	598.18
788.254	587.94
788.435	747.68
788.616	653.47
788.797	655.52
788.978	581.79
789.159	682.14
789.34	682.14
789.522	655.52
789.703	626.85
789.884	620.71
790.065	657.57
790.246	704.67
790.427	602.27
790.607	594.08
790.788	731.3
790.969	585.89
791.15	553.12
791.331	612.51
791.512	565.41
791.693	589.99
791.874	551.07
792.054	669.86
792.235	614.56
792.416	530.59
792.597	510.11
792.778	557.22
792.958	565.41
793.139	542.88
793.32	553.12
793.5	465.06
793.681	493.73
793.862	565.41
794.042	542.88
794.223	444.58
794.404	583.84
794.584	411.81
794.765	503.97
794.945	467.11
795.126	592.03
795.306	508.07
795.487	532.64
795.667	489.64
795.848	483.49
796.028	458.92
796.209	434.34
796.389	538.79
796.57	448.68
796.75	499.88
796.93	481.44
797.111	422.05
797.291	358.57
797.471	452.77
797.652	385.19
797.832	469.16
798.012	497.83
798.192	442.53
798.373	424.1
798.553	389.28
798.733	499.88
798.913	454.82
799.093	489.64
799.274	469.16
799.454	430.24
799.634	477.35
799.814	516.26
799.994	454.82
800.174	362.66
800.354	401.57
800.534	323.75
800.714	422.05
800.894	401.57
801.074	340.13
801.254	397.48
801.434	452.77
801.614	368.81
801.794	358.57
801.974	1327.25
802.154	336.04
802.334	352.42
802.514	323.75
802.693	385.19
802.873	360.61
803.053	483.49
803.233	360.61
803.413	338.09
803.592	422.05
803.772	331.94
803.952	405.67
804.131	207.02
804.311	297.13
804.491	383.14
804.67	303.27
804.85	321.7
805.03	391.33
805.209	383.14
805.389	295.08
805.568	354.47
805.748	356.52
805.928	340.13
806.107	311.46
806.287	368.81
806.466	379.04
806.646	180.39
806.825	305.32
807.004	213.16
807.184	323.75
807.363	325.8
807.543	389.28
807.722	336.04
807.901	311.46
808.081	356.52
808.26	254.12
808.439	323.75
808.619	239.78
808.798	233.64
808.977	295.08
809.156	344.23
809.336	338.09
809.515	303.27
809.694	256.17
809.873	221.35
810.052	235.69
810.231	264.36
810.411	258.21
810.59	256.17
810.769	247.97
810.948	342.18
811.127	213.16
811.306	258.21
811.485	280.74
811.664	311.46
811.843	260.26
812.022	272.55
812.201	194.73
812.38	280.74
812.559	229.54
812.737	172.2
812.916	198.82
813.095	217.26
813.274	260.26
813.453	258.21
813.632	303.27
813.811	305.32
813.989	200.87
814.168	239.78
814.347	250.02
814.526	239.78
814.704	321.7
814.883	250.02
815.062	223.4
815.24	264.36
815.419	202.92
815.598	192.68
815.776	121
815.955	241.83
816.133	190.63
816.312	250.02
816.49	217.26
816.669	196.78
816.847	276.65
817.026	270.5
817.204	243.88
817.383	213.16
817.561	231.59
817.74	147.62
817.918	260.26
818.097	317.61
818.275	190.63
818.453	254.12
818.632	213.16
818.81	243.88
818.988	176.3
819.167	200.87
819.345	252.07
819.523	84.14
819.701	223.4
819.879	235.69
820.058	221.35
820.236	209.06
820.414	190.63
820.592	139.43
820.77	262.31
820.948	213.16
821.127	209.06
821.305	194.73
821.483	133.29
821.661	254.12
821.839	217.26
822.017	145.58
822.195	131.24
822.373	155.82
822.551	157.86
822.729	190.63
822.907	215.21
823.085	186.54
823.262	151.72
823.44	157.86
823.618	137.38
823.796	155.82
823.974	200.87
824.152	170.15
824.329	188.58
824.507	157.86
824.685	104.62
824.863	75.95
825.04	182.44
825.218	104.62
825.396	221.35
825.574	178.34
825.751	174.25
825.929	186.54
826.107	90.28
826.284	198.82
826.462	108.71
826.639	153.77
826.817	73.9
826.994	209.06
827.172	149.67
827.349	207.02
827.527	215.21
827.704	266.41
827.882	196.78
828.059	200.87
828.237	172.2
828.414	137.38
828.591	82.09
828.769	180.39
828.946	139.43
829.124	207.02
829.301	184.49
829.478	149.67
829.655	141.48
829.833	129.19
830.01	63.66
830.187	225.45
830.364	71.85
830.542	204.97
830.719	157.86
830.896	114.86
831.073	141.48
831.25	145.58
831.427	145.58
831.604	102.57
831.782	143.53
831.959	114.86
832.136	20.65
832.313	110.76
832.49	51.37
832.667	116.9
832.844	84.14
833.021	151.72
833.198	131.24
833.374	110.76
833.551	69.8
833.728	-10.07
833.905	133.29
834.082	82.09
834.259	123.05
834.436	131.24
834.612	94.38
834.789	188.58
834.966	172.2
835.143	135.34
835.319	41.13
835.496	131.24
835.673	100.52
835.85	221.35
836.026	77.99
836.203	90.28
836.38	55.47
836.556	145.58
836.733	129.19
836.909	155.82
837.086	92.33
837.262	102.57
837.439	92.33
837.616	75.95
837.792	149.67
837.968	77.99
838.145	53.42
838.321	139.43
838.498	39.08
838.674	131.24
838.851	34.99
839.027	98.47
839.203	69.8
839.38	147.62
839.556	73.9
839.732	157.86
839.909	104.62
840.085	69.8
840.261	37.03
840.437	2.22
840.614	94.38
840.79	4.27
840.966	112.81
841.142	147.62
841.318	104.62
841.494	69.8
841.671	164.01
841.847	61.61
842.023	67.75
842.199	118.95
842.375	96.43
842.551	-30.55
842.727	80.04
842.903	53.42
843.079	34.99
843.255	90.28
843.431	86.19
843.607	127.14
843.783	-22.36
843.959	139.43
844.134	157.86
844.31	102.57
844.486	127.14
844.662	57.51
844.838	41.13
845.013	45.23
845.189	155.82
845.365	86.19
845.541	32.94
845.716	61.61
845.892	84.14
846.068	-59.22
846.244	37.03
846.419	57.51
846.595	10.41
846.77	-3.93
846.946	155.82
847.122	118.95
847.297	32.94
847.473	133.29
847.648	84.14
847.824	37.03
847.999	49.32
848.175	30.89
848.35	47.27
848.526	139.43
848.701	151.72
848.876	112.81
849.052	86.19
849.227	55.47
849.403	53.42
849.578	47.27
849.753	61.61
849.929	198.82
850.104	24.75
850.279	131.24
850.454	73.9
850.63	67.75
850.805	41.13
850.98	90.28
851.155	32.94
851.33	98.47
851.505	18.6
851.681	116.9
851.856	67.75
852.031	123.05
852.206	41.13
852.381	-5.97
852.556	57.51
852.731	49.32
852.906	67.75
853.081	65.71
853.256	63.66
853.431	51.37
853.606	-28.5
853.781	-12.12
853.956	-3.93
854.131	73.9
854.305	10.41
854.48	143.53
854.655	-1.88
854.83	73.9
855.005	-14.17
855.18	147.62
855.354	69.8
855.529	18.6
855.704	39.08
855.879	73.9
856.053	14.51
856.228	92.33
856.403	82.09
856.577	20.65
856.752	-24.4
856.926	84.14
857.101	135.34
857.276	34.99
857.45	80.04
857.625	59.56
857.799	0.17
857.974	65.71
858.148	34.99
858.323	92.33
858.497	43.18
858.672	43.18
858.846	57.51
859.02	10.41
859.195	45.23
859.369	59.56
859.543	-5.97
859.718	30.89
859.892	153.77
860.066	34.99
860.241	41.13
860.415	65.71
860.589	53.42
860.763	41.13
860.938	6.31
861.112	59.56
861.286	26.79
861.46	30.89
861.634	20.65
861.808	65.71
861.982	14.51
862.157	43.18
862.331	-40.79
862.505	6.31
862.679	-32.6
862.853	37.03
863.027	32.94
863.201	77.99
863.375	28.84
863.549	28.84
863.722	20.65
863.896	102.57
864.07	16.55
864.244	-28.5
864.418	67.75
864.592	118.95
864.766	88.23
864.939	69.8
865.113	-8.02
865.287	112.81
865.461	28.84
865.634	2.22
865.808	90.28
865.982	-14.17
866.156	45.23
866.329	51.37
866.503	80.04
866.676	16.55
866.85	45.23
867.024	71.85
867.197	6.31
867.371	34.99
867.544	24.75
867.718	30.89
867.891	59.56
868.065	0.17
868.238	-22.36
868.412	125.1
868.585	47.27
868.759	-12.12
868.932	10.41
869.105	45.23
869.279	14.51
869.452	-1.88
869.625	-20.31
869.799	28.84
869.972	-20.31
870.145	-48.98
870.319	39.08
870.492	30.89
870.665	32.94
870.838	-40.79
871.011	10.41
871.185	49.32
871.358	8.36
871.531	96.43
871.704	-24.4
871.877	77.99
872.05	-38.74
872.223	-87.89
872.396	69.8
872.569	57.51
872.742	-79.7
872.915	55.47
873.088	-28.5
873.261	14.51
873.434	51.37
873.607	92.33
873.78	116.9
873.953	6.31
874.126	37.03
874.299	12.46
874.471	-12.12
874.644	-81.75
874.817	32.94
874.99	41.13
875.163	32.94
875.335	39.08
875.508	-32.6
875.681	86.19
875.853	-1.88
876.026	-48.98
876.199	94.38
876.371	26.79
876.544	14.51
876.717	63.66
876.889	12.46
877.062	0.17
877.234	2.22
877.407	-48.98
877.579	69.8
877.752	-55.12
877.924	-8.02
878.097	98.47
878.269	10.41
878.442	45.23
878.614	22.7
878.786	-24.4
878.959	4.27
879.131	16.55
879.303	-32.6
879.476	96.43
879.648	47.27
879.82	2.22
879.993	8.36
880.165	-38.74
880.337	-108.37
880.509	-12.12
880.681	14.51
880.854	-30.55
881.026	34.99
881.198	125.1
881.37	90.28
881.542	51.37
881.714	12.46
881.886	102.57
882.058	-3.93
882.23	28.84
882.402	18.6
882.574	0.17
882.746	94.38
882.918	14.51
883.09	43.18
883.262	-51.03
883.434	-26.45
883.606	-8.02
883.778	65.71
883.95	73.9
884.122	14.51
884.293	65.71
884.465	61.61
884.637	110.76
884.809	-77.65
884.98	4.27
885.152	55.47
885.324	-32.6
885.496	-12.12
885.667	-22.36
885.839	-22.36
886.011	108.71
886.182	-1.88
886.354	16.55
886.525	55.47
886.697	90.28
886.869	-16.21
887.04	-75.6
887.212	77.99
887.383	141.48
887.555	2.22
887.726	-8.02
887.897	16.55
888.069	96.43
888.24	63.66
888.412	2.22
888.583	61.61
888.754	26.79
888.926	-30.55
889.097	0.17
889.268	-36.69
889.44	47.27
889.611	-67.41
889.782	-3.93
889.953	-26.45
890.125	84.14
890.296	-30.55
890.467	-46.93
890.638	-10.07
890.809	-16.21
890.98	43.18
891.151	43.18
891.323	14.51
891.494	-14.17
891.665	-3.93
891.836	26.79
892.007	4.27
892.178	16.55
892.349	51.37
892.52	-10.07
892.691	-75.6
892.862	61.61
893.032	-28.5
893.203	65.71
893.374	12.46
893.545	24.75
893.716	37.03
893.887	-38.74
894.057	-40.79
894.228	82.09
894.399	-24.4
894.57	84.14
894.74	-5.97
894.911	24.75
895.082	18.6
895.253	6.31
895.423	65.71
895.594	26.79
895.764	55.47
895.935	-65.36
896.106	123.05
896.276	-48.98
896.447	75.95
896.617	-65.36
896.788	-34.64
896.958	-18.26
897.129	10.41
897.299	-5.97
897.47	69.8
897.64	28.84
897.81	24.75
897.981	-5.97
898.151	71.85
898.322	34.99
898.492	-5.97
898.662	0.17
898.832	8.36
899.003	-16.21
899.173	-24.4
899.343	28.84
899.513	-40.79
