Data from USB4F104151__5__13-04-10-852.txt Node

Date: Fri Mar 14 13:04:10 EDT 2025
User: louis
Spectrometer: USB4F10415
Trigger mode: 4
Integration Time (sec): 4.000000E-2
Scans to average: 1
Electric dark correction enabled: true
Nonlinearity correction enabled: false
Boxcar width: 0
XAxis mode: Wavelengths
Number of Pixels in Spectrum: 3648
>>>>>Begin Spectral Data<<<<<
178.204	-133.8
178.424	-133.8
178.644	-133.8
178.864	-154.28
179.084	-137.9
179.304	19.8
179.524	-39.59
179.744	-6.83
179.964	23.89
180.184	38.23
180.404	3.41
180.624	21.85
180.844	1.37
181.064	-51.88
181.283	-39.59
181.503	-4.78
181.723	34.13
181.943	-25.26
182.163	140.63
182.383	58.71
182.602	52.56
182.822	122.2
183.042	-68.27
183.262	-25.26
183.482	7.51
183.701	-0.68
183.921	73.04
184.141	-53.93
184.361	118.1
184.58	32.08
184.8	40.28
185.02	46.42
185.239	142.68
185.459	46.42
185.679	-12.97
185.898	1.37
186.118	44.37
186.338	-39.59
186.557	73.04
186.777	-27.31
186.997	19.8
187.216	-2.73
187.436	183.63
187.655	58.71
187.875	23.89
188.095	25.94
188.314	34.13
188.534	32.08
188.753	50.52
188.973	17.75
189.192	23.89
189.412	-0.68
189.631	75.09
189.851	30.04
190.07	118.1
190.29	30.04
190.509	83.28
190.729	54.61
190.948	60.76
191.168	197.97
191.387	48.47
191.607	1.37
191.826	-8.87
192.045	-39.59
192.265	27.99
192.484	50.52
192.704	-6.83
192.923	-45.74
193.142	99.67
193.362	9.56
193.581	89.43
193.8	50.52
194.02	30.04
194.239	1.37
194.458	-12.97
194.678	-27.31
194.897	30.04
195.116	-23.21
195.335	15.7
195.555	95.57
195.774	93.52
195.993	13.65
196.212	-27.31
196.432	66.9
196.651	-6.83
196.87	40.28
197.089	150.87
197.308	103.76
197.528	38.23
197.747	-19.11
197.966	19.8
198.185	83.28
198.404	-17.07
198.623	81.24
198.842	54.61
199.062	68.95
199.281	122.2
199.5	-60.07
199.719	52.56
199.938	3.41
200.157	150.87
200.376	107.86
200.595	93.52
200.814	50.52
201.033	34.13
201.252	42.32
201.471	-45.74
201.69	146.77
201.909	87.38
202.128	85.33
202.347	-0.68
202.566	-27.31
202.785	-31.4
203.004	17.75
203.223	101.72
203.442	58.71
203.661	23.89
203.879	15.7
204.098	118.1
204.317	-0.68
204.536	34.13
204.755	34.13
204.974	126.29
205.193	73.04
205.411	148.82
205.63	99.67
205.849	-29.35
206.068	64.85
206.287	27.99
206.505	50.52
206.724	-15.02
206.943	42.32
207.162	68.95
207.381	-60.07
207.599	-70.31
207.818	25.94
208.037	64.85
208.255	-6.83
208.474	62.8
208.693	87.38
208.911	27.99
209.13	85.33
209.349	91.48
209.567	64.85
209.786	68.95
210.005	77.14
210.223	9.56
210.442	-47.79
210.661	89.43
210.879	60.76
211.098	62.8
211.316	75.09
211.535	27.99
211.753	52.56
211.972	42.32
212.191	1.37
212.409	3.41
212.628	107.86
212.846	-6.83
213.065	60.76
213.283	109.91
213.502	-35.5
213.72	19.8
213.938	42.32
214.157	44.37
214.375	101.72
214.594	68.95
214.812	79.19
215.031	9.56
215.249	3.41
215.467	-51.88
215.686	50.52
215.904	48.47
216.122	15.7
216.341	27.99
216.559	118.1
216.778	73.04
216.996	120.15
217.214	40.28
217.432	-2.73
217.651	-31.4
217.869	75.09
218.087	-55.98
218.306	75.09
218.524	21.85
218.742	17.75
218.96	30.04
219.179	15.7
219.397	3.41
219.615	101.72
219.833	66.9
220.051	54.61
220.27	27.99
220.488	109.91
220.706	-2.73
220.924	38.23
221.142	-0.68
221.36	38.23
221.578	38.23
221.796	77.14
222.015	38.23
222.233	9.56
222.451	71
222.669	-17.07
222.887	3.41
223.105	15.7
223.323	116.05
223.541	38.23
223.759	-15.02
223.977	44.37
224.195	25.94
224.413	124.24
224.631	11.61
224.849	44.37
225.067	142.68
225.285	60.76
225.503	-6.83
225.721	-37.55
225.939	3.41
226.157	38.23
226.375	152.91
226.592	-12.97
226.81	66.9
227.028	109.91
227.246	120.15
227.464	17.75
227.682	134.48
227.9	105.81
228.117	30.04
228.335	114
228.553	23.89
228.771	77.14
228.989	36.18
229.206	13.65
229.424	46.42
229.642	-43.69
229.86	3.41
230.077	83.28
230.295	-21.16
230.513	85.33
230.731	52.56
230.948	93.52
231.166	124.24
231.384	17.75
231.601	54.61
231.819	87.38
232.037	-2.73
232.254	58.71
232.472	3.41
232.689	-2.73
232.907	93.52
233.125	23.89
233.342	56.66
233.56	52.56
233.777	-15.02
233.995	42.32
234.213	101.72
234.43	30.04
234.648	-21.16
234.865	46.42
235.083	42.32
235.3	21.85
235.518	40.28
235.735	124.24
235.953	48.47
236.17	38.23
236.388	58.71
236.605	32.08
236.822	101.72
237.04	-2.73
237.257	36.18
237.475	40.28
237.692	85.33
237.909	17.75
238.127	19.8
238.344	-27.31
238.562	42.32
238.779	23.89
238.996	-33.45
239.214	-4.78
239.431	75.09
239.648	23.89
239.865	66.9
240.083	-10.92
240.3	38.23
240.517	1.37
240.735	38.23
240.952	79.19
241.169	71
241.386	68.95
241.603	3.41
241.821	-41.64
242.038	144.72
242.255	42.32
242.472	1.37
242.689	73.04
242.907	64.85
243.124	46.42
243.341	48.47
243.558	-25.26
243.775	-39.59
243.992	-31.4
244.209	1.37
244.426	134.48
244.643	30.04
244.86	25.94
245.078	68.95
245.295	13.65
245.512	58.71
245.729	27.99
245.946	11.61
246.163	62.8
246.38	-0.68
246.597	68.95
246.814	60.76
247.031	27.99
247.248	60.76
247.464	7.51
247.681	34.13
247.898	85.33
248.115	27.99
248.332	83.28
248.549	-10.92
248.766	134.48
248.983	9.56
249.2	19.8
249.417	40.28
249.633	-49.83
249.85	50.52
250.067	-21.16
250.284	50.52
250.501	79.19
250.717	48.47
250.934	58.71
251.151	25.94
251.368	-80.55
251.585	71
251.801	-19.11
252.018	-12.97
252.235	-4.78
252.451	-45.74
252.668	38.23
252.885	60.76
253.102	-53.93
253.318	87.38
253.535	13.65
253.752	9.56
253.968	5.46
254.185	1.37
254.401	30.04
254.618	21.85
254.835	-78.51
255.051	44.37
255.268	25.94
255.484	13.65
255.701	-43.69
255.917	48.47
256.134	-33.45
256.351	5.46
256.567	9.56
256.784	25.94
257	-51.88
257.217	25.94
257.433	91.48
257.65	27.99
257.866	85.33
258.082	1.37
258.299	52.56
258.515	58.71
258.732	58.71
258.948	85.33
259.165	11.61
259.381	15.7
259.597	1.37
259.814	21.85
260.03	11.61
260.246	25.94
260.463	79.19
260.679	89.43
260.895	-10.92
261.112	58.71
261.328	83.28
261.544	11.61
261.761	91.48
261.977	5.46
262.193	13.65
262.409	58.71
262.626	30.04
262.842	34.13
263.058	44.37
263.274	17.75
263.49	58.71
263.707	40.28
263.923	17.75
264.139	-19.11
264.355	52.56
264.571	68.95
264.787	32.08
265.004	116.05
265.22	30.04
265.436	-45.74
265.652	32.08
265.868	44.37
266.084	27.99
266.3	-15.02
266.516	-27.31
266.732	66.9
266.948	38.23
267.164	91.48
267.38	32.08
267.596	101.72
267.812	175.44
268.028	87.38
268.244	85.33
268.46	1.37
268.676	17.75
268.892	-27.31
269.108	1.37
269.324	-25.26
269.54	1.37
269.756	54.61
269.972	-25.26
270.188	66.9
270.403	-12.97
270.619	77.14
270.835	11.61
271.051	25.94
271.267	9.56
271.483	71
271.698	38.23
271.914	44.37
272.13	50.52
272.346	46.42
272.562	62.8
272.777	75.09
272.993	-12.97
273.209	17.75
273.425	19.8
273.64	-88.75
273.856	89.43
274.072	30.04
274.287	21.85
274.503	73.04
274.719	62.8
274.934	-25.26
275.15	15.7
275.366	21.85
275.581	-4.78
275.797	25.94
276.012	19.8
276.228	25.94
276.444	34.13
276.659	34.13
276.875	1.37
277.09	52.56
277.306	44.37
277.521	54.61
277.737	-23.21
277.952	66.9
278.168	38.23
278.383	87.38
278.599	-19.11
278.814	21.85
279.03	3.41
279.245	25.94
279.461	-17.07
279.676	21.85
279.892	-35.5
280.107	-55.98
280.322	-0.68
280.538	-6.83
280.753	30.04
280.969	32.08
281.184	48.47
281.399	21.85
281.615	62.8
281.83	99.67
282.045	-29.35
282.26	60.76
282.476	46.42
282.691	85.33
282.906	25.94
283.122	46.42
283.337	42.32
283.552	-19.11
283.767	32.08
283.983	109.91
284.198	85.33
284.413	75.09
284.628	-10.92
284.843	-8.87
285.058	68.95
285.274	17.75
285.489	-68.27
285.704	116.05
285.919	-6.83
286.134	77.14
286.349	-8.87
286.564	-21.16
286.779	130.39
286.995	109.91
287.21	25.94
287.425	54.61
287.64	97.62
287.855	21.85
288.07	-62.12
288.285	46.42
288.5	34.13
288.715	109.91
288.93	40.28
289.145	17.75
289.36	105.81
289.575	60.76
289.79	-6.83
290.004	25.94
290.219	136.53
290.434	42.32
290.649	38.23
290.864	46.42
291.079	1.37
291.294	103.76
291.509	30.04
291.724	50.52
291.938	50.52
292.153	60.76
292.368	32.08
292.583	27.99
292.798	42.32
293.012	-10.92
293.227	3.41
293.442	-37.55
293.657	46.42
293.871	111.96
294.086	13.65
294.301	101.72
294.516	36.18
294.73	46.42
294.945	-31.4
295.16	25.94
295.374	54.61
295.589	52.56
295.804	25.94
296.018	44.37
296.233	87.38
296.447	103.76
296.662	52.56
296.877	103.76
297.091	60.76
297.306	99.67
297.52	-10.92
297.735	-6.83
297.949	-17.07
298.164	34.13
298.378	52.56
298.593	38.23
298.807	-19.11
299.022	-66.22
299.236	105.81
299.451	89.43
299.665	-90.79
299.88	93.52
300.094	79.19
300.309	-15.02
300.523	-15.02
300.737	9.56
300.952	13.65
301.166	9.56
301.381	-10.92
301.595	34.13
301.809	-19.11
302.024	3.41
302.238	-64.17
302.452	32.08
302.667	17.75
302.881	11.61
303.095	181.59
303.309	36.18
303.524	-10.92
303.738	101.72
303.952	1.37
304.166	68.95
304.381	-92.84
304.595	134.48
304.809	-58.03
305.023	46.42
305.237	-21.16
305.452	7.51
305.666	25.94
305.88	50.52
306.094	44.37
306.308	66.9
306.522	-4.78
306.736	9.56
306.95	85.33
307.164	83.28
307.379	-37.55
307.593	54.61
307.807	89.43
308.021	142.68
308.235	68.95
308.449	-55.98
308.663	-12.97
308.877	68.95
309.091	44.37
309.305	13.65
309.519	-35.5
309.733	1.37
309.947	-21.16
310.161	79.19
310.374	60.76
310.588	52.56
310.802	-31.4
311.016	54.61
311.23	64.85
311.444	-12.97
311.658	105.81
311.872	25.94
312.085	103.76
312.299	116.05
312.513	91.48
312.727	19.8
312.941	-64.17
313.154	87.38
313.368	3.41
313.582	9.56
313.796	21.85
314.009	38.23
314.223	73.04
314.437	9.56
314.651	34.13
314.864	-15.02
315.078	34.13
315.292	-21.16
315.505	54.61
315.719	111.96
315.933	1.37
316.146	-27.31
316.36	-4.78
316.573	101.72
316.787	75.09
317.001	71
317.214	1.37
317.428	25.94
317.641	46.42
317.855	-6.83
318.068	25.94
318.282	17.75
318.495	89.43
318.709	58.71
318.922	83.28
319.136	120.15
319.349	27.99
319.563	-2.73
319.776	56.66
319.99	40.28
320.203	56.66
320.417	99.67
320.63	68.95
320.843	97.62
321.057	58.71
321.27	-51.88
321.483	89.43
321.697	107.86
321.91	46.42
322.124	3.41
322.337	-4.78
322.55	1.37
322.763	50.52
322.977	30.04
323.19	27.99
323.403	66.9
323.617	17.75
323.83	105.81
324.043	25.94
324.256	54.61
324.469	34.13
324.683	66.9
324.896	-8.87
325.109	81.24
325.322	56.66
325.535	44.37
325.748	27.99
325.962	25.94
326.175	111.96
326.388	46.42
326.601	60.76
326.814	64.85
327.027	38.23
327.24	120.15
327.453	-4.78
327.666	50.52
327.879	93.52
328.092	60.76
328.305	99.67
328.518	3.41
328.731	34.13
328.944	58.71
329.157	48.47
329.37	34.13
329.583	83.28
329.796	142.68
330.009	9.56
330.222	25.94
330.435	50.52
330.648	73.04
330.861	3.41
331.073	-2.73
331.286	73.04
331.499	109.91
331.712	9.56
331.925	5.46
332.138	62.8
332.35	73.04
332.563	-23.21
332.776	60.76
332.989	1.37
333.202	21.85
333.414	-37.55
333.627	68.95
333.84	-8.87
334.053	17.75
334.265	56.66
334.478	44.37
334.691	38.23
334.903	36.18
335.116	-53.93
335.329	77.14
335.541	62.8
335.754	91.48
335.966	-10.92
336.179	15.7
336.392	25.94
336.604	93.52
336.817	-37.55
337.029	56.66
337.242	9.56
337.454	87.38
337.667	23.89
337.88	120.15
338.092	11.61
338.305	75.09
338.517	5.46
338.729	-0.68
338.942	42.32
339.154	-10.92
339.367	17.75
339.579	11.61
339.792	30.04
340.004	23.89
340.217	-31.4
340.429	64.85
340.641	11.61
340.854	-31.4
341.066	50.52
341.278	107.86
341.491	124.24
341.703	34.13
341.915	-37.55
342.128	60.76
342.34	25.94
342.552	19.8
342.764	116.05
342.977	-2.73
343.189	25.94
343.401	7.51
343.613	-53.93
343.826	30.04
344.038	25.94
344.25	75.09
344.462	42.32
344.674	46.42
344.886	13.65
345.099	21.85
345.311	-17.07
345.523	11.61
345.735	-41.64
345.947	99.67
346.159	-31.4
346.371	21.85
346.583	44.37
346.795	101.72
347.007	46.42
347.219	25.94
347.431	38.23
347.643	46.42
347.855	71
348.067	103.76
348.279	9.56
348.491	-15.02
348.703	-25.26
348.915	-2.73
349.127	-74.41
349.339	30.04
349.551	40.28
349.763	58.71
349.975	23.89
350.187	52.56
350.399	136.53
350.61	-15.02
350.822	-19.11
351.034	-6.83
351.246	13.65
351.458	13.65
351.669	64.85
351.881	85.33
352.093	87.38
352.305	50.52
352.517	30.04
352.728	71
352.94	-12.97
353.152	34.13
353.363	-55.98
353.575	36.18
353.787	95.57
353.999	71
354.21	50.52
354.422	75.09
354.633	91.48
354.845	89.43
355.057	-6.83
355.268	7.51
355.48	66.9
355.692	60.76
355.903	95.57
356.115	-60.07
356.326	-49.83
356.538	85.33
356.749	66.9
356.961	107.86
357.172	60.76
357.384	79.19
357.595	118.1
357.807	-31.4
358.018	60.76
358.23	19.8
358.441	105.81
358.653	52.56
358.864	101.72
359.075	46.42
359.287	34.13
359.498	99.67
359.709	40.28
359.921	-4.78
360.132	46.42
360.344	81.24
360.555	-43.69
360.766	116.05
360.977	-39.59
361.189	58.71
361.4	9.56
361.611	107.86
361.823	62.8
362.034	7.51
362.245	23.89
362.456	-6.83
362.667	60.76
362.879	7.51
363.09	91.48
363.301	66.9
363.512	50.52
363.723	36.18
363.935	75.09
364.146	93.52
364.357	50.52
364.568	77.14
364.779	-72.36
364.99	54.61
365.201	-12.97
365.412	93.52
365.623	-53.93
365.834	87.38
366.045	101.72
366.256	75.09
366.467	73.04
366.678	99.67
366.889	23.89
367.1	-21.16
367.311	44.37
367.522	5.46
367.733	60.76
367.944	56.66
368.155	-12.97
368.366	116.05
368.577	95.57
368.788	62.8
368.999	13.65
369.209	11.61
369.42	134.48
369.631	68.95
369.842	111.96
370.053	114
370.264	75.09
370.474	19.8
370.685	19.8
370.896	87.38
371.107	124.24
371.317	103.76
371.528	25.94
371.739	81.24
371.95	93.52
372.16	85.33
372.371	13.65
372.582	-12.97
372.792	101.72
373.003	48.47
373.214	32.08
373.424	64.85
373.635	11.61
373.846	101.72
374.056	83.28
374.267	56.66
374.477	48.47
374.688	-17.07
374.898	87.38
375.109	42.32
375.319	50.52
375.53	75.09
375.74	3.41
375.951	-8.87
376.161	-2.73
376.372	19.8
376.582	3.41
376.793	134.48
377.003	-15.02
377.214	-45.74
377.424	116.05
377.635	66.9
377.845	64.85
378.055	19.8
378.266	-2.73
378.476	66.9
378.686	15.7
378.897	66.9
379.107	97.62
379.317	19.8
379.528	-58.03
379.738	-15.02
379.948	11.61
380.158	87.38
380.369	58.71
380.579	77.14
380.789	-27.31
380.999	83.28
381.21	71
381.42	107.86
381.63	66.9
381.84	89.43
382.05	103.76
382.261	27.99
382.471	7.51
382.681	-27.31
382.891	83.28
383.101	19.8
383.311	62.8
383.521	46.42
383.731	48.47
383.941	118.1
384.151	120.15
384.361	81.24
384.571	-2.73
384.781	27.99
384.991	58.71
385.201	136.53
385.411	73.04
385.621	71
385.831	15.7
386.041	25.94
386.251	-15.02
386.461	56.66
386.671	107.86
386.881	48.47
387.091	48.47
387.301	79.19
387.511	68.95
387.72	9.56
387.93	103.76
388.14	30.04
388.35	58.71
388.56	44.37
388.769	58.71
388.979	38.23
389.189	44.37
389.399	17.75
389.609	130.39
389.818	83.28
390.028	30.04
390.238	27.99
390.447	-39.59
390.657	50.52
390.867	111.96
391.076	42.32
391.286	52.56
391.496	-10.92
391.705	132.44
391.915	15.7
392.125	50.52
392.334	34.13
392.544	124.24
392.753	91.48
392.963	83.28
393.172	97.62
393.382	79.19
393.591	136.53
393.801	68.95
394.01	124.24
394.22	93.52
394.429	97.62
394.639	71
394.848	85.33
395.058	62.8
395.267	19.8
395.477	83.28
395.686	38.23
395.895	97.62
396.105	169.3
396.314	83.28
396.524	91.48
396.733	105.81
396.942	142.68
397.152	64.85
397.361	132.44
397.57	105.81
397.78	71
397.989	71
398.198	191.83
398.407	87.38
398.617	48.47
398.826	19.8
399.035	68.95
399.244	161.11
399.453	42.32
399.663	95.57
399.872	66.9
400.081	19.8
400.29	79.19
400.499	21.85
400.708	146.77
400.917	54.61
401.127	93.52
401.336	36.18
401.545	99.67
401.754	142.68
401.963	9.56
402.172	85.33
402.381	50.52
402.59	75.09
402.799	130.39
403.008	173.39
403.217	107.86
403.426	124.24
403.635	30.04
403.844	105.81
404.053	97.62
404.262	42.32
404.471	197.97
404.68	130.39
404.888	101.72
405.097	150.87
405.306	132.44
405.515	169.3
405.724	118.1
405.933	124.24
406.142	165.2
406.35	206.16
406.559	128.34
406.768	171.35
406.977	275.79
407.185	142.68
407.394	136.53
407.603	105.81
407.812	234.83
408.02	208.21
408.229	165.2
408.438	187.73
408.646	73.04
408.855	122.2
409.064	240.98
409.272	279.89
409.481	255.31
409.69	167.25
409.898	157.01
410.107	249.17
410.315	216.4
410.524	259.41
410.733	273.75
410.941	267.6
411.15	269.65
411.358	255.31
411.567	384.34
411.775	253.27
411.984	308.56
412.192	333.14
412.401	363.86
412.609	331.09
412.818	419.15
413.026	392.53
413.234	400.72
413.443	316.75
413.651	398.67
413.86	396.62
414.068	413.01
414.276	482.64
414.485	427.34
414.693	521.55
414.901	519.5
415.11	550.22
415.318	470.35
415.526	566.6
415.734	595.28
415.943	521.55
416.151	660.81
416.359	603.47
416.567	730.44
416.776	681.29
416.984	693.58
417.192	755.02
417.4	714.06
417.608	738.63
417.817	734.54
418.025	853.32
418.233	920.9
418.441	800.07
418.649	834.89
418.857	947.53
419.065	1058.12
419.273	951.62
419.481	992.58
419.689	943.43
419.897	1033.54
420.105	1113.41
420.313	1197.38
420.521	1209.67
420.729	1197.38
420.937	1271.11
421.145	1307.97
421.353	1473.85
421.561	1498.43
421.769	1410.37
421.977	1457.47
422.185	1502.53
422.393	1576.25
422.601	1609.02
422.809	1776.95
423.017	1740.09
423.224	1776.95
423.432	1756.47
423.64	1895.74
423.848	2071.86
424.056	1920.31
424.263	2088.25
424.471	2116.92
424.679	2219.32
424.887	2368.82
425.094	2362.67
425.302	2329.91
425.51	2358.58
425.718	2516.27
425.925	2522.41
426.133	2639.15
426.341	2886.95
426.548	2923.82
426.756	2956.58
426.964	3108.13
427.171	3108.13
427.379	3284.26
427.586	3247.4
427.794	3343.65
428.001	3597.6
428.209	3671.33
428.417	3591.45
428.624	3839.26
428.832	3892.51
429.039	3900.7
429.247	3927.32
429.454	4300.05
429.662	4631.82
429.869	4236.56
430.076	4494.61
430.284	4574.48
430.491	4678.93
430.699	4957.45
430.906	4924.68
431.114	5098.76
431.321	5254.41
431.528	5256.45
431.736	5539.07
431.943	5879.04
432.15	5651.71
432.358	5838.08
432.565	5971.19
432.772	5940.47
432.979	6294.77
433.187	6407.41
433.394	6481.14
433.601	6913.26
433.808	6845.68
434.016	6841.58
434.223	7167.21
434.43	7613.67
434.637	7406.82
434.844	7859.42
435.052	8080.6
435.259	7900.38
435.466	8156.38
435.673	7988.44
435.88	8606.93
436.087	9024.72
436.294	8965.32
436.501	8789.2
436.708	8955.08
436.915	9348.29
437.122	9555.14
437.329	9669.83
437.537	10015.93
437.743	10038.46
437.95	9995.45
438.157	10624.18
438.364	10745.01
438.571	10955.95
438.778	11078.83
438.985	12108.96
439.192	11693.22
439.399	12145.82
439.606	11685.03
439.813	12422.3
440.02	13225.1
440.227	12801.17
440.433	12563.61
440.64	13083.79
440.847	13149.32
441.054	13542.53
441.261	14308.47
441.467	13997.18
441.674	14197.88
441.881	14857.33
442.088	15078.51
442.294	14537.85
442.501	15234.16
442.708	15533.16
442.914	16116.83
443.121	16794.71
443.328	16174.17
443.534	17245.26
443.741	17032.27
443.948	16733.27
444.154	18269.25
444.361	17917
444.568	18230.34
444.774	18277.44
444.981	18400.32
445.187	19039.28
445.394	19516.46
445.6	19342.38
445.807	20993.04
446.013	20046.88
446.22	20622.36
446.426	21343.25
446.633	21763.08
446.839	22610.94
447.046	21480.46
447.252	22828.02
447.459	22803.45
447.665	22928.38
447.871	23510
448.078	24693.72
448.284	23811.05
448.491	24191.97
448.697	25250.77
448.903	25574.35
449.11	25566.16
449.316	25291.73
449.522	25801.68
449.728	26897.34
449.935	26860.48
450.141	26563.52
450.347	27552.69
450.553	26674.11
450.76	26760.12
450.966	27632.56
451.172	27650.99
451.378	28038.06
451.584	27577.26
451.791	28269.48
451.997	28136.36
452.203	28713.89
452.409	28914.59
452.615	28795.81
452.821	27569.07
453.027	27513.78
453.233	28646.3
453.44	27542.45
453.646	27737.01
453.852	27757.49
454.058	28443.56
454.264	27493.3
454.47	28109.74
454.676	27497.39
454.882	28507.04
455.088	25707.47
455.294	26264.52
455.5	26493.89
455.705	27085.75
455.911	26016.71
456.117	25494.48
456.323	25289.68
456.529	23768.04
456.735	24898.52
456.941	24474.59
457.147	23991.27
457.352	23340.02
457.558	22957.05
457.764	23200.76
457.97	22729.72
458.176	22107.14
458.381	21953.54
458.587	20993.04
458.793	20929.56
458.999	19969.06
459.204	21507.09
459.41	20945.94
459.616	19188.78
459.821	19393.58
460.027	19131.44
460.233	19117.11
460.438	17859.65
460.644	18129.98
460.85	17146.96
461.055	16958.55
461.261	16933.97
461.466	15918.18
461.672	15250.54
461.878	16501.85
462.083	15115.37
462.289	14888.05
462.494	14797.94
462.7	14152.83
462.905	13554.82
463.111	14328.95
463.316	14238.84
463.522	13806.72
463.727	13892.74
463.932	14152.83
464.138	14021.76
464.343	13878.4
464.549	13386.89
464.754	14113.92
464.959	13780.1
465.165	13862.02
465.37	12930.19
465.575	12975.25
465.781	13329.55
465.986	13472.9
466.191	12872.85
466.397	12530.84
466.602	11990.17
466.807	12307.61
467.012	12428.44
467.218	12491.93
467.423	12014.75
467.628	12450.97
467.833	12952.72
468.038	12291.23
468.244	12080.28
468.449	12692.63
468.654	12029.09
468.859	12178.59
469.064	12035.23
469.269	11633.83
469.474	11680.93
469.679	11662.5
469.885	11455.65
470.09	11644.07
470.295	11662.5
470.5	11189.42
470.705	11410.6
470.91	11009.2
471.115	10990.77
471.32	11300.01
471.525	11381.93
471.73	10822.83
471.935	10890.42
472.139	10577.08
472.344	10652.85
472.549	10529.97
472.754	10306.74
472.959	10202.3
473.164	9888.96
473.369	10011.84
473.574	10142.91
473.778	9997.5
473.983	9946.3
474.188	9815.23
474.393	9391.3
474.598	9618.63
474.802	9401.54
475.007	9409.73
475.212	9510.08
475.417	8932.56
475.621	9266.38
475.826	9151.69
476.031	8860.88
476.235	8758.48
476.44	8910.03
476.645	8676.56
476.849	8645.84
477.054	8531.16
477.259	8537.3
477.463	8506.58
477.668	8359.13
477.872	8539.35
478.077	8273.11
478.282	7978.2
478.486	7787.74
478.691	7908.57
478.895	7978.2
479.1	7793.89
479.304	7650.53
479.509	7439.59
479.713	7797.98
479.918	7642.34
480.122	7335.14
480.326	7558.37
480.531	7537.89
480.735	7355.62
480.94	7333.09
481.144	7693.54
481.348	7437.54
481.553	7556.32
481.757	7189.74
481.961	7224.55
482.166	7603.43
482.37	7341.29
482.574	7144.68
482.778	7312.61
482.983	7464.16
483.187	7306.47
483.391	7312.61
483.595	7202.02
483.8	7247.08
484.004	7363.81
484.208	7302.37
484.412	7460.07
484.616	7302.37
484.821	7435.49
485.025	7013.61
485.229	7300.33
485.433	7275.75
485.637	7206.12
485.841	7199.98
486.045	7261.41
486.249	7304.42
486.453	7169.26
486.657	7197.93
486.861	7095.53
487.065	7015.66
487.269	7111.91
487.473	7283.94
487.677	7277.8
487.881	7357.67
488.085	7273.7
488.289	7275.75
488.493	7271.65
488.697	7296.23
488.901	7271.65
489.105	7251.17
489.309	7341.29
489.512	7419.11
489.716	7285.99
489.92	7316.71
490.124	7421.16
490.328	7539.94
490.531	7396.58
490.735	7630.05
490.939	7392.48
491.143	7519.46
491.346	7390.44
491.55	7572.71
491.754	7687.39
491.958	7605.47
492.161	7476.45
492.365	7634.14
492.569	7793.89
492.772	7646.43
492.976	7853.28
493.18	7845.09
493.383	7904.48
493.587	7808.22
493.79	7943.39
493.994	7834.85
494.197	7836.89
494.401	7929.05
494.605	7998.68
494.808	8240.34
495.012	8299.73
495.215	8203.48
495.419	8547.54
495.622	8326.36
495.825	8420.56
496.029	8408.28
496.232	8492.24
496.436	8688.85
496.639	8852.69
496.843	8654.03
497.046	8877.26
497.249	8961.23
497.453	8899.79
497.656	9114.83
497.859	9206.98
498.063	9252.04
498.266	9530.56
498.469	9223.37
498.673	9710.79
498.876	9581.76
499.079	9520.32
499.282	9737.41
499.485	10024.12
499.689	10052.8
499.892	10194.11
500.095	10140.86
500.298	10462.39
500.501	10476.73
500.705	10542.26
500.908	10673.33
501.111	10781.87
501.314	10951.85
501.517	11099.31
501.72	11082.92
501.923	11123.88
502.126	11496.61
502.329	11609.25
502.532	11494.57
502.735	11617.44
502.938	11961.5
503.141	12027.04
503.344	12184.73
503.547	12291.23
503.75	12475.54
503.953	12649.62
504.156	12612.76
504.359	12723.35
504.562	12854.42
504.765	13278.35
504.968	13243.53
505.17	13350.03
505.373	13182.09
505.576	13634.69
505.779	13616.26
505.982	13864.07
506.185	14251.13
506.387	13941.89
506.59	14380.15
506.793	14697.59
506.996	14597.24
507.198	14961.78
507.401	14988.4
507.604	15119.47
507.807	15395.95
508.009	15524.97
508.212	15524.97
508.415	15686.76
508.617	16028.77
508.82	16153.69
509.022	16163.93
509.225	16329.82
509.428	16542.81
509.63	16692.31
509.833	16665.69
510.035	16989.27
510.238	17015.89
510.44	17460.3
510.643	17517.64
510.845	17646.66
511.048	17359.95
511.25	17884.23
511.453	18023.49
511.655	18734.14
511.858	18467.9
512.06	18799.67
512.262	18596.92
512.465	18848.82
512.667	19076.15
512.87	19465.26
513.072	19559.47
513.274	19952.68
513.477	20053.03
513.679	20192.29
513.881	20331.55
514.084	20286.5
514.286	20466.72
514.488	20704.28
514.69	21257.23
514.893	21433.36
515.095	21513.23
515.297	21664.78
515.499	21771.27
515.701	21830.66
515.904	22350.85
516.106	22432.77
516.308	22328.32
516.51	22774.78
516.712	23047.16
516.914	23073.78
517.116	23432.18
517.318	23352.3
517.52	23809
517.722	23815.15
517.925	24175.59
518.127	24525.79
518.329	24478.69
518.531	24548.32
518.733	24925.14
518.935	25054.17
519.136	25519.06
519.338	25646.03
519.54	25762.76
519.742	26059.72
519.944	26256.32
520.146	26551.23
520.348	26684.35
520.55	26553.28
520.752	26950.59
520.954	27243.45
521.155	27210.68
521.357	27558.83
521.559	28152.74
521.761	28349.35
521.963	28054.44
522.164	28365.73
522.366	28785.57
522.568	28742.56
522.77	29057.95
522.971	29750.16
523.173	29438.87
523.375	29737.87
523.576	29696.91
523.778	29739.92
523.98	30182.28
524.181	30458.76
524.383	30319.49
524.584	30690.18
524.786	31009.66
524.988	30776.19
525.189	31157.11
525.391	31497.08
525.592	31505.27
525.794	31802.22
525.995	31794.03
526.197	31687.54
526.398	32324.46
526.6	32367.46
526.801	32367.46
527.003	32490.34
527.204	32463.72
527.406	32932.7
527.607	33373.02
527.808	33393.5
528.01	33213.27
528.211	33094.49
528.412	33717.07
528.614	33420.12
528.815	33672.02
529.016	34079.57
529.218	33495.89
529.419	33971.02
529.62	33997.65
529.822	33956.69
530.023	34194.25
530.224	34382.66
530.425	34597.7
530.626	34032.46
530.828	34030.41
531.029	34667.33
531.23	34059.09
531.431	34491.21
531.632	34837.31
531.833	34642.76
532.035	34833.22
532.236	34911.04
532.437	35121.98
532.638	34671.43
532.839	34771.78
533.04	35017.53
533.241	34945.86
533.442	35855.15
533.643	35134.27
533.844	34917.18
534.045	35259.2
534.246	34788.16
534.447	35140.41
534.648	35029.82
534.849	35797.81
535.05	35011.39
535.251	35246.91
535.451	35142.46
535.652	35662.65
535.853	35197.76
536.054	35711.8
536.255	35777.33
536.456	35345.21
536.657	35767.09
536.857	35369.79
537.058	35099.45
537.259	35613.49
537.46	35326.78
537.66	35513.14
537.861	35257.15
538.062	35386.17
538.263	35842.87
538.463	35617.59
538.664	35240.76
538.865	35494.71
539.065	35742.52
539.266	35064.64
539.466	36242.22
539.667	34939.71
539.868	35613.49
540.068	35672.88
540.269	35367.74
540.469	35468.09
540.67	35404.6
540.87	35728.18
541.071	35140.41
541.271	35408.7
541.472	35924.79
541.672	35328.83
541.873	35638.07
542.073	35021.63
542.274	35650.36
542.474	35130.17
542.675	35208
542.875	35564.34
543.075	35226.43
543.276	34945.86
543.476	35818.29
543.676	35418.94
543.877	35310.39
544.077	35476.28
544.277	35226.43
544.478	35222.33
544.678	35355.45
544.878	35627.83
545.078	35132.22
545.279	35177.28
545.479	35283.77
545.679	35361.59
545.879	35064.64
546.079	35412.79
546.28	35132.22
546.48	35011.39
546.68	35353.4
546.88	35322.68
547.08	35353.4
547.28	35550.01
547.48	35048.25
547.68	35480.38
547.88	35015.49
548.081	35216.19
548.281	35189.56
548.481	34700.1
548.681	35212.09
548.881	35443.51
549.081	35494.71
549.28	34865.99
549.48	35648.31
549.68	35324.73
549.88	35582.77
550.08	34802.5
550.28	35289.91
550.48	34841.41
550.68	35009.34
550.88	34696
551.08	35140.41
551.279	35021.63
551.479	34544.45
551.679	34997.06
551.879	35066.69
552.079	34831.17
552.278	35013.44
552.478	34888.51
552.678	35013.44
552.878	35083.07
553.077	34933.57
553.277	34976.58
553.477	34777.92
553.676	34804.55
553.876	34937.66
554.076	34814.79
554.275	34739.01
554.475	34292.55
554.674	35050.3
554.874	34630.47
555.074	34673.48
555.273	34741.06
555.473	34790.21
555.672	34204.49
555.872	34372.42
556.071	34704.2
556.271	34706.24
556.47	34507.59
556.67	34130.76
556.869	34044.75
557.068	34569.03
557.268	34054.99
557.467	34356.04
557.667	34356.04
557.866	34149.2
558.065	33835.86
558.265	33751.89
558.464	33688.4
558.663	34251.59
558.863	33913.68
559.062	33905.49
559.261	33352.54
559.461	34126.67
559.66	33170.27
559.859	33665.88
560.058	33121.12
560.258	33579.86
560.457	33180.51
560.656	33411.93
560.855	33600.34
561.054	33383.26
561.253	32996.19
561.453	33184.6
561.652	33092.44
561.851	33323.86
562.05	33012.57
562.249	32883.55
562.448	33164.12
562.647	32869.22
562.846	32719.71
563.045	32879.46
563.244	32314.22
563.443	32971.61
563.642	32193.39
563.841	32963.42
564.04	32392.04
564.239	32422.76
564.438	31966.06
564.637	32340.84
564.836	32318.31
565.035	31669.11
565.234	31935.34
565.432	31849.33
565.631	31765.36
565.83	31900.53
566.029	31482.74
566.228	31624.05
566.427	31591.28
566.625	31466.36
566.824	31091.58
567.023	31714.16
567.222	30956.41
567.42	31073.15
567.619	31249.27
567.818	31030.14
568.016	31079.29
568.215	30935.93
568.414	30501.76
568.612	31224.7
568.811	30206.86
569.01	30243.72
569.208	30430.08
569.407	30690.18
569.605	30145.42
569.804	30161.8
570.002	30051.21
570.201	30065.55
570.4	29612.95
570.598	29703.06
570.797	29528.98
570.995	29680.53
571.193	29324.18
571.392	29694.86
571.59	29295.51
571.789	29582.23
571.987	29612.95
572.186	29139.86
572.384	29338.52
572.582	28980.12
572.781	28840.86
572.979	28742.56
573.177	28795.81
573.376	28857.24
573.574	28636.06
573.772	28652.45
573.971	28416.93
574.169	28359.59
574.367	28005.29
574.565	28672.93
574.763	28130.22
574.962	28210.09
575.16	27915.18
575.358	27913.13
575.556	27524.02
575.754	27917.23
575.952	27493.3
576.151	27974.57
576.349	27280.31
576.547	27556.78
576.745	27724.72
576.943	27284.4
577.141	27515.83
577.339	27274.17
577.537	27192.25
577.735	27339.7
577.933	27083.7
578.131	27036.6
578.329	26584
578.527	26883
578.725	26801.08
578.923	26624.96
579.121	26420.16
579.319	26657.73
579.516	26682.3
579.714	26588.1
579.912	26127.3
580.11	26328
580.308	26239.94
580.506	26586.05
580.704	26014.66
580.901	25842.63
581.099	26098.63
581.297	25865.16
581.495	25793.48
581.692	26067.91
581.89	25394.13
582.088	25734.09
582.285	25549.78
582.483	25514.96
582.681	25580.49
582.878	25430.99
583.076	24923.1
583.274	25377.75
583.471	25017.3
583.669	25326.55
583.866	24855.51
584.064	24806.36
584.262	24519.65
584.459	25031.64
584.657	24677.34
584.854	24939.48
585.052	24439.78
585.249	24714.2
585.447	24368.1
585.644	24013.8
585.841	24337.38
586.039	24701.92
586.236	24122.34
586.434	23892.97
586.631	23899.11
586.828	23899.11
587.026	23849.96
587.223	23989.22
587.42	23608.3
587.618	23679.98
587.815	23622.64
588.012	23520.24
588.21	23360.5
588.407	23645.16
588.604	23387.12
588.801	23196.66
588.999	23106.55
589.196	23188.47
589.393	22901.75
589.59	23143.41
589.787	23098.36
589.984	22981.62
590.182	22737.91
590.379	22852.6
590.576	22457.34
590.773	22529.02
590.97	22713.34
591.167	22645.76
591.364	22043.65
591.561	22176.77
591.758	22426.62
591.955	22289.41
592.152	22154.24
592.349	21873.67
592.546	21961.73
592.743	22252.55
592.94	21883.91
593.137	21873.67
593.334	21861.38
593.531	21519.37
593.727	21707.79
593.924	21713.93
594.121	21351.44
594.318	21736.46
594.515	21023.76
594.712	21388.3
594.908	21152.79
595.105	21308.43
595.302	21101.59
595.499	21259.28
595.696	20991
595.892	20859.93
596.089	21056.53
596.286	21023.76
596.482	20915.22
596.679	20479
596.876	20646.94
597.072	20929.56
597.269	20694.04
597.466	20309.02
597.662	20483.1
597.859	20210.72
598.055	20159.52
598.252	20227.1
598.448	19876.9
598.645	19946.53
598.841	19878.95
599.038	20167.71
599.234	19899.43
599.431	19934.25
599.627	19872.81
599.824	19950.63
600.02	19690.54
600.217	19489.84
600.413	19522.6
600.609	19491.88
600.806	19625
601.002	19567.66
601.198	19422.25
601.395	19270.7
601.591	19084.34
601.787	19215.41
601.984	19035.19
602.18	18906.16
602.376	19016.76
602.572	18988.08
602.769	19174.45
602.965	18893.88
603.161	18826.29
603.357	18566.2
603.553	18613.31
603.75	18730.04
603.946	18340.93
604.142	18310.21
604.338	18338.88
604.534	18246.72
604.73	18549.82
604.926	18107.46
605.122	18404.41
605.318	18080.83
605.514	18111.55
605.71	18021.44
605.906	17845.32
606.102	17884.23
606.298	17896.52
606.494	18039.87
606.69	18109.5
606.886	17802.31
607.082	17392.72
607.278	17722.44
607.474	17495.11
607.67	17622.09
607.866	17755.21
608.062	17673.29
608.257	17433.68
608.453	17382.48
608.649	17599.56
608.845	17157.2
609.041	17345.61
609.236	17179.73
609.432	17237.07
609.628	16874.58
609.824	17040.47
610.019	17067.09
610.215	17245.26
610.411	17134.67
610.606	17118.29
610.802	17044.56
610.998	16890.96
611.193	16718.93
611.389	16991.31
611.584	16516.19
611.78	16704.6
611.976	16598.1
612.171	16807
612.367	16446.55
612.562	16362.59
612.758	16327.77
612.953	16274.52
613.149	16622.68
613.344	16438.36
613.539	16540.76
613.735	16231.52
613.93	16614.49
614.126	16178.27
614.321	16567.38
614.517	16495.71
614.712	16327.77
614.907	16401.5
615.103	16358.49
615.298	16110.69
615.493	16235.61
615.688	16090.21
615.884	15996
616.079	15864.93
616.274	16030.82
616.47	15957.09
616.665	15959.14
616.86	15776.87
617.055	15678.57
617.25	15770.72
617.445	15946.85
617.641	15463.53
617.836	15873.12
618.031	15623.27
618.226	15492.2
618.421	15574.12
618.616	15633.51
618.811	15551.59
619.006	15524.97
619.201	15197.29
619.396	15428.71
619.591	15094.89
619.786	15203.44
619.981	15008.88
620.176	15113.33
620.371	14920.82
620.566	14785.65
620.761	14795.89
620.956	14877.81
621.151	14632.05
621.346	14738.55
621.541	14460.02
621.735	14572.66
621.93	14576.76
622.125	14548.09
622.32	14183.55
622.515	13982.85
622.709	14124.16
622.904	14300.28
623.099	14027.9
623.294	14314.62
623.488	13997.18
623.683	13943.94
623.878	13708.42
624.072	13608.07
624.267	13507.72
624.462	13735.04
624.656	13532.29
624.851	13622.41
625.046	13372.55
625.24	13194.38
625.435	13296.78
625.629	13251.72
625.824	13165.71
626.018	13085.84
626.213	12774.55
626.407	12743.83
626.602	12784.79
626.796	12803.22
626.991	13059.21
627.185	12563.61
627.38	12504.21
627.574	12575.89
627.768	12315.8
627.963	12410.01
628.157	12055.71
628.352	12145.82
628.546	12008.61
628.74	12166.3
628.935	11816.1
629.129	11879.58
629.323	11621.54
629.517	11779.23
629.712	11797.67
629.906	11689.12
630.1	11625.64
630.294	11773.09
630.489	11490.47
630.683	11531.43
630.877	11250.86
631.071	11459.75
631.265	11226.28
631.459	11111.6
631.653	11113.64
631.848	11125.93
632.042	10980.53
632.236	11072.68
632.43	10923.18
632.624	10947.76
632.818	10691.76
633.012	10628.28
633.206	10773.68
633.4	10812.59
633.594	10489.01
633.788	10738.87
633.982	10546.36
634.176	10542.26
634.369	10400.95
634.563	10390.71
634.757	10261.69
634.951	10241.21
635.145	10067.13
635.339	9864.38
635.533	10087.61
635.726	9956.54
635.92	9915.58
636.114	9852.09
636.308	9819.33
636.501	9745.6
636.695	9710.79
636.889	9544.9
637.083	9782.46
637.276	9444.55
637.47	9411.78
637.664	9499.84
637.857	9534.66
638.051	9241.8
638.244	9454.79
638.438	9268.42
638.632	9327.81
638.825	9104.59
639.019	9151.69
639.212	9106.63
639.406	9155.79
639.599	9034.96
639.793	9049.29
639.986	8764.62
640.18	8871.12
640.373	8807.63
640.567	8518.87
640.76	8756.43
640.954	8522.96
641.147	8680.66
641.34	8590.55
641.534	8529.11
641.727	8602.83
641.92	8430.8
642.114	8451.28
642.307	8176.86
642.5	8172.76
642.694	8058.07
642.887	8199.38
643.08	8336.6
643.273	8058.07
643.467	7967.96
643.66	7965.92
643.853	8070.36
644.046	7824.61
644.239	8039.64
644.432	7927
644.626	7671.01
644.819	7759.07
645.012	7941.34
645.205	7912.67
645.398	7677.15
645.591	7750.88
645.784	7576.8
645.977	7427.3
646.17	7695.58
646.363	7441.64
646.556	7455.97
646.749	7349.48
646.942	7359.72
647.135	7310.57
647.328	7329
647.521	7380.2
647.714	7054.57
647.907	7214.31
648.099	7032.04
648.292	7230.7
648.485	7091.43
648.678	6882.54
648.871	6884.59
649.064	6970.6
649.256	6894.83
649.449	6808.81
649.642	6862.06
649.835	6808.81
650.027	6718.7
650.22	6636.78
650.413	6790.38
650.605	6704.37
650.798	6675.7
650.991	6518
651.183	6622.45
651.376	6401.27
651.568	6431.99
651.761	6386.93
651.954	6360.31
652.146	6503.67
652.339	6425.84
652.531	6522.1
652.724	6311.16
652.916	6298.87
653.109	6286.58
653.301	6339.83
653.494	6155.51
653.686	6106.36
653.879	6087.93
654.071	6323.44
654.263	5956.86
654.456	6036.73
654.648	6104.31
654.84	6020.35
655.033	5922.04
655.225	5995.77
655.417	5856.51
655.61	5862.65
655.802	5876.99
655.994	5860.6
656.186	5684.48
656.379	5831.93
656.571	5762.3
656.763	5508.35
656.955	5723.39
657.148	5801.21
657.34	5729.53
657.532	5518.59
657.724	5453.06
657.916	5688.57
658.108	5530.88
658.3	5461.25
658.492	5426.43
658.684	5375.24
658.876	5543.17
659.068	5498.11
659.26	5254.41
659.452	5248.26
659.644	5467.39
659.836	5305.6
660.028	5268.74
660.22	5041.42
660.412	5149.96
660.604	5207.3
660.796	5106.95
660.988	5129.48
661.18	5123.34
661.372	4871.44
661.563	5125.38
661.755	5074.18
661.947	5115.14
662.139	4963.59
662.331	4990.22
662.522	4926.73
662.714	4881.67
662.906	4912.39
663.097	4850.96
663.289	4896.01
663.481	4922.63
663.673	4744.46
663.864	4840.72
664.056	4810
664.247	4752.65
664.439	4629.77
664.631	4842.76
664.822	4789.52
665.014	4793.61
665.205	4715.79
665.397	4490.51
665.588	4568.34
665.78	4611.34
665.971	4715.79
666.163	4742.41
666.354	4754.7
666.546	4494.61
666.737	4580.62
666.929	4515.09
667.12	4433.17
667.311	4543.76
667.503	4371.73
667.694	4539.66
667.885	4490.51
668.077	4480.27
668.268	4396.31
668.459	4316.44
668.651	4308.24
668.842	4322.58
669.033	4312.34
669.224	4300.05
669.416	4422.93
669.607	4293.91
669.798	4146.45
669.989	4314.39
670.18	4173.08
670.371	4316.44
670.563	4138.26
670.754	4236.56
670.945	4238.61
671.136	4261.14
671.327	4138.26
671.518	4160.79
671.709	4244.76
671.9	4287.76
672.091	4293.91
672.282	4099.35
672.473	4224.28
672.664	4111.64
672.855	4197.65
673.046	4220.18
673.237	4209.94
673.428	4144.41
673.619	4128.02
673.809	4273.43
674	4201.75
674.191	4064.54
674.382	3994.9
674.573	4117.78
674.764	4132.12
674.954	4177.17
675.145	3929.37
675.336	4097.3
675.527	4144.41
675.717	4109.59
675.908	4085.02
676.099	3949.85
676.289	4093.21
676.48	4103.45
676.671	4148.5
676.861	4031.77
677.052	4033.82
677.243	4039.96
677.433	4021.53
677.624	4115.73
677.814	4085.02
678.005	3941.66
678.195	4068.63
678.386	4066.58
678.576	4023.58
678.767	4080.92
678.957	4052.25
679.148	4042.01
679.338	3992.86
679.529	4146.45
679.719	4164.89
679.909	4072.73
680.1	4115.73
680.29	4228.37
680.481	4085.02
680.671	4179.22
680.861	4039.96
681.052	4029.72
681.242	4048.15
681.432	4087.06
681.622	3982.62
681.813	4031.77
682.003	4089.11
682.193	3996.95
682.383	4117.78
682.573	4029.72
682.764	4025.62
682.954	4080.92
683.144	4173.08
683.334	4085.02
683.524	4164.89
683.714	4031.77
683.904	4125.97
684.094	4162.84
684.284	4060.44
684.474	4183.32
684.664	4064.54
684.854	3931.42
685.044	4025.62
685.234	3958.04
685.424	3910.94
685.614	3984.66
685.804	3953.94
685.994	4060.44
686.184	4017.43
686.374	4056.34
686.564	4044.06
686.753	3960.09
686.943	3982.62
687.133	3740.96
687.323	3923.23
687.513	3890.46
687.702	3861.79
687.892	3851.55
688.082	3747.1
688.272	3800.35
688.461	3841.31
688.651	3720.48
688.841	3771.68
689.03	3734.81
689.22	3710.24
689.41	3734.81
689.599	3663.13
689.789	3566.88
689.979	3622.17
690.168	3630.37
690.358	3644.7
690.547	3681.57
690.737	3603.74
690.926	3405.09
691.116	3525.92
691.305	3683.61
691.495	3439.9
691.684	3388.71
691.874	3521.82
692.063	3464.48
692.252	3444
692.442	3370.27
692.631	3333.41
692.82	3329.31
693.01	3321.12
693.199	3429.66
693.388	3265.83
693.578	3310.88
693.767	3343.65
693.956	3409.19
694.146	3206.44
694.335	3323.17
694.524	3204.39
694.713	3183.91
694.902	3312.93
695.092	3243.3
695.281	3310.88
695.47	3165.48
695.659	3091.75
695.848	3183.91
696.037	3190.05
696.226	3161.38
696.415	3239.2
696.604	3231.01
696.793	3343.65
696.982	3079.46
697.171	3149.09
697.36	3048.74
697.549	3130.66
697.738	3175.72
697.927	3042.6
698.116	3118.37
698.305	3040.55
698.494	3245.35
698.683	2979.11
698.872	3214.63
699.061	3112.23
699.25	3093.8
699.438	3034.41
699.627	2991.4
699.816	3208.48
700.005	3061.03
700.193	3081.51
700.382	3054.89
700.571	3005.74
700.76	3206.44
700.948	3083.56
701.137	3067.17
701.326	3108.13
701.514	2956.58
701.703	3040.55
701.892	3042.6
702.08	3147.05
702.269	3075.37
702.457	3134.76
702.646	3063.08
702.834	3126.57
703.023	3122.47
703.212	3130.66
703.4	3095.85
703.589	3101.99
703.777	3142.95
703.965	3073.32
704.154	3099.94
704.342	3161.38
704.531	2995.5
704.719	3001.64
704.907	3200.29
705.096	2995.5
705.284	3001.64
705.472	3140.9
705.661	3118.37
705.849	3208.48
706.037	3271.97
706.226	3116.33
706.414	3128.61
706.602	3075.37
706.79	3153.19
706.979	3134.76
707.167	3099.94
707.355	3083.56
707.543	3077.41
707.731	3308.83
707.919	3140.9
708.107	3108.13
708.296	3061.03
708.484	3058.98
708.672	3310.88
708.86	3298.6
709.048	3124.52
709.236	3198.24
709.424	3327.27
709.612	3233.06
709.8	3147.05
709.988	3126.57
710.176	3300.64
710.364	3265.83
710.551	3288.36
710.739	3296.55
710.927	3163.43
711.115	3245.35
711.303	3259.68
711.491	3241.25
711.679	3194.15
711.866	3241.25
712.054	3331.36
712.242	3265.83
712.43	3421.47
712.617	3269.92
712.805	3409.19
712.993	3335.46
713.181	3224.87
713.368	3370.27
713.556	3292.45
713.744	3294.5
713.931	3400.99
714.119	3386.66
714.306	3439.9
714.494	3427.62
714.682	3284.26
714.869	3317.03
715.057	3378.47
715.244	3321.12
715.432	3429.66
715.619	3274.02
715.807	3392.8
715.994	3474.72
716.182	3509.54
716.369	3478.82
716.556	3450.14
716.744	3380.51
716.931	3392.8
717.119	3534.11
717.306	3437.86
717.493	3593.5
717.681	3458.34
717.868	3513.63
718.055	3394.85
718.242	3515.68
718.43	3568.93
718.617	3513.63
718.804	3441.95
718.991	3482.91
719.179	3605.79
719.366	3441.95
719.553	3550.5
719.74	3472.67
719.927	3482.91
720.114	3552.54
720.301	3656.99
720.488	3523.87
720.676	3640.61
720.863	3648.8
721.05	3607.84
721.237	3593.5
721.424	3728.67
721.611	3812.64
721.798	3579.17
721.985	3691.81
722.172	3620.13
722.358	3644.7
722.545	3642.65
722.732	3605.79
722.919	3763.48
723.106	3613.98
723.293	3704.09
723.48	3796.25
723.667	3681.57
723.853	3665.18
724.04	3564.83
724.227	3728.67
724.414	3667.23
724.6	3751.2
724.787	3732.76
724.974	3939.61
725.161	3687.71
725.347	3566.88
725.534	3724.57
725.72	3794.2
725.907	3740.96
726.094	3656.99
726.28	3773.72
726.467	3716.38
726.653	3802.4
726.84	3765.53
727.027	3884.31
727.213	3833.11
727.4	3894.55
727.586	3673.37
727.773	3837.21
727.959	3822.88
728.145	3652.89
728.332	3902.75
728.518	3816.73
728.705	3837.21
728.891	3779.87
729.077	3798.3
729.264	3884.31
729.45	3855.64
729.636	3925.27
729.823	3941.66
730.009	3824.92
730.195	3923.23
730.382	3847.45
730.568	3923.23
730.754	3912.99
730.94	3740.96
731.126	3910.94
731.313	3876.12
731.499	3851.55
731.685	3929.37
731.871	3904.79
732.057	3980.57
732.243	3978.52
732.429	3867.93
732.615	3949.85
732.801	3990.81
732.987	3902.75
733.173	3861.79
733.359	3886.36
733.545	3910.94
733.731	4017.43
733.917	3908.89
734.103	3937.56
734.289	3992.86
734.475	3910.94
734.661	3943.71
734.847	3814.68
735.033	3955.99
735.219	3843.35
735.404	3822.88
735.59	3851.55
735.776	3796.25
735.962	3992.86
736.148	3894.55
736.333	3804.44
736.519	3730.72
736.705	3978.52
736.89	3730.72
737.076	3878.17
737.262	3757.34
737.447	3798.3
737.633	3761.44
737.819	4007.19
738.004	3798.3
738.19	3808.54
738.375	3771.68
738.561	3964.18
738.747	3925.27
738.932	3804.44
739.118	3824.92
739.303	3781.92
739.489	3820.83
739.674	3759.39
739.859	3808.54
740.045	3736.86
740.23	3857.69
740.416	3847.45
740.601	3761.44
740.786	3652.89
740.972	3671.33
741.157	3677.47
741.342	3638.56
741.528	3775.77
741.713	3769.63
741.898	3697.95
742.084	3554.59
742.269	3659.04
742.454	3720.48
742.639	3671.33
742.824	3683.61
743.01	3605.79
743.195	3804.44
743.38	3562.78
743.565	3671.33
743.75	3495.2
743.935	3667.23
744.12	3579.17
744.305	3413.28
744.49	3411.23
744.675	3564.83
744.86	3366.18
745.045	3423.52
745.23	3464.48
745.415	3386.66
745.6	3527.97
745.785	3452.19
745.97	3337.51
746.155	3386.66
746.34	3425.57
746.525	3290.4
746.71	3380.51
746.895	3198.24
747.079	3241.25
747.264	3271.97
747.449	3247.4
747.634	3110.18
747.819	3163.43
748.003	3181.86
748.188	3120.42
748.373	3200.29
748.557	3153.19
748.742	3122.47
748.927	3140.9
749.111	3036.45
749.296	3065.13
749.481	2932.01
749.665	2932.01
749.85	2845.99
750.034	2979.11
750.219	2981.16
750.404	2864.43
750.588	2821.42
750.773	2932.01
750.957	2821.42
751.141	2778.41
751.326	2905.39
751.51	2862.38
751.695	2936.1
751.879	2856.23
752.064	2944.3
752.248	2741.55
752.432	2759.98
752.617	2762.03
752.801	2714.92
752.985	2606.38
753.17	2751.79
753.354	2544.94
753.538	2659.63
753.722	2483.5
753.907	2585.9
754.091	2622.77
754.275	2598.19
754.459	2434.35
754.643	2452.78
754.828	2575.66
755.012	2463.02
755.196	2520.37
755.38	2463.02
755.564	2491.7
755.748	2327.86
755.932	2366.77
756.116	2370.87
756.3	2538.8
756.484	2409.78
756.668	2329.91
756.852	2278.71
757.036	2288.95
757.22	2250.03
757.404	2225.46
757.588	2211.12
757.772	2223.41
757.956	2209.08
758.14	2258.23
758.323	2143.54
758.507	2127.16
758.691	2131.25
758.875	2159.92
759.059	2080.05
759.242	2045.24
759.426	2049.33
759.61	2039.09
759.794	2075.96
759.977	2073.91
760.161	2063.67
760.345	2096.44
760.528	2078.01
760.712	2055.48
760.895	1908.02
761.079	2094.39
761.263	1824.06
761.446	1942.84
761.63	1942.84
761.813	1873.21
761.997	1813.82
762.18	1981.75
762.364	1803.58
762.547	1899.83
762.731	1815.87
762.914	1893.69
763.098	1768.76
763.281	1846.59
763.464	1920.31
763.648	1836.35
763.831	1963.32
764.015	1848.63
764.198	1766.71
764.381	1807.67
764.564	1752.38
764.748	1803.58
764.931	1805.63
765.114	1715.52
765.297	1748.28
765.481	1754.43
765.664	1781.05
765.847	1682.75
766.03	1695.04
766.213	1602.88
766.397	1662.27
766.58	1752.38
766.763	1649.98
766.946	1619.26
767.129	1635.64
767.312	1670.46
767.495	1570.11
767.678	1606.97
767.861	1531.2
768.044	1537.34
768.227	1592.64
768.41	1576.25
768.593	1549.63
768.776	1592.64
768.959	1627.45
769.142	1697.08
769.324	1475.9
769.507	1555.77
769.69	1572.16
769.873	1480
770.056	1680.7
770.239	1586.49
770.421	1568.06
770.604	1494.33
770.787	1484.09
770.97	1477.95
771.152	1510.72
771.335	1527.1
771.518	1348.93
771.7	1533.25
771.883	1488.19
772.066	1416.51
772.248	1500.48
772.431	1436.99
772.613	1443.14
772.796	1463.62
772.978	1432.9
773.161	1459.52
773.343	1359.17
773.526	1285.44
773.708	1383.74
773.891	1312.07
774.073	1330.5
774.256	1281.35
774.438	1316.16
774.621	1461.57
774.803	1254.72
774.985	1262.91
775.168	1289.54
775.35	1312.07
775.532	1191.24
775.715	1221.95
775.897	1209.67
776.079	1185.09
776.261	1244.48
776.444	1209.67
776.626	1174.85
776.808	1156.42
776.99	1183.04
777.173	1205.57
777.355	1160.52
777.537	1234.24
777.719	1070.4
777.901	1123.65
778.083	1076.55
778.265	1000.77
778.447	1170.76
778.629	1080.64
778.811	1135.94
778.993	1090.88
779.175	1078.6
779.357	1082.69
779.539	965.96
779.721	1000.77
779.903	1013.06
780.085	957.77
780.267	1080.64
780.449	970.05
780.631	986.44
780.812	1027.4
780.994	1078.6
781.176	900.42
781.358	943.43
781.54	965.96
781.721	978.25
781.903	1027.4
782.085	922.95
782.267	949.57
782.448	888.14
782.63	832.84
782.812	906.57
782.993	861.51
783.175	861.51
783.357	789.83
783.538	871.75
783.72	732.49
783.901	826.7
784.083	812.36
784.264	859.46
784.446	748.87
784.627	804.17
784.809	888.14
784.99	683.34
785.172	855.37
785.353	816.46
785.535	800.07
785.716	748.87
785.897	716.11
786.079	779.59
786.26	689.48
786.441	783.69
786.623	654.67
786.804	701.77
786.985	699.72
787.167	761.16
787.348	619.85
787.529	712.01
787.71	789.83
787.891	705.87
788.073	638.28
788.254	574.8
788.435	722.25
788.616	738.63
788.797	662.86
788.978	673.1
789.159	599.37
789.34	607.56
789.522	621.9
789.703	669
789.884	582.99
790.065	607.56
790.246	675.15
790.427	525.65
790.607	687.43
790.788	656.72
790.969	531.79
791.15	585.04
791.331	556.36
791.512	488.78
791.693	511.31
791.874	576.84
792.054	677.19
792.235	646.48
792.416	562.51
792.597	556.36
792.778	582.99
792.958	580.94
793.139	503.12
793.32	554.32
793.5	535.89
793.681	611.66
793.862	568.65
794.042	482.64
794.223	456.01
794.404	513.36
794.584	472.4
794.765	419.15
794.945	601.42
795.126	566.6
795.306	548.17
795.487	453.97
795.667	413.01
795.848	599.37
796.028	519.5
796.209	492.88
796.389	568.65
796.57	490.83
796.75	480.59
796.93	478.54
797.111	484.69
797.291	568.65
797.471	492.88
797.652	392.53
797.832	386.38
798.012	435.53
798.192	425.29
798.373	408.91
798.553	484.69
798.733	437.58
798.913	374.1
799.093	404.82
799.274	480.59
799.454	439.63
799.634	415.06
799.814	415.06
799.994	341.33
800.174	419.15
800.354	437.58
800.534	324.94
800.714	402.77
800.894	312.66
801.074	312.66
801.254	353.62
801.434	435.53
801.614	339.28
801.794	382.29
801.974	1324.35
802.154	355.66
802.334	429.39
802.514	292.18
802.693	337.23
802.873	357.71
803.053	421.2
803.233	345.42
803.413	320.85
803.592	413.01
803.772	294.22
803.952	302.42
804.131	312.66
804.311	365.9
804.491	394.58
804.67	296.27
804.85	300.37
805.03	361.81
805.209	378.19
805.389	322.9
805.568	339.28
805.748	288.08
805.928	353.62
806.107	320.85
806.287	322.9
806.466	339.28
806.646	257.36
806.825	365.9
807.004	277.84
807.184	312.66
807.363	421.2
807.543	271.7
807.722	298.32
807.901	390.48
808.081	333.14
808.26	267.6
808.439	255.31
808.619	331.09
808.798	292.18
808.977	296.27
809.156	320.85
809.336	308.56
809.515	314.7
809.694	255.31
809.873	251.22
810.052	306.51
810.231	324.94
810.411	279.89
810.59	320.85
810.769	292.18
810.948	382.29
811.127	179.54
811.306	204.11
811.485	308.56
811.664	372.05
811.843	265.55
812.022	240.98
812.201	197.97
812.38	169.3
812.559	253.27
812.737	261.46
812.916	230.74
813.095	257.36
813.274	253.27
813.453	243.03
813.632	255.31
813.811	255.31
813.989	187.73
814.168	320.85
814.347	187.73
814.526	249.17
814.704	298.32
814.883	314.7
815.062	126.29
815.24	189.78
815.419	193.87
815.598	292.18
815.776	204.11
815.955	288.08
816.133	154.96
816.312	210.26
816.49	116.05
816.669	275.79
816.847	216.4
817.026	173.39
817.204	177.49
817.383	240.98
817.561	144.72
817.74	169.3
817.918	220.5
818.097	197.97
818.275	187.73
818.453	195.92
818.632	220.5
818.81	257.36
818.988	226.64
819.167	183.63
819.345	175.44
819.523	177.49
819.701	234.83
819.879	157.01
820.058	161.11
820.236	224.59
820.414	210.26
820.592	216.4
820.77	193.87
820.948	257.36
821.127	173.39
821.305	255.31
821.483	177.49
821.661	269.65
821.839	169.3
822.017	165.2
822.195	226.64
822.373	273.75
822.551	222.55
822.729	175.44
822.907	212.31
823.085	251.22
823.262	277.84
823.44	107.86
823.618	130.39
823.796	191.83
823.974	167.25
824.152	144.72
824.329	161.11
824.507	197.97
824.685	165.2
824.863	208.21
825.04	116.05
825.218	173.39
825.396	169.3
825.574	146.77
825.751	195.92
825.929	193.87
826.107	138.58
826.284	126.29
826.462	120.15
826.639	140.63
826.817	124.24
826.994	197.97
827.172	83.28
827.349	275.79
827.527	148.82
827.704	142.68
827.882	111.96
828.059	134.48
828.237	157.01
828.414	171.35
828.591	157.01
828.769	128.34
828.946	73.04
829.124	189.78
829.301	95.57
829.478	193.87
829.655	181.59
829.833	148.82
830.01	73.04
830.187	183.63
830.364	122.2
830.542	27.99
830.719	185.68
830.896	142.68
831.073	87.38
831.25	159.06
831.427	220.5
831.604	140.63
831.782	75.09
831.959	148.82
832.136	150.87
832.313	163.15
832.49	109.91
832.667	62.8
832.844	36.18
833.021	243.03
833.198	163.15
833.374	83.28
833.551	120.15
833.728	114
833.905	109.91
834.082	79.19
834.259	50.52
834.436	171.35
834.612	83.28
834.789	163.15
834.966	85.33
835.143	126.29
835.319	175.44
835.496	132.44
835.673	118.1
835.85	212.31
836.026	95.57
836.203	148.82
836.38	21.85
836.556	87.38
836.733	79.19
836.909	165.2
837.086	30.04
837.262	101.72
837.439	81.24
837.616	56.66
837.792	101.72
837.968	60.76
838.145	30.04
838.321	208.21
838.498	107.86
838.674	142.68
838.851	85.33
839.027	154.96
839.203	85.33
839.38	85.33
839.556	64.85
839.732	81.24
839.909	99.67
840.085	109.91
840.261	27.99
840.437	85.33
840.614	93.52
840.79	124.24
840.966	103.76
841.142	191.83
841.318	79.19
841.494	114
841.671	44.37
841.847	64.85
842.023	44.37
842.199	46.42
842.375	193.87
842.551	9.56
842.727	21.85
842.903	68.95
843.079	54.61
843.255	95.57
843.431	89.43
843.607	101.72
843.783	-2.73
843.959	126.29
844.134	66.9
844.31	101.72
844.486	21.85
844.662	103.76
844.838	111.96
845.013	87.38
845.189	79.19
845.365	64.85
845.541	95.57
845.716	97.62
845.892	107.86
846.068	118.1
846.244	19.8
846.419	56.66
846.595	75.09
846.77	99.67
846.946	146.77
847.122	101.72
847.297	124.24
847.473	56.66
847.648	-4.78
847.824	1.37
847.999	-66.22
848.175	42.32
848.35	124.24
848.526	124.24
848.701	157.01
848.876	58.71
849.052	134.48
849.227	83.28
849.403	46.42
849.578	62.8
849.753	56.66
849.929	77.14
850.104	68.95
850.279	58.71
850.454	79.19
850.63	107.86
850.805	9.56
850.98	85.33
851.155	21.85
851.33	83.28
851.505	46.42
851.681	101.72
851.856	-58.03
852.031	144.72
852.206	150.87
852.381	68.95
852.556	114
852.731	75.09
852.906	48.47
853.081	30.04
853.256	85.33
853.431	136.53
853.606	-12.97
853.781	-10.92
853.956	-10.92
854.131	21.85
854.305	5.46
854.48	50.52
854.655	62.8
854.83	-15.02
855.005	97.62
855.18	118.1
855.354	13.65
855.529	128.34
855.704	19.8
855.879	-12.97
856.053	109.91
856.228	81.24
856.403	3.41
856.577	79.19
856.752	54.61
856.926	-2.73
857.101	23.89
857.276	50.52
857.45	30.04
857.625	81.24
857.799	-41.64
857.974	32.08
858.148	-62.12
858.323	52.56
858.497	-47.79
858.672	66.9
858.846	-6.83
859.02	181.59
859.195	-12.97
859.369	50.52
859.543	9.56
859.718	95.57
859.892	38.23
860.066	27.99
860.241	66.9
860.415	19.8
860.589	30.04
860.763	1.37
860.938	27.99
861.112	46.42
861.286	34.13
861.46	32.08
861.634	1.37
861.808	87.38
861.982	91.48
862.157	44.37
862.331	27.99
862.505	-105.13
862.679	-49.83
862.853	11.61
863.027	-33.45
863.201	124.24
863.375	5.46
863.549	93.52
863.722	91.48
863.896	107.86
864.07	79.19
864.244	68.95
864.418	103.76
864.592	30.04
864.766	-31.4
864.939	38.23
865.113	-47.79
865.287	81.24
865.461	40.28
865.634	5.46
865.808	15.7
865.982	19.8
866.156	21.85
866.329	-82.6
866.503	21.85
866.676	99.67
866.85	11.61
867.024	-6.83
867.197	44.37
867.371	17.75
867.544	54.61
867.718	42.32
867.891	17.75
868.065	-49.83
868.238	5.46
868.412	73.04
868.585	42.32
868.759	21.85
868.932	46.42
869.105	-58.03
869.279	52.56
869.452	5.46
869.625	87.38
869.799	21.85
869.972	-51.88
870.145	23.89
870.319	11.61
870.492	34.13
870.665	1.37
870.838	101.72
871.011	-27.31
871.185	-23.21
871.358	36.18
871.531	19.8
871.704	17.75
871.877	-4.78
872.05	25.94
872.223	3.41
872.396	87.38
872.569	34.13
872.742	-33.45
872.915	9.56
873.088	34.13
873.261	38.23
873.434	38.23
873.607	30.04
873.78	85.33
873.953	50.52
874.126	1.37
874.299	71
874.471	-2.73
874.644	50.52
874.817	75.09
874.99	62.8
875.163	-82.6
875.335	91.48
875.508	-31.4
875.681	140.63
875.853	-10.92
876.026	-0.68
876.199	68.95
876.371	79.19
876.544	34.13
876.717	40.28
876.889	-43.69
877.062	77.14
877.234	109.91
877.407	-12.97
877.579	40.28
877.752	128.34
877.924	13.65
878.097	71
878.269	-37.55
878.442	44.37
878.614	-15.02
878.786	3.41
878.959	71
879.131	-0.68
879.303	-35.5
879.476	50.52
879.648	-2.73
879.82	120.15
879.993	-39.59
880.165	38.23
880.337	9.56
880.509	9.56
880.681	13.65
880.854	19.8
881.026	30.04
881.198	83.28
881.37	19.8
881.542	42.32
881.714	-27.31
881.886	13.65
882.058	-45.74
882.23	-0.68
882.402	32.08
882.574	19.8
882.746	36.18
882.918	36.18
883.09	-17.07
883.262	3.41
883.434	38.23
883.606	-43.69
883.778	-10.92
883.95	83.28
884.122	-27.31
884.293	7.51
884.465	85.33
884.637	52.56
884.809	-51.88
884.98	-8.87
885.152	-4.78
885.324	38.23
885.496	9.56
885.667	40.28
885.839	3.41
886.011	62.8
886.182	38.23
886.354	56.66
886.525	36.18
886.697	38.23
886.869	-78.51
887.04	-23.21
887.212	40.28
887.383	75.09
887.555	46.42
887.726	13.65
887.897	-17.07
888.069	52.56
888.24	17.75
888.412	5.46
888.583	-23.21
888.754	11.61
888.926	-64.17
889.097	36.18
889.268	-19.11
889.44	-27.31
889.611	-47.79
889.782	-29.35
889.953	-51.88
890.125	19.8
890.296	-19.11
890.467	-0.68
890.638	3.41
890.809	34.13
890.98	7.51
891.151	85.33
891.323	68.95
891.494	-25.26
891.665	62.8
891.836	40.28
892.007	-39.59
892.178	32.08
892.349	-70.31
892.52	-51.88
892.691	-33.45
892.862	34.13
893.032	-84.65
893.203	1.37
893.374	-6.83
893.545	-15.02
893.716	-25.26
893.887	23.89
894.057	13.65
894.228	-2.73
894.399	-6.83
894.57	54.61
894.74	48.47
894.911	-23.21
895.082	-41.64
895.253	9.56
895.423	-8.87
895.594	48.47
895.764	19.8
895.935	-31.4
896.106	25.94
896.276	3.41
896.447	44.37
896.617	-4.78
896.788	-68.27
896.958	13.65
897.129	-4.78
897.299	-21.16
897.47	91.48
897.64	42.32
897.81	17.75
897.981	42.32
898.151	-70.31
898.322	-23.21
898.492	1.37
898.662	-2.73
898.832	54.61
899.003	-51.88
899.173	71
899.343	42.32
899.513	-43.69
