Data from USB4F104151__25__13-04-46-048.txt Node

Date: Fri Mar 14 13:04:46 EDT 2025
User: louis
Spectrometer: USB4F10415
Trigger mode: 4
Integration Time (sec): 4.000000E-2
Scans to average: 1
Electric dark correction enabled: true
Nonlinearity correction enabled: false
Boxcar width: 0
XAxis mode: Wavelengths
Number of Pixels in Spectrum: 3648
>>>>>Begin Spectral Data<<<<<
178.204	-173.05
178.424	-173.05
178.644	-173.05
178.864	-154.62
179.084	-166.91
179.304	-33.79
179.524	-13.31
179.744	11.26
179.964	15.36
180.184	21.5
180.404	-5.12
180.624	9.22
180.844	46.08
181.064	-13.31
181.283	-37.89
181.503	-11.26
181.723	11.26
181.943	-29.7
182.163	64.51
182.383	27.65
182.602	64.51
182.822	56.32
183.042	19.46
183.262	-41.98
183.482	-17.41
183.701	23.55
183.921	-31.74
184.141	5.12
184.361	29.7
184.58	111.61
184.8	31.74
185.02	-31.74
185.239	95.23
185.459	44.03
185.679	1.02
185.898	35.84
186.118	17.41
186.338	35.84
186.557	39.94
186.777	-15.36
186.997	15.36
187.216	62.46
187.436	128
187.655	64.51
187.875	62.46
188.095	-3.07
188.314	70.65
188.534	84.99
188.753	56.32
188.973	146.43
189.192	115.71
189.412	46.08
189.631	76.8
189.851	48.13
190.07	93.18
190.29	-44.03
190.509	121.85
190.729	64.51
190.948	78.85
191.168	160.77
191.387	154.62
191.607	-54.27
191.826	46.08
192.045	19.46
192.265	35.84
192.484	37.89
192.704	87.04
192.923	21.5
193.142	144.38
193.362	64.51
193.581	25.6
193.8	60.42
194.02	99.33
194.239	9.22
194.458	72.7
194.678	62.46
194.897	46.08
195.116	29.7
195.335	56.32
195.555	113.66
195.774	23.55
195.993	9.22
196.212	37.89
196.432	27.65
196.651	56.32
196.87	95.23
197.089	156.67
197.308	48.13
197.528	60.42
197.747	-70.65
197.966	35.84
198.185	66.56
198.404	29.7
198.623	41.98
198.842	46.08
199.062	80.89
199.281	119.81
199.5	-17.41
199.719	68.61
199.938	46.08
200.157	70.65
200.376	74.75
200.595	82.94
200.814	82.94
201.033	11.26
201.252	107.52
201.471	80.89
201.69	115.71
201.909	80.89
202.128	84.99
202.347	78.85
202.566	9.22
202.785	-25.6
203.004	21.5
203.223	41.98
203.442	46.08
203.661	1.02
203.879	64.51
204.098	128
204.317	-5.12
204.536	84.99
204.755	33.79
204.974	144.38
205.193	11.26
205.411	109.57
205.63	105.47
205.849	89.09
206.068	15.36
206.287	-5.12
206.505	138.24
206.724	9.22
206.943	117.76
207.162	-7.17
207.381	80.89
207.599	37.89
207.818	-25.6
208.037	35.84
208.255	84.99
208.474	68.61
208.693	39.94
208.911	-3.07
209.13	39.94
209.349	37.89
209.567	72.7
209.786	97.28
210.005	93.18
210.223	46.08
210.442	-82.94
210.661	-37.89
210.879	-9.22
211.098	13.31
211.316	84.99
211.535	7.17
211.753	19.46
211.972	52.22
212.191	66.56
212.409	3.07
212.628	111.61
212.846	23.55
213.065	103.42
213.283	35.84
213.502	31.74
213.72	62.46
213.938	5.12
214.157	-19.46
214.375	125.95
214.594	50.18
214.812	113.66
215.031	3.07
215.249	48.13
215.467	50.18
215.686	7.17
215.904	93.18
216.122	39.94
216.341	52.22
216.559	15.36
216.778	39.94
216.996	68.61
217.214	19.46
217.432	17.41
217.651	13.31
217.869	113.66
218.087	54.27
218.306	-19.46
218.524	33.79
218.742	117.76
218.96	50.18
219.179	66.56
219.397	111.61
219.615	201.72
219.833	23.55
220.051	7.17
220.27	80.89
220.488	15.36
220.706	84.99
220.924	31.74
221.142	46.08
221.36	56.32
221.578	68.61
221.796	41.98
222.015	54.27
222.233	50.18
222.451	52.22
222.669	84.99
222.887	54.27
223.105	29.7
223.323	56.32
223.541	87.04
223.759	-33.79
223.977	70.65
224.195	144.38
224.413	64.51
224.631	64.51
224.849	11.26
225.067	115.71
225.285	56.32
225.503	27.65
225.721	-31.74
225.939	95.23
226.157	119.81
226.375	199.68
226.592	46.08
226.81	-5.12
227.028	31.74
227.246	76.8
227.464	74.75
227.682	148.48
227.9	68.61
228.117	35.84
228.335	29.7
228.553	35.84
228.771	31.74
228.989	119.81
229.206	29.7
229.424	-37.89
229.642	68.61
229.86	27.65
230.077	146.43
230.295	60.42
230.513	113.66
230.731	66.56
230.948	199.68
231.166	78.85
231.384	35.84
231.601	-48.13
231.819	62.46
232.037	3.07
232.254	-21.5
232.472	7.17
232.689	-13.31
232.907	62.46
233.125	72.7
233.342	97.28
233.56	29.7
233.777	5.12
233.995	37.89
234.213	72.7
234.43	48.13
234.648	33.79
234.865	-25.6
235.083	52.22
235.3	66.56
235.518	101.37
235.735	99.33
235.953	82.94
236.17	7.17
236.388	97.28
236.605	80.89
236.822	179.2
237.04	72.7
237.257	39.94
237.475	-9.22
237.692	31.74
237.909	70.65
238.127	-35.84
238.344	148.48
238.562	68.61
238.779	44.03
238.996	13.31
239.214	19.46
239.431	72.7
239.648	7.17
239.865	9.22
240.083	25.6
240.3	-7.17
240.517	39.94
240.735	48.13
240.952	27.65
241.169	66.56
241.386	-15.36
241.603	-27.65
241.821	-15.36
242.038	66.56
242.255	130.05
242.472	27.65
242.689	50.18
242.907	91.13
243.124	31.74
243.341	103.42
243.558	39.94
243.775	46.08
243.992	21.5
244.209	52.22
244.426	152.57
244.643	3.07
244.86	93.18
245.078	11.26
245.295	62.46
245.512	35.84
245.729	21.5
245.946	103.42
246.163	95.23
246.38	-1.02
246.597	-17.41
246.814	-5.12
247.031	113.66
247.248	80.89
247.464	52.22
247.681	76.8
247.898	66.56
248.115	142.33
248.332	-9.22
248.549	89.09
248.766	76.8
248.983	27.65
249.2	23.55
249.417	44.03
249.633	17.41
249.85	134.14
250.067	74.75
250.284	62.46
250.501	80.89
250.717	48.13
250.934	19.46
251.151	54.27
251.368	52.22
251.585	60.42
251.801	103.42
252.018	-33.79
252.235	62.46
252.451	37.89
252.668	41.98
252.885	101.37
253.102	105.47
253.318	21.5
253.535	7.17
253.752	27.65
253.968	52.22
254.185	-29.7
254.401	-37.89
254.618	84.99
254.835	29.7
255.051	175.1
255.268	-27.65
255.484	70.65
255.701	-29.7
255.917	76.8
256.134	-13.31
256.351	80.89
256.567	19.46
256.784	105.47
257	-48.13
257.217	125.95
257.433	117.76
257.65	27.65
257.866	125.95
258.082	-23.55
258.299	132.09
258.515	101.37
258.732	35.84
258.948	-15.36
259.165	68.61
259.381	74.75
259.597	84.99
259.814	54.27
260.03	60.42
260.246	64.51
260.463	50.18
260.679	60.42
260.895	13.31
261.112	52.22
261.328	-29.7
261.544	35.84
261.761	125.95
261.977	25.6
262.193	3.07
262.409	52.22
262.626	58.37
262.842	99.33
263.058	60.42
263.274	52.22
263.49	41.98
263.707	115.71
263.923	62.46
264.139	44.03
264.355	15.36
264.571	152.57
264.787	58.37
265.004	115.71
265.22	39.94
265.436	3.07
265.652	13.31
265.868	119.81
266.084	-5.12
266.3	87.04
266.516	-3.07
266.732	68.61
266.948	39.94
267.164	68.61
267.38	117.76
267.596	97.28
267.812	160.77
268.028	60.42
268.244	56.32
268.46	87.04
268.676	-21.5
268.892	105.47
269.108	89.09
269.324	-9.22
269.54	-19.46
269.756	91.13
269.972	-3.07
270.188	74.75
270.403	44.03
270.619	7.17
270.835	52.22
271.051	58.37
271.267	62.46
271.483	93.18
271.698	37.89
271.914	13.31
272.13	54.27
272.346	13.31
272.562	37.89
272.777	25.6
272.993	39.94
273.209	52.22
273.425	107.52
273.64	1.02
273.856	89.09
274.072	23.55
274.287	-11.26
274.503	66.56
274.719	66.56
274.934	58.37
275.15	-19.46
275.366	95.23
275.581	23.55
275.797	29.7
276.012	-13.31
276.228	29.7
276.444	68.61
276.659	125.95
276.875	82.94
277.09	29.7
277.306	27.65
277.521	87.04
277.737	62.46
277.952	46.08
278.168	74.75
278.383	84.99
278.599	-13.31
278.814	93.18
279.03	39.94
279.245	93.18
279.461	62.46
279.676	48.13
279.892	3.07
280.107	41.98
280.322	-41.98
280.538	-5.12
280.753	15.36
280.969	109.57
281.184	89.09
281.399	64.51
281.615	60.42
281.83	66.56
282.045	1.02
282.26	-5.12
282.476	17.41
282.691	101.37
282.906	35.84
283.122	31.74
283.337	13.31
283.552	93.18
283.767	27.65
283.983	84.99
284.198	25.6
284.413	9.22
284.628	-35.84
284.843	95.23
285.058	70.65
285.274	68.61
285.489	84.99
285.704	78.85
285.919	23.55
286.134	52.22
286.349	41.98
286.564	-13.31
286.779	119.81
286.995	56.32
287.21	7.17
287.425	52.22
287.64	46.08
287.855	105.47
288.07	17.41
288.285	70.65
288.5	107.52
288.715	11.26
288.93	50.18
289.145	70.65
289.36	121.85
289.575	-11.26
289.79	58.37
290.004	25.6
290.219	80.89
290.434	48.13
290.649	21.5
290.864	91.13
291.079	56.32
291.294	89.09
291.509	5.12
291.724	-54.27
291.938	46.08
292.153	72.7
292.368	11.26
292.583	56.32
292.798	105.47
293.012	54.27
293.227	52.22
293.442	-39.94
293.657	23.55
293.871	52.22
294.086	-29.7
294.301	84.99
294.516	146.43
294.73	80.89
294.945	11.26
295.16	70.65
295.374	72.7
295.589	78.85
295.804	9.22
296.018	19.46
296.233	113.66
296.447	54.27
296.662	21.5
296.877	121.85
297.091	41.98
297.306	115.71
297.52	93.18
297.735	60.42
297.949	80.89
298.164	101.37
298.378	80.89
298.593	70.65
298.807	-21.5
299.022	72.7
299.236	168.96
299.451	-25.6
299.665	15.36
299.88	97.28
300.094	84.99
300.309	41.98
300.523	78.85
300.737	13.31
300.952	27.65
301.166	41.98
301.381	5.12
301.595	13.31
301.809	60.42
302.024	-37.89
302.238	37.89
302.452	140.29
302.667	119.81
302.881	62.46
303.095	119.81
303.309	109.57
303.524	21.5
303.738	27.65
303.952	11.26
304.166	70.65
304.381	-23.55
304.595	97.28
304.809	-21.5
305.023	35.84
305.237	66.56
305.452	54.27
305.666	76.8
305.88	-3.07
306.094	-35.84
306.308	56.32
306.522	44.03
306.736	46.08
306.95	25.6
307.164	11.26
307.379	134.14
307.593	117.76
307.807	103.42
308.021	68.61
308.235	39.94
308.449	1.02
308.663	52.22
308.877	158.72
309.091	-9.22
309.305	87.04
309.519	19.46
309.733	54.27
309.947	7.17
310.161	70.65
310.374	97.28
310.588	52.22
310.802	-44.03
311.016	39.94
311.23	117.76
311.444	-29.7
311.658	78.85
311.872	37.89
312.085	54.27
312.299	52.22
312.513	175.1
312.727	78.85
312.941	-3.07
313.154	72.7
313.368	46.08
313.582	29.7
313.796	125.95
314.009	25.6
314.223	1.02
314.437	11.26
314.651	101.37
314.864	50.18
315.078	31.74
315.292	-27.65
315.505	76.8
315.719	-3.07
315.933	111.61
316.146	21.5
316.36	50.18
316.573	76.8
316.787	21.5
317.001	64.51
317.214	-23.55
317.428	-3.07
317.641	-44.03
317.855	46.08
318.068	29.7
318.282	21.5
318.495	175.1
318.709	128
318.922	50.18
319.136	128
319.349	134.14
319.563	33.79
319.776	48.13
319.99	-50.18
320.203	56.32
320.417	62.46
320.63	25.6
320.843	111.61
321.057	99.33
321.27	29.7
321.483	35.84
321.697	201.72
321.91	52.22
322.124	62.46
322.337	68.61
322.55	52.22
322.763	52.22
322.977	11.26
323.19	-41.98
323.403	109.57
323.617	62.46
323.83	68.61
324.043	11.26
324.256	44.03
324.469	3.07
324.683	132.09
324.896	21.5
325.109	70.65
325.322	-58.37
325.535	87.04
325.748	123.9
325.962	5.12
326.175	29.7
326.388	29.7
326.601	27.65
326.814	39.94
327.027	1.02
327.24	128
327.453	-3.07
327.666	103.42
327.879	91.13
328.092	60.42
328.305	52.22
328.518	-19.46
328.731	9.22
328.944	9.22
329.157	54.27
329.37	-19.46
329.583	119.81
329.796	103.42
330.009	72.7
330.222	87.04
330.435	111.61
330.648	60.42
330.861	66.56
331.073	111.61
331.286	58.37
331.499	33.79
331.712	5.12
331.925	27.65
332.138	89.09
332.35	103.42
332.563	37.89
332.776	-5.12
332.989	-9.22
333.202	46.08
333.414	9.22
333.627	5.12
333.84	50.18
334.053	21.5
334.265	19.46
334.478	23.55
334.691	7.17
334.903	48.13
335.116	15.36
335.329	80.89
335.541	62.46
335.754	125.95
335.966	48.13
336.179	41.98
336.392	46.08
336.604	103.42
336.817	91.13
337.029	101.37
337.242	37.89
337.454	68.61
337.667	60.42
337.88	117.76
338.092	101.37
338.305	89.09
338.517	3.07
338.729	95.23
338.942	48.13
339.154	15.36
339.367	99.33
339.579	39.94
339.792	37.89
340.004	31.74
340.217	19.46
340.429	82.94
340.641	56.32
340.854	62.46
341.066	105.47
341.278	185.34
341.491	125.95
341.703	21.5
341.915	-17.41
342.128	121.85
342.34	39.94
342.552	9.22
342.764	54.27
342.977	37.89
343.189	82.94
343.401	50.18
343.613	-21.5
343.826	31.74
344.038	21.5
344.25	37.89
344.462	23.55
344.674	107.52
344.886	78.85
345.099	-11.26
345.311	64.51
345.523	107.52
345.735	-13.31
345.947	52.22
346.159	101.37
346.371	134.14
346.583	46.08
346.795	56.32
347.007	29.7
347.219	74.75
347.431	117.76
347.643	87.04
347.855	72.7
348.067	109.57
348.279	56.32
348.491	58.37
348.703	58.37
348.915	39.94
349.127	54.27
349.339	39.94
349.551	9.22
349.763	48.13
349.975	-1.02
350.187	123.9
350.399	87.04
350.61	152.57
350.822	-21.5
351.034	19.46
351.246	152.57
351.458	5.12
351.669	58.37
351.881	150.53
352.093	54.27
352.305	25.6
352.517	91.13
352.728	105.47
352.94	76.8
353.152	56.32
353.363	-37.89
353.575	160.77
353.787	203.77
353.999	68.61
354.21	117.76
354.422	-33.79
354.633	-1.02
354.845	93.18
355.057	-33.79
355.268	117.76
355.48	123.9
355.692	37.89
355.903	54.27
356.115	21.5
356.326	11.26
356.538	13.31
356.749	84.99
356.961	105.47
357.172	91.13
357.384	3.07
357.595	93.18
357.807	76.8
358.018	50.18
358.23	93.18
358.441	158.72
358.653	134.14
358.864	1.02
359.075	76.8
359.287	62.46
359.498	82.94
359.709	29.7
359.921	146.43
360.132	15.36
360.344	60.42
360.555	-58.37
360.766	48.13
360.977	29.7
361.189	35.84
361.4	7.17
361.611	119.81
361.823	64.51
362.034	78.85
362.245	25.6
362.456	56.32
362.667	115.71
362.879	7.17
363.09	111.61
363.301	52.22
363.512	84.99
363.723	76.8
363.935	56.32
364.146	52.22
364.357	87.04
364.568	74.75
364.779	37.89
364.99	25.6
365.201	5.12
365.412	39.94
365.623	1.02
365.834	91.13
366.045	54.27
366.256	132.09
366.467	50.18
366.678	80.89
366.889	64.51
367.1	-9.22
367.311	48.13
367.522	80.89
367.733	113.66
367.944	119.81
368.155	68.61
368.366	95.23
368.577	70.65
368.788	136.19
368.999	25.6
369.209	99.33
369.42	162.81
369.631	121.85
369.842	95.23
370.053	46.08
370.264	84.99
370.474	56.32
370.685	19.46
370.896	87.04
371.107	146.43
371.317	7.17
371.528	33.79
371.739	87.04
371.95	111.61
372.16	44.03
372.371	-25.6
372.582	33.79
372.792	93.18
373.003	78.85
373.214	25.6
373.424	171.01
373.635	-54.27
373.846	148.48
374.056	76.8
374.267	72.7
374.477	87.04
374.688	107.52
374.898	9.22
375.109	19.46
375.319	91.13
375.53	103.42
375.74	-15.36
375.951	37.89
376.161	72.7
376.372	93.18
376.582	25.6
376.793	107.52
377.003	95.23
377.214	35.84
377.424	37.89
377.635	80.89
377.845	52.22
378.055	117.76
378.266	-1.02
378.476	72.7
378.686	121.85
378.897	87.04
379.107	39.94
379.317	109.57
379.528	1.02
379.738	101.37
379.948	70.65
380.158	97.28
380.369	101.37
380.579	64.51
380.789	21.5
380.999	76.8
381.21	84.99
381.42	123.9
381.63	107.52
381.84	93.18
382.05	84.99
382.261	74.75
382.471	109.57
382.681	-15.36
382.891	82.94
383.101	52.22
383.311	13.31
383.521	56.32
383.731	117.76
383.941	134.14
384.151	117.76
384.361	44.03
384.571	78.85
384.781	44.03
384.991	128
385.201	203.77
385.411	111.61
385.621	60.42
385.831	97.28
386.041	23.55
386.251	142.33
386.461	154.62
386.671	70.65
386.881	64.51
387.091	31.74
387.301	82.94
387.511	35.84
387.72	175.1
387.93	60.42
388.14	19.46
388.35	35.84
388.56	97.28
388.769	109.57
388.979	80.89
389.189	60.42
389.399	97.28
389.609	93.18
389.818	117.76
390.028	128
390.238	52.22
390.447	52.22
390.657	132.09
390.867	78.85
391.076	48.13
391.286	89.09
391.496	101.37
391.705	123.9
391.915	103.42
392.125	76.8
392.334	177.15
392.544	150.53
392.753	56.32
392.963	144.38
393.172	-1.02
393.382	-13.31
393.591	64.51
393.801	44.03
394.01	187.39
394.22	115.71
394.429	70.65
394.639	97.28
394.848	109.57
395.058	146.43
395.267	54.27
395.477	95.23
395.686	84.99
395.895	173.05
396.105	109.57
396.314	146.43
396.524	84.99
396.733	97.28
396.942	72.7
397.152	76.8
397.361	87.04
397.57	23.55
397.78	150.53
397.989	27.65
398.198	209.92
398.407	160.77
398.617	136.19
398.826	58.37
399.035	82.94
399.244	193.53
399.453	80.89
399.663	123.9
399.872	121.85
400.081	148.48
400.29	109.57
400.499	117.76
400.708	99.33
400.917	95.23
401.127	113.66
401.336	95.23
401.545	259.07
401.754	154.62
401.963	97.28
402.172	218.11
402.381	93.18
402.59	117.76
402.799	134.14
403.008	146.43
403.217	179.2
403.426	236.54
403.635	101.37
403.844	152.57
404.053	117.76
404.262	162.81
404.471	177.15
404.68	203.77
404.888	216.06
405.097	164.86
405.306	205.82
405.515	191.49
405.724	228.35
405.933	173.05
406.142	257.02
406.35	230.4
406.559	197.63
406.768	166.91
406.977	236.54
407.185	177.15
407.394	154.62
407.603	193.53
407.812	181.25
408.02	257.02
408.229	322.56
408.438	248.83
408.646	150.53
408.855	175.1
409.064	322.56
409.272	261.12
409.481	248.83
409.69	281.6
409.898	234.49
410.107	293.88
410.315	424.95
410.524	379.9
410.733	340.99
410.941	424.95
411.15	343.03
411.358	404.47
411.567	414.71
411.775	357.37
411.984	467.96
412.192	445.43
412.401	427
412.609	441.34
412.818	578.55
413.026	547.83
413.234	515.06
413.443	504.82
413.651	453.63
413.86	500.73
414.068	621.56
414.276	764.92
414.485	568.31
414.693	564.22
414.901	734.2
415.11	713.72
415.318	701.43
415.526	689.14
415.734	828.4
415.943	652.28
416.151	842.74
416.359	863.22
416.567	877.55
416.776	918.51
416.984	994.29
417.192	1035.25
417.4	945.14
417.608	895.99
417.817	1051.63
418.025	1076.21
418.233	1149.93
418.441	1172.46
418.649	1207.28
418.857	1285.1
419.065	1330.16
419.273	1145.84
419.481	1348.59
419.689	1446.89
419.897	1430.51
420.105	1444.84
420.313	1573.86
420.521	1598.44
420.729	1692.65
420.937	1754.09
421.145	1733.61
421.353	1889.25
421.561	1944.55
421.769	1934.31
421.977	2022.37
422.185	2051.04
422.393	2239.45
422.601	2329.56
422.809	2208.73
423.017	2216.93
423.224	2345.95
423.432	2468.83
423.64	2376.67
423.848	2661.34
424.056	2616.28
424.263	2808.79
424.471	2644.95
424.679	2853.84
424.887	3034.07
425.094	3111.89
425.302	3038.16
425.51	3331.02
425.718	3419.08
425.925	3476.43
426.133	3478.47
426.341	3636.17
426.548	3828.68
426.756	3908.55
426.964	3906.5
427.171	4101.06
427.379	4254.66
427.586	4312
427.794	4479.93
428.001	4715.45
428.209	4867
428.417	4826.04
428.624	5194.67
428.832	5209.01
429.039	5045.17
429.247	5178.29
429.454	5606.31
429.662	6050.72
429.869	5491.63
430.076	5856.17
430.284	5970.85
430.491	6269.86
430.699	6491.04
430.906	6298.53
431.114	6484.89
431.321	6671.26
431.528	6912.92
431.736	7414.67
431.943	7797.64
432.15	7449.49
432.358	7639.95
432.565	7965.57
432.772	8031.11
432.979	8430.46
433.187	8674.17
433.394	8379.26
433.601	9071.48
433.808	9096.05
434.016	9124.72
434.223	9620.33
434.43	9974.63
434.637	10023.78
434.844	10380.13
435.052	10705.76
435.259	10386.27
435.466	10621.79
435.673	10597.21
435.88	11285.33
436.087	11826
436.294	11858.76
436.501	11742.03
436.708	11895.63
436.915	12258.12
437.122	12886.84
437.329	12696.38
437.537	13380.4
437.743	13517.62
437.95	13169.46
438.157	14123.82
438.364	14408.48
438.571	14424.87
438.778	14381.86
438.985	15733.52
439.192	15008.54
439.399	15772.43
439.606	15334.17
439.813	16255.75
440.02	17226.49
440.227	17052.41
440.433	16710.4
440.64	17079.04
440.847	17314.55
441.054	17537.78
441.261	18893.54
441.467	18594.53
441.674	19067.61
441.881	19669.72
442.088	19677.91
442.294	19444.44
442.501	20194
442.708	20624.07
442.914	21054.14
443.121	21971.63
443.328	21752.5
443.534	22733.48
443.741	22661.8
443.948	21734.07
444.154	23753.37
444.361	23468.7
444.568	23726.74
444.774	23954.07
444.981	24181.39
445.187	24902.28
445.394	25924.21
445.6	25111.17
445.807	28035.67
446.013	26538.6
446.22	27089.51
446.426	28146.26
446.633	28547.66
446.839	29688.38
447.046	28344.91
447.252	29526.59
447.459	29907.51
447.665	29514.3
447.871	31265.31
448.078	32621.07
448.284	30876.2
448.491	31969.82
448.697	33217.03
448.903	33630.72
449.11	33600
449.316	33198.6
449.522	33905.15
449.728	34394.61
449.935	34806.25
450.141	34638.32
450.347	35805.66
450.553	34314.74
450.76	35023.34
450.966	36360.66
451.172	35875.29
451.378	37102.03
451.584	36235.74
451.791	37118.41
451.997	36827.6
452.203	37423.56
452.409	37777.86
452.615	37382.6
452.821	35781.09
453.027	35617.25
453.233	37501.38
453.44	35889.63
453.646	36364.76
453.852	36753.87
454.058	37611.97
454.264	36157.91
454.47	36837.84
454.676	36030.94
454.882	37454.28
455.088	34111.99
455.294	34517.49
455.5	34908.65
455.705	35475.94
455.911	33759.74
456.117	33645.05
456.323	32942.6
456.529	31369.76
456.735	32860.68
456.941	32115.22
457.147	31466.02
457.352	30405.17
457.558	29979.19
457.764	29989.43
457.97	29678.14
458.176	28926.53
458.381	28889.67
458.587	27755.1
458.793	27529.82
458.999	25893.49
459.204	27867.73
459.41	27105.89
459.616	25373.31
459.821	25731.7
460.027	25029.25
460.233	24961.67
460.438	23538.33
460.644	23767.7
460.85	22663.85
461.055	22278.83
461.261	22276.78
461.466	20548.29
461.672	19972.82
461.878	21312.19
462.083	20196.04
462.289	19575.51
462.494	19565.27
462.7	18643.68
462.905	18234.09
463.111	18737.89
463.316	18846.43
463.522	18490.09
463.727	18479.85
463.932	18516.71
464.138	18057.96
464.343	18057.96
464.549	17836.78
464.754	18223.85
464.959	18346.73
465.165	17898.22
465.37	17187.58
465.575	16755.46
465.781	17492.73
465.986	17406.71
466.191	16861.95
466.397	16632.58
466.602	15733.52
466.807	16329.48
467.012	16268.04
467.218	16188.17
467.423	16222.98
467.628	16452.36
467.833	16823.04
468.038	16061.19
468.244	15772.43
468.449	16425.73
468.654	15725.33
468.859	15837.97
469.064	15602.45
469.269	15203.1
469.474	15330.07
469.679	15571.73
469.885	15235.86
470.09	15285.01
470.295	15334.17
470.5	14877.47
470.705	14910.24
470.91	14365.48
471.115	14371.62
471.32	14381.86
471.525	14635.81
471.73	14281.51
471.935	14052.14
472.139	13701.93
472.344	13923.12
472.549	13691.7
472.754	13595.44
472.959	13466.42
473.164	12948.28
473.369	12737.34
473.574	13390.64
473.778	12960.57
473.983	13134.65
474.188	13040.44
474.393	12329.8
474.598	12401.47
474.802	12272.45
475.007	12262.21
475.212	12514.11
475.417	11766.6
475.621	12149.57
475.826	11797.32
476.031	11379.54
476.235	11393.87
476.44	11647.82
476.645	11629.39
476.849	11316.05
477.054	11236.18
477.259	11098.97
477.463	11258.71
477.668	10935.13
477.872	10879.83
478.077	10845.02
478.282	10384.23
478.486	10400.61
478.691	10369.89
478.895	10468.19
479.1	10271.59
479.304	10234.72
479.509	9827.18
479.713	10279.78
479.918	9913.19
480.122	9595.76
480.326	9831.27
480.531	9997.16
480.735	9773.93
480.94	9614.19
481.144	10034.02
481.348	9421.68
481.553	9622.38
481.757	9546.61
481.961	9659.24
482.166	9591.66
482.37	9673.58
482.574	9569.13
482.778	9423.73
482.983	9808.75
483.187	9456.5
483.391	9655.15
483.595	9456.5
483.8	9499.5
484.004	9655.15
484.208	9462.64
484.412	9476.98
484.616	9657.2
484.821	9378.67
485.025	9284.47
485.229	9522.03
485.433	9302.9
485.637	9550.7
485.841	9311.09
486.045	9415.54
486.249	9606
486.453	9425.78
486.657	9585.52
486.861	9499.5
487.065	9241.46
487.269	9231.22
487.473	9257.84
487.677	9511.79
487.881	9610.09
488.085	9452.4
488.289	9335.67
488.493	9366.39
488.697	9593.71
488.901	9438.06
489.105	9517.93
489.309	9542.51
489.512	9470.83
489.716	9683.82
489.92	9655.15
490.124	9517.93
490.328	9677.68
490.531	9493.36
490.735	9763.69
490.939	9886.57
491.143	9462.64
491.346	9775.98
491.55	9923.43
491.754	9696.11
491.958	10081.13
492.161	9841.51
492.365	10085.22
492.569	9937.77
492.772	9970.54
492.976	10191.72
493.18	10115.94
493.383	10074.98
493.587	9991.02
493.79	10480.48
493.994	10337.12
494.197	10328.93
494.401	10503.01
494.605	10396.51
494.808	10695.52
495.012	10756.96
495.215	10666.85
495.419	10677.09
495.622	10765.15
495.825	10892.12
496.029	11039.58
496.232	11230.04
496.436	11154.26
496.639	11551.57
496.843	11221.84
497.046	11627.34
497.249	11539.28
497.453	11635.53
497.656	11850.57
497.859	11823.95
498.063	11891.53
498.266	12231.49
498.469	11987.79
498.673	12424
498.876	12344.13
499.079	12454.72
499.282	12649.28
499.485	12626.75
499.689	12962.62
499.892	13144.89
500.095	13171.51
500.298	13572.91
500.501	13431.6
500.705	13708.08
500.908	13806.38
501.111	13980.46
501.314	14160.68
501.517	14394.15
501.72	14404.39
501.923	14553.89
502.126	14654.24
502.329	14920.48
502.532	15268.63
502.735	15215.38
502.938	15487.76
503.141	15465.24
503.344	15813.39
503.547	15921.93
503.75	15788.82
503.953	16134.92
504.156	16413.45
504.359	16435.97
504.562	16519.94
504.765	16919.29
504.968	17163
505.17	17541.88
505.373	17261.3
505.576	17724.15
505.779	17709.81
505.982	17898.22
506.185	18107.12
506.387	18189.03
506.59	18328.3
506.793	19014.37
506.996	18832.1
507.198	19184.35
507.401	19006.17
507.604	19413.72
507.807	19598.04
508.009	19780.31
508.212	19901.14
508.415	20081.36
508.617	20558.53
508.82	20581.06
509.022	20605.64
509.225	20978.37
509.428	21269.18
509.63	21215.93
509.833	21367.48
510.035	21729.97
510.238	21779.12
510.44	22280.88
510.643	22422.19
510.845	22837.92
511.048	22743.72
511.25	22856.36
511.453	22971.04
511.655	23591.58
511.858	23681.69
512.06	23835.28
512.262	24107.66
512.465	24124.05
512.667	24545.93
512.87	24961.67
513.072	24963.72
513.274	25518.71
513.477	25621.11
513.679	25293.44
513.881	25776.76
514.084	25930.36
514.286	26133.11
514.488	26370.67
514.69	27185.76
514.893	26657.39
515.095	26958.44
515.297	27478.62
515.499	27413.09
515.701	28080.72
515.904	28111.44
516.106	28539.47
516.308	29151.81
516.51	28934.73
516.712	29219.39
516.914	29405.76
517.116	29690.43
517.318	30022.2
517.52	30048.82
517.722	29956.66
517.925	30552.62
518.127	31369.76
518.329	31207.97
518.531	31076.9
518.733	31777.31
518.935	31660.57
519.136	31865.37
519.338	32412.18
519.54	32588.3
519.742	33100.29
519.944	33008.14
520.146	33524.22
520.348	33616.38
520.55	33944.06
520.752	34071.03
520.954	34679.28
521.155	34382.32
521.357	34451.95
521.559	35209.7
521.761	35611.1
521.963	35480.03
522.164	35482.08
522.366	35973.6
522.568	36153.82
522.77	36338.13
522.971	36813.26
523.173	36604.37
523.375	37069.26
523.576	36932.04
523.778	37192.14
523.98	37441.99
524.181	37915.07
524.383	37986.75
524.584	38402.49
524.786	38568.37
524.988	38267.32
525.189	39078.32
525.391	38900.14
525.592	39076.27
525.794	39401.89
525.995	39555.49
526.197	39604.64
526.398	39721.38
526.6	40163.74
526.801	39936.41
527.003	40255.9
527.204	40182.17
527.406	40663.44
527.607	40278.43
527.808	41130.38
528.01	40683.92
528.211	40571.28
528.412	41456.01
528.614	41404.81
528.815	41433.48
529.016	41976.19
529.218	41386.38
529.419	41570.69
529.62	42101.12
529.822	41728.39
530.023	41556.36
530.224	41961.86
530.425	41869.7
530.626	41716.1
530.828	42008.96
531.029	42670.45
531.23	42324.35
531.431	42410.36
531.632	42428.79
531.833	42897.78
532.035	42887.54
532.236	42518.9
532.437	42895.73
532.638	42471.8
532.839	42668.4
533.04	43174.25
533.241	42338.68
533.442	43182.45
533.643	42838.39
533.844	42862.96
534.045	43055.47
534.246	42512.76
534.447	43094.38
534.648	43194.73
534.849	42844.53
535.05	42924.4
535.251	43055.47
535.451	42963.31
535.652	43088.24
535.853	42973.55
536.054	43080.05
536.255	43628.9
536.456	42750.32
536.657	43565.42
536.857	42770.8
537.058	43084.14
537.259	43043.18
537.46	43411.82
537.66	42862.96
537.861	43352.43
538.062	42903.92
538.263	42807.67
538.463	43135.34
538.664	43202.92
538.865	43399.53
539.065	43594.09
539.266	42936.69
539.466	43452.78
539.667	42707.32
539.868	43379.05
540.068	43082.09
540.269	43028.85
540.469	43389.29
540.67	42809.71
540.87	42690.93
541.071	43241.84
541.271	43284.84
541.472	43014.51
541.672	42766.71
541.873	43006.32
542.073	42713.46
542.274	43331.95
542.474	42824.05
542.675	42940.78
542.875	43313.52
543.075	43037.04
543.276	42447.22
543.476	43194.73
543.676	42637.69
543.877	43116.91
544.077	42875.25
544.277	42994.03
544.478	43004.27
544.678	43037.04
544.878	42307.96
545.078	42916.21
545.279	42803.57
545.479	42527.1
545.679	43168.11
545.879	42598.77
546.079	42828.15
546.28	42981.74
546.48	42342.78
546.68	42715.51
546.88	42750.32
547.08	42977.65
547.28	42703.22
547.48	42318.2
547.68	42848.63
547.88	42260.86
548.081	43053.42
548.281	43194.73
548.481	42469.75
548.681	42973.55
548.881	42645.88
549.081	42219.9
549.28	42678.64
549.48	42828.15
549.68	42543.48
549.88	43198.83
550.08	42135.93
550.28	42774.9
550.48	42641.78
550.68	42596.73
550.88	42213.76
551.08	42295.67
551.279	42549.62
551.479	42324.35
551.679	42219.9
551.879	42148.22
552.079	42471.8
552.278	42334.59
552.478	42572.15
552.678	42346.87
552.878	42557.81
553.077	42496.38
553.277	41890.18
553.477	42588.53
553.676	42316.15
553.876	42178.94
554.076	42283.39
554.275	41765.25
554.475	41763.2
554.674	42056.06
554.874	41988.48
555.074	41720.2
555.273	42031.49
555.473	42338.68
555.672	41888.13
555.872	41650.56
556.071	41800.07
556.271	42070.4
556.47	41804.16
556.67	41369.99
556.869	41814.4
557.068	41855.36
557.268	41496.97
557.467	41664.9
557.667	41204.11
557.866	41159.05
558.065	41163.15
558.265	41132.43
558.464	40999.31
558.663	41511.3
558.863	41132.43
559.062	41316.75
559.261	40591.76
559.461	40958.35
559.66	40747.41
559.859	40657.3
560.058	40671.64
560.258	40941.97
560.457	40415.64
560.656	40759.7
560.855	40649.11
561.054	40653.2
561.253	40098.2
561.453	40487.32
561.652	40728.98
561.851	40405.4
562.05	40130.97
562.249	39821.73
562.448	40108.44
562.647	40262.04
562.846	39922.08
563.045	39967.13
563.244	39516.58
563.443	39991.71
563.642	39137.71
563.841	39623.08
564.04	39596.45
564.239	39516.58
564.438	39291.3
564.637	39377.32
564.836	39205.29
565.035	38707.63
565.234	38898.09
565.432	38912.43
565.631	39131.56
565.83	39066.03
566.029	38934.96
566.228	38353.33
566.427	38748.59
566.625	38384.05
566.824	37964.22
567.023	38230.46
567.222	37632.45
567.42	38560.18
567.619	38072.76
567.818	38035.9
568.016	37759.42
568.215	38246.84
568.414	37710.27
568.612	38029.76
568.811	37556.67
569.01	37616.07
569.208	37194.18
569.407	37601.73
569.605	37243.34
569.804	37343.69
570.002	37403.08
570.201	37075.4
570.4	36864.46
570.598	36475.35
570.797	36786.64
570.995	36841.93
571.193	36338.13
571.392	36663.76
571.59	35865.05
571.789	35930.59
571.987	36397.52
572.186	36176.34
572.384	36012.51
572.582	35820
572.781	36159.96
572.979	35529.19
573.177	35852.76
573.376	35934.68
573.574	35414.5
573.772	35529.19
573.971	35365.35
574.169	34998.76
574.367	35152.36
574.565	35090.92
574.763	34562.54
574.962	34871.79
575.16	34560.5
575.358	34730.48
575.556	34400.76
575.754	34703.85
575.952	34181.62
576.151	34666.99
576.349	34159.09
576.547	34064.89
576.745	34241.01
576.943	34144.76
577.141	33890.81
577.339	34128.38
577.537	34163.19
577.735	34011.64
577.933	33602.05
578.131	33503.74
578.329	33649.15
578.527	33251.84
578.725	33559.04
578.923	33327.62
579.121	32827.92
579.319	32987.66
579.516	33069.58
579.714	33202.69
579.912	32719.37
580.11	32821.77
580.308	32705.04
580.506	32248.34
580.704	32035.35
580.901	32567.82
581.099	33004.04
581.297	32424.47
581.495	32104.98
581.692	32449.04
581.89	32002.58
582.088	32174.61
582.285	32168.47
582.483	31975.96
582.681	31689.24
582.878	31894.04
583.076	31271.46
583.274	31738.4
583.471	31418.91
583.669	31408.67
583.866	31304.23
584.064	31607.33
584.262	30870.06
584.459	31212.07
584.657	30880.3
584.854	31349.28
585.052	30753.32
585.249	30958.12
585.447	31050.28
585.644	30521.9
585.841	30511.66
586.039	30636.59
586.236	30136.88
586.434	30374.45
586.631	30276.15
586.828	30130.74
587.026	30186.04
587.223	29952.57
587.42	29635.13
587.618	29782.59
587.815	29545.02
588.012	29696.57
588.21	29444.67
588.407	29616.7
588.604	29315.65
588.801	29065.8
588.999	29422.14
589.196	29104.71
589.393	29004.36
589.59	29071.94
589.787	28883.53
589.984	28670.54
590.182	28574.28
590.379	28559.95
590.576	28373.58
590.773	28463.69
590.97	28545.61
591.167	28269.14
591.364	28004.95
591.561	28351.06
591.758	27787.86
591.955	27763.29
592.152	28140.11
592.349	27871.83
592.546	28013.14
592.743	28037.72
592.94	27230.82
593.137	27796.06
593.334	27748.95
593.531	27548.25
593.727	27255.39
593.924	26892.9
594.121	26983.01
594.318	27247.2
594.515	26749.54
594.712	27210.34
594.908	26702.44
595.105	27196
595.302	26507.88
595.499	26548.84
595.696	26272.37
595.892	26409.58
596.089	26430.06
596.286	26116.72
596.482	26266.22
596.679	26331.76
596.876	26161.78
597.072	25961.08
597.269	26055.28
597.466	25922.16
597.662	25756.28
597.859	25778.81
598.055	25313.92
598.252	25145.98
598.448	25180.8
598.645	25420.41
598.841	25299.58
599.038	25342.59
599.234	25129.6
599.431	24935.04
599.627	24777.35
599.824	24941.19
600.02	24760.97
600.217	24996.48
600.413	24760.97
600.609	24588.94
600.806	24619.66
601.002	24711.81
601.198	24533.64
601.395	24328.84
601.591	24437.39
601.787	24406.67
601.984	23945.87
602.18	24332.94
602.376	24165.01
602.572	23886.48
602.769	23872.15
602.965	23569.05
603.161	23859.86
603.357	23487.13
603.553	23747.22
603.75	23599.77
603.946	23351.96
604.142	23659.16
604.338	23229.09
604.534	23495.32
604.73	23163.55
604.926	22819.49
605.122	23358.11
605.318	22829.73
605.514	22706.85
605.71	22942.37
605.906	22481.58
606.102	22620.84
606.298	22799.01
606.494	22631.08
606.69	22598.31
606.886	22686.37
607.082	21990.06
607.278	22405.8
607.474	22186.67
607.67	22350.51
607.866	22000.3
608.062	22276.78
608.257	22379.18
608.453	21752.5
608.649	21809.84
608.845	21822.13
609.041	22074.03
609.236	22074.03
609.432	21838.51
609.628	21652.15
609.824	21809.84
610.019	21418.68
610.215	21758.64
610.411	21818.04
610.606	21707.44
610.802	21549.75
610.998	21549.75
611.193	21437.11
611.389	20966.08
611.584	21131.97
611.78	21183.16
611.976	21134.01
612.171	21367.48
612.367	20847.3
612.562	20912.83
612.758	20964.03
612.953	20875.97
613.149	20951.74
613.344	20746.95
613.539	21408.44
613.735	20753.09
613.93	20886.21
614.126	21002.94
614.321	21211.84
614.517	20699.84
614.712	20445.9
614.907	20863.68
615.103	21041.85
615.298	20445.9
615.493	20419.27
615.688	20114.13
615.884	20812.48
616.079	19905.23
616.274	20515.53
616.47	20118.22
616.665	20183.76
616.86	20232.91
617.055	19929.81
617.25	20032.21
617.445	20056.78
617.641	19706.58
617.836	19954.38
618.031	19866.32
618.226	19786.45
618.421	19753.68
618.616	20042.45
618.811	19702.48
619.006	19921.62
619.201	19315.42
619.396	19702.48
619.591	19028.7
619.786	19272.41
619.981	19186.4
620.176	19385.05
620.371	18821.86
620.566	19225.31
620.761	18875.1
620.956	19116.76
621.151	18516.71
621.346	18623.2
621.541	18475.75
621.735	18434.79
621.93	18453.22
622.125	18475.75
622.32	18117.36
622.515	18191.08
622.709	18090.73
622.904	17890.03
623.099	17857.26
623.294	17959.66
623.488	17705.71
623.683	17517.3
623.878	17435.38
624.072	17431.29
624.267	17558.26
624.462	17400.57
624.656	17138.43
624.851	17052.41
625.046	17199.87
625.24	16792.32
625.435	16798.46
625.629	16839.42
625.824	16513.8
626.018	16517.89
626.213	16497.41
626.407	16497.41
626.602	16300.81
626.796	16210.7
626.991	16132.87
627.185	16102.15
627.38	16106.25
627.574	15741.71
627.768	15643.41
627.963	15661.84
628.157	15594.26
628.352	15704.85
628.546	14988.06
628.74	15541.01
628.935	15237.91
629.129	15223.58
629.323	15035.16
629.517	14977.82
629.712	14873.37
629.906	15041.31
630.1	14705.44
630.294	14934.81
630.489	14687.01
630.683	14676.77
630.877	14451.49
631.071	14299.94
631.265	14424.87
631.459	14365.48
631.653	14134.06
631.848	14009.13
632.042	13982.51
632.236	14213.93
632.43	14002.99
632.624	14086.95
632.818	13847.34
633.012	13521.71
633.206	13818.67
633.4	13632.3
633.594	13480.75
633.788	13366.07
633.982	13388.6
634.176	13191.99
634.369	13261.62
634.563	13128.5
634.757	13200.18
634.951	13056.82
635.145	12872.51
635.339	12935.99
635.533	12858.17
635.726	12782.4
635.92	12725.05
636.114	12624.7
636.308	12518.21
636.501	12456.77
636.695	12444.48
636.889	12137.29
637.083	12297.03
637.276	12178.25
637.47	12057.42
637.664	12129.09
637.857	12163.91
638.051	11930.44
638.244	11866.95
638.438	11840.33
638.632	11809.61
638.825	11565.9
639.019	11860.81
639.212	11690.83
639.406	11766.6
639.599	11705.17
639.793	11498.32
639.986	11338.58
640.18	11436.88
640.373	11180.89
640.567	11227.99
640.76	11154.26
640.954	11141.97
641.147	11049.82
641.34	11031.38
641.534	10947.42
641.727	10867.55
641.92	10732.38
642.114	10517.34
642.307	10748.76
642.5	10728.28
642.694	10539.87
642.887	10412.9
643.08	10390.37
643.273	10443.62
643.467	10353.51
643.66	10341.22
643.853	10335.07
644.046	10124.13
644.239	10074.98
644.432	9976.68
644.626	10066.79
644.819	9984.87
645.012	10029.93
645.205	9890.67
645.398	9993.06
645.591	9915.24
645.784	9706.35
645.977	9579.37
646.17	9683.82
646.363	9464.69
646.556	9390.96
646.749	9583.47
646.942	9603.95
647.135	9268.08
647.328	9423.73
647.521	9325.43
647.714	9247.6
647.907	9292.66
648.099	9249.65
648.292	9270.13
648.485	9227.12
648.678	8901.5
648.871	8860.54
649.064	8952.7
649.256	9169.78
649.449	9104.25
649.642	8858.49
649.835	8762.23
650.027	8749.95
650.22	8883.06
650.413	8606.59
650.605	8598.4
650.798	8614.78
650.991	8571.77
651.183	8489.85
651.376	8317.83
651.568	8350.59
651.761	8186.76
651.954	8260.48
652.146	8256.39
652.339	8266.63
652.531	8268.67
652.724	8006.53
652.916	8037.25
653.109	7926.66
653.301	7893.9
653.494	7879.56
653.686	7861.13
653.879	7973.77
654.071	7916.42
654.263	7822.22
654.456	7697.29
654.648	7816.07
654.84	7502.73
655.033	7545.74
655.225	7504.78
655.417	7517.07
655.61	7547.79
655.802	7412.62
655.994	7252.88
656.186	7388.05
656.379	7383.95
656.571	7197.59
656.763	7140.24
656.955	7326.61
657.148	7156.63
657.34	7193.49
657.532	7220.11
657.724	7117.72
657.916	7191.44
658.108	7146.39
658.3	6951.83
658.492	6826.9
658.684	7039.89
658.876	6798.23
659.068	6831
659.26	6826.9
659.452	6833.05
659.644	6910.87
659.836	6632.35
660.028	6824.86
660.22	6671.26
660.412	6605.72
660.604	6570.91
660.796	6718.36
660.988	6706.07
661.18	6626.2
661.372	6493.08
661.563	6466.46
661.755	6366.11
661.947	6493.08
662.139	6527.9
662.331	6392.73
662.522	6300.58
662.714	6333.34
662.906	6235.04
663.097	6310.82
663.289	6206.37
663.481	6235.04
663.673	6056.87
663.864	6063.01
664.056	6146.98
664.247	5995.43
664.439	5872.55
664.631	6050.72
664.822	6071.2
665.014	6081.44
665.205	5872.55
665.397	5757.86
665.588	5878.69
665.78	5895.08
665.971	5950.37
666.163	5872.55
666.354	5927.85
666.546	5856.17
666.737	5708.71
666.929	5739.43
667.12	5743.53
667.311	5536.68
667.503	5688.23
667.694	5538.73
667.885	5565.36
668.077	5626.79
668.268	5546.92
668.459	5622.7
668.651	5587.88
668.842	5663.66
669.033	5540.78
669.224	5563.31
669.416	5589.93
669.607	5311.41
669.798	5399.47
669.989	5364.65
670.18	5505.96
670.371	5399.47
670.563	5297.07
670.754	5346.22
670.945	5428.14
671.136	5407.66
671.327	5366.7
671.518	5166
671.709	5356.46
671.9	5219.25
672.091	5131.19
672.282	5376.94
672.473	5364.65
672.664	5204.91
672.855	5223.34
673.046	5206.96
673.237	5295.02
673.428	5333.93
673.619	5268.4
673.809	5131.19
674	5202.86
674.191	5092.27
674.382	5047.22
674.573	4965.3
674.764	4993.97
674.954	5176.24
675.145	5010.36
675.336	4934.58
675.527	4989.88
675.717	5061.55
675.908	5090.23
676.099	4963.25
676.289	5110.71
676.48	4823.99
676.671	5106.61
676.861	4969.4
677.052	4912.05
677.243	4862.9
677.433	4938.68
677.624	5106.61
677.814	4991.92
678.005	5094.32
678.195	5069.75
678.386	4899.77
678.576	4989.88
678.767	4871.09
678.957	4926.39
679.148	5000.12
679.338	4977.59
679.529	4914.1
679.719	4875.19
679.909	4983.73
680.1	4776.89
680.29	4903.86
680.481	4830.13
680.671	4889.53
680.861	4926.39
681.052	4922.29
681.242	4846.52
681.432	4862.9
681.622	4780.98
681.813	4649.91
682.003	4826.04
682.193	4910.01
682.383	4967.35
682.573	4881.33
682.764	4705.21
682.954	4803.51
683.144	4842.42
683.334	4885.43
683.524	4758.46
683.714	4905.91
683.904	4715.45
684.094	4819.89
684.284	4959.16
684.474	4893.62
684.664	4676.54
684.854	4809.65
685.044	4586.43
685.234	4697.02
685.424	4647.87
685.614	4578.23
685.804	4697.02
685.994	4742.07
686.184	4690.87
686.374	4594.62
686.564	4510.65
686.753	4584.38
686.943	4453.31
687.133	4537.27
687.323	4473.79
687.513	4475.84
687.702	4420.54
687.892	4324.29
688.082	4623.29
688.272	4502.46
688.461	4479.93
688.651	4545.47
688.841	4316.09
689.03	4408.25
689.22	4344.77
689.41	4408.25
689.599	4303.81
689.789	4135.87
689.979	4328.38
690.168	4236.22
690.358	4180.93
690.547	4056
690.737	4182.98
690.926	4221.89
691.116	4135.87
691.305	4039.62
691.495	4058.05
691.684	3992.52
691.874	4025.28
692.063	4029.38
692.252	4025.28
692.442	3976.13
692.631	3965.89
692.82	3978.18
693.01	3947.46
693.199	3892.16
693.388	3871.68
693.578	3863.49
693.767	3857.35
693.956	3902.4
694.146	3912.64
694.335	3726.28
694.524	3836.87
694.713	3843.01
694.902	3711.94
695.092	3697.61
695.281	3752.9
695.47	3802.05
695.659	3662.79
695.848	3566.54
696.037	3621.83
696.226	3662.79
696.415	3783.62
696.604	3642.31
696.793	3683.27
696.982	3584.97
697.171	3679.18
697.36	3535.82
697.549	3748.81
697.738	3556.3
697.927	3617.74
698.116	3656.65
698.305	3554.25
698.494	3587.02
698.683	3486.67
698.872	3554.25
699.061	3501
699.25	3634.12
699.438	3584.97
699.627	3371.98
699.816	3527.63
700.005	3539.91
700.193	3548.11
700.382	3482.57
700.571	3644.36
700.76	3496.91
700.948	3623.88
701.137	3462.09
701.326	3546.06
701.514	3437.52
701.703	3402.7
701.892	3427.28
702.08	3644.36
702.269	3429.32
702.457	3503.05
702.646	3331.02
702.834	3384.27
703.023	3423.18
703.212	3531.72
703.4	3451.85
703.589	3490.76
703.777	3480.52
703.965	3380.17
704.154	3484.62
704.342	3437.52
704.531	3552.2
704.719	3435.47
704.907	3476.43
705.096	3435.47
705.284	3558.35
705.472	3625.93
705.661	3503.05
705.849	3564.49
706.037	3533.77
706.226	3386.32
706.414	3599.31
706.602	3380.17
706.79	3507.15
706.979	3425.23
707.167	3472.33
707.355	3345.36
707.543	3464.14
707.731	3492.81
707.919	3480.52
708.107	3576.78
708.296	3441.61
708.484	3443.66
708.672	3517.39
708.86	3443.66
709.048	3439.56
709.236	3451.85
709.424	3462.09
709.612	3494.86
709.8	3552.2
709.988	3529.67
710.176	3580.87
710.364	3484.62
710.551	3613.64
710.739	3339.21
710.927	3574.73
711.115	3435.47
711.303	3613.64
711.491	3632.07
711.679	3533.77
711.866	3521.48
712.054	3544.01
712.242	3429.32
712.43	3429.32
712.617	3414.99
712.805	3544.01
712.993	3564.49
713.181	3433.42
713.368	3632.07
713.556	3554.25
713.744	3492.81
713.931	3689.42
714.119	3640.26
714.306	3587.02
714.494	3611.59
714.682	3617.74
714.869	3648.46
715.057	3554.25
715.244	3607.5
715.432	3687.37
715.619	3582.92
715.807	3525.58
715.994	3601.35
716.182	3640.26
716.369	3599.31
716.556	3613.64
716.744	3582.92
716.931	3697.61
717.119	3754.95
717.306	3683.27
717.493	3599.31
717.681	3552.2
717.868	3673.03
718.055	3695.56
718.242	3814.34
718.43	3765.19
718.617	3705.8
718.804	3660.74
718.991	3724.23
719.179	3761.09
719.366	3746.76
719.553	3640.26
719.74	3703.75
719.927	3740.61
720.114	3662.79
720.301	3713.99
720.488	3544.01
720.676	3699.66
720.863	3681.22
721.05	3752.9
721.237	3761.09
721.424	3912.64
721.611	3763.14
721.798	3808.2
721.985	3967.94
722.172	3689.42
722.358	3781.57
722.545	3732.42
722.732	3808.2
722.919	3843.01
723.106	3951.56
723.293	3619.78
723.48	3933.12
723.667	3738.57
723.853	3783.62
724.04	3761.09
724.227	3822.53
724.414	3722.18
724.6	3820.49
724.787	3826.63
724.974	3789.77
725.161	3845.06
725.347	3658.7
725.534	3877.83
725.72	3826.63
725.907	3943.36
726.094	4074.43
726.28	3830.73
726.467	3783.62
726.653	3791.81
726.84	3900.36
727.027	3914.69
727.213	3787.72
727.4	3896.26
727.586	3902.4
727.773	3783.62
727.959	3933.12
728.145	3847.11
728.332	3845.06
728.518	3738.57
728.705	3914.69
728.891	3941.32
729.077	3800.01
729.264	3892.16
729.45	3855.3
729.636	3996.61
729.823	3883.97
730.009	3984.32
730.195	3855.3
730.382	4012.99
730.568	3720.14
730.754	3881.92
730.94	3929.03
731.126	4090.82
731.313	3904.45
731.499	3929.03
731.685	3967.94
731.871	3988.42
732.057	3920.84
732.243	3949.51
732.429	3853.25
732.615	4015.04
732.801	3869.64
732.987	3843.01
733.173	3972.04
733.359	4029.38
733.545	3861.45
733.731	3847.11
733.917	4027.33
734.103	3961.8
734.289	3836.87
734.475	3890.12
734.661	4053.95
734.847	3795.91
735.033	3967.94
735.219	3830.73
735.404	3945.41
735.59	3900.36
735.776	3886.02
735.962	3890.12
736.148	3902.4
736.333	3972.04
736.519	3920.84
736.705	3959.75
736.89	3871.68
737.076	3910.6
737.262	3918.79
737.447	3881.92
737.633	3924.93
737.819	3836.87
738.004	3783.62
738.19	3871.68
738.375	3773.38
738.561	3904.45
738.747	3804.1
738.932	3746.76
739.118	3816.39
739.303	3869.64
739.489	3849.16
739.674	3918.79
739.859	3658.7
740.045	3738.57
740.23	3654.6
740.416	3634.12
740.601	3777.48
740.786	3722.18
740.972	3750.85
741.157	3718.09
741.342	3750.85
741.528	3599.31
741.713	3640.26
741.898	3707.85
742.084	3670.98
742.269	3656.65
742.454	3632.07
742.639	3552.2
742.824	3668.94
743.01	3691.46
743.195	3615.69
743.38	3492.81
743.565	3509.19
743.75	3644.36
743.935	3486.67
744.12	3687.37
744.305	3582.92
744.49	3474.38
744.675	3484.62
744.86	3470.28
745.045	3427.28
745.23	3369.93
745.415	3445.71
745.6	3470.28
745.785	3376.08
745.97	3333.07
746.155	3339.21
746.34	3347.4
746.525	3316.69
746.71	3423.18
746.895	3269.58
747.079	3312.59
747.264	3224.53
747.449	3275.73
747.634	3197.9
747.819	3206.1
748.003	3179.47
748.188	3107.79
748.373	3150.8
748.557	3189.71
748.742	3165.14
748.927	3111.89
749.111	2962.39
749.296	2986.96
749.481	3107.79
749.665	3075.03
749.85	2898.9
750.034	2925.52
750.219	2929.62
750.404	2941.91
750.588	2991.06
750.773	2886.61
750.957	2771.93
751.141	2786.26
751.326	2878.42
751.51	2827.22
751.695	2755.54
751.879	2773.97
752.064	2825.17
752.248	2759.64
752.432	2790.36
752.617	2644.95
752.801	2737.11
752.985	2665.43
753.17	2620.38
753.354	2657.24
753.538	2685.91
753.722	2503.64
753.907	2591.7
754.091	2524.12
754.275	2597.85
754.459	2536.41
754.643	2413.53
754.828	2569.18
755.012	2329.56
755.196	2315.23
755.38	2405.34
755.564	2409.44
755.748	2374.62
755.932	2335.71
756.116	2440.15
756.3	2294.75
756.484	2362.33
756.668	2358.24
756.852	2202.59
757.036	2214.88
757.22	2223.07
757.404	2327.52
757.588	2247.65
757.772	2259.93
757.956	2112.48
758.14	2182.11
758.323	2175.97
758.507	2116.58
758.691	2028.51
758.875	2128.86
759.059	2208.73
759.242	2057.18
759.426	1993.7
759.61	2106.34
759.794	2114.53
759.977	2065.38
760.161	2077.66
760.345	2073.57
760.528	2069.47
760.712	2014.18
760.895	1993.7
761.079	1934.31
761.263	1854.44
761.446	1967.07
761.63	1950.69
761.813	1981.41
761.997	1919.97
762.18	1741.8
762.364	1891.3
762.547	1801.19
762.731	1930.21
762.914	1864.68
763.098	1805.28
763.281	1766.37
763.464	1846.24
763.648	1829.86
763.831	1749.99
764.015	1627.11
764.198	1838.05
764.381	1729.51
764.564	1860.58
764.748	1709.03
764.931	1770.47
765.114	1690.6
765.297	1698.79
765.481	1780.71
765.664	1684.45
765.847	1610.73
766.03	1659.88
766.213	1666.02
766.397	1717.22
766.58	1620.97
766.763	1606.63
766.946	1682.41
767.129	1745.89
767.312	1618.92
767.495	1573.86
767.678	1577.96
767.861	1592.3
768.044	1618.92
768.227	1557.48
768.41	1649.64
768.593	1602.54
768.776	1590.25
768.959	1518.57
769.142	1631.21
769.324	1491.95
769.507	1577.96
769.69	1483.75
769.873	1627.11
770.056	1541.1
770.239	1463.27
770.421	1600.49
770.604	1504.23
770.787	1420.27
770.97	1508.33
771.152	1418.22
771.335	1436.65
771.518	1496.04
771.7	1340.4
771.883	1434.6
772.066	1397.74
772.248	1428.46
772.431	1428.46
772.613	1397.74
772.796	1305.58
772.978	1493.99
773.161	1367.02
773.343	1315.82
773.526	1393.64
773.708	1401.83
773.891	1307.63
774.073	1321.96
774.256	1297.39
774.438	1412.07
774.621	1256.43
774.803	1326.06
774.985	1264.62
775.168	1354.73
775.35	1192.94
775.532	1289.2
775.715	1182.7
775.897	1268.72
776.079	1227.76
776.261	1207.28
776.444	1205.23
776.626	1190.89
776.808	1213.42
776.99	1035.25
777.173	1164.27
777.355	1102.83
777.537	1070.06
777.719	1160.17
777.901	1135.6
778.083	1092.59
778.265	1045.49
778.447	1100.78
778.629	971.76
778.811	1117.17
778.993	1022.96
779.175	1119.21
779.357	1059.82
779.539	996.34
779.721	1035.25
779.903	1080.3
780.085	998.38
780.267	969.71
780.449	1004.53
780.631	1008.62
780.812	1031.15
780.994	900.08
781.176	920.56
781.358	982
781.54	998.38
781.721	957.43
781.903	977.91
782.085	947.19
782.267	965.62
782.448	855.03
782.63	820.21
782.812	869.36
782.993	953.33
783.175	898.03
783.357	783.35
783.538	844.79
783.72	807.92
783.901	859.12
784.083	871.41
784.264	865.27
784.446	713.72
784.627	744.44
784.809	820.21
784.99	793.59
785.172	674.81
785.353	726
785.535	805.88
785.716	801.78
785.897	777.2
786.079	754.68
786.26	805.88
786.441	709.62
786.623	695.29
786.804	685.05
786.985	795.64
787.167	726
787.348	642.04
787.529	639.99
787.71	895.99
787.891	629.75
788.073	701.43
788.254	611.32
788.435	787.44
788.616	648.18
788.797	623.61
788.978	625.65
789.159	715.77
789.34	693.24
789.522	629.75
789.703	586.74
789.884	687.09
790.065	625.65
790.246	670.71
790.427	685.05
790.607	709.62
790.788	584.7
790.969	549.88
791.15	594.93
791.331	582.65
791.512	584.7
791.693	535.54
791.874	576.5
792.054	744.44
792.235	654.33
792.416	556.02
792.597	488.44
792.778	558.07
792.958	553.98
793.139	470.01
793.32	515.06
793.5	639.99
793.681	535.54
793.862	539.64
794.042	449.53
794.223	510.97
794.404	502.78
794.584	498.68
794.765	476.15
794.945	513.02
795.126	496.63
795.306	662.52
795.487	463.86
795.667	482.3
795.848	508.92
796.028	488.44
796.209	482.3
796.389	525.3
796.57	478.2
796.75	504.82
796.93	472.06
797.111	484.34
797.291	472.06
797.471	472.06
797.652	537.59
797.832	480.25
798.012	506.87
798.192	406.52
798.373	404.47
798.553	420.86
798.733	408.57
798.913	412.67
799.093	416.76
799.274	351.23
799.454	422.91
799.634	406.52
799.814	431.1
799.994	435.19
800.174	545.78
800.354	465.91
800.534	396.28
800.714	500.73
800.894	373.75
801.074	367.61
801.254	355.32
801.434	494.58
801.614	369.66
801.794	340.99
801.974	1291.24
802.154	375.8
802.334	414.71
802.514	334.84
802.693	336.89
802.873	365.56
803.053	379.9
803.233	316.41
803.413	365.56
803.592	297.98
803.772	304.12
803.952	429.05
804.131	402.43
804.311	431.1
804.491	373.75
804.67	287.74
804.85	338.94
805.03	388.09
805.209	412.67
805.389	424.95
805.568	304.12
805.748	349.18
805.928	369.66
806.107	418.81
806.287	379.9
806.466	371.71
806.646	201.72
806.825	252.92
807.004	330.75
807.184	345.08
807.363	359.42
807.543	273.4
807.722	242.68
807.901	293.88
808.081	347.13
808.26	228.35
808.439	316.41
808.619	302.08
808.798	248.83
808.977	373.75
809.156	357.37
809.336	232.44
809.515	373.75
809.694	275.45
809.873	314.36
810.052	281.6
810.231	355.32
810.411	265.21
810.59	324.6
810.769	302.08
810.948	357.37
811.127	257.02
811.306	226.3
811.485	183.29
811.664	386.04
811.843	330.75
812.022	287.74
812.201	216.06
812.38	263.16
812.559	250.88
812.737	257.02
812.916	257.02
813.095	209.92
813.274	277.5
813.453	314.36
813.632	318.46
813.811	338.94
813.989	275.45
814.168	289.79
814.347	250.88
814.526	283.64
814.704	312.32
814.883	261.12
815.062	308.22
815.24	265.21
815.419	211.96
815.598	277.5
815.776	189.44
815.955	191.49
816.133	168.96
816.312	183.29
816.49	261.12
816.669	240.64
816.847	207.87
817.026	259.07
817.204	248.83
817.383	275.45
817.561	191.49
817.74	248.83
817.918	250.88
818.097	158.72
818.275	173.05
818.453	183.29
818.632	207.87
818.81	228.35
818.988	203.77
819.167	218.11
819.345	199.68
819.523	220.16
819.701	80.89
819.879	211.96
820.058	230.4
820.236	179.2
820.414	306.17
820.592	220.16
820.77	232.44
820.948	306.17
821.127	171.01
821.305	185.34
821.483	201.72
821.661	160.77
821.839	166.91
822.017	164.86
822.195	136.19
822.373	216.06
822.551	205.82
822.729	220.16
822.907	181.25
823.085	232.44
823.262	216.06
823.44	142.33
823.618	148.48
823.796	150.53
823.974	175.1
824.152	134.14
824.329	175.1
824.507	209.92
824.685	125.95
824.863	128
825.04	115.71
825.218	222.2
825.396	191.49
825.574	228.35
825.751	257.02
825.929	103.42
826.107	109.57
826.284	160.77
826.462	218.11
826.639	121.85
826.817	158.72
826.994	113.66
827.172	111.61
827.349	189.44
827.527	121.85
827.704	175.1
827.882	136.19
828.059	148.48
828.237	142.33
828.414	150.53
828.591	191.49
828.769	185.34
828.946	111.61
829.124	209.92
829.301	218.11
829.478	87.04
829.655	201.72
829.833	211.96
830.01	97.28
830.187	162.81
830.364	154.62
830.542	107.52
830.719	240.64
830.896	156.67
831.073	156.67
831.25	201.72
831.427	66.56
831.604	142.33
831.782	54.27
831.959	160.77
832.136	68.61
832.313	214.01
832.49	125.95
832.667	152.57
832.844	68.61
833.021	134.14
833.198	132.09
833.374	111.61
833.551	140.29
833.728	58.37
833.905	181.25
834.082	48.13
834.259	105.47
834.436	248.83
834.612	97.28
834.789	173.05
834.966	117.76
835.143	107.52
835.319	68.61
835.496	95.23
835.673	171.01
835.85	138.24
836.026	148.48
836.203	117.76
836.38	142.33
836.556	109.57
836.733	50.18
836.909	265.21
837.086	144.38
837.262	148.48
837.439	52.22
837.616	46.08
837.792	150.53
837.968	154.62
838.145	78.85
838.321	117.76
838.498	138.24
838.674	111.61
838.851	99.33
839.027	35.84
839.203	93.18
839.38	64.51
839.556	44.03
839.732	150.53
839.909	134.14
840.085	93.18
840.261	128
840.437	105.47
840.614	76.8
840.79	136.19
840.966	144.38
841.142	117.76
841.318	119.81
841.494	72.7
841.671	115.71
841.847	41.98
842.023	9.22
842.199	125.95
842.375	154.62
842.551	15.36
842.727	39.94
842.903	175.1
843.079	70.65
843.255	144.38
843.431	72.7
843.607	150.53
843.783	62.46
843.959	93.18
844.134	101.37
844.31	140.29
844.486	-23.55
844.662	84.99
844.838	44.03
845.013	162.81
845.189	130.05
845.365	72.7
845.541	93.18
845.716	93.18
845.892	125.95
846.068	5.12
846.244	35.84
846.419	121.85
846.595	140.29
846.77	138.24
846.946	103.42
847.122	74.75
847.297	136.19
847.473	115.71
847.648	64.51
847.824	68.61
847.999	37.89
848.175	125.95
848.35	138.24
848.526	136.19
848.701	132.09
848.876	72.7
849.052	23.55
849.227	52.22
849.403	39.94
849.578	11.26
849.753	70.65
849.929	84.99
850.104	74.75
850.279	50.18
850.454	109.57
850.63	48.13
850.805	103.42
850.98	113.66
851.155	27.65
851.33	109.57
851.505	39.94
851.681	121.85
851.856	82.94
852.031	136.19
852.206	76.8
852.381	62.46
852.556	48.13
852.731	52.22
852.906	64.51
853.081	70.65
853.256	107.52
853.431	105.47
853.606	7.17
853.781	-11.26
853.956	-72.7
854.131	29.7
854.305	62.46
854.48	78.85
854.655	44.03
854.83	27.65
855.005	68.61
855.18	50.18
855.354	33.79
855.529	93.18
855.704	111.61
855.879	15.36
856.053	-31.74
856.228	164.86
856.403	3.07
856.577	64.51
856.752	50.18
856.926	72.7
857.101	35.84
857.276	-13.31
857.45	76.8
857.625	132.09
857.799	52.22
857.974	60.42
858.148	35.84
858.323	-17.41
858.497	5.12
858.672	19.46
858.846	-33.79
859.02	154.62
859.195	31.74
859.369	48.13
859.543	21.5
859.718	46.08
859.892	-15.36
860.066	-17.41
860.241	95.23
860.415	-17.41
860.589	70.65
860.763	37.89
860.938	39.94
861.112	70.65
861.286	103.42
861.46	54.27
861.634	33.79
861.808	27.65
861.982	54.27
862.157	9.22
862.331	-7.17
862.505	-70.65
862.679	-46.08
862.853	93.18
863.027	5.12
863.201	50.18
863.375	41.98
863.549	87.04
863.722	52.22
863.896	-3.07
864.07	37.89
864.244	25.6
864.418	70.65
864.592	93.18
864.766	113.66
864.939	64.51
865.113	48.13
865.287	62.46
865.461	9.22
865.634	82.94
865.808	31.74
865.982	35.84
866.156	19.46
866.329	-37.89
866.503	11.26
866.676	142.33
866.85	-17.41
867.024	29.7
867.197	39.94
867.371	62.46
867.544	3.07
867.718	1.02
867.891	15.36
868.065	35.84
868.238	54.27
868.412	15.36
868.585	60.42
868.759	-41.98
868.932	19.46
869.105	17.41
869.279	50.18
869.452	-27.65
869.625	-9.22
869.799	35.84
869.972	1.02
870.145	97.28
870.319	35.84
870.492	29.7
870.665	39.94
870.838	13.31
871.011	-37.89
871.185	37.89
871.358	11.26
871.531	58.37
871.704	-15.36
871.877	44.03
872.05	9.22
872.223	-3.07
872.396	128
872.569	105.47
872.742	-13.31
872.915	80.89
873.088	-9.22
873.261	27.65
873.434	82.94
873.607	46.08
873.78	39.94
873.953	11.26
874.126	-25.6
874.299	74.75
874.471	39.94
874.644	9.22
874.817	-27.65
874.99	99.33
875.163	21.5
875.335	-21.5
875.508	58.37
875.681	93.18
875.853	9.22
876.026	-21.5
876.199	17.41
876.371	62.46
876.544	46.08
876.717	29.7
876.889	35.84
877.062	62.46
877.234	-54.27
877.407	76.8
877.579	-48.13
877.752	41.98
877.924	29.7
878.097	54.27
878.269	31.74
878.442	62.46
878.614	-25.6
878.786	68.61
878.959	72.7
879.131	-13.31
879.303	-11.26
879.476	29.7
879.648	27.65
879.82	117.76
879.993	19.46
880.165	33.79
880.337	3.07
880.509	-33.79
880.681	-33.79
880.854	9.22
881.026	46.08
881.198	80.89
881.37	35.84
881.542	-48.13
881.714	64.51
881.886	-1.02
882.058	-3.07
882.23	17.41
882.402	-5.12
882.574	66.56
882.746	35.84
882.918	82.94
883.09	17.41
883.262	23.55
883.434	-23.55
883.606	-23.55
883.778	-50.18
883.95	87.04
884.122	17.41
884.293	17.41
884.465	-13.31
884.637	21.5
884.809	17.41
884.98	3.07
885.152	52.22
885.324	17.41
885.496	41.98
885.667	37.89
885.839	-11.26
886.011	78.85
886.182	15.36
886.354	62.46
886.525	37.89
886.697	-1.02
886.869	7.17
887.04	9.22
887.212	62.46
887.383	109.57
887.555	11.26
887.726	29.7
887.897	-37.89
888.069	7.17
888.24	60.42
888.412	-44.03
888.583	7.17
888.754	68.61
888.926	-66.56
889.097	5.12
889.268	-41.98
889.44	9.22
889.611	3.07
889.782	-44.03
889.953	-25.6
890.125	62.46
890.296	-87.04
890.467	48.13
890.638	-3.07
890.809	89.09
890.98	64.51
891.151	46.08
891.323	27.65
891.494	19.46
891.665	44.03
891.836	66.56
892.007	27.65
892.178	52.22
892.349	41.98
892.52	5.12
892.691	11.26
892.862	101.37
893.032	7.17
893.203	68.61
893.374	-9.22
893.545	21.5
893.716	23.55
893.887	128
894.057	15.36
894.228	39.94
894.399	25.6
894.57	70.65
894.74	-21.5
894.911	80.89
895.082	68.61
895.253	19.46
895.423	-11.26
895.594	52.22
895.764	-17.41
895.935	-5.12
896.106	72.7
896.276	46.08
896.447	-25.6
896.617	11.26
896.788	-27.65
896.958	9.22
897.129	11.26
897.299	-31.74
897.47	89.09
897.64	56.32
897.81	44.03
897.981	68.61
898.151	-27.65
898.322	-27.65
898.492	64.51
898.662	19.46
898.832	52.22
899.003	37.89
899.173	11.26
899.343	35.84
899.513	-21.5
