Data from USB4F104151__36__13-05-05-844.txt Node

Date: Fri Mar 14 13:05:05 EDT 2025
User: louis
Spectrometer: USB4F10415
Trigger mode: 4
Integration Time (sec): 4.000000E-2
Scans to average: 1
Electric dark correction enabled: true
Nonlinearity correction enabled: false
Boxcar width: 0
XAxis mode: Wavelengths
Number of Pixels in Spectrum: 3648
>>>>>Begin Spectral Data<<<<<
178.204	-117.08
178.424	-117.08
178.644	-117.08
178.864	-178.51
179.084	-190.8
179.304	-8.53
179.524	22.19
179.744	-49.49
179.964	71.34
180.184	16.04
180.404	-26.96
180.624	28.33
180.844	-39.25
181.064	-26.96
181.283	22.19
181.503	11.95
181.723	-20.82
181.943	-86.36
182.163	97.96
182.383	61.1
182.602	20.14
182.822	249.51
183.042	40.62
183.262	-4.44
183.482	24.23
183.701	71.34
183.921	28.33
184.141	22.19
184.361	46.76
184.58	44.71
184.8	22.19
185.02	48.81
185.239	167.59
185.459	161.45
185.679	89.77
185.898	87.72
186.118	89.77
186.338	134.82
186.557	28.33
186.777	-35.16
186.997	7.85
187.216	-37.2
187.436	128.68
187.655	75.43
187.875	65.19
188.095	46.76
188.314	75.43
188.534	89.77
188.753	59.05
188.973	36.52
189.192	87.72
189.412	36.52
189.631	28.33
189.851	52.91
190.07	89.77
190.29	32.43
190.509	-12.63
190.729	143.02
190.948	79.53
191.168	186.02
191.387	63.15
191.607	-41.3
191.826	-20.82
192.045	-12.63
192.265	114.34
192.484	-29.01
192.704	110.25
192.923	24.23
193.142	183.98
193.362	59.05
193.581	112.3
193.8	26.28
194.02	136.87
194.239	-20.82
194.458	22.19
194.678	65.19
194.897	50.86
195.116	30.38
195.335	11.95
195.555	93.87
195.774	116.39
195.993	93.87
196.212	57
196.432	-2.39
196.651	32.43
196.87	40.62
197.089	204.46
197.308	85.67
197.528	130.73
197.747	13.99
197.966	69.29
198.185	122.54
198.404	38.57
198.623	102.06
198.842	85.67
199.062	77.48
199.281	126.63
199.5	85.67
199.719	67.24
199.938	30.38
200.157	69.29
200.376	83.63
200.595	44.71
200.814	44.71
201.033	28.33
201.252	48.81
201.471	71.34
201.69	95.91
201.909	118.44
202.128	110.25
202.347	30.38
202.566	13.99
202.785	40.62
203.004	36.52
203.223	181.93
203.442	77.48
203.661	13.99
203.879	48.81
204.098	63.15
204.317	-49.49
204.536	54.95
204.755	44.71
204.974	89.77
205.193	85.67
205.411	155.3
205.63	93.87
205.849	100.01
206.068	118.44
206.287	67.24
206.505	71.34
206.724	-24.92
206.943	38.57
207.162	-12.63
207.381	118.44
207.599	5.8
207.818	69.29
208.037	16.04
208.255	26.28
208.474	46.76
208.693	91.82
208.911	-12.63
209.13	122.54
209.349	71.34
209.567	114.34
209.786	20.14
210.005	69.29
210.223	71.34
210.442	-0.34
210.661	79.53
210.879	42.67
211.098	20.14
211.316	40.62
211.535	83.63
211.753	95.91
211.972	44.71
212.191	9.9
212.409	71.34
212.628	61.1
212.846	24.23
213.065	132.78
213.283	46.76
213.502	-22.87
213.72	93.87
213.938	87.72
214.157	48.81
214.375	48.81
214.594	89.77
214.812	18.09
215.031	124.58
215.249	63.15
215.467	13.99
215.686	57
215.904	95.91
216.122	-10.58
216.341	89.77
216.559	106.15
216.778	38.57
216.996	87.72
217.214	32.43
217.432	93.87
217.651	16.04
217.869	89.77
218.087	59.05
218.306	9.9
218.524	79.53
218.742	34.47
218.96	102.06
219.179	147.11
219.397	104.11
219.615	169.64
219.833	46.76
220.051	5.8
220.27	110.25
220.488	-0.34
220.706	34.47
220.924	42.67
221.142	67.24
221.36	48.81
221.578	5.8
221.796	36.52
222.015	30.38
222.233	-72.02
222.451	145.06
222.669	57
222.887	54.95
223.105	48.81
223.323	93.87
223.541	5.8
223.759	77.48
223.977	20.14
224.195	104.11
224.413	87.72
224.631	67.24
224.849	95.91
225.067	120.49
225.285	32.43
225.503	-8.53
225.721	-26.96
225.939	57
226.157	44.71
226.375	231.08
226.592	22.19
226.81	36.52
227.028	114.34
227.246	112.3
227.464	38.57
227.682	63.15
227.9	71.34
228.117	-8.53
228.335	114.34
228.553	46.76
228.771	46.76
228.989	87.72
229.206	73.39
229.424	69.29
229.642	44.71
229.86	73.39
230.077	102.06
230.295	83.63
230.513	104.11
230.731	57
230.948	110.25
231.166	46.76
231.384	-16.73
231.601	-14.68
231.819	77.48
232.037	61.1
232.254	57
232.472	32.43
232.689	16.04
232.907	116.39
233.125	59.05
233.342	-12.63
233.56	77.48
233.777	34.47
233.995	-20.82
234.213	83.63
234.43	38.57
234.648	71.34
234.865	67.24
235.083	13.99
235.3	11.95
235.518	128.68
235.735	85.67
235.953	163.5
236.17	13.99
236.388	108.2
236.605	24.23
236.822	85.67
237.04	57
237.257	91.82
237.475	46.76
237.692	26.28
237.909	11.95
238.127	42.67
238.344	57
238.562	71.34
238.779	42.67
238.996	59.05
239.214	104.11
239.431	36.52
239.648	57
239.865	28.33
240.083	11.95
240.3	36.52
240.517	-12.63
240.735	69.29
240.952	132.78
241.169	38.57
241.386	26.28
241.603	102.06
241.821	-33.11
242.038	67.24
242.255	83.63
242.472	26.28
242.689	112.3
242.907	81.58
243.124	57
243.341	38.57
243.558	-26.96
243.775	-20.82
243.992	-37.2
244.209	30.38
244.426	93.87
244.643	52.91
244.86	44.71
245.078	87.72
245.295	79.53
245.512	63.15
245.729	26.28
245.946	32.43
246.163	65.19
246.38	44.71
246.597	67.24
246.814	5.8
247.031	30.38
247.248	140.97
247.464	83.63
247.681	-29.01
247.898	52.91
248.115	48.81
248.332	50.86
248.549	102.06
248.766	153.26
248.983	69.29
249.2	5.8
249.417	48.81
249.633	77.48
249.85	48.81
250.067	16.04
250.284	118.44
250.501	100.01
250.717	71.34
250.934	-39.25
251.151	-4.44
251.368	69.29
251.585	104.11
251.801	71.34
252.018	61.1
252.235	34.47
252.451	118.44
252.668	-63.83
252.885	30.38
253.102	59.05
253.318	-41.3
253.535	44.71
253.752	1.71
253.968	50.86
254.185	11.95
254.401	28.33
254.618	91.82
254.835	16.04
255.051	171.69
255.268	100.01
255.484	75.43
255.701	132.78
255.917	36.52
256.134	36.52
256.351	67.24
256.567	-31.06
256.784	42.67
257	-51.54
257.217	108.2
257.433	87.72
257.65	89.77
257.866	44.71
258.082	36.52
258.299	-6.49
258.515	140.97
258.732	-12.63
258.948	95.91
259.165	59.05
259.381	3.75
259.597	87.72
259.814	30.38
260.03	100.01
260.246	63.15
260.463	100.01
260.679	140.97
260.895	44.71
261.112	65.19
261.328	38.57
261.544	32.43
261.761	114.34
261.977	-12.63
262.193	-12.63
262.409	20.14
262.626	50.86
262.842	36.52
263.058	30.38
263.274	36.52
263.49	79.53
263.707	69.29
263.923	89.77
264.139	5.8
264.355	38.57
264.571	130.73
264.787	13.99
265.004	18.09
265.22	54.95
265.436	93.87
265.652	28.33
265.868	40.62
266.084	71.34
266.3	79.53
266.516	3.75
266.732	30.38
266.948	24.23
267.164	36.52
267.38	50.86
267.596	46.76
267.812	118.44
268.028	65.19
268.244	54.95
268.46	87.72
268.676	44.71
268.892	36.52
269.108	61.1
269.324	59.05
269.54	3.75
269.756	102.06
269.972	24.23
270.188	126.63
270.403	11.95
270.619	50.86
270.835	89.77
271.051	44.71
271.267	22.19
271.483	63.15
271.698	128.68
271.914	36.52
272.13	91.82
272.346	114.34
272.562	48.81
272.777	118.44
272.993	95.91
273.209	46.76
273.425	73.39
273.64	13.99
273.856	85.67
274.072	102.06
274.287	48.81
274.503	9.9
274.719	40.62
274.934	85.67
275.15	42.67
275.366	46.76
275.581	24.23
275.797	38.57
276.012	22.19
276.228	91.82
276.444	11.95
276.659	114.34
276.875	38.57
277.09	1.71
277.306	112.3
277.521	50.86
277.737	136.87
277.952	97.96
278.168	143.02
278.383	36.52
278.599	87.72
278.814	71.34
279.03	67.24
279.245	118.44
279.461	106.15
279.676	155.3
279.892	-2.39
280.107	3.75
280.322	20.14
280.538	22.19
280.753	30.38
280.969	167.59
281.184	52.91
281.399	79.53
281.615	134.82
281.83	163.5
282.045	13.99
282.26	134.82
282.476	116.39
282.691	83.63
282.906	40.62
283.122	97.96
283.337	52.91
283.552	97.96
283.767	69.29
283.983	61.1
284.198	38.57
284.413	100.01
284.628	16.04
284.843	106.15
285.058	65.19
285.274	71.34
285.489	-51.54
285.704	104.11
285.919	40.62
286.134	93.87
286.349	13.99
286.564	-12.63
286.779	69.29
286.995	9.9
287.21	50.86
287.425	57
287.64	5.8
287.855	7.85
288.07	42.67
288.285	116.39
288.5	134.82
288.715	112.3
288.93	7.85
289.145	28.33
289.36	93.87
289.575	-0.34
289.79	89.77
290.004	7.85
290.219	81.58
290.434	46.76
290.649	71.34
290.864	104.11
291.079	-16.73
291.294	89.77
291.509	77.48
291.724	44.71
291.938	46.76
292.153	20.14
292.368	38.57
292.583	28.33
292.798	44.71
293.012	134.82
293.227	149.16
293.442	69.29
293.657	136.87
293.871	61.1
294.086	46.76
294.301	114.34
294.516	130.73
294.73	87.72
294.945	-0.34
295.16	48.81
295.374	132.78
295.589	130.73
295.804	-12.63
296.018	122.54
296.233	112.3
296.447	93.87
296.662	81.58
296.877	97.96
297.091	73.39
297.306	34.47
297.52	38.57
297.735	46.76
297.949	116.39
298.164	54.95
298.378	71.34
298.593	-22.87
298.807	-10.58
299.022	145.06
299.236	79.53
299.451	11.95
299.665	24.23
299.88	75.43
300.094	11.95
300.309	44.71
300.523	40.62
300.737	-6.49
300.952	52.91
301.166	52.91
301.381	48.81
301.595	59.05
301.809	52.91
302.024	93.87
302.238	44.71
302.452	61.1
302.667	34.47
302.881	79.53
303.095	44.71
303.309	134.82
303.524	61.1
303.738	-8.53
303.952	59.05
304.166	-6.49
304.381	3.75
304.595	69.29
304.809	5.8
305.023	97.96
305.237	9.9
305.452	83.63
305.666	95.91
305.88	57
306.094	122.54
306.308	110.25
306.522	97.96
306.736	83.63
306.95	73.39
307.164	114.34
307.379	77.48
307.593	-2.39
307.807	104.11
308.021	38.57
308.235	42.67
308.449	32.43
308.663	36.52
308.877	159.4
309.091	87.72
309.305	122.54
309.519	-4.44
309.733	118.44
309.947	73.39
310.161	106.15
310.374	9.9
310.588	151.21
310.802	79.53
311.016	30.38
311.23	93.87
311.444	44.71
311.658	26.28
311.872	104.11
312.085	165.54
312.299	65.19
312.513	122.54
312.727	93.87
312.941	46.76
313.154	40.62
313.368	5.8
313.582	79.53
313.796	89.77
314.009	91.82
314.223	165.54
314.437	11.95
314.651	38.57
314.864	97.96
315.078	32.43
315.292	-18.77
315.505	18.09
315.719	79.53
315.933	87.72
316.146	73.39
316.36	-10.58
316.573	155.3
316.787	196.26
317.001	79.53
317.214	28.33
317.428	28.33
317.641	30.38
317.855	75.43
318.068	57
318.282	108.2
318.495	130.73
318.709	89.77
318.922	54.95
319.136	97.96
319.349	132.78
319.563	7.85
319.776	20.14
319.99	71.34
320.203	30.38
320.417	89.77
320.63	63.15
320.843	136.87
321.057	124.58
321.27	48.81
321.483	118.44
321.697	183.98
321.91	75.43
322.124	48.81
322.337	48.81
322.55	71.34
322.763	97.96
322.977	108.2
323.19	67.24
323.403	30.38
323.617	71.34
323.83	54.95
324.043	5.8
324.256	97.96
324.469	22.19
324.683	69.29
324.896	38.57
325.109	69.29
325.322	59.05
325.535	38.57
325.748	97.96
325.962	67.24
326.175	95.91
326.388	59.05
326.601	110.25
326.814	138.92
327.027	28.33
327.24	59.05
327.453	28.33
327.666	65.19
327.879	91.82
328.092	85.67
328.305	73.39
328.518	38.57
328.731	61.1
328.944	128.68
329.157	65.19
329.37	110.25
329.583	136.87
329.796	116.39
330.009	11.95
330.222	112.3
330.435	38.57
330.648	79.53
330.861	44.71
331.073	30.38
331.286	159.4
331.499	71.34
331.712	-4.44
331.925	75.43
332.138	61.1
332.35	128.68
332.563	-24.92
332.776	97.96
332.989	59.05
333.202	63.15
333.414	16.04
333.627	77.48
333.84	97.96
334.053	83.63
334.265	59.05
334.478	5.8
334.691	38.57
334.903	61.1
335.116	61.1
335.329	50.86
335.541	50.86
335.754	155.3
335.966	36.52
336.179	95.91
336.392	61.1
336.604	46.76
336.817	87.72
337.029	67.24
337.242	48.81
337.454	28.33
337.667	87.72
337.88	93.87
338.092	93.87
338.305	122.54
338.517	18.09
338.729	116.39
338.942	85.67
339.154	-37.2
339.367	-35.16
339.579	63.15
339.792	46.76
340.004	97.96
340.217	22.19
340.429	54.95
340.641	42.67
340.854	71.34
341.066	50.86
341.278	83.63
341.491	147.11
341.703	126.63
341.915	26.28
342.128	122.54
342.34	40.62
342.552	61.1
342.764	118.44
342.977	91.82
343.189	104.11
343.401	104.11
343.613	30.38
343.826	44.71
344.038	34.47
344.25	118.44
344.462	26.28
344.674	95.91
344.886	9.9
345.099	32.43
345.311	59.05
345.523	42.67
345.735	-57.68
345.947	69.29
346.159	71.34
346.371	65.19
346.583	44.71
346.795	143.02
347.007	65.19
347.219	75.43
347.431	13.99
347.643	44.71
347.855	63.15
348.067	116.39
348.279	52.91
348.491	52.91
348.703	79.53
348.915	38.57
349.127	22.19
349.339	38.57
349.551	130.73
349.763	61.1
349.975	83.63
350.187	91.82
350.399	97.96
350.61	93.87
350.822	57
351.034	38.57
351.246	52.91
351.458	79.53
351.669	87.72
351.881	89.77
352.093	118.44
352.305	110.25
352.517	87.72
352.728	44.71
352.94	122.54
353.152	89.77
353.363	7.85
353.575	16.04
353.787	95.91
353.999	79.53
354.21	91.82
354.422	22.19
354.633	69.29
354.845	48.81
355.057	-0.34
355.268	67.24
355.48	106.15
355.692	114.34
355.903	57
356.115	46.76
356.326	75.43
356.538	102.06
356.749	48.81
356.961	79.53
357.172	52.91
357.384	36.52
357.595	175.78
357.807	106.15
358.018	16.04
358.23	71.34
358.441	122.54
358.653	42.67
358.864	11.95
359.075	22.19
359.287	61.1
359.498	151.21
359.709	93.87
359.921	36.52
360.132	61.1
360.344	130.73
360.555	44.71
360.766	36.52
360.977	48.81
361.189	67.24
361.4	87.72
361.611	65.19
361.823	50.86
362.034	85.67
362.245	13.99
362.456	73.39
362.667	85.67
362.879	24.23
363.09	28.33
363.301	75.43
363.512	11.95
363.723	85.67
363.935	102.06
364.146	93.87
364.357	87.72
364.568	118.44
364.779	61.1
364.99	130.73
365.201	54.95
365.412	106.15
365.623	36.52
365.834	97.96
366.045	20.14
366.256	77.48
366.467	114.34
366.678	54.95
366.889	126.63
367.1	63.15
367.311	69.29
367.522	104.11
367.733	169.64
367.944	71.34
368.155	85.67
368.366	85.67
368.577	120.49
368.788	130.73
368.999	126.63
369.209	102.06
369.42	130.73
369.631	163.5
369.842	130.73
370.053	30.38
370.264	110.25
370.474	50.86
370.685	79.53
370.896	71.34
371.107	106.15
371.317	69.29
371.528	153.26
371.739	120.49
371.95	132.78
372.16	40.62
372.371	-29.01
372.582	38.57
372.792	52.91
373.003	89.77
373.214	67.24
373.424	165.54
373.635	3.75
373.846	151.21
374.056	52.91
374.267	120.49
374.477	81.58
374.688	28.33
374.898	71.34
375.109	50.86
375.319	52.91
375.53	102.06
375.74	54.95
375.951	48.81
376.161	110.25
376.372	79.53
376.582	28.33
376.793	77.48
377.003	85.67
377.214	128.68
377.424	75.43
377.635	85.67
377.845	46.76
378.055	155.3
378.266	20.14
378.476	69.29
378.686	3.75
378.897	112.3
379.107	151.21
379.317	120.49
379.528	118.44
379.738	120.49
379.948	-86.36
380.158	110.25
380.369	85.67
380.579	118.44
380.789	18.09
380.999	102.06
381.21	83.63
381.42	147.11
381.63	114.34
381.84	69.29
382.05	65.19
382.261	77.48
382.471	110.25
382.681	38.57
382.891	126.63
383.101	81.58
383.311	36.52
383.521	87.72
383.731	89.77
383.941	44.71
384.151	104.11
384.361	114.34
384.571	118.44
384.781	128.68
384.991	69.29
385.201	157.35
385.411	32.43
385.621	132.78
385.831	136.87
386.041	38.57
386.251	161.45
386.461	153.26
386.671	40.62
386.881	140.97
387.091	87.72
387.301	44.71
387.511	63.15
387.72	151.21
387.93	87.72
388.14	-4.44
388.35	81.58
388.56	61.1
388.769	83.63
388.979	65.19
389.189	102.06
389.399	36.52
389.609	95.91
389.818	104.11
390.028	181.93
390.238	85.67
390.447	42.67
390.657	163.5
390.867	59.05
391.076	5.8
391.286	73.39
391.496	114.34
391.705	171.69
391.915	120.49
392.125	153.26
392.334	38.57
392.544	157.35
392.753	48.81
392.963	116.39
393.172	18.09
393.382	11.95
393.591	128.68
393.801	46.76
394.01	118.44
394.22	116.39
394.429	153.26
394.639	157.35
394.848	122.54
395.058	87.72
395.267	114.34
395.477	71.34
395.686	93.87
395.895	167.59
396.105	224.94
396.314	85.67
396.524	149.16
396.733	48.81
396.942	143.02
397.152	188.07
397.361	124.58
397.57	159.4
397.78	71.34
397.989	52.91
398.198	202.41
398.407	204.46
398.617	79.53
398.826	93.87
399.035	116.39
399.244	89.77
399.453	63.15
399.663	118.44
399.872	241.32
400.081	157.35
400.29	151.21
400.499	192.17
400.708	179.88
400.917	97.96
401.127	157.35
401.336	118.44
401.545	202.41
401.754	163.5
401.963	165.54
402.172	122.54
402.381	163.5
402.59	136.87
402.799	79.53
403.008	163.5
403.217	259.75
403.426	204.46
403.635	147.11
403.844	151.21
404.053	110.25
404.262	167.59
404.471	243.37
404.68	278.18
404.888	194.22
405.097	202.41
405.306	173.74
405.515	214.7
405.724	188.07
405.933	267.94
406.142	233.13
406.35	216.74
406.559	241.32
406.768	147.11
406.977	226.98
407.185	267.94
407.394	339.62
407.603	216.74
407.812	214.7
408.02	347.81
408.229	298.66
408.438	243.37
408.646	233.13
408.855	259.75
409.064	302.76
409.272	290.47
409.481	450.21
409.69	390.82
409.898	319.14
410.107	374.44
410.315	462.5
410.524	388.77
410.733	362.15
410.941	396.96
411.15	448.16
411.358	462.5
411.567	470.69
411.775	499.36
411.984	392.87
412.192	534.18
412.401	575.14
412.609	562.85
412.818	550.56
413.026	652.96
413.234	503.46
413.443	568.99
413.651	612
413.86	646.82
414.068	679.58
414.276	775.84
414.485	706.21
414.693	777.89
414.901	827.04
415.11	829.09
415.318	816.8
415.526	851.61
415.734	888.48
415.943	865.95
416.151	921.24
416.359	853.66
416.567	898.72
416.776	929.44
416.984	1035.93
417.192	1128.09
417.4	1068.7
417.608	1072.79
417.817	1173.14
418.025	1224.34
418.233	1281.69
418.441	1242.78
418.649	1238.68
418.857	1396.37
419.065	1408.66
419.273	1404.57
419.481	1496.72
419.689	1539.73
419.897	1584.79
420.105	1662.61
420.313	1578.64
420.521	1840.78
420.729	1746.58
420.937	1851.02
421.145	1783.44
421.353	2004.62
421.561	2092.68
421.769	2133.64
421.977	2303.62
422.185	2266.76
422.393	2281.1
422.601	2524.8
422.809	2508.42
423.017	2446.98
423.224	2604.67
423.432	2655.87
423.64	2707.07
423.848	2997.88
424.056	2850.43
424.263	3176.06
424.471	2969.21
424.679	3229.31
424.887	3325.56
425.094	3432.05
425.302	3554.93
425.51	3518.07
425.718	3772.02
425.925	3812.98
426.133	3735.15
426.341	4173.42
426.548	4245.1
426.756	4241
426.964	4386.41
427.171	4517.48
427.379	4601.44
427.586	4775.52
427.794	5060.19
428.001	5213.79
428.209	5281.37
428.417	5248.6
428.624	5676.63
428.832	5764.69
429.039	5680.72
429.247	5684.82
429.454	6211.15
429.662	6659.65
429.869	6061.65
430.076	6678.08
430.284	6596.17
430.491	6649.41
430.699	7106.11
430.906	7069.25
431.114	7024.19
431.321	7392.83
431.528	7575.1
431.736	8117.81
431.943	8318.51
432.15	8220.21
432.358	8291.88
432.565	8685.09
432.772	8355.37
432.979	9178.65
433.187	9381.4
433.394	9448.99
433.601	9960.98
433.808	9938.45
434.016	9983.51
434.223	10337.8
434.43	11027.97
434.637	10694.15
434.844	11273.73
435.052	11687.42
435.259	11585.02
435.466	12015.09
435.673	11587.07
435.88	12283.38
436.087	12948.97
436.294	12922.34
436.501	12875.24
436.708	12928.49
436.915	13370.85
437.122	14138.83
437.329	14065.11
437.537	14515.66
437.743	14425.55
437.95	14509.52
438.157	15478.21
438.364	15838.65
438.571	15781.31
438.778	15959.48
438.985	17294.75
439.192	16457.14
439.399	17333.67
439.606	16862.63
439.813	17929.63
440.02	18787.72
440.227	18578.83
440.433	18486.67
440.64	19221.89
440.847	19053.96
441.054	19287.43
441.261	20489.59
441.467	20428.15
441.674	21036.39
441.881	21286.25
442.088	21480.8
442.294	21142.89
442.501	21820.77
442.708	22498.64
442.914	23045.45
443.121	24192.31
443.328	23520.58
443.534	25249.07
443.741	24577.33
443.948	24339.77
444.154	25818.4
444.361	25578.79
444.568	26037.53
444.774	25892.13
444.981	26090.78
445.187	26971.41
445.394	28124.41
445.6	27782.4
445.807	30698.71
446.013	29265.13
446.22	29488.36
446.426	31055.06
446.633	31141.07
446.839	32558.27
447.046	30645.46
447.252	32814.26
447.459	33017.01
447.665	32328.89
447.871	33930.4
448.078	35638.41
448.284	33983.65
448.491	34804.89
448.697	35867.78
448.903	36914.3
449.11	37022.84
449.316	36273.28
449.522	36871.29
449.728	37940.33
449.935	38356.07
450.141	38278.24
450.347	39224.4
450.553	38413.41
450.76	38636.64
450.966	39427.15
451.172	39562.32
451.378	40338.5
451.584	39533.65
451.791	40569.92
451.997	40369.22
452.203	41284.66
452.409	40879.16
452.615	41081.91
452.821	39418.96
453.027	39128.15
453.233	41008.18
453.44	39177.3
453.646	39601.23
453.852	40275.01
454.058	40969.27
454.264	39367.76
454.47	40195.14
454.676	39584.85
454.882	40782.91
455.088	37350.51
455.294	37731.43
455.5	38620.25
455.705	38704.22
455.911	37401.71
456.117	36476.03
456.323	35820.68
456.529	34249.89
456.735	35853.45
456.941	34978.96
457.147	33914.02
457.352	32943.28
457.558	33023.15
457.764	32971.96
457.97	32472.25
458.176	31759.56
458.381	31759.56
458.587	29900
458.793	30242.01
458.999	28341.5
459.204	30403.8
459.41	29662.44
459.616	27798.79
459.821	27739.4
460.027	28042.49
460.233	27086.09
460.438	25734.43
460.644	26438.94
460.85	24720.69
461.055	24530.23
461.261	24372.53
461.466	22437.2
461.672	21984.6
461.878	23473.48
462.083	21695.84
462.289	21663.07
462.494	21173.61
462.7	20407.67
462.905	20098.42
463.111	20465.01
463.316	20737.39
463.522	20186.49
463.727	20186.49
463.932	20000.12
464.138	19955.07
464.343	19905.91
464.549	19309.96
464.754	19975.55
464.959	19848.57
465.165	19723.65
465.37	19084.68
465.575	18089.37
465.781	19221.89
465.986	19137.93
466.191	18427.28
466.397	18187.67
466.602	17415.58
466.807	17714.59
467.012	18025.88
467.218	17866.14
467.423	17870.23
467.628	17831.32
467.833	18402.71
468.038	17851.8
468.244	17204.64
468.449	18019.74
468.654	17526.18
468.859	17397.15
469.064	17249.7
469.269	16395.7
469.474	16719.28
469.679	16993.7
469.885	16469.42
470.09	16829.87
470.295	16491.95
470.5	16430.51
470.705	16307.63
470.91	16031.16
471.115	15844.79
471.32	16233.91
471.525	15738.3
471.73	15785.4
471.935	15463.87
472.139	15078.85
472.344	15046.09
472.549	15111.62
472.754	15033.8
472.959	14646.73
473.164	14112.21
473.369	14097.88
473.574	14781.9
473.778	14519.76
473.983	14382.54
474.188	14122.45
474.393	13549.02
474.598	13723.1
474.802	13356.51
475.007	13450.72
475.212	13450.72
475.417	12811.75
475.621	13006.31
475.826	13182.43
476.031	12652.01
476.235	12723.69
476.44	12582.38
476.645	12385.77
476.849	12357.1
477.054	12228.08
477.259	12064.24
477.463	12439.02
477.668	11726.33
477.872	11912.69
478.077	11965.94
478.282	11343.36
478.486	11480.57
478.691	11382.27
478.895	11300.35
479.1	11118.08
479.304	11326.97
479.509	10921.48
479.713	11136.51
479.918	10876.42
480.122	10823.17
480.326	10802.69
480.531	10833.41
480.735	10878.47
480.94	10626.57
481.144	10948.1
481.348	10544.65
481.553	10608.14
481.757	10255.89
481.961	10544.65
482.166	10765.83
482.37	10403.34
482.574	10389
482.778	10409.48
482.983	10513.93
483.187	10413.58
483.391	10612.23
483.595	10409.48
483.8	10405.39
484.004	10216.97
484.208	10464.78
484.412	10264.08
484.616	10335.76
484.821	10589.71
485.025	10253.84
485.229	10329.61
485.433	10446.35
485.637	10432.01
485.841	10380.81
486.045	10372.62
486.249	10292.75
486.453	10505.74
486.657	10503.69
486.861	10468.87
487.065	10124.82
487.269	10421.77
487.473	10194.45
487.677	10599.94
487.881	10540.55
488.085	10335.76
488.289	10380.81
488.493	10399.24
488.697	10563.08
488.901	10505.74
489.105	10432.01
489.309	10636.81
489.512	10448.4
489.716	10436.11
489.92	10735.11
490.124	10647.05
490.328	10720.78
490.531	10655.24
490.735	10620.42
490.939	10823.17
491.143	10569.23
491.346	10735.11
491.55	10853.89
491.754	10823.17
491.958	10972.68
492.161	10804.74
492.365	10913.28
492.569	10839.56
492.772	10982.92
492.976	11306.49
493.18	11259.39
493.383	11320.83
493.587	11263.49
493.79	11494.91
493.994	11245.06
494.197	11521.53
494.401	11466.24
494.605	11681.27
494.808	11838.97
495.012	11732.47
495.215	11826.68
495.419	12107.25
495.622	11820.53
495.825	11853.3
496.029	11879.93
496.232	12156.4
496.436	12260.85
496.639	12635.63
496.843	12424.69
497.046	12750.31
497.249	12762.6
497.453	12803.56
497.656	12942.82
497.859	12914.15
498.063	13293.02
498.266	13407.71
498.469	13487.58
498.673	13626.84
498.876	13888.98
499.079	14087.64
499.282	13968.85
499.485	14157.27
499.689	14040.53
499.892	14443.98
500.095	14374.35
500.298	14960.07
500.501	14824.9
500.705	15513.02
500.908	15388.1
501.111	15420.86
501.314	15644.09
501.517	15930.81
501.72	15912.38
501.923	15734.2
502.126	16055.73
502.329	16584.11
502.532	16784.81
502.735	16883.11
502.938	16911.78
503.141	17051.05
503.344	17317.28
503.547	17272.23
503.75	17675.68
503.953	17972.63
504.156	18191.77
504.359	17923.48
504.562	18271.64
504.765	18664.85
504.968	19144.07
505.17	18988.42
505.373	18904.46
505.576	19756.41
505.779	19643.77
505.982	19633.54
506.185	20196.73
506.387	19930.49
506.59	20561.26
506.793	20690.29
506.996	20690.29
507.198	21337.45
507.401	21372.26
507.604	21396.84
507.807	21738.85
508.009	21990.75
508.212	22355.29
508.415	22158.68
508.617	23039.31
508.82	22768.98
509.022	22852.94
509.225	23248.2
509.428	23207.24
509.63	23733.57
509.833	23631.17
510.035	24771.89
510.238	24352.06
510.44	24474.93
510.643	25193.77
510.845	25244.97
511.048	25064.75
511.25	25466.15
511.453	25546.02
511.655	26344.73
511.858	26086.68
512.06	26402.07
512.262	26897.68
512.465	26813.71
512.667	27036.94
512.87	27337.99
513.072	27391.24
513.274	28081.41
513.477	28357.88
513.679	28742.9
513.881	28853.49
514.084	29416.68
514.286	29009.14
514.488	29615.33
514.69	30297.31
514.893	30119.14
515.095	30399.71
515.297	30825.68
515.499	31038.67
515.701	31390.92
515.904	31671.5
516.106	31464.65
516.308	31974.59
516.51	32279.74
516.712	32140.48
516.914	32392.38
517.116	33594.54
517.318	33408.17
517.52	33717.42
517.722	33563.82
517.925	34270.37
518.127	34606.23
518.329	34966.68
518.531	34487.45
518.733	35437.71
518.935	35863.69
519.136	35650.7
519.338	35916.93
519.54	36336.77
519.742	36959.35
519.944	36818.04
520.146	37649.52
520.348	37694.57
520.55	37721.2
520.752	38083.69
520.954	38759.52
521.155	38378.59
521.357	39113.81
521.559	39111.77
521.761	39685.2
521.963	39529.55
522.164	39945.29
522.366	40150.09
522.568	40295.49
522.77	40903.74
522.971	41212.98
523.173	40774.72
523.375	41364.53
523.576	41528.37
523.778	41258.04
523.98	42505.25
524.181	42150.95
524.383	42718.24
524.584	43047.96
524.786	42824.73
524.988	42875.93
525.189	43580.43
525.391	43877.39
525.592	44129.29
525.794	44348.42
525.995	44428.29
526.197	44606.47
526.398	44329.99
526.6	44514.31
526.801	44547.07
527.003	45196.28
527.204	45179.9
527.406	45503.48
527.607	45646.83
527.808	45896.69
528.01	45538.29
528.211	45949.93
528.412	46527.46
528.614	46289.9
528.815	46390.25
529.016	46842.85
529.218	46396.39
529.419	47014.88
529.62	47070.17
529.822	46795.74
530.023	47082.46
530.224	47614.93
530.425	47086.56
530.626	47037.4
530.828	47057.88
531.029	47608.79
531.23	47623.12
531.431	47340.5
531.632	47436.76
531.833	47938.51
532.035	47344.6
532.236	47958.99
532.437	48268.23
532.638	47524.82
532.839	48225.23
533.04	48563.14
533.241	47516.63
533.442	48972.74
533.643	48149.45
533.844	48174.03
534.045	48454.6
534.246	47899.6
534.447	48575.43
534.648	47934.42
534.849	48288.71
535.05	48151.5
535.251	48495.56
535.451	48436.17
535.652	48536.52
535.853	48524.23
536.054	48585.67
536.255	48653.25
536.456	48088.01
536.657	48835.52
536.857	48677.83
537.058	48403.4
537.259	48894.91
537.46	48563.14
537.66	48384.97
537.861	48526.28
538.062	48315.34
538.263	48782.27
538.463	48536.52
538.664	48765.89
538.865	48569.29
539.065	48475.08
539.266	48620.48
539.466	48982.98
539.667	48204.75
539.868	49056.7
540.068	48540.61
540.269	48901.06
540.469	49159.1
540.67	48874.43
540.87	48223.18
541.071	48454.6
541.271	48726.98
541.472	48368.58
541.672	48358.34
541.873	47907.79
542.073	47709.14
542.274	48712.64
542.474	48100.3
542.675	48290.76
542.875	48612.29
543.075	48389.06
543.276	47965.13
543.476	48520.13
543.676	48260.04
543.877	48606.15
544.077	48137.16
544.277	47995.85
544.478	48483.27
544.678	48575.43
544.878	48243.66
545.078	48260.04
545.279	47872.98
545.479	47926.22
545.679	48165.84
545.879	48391.11
546.079	48417.74
546.28	47938.51
546.48	47729.62
546.68	48212.94
546.88	48305.1
547.08	48149.45
547.28	47850.45
547.48	47631.32
547.68	48393.16
547.88	48059.34
548.081	48376.78
548.281	47934.42
548.481	47662.04
548.681	48450.5
548.881	47963.09
549.081	48061.39
549.28	47619.03
549.48	48141.26
549.68	47651.8
549.88	48608.2
550.08	47735.76
550.28	48053.2
550.48	47487.96
550.68	48151.5
550.88	47514.58
551.08	47997.9
551.279	48303.05
551.479	47748.05
551.679	47920.08
551.879	47498.2
552.079	47973.33
552.278	47401.94
552.478	47799.25
552.678	47711.19
552.878	47911.89
553.077	47684.56
553.277	47311.83
553.477	47403.99
553.676	47354.84
553.876	47555.54
554.076	47383.51
554.275	47391.7
554.475	46990.3
554.674	47541.21
554.874	47639.51
555.074	47303.64
555.273	47473.62
555.473	47389.66
555.672	46937.05
555.872	47107.04
556.071	47465.43
556.271	47647.7
556.47	47139.8
556.67	46613.48
556.869	46752.74
557.068	46853.09
557.268	46511.08
557.467	46613.48
557.667	46799.84
557.866	46752.74
558.065	46582.76
558.265	46369.77
558.464	46046.19
558.663	46664.67
558.863	45886.45
559.062	46857.18
559.261	45906.93
559.461	46523.36
559.66	46060.52
559.859	46107.63
560.058	46035.95
560.258	46201.83
560.457	45622.26
560.656	45841.39
560.855	45630.45
561.054	45577.2
561.253	45038.59
561.453	45118.46
561.652	45759.47
561.851	45399.03
562.05	45505.52
562.249	45028.35
562.448	45276.15
562.647	45241.34
562.846	45138.94
563.045	44968.96
563.244	44467.2
563.443	45186.04
563.642	43850.77
563.841	44616.71
564.04	44117
564.239	44678.14
564.438	44418.05
564.637	44268.55
564.836	44366.85
565.035	43928.59
565.234	43928.59
565.432	43748.37
565.631	43750.42
565.83	43924.49
566.029	43289.62
566.228	43740.18
566.427	43383.83
566.625	43056.15
566.824	42880.03
567.023	43283.48
567.222	42654.75
567.42	43359.25
567.619	42576.93
567.818	42755.1
568.016	42632.22
568.215	43068.44
568.414	42630.18
568.612	42912.8
568.811	42044.46
569.01	42292.26
569.208	41462.83
569.407	42345.51
569.605	41548.85
569.804	42153
570.002	41374.77
570.201	41741.36
570.4	41413.68
570.598	41030.71
570.797	41262.13
570.995	40977.47
571.193	40543.3
571.392	41210.93
571.59	40999.99
571.789	40877.11
571.987	40647.74
572.186	40590.4
572.384	40254.53
572.582	40621.12
572.781	40647.74
572.979	39785.55
573.177	40127.56
573.376	39963.72
573.574	39558.22
573.772	39767.12
573.971	39373.91
574.169	39441.49
574.367	39375.95
574.565	39769.16
574.763	39150.68
574.962	39113.81
575.16	38798.43
575.358	38966.36
575.556	38941.78
575.754	39042.13
575.952	38364.26
576.151	38898.78
576.349	38141.03
576.547	38136.93
576.745	38376.55
576.943	38571.1
577.141	38202.47
577.339	38081.64
577.537	38282.34
577.735	37979.24
577.933	37327.99
578.131	37887.08
578.329	37223.54
578.527	37004.41
578.725	37375.09
578.923	37526.64
579.121	37178.48
579.319	36965.49
579.516	37147.76
579.714	37123.19
579.912	36672.64
580.11	36680.83
580.308	36668.54
580.506	36392.06
580.704	36048
580.901	36400.26
581.099	36359.3
581.297	35935.37
581.495	35841.16
581.692	36019.33
581.89	35714.19
582.088	36191.36
582.285	35380.37
582.483	35611.79
582.681	35406.99
582.878	35423.37
583.076	34935.96
583.274	35548.3
583.471	34712.73
583.669	35146.9
583.866	34847.89
584.064	34938.01
584.262	34350.24
584.459	34895
584.657	34272.42
584.854	34960.53
585.052	34319.52
585.249	34282.66
585.447	34495.64
585.644	33807.53
585.841	33934.5
586.039	34299.04
586.236	33969.32
586.434	33414.32
586.631	33672.36
586.828	33479.85
587.026	33373.36
587.223	33379.5
587.42	33313.97
587.618	33076.4
587.815	32836.79
588.012	32744.63
588.21	32736.44
588.407	32732.34
588.604	32724.15
588.801	32322.75
588.999	32820.41
589.196	32117.95
589.393	32406.72
589.59	32349.37
589.787	32058.56
589.984	32025.79
590.182	31673.54
590.379	32068.8
590.576	31730.89
590.773	31673.54
590.97	31614.15
591.167	31780.04
591.364	31280.33
591.561	31356.11
591.758	31212.75
591.955	30960.85
592.152	31198.41
592.349	30702.81
592.546	31167.7
592.743	30770.39
592.94	30475.48
593.137	30667.99
593.334	30065.89
593.531	30487.77
593.727	30444.76
593.924	30352.6
594.121	29998.3
594.318	30067.94
594.515	30031.07
594.712	30170.33
594.908	30072.03
595.105	29816.04
595.302	29342.95
595.499	29650.15
595.696	29431.02
595.892	29441.26
596.089	29664.49
596.286	29388.01
596.482	29709.54
596.679	29025.52
596.876	28869.87
597.072	28925.17
597.269	28861.68
597.466	28593.4
597.662	28398.84
597.859	28802.29
598.055	28429.56
598.252	28204.28
598.448	28644.6
598.645	28054.78
598.841	28071.17
599.038	28155.13
599.234	27946.24
599.431	27882.75
599.627	27817.22
599.824	27772.16
600.02	27057.42
600.217	27712.77
600.413	27415.82
600.609	27335.95
600.806	27188.49
601.002	27485.45
601.198	27270.41
601.395	27127.05
601.591	26955.02
601.787	27049.23
601.984	26969.36
602.18	26891.54
602.376	26615.06
602.572	26662.16
602.769	26582.29
602.965	26072.35
603.161	26346.78
603.357	26281.24
603.553	26254.62
603.75	26236.19
603.946	26281.24
604.142	26141.98
604.338	25691.43
604.534	25896.22
604.73	25926.94
604.926	25580.84
605.122	25697.57
605.318	25261.35
605.514	25509.16
605.71	25290.02
605.906	25597.22
606.102	25034.03
606.298	25048.36
606.494	25204.01
606.69	25314.6
606.886	24991.02
607.082	24818.99
607.278	25087.28
607.474	24542.52
607.67	24933.68
607.866	24333.62
608.062	24855.86
608.257	24601.91
608.453	24462.65
608.649	24411.45
608.845	24046.91
609.041	24354.1
609.236	24479.03
609.432	24102.2
609.628	24552.76
609.824	24317.24
610.019	23844.16
610.215	23809.34
610.411	24149.31
610.606	24005.95
610.802	23756.1
610.998	23723.33
611.193	23889.21
611.389	23553.35
611.584	23539.01
611.78	23600.45
611.976	23350.6
612.171	23485.76
612.367	23407.94
612.562	23301.45
612.758	23160.14
612.953	22975.82
613.149	23274.82
613.344	22758.74
613.539	23299.4
613.735	22779.22
613.93	23178.57
614.126	22854.99
614.321	23258.44
614.517	22713.68
614.712	22826.32
614.907	22533.46
615.103	22553.94
615.298	22842.7
615.493	23002.44
615.688	22816.08
615.884	22777.17
616.079	22158.68
616.274	22719.82
616.47	22529.36
616.665	22752.59
616.86	22203.74
617.055	22457.68
617.25	22127.96
617.445	22228.31
617.641	21732.7
617.836	22127.96
618.031	21517.67
618.226	22140.25
618.421	21826.91
618.616	22115.67
618.811	21402.98
619.006	21988.7
619.201	21380.45
619.396	21697.89
619.591	21298.53
619.786	21351.78
619.981	21134.7
620.176	21259.62
620.371	20890.99
620.566	20970.86
620.761	20778.35
620.956	21054.83
621.151	20690.29
621.346	20698.48
621.541	20280.69
621.735	20370.8
621.93	20407.67
622.125	20288.89
622.32	20137.34
622.515	20088.18
622.709	19996.03
622.904	19791.23
623.099	19393.92
623.294	19731.84
623.488	19613.06
623.683	19664.25
623.878	19338.63
624.072	19279.24
624.267	19361.16
624.462	19135.88
624.656	19076.49
624.851	18802.06
625.046	18886.03
625.24	18722.19
625.435	18206.1
625.629	18550.16
625.824	18271.64
626.018	18234.77
626.213	18107.8
626.407	18193.81
626.602	17855.9
626.796	18025.88
626.991	17984.92
627.185	17718.68
627.38	17542.56
627.574	17567.13
627.768	17132.97
627.963	17464.74
628.157	17206.69
628.352	17376.67
628.546	17046.95
628.74	16965.03
628.935	16985.51
629.129	16885.16
629.323	16725.42
629.517	16706.99
629.712	16512.43
629.906	16137.65
630.1	16426.42
630.294	16229.81
630.489	16045.49
630.683	16111.03
630.877	15973.81
631.071	16272.82
631.265	15846.84
631.459	15764.92
631.653	15752.63
631.848	15617.47
632.042	15449.53
632.236	15691.2
632.43	15297.99
632.624	15361.47
632.818	15443.39
633.012	14863.82
633.206	15080.9
633.4	14917.06
633.594	14775.75
633.788	14908.87
633.982	14861.77
634.176	14693.83
634.369	14802.38
634.563	14675.4
634.757	14685.64
634.951	14486.99
635.145	14333.39
635.339	14290.38
635.533	14134.74
635.726	14073.3
635.92	13825.5
636.114	14212.56
636.308	13891.03
636.501	13882.84
636.695	13694.43
636.889	13495.77
637.083	13481.44
637.276	13370.85
637.47	13395.42
637.664	13290.98
637.857	13391.33
638.051	13188.58
638.244	13272.54
638.438	13120.99
638.632	13082.08
638.825	12914.15
639.019	12887.53
639.212	12856.81
639.406	12836.33
639.599	12887.53
639.793	12903.91
639.986	12791.27
640.18	12406.25
640.373	12475.88
640.567	12420.59
640.76	12496.36
640.954	12101.11
641.147	12232.18
641.34	12137.97
641.534	12084.72
641.727	11863.54
641.92	11947.51
642.114	11818.49
642.307	11775.48
642.5	11709.94
642.694	11470.33
642.887	11699.7
643.08	11750.9
643.273	11542.01
643.467	11472.38
643.66	11259.39
643.853	11210.24
644.046	11169.28
644.239	11390.46
644.432	10927.62
644.626	10976.77
644.819	10896.9
645.012	10952.2
645.205	10903.04
645.398	10790.41
645.591	10679.82
645.784	10774.02
645.977	10546.7
646.17	10604.04
646.363	10601.99
646.556	10296.85
646.749	10481.16
646.942	10464.78
647.135	10302.99
647.328	10311.18
647.521	10255.89
647.714	9946.64
647.907	10274.32
648.099	9938.45
648.292	10055.19
648.485	10141.2
648.678	9754.13
648.871	9801.24
649.064	9733.65
649.256	9791
649.449	9475.61
649.642	9616.92
649.835	9502.23
650.027	9741.85
650.22	9516.57
650.413	9514.52
650.605	9287.2
650.798	9457.18
650.991	9313.82
651.183	9494.04
651.376	9229.85
651.568	9387.55
651.761	8967.71
651.954	9322.01
652.146	8949.28
652.339	8928.8
652.531	8936.99
652.724	8732.2
652.916	8662.57
653.109	8719.91
653.301	8863.27
653.494	8812.07
653.686	8533.54
653.879	8744.49
654.071	8609.32
654.263	8554.02
654.456	8410.67
654.648	8541.74
654.84	8576.55
655.033	8511.02
655.225	8414.76
655.417	8375.85
655.61	8345.13
655.802	8304.17
655.994	8121.9
656.186	8117.81
656.379	7958.07
656.571	8001.07
656.763	8154.67
656.955	7894.58
657.148	8205.87
657.34	7978.54
657.532	7800.37
657.724	7724.6
657.916	7880.24
658.108	7796.28
658.3	7693.88
658.492	7622.2
658.684	7591.48
658.876	7693.88
659.068	7339.58
659.26	7427.64
659.452	7425.59
659.644	7466.55
659.836	7523.9
660.028	7456.31
660.22	7280.19
660.412	7241.28
660.604	7181.89
660.796	7290.43
660.988	7360.06
661.18	7122.49
661.372	7151.17
661.563	7122.49
661.755	7020.1
661.947	7222.84
662.139	6999.62
662.331	6929.98
662.522	7018.05
662.714	7011.9
662.906	6702.66
663.097	6927.94
663.289	6860.35
663.481	6807.11
663.673	6540.87
663.864	6729.28
664.056	6596.17
664.247	6534.73
664.439	6557.25
664.631	6663.75
664.822	6676.04
665.014	6563.4
665.205	6512.2
665.397	6436.42
665.588	6587.97
665.78	6313.55
665.971	6313.55
666.163	6413.9
666.354	6362.7
666.546	6348.36
666.737	6303.31
666.929	6213.2
667.12	6301.26
667.311	6200.91
667.503	6225.48
667.694	6100.56
667.885	6190.67
668.077	6162
668.268	6055.5
668.459	6147.66
668.651	6102.61
668.842	6018.64
669.033	5992.02
669.224	5899.86
669.416	5928.53
669.607	6065.74
669.798	5758.55
669.989	5922.38
670.18	6000.21
670.371	5965.39
670.563	5754.45
670.754	5926.48
670.945	5914.19
671.136	5830.23
671.327	5912.14
671.518	5852.75
671.709	5897.81
671.9	5748.31
672.091	5811.79
672.282	5566.04
672.473	5533.27
672.664	5803.6
672.855	5598.81
673.046	5580.37
673.237	5779.03
673.428	5813.84
673.619	5740.12
673.809	5492.31
674	5643.86
674.191	5578.33
674.382	5596.76
674.573	5432.92
674.764	5457.5
674.954	5494.36
675.145	5611.09
675.336	5598.81
675.527	5557.85
675.717	5566.04
675.908	5426.78
676.099	5588.57
676.289	5508.69
676.48	5477.98
676.671	5285.47
676.861	5527.13
677.052	5516.89
677.243	5219.93
677.433	5301.85
677.624	5453.4
677.814	5445.21
678.005	5408.34
678.195	5629.52
678.386	5428.82
678.576	5439.06
678.767	5398.1
678.957	5387.86
679.148	5600.85
679.338	5498.45
679.529	5295.71
679.719	5467.74
679.909	5623.38
680.1	5480.02
680.29	5414.49
680.481	5301.85
680.671	5455.45
680.861	5146.2
681.052	5365.34
681.242	5363.29
681.432	5287.51
681.622	5363.29
681.813	5312.09
682.003	5391.96
682.193	5123.68
682.383	5566.04
682.573	5359.19
682.764	5273.18
682.954	5307.99
683.144	5402.2
683.334	5371.48
683.524	5346.91
683.714	5307.99
683.904	5281.37
684.094	5295.71
684.284	5310.04
684.474	5291.61
684.664	5293.66
684.854	5344.86
685.044	5316.19
685.234	5189.21
685.424	5181.02
685.614	5131.87
685.804	5183.07
685.994	5242.46
686.184	5226.07
686.374	5178.97
686.564	4959.84
686.753	5133.92
686.943	4986.46
687.133	5078.62
687.323	5092.96
687.513	5092.96
687.702	4949.6
687.892	4959.84
688.082	5047.9
688.272	5121.63
688.461	4884.06
688.651	4972.13
688.841	4826.72
689.03	4859.49
689.22	4730.47
689.41	4814.43
689.599	4591.2
689.789	4853.34
689.979	4707.94
690.168	4609.64
690.358	4851.3
690.547	4691.56
690.737	4640.36
690.926	4718.18
691.116	4550.25
691.305	4630.12
691.495	4707.94
691.684	4531.81
691.874	4572.77
692.063	4677.22
692.252	4623.97
692.442	4603.49
692.631	4437.61
692.82	4529.77
693.01	4464.23
693.199	4353.64
693.388	4277.87
693.578	4322.92
693.767	4396.65
693.956	4247.15
694.146	4370.02
694.335	4238.95
694.524	4384.36
694.713	4339.3
694.902	4253.29
695.092	4341.35
695.281	4292.2
695.47	4136.56
695.659	4103.79
695.848	4265.58
696.037	4216.43
696.226	4181.61
696.415	4134.51
696.604	4116.08
696.793	4128.36
696.982	4154.99
697.171	4208.23
697.36	4042.35
697.549	4138.6
697.738	3999.34
697.927	3978.86
698.116	4157.04
698.305	4083.31
698.494	4161.13
698.683	4085.36
698.872	4154.99
699.061	4091.5
699.25	4185.71
699.438	4042.35
699.627	4064.88
699.816	4025.97
700.005	4134.51
700.193	4118.12
700.382	4267.63
700.571	4279.91
700.76	4050.54
700.948	4130.41
701.137	4183.66
701.326	4066.92
701.514	4152.94
701.703	4109.93
701.892	4146.8
702.08	4173.42
702.269	4075.12
702.457	4085.36
702.646	3946.09
702.834	4095.6
703.023	4150.89
703.212	4161.13
703.4	4154.99
703.589	4001.39
703.777	4071.02
703.965	4062.83
704.154	4042.35
704.342	4054.64
704.531	4046.44
704.719	4124.27
704.907	4140.65
705.096	4003.44
705.284	4091.5
705.472	4189.8
705.661	4038.25
705.849	4128.36
706.037	4175.47
706.226	4048.49
706.414	4103.79
706.602	4091.5
706.79	4144.75
706.979	4169.32
707.167	4169.32
707.355	4124.27
707.543	4165.23
707.731	4343.4
707.919	4150.89
708.107	4212.33
708.296	4017.77
708.484	4169.32
708.672	4241
708.86	4169.32
709.048	4224.62
709.236	4208.23
709.424	4257.39
709.612	4111.98
709.8	4148.84
709.988	4177.51
710.176	4349.54
710.364	4267.63
710.551	4288.11
710.739	4167.28
710.927	4218.47
711.115	4245.1
711.303	4181.61
711.491	4241
711.679	4304.49
711.866	4294.25
712.054	4329.06
712.242	4224.62
712.43	4257.39
712.617	4208.23
712.805	4351.59
712.993	4091.5
713.181	4159.08
713.368	4222.57
713.556	4515.43
713.744	4228.71
713.931	4372.07
714.119	4337.26
714.306	4296.3
714.494	4222.57
714.682	4327.02
714.869	4370.02
715.057	4394.6
715.244	4288.11
715.432	4488.81
715.619	4413.03
715.807	4419.18
715.994	4347.5
716.182	4507.24
716.369	4423.27
716.556	4339.3
716.744	4255.34
716.931	4286.06
717.119	4392.55
717.306	4425.32
717.493	4322.92
717.681	4367.98
717.868	4474.47
718.055	4441.7
718.242	4398.7
718.43	4492.9
718.617	4390.5
718.804	4505.19
718.991	4413.03
719.179	4574.82
719.366	4408.94
719.553	4576.87
719.74	4413.03
719.927	4533.86
720.114	4523.62
720.301	4445.8
720.488	4413.03
720.676	4347.5
720.863	4566.63
721.05	4673.12
721.237	4613.73
721.424	4353.64
721.611	4544.1
721.798	4447.85
721.985	4488.81
722.172	4462.18
722.358	4519.53
722.545	4548.2
722.732	4603.49
722.919	4593.25
723.106	4636.26
723.293	4468.33
723.48	4433.51
723.667	4640.36
723.853	4593.25
724.04	4671.08
724.227	4542.05
724.414	4587.11
724.6	4462.18
724.787	4578.92
724.974	4683.36
725.161	4593.25
725.347	4601.44
725.534	4675.17
725.72	4599.4
725.907	4701.79
726.094	4746.85
726.28	4632.16
726.467	4517.48
726.653	4550.25
726.84	4724.32
727.027	4648.55
727.213	4525.67
727.4	4673.12
727.586	4570.72
727.773	4669.03
727.959	4765.28
728.145	4656.74
728.332	4701.79
728.518	4765.28
728.705	4640.36
728.891	4724.32
729.077	4501.09
729.264	4599.4
729.45	4673.12
729.636	4746.85
729.823	4689.51
730.009	4644.45
730.195	4630.12
730.382	4619.88
730.568	4783.71
730.754	4849.25
730.94	4603.49
731.126	4646.5
731.313	4650.6
731.499	4816.48
731.685	4689.51
731.871	4744.8
732.057	4761.19
732.243	4755.04
732.429	4681.32
732.615	4693.6
732.801	4685.41
732.987	4716.13
733.173	4662.88
733.359	4691.56
733.545	4726.37
733.731	4755.04
733.917	4746.85
734.103	4779.62
734.289	4841.06
734.475	4732.51
734.661	4740.71
734.847	4730.47
735.033	4863.58
735.219	4605.54
735.404	4724.32
735.59	4726.37
735.776	4677.22
735.962	4654.69
736.148	4851.3
736.333	4546.15
736.519	4755.04
736.705	4675.17
736.89	4550.25
737.076	4697.7
737.262	4597.35
737.447	4836.96
737.633	4611.68
737.819	4611.68
738.004	4558.44
738.19	4560.49
738.375	4560.49
738.561	4630.12
738.747	4511.33
738.932	4511.33
739.118	4476.52
739.303	4599.4
739.489	4540.01
739.674	4617.83
739.859	4427.37
740.045	4566.63
740.23	4564.58
740.416	4445.8
740.601	4468.33
740.786	4458.09
740.972	4384.36
741.157	4445.8
741.342	4230.76
741.528	4486.76
741.713	4408.94
741.898	4425.32
742.084	4322.92
742.269	4404.84
742.454	4392.55
742.639	4396.65
742.824	4236.91
743.01	4406.89
743.195	4324.97
743.38	4316.78
743.565	4232.81
743.75	4292.2
743.935	4154.99
744.12	4320.87
744.305	4169.32
744.49	4142.7
744.675	4165.23
744.86	4099.69
745.045	4140.65
745.23	4060.78
745.415	4107.88
745.6	4079.21
745.785	4111.98
745.97	4111.98
746.155	4073.07
746.34	4040.3
746.525	3898.99
746.71	4114.03
746.895	3825.26
747.079	3950.19
747.264	4021.87
747.449	3821.17
747.634	4017.77
747.819	3743.35
748.003	3853.94
748.188	3759.73
748.373	3796.59
748.557	3688.05
748.742	3726.96
748.927	3616.37
749.111	3733.11
749.296	3583.6
749.481	3665.52
749.665	3667.57
749.85	3538.55
750.034	3599.99
750.219	3466.87
750.404	3483.25
750.588	3563.12
750.773	3407.48
750.957	3315.32
751.141	3436.15
751.326	3462.77
751.51	3479.16
751.695	3350.14
751.879	3323.51
752.064	3262.07
752.248	3364.47
752.432	3266.17
752.617	3217.02
752.801	3331.7
752.985	3126.91
753.17	3200.63
753.354	3200.63
753.538	3165.82
753.722	3153.53
753.907	3085.95
754.091	3092.09
754.275	2950.78
754.459	3022.46
754.643	2895.49
754.828	3010.17
755.012	3001.98
755.196	2961.02
755.38	2854.53
755.564	2913.92
755.748	2895.49
755.932	2784.9
756.116	2887.29
756.3	2891.39
756.484	2821.76
756.668	2754.18
756.852	2688.64
757.036	2729.6
757.22	2768.51
757.404	2635.39
757.588	2709.12
757.772	2698.88
757.956	2639.49
758.14	2694.79
758.323	2508.42
758.507	2510.47
758.691	2537.09
758.875	2557.57
759.059	2559.62
759.242	2492.04
759.426	2420.36
759.61	2434.69
759.794	2360.97
759.977	2473.6
760.161	2526.85
760.345	2309.77
760.528	2424.45
760.712	2393.73
760.895	2410.12
761.079	2469.51
761.263	2354.82
761.446	2332.3
761.63	2340.49
761.813	2389.64
761.997	2309.77
762.18	2197.13
762.364	2311.82
762.547	2264.71
762.731	2246.28
762.914	2219.66
763.098	2170.51
763.281	2217.61
763.464	2127.5
763.648	2268.81
763.831	2156.17
764.015	2117.26
764.198	2158.22
764.381	2129.55
764.564	2129.55
764.748	2182.79
764.931	2107.02
765.114	2074.25
765.297	2119.31
765.481	2104.97
765.664	2014.86
765.847	2059.92
766.03	2039.44
766.213	2051.72
766.397	1906.32
766.58	2068.11
766.763	1926.8
766.946	1965.71
767.129	1926.8
767.312	1920.65
767.495	1941.13
767.678	1941.13
767.861	1967.76
768.044	1912.46
768.227	2070.16
768.41	2043.53
768.593	1967.76
768.776	1961.61
768.959	1791.63
769.142	1945.23
769.324	1846.93
769.507	1949.32
769.69	1832.59
769.873	1838.73
770.056	1912.46
770.239	1762.96
770.421	1838.73
770.604	1822.35
770.787	1879.69
770.97	1738.38
771.152	1674.9
771.335	1793.68
771.518	1607.31
771.7	1791.63
771.883	1775.25
772.066	1775.25
772.248	1625.75
772.431	1724.05
772.613	1633.94
772.796	1678.99
772.978	1672.85
773.161	1693.33
773.343	1625.75
773.526	1629.84
773.708	1642.13
773.891	1674.9
774.073	1678.99
774.256	1494.68
774.438	1609.36
774.621	1547.92
774.803	1463.96
774.985	1486.48
775.168	1609.36
775.35	1386.13
775.532	1488.53
775.715	1470.1
775.897	1560.21
776.079	1455.76
776.261	1480.34
776.444	1506.96
776.626	1418.9
776.808	1365.65
776.99	1365.65
777.173	1343.13
777.355	1326.74
777.537	1433.24
777.719	1443.48
777.901	1175.19
778.083	1298.07
778.265	1167
778.447	1406.61
778.629	1293.97
778.811	1339.03
778.993	1320.6
779.175	1339.03
779.357	1328.79
779.539	1142.43
779.721	1240.73
779.903	1232.54
780.085	1228.44
780.267	1291.93
780.449	1212.06
780.631	1210.01
780.812	1201.82
780.994	1226.39
781.176	1250.97
781.358	1134.23
781.54	1154.71
781.721	1242.78
781.903	1144.47
782.085	1175.19
782.267	1130.14
782.448	1011.36
782.63	1054.36
782.812	1103.51
782.993	1023.64
783.175	1136.28
783.357	1011.36
783.538	1044.12
783.72	929.44
783.901	990.88
784.083	1123.99
784.264	1027.74
784.446	954.01
784.627	902.81
784.809	1046.17
784.99	954.01
785.172	1023.64
785.353	939.68
785.535	857.76
785.716	847.52
785.897	829.09
786.079	1027.74
786.26	947.87
786.441	960.16
786.623	970.4
786.804	833.18
786.985	1007.26
787.167	800.41
787.348	781.98
787.529	872.09
787.71	892.57
787.891	851.61
788.073	812.7
788.254	863.9
788.435	906.91
788.616	859.81
788.797	743.07
788.978	769.69
789.159	880.29
789.34	757.41
789.522	868
789.703	767.65
789.884	745.12
790.065	806.56
790.246	816.8
790.427	800.41
790.607	800.41
790.788	757.41
790.969	693.92
791.15	685.73
791.331	710.3
791.512	716.45
791.693	732.83
791.874	798.37
792.054	730.78
792.235	734.88
792.416	642.72
792.597	652.96
792.778	638.62
792.958	763.55
793.139	710.3
793.32	675.49
793.5	614.05
793.681	675.49
793.862	648.86
794.042	648.86
794.223	585.38
794.404	614.05
794.584	605.86
794.765	554.66
794.945	562.85
795.126	648.86
795.306	642.72
795.487	732.83
795.667	601.76
795.848	560.8
796.028	671.39
796.209	595.62
796.389	657.06
796.57	636.58
796.75	562.85
796.93	599.71
797.111	437.92
797.291	652.96
797.471	597.67
797.652	585.38
797.832	579.23
798.012	530.08
798.192	544.42
798.373	532.13
798.553	485.03
798.733	601.76
798.913	546.47
799.093	519.84
799.274	458.4
799.454	536.23
799.634	480.93
799.814	556.71
799.994	544.42
800.174	509.6
800.354	595.62
800.534	536.23
800.714	544.42
800.894	485.03
801.074	462.5
801.254	470.69
801.434	536.23
801.614	464.55
801.794	505.51
801.974	1396.37
802.154	478.88
802.334	495.27
802.514	409.25
802.693	351.91
802.873	466.6
803.053	540.32
803.233	474.79
803.413	458.4
803.592	433.83
803.772	468.64
803.952	505.51
804.131	394.92
804.311	554.66
804.491	476.84
804.67	437.92
804.85	374.44
805.03	507.55
805.209	495.27
805.389	417.44
805.568	460.45
805.748	339.62
805.928	487.08
806.107	468.64
806.287	399.01
806.466	503.46
806.646	358.05
806.825	507.55
807.004	341.67
807.184	394.92
807.363	462.5
807.543	429.73
807.722	388.77
807.901	421.54
808.081	446.12
808.26	306.85
808.439	380.58
808.619	401.06
808.798	380.58
808.977	413.35
809.156	380.58
809.336	356.01
809.515	417.44
809.694	310.95
809.873	313
810.052	333.48
810.231	446.12
810.411	331.43
810.59	380.58
810.769	292.52
810.948	396.96
811.127	323.24
811.306	345.77
811.485	421.54
811.664	356.01
811.843	349.86
812.022	413.35
812.201	362.15
812.38	368.29
812.559	292.52
812.737	351.91
812.916	298.66
813.095	339.62
813.274	374.44
813.453	364.2
813.632	341.67
813.811	286.37
813.989	249.51
814.168	337.57
814.347	351.91
814.526	259.75
814.704	360.1
814.883	351.91
815.062	315.05
815.24	339.62
815.419	235.18
815.598	323.24
815.776	278.18
815.955	298.66
816.133	259.75
816.312	315.05
816.49	304.81
816.669	294.57
816.847	335.53
817.026	310.95
817.204	269.99
817.383	208.55
817.561	306.85
817.74	339.62
817.918	325.29
818.097	241.32
818.275	265.89
818.453	331.43
818.632	269.99
818.81	331.43
818.988	239.27
819.167	267.94
819.345	267.94
819.523	261.8
819.701	282.28
819.879	284.33
820.058	274.09
820.236	226.98
820.414	286.37
820.592	274.09
820.77	261.8
820.948	224.94
821.127	245.41
821.305	282.28
821.483	259.75
821.661	282.28
821.839	274.09
822.017	169.64
822.195	181.93
822.373	253.61
822.551	261.8
822.729	261.8
822.907	151.21
823.085	288.42
823.262	214.7
823.44	249.51
823.618	196.26
823.796	179.88
823.974	190.12
824.152	224.94
824.329	274.09
824.507	143.02
824.685	269.99
824.863	226.98
825.04	224.94
825.218	229.03
825.396	177.83
825.574	251.56
825.751	235.18
825.929	224.94
826.107	237.22
826.284	167.59
826.462	194.22
826.639	145.06
826.817	183.98
826.994	239.27
827.172	153.26
827.349	300.71
827.527	269.99
827.704	224.94
827.882	202.41
828.059	208.55
828.237	175.78
828.414	249.51
828.591	106.15
828.769	183.98
828.946	136.87
829.124	233.13
829.301	259.75
829.478	159.4
829.655	140.97
829.833	224.94
830.01	104.11
830.187	175.78
830.364	181.93
830.542	159.4
830.719	237.22
830.896	194.22
831.073	138.92
831.25	167.59
831.427	179.88
831.604	196.26
831.782	151.21
831.959	241.32
832.136	196.26
832.313	206.5
832.49	196.26
832.667	198.31
832.844	138.92
833.021	235.18
833.198	200.36
833.374	212.65
833.551	257.7
833.728	165.54
833.905	143.02
834.082	73.39
834.259	175.78
834.436	175.78
834.612	192.17
834.789	169.64
834.966	167.59
835.143	102.06
835.319	65.19
835.496	241.32
835.673	179.88
835.85	161.45
836.026	196.26
836.203	147.11
836.38	79.53
836.556	106.15
836.733	147.11
836.909	269.99
837.086	138.92
837.262	112.3
837.439	167.59
837.616	126.63
837.792	175.78
837.968	81.58
838.145	120.49
838.321	122.54
838.498	145.06
838.674	183.98
838.851	143.02
839.027	93.87
839.203	175.78
839.38	265.89
839.556	161.45
839.732	177.83
839.909	177.83
840.085	155.3
840.261	93.87
840.437	136.87
840.614	192.17
840.79	167.59
840.966	134.82
841.142	83.63
841.318	108.2
841.494	151.21
841.671	261.8
841.847	126.63
842.023	63.15
842.199	161.45
842.375	126.63
842.551	48.81
842.727	118.44
842.903	210.6
843.079	126.63
843.255	161.45
843.431	169.64
843.607	153.26
843.783	38.57
843.959	73.39
844.134	30.38
844.31	163.5
844.486	128.68
844.662	126.63
844.838	153.26
845.013	202.41
845.189	110.25
845.365	140.97
845.541	91.82
845.716	118.44
845.892	124.58
846.068	40.62
846.244	16.04
846.419	63.15
846.595	177.83
846.77	38.57
846.946	159.4
847.122	1.71
847.297	83.63
847.473	126.63
847.648	75.43
847.824	175.78
847.999	16.04
848.175	73.39
848.35	138.92
848.526	179.88
848.701	54.95
848.876	48.81
849.052	116.39
849.227	34.47
849.403	122.54
849.578	100.01
849.753	147.11
849.929	102.06
850.104	97.96
850.279	5.8
850.454	97.96
850.63	69.29
850.805	134.82
850.98	181.93
851.155	42.67
851.33	159.4
851.505	20.14
851.681	110.25
851.856	18.09
852.031	136.87
852.206	126.63
852.381	79.53
852.556	118.44
852.731	91.82
852.906	126.63
853.081	138.92
853.256	190.12
853.431	83.63
853.606	116.39
853.781	3.75
853.956	83.63
854.131	40.62
854.305	89.77
854.48	83.63
854.655	54.95
854.83	67.24
855.005	85.67
855.18	93.87
855.354	42.67
855.529	59.05
855.704	118.44
855.879	57
856.053	13.99
856.228	34.47
856.403	77.48
856.577	93.87
856.752	28.33
856.926	97.96
857.101	36.52
857.276	34.47
857.45	95.91
857.625	75.43
857.799	52.91
857.974	95.91
858.148	28.33
858.323	110.25
858.497	106.15
858.672	38.57
858.846	-12.63
859.02	118.44
859.195	85.67
859.369	81.58
859.543	52.91
859.718	22.19
859.892	77.48
860.066	67.24
860.241	1.71
860.415	59.05
860.589	32.43
860.763	20.14
860.938	34.47
861.112	59.05
861.286	83.63
861.46	87.72
861.634	50.86
861.808	63.15
861.982	20.14
862.157	5.8
862.331	-10.58
862.505	54.95
862.679	24.23
862.853	-4.44
863.027	69.29
863.201	175.78
863.375	26.28
863.549	5.8
863.722	73.39
863.896	130.73
864.07	11.95
864.244	44.71
864.418	79.53
864.592	13.99
864.766	83.63
864.939	-29.01
865.113	120.49
865.287	106.15
865.461	28.33
865.634	108.2
865.808	61.1
865.982	36.52
866.156	5.8
866.329	44.71
866.503	30.38
866.676	44.71
866.85	95.91
867.024	54.95
867.197	93.87
867.371	57
867.544	65.19
867.718	38.57
867.891	126.63
868.065	11.95
868.238	85.67
868.412	81.58
868.585	46.76
868.759	44.71
868.932	-8.53
869.105	52.91
869.279	36.52
869.452	54.95
869.625	120.49
869.799	-29.01
869.972	38.57
870.145	77.48
870.319	100.01
870.492	20.14
870.665	77.48
870.838	40.62
871.011	-49.49
871.185	108.2
871.358	-10.58
871.531	77.48
871.704	52.91
871.877	52.91
872.05	24.23
872.223	20.14
872.396	77.48
872.569	36.52
872.742	-0.34
872.915	81.58
873.088	16.04
873.261	1.71
873.434	63.15
873.607	100.01
873.78	159.4
873.953	-0.34
874.126	136.87
874.299	112.3
874.471	24.23
874.644	59.05
874.817	13.99
874.99	85.67
875.163	44.71
875.335	52.91
875.508	38.57
875.681	36.52
875.853	20.14
876.026	54.95
876.199	9.9
876.371	16.04
876.544	-53.59
876.717	61.1
876.889	30.38
877.062	54.95
877.234	-47.44
877.407	13.99
877.579	42.67
877.752	75.43
877.924	104.11
878.097	104.11
878.269	13.99
878.442	102.06
878.614	67.24
878.786	59.05
878.959	38.57
879.131	22.19
879.303	-0.34
879.476	57
879.648	32.43
879.82	-41.3
879.993	52.91
880.165	38.57
880.337	7.85
880.509	3.75
880.681	-20.82
880.854	57
881.026	34.47
881.198	83.63
881.37	30.38
881.542	44.71
881.714	46.76
881.886	-26.96
882.058	95.91
882.23	87.72
882.402	7.85
882.574	71.34
882.746	89.77
882.918	81.58
883.09	42.67
883.262	-14.68
883.434	73.39
883.606	-12.63
883.778	44.71
883.95	63.15
884.122	-20.82
884.293	18.09
884.465	-41.3
884.637	93.87
884.809	36.52
884.98	79.53
885.152	85.67
885.324	67.24
885.496	-20.82
885.667	-24.92
885.839	-47.44
886.011	153.26
886.182	77.48
886.354	71.34
886.525	57
886.697	44.71
886.869	-14.68
887.04	65.19
887.212	81.58
887.383	89.77
887.555	11.95
887.726	-2.39
887.897	-45.4
888.069	18.09
888.24	79.53
888.412	-47.44
888.583	44.71
888.754	59.05
888.926	-4.44
889.097	46.76
889.268	59.05
889.44	-6.49
889.611	-20.82
889.782	-35.16
889.953	30.38
890.125	85.67
890.296	73.39
890.467	44.71
890.638	65.19
890.809	48.81
890.98	36.52
891.151	-16.73
891.323	104.11
891.494	30.38
891.665	50.86
891.836	54.95
892.007	48.81
892.178	24.23
892.349	7.85
892.52	26.28
892.691	-4.44
892.862	9.9
893.032	16.04
893.203	54.95
893.374	30.38
893.545	69.29
893.716	-2.39
893.887	87.72
894.057	50.86
894.228	46.76
894.399	32.43
894.57	-8.53
894.74	-8.53
894.911	44.71
895.082	34.47
895.253	16.04
895.423	73.39
895.594	69.29
895.764	-4.44
895.935	-45.4
896.106	20.14
896.276	20.14
896.447	13.99
896.617	16.04
896.788	46.76
896.958	11.95
897.129	-10.58
897.299	5.8
897.47	102.06
897.64	114.34
897.81	3.75
897.981	46.76
898.151	85.67
898.322	106.15
898.492	71.34
898.662	22.19
898.832	-10.58
899.003	-4.44
899.173	65.19
899.343	61.1
899.513	-78.16
