Data from USB4F104151__78__13-06-08-039.txt Node

Date: Fri Mar 14 13:06:08 EDT 2025
User: louis
Spectrometer: USB4F10415
Trigger mode: 4
Integration Time (sec): 4.000000E-2
Scans to average: 1
Electric dark correction enabled: true
Nonlinearity correction enabled: false
Boxcar width: 0
XAxis mode: Wavelengths
Number of Pixels in Spectrum: 3648
>>>>>Begin Spectral Data<<<<<
178.204	-203.77
178.424	-203.77
178.644	-203.77
178.864	-177.15
179.084	-162.81
179.304	-9.22
179.524	-29.7
179.744	1.02
179.964	3.07
180.184	5.12
180.404	44.03
180.624	25.6
180.844	19.46
181.064	-44.03
181.283	48.13
181.503	-33.79
181.723	-29.7
181.943	-35.84
182.163	52.22
182.383	91.13
182.602	64.51
182.822	115.71
183.042	64.51
183.262	23.55
183.482	1.02
183.701	-29.7
183.921	-3.07
184.141	-13.31
184.361	68.61
184.58	9.22
184.8	3.07
185.02	-54.27
185.239	74.75
185.459	62.46
185.679	134.14
185.898	-68.61
186.118	87.04
186.338	15.36
186.557	87.04
186.777	62.46
186.997	37.89
187.216	68.61
187.436	95.23
187.655	33.79
187.875	107.52
188.095	76.8
188.314	21.5
188.534	111.61
188.753	-52.22
188.973	68.61
189.192	125.95
189.412	50.18
189.631	1.02
189.851	11.26
190.07	5.12
190.29	5.12
190.509	39.94
190.729	95.23
190.948	70.65
191.168	197.63
191.387	9.22
191.607	39.94
191.826	-1.02
192.045	17.41
192.265	-44.03
192.484	33.79
192.704	41.98
192.923	-33.79
193.142	117.76
193.362	35.84
193.581	29.7
193.8	31.74
194.02	80.89
194.239	9.22
194.458	35.84
194.678	-33.79
194.897	7.17
195.116	39.94
195.335	93.18
195.555	39.94
195.774	82.94
195.993	74.75
196.212	52.22
196.432	-15.36
196.651	78.85
196.87	111.61
197.089	140.29
197.308	74.75
197.528	35.84
197.747	-68.61
197.966	52.22
198.185	111.61
198.404	-1.02
198.623	158.72
198.842	50.18
199.062	64.51
199.281	60.42
199.5	-21.5
199.719	62.46
199.938	-1.02
200.157	46.08
200.376	41.98
200.595	19.46
200.814	68.61
201.033	19.46
201.252	68.61
201.471	70.65
201.69	54.27
201.909	87.04
202.128	-5.12
202.347	-9.22
202.566	80.89
202.785	9.22
203.004	-3.07
203.223	97.28
203.442	87.04
203.661	-66.56
203.879	52.22
204.098	29.7
204.317	-15.36
204.536	115.71
204.755	54.27
204.974	33.79
205.193	-15.36
205.411	189.44
205.63	107.52
205.849	93.18
206.068	-39.94
206.287	7.17
206.505	54.27
206.724	-13.31
206.943	3.07
207.162	82.94
207.381	-7.17
207.599	25.6
207.818	80.89
208.037	-31.74
208.255	72.7
208.474	-25.6
208.693	93.18
208.911	44.03
209.13	58.37
209.349	58.37
209.567	95.23
209.786	125.95
210.005	11.26
210.223	99.33
210.442	-7.17
210.661	-1.02
210.879	25.6
211.098	7.17
211.316	101.37
211.535	21.5
211.753	1.02
211.972	11.26
212.191	23.55
212.409	-7.17
212.628	17.41
212.846	9.22
213.065	27.65
213.283	19.46
213.502	11.26
213.72	76.8
213.938	87.04
214.157	46.08
214.375	50.18
214.594	68.61
214.812	68.61
215.031	29.7
215.249	9.22
215.467	39.94
215.686	41.98
215.904	35.84
216.122	-17.41
216.341	46.08
216.559	46.08
216.778	91.13
216.996	99.33
217.214	-23.55
217.432	-19.46
217.651	50.18
217.869	72.7
218.087	58.37
218.306	91.13
218.524	54.27
218.742	1.02
218.96	9.22
219.179	15.36
219.397	56.32
219.615	148.48
219.833	125.95
220.051	15.36
220.27	111.61
220.488	46.08
220.706	62.46
220.924	9.22
221.142	1.02
221.36	52.22
221.578	78.85
221.796	21.5
222.015	58.37
222.233	-29.7
222.451	87.04
222.669	72.7
222.887	154.62
223.105	19.46
223.323	-11.26
223.541	3.07
223.759	50.18
223.977	-64.51
224.195	123.9
224.413	125.95
224.631	68.61
224.849	46.08
225.067	150.53
225.285	-27.65
225.503	74.75
225.721	27.65
225.939	7.17
226.157	74.75
226.375	144.38
226.592	3.07
226.81	44.03
227.028	78.85
227.246	111.61
227.464	11.26
227.682	41.98
227.9	82.94
228.117	95.23
228.335	25.6
228.553	82.94
228.771	78.85
228.989	31.74
229.206	-46.08
229.424	-41.98
229.642	84.99
229.86	-39.94
230.077	84.99
230.295	107.52
230.513	117.76
230.731	119.81
230.948	111.61
231.166	41.98
231.384	39.94
231.601	58.37
231.819	123.9
232.037	-19.46
232.254	-7.17
232.472	44.03
232.689	-44.03
232.907	74.75
233.125	82.94
233.342	21.5
233.56	11.26
233.777	46.08
233.995	33.79
234.213	50.18
234.43	11.26
234.648	50.18
234.865	11.26
235.083	37.89
235.3	74.75
235.518	76.8
235.735	76.8
235.953	15.36
236.17	56.32
236.388	27.65
236.605	99.33
236.822	37.89
237.04	82.94
237.257	52.22
237.475	25.6
237.692	15.36
237.909	117.76
238.127	50.18
238.344	29.7
238.562	56.32
238.779	15.36
238.996	-27.65
239.214	11.26
239.431	107.52
239.648	-15.36
239.865	46.08
240.083	64.51
240.3	11.26
240.517	74.75
240.735	70.65
240.952	60.42
241.169	84.99
241.386	21.5
241.603	13.31
241.821	29.7
242.038	93.18
242.255	33.79
242.472	-46.08
242.689	52.22
242.907	103.42
243.124	89.09
243.341	27.65
243.558	-48.13
243.775	68.61
243.992	25.6
244.209	103.42
244.426	58.37
244.643	25.6
244.86	1.02
245.078	-17.41
245.295	62.46
245.512	11.26
245.729	25.6
245.946	72.7
246.163	37.89
246.38	-39.94
246.597	95.23
246.814	29.7
247.031	72.7
247.248	62.46
247.464	70.65
247.681	52.22
247.898	21.5
248.115	21.5
248.332	58.37
248.549	84.99
248.766	78.85
248.983	95.23
249.2	7.17
249.417	68.61
249.633	5.12
249.85	93.18
250.067	80.89
250.284	31.74
250.501	60.42
250.717	58.37
250.934	-68.61
251.151	-11.26
251.368	-35.84
251.585	-13.31
251.801	48.13
252.018	33.79
252.235	11.26
252.451	-11.26
252.668	-64.51
252.885	91.13
253.102	41.98
253.318	58.37
253.535	1.02
253.752	62.46
253.968	50.18
254.185	-29.7
254.401	58.37
254.618	-33.79
254.835	21.5
255.051	130.05
255.268	146.43
255.484	50.18
255.701	29.7
255.917	17.41
256.134	25.6
256.351	62.46
256.567	21.5
256.784	91.13
257	37.89
257.217	33.79
257.433	9.22
257.65	123.9
257.866	44.03
258.082	39.94
258.299	13.31
258.515	21.5
258.732	-46.08
258.948	-5.12
259.165	142.33
259.381	27.65
259.597	25.6
259.814	-23.55
260.03	74.75
260.246	64.51
260.463	37.89
260.679	5.12
260.895	-17.41
261.112	62.46
261.328	7.17
261.544	-46.08
261.761	78.85
261.977	-19.46
262.193	-29.7
262.409	50.18
262.626	68.61
262.842	58.37
263.058	-13.31
263.274	103.42
263.49	66.56
263.707	111.61
263.923	27.65
264.139	-3.07
264.355	60.42
264.571	82.94
264.787	-13.31
265.004	111.61
265.22	68.61
265.436	56.32
265.652	-17.41
265.868	21.5
266.084	52.22
266.3	17.41
266.516	1.02
266.732	48.13
266.948	-11.26
267.164	46.08
267.38	44.03
267.596	101.37
267.812	154.62
268.028	52.22
268.244	3.07
268.46	25.6
268.676	-48.13
268.892	89.09
269.108	-50.18
269.324	46.08
269.54	107.52
269.756	82.94
269.972	3.07
270.188	119.81
270.403	17.41
270.619	17.41
270.835	35.84
271.051	25.6
271.267	91.13
271.483	87.04
271.698	37.89
271.914	37.89
272.13	37.89
272.346	35.84
272.562	-3.07
272.777	99.33
272.993	3.07
273.209	48.13
273.425	23.55
273.64	-25.6
273.856	115.71
274.072	-25.6
274.287	58.37
274.503	9.22
274.719	140.29
274.934	68.61
275.15	23.55
275.366	54.27
275.581	21.5
275.797	13.31
276.012	54.27
276.228	58.37
276.444	-13.31
276.659	50.18
276.875	11.26
277.09	76.8
277.306	89.09
277.521	37.89
277.737	9.22
277.952	66.56
278.168	66.56
278.383	52.22
278.599	91.13
278.814	84.99
279.03	68.61
279.245	128
279.461	109.57
279.676	29.7
279.892	31.74
280.107	-46.08
280.322	27.65
280.538	29.7
280.753	41.98
280.969	50.18
281.184	48.13
281.399	66.56
281.615	52.22
281.83	44.03
282.045	-7.17
282.26	44.03
282.476	58.37
282.691	41.98
282.906	95.23
283.122	1.02
283.337	29.7
283.552	74.75
283.767	-7.17
283.983	93.18
284.198	41.98
284.413	54.27
284.628	-27.65
284.843	-11.26
285.058	58.37
285.274	-1.02
285.489	23.55
285.704	29.7
285.919	35.84
286.134	-1.02
286.349	17.41
286.564	99.33
286.779	87.04
286.995	-9.22
287.21	1.02
287.425	76.8
287.64	7.17
287.855	128
288.07	-3.07
288.285	58.37
288.5	74.75
288.715	68.61
288.93	44.03
289.145	-7.17
289.36	39.94
289.575	50.18
289.79	107.52
290.004	-31.74
290.219	58.37
290.434	15.36
290.649	-5.12
290.864	-9.22
291.079	25.6
291.294	62.46
291.509	9.22
291.724	95.23
291.938	31.74
292.153	41.98
292.368	7.17
292.583	39.94
292.798	1.02
293.012	82.94
293.227	31.74
293.442	109.57
293.657	64.51
293.871	78.85
294.086	-29.7
294.301	66.56
294.516	62.46
294.73	19.46
294.945	-13.31
295.16	48.13
295.374	125.95
295.589	44.03
295.804	50.18
296.018	-27.65
296.233	82.94
296.447	109.57
296.662	72.7
296.877	58.37
297.091	78.85
297.306	50.18
297.52	1.02
297.735	27.65
297.949	191.49
298.164	54.27
298.378	58.37
298.593	-27.65
298.807	56.32
299.022	66.56
299.236	132.09
299.451	-41.98
299.665	11.26
299.88	21.5
300.094	80.89
300.309	13.31
300.523	97.28
300.737	35.84
300.952	-19.46
301.166	50.18
301.381	1.02
301.595	62.46
301.809	76.8
302.024	82.94
302.238	27.65
302.452	33.79
302.667	76.8
302.881	146.43
303.095	44.03
303.309	5.12
303.524	-5.12
303.738	52.22
303.952	62.46
304.166	74.75
304.381	11.26
304.595	97.28
304.809	19.46
305.023	15.36
305.237	41.98
305.452	29.7
305.666	70.65
305.88	60.42
306.094	60.42
306.308	103.42
306.522	84.99
306.736	162.81
306.95	95.23
307.164	13.31
307.379	50.18
307.593	39.94
307.807	76.8
308.021	58.37
308.235	56.32
308.449	74.75
308.663	11.26
308.877	156.67
309.091	-3.07
309.305	60.42
309.519	58.37
309.733	111.61
309.947	-37.89
310.161	74.75
310.374	107.52
310.588	66.56
310.802	-15.36
311.016	11.26
311.23	48.13
311.444	44.03
311.658	33.79
311.872	132.09
312.085	134.14
312.299	80.89
312.513	160.77
312.727	50.18
312.941	64.51
313.154	56.32
313.368	41.98
313.582	91.13
313.796	144.38
314.009	39.94
314.223	37.89
314.437	50.18
314.651	74.75
314.864	74.75
315.078	27.65
315.292	-70.65
315.505	58.37
315.719	89.09
315.933	52.22
316.146	-64.51
316.36	17.41
316.573	160.77
316.787	138.24
317.001	1.02
317.214	9.22
317.428	35.84
317.641	3.07
317.855	29.7
318.068	58.37
318.282	39.94
318.495	125.95
318.709	72.7
318.922	25.6
319.136	132.09
319.349	80.89
319.563	119.81
319.776	-11.26
319.99	-29.7
320.203	76.8
320.417	89.09
320.63	29.7
320.843	58.37
321.057	74.75
321.27	-15.36
321.483	23.55
321.697	91.13
321.91	60.42
322.124	11.26
322.337	80.89
322.55	62.46
322.763	41.98
322.977	1.02
323.19	-21.5
323.403	3.07
323.617	33.79
323.83	58.37
324.043	52.22
324.256	80.89
324.469	76.8
324.683	136.19
324.896	21.5
325.109	62.46
325.322	13.31
325.535	91.13
325.748	50.18
325.962	29.7
326.175	11.26
326.388	97.28
326.601	25.6
326.814	-1.02
327.027	5.12
327.24	87.04
327.453	-117.76
327.666	74.75
327.879	68.61
328.092	31.74
328.305	95.23
328.518	17.41
328.731	17.41
328.944	78.85
329.157	31.74
329.37	62.46
329.583	107.52
329.796	89.09
330.009	31.74
330.222	41.98
330.435	58.37
330.648	119.81
330.861	82.94
331.073	70.65
331.286	78.85
331.499	33.79
331.712	91.13
331.925	1.02
332.138	54.27
332.35	156.67
332.563	7.17
332.776	105.47
332.989	13.31
333.202	46.08
333.414	44.03
333.627	68.61
333.84	-39.94
334.053	148.48
334.265	70.65
334.478	54.27
334.691	62.46
334.903	46.08
335.116	17.41
335.329	11.26
335.541	132.09
335.754	78.85
335.966	84.99
336.179	-23.55
336.392	76.8
336.604	31.74
336.817	21.5
337.029	25.6
337.242	19.46
337.454	140.29
337.667	35.84
337.88	109.57
338.092	23.55
338.305	82.94
338.517	109.57
338.729	78.85
338.942	95.23
339.154	31.74
339.367	54.27
339.579	93.18
339.792	-52.22
340.004	-35.84
340.217	-3.07
340.429	33.79
340.641	-9.22
340.854	33.79
341.066	78.85
341.278	121.85
341.491	68.61
341.703	31.74
341.915	11.26
342.128	5.12
342.34	99.33
342.552	31.74
342.764	13.31
342.977	70.65
343.189	23.55
343.401	1.02
343.613	9.22
343.826	54.27
344.038	35.84
344.25	54.27
344.462	60.42
344.674	23.55
344.886	62.46
345.099	109.57
345.311	185.34
345.523	37.89
345.735	-50.18
345.947	15.36
346.159	52.22
346.371	52.22
346.583	52.22
346.795	187.39
347.007	52.22
347.219	136.19
347.431	56.32
347.643	99.33
347.855	50.18
348.067	19.46
348.279	-17.41
348.491	132.09
348.703	33.79
348.915	31.74
349.127	15.36
349.339	52.22
349.551	70.65
349.763	66.56
349.975	27.65
350.187	78.85
350.399	111.61
350.61	7.17
350.822	5.12
351.034	70.65
351.246	-3.07
351.458	101.37
351.669	3.07
351.881	132.09
352.093	91.13
352.305	121.85
352.517	99.33
352.728	117.76
352.94	91.13
353.152	46.08
353.363	-7.17
353.575	46.08
353.787	-17.41
353.999	134.14
354.21	154.62
354.422	9.22
354.633	-27.65
354.845	-21.5
355.057	84.99
355.268	3.07
355.48	91.13
355.692	-80.89
355.903	62.46
356.115	60.42
356.326	74.75
356.538	82.94
356.749	91.13
356.961	72.7
357.172	27.65
357.384	31.74
357.595	150.53
357.807	60.42
358.018	60.42
358.23	91.13
358.441	64.51
358.653	113.66
358.864	29.7
359.075	125.95
359.287	66.56
359.498	29.7
359.709	58.37
359.921	9.22
360.132	54.27
360.344	70.65
360.555	-19.46
360.766	66.56
360.977	74.75
361.189	156.67
361.4	19.46
361.611	33.79
361.823	52.22
362.034	111.61
362.245	-37.89
362.456	41.98
362.667	29.7
362.879	132.09
363.09	-1.02
363.301	54.27
363.512	87.04
363.723	41.98
363.935	-27.65
364.146	99.33
364.357	11.26
364.568	52.22
364.779	68.61
364.99	113.66
365.201	19.46
365.412	171.01
365.623	-23.55
365.834	80.89
366.045	48.13
366.256	109.57
366.467	87.04
366.678	60.42
366.889	78.85
367.1	9.22
367.311	99.33
367.522	46.08
367.733	54.27
367.944	15.36
368.155	58.37
368.366	156.67
368.577	99.33
368.788	101.37
368.999	58.37
369.209	89.09
369.42	183.29
369.631	119.81
369.842	74.75
370.053	78.85
370.264	132.09
370.474	-11.26
370.685	35.84
370.896	29.7
371.107	154.62
371.317	91.13
371.528	27.65
371.739	58.37
371.95	134.14
372.16	70.65
372.371	-9.22
372.582	25.6
372.792	66.56
373.003	64.51
373.214	7.17
373.424	87.04
373.635	27.65
373.846	99.33
374.056	58.37
374.267	138.24
374.477	41.98
374.688	52.22
374.898	-3.07
375.109	17.41
375.319	134.14
375.53	140.29
375.74	160.77
375.951	19.46
376.161	80.89
376.372	5.12
376.582	29.7
376.793	130.05
377.003	39.94
377.214	52.22
377.424	132.09
377.635	50.18
377.845	17.41
378.055	146.43
378.266	33.79
378.476	9.22
378.686	74.75
378.897	23.55
379.107	46.08
379.317	37.89
379.528	1.02
379.738	29.7
379.948	1.02
380.158	107.52
380.369	78.85
380.579	78.85
380.789	123.9
380.999	80.89
381.21	21.5
381.42	89.09
381.63	50.18
381.84	66.56
382.05	64.51
382.261	74.75
382.471	87.04
382.681	84.99
382.891	66.56
383.101	101.37
383.311	21.5
383.521	25.6
383.731	50.18
383.941	101.37
384.151	21.5
384.361	13.31
384.571	31.74
384.781	82.94
384.991	31.74
385.201	103.42
385.411	171.01
385.621	66.56
385.831	80.89
386.041	68.61
386.251	68.61
386.461	95.23
386.671	9.22
386.881	70.65
387.091	21.5
387.301	70.65
387.511	130.05
387.72	58.37
387.93	50.18
388.14	31.74
388.35	41.98
388.56	58.37
388.769	82.94
388.979	128
389.189	68.61
389.399	93.18
389.609	144.38
389.818	41.98
390.028	171.01
390.238	146.43
390.447	48.13
390.657	117.76
390.867	39.94
391.076	109.57
391.286	48.13
391.496	101.37
391.705	95.23
391.915	128
392.125	181.25
392.334	162.81
392.544	117.76
392.753	27.65
392.963	82.94
393.172	115.71
393.382	76.8
393.591	164.86
393.801	48.13
394.01	93.18
394.22	150.53
394.429	52.22
394.639	46.08
394.848	72.7
395.058	130.05
395.267	125.95
395.477	136.19
395.686	46.08
395.895	183.29
396.105	148.48
396.314	17.41
396.524	84.99
396.733	46.08
396.942	158.72
397.152	148.48
397.361	189.44
397.57	111.61
397.78	109.57
397.989	95.23
398.198	216.06
398.407	175.1
398.617	46.08
398.826	132.09
399.035	62.46
399.244	203.77
399.453	93.18
399.663	89.09
399.872	109.57
400.081	72.7
400.29	205.82
400.499	50.18
400.708	164.86
400.917	154.62
401.127	84.99
401.336	134.14
401.545	201.72
401.754	181.25
401.963	183.29
402.172	76.8
402.381	64.51
402.59	148.48
402.799	132.09
403.008	207.87
403.217	148.48
403.426	142.33
403.635	136.19
403.844	162.81
404.053	148.48
404.262	173.05
404.471	242.68
404.68	125.95
404.888	158.72
405.097	214.01
405.306	164.86
405.515	207.87
405.724	201.72
405.933	199.68
406.142	197.63
406.35	257.02
406.559	246.78
406.768	224.25
406.977	259.07
407.185	173.05
407.394	252.92
407.603	205.82
407.812	218.11
408.02	312.32
408.229	271.36
408.438	232.44
408.646	222.2
408.855	226.3
409.064	252.92
409.272	277.5
409.481	363.51
409.69	238.59
409.898	308.22
410.107	396.28
410.315	363.51
410.524	365.56
410.733	418.81
410.941	336.89
411.15	414.71
411.358	437.24
411.567	396.28
411.775	455.67
411.984	488.44
412.192	476.15
412.401	439.29
412.609	476.15
412.818	613.37
413.026	615.41
413.234	525.3
413.443	601.08
413.651	568.31
413.86	623.61
414.068	580.6
414.276	687.09
414.485	648.18
414.693	766.96
414.901	758.77
415.11	820.21
415.318	809.97
415.526	830.45
415.734	836.6
415.943	846.84
416.151	914.42
416.359	918.51
416.567	992.24
416.776	990.19
416.984	1029.1
417.192	1143.79
417.4	1119.21
417.608	996.34
417.817	977.91
418.025	1225.71
418.233	1287.15
418.441	1199.09
418.649	1321.96
418.857	1274.86
419.065	1381.35
419.273	1422.31
419.481	1399.79
419.689	1508.33
419.897	1571.82
420.105	1623.02
420.313	1704.93
420.521	1743.85
420.729	1741.8
420.937	1735.65
421.145	1870.82
421.353	1860.58
421.561	2092
421.769	2200.54
421.977	2173.92
422.185	2249.69
422.393	2438.11
422.601	2524.12
422.809	2575.32
423.017	2513.88
423.224	2589.66
423.432	2642.9
423.64	2618.33
423.848	2950.1
424.056	2726.87
424.263	3056.59
424.471	3046.35
424.679	3195.86
424.887	3367.88
425.094	3554.25
425.302	3392.46
425.51	3515.34
425.718	3759.05
425.925	3822.53
426.133	3875.78
426.341	4045.76
426.548	4182.98
426.756	4297.66
426.964	4266.94
427.171	4461.5
427.379	4549.56
427.586	4721.59
427.794	4967.35
428.001	5024.69
428.209	5360.56
428.417	5278.64
428.624	5546.92
428.832	5569.45
429.039	5512.11
429.247	5524.4
429.454	6153.12
429.662	6615.96
429.869	6120.35
430.076	6575
430.284	6419.36
430.491	6704.03
430.699	6951.83
430.906	6828.95
431.114	7078.8
431.321	7336.85
431.528	7508.88
431.736	7932.81
431.943	8340.35
432.15	7986.05
432.358	8156.04
432.565	8858.49
432.772	8754.04
432.979	9046.9
433.187	9206.64
433.394	9376.62
433.601	9970.54
433.808	9921.38
434.016	9755.5
434.223	10232.68
434.43	10967.9
434.637	10814.3
434.844	11434.83
435.052	11582.29
435.259	11434.83
435.466	11504.46
435.673	11586.38
435.88	12444.48
436.087	12970.81
436.294	12929.85
436.501	12671.81
436.708	12686.14
436.915	13372.21
437.122	14031.66
437.329	13804.33
437.537	14295.85
437.743	14361.38
437.95	14512.93
438.157	15237.91
438.364	15713.04
438.571	15704.85
438.778	15737.62
438.985	17341.18
439.192	16560.9
439.399	17099.52
439.606	16902.91
439.813	17425.14
440.02	18537.19
440.227	18481.89
440.433	18191.08
440.64	18891.49
440.847	18703.07
441.054	19086.04
441.261	20349.64
441.467	20005.58
441.674	20673.22
441.881	21222.08
442.088	21375.67
442.294	21467.83
442.501	21478.07
442.708	22143.66
442.914	22987.43
443.121	24048.27
443.328	23349.92
443.534	25064.07
443.741	24390.28
443.948	23806.61
444.154	26010.23
444.361	25838.2
444.568	25696.89
444.774	26038.9
444.981	26002.04
445.187	26983.01
445.394	28029.52
445.6	27662.94
445.807	30126.64
446.013	28838.47
446.22	29477.44
446.426	30825
446.633	30919.21
446.839	32057.88
447.046	30751.27
447.252	32344.59
447.459	32473.62
447.665	32307.73
447.871	33800.7
448.078	34959.85
448.284	33876.48
448.491	34269.69
448.697	36116.95
448.903	36387.28
449.11	36401.62
449.316	36245.97
449.522	36633.04
449.728	37362.12
449.935	38095.29
450.141	37714.37
450.347	38900.14
450.553	37599.68
450.76	38144.44
450.966	39074.22
451.172	38875.57
451.378	39748
451.584	39207.34
451.791	40276.38
451.997	40364.44
452.203	40962.45
452.409	41122.19
452.615	40733.07
452.821	39424.42
453.027	38924.72
453.233	40851.86
453.44	39475.62
453.646	39674.27
453.852	40083.87
454.058	40634.77
454.264	39414.18
454.47	40063.39
454.676	39700.9
454.882	41091.47
455.088	37079.5
455.294	37853.63
455.5	38236.6
455.705	38629.81
455.911	37075.4
456.117	36573.65
456.323	36159.96
456.529	33944.06
456.735	35504.61
456.941	34935.27
457.147	34228.73
457.352	33194.5
457.558	32645.65
457.764	32756.24
457.97	32430.61
458.176	31668.76
458.381	31556.13
458.587	30022.2
458.793	29868.6
458.999	28279.38
459.204	30898.73
459.41	29602.36
459.616	27693.66
459.821	27863.64
460.027	27505.24
460.233	27157.09
460.438	25741.94
460.644	26198.64
460.85	24801.93
461.055	24808.07
461.261	24484.49
461.466	22475.43
461.672	22110.89
461.878	23521.95
462.083	22022.83
462.289	21707.44
462.494	21273.28
462.7	20132.56
462.905	19772.11
463.111	20699.84
463.316	20497.1
463.522	20253.39
463.727	20148.94
463.932	20224.72
464.138	19925.71
464.343	20077.26
464.549	19520.21
464.754	20009.68
464.959	20052.69
465.165	19456.73
465.37	18840.29
465.575	18356.97
465.781	19127
465.986	19194.59
466.191	18672.36
466.397	18186.99
466.602	17095.42
466.807	17763.06
467.012	17937.13
467.218	17789.68
467.423	17582.84
467.628	17806.06
467.833	18375.4
468.038	17705.71
468.244	17281.78
468.449	18074.35
468.654	17423.09
468.859	17234.68
469.064	17058.56
469.269	16390.92
469.474	16646.91
469.679	17079.04
469.885	16397.06
470.09	16595.71
470.295	16696.07
470.5	16319.24
470.705	16286.47
470.91	16022.28
471.115	15780.62
471.32	16012.04
471.525	15889.17
471.73	15633.17
471.935	15450.9
472.139	14904.09
472.344	15084.31
472.549	15102.75
472.754	14981.92
472.959	14768.93
473.164	14129.96
473.369	14109.48
473.574	14828.32
473.778	14521.12
473.983	14328.61
474.188	14183.21
474.393	13638.45
474.598	13732.65
474.802	13542.19
475.007	13501.23
475.212	13640.5
475.417	13048.63
475.621	13079.35
475.826	13095.74
476.031	12761.92
476.235	12706.62
476.44	12835.64
476.645	12426.05
476.849	12440.39
477.054	12364.61
477.259	12135.24
477.463	12258.12
477.668	11881.29
477.872	12004.17
478.077	11715.41
478.282	11522.9
478.486	11729.74
478.691	11373.39
478.895	11510.61
479.1	11348.82
479.304	11287.38
479.509	10775.39
479.713	11340.63
479.918	10957.66
480.122	10699.61
480.326	10935.13
480.531	10785.63
480.735	10808.16
480.94	10681.18
481.144	11066.2
481.348	10490.72
481.553	10718.04
481.757	10443.62
481.961	10748.76
482.166	10781.53
482.37	10560.35
482.574	10312.55
482.778	10433.38
482.983	10767.2
483.187	10480.48
483.391	10478.43
483.595	10498.91
483.8	10310.5
484.004	10503.01
484.208	10582.88
484.412	10533.73
484.616	10277.73
484.821	10244.96
485.025	10240.87
485.229	10408.8
485.433	10355.55
485.637	10466.14
485.841	10201.96
486.045	10263.4
486.249	10494.82
486.453	10261.35
486.657	10453.86
486.861	10427.23
487.065	10187.62
487.269	10627.93
487.473	10201.96
487.677	10406.75
487.881	10550.11
488.085	10476.38
488.289	10392.42
488.493	10351.46
488.697	10333.03
488.901	10642.27
489.105	10476.38
489.309	10521.44
489.512	10568.54
489.716	10562.4
489.92	10703.71
490.124	10521.44
490.328	10767.2
490.531	10591.07
490.735	10853.21
490.939	10867.55
491.143	10634.08
491.346	10619.74
491.55	10965.85
491.754	10898.27
491.958	11201.37
492.161	10980.18
492.365	10990.42
492.569	10945.37
492.772	11000.66
492.976	11324.24
493.18	11187.03
493.383	11299.67
493.587	11440.98
493.79	11289.43
493.994	11447.12
494.197	11230.04
494.401	11645.77
494.605	11735.88
494.808	11750.22
495.012	11887.43
495.215	11797.32
495.419	11909.96
495.622	11828.04
495.825	12106.57
496.029	12301.12
496.232	12346.18
496.436	12106.57
496.639	12624.7
496.843	12434.24
497.046	12763.97
497.249	13013.82
497.453	12802.88
497.656	13114.17
497.859	13298.49
498.063	13349.68
498.266	13525.81
498.469	13198.13
498.673	13771.57
498.876	13738.8
499.079	13738.8
499.282	13798.19
499.485	14074.67
499.689	14189.35
499.892	14590.75
500.095	14594.85
500.298	14965.53
500.501	14629.66
500.705	15350.55
500.908	15352.6
501.111	15522.58
501.314	15647.51
501.517	15715.09
501.72	16077.58
501.923	15794.96
502.126	16454.4
502.329	16796.42
502.532	16769.79
502.735	16909.05
502.938	16972.54
503.141	17132.28
503.344	17615.6
503.547	17539.83
503.75	17699.57
503.953	17935.09
504.156	18045.68
504.359	18141.93
504.562	18508.52
504.765	18756.32
504.968	19067.61
505.17	18928.35
505.373	19002.08
505.576	19628.76
505.779	19540.69
505.982	19489.49
506.185	20226.76
506.387	20085.45
506.59	20251.34
506.793	20894.4
506.996	20771.52
507.198	21185.21
507.401	21109.44
507.604	21351.1
507.807	21983.92
508.009	22008.5
508.212	22000.3
508.415	22403.75
508.617	22620.84
508.82	22563.5
509.022	22690.47
509.225	23427.74
509.428	23341.72
509.63	23360.16
509.833	23687.83
510.035	24451.72
510.238	24298.13
510.44	24529.55
510.643	24613.51
510.845	24969.86
511.048	25082.5
511.25	25694.84
511.453	25655.93
511.655	26616.43
511.858	26116.72
512.06	26059.38
512.262	26489.45
512.465	26716.78
512.667	27058.79
512.87	27425.37
513.072	27265.63
513.274	27843.16
513.477	27963.99
513.679	28607.05
513.881	28887.62
514.084	28959.3
514.286	29024.84
514.488	29039.17
514.69	29805.11
514.893	29708.86
515.095	29669.95
515.297	30032.44
515.499	29950.52
515.701	30685.74
515.904	31265.31
516.106	31099.43
516.308	31545.89
516.51	31906.33
516.712	31787.55
516.914	32305.68
517.116	32604.69
517.318	32958.99
517.52	32911.88
517.722	33337.86
517.925	33821.18
518.127	34044.41
518.329	34181.62
518.531	34032.12
518.733	35090.92
518.935	34703.85
519.136	34855.4
519.338	35351.01
519.54	35383.78
519.742	36096.47
519.944	36196.82
520.146	36655.57
520.348	36702.67
520.55	36694.48
520.752	37302.73
520.954	37853.63
521.155	37749.18
521.357	38396.34
521.559	38261.18
521.761	38891.95
521.963	38508.98
522.164	39055.79
522.366	39172.52
522.568	39756.19
522.77	39551.4
522.971	40221.08
523.173	39623.08
523.375	40341.91
523.576	40235.42
523.778	40462.74
523.98	41114
524.181	41226.63
524.383	41023.89
524.584	41759.11
524.786	41701.76
524.988	41296.27
525.189	42666.36
525.391	42406.26
525.592	42211.71
525.794	42611.06
525.995	42598.77
526.197	42717.56
526.398	43114.86
526.6	43354.47
526.801	43727.2
527.003	43585.89
527.204	43827.56
527.406	43805.03
527.607	43966.82
527.808	44171.61
528.01	43344.23
528.211	43995.49
528.412	44667.22
528.614	44484.95
528.815	44591.45
529.016	45330.76
529.218	44730.71
529.419	44882.26
529.62	44910.93
529.822	44955.99
530.023	45072.72
530.224	45216.08
530.425	45146.45
530.626	45230.41
530.828	44900.69
531.029	45957.44
531.23	45211.98
531.431	45062.48
531.632	45592.9
531.833	45549.9
532.035	46088.51
532.236	45977.92
532.437	46174.53
532.638	45818.18
532.839	45781.32
533.04	46045.51
533.241	45519.18
533.442	46098.75
533.643	46111.04
533.844	46307.65
534.045	46420.28
534.246	45977.92
534.447	46135.62
534.648	46065.99
534.849	46659.9
535.05	46041.41
535.251	46272.83
535.451	46211.39
535.652	46647.61
535.853	46145.86
536.054	46233.92
536.255	46338.36
536.456	46270.78
536.657	47059.25
536.857	46397.76
537.058	46293.31
537.259	46547.26
537.46	46659.9
537.66	45922.63
537.861	46565.69
538.062	46248.25
538.263	46297.41
538.463	46510.39
538.664	46326.08
538.865	46321.98
539.065	46485.82
539.266	46592.31
539.466	46756.15
539.667	45875.52
539.868	46254.4
540.068	46240.06
540.269	46135.62
540.469	46653.75
540.67	45994.31
540.87	46307.65
541.071	46494.01
541.271	46582.07
541.472	46381.37
541.672	46301.5
541.873	45713.73
542.073	45830.47
542.274	46651.7
542.474	45384.01
542.675	46172.48
542.875	46430.52
543.075	45930.82
543.276	45490.51
543.476	46412.09
543.676	45818.18
543.877	46440.76
544.077	46432.57
544.277	46035.27
544.478	46276.93
544.678	46307.65
544.878	46127.42
545.078	46123.33
545.279	45627.72
545.479	45597
545.679	46049.6
545.879	45830.47
546.079	46047.55
546.28	46166.34
546.48	45453.64
546.68	46086.46
546.88	45730.12
547.08	46061.89
547.28	45580.62
547.48	45590.86
547.68	45916.48
547.88	45648.2
548.081	46164.29
548.281	45715.78
548.481	45809.99
548.681	46088.51
548.881	45971.78
549.081	45627.72
549.28	45371.72
549.48	46182.72
549.68	45691.21
549.88	46764.34
550.08	45068.62
550.28	45277.52
550.48	45889.86
550.68	45715.78
550.88	45240.65
551.08	45367.63
551.279	46004.55
551.479	44857.68
551.679	45766.98
551.879	45396.3
552.079	45721.93
552.278	45560.14
552.478	45549.9
552.678	45201.74
552.878	45830.47
553.077	45238.61
553.277	45265.23
553.477	46088.51
553.676	44788.05
553.876	45474.12
554.076	45158.73
554.275	45156.69
554.475	44589.4
554.674	45201.74
554.874	44775.76
555.074	44648.79
555.273	45494.6
555.473	45467.98
555.672	45085.01
555.872	45048.14
556.071	45150.54
556.271	45252.94
556.47	45054.29
556.67	45007.19
556.869	44781.91
557.068	45035.86
557.268	44626.26
557.467	44792.15
557.667	44597.59
557.866	44679.51
558.065	44728.66
558.265	44595.54
558.464	44374.36
558.663	44876.12
558.863	44212.57
559.062	44675.41
559.261	44235.1
559.461	44556.63
559.66	43647.33
559.859	44046.69
560.058	43809.12
560.258	43798.88
560.457	43614.57
560.656	43960.67
560.855	43508.07
561.054	43737.44
561.253	43692.39
561.453	43800.93
561.652	43542.89
561.851	43854.18
562.05	43309.42
562.249	42953.07
562.448	43950.43
562.647	43272.56
562.846	43284.84
563.045	43202.92
563.244	42779
563.443	43690.34
563.642	42877.3
563.841	42901.87
564.04	42746.23
564.239	42905.97
564.438	42389.88
564.637	43047.28
564.836	42822
565.035	41998.72
565.234	42559.86
565.432	42088.83
565.631	42293.63
565.83	42738.04
566.029	42000.77
566.228	41771.39
566.427	42064.25
566.625	41597.32
566.824	41394.57
567.023	41836.93
567.222	41410.95
567.42	42013.05
567.619	41589.13
567.818	40993.17
568.016	41355.66
568.215	41482.63
568.414	41103.76
568.612	41408.9
568.811	41003.41
569.01	41234.83
569.208	40565.14
569.407	40939.92
569.605	40237.47
569.804	40657.3
570.002	40413.59
570.201	40407.45
570.4	40083.87
570.598	39965.09
570.797	39891.36
570.995	40157.6
571.193	39989.66
571.392	40452.5
571.59	40016.29
571.789	39866.78
571.987	39424.42
572.186	39958.94
572.384	39852.45
572.582	39942.56
572.781	39635.36
572.979	39324.07
573.177	39444.9
573.376	39369.13
573.574	38928.81
573.772	39459.24
573.971	38850.99
574.169	38699.44
574.367	38564.28
574.565	38775.22
574.763	38511.03
574.962	38416.82
575.16	37925.31
575.358	38474.16
575.556	38162.87
575.754	38660.53
575.952	37968.32
576.151	38115.77
576.349	37515.72
576.547	37704.13
576.745	38062.52
576.943	37771.71
577.141	37497.28
577.339	37654.98
577.537	36874.7
577.735	37818.81
577.933	36833.74
578.131	37083.59
578.329	37061.07
578.527	36987.34
578.725	36786.64
578.923	37024.2
579.121	36639.18
579.319	36329.94
579.516	36864.46
579.714	36790.73
579.912	36180.44
580.11	36375
580.308	36078.04
580.506	36028.89
580.704	36186.58
580.901	36325.85
581.099	36164.06
581.297	35822.05
581.495	35553.76
581.692	36012.51
581.89	35770.85
582.088	35494.37
582.285	35391.97
582.483	35742.17
582.681	35181.03
582.878	35224.04
583.076	34916.84
583.274	35074.54
583.471	34572.78
583.669	34546.16
583.866	34601.46
584.064	34458.1
584.262	34232.82
584.459	34783.73
584.657	34310.64
584.854	34632.18
585.052	33845.76
585.249	34114.04
585.447	34103.8
585.644	33798.65
585.841	33767.93
586.039	34005.5
586.236	33513.98
586.434	33763.84
586.631	33370.63
586.828	33442.31
587.026	33417.73
587.223	33524.22
587.42	33139.21
587.618	33399.3
587.815	33079.82
588.012	32870.92
588.21	32721.42
588.407	33012.23
588.604	32608.78
588.801	32334.35
588.999	32446.99
589.196	32473.62
589.393	32569.87
589.59	32182.8
589.787	32012.82
589.984	31851.03
590.182	31646.24
590.379	31969.82
590.576	31871.51
590.773	31695.39
590.97	31404.58
591.167	31941.14
591.364	31345.19
591.561	31457.82
591.758	31023.65
591.955	30976.55
592.152	31033.89
592.349	31293.99
592.546	30741.03
592.743	30812.71
592.94	30700.08
593.137	30843.43
593.334	30724.65
593.531	30450.22
593.727	30458.42
593.924	30382.64
594.121	29958.71
594.318	30159.41
594.515	29555.26
594.712	30124.6
594.908	29561.4
595.105	30050.87
595.302	29493.82
595.499	29874.74
595.696	29817.4
595.892	29223.49
596.089	29495.87
596.286	29403.71
596.482	29039.17
596.679	29114.95
596.876	29063.75
597.072	28600.91
597.269	28914.25
597.466	28463.69
597.662	28432.97
597.859	28820.04
598.055	28506.7
598.252	28541.52
598.448	28416.59
598.645	28267.09
598.841	28060.24
599.038	28129.87
599.234	28285.52
599.431	27820.63
599.627	27783.77
599.824	28103.25
600.02	27808.34
600.217	27738.71
600.413	28035.67
600.609	27294.3
600.806	27292.26
601.002	27365.98
601.198	27173.47
601.395	27456.09
601.591	27109.99
601.787	27144.8
601.984	27083.36
602.18	27118.18
602.376	26720.87
602.572	26729.06
602.769	26913.38
602.965	26358.38
603.161	26503.79
603.357	26372.72
603.553	26554.99
603.75	26176.11
603.946	25956.98
604.142	26159.73
604.338	25967.22
604.534	26182.26
604.73	25901.68
604.926	25655.93
605.122	25754.23
605.318	25545.34
605.514	25725.56
605.71	25504.38
605.906	25514.62
606.102	25236.09
606.298	25508.47
606.494	25416.32
606.69	25195.14
606.886	25311.87
607.082	24859.27
607.278	24803.97
607.474	24728.2
607.67	24793.73
607.866	24689.29
608.062	24980.1
608.257	24654.47
608.453	24457.87
608.649	24853.12
608.845	24273.55
609.041	24595.08
609.236	24416.91
609.432	24310.41
609.628	24461.96
609.824	24345.23
610.019	24130.19
610.215	24281.74
610.411	24251.02
610.606	23755.41
610.802	24443.53
610.998	23984.79
611.193	24097.42
611.389	23927.44
611.584	23499.42
611.78	23546.52
611.976	23431.83
612.171	23487.13
612.367	23759.51
612.562	23736.98
612.758	23360.16
612.953	23321.24
613.149	23730.84
613.344	22917.79
613.539	23863.96
613.735	23356.06
613.93	23306.91
614.126	23321.24
614.321	23497.37
614.517	23276.19
614.712	23202.46
614.907	22903.46
615.103	23145.12
615.298	22997.67
615.493	23616.15
615.688	22606.5
615.884	23093.92
616.079	22399.66
616.274	22815.4
616.47	22637.22
616.665	22889.12
616.86	22284.97
617.055	22354.6
617.25	22483.62
617.445	22737.57
617.641	22096.56
617.836	22461.1
618.031	22211.25
618.226	22383.27
618.421	22252.2
618.616	22205.1
618.811	21877.43
619.006	22031.02
619.201	21754.55
619.396	22014.64
619.591	21656.25
619.786	21635.77
619.981	21480.12
620.176	21377.72
620.371	21191.36
620.566	21484.22
620.761	21121.73
620.956	21125.82
621.151	21062.33
621.346	21162.69
621.541	20705.99
621.735	20964.03
621.93	20462.28
622.125	20638.41
622.32	20439.75
622.515	20521.67
622.709	20237
622.904	20259.53
623.099	19974.86
623.294	20325.07
623.488	19540.69
623.683	19985.1
623.878	19704.53
624.072	19776.21
624.267	19534.55
624.462	19366.62
624.656	19018.46
624.851	19448.54
625.046	19163.87
625.24	19043.04
625.435	18674.4
625.629	18873.06
625.824	18690.79
626.018	18395.88
626.213	18516.71
626.407	18625.25
626.602	18014.96
626.796	18430.69
626.991	18354.92
627.185	18010.86
627.38	17890.03
627.574	17974
627.768	17416.95
627.963	17687.28
628.157	17552.12
628.352	17363.7
628.546	17490.68
628.74	17488.63
628.935	17148.67
629.129	17400.57
629.323	17023.74
629.517	16931.58
629.712	16851.71
629.906	16853.76
630.1	16415.49
630.294	16896.77
630.489	16501.51
630.683	16599.81
630.877	15966.99
631.071	16298.76
631.265	16325.38
631.459	15926.03
631.653	15788.82
631.848	16112.39
632.042	15760.14
632.236	15715.09
632.43	15803.15
632.624	15655.7
632.818	15420.18
633.012	15289.11
633.206	15330.07
633.4	15424.28
633.594	14990.11
633.788	15250.2
633.982	15084.31
634.176	15131.42
634.369	14920.48
634.563	14725.92
634.757	14883.61
634.951	14887.71
635.145	14494.5
635.339	14560.03
635.533	14502.69
635.726	14428.96
635.92	14158.63
636.114	14478.12
636.308	14043.95
636.501	14025.51
636.695	14015.27
636.889	13837.1
637.083	13816.62
637.276	13746.99
637.47	13898.54
637.664	13736.75
637.857	13650.74
638.051	13628.21
638.244	13470.51
638.438	13413.17
638.632	13398.84
638.825	13349.68
639.019	13181.75
639.212	13067.06
639.406	12862.27
639.599	13060.92
639.793	12708.67
639.986	12643.14
640.18	12960.57
640.373	12788.54
640.567	12610.37
640.76	12602.18
640.954	12536.64
641.147	12395.33
641.34	12473.15
641.534	12473.15
641.727	12168.01
641.92	12184.39
642.114	11977.55
642.307	12198.73
642.5	12149.57
642.694	11832.14
642.887	11862.86
643.08	11995.98
643.273	11688.78
643.467	11789.13
643.66	11449.17
643.853	11598.67
644.046	11504.46
644.239	11477.84
644.432	11268.95
644.626	11445.07
644.819	11166.55
645.012	11236.18
645.205	11268.95
645.398	11246.42
645.591	11135.83
645.784	11090.77
645.977	11084.63
646.17	10978.14
646.363	10666.85
646.556	10543.97
646.749	10625.89
646.942	10845.02
647.135	10548.06
647.328	10584.93
647.521	10494.82
647.714	10302.31
647.907	10451.81
648.099	10337.12
648.292	10275.68
648.485	10384.23
648.678	10046.31
648.871	10265.44
649.064	10109.8
649.256	10115.94
649.449	9921.38
649.642	9866.09
649.835	9864.04
650.027	9847.66
650.22	9765.74
650.413	9526.13
650.605	9739.12
650.798	9534.32
650.991	9329.52
651.183	9665.39
651.376	9317.23
651.568	9620.33
651.761	9339.76
651.954	9407.34
652.146	9194.36
652.339	9210.74
652.531	9448.3
652.724	9085.81
652.916	8852.34
653.109	9106.29
653.301	9198.45
653.494	9012.09
653.686	8924.02
653.879	9042.81
654.071	8723.32
654.263	8731.51
654.456	8809.34
654.648	8897.4
654.84	8635.26
655.033	8506.24
655.225	8559.49
655.417	8543.1
655.61	8711.04
655.802	8485.76
655.994	8389.5
656.186	8201.09
656.379	8317.83
656.571	8244.1
656.763	8213.38
656.955	8022.92
657.148	8088.45
657.34	8162.18
657.532	8156.04
657.724	8170.37
657.916	8070.02
658.108	7930.76
658.3	8131.46
658.492	7857.03
658.684	7844.74
658.876	7734.15
659.068	7805.83
659.26	7590.8
659.452	7676.81
659.644	7787.4
659.836	7672.71
660.028	7494.54
660.22	7539.6
660.412	7500.69
660.604	7414.67
660.796	7435.15
660.988	7502.73
661.18	7336.85
661.372	7363.47
661.563	7426.96
661.755	7179.15
661.947	7232.4
662.139	7234.45
662.331	7103.38
662.522	7039.89
662.714	7037.84
662.906	7125.91
663.097	7003.03
663.289	6906.77
663.481	6890.39
663.673	6931.35
663.864	6691.74
664.056	6800.28
664.247	6818.71
664.439	6667.16
664.631	6706.07
664.822	6876.06
665.014	6816.66
665.205	6792.09
665.397	6562.72
665.588	6751.13
665.78	6605.72
665.971	6546.33
666.163	6572.96
666.354	6538.14
666.546	6615.96
666.737	6536.09
666.929	6353.82
667.12	6441.89
667.311	6407.07
667.503	6400.93
667.694	6271.9
667.885	6325.15
668.077	6316.96
668.268	6278.05
668.459	6398.88
668.651	6194.08
668.842	6255.52
669.033	6306.72
669.224	6183.84
669.416	6304.67
669.607	6077.35
669.798	6056.87
669.989	6134.69
670.18	5962.66
670.371	6171.55
670.563	6040.48
670.754	6038.44
670.945	6040.48
671.136	5940.13
671.327	5884.84
671.518	5823.4
671.709	5923.75
671.9	5972.9
672.091	5933.99
672.282	5968.8
672.473	5786.54
672.664	5759.91
672.855	5704.62
673.046	5792.68
673.237	5878.69
673.428	5782.44
673.619	5745.58
673.809	5565.36
674	5749.67
674.191	5571.5
674.382	5727.14
674.573	5645.23
674.764	5661.61
674.954	5716.9
675.145	5651.37
675.336	5561.26
675.527	5680.04
675.717	5462.96
675.908	5467.05
676.099	5585.83
676.289	5538.73
676.48	5524.4
676.671	5327.79
676.861	5686.19
677.052	5491.63
677.243	5489.58
677.433	5454.76
677.624	5465
677.814	5483.44
678.005	5573.55
678.195	5522.35
678.386	5448.62
678.576	5481.39
678.767	5501.87
678.957	5540.78
679.148	5522.35
679.338	5446.57
679.529	5540.78
679.719	5340.08
679.909	5671.85
680.1	5354.41
680.29	5409.71
680.481	5378.99
680.671	5481.39
680.861	5434.29
681.052	5491.63
681.242	5407.66
681.432	5403.57
681.622	5229.49
681.813	5413.81
682.003	5419.95
682.193	5278.64
682.383	5395.37
682.573	5290.93
682.764	5274.54
682.954	5157.81
683.144	5456.81
683.334	5116.85
683.524	5313.45
683.714	5399.47
683.904	5211.06
684.094	5292.98
684.284	5180.34
684.474	5366.7
684.664	5131.19
684.854	5215.15
685.044	5256.11
685.234	5235.63
685.424	5120.95
685.614	5155.76
685.804	5055.41
685.994	5245.87
686.184	5135.28
686.374	5034.93
686.564	4987.83
686.753	5192.62
686.943	4871.09
687.133	5063.6
687.323	5002.16
687.513	5039.03
687.702	4942.77
687.892	4926.39
688.082	4877.24
688.272	4950.96
688.461	4801.46
688.651	4977.59
688.841	4635.58
689.03	4729.78
689.22	4729.78
689.41	4725.69
689.599	4637.63
689.789	4707.26
689.979	4715.45
690.168	4567.99
690.358	4510.65
690.547	4649.91
690.737	4664.25
690.926	4615.1
691.116	4453.31
691.305	4445.12
691.495	4541.37
691.684	4498.36
691.874	4555.71
692.063	4271.04
692.252	4506.56
692.442	4461.5
692.631	4324.29
692.82	4283.33
693.01	4121.54
693.199	4381.63
693.388	4182.98
693.578	4287.42
693.767	4234.18
693.956	4096.96
694.146	4154.3
694.335	4129.73
694.524	4150.21
694.713	4107.2
694.902	4211.65
695.092	4131.78
695.281	4238.27
695.47	4053.95
695.659	4074.43
695.848	4137.92
696.037	4029.38
696.226	4002.75
696.415	3871.68
696.604	4015.04
696.793	3972.04
696.982	3961.8
697.171	4047.81
697.36	3861.45
697.549	3986.37
697.738	3912.64
697.927	3871.68
698.116	3883.97
698.305	3941.32
698.494	3859.4
698.683	3795.91
698.872	3945.41
699.061	3865.54
699.25	3738.57
699.438	3845.06
699.627	3816.39
699.816	3847.11
700.005	3738.57
700.193	3820.49
700.382	4000.71
700.571	3797.96
700.76	3922.88
700.948	3929.03
701.137	3603.4
701.326	3734.47
701.514	3730.38
701.703	3875.78
701.892	3752.9
702.08	3933.12
702.269	3738.57
702.457	3748.81
702.646	3806.15
702.834	3707.85
703.023	3775.43
703.212	3724.23
703.4	3769.29
703.589	3845.06
703.777	3765.19
703.965	3705.8
704.154	3701.7
704.342	3630.02
704.531	3894.21
704.719	3605.45
704.907	3830.73
705.096	3664.84
705.284	3720.14
705.472	3785.67
705.661	3677.13
705.849	3621.83
706.037	3724.23
706.226	3761.09
706.414	3740.61
706.602	3572.68
706.79	3808.2
706.979	3689.42
707.167	3689.42
707.355	3587.02
707.543	3695.56
707.731	3730.38
707.919	3746.76
708.107	3640.26
708.296	3720.14
708.484	3718.09
708.672	3636.17
708.86	3705.8
709.048	3711.94
709.236	3576.78
709.424	3806.15
709.612	3832.77
709.8	3691.46
709.988	3634.12
710.176	3797.96
710.364	3777.48
710.551	3752.9
710.739	3681.22
710.927	3826.63
711.115	3689.42
711.303	3683.27
711.491	3787.72
711.679	3800.01
711.866	3769.29
712.054	3744.71
712.242	3789.77
712.43	3865.54
712.617	3757
712.805	3838.92
712.993	3722.18
713.181	3650.5
713.368	3879.88
713.556	3847.11
713.744	3713.99
713.931	3922.88
714.119	3814.34
714.306	3730.38
714.494	3695.56
714.682	3660.74
714.869	3754.95
715.057	3935.17
715.244	3728.33
715.432	3853.25
715.619	3906.5
715.807	3763.14
715.994	3943.36
716.182	3816.39
716.369	3961.8
716.556	3951.56
716.744	3697.61
716.931	3838.92
717.119	3908.55
717.306	4017.09
717.493	3894.21
717.681	4084.67
717.868	3902.4
718.055	3908.55
718.242	3898.31
718.43	3933.12
718.617	3847.11
718.804	3916.74
718.991	3972.04
719.179	3836.87
719.366	3849.16
719.553	3861.45
719.74	3883.97
719.927	3910.6
720.114	4002.75
720.301	4006.85
720.488	3892.16
720.676	3939.27
720.863	4119.49
721.05	4029.38
721.237	4080.58
721.424	3875.78
721.611	4066.24
721.798	4023.23
721.985	3920.84
722.172	3908.55
722.358	3916.74
722.545	4049.86
722.732	3978.18
722.919	4115.39
723.106	3898.31
723.293	3908.55
723.48	3910.6
723.667	3953.6
723.853	3986.37
724.04	4107.2
724.227	4027.33
724.414	4170.69
724.6	4023.23
724.787	4056
724.974	4023.23
725.161	3980.23
725.347	3851.21
725.534	3990.47
725.72	4090.82
725.907	4041.67
726.094	4058.05
726.28	3953.6
726.467	4058.05
726.653	4012.99
726.84	4035.52
727.027	4158.4
727.213	3974.08
727.4	4039.62
727.586	3988.42
727.773	4039.62
727.959	4080.58
728.145	4150.21
728.332	4023.23
728.518	4178.88
728.705	4105.15
728.891	4131.78
729.077	4144.06
729.264	4008.9
729.45	3986.37
729.636	4121.54
729.823	4035.52
730.009	4037.57
730.195	4127.68
730.382	4131.78
730.568	4099.01
730.754	4076.48
730.94	4041.67
731.126	4074.43
731.313	4152.26
731.499	4088.77
731.685	4260.8
731.871	4113.35
732.057	4111.3
732.243	4107.2
732.429	4053.95
732.615	4135.87
732.801	4031.43
732.987	4121.54
733.173	4082.63
733.359	4084.67
733.545	4080.58
733.731	4195.26
733.917	4199.36
734.103	4221.89
734.289	4205.5
734.475	4049.86
734.661	4221.89
734.847	4105.15
735.033	4074.43
735.219	4084.67
735.404	4045.76
735.59	4123.59
735.776	3974.08
735.962	4096.96
736.148	4115.39
736.333	4082.63
736.519	4006.85
736.705	4131.78
736.89	4056
737.076	4195.26
737.262	3955.65
737.447	4008.9
737.633	4015.04
737.819	4096.96
738.004	4129.73
738.19	4160.45
738.375	3980.23
738.561	4068.29
738.747	4056
738.932	4029.38
739.118	4074.43
739.303	4230.08
739.489	4049.86
739.674	3924.93
739.859	3857.35
740.045	3959.75
740.23	3967.94
740.416	3847.11
740.601	3980.23
740.786	3945.41
740.972	3744.71
741.157	3914.69
741.342	3922.88
741.528	3851.21
741.713	3894.21
741.898	3929.03
742.084	3828.68
742.269	3838.92
742.454	3804.1
742.639	3902.4
742.824	3724.23
743.01	3865.54
743.195	3894.21
743.38	3834.82
743.565	3607.5
743.75	3828.68
743.935	3740.61
744.12	3740.61
744.305	3437.52
744.49	3759.05
744.675	3675.08
744.86	3513.29
745.045	3576.78
745.23	3550.15
745.415	3668.94
745.6	3447.76
745.785	3460.04
745.97	3574.73
746.155	3558.35
746.34	3554.25
746.525	3414.99
746.71	3470.28
746.895	3437.52
747.079	3341.26
747.264	3312.59
747.449	3439.56
747.634	3316.69
747.819	3412.94
748.003	3324.88
748.188	3189.71
748.373	3253.2
748.557	3285.97
748.742	3343.31
748.927	3419.08
749.111	3146.7
749.296	3113.94
749.481	3193.81
749.665	3189.71
749.85	3093.46
750.034	3103.7
750.219	3075.03
750.404	3032.02
750.588	2982.87
750.773	3029.97
750.957	3032.02
751.141	3013.59
751.326	2907.09
751.51	2923.48
751.695	2962.39
751.879	2923.48
752.064	2905.04
752.248	2835.41
752.432	2960.34
752.617	2915.28
752.801	2808.79
752.985	2849.75
753.17	2874.32
753.354	2892.76
753.538	2839.51
753.722	2636.76
753.907	2636.76
754.091	2651.1
754.275	2712.53
754.459	2628.57
754.643	2575.32
754.828	2706.39
755.012	2624.47
755.196	2497.5
755.38	2466.78
755.564	2460.63
755.748	2515.93
755.932	2540.51
756.116	2495.45
756.3	2481.11
756.484	2372.57
756.668	2448.35
756.852	2331.61
757.036	2388.96
757.22	2298.84
757.404	2343.9
757.588	2341.85
757.772	2352.09
757.956	2294.75
758.14	2319.32
758.323	2229.21
758.507	2261.98
758.691	2200.54
758.875	2304.99
759.059	2296.8
759.242	2182.11
759.426	2239.45
759.61	2253.79
759.794	2182.11
759.977	2167.77
760.161	2143.2
760.345	2096.1
760.528	2010.08
760.712	2218.97
760.895	1979.36
761.079	2014.18
761.263	2057.18
761.446	2028.51
761.63	2028.51
761.813	2030.56
761.997	2032.61
762.18	2026.47
762.364	1952.74
762.547	1995.75
762.731	1922.02
762.914	1952.74
763.098	1827.81
763.281	1905.63
763.464	1852.39
763.648	1989.6
763.831	1870.82
764.015	1893.35
764.198	1999.84
764.381	1876.96
764.564	1831.91
764.748	1874.92
764.931	1883.11
765.114	1766.37
765.297	1895.4
765.481	1735.65
765.664	1741.8
765.847	1838.05
766.03	1788.9
766.213	1827.81
766.397	1895.4
766.58	1831.91
766.763	1795.04
766.946	1711.08
767.129	1682.41
767.312	1749.99
767.495	1774.56
767.678	1741.8
767.861	1807.33
768.044	1663.97
768.227	1747.94
768.41	1698.79
768.593	1700.84
768.776	1647.59
768.959	1637.35
769.142	1694.69
769.324	1631.21
769.507	1680.36
769.69	1602.54
769.873	1541.1
770.056	1618.92
770.239	1559.53
770.421	1590.25
770.604	1561.58
770.787	1598.44
770.97	1522.66
771.152	1580.01
771.335	1528.81
771.518	1561.58
771.7	1483.75
771.883	1551.34
772.066	1459.18
772.248	1493.99
772.431	1539.05
772.613	1491.95
772.796	1418.22
772.978	1491.95
773.161	1373.16
773.343	1338.35
773.526	1418.22
773.708	1395.69
773.891	1381.35
774.073	1395.69
774.256	1389.55
774.438	1498.09
774.621	1319.92
774.803	1287.15
774.985	1338.35
775.168	1399.79
775.35	1291.24
775.532	1336.3
775.715	1182.7
775.897	1332.2
776.079	1244.14
776.261	1262.57
776.444	1319.92
776.626	1326.06
776.808	1160.17
776.99	1178.61
777.173	1344.49
777.355	1215.47
777.537	1217.52
777.719	1090.54
777.901	1164.27
778.083	1211.37
778.265	1166.32
778.447	1260.52
778.629	1092.59
778.811	1108.98
778.993	1090.54
779.175	1123.31
779.357	1082.35
779.539	963.57
779.721	1076.21
779.903	1061.87
780.085	1037.3
780.267	1010.67
780.449	1092.59
780.631	1096.69
780.812	1164.27
780.994	934.9
781.176	1065.97
781.358	992.24
781.54	1020.91
781.721	975.86
781.903	1041.39
782.085	1020.91
782.267	1035.25
782.448	908.27
782.63	945.14
782.812	1018.86
782.993	936.95
783.175	934.9
783.357	934.9
783.538	902.13
783.72	809.97
783.901	963.57
784.083	846.84
784.264	809.97
784.446	814.07
784.627	818.16
784.809	898.03
784.99	779.25
785.172	883.7
785.353	852.98
785.535	766.96
785.716	865.27
785.897	693.24
786.079	738.29
786.26	848.88
786.441	791.54
786.623	750.58
786.804	746.48
786.985	758.77
787.167	744.44
787.348	674.81
787.529	797.68
787.71	783.35
787.891	826.36
788.073	707.57
788.254	650.23
788.435	726
788.616	695.29
788.797	689.14
788.978	648.18
789.159	685.05
789.34	633.85
789.522	709.62
789.703	648.18
789.884	609.27
790.065	738.29
790.246	752.63
790.427	746.48
790.607	762.87
790.788	701.43
790.969	652.28
791.15	680.95
791.331	631.8
791.512	631.8
791.693	553.98
791.874	642.04
792.054	701.43
792.235	719.86
792.416	586.74
792.597	617.46
792.778	601.08
792.958	633.85
793.139	582.65
793.32	574.46
793.5	551.93
793.681	594.93
793.862	556.02
794.042	594.93
794.223	599.03
794.404	496.63
794.584	535.54
794.765	476.15
794.945	496.63
795.126	533.5
795.306	543.74
795.487	570.36
795.667	578.55
795.848	642.04
796.028	496.63
796.209	529.4
796.389	498.68
796.57	547.83
796.75	519.16
796.93	455.67
797.111	476.15
797.291	541.69
797.471	502.78
797.652	510.97
797.832	455.67
798.012	506.87
798.192	437.24
798.373	377.85
798.553	519.16
798.733	474.1
798.913	386.04
799.093	424.95
799.274	416.76
799.454	498.68
799.634	439.29
799.814	459.77
799.994	482.3
800.174	537.59
800.354	474.1
800.534	412.67
800.714	414.71
800.894	340.99
801.074	381.95
801.254	412.67
801.434	527.35
801.614	314.36
801.794	396.28
801.974	1438.7
802.154	353.27
802.334	437.24
802.514	394.23
802.693	412.67
802.873	379.9
803.053	422.91
803.233	476.15
803.413	412.67
803.592	355.32
803.772	314.36
803.952	390.14
804.131	410.62
804.311	400.38
804.491	427
804.67	355.32
804.85	302.08
805.03	408.57
805.209	424.95
805.389	396.28
805.568	283.64
805.748	291.84
805.928	304.12
806.107	336.89
806.287	343.03
806.466	359.42
806.646	340.99
806.825	302.08
807.004	283.64
807.184	336.89
807.363	361.47
807.543	427
807.722	336.89
807.901	398.33
808.081	363.51
808.26	261.12
808.439	357.37
808.619	429.05
808.798	293.88
808.977	361.47
809.156	394.23
809.336	306.17
809.515	330.75
809.694	293.88
809.873	246.78
810.052	320.51
810.231	340.99
810.411	357.37
810.59	269.31
810.769	349.18
810.948	410.62
811.127	259.07
811.306	361.47
811.485	230.4
811.664	406.52
811.843	336.89
812.022	189.44
812.201	257.02
812.38	185.34
812.559	275.45
812.737	263.16
812.916	226.3
813.095	236.54
813.274	328.7
813.453	289.79
813.632	287.74
813.811	330.75
813.989	189.44
814.168	318.46
814.347	254.97
814.526	224.25
814.704	257.02
814.883	291.84
815.062	261.12
815.24	289.79
815.419	226.3
815.598	310.27
815.776	160.77
815.955	308.22
816.133	152.57
816.312	242.68
816.49	132.09
816.669	220.16
816.847	285.69
817.026	279.55
817.204	216.06
817.383	203.77
817.561	191.49
817.74	259.07
817.918	238.59
818.097	189.44
818.275	181.25
818.453	267.26
818.632	238.59
818.81	181.25
818.988	191.49
819.167	216.06
819.345	257.02
819.523	168.96
819.701	244.73
819.879	259.07
820.058	199.68
820.236	281.6
820.414	193.53
820.592	132.09
820.77	265.21
820.948	175.1
821.127	187.39
821.305	183.29
821.483	183.29
821.661	195.58
821.839	230.4
822.017	158.72
822.195	211.96
822.373	224.25
822.551	195.58
822.729	189.44
822.907	175.1
823.085	209.92
823.262	238.59
823.44	181.25
823.618	162.81
823.796	287.74
823.974	166.91
824.152	171.01
824.329	119.81
824.507	144.38
824.685	205.82
824.863	193.53
825.04	191.49
825.218	265.21
825.396	140.29
825.574	175.1
825.751	132.09
825.929	199.68
826.107	183.29
826.284	166.91
826.462	142.33
826.639	185.34
826.817	148.48
826.994	140.29
827.172	168.96
827.349	160.77
827.527	209.92
827.704	152.57
827.882	183.29
828.059	148.48
828.237	175.1
828.414	273.4
828.591	93.18
828.769	150.53
828.946	173.05
829.124	230.4
829.301	222.2
829.478	191.49
829.655	209.92
829.833	150.53
830.01	39.94
830.187	136.19
830.364	166.91
830.542	150.53
830.719	263.16
830.896	250.88
831.073	166.91
831.25	125.95
831.427	138.24
831.604	107.52
831.782	109.57
831.959	193.53
832.136	142.33
832.313	111.61
832.49	76.8
832.667	146.43
832.844	142.33
833.021	179.2
833.198	80.89
833.374	123.9
833.551	189.44
833.728	101.37
833.905	224.25
834.082	115.71
834.259	117.76
834.436	154.62
834.612	111.61
834.789	125.95
834.966	87.04
835.143	177.15
835.319	29.7
835.496	197.63
835.673	97.28
835.85	201.72
836.026	175.1
836.203	97.28
836.38	111.61
836.556	123.9
836.733	164.86
836.909	136.19
837.086	78.85
837.262	80.89
837.439	173.05
837.616	50.18
837.792	78.85
837.968	107.52
838.145	82.94
838.321	115.71
838.498	89.09
838.674	105.47
838.851	134.14
839.027	37.89
839.203	35.84
839.38	107.52
839.556	50.18
839.732	138.24
839.909	144.38
840.085	125.95
840.261	89.09
840.437	1.02
840.614	162.81
840.79	128
840.966	144.38
841.142	66.56
841.318	70.65
841.494	115.71
841.671	195.58
841.847	109.57
842.023	46.08
842.199	95.23
842.375	107.52
842.551	93.18
842.727	25.6
842.903	44.03
843.079	58.37
843.255	121.85
843.431	11.26
843.607	56.32
843.783	21.5
843.959	158.72
844.134	17.41
844.31	140.29
844.486	74.75
844.662	101.37
844.838	95.23
845.013	58.37
845.189	123.9
845.365	117.76
845.541	136.19
845.716	103.42
845.892	101.37
846.068	80.89
846.244	46.08
846.419	56.32
846.595	44.03
846.77	72.7
846.946	111.61
847.122	62.46
847.297	-1.02
847.473	50.18
847.648	58.37
847.824	74.75
847.999	17.41
848.175	74.75
848.35	82.94
848.526	121.85
848.701	84.99
848.876	138.24
849.052	66.56
849.227	-13.31
849.403	101.37
849.578	113.66
849.753	68.61
849.929	152.57
850.104	27.65
850.279	-13.31
850.454	78.85
850.63	136.19
850.805	52.22
850.98	9.22
851.155	-7.17
851.33	46.08
851.505	72.7
851.681	74.75
851.856	56.32
852.031	99.33
852.206	91.13
852.381	-17.41
852.556	-13.31
852.731	-11.26
852.906	62.46
853.081	89.09
853.256	84.99
853.431	132.09
853.606	1.02
853.781	93.18
853.956	46.08
854.131	107.52
854.305	23.55
854.48	21.5
854.655	76.8
854.83	62.46
855.005	19.46
855.18	95.23
855.354	37.89
855.529	107.52
855.704	50.18
855.879	148.48
856.053	44.03
856.228	44.03
856.403	66.56
856.577	39.94
856.752	-29.7
856.926	66.56
857.101	91.13
857.276	-15.36
857.45	19.46
857.625	44.03
857.799	33.79
857.974	50.18
858.148	-13.31
858.323	68.61
858.497	-15.36
858.672	29.7
858.846	87.04
859.02	132.09
859.195	-56.32
859.369	95.23
859.543	25.6
859.718	101.37
859.892	58.37
860.066	76.8
860.241	1.02
860.415	70.65
860.589	1.02
860.763	76.8
860.938	82.94
861.112	13.31
861.286	1.02
861.46	1.02
861.634	68.61
861.808	99.33
861.982	50.18
862.157	74.75
862.331	-11.26
862.505	80.89
862.679	-11.26
862.853	99.33
863.027	-27.65
863.201	177.15
863.375	1.02
863.549	123.9
863.722	68.61
863.896	78.85
864.07	9.22
864.244	9.22
864.418	52.22
864.592	72.7
864.766	21.5
864.939	52.22
865.113	37.89
865.287	97.28
865.461	-11.26
865.634	103.42
865.808	80.89
865.982	31.74
866.156	41.98
866.329	52.22
866.503	140.29
866.676	56.32
866.85	13.31
867.024	-5.12
867.197	39.94
867.371	136.19
867.544	60.42
867.718	23.55
867.891	107.52
868.065	-37.89
868.238	39.94
868.412	60.42
868.585	31.74
868.759	17.41
868.932	5.12
869.105	27.65
869.279	37.89
869.452	-27.65
869.625	35.84
869.799	54.27
869.972	5.12
870.145	-1.02
870.319	52.22
870.492	76.8
870.665	-3.07
870.838	-21.5
871.011	19.46
871.185	11.26
871.358	-23.55
871.531	58.37
871.704	15.36
871.877	-44.03
872.05	-50.18
872.223	48.13
872.396	-13.31
872.569	44.03
872.742	9.22
872.915	9.22
873.088	78.85
873.261	62.46
873.434	31.74
873.607	-3.07
873.78	91.13
873.953	-27.65
874.126	-39.94
874.299	17.41
874.471	-29.7
874.644	5.12
874.817	109.57
874.99	99.33
875.163	15.36
875.335	58.37
875.508	31.74
875.681	144.38
875.853	13.31
876.026	82.94
876.199	46.08
876.371	50.18
876.544	-21.5
876.717	-5.12
876.889	-29.7
877.062	89.09
877.234	46.08
877.407	13.31
877.579	-31.74
877.752	1.02
877.924	80.89
878.097	44.03
878.269	52.22
878.442	13.31
878.614	87.04
878.786	70.65
878.959	19.46
879.131	17.41
879.303	-60.42
879.476	-19.46
879.648	37.89
879.82	84.99
879.993	25.6
880.165	-31.74
880.337	1.02
880.509	-31.74
880.681	-48.13
880.854	-3.07
881.026	39.94
881.198	50.18
881.37	7.17
881.542	72.7
881.714	-17.41
881.886	1.02
882.058	21.5
882.23	25.6
882.402	95.23
882.574	60.42
882.746	-5.12
882.918	142.33
883.09	68.61
883.262	-64.51
883.434	13.31
883.606	-39.94
883.778	35.84
883.95	48.13
884.122	50.18
884.293	3.07
884.465	95.23
884.637	48.13
884.809	11.26
884.98	52.22
885.152	52.22
885.324	13.31
885.496	-39.94
885.667	21.5
885.839	66.56
886.011	64.51
886.182	25.6
886.354	21.5
886.525	54.27
886.697	-58.37
886.869	11.26
887.04	33.79
887.212	50.18
887.383	70.65
887.555	-3.07
887.726	-11.26
887.897	1.02
888.069	31.74
888.24	95.23
888.412	-5.12
888.583	-7.17
888.754	11.26
888.926	-41.98
889.097	25.6
889.268	-33.79
889.44	-25.6
889.611	29.7
889.782	1.02
889.953	-44.03
890.125	-5.12
890.296	-80.89
890.467	-5.12
890.638	27.65
890.809	35.84
890.98	-23.55
891.151	-9.22
891.323	60.42
891.494	25.6
891.665	82.94
891.836	35.84
892.007	46.08
892.178	-3.07
892.349	3.07
892.52	-62.46
892.691	91.13
892.862	7.17
893.032	-123.9
893.203	-1.02
893.374	60.42
893.545	66.56
893.716	60.42
893.887	56.32
894.057	25.6
894.228	-3.07
894.399	13.31
894.57	25.6
894.74	11.26
894.911	-29.7
895.082	52.22
895.253	37.89
895.423	29.7
895.594	78.85
895.764	68.61
895.935	-54.27
896.106	23.55
896.276	46.08
896.447	13.31
896.617	31.74
896.788	19.46
896.958	-11.26
897.129	-27.65
897.299	19.46
897.47	17.41
897.64	-13.31
897.81	9.22
897.981	7.17
898.151	-44.03
898.322	19.46
898.492	13.31
898.662	-37.89
898.832	-56.32
899.003	31.74
899.173	21.5
899.343	5.12
899.513	-33.79
