Data from USB4F104151__19__13-04-39-289.txt Node

Date: Fri Mar 14 13:04:39 EDT 2025
User: louis
Spectrometer: USB4F10415
Trigger mode: 4
Integration Time (sec): 4.000000E-2
Scans to average: 1
Electric dark correction enabled: true
Nonlinearity correction enabled: false
Boxcar width: 0
XAxis mode: Wavelengths
Number of Pixels in Spectrum: 3648
>>>>>Begin Spectral Data<<<<<
178.204	-261.29
178.424	-261.29
178.644	-261.29
178.864	-218.28
179.084	-251.05
179.304	-56.49
179.524	-50.35
179.744	21.33
179.964	41.81
180.184	-21.67
180.404	-5.29
180.624	25.43
180.844	-13.48
181.064	-25.77
181.283	21.33
181.503	-9.39
181.723	72.53
181.943	-140.46
182.163	70.48
182.383	47.96
182.602	90.96
182.822	-27.82
183.042	39.76
183.262	-13.48
183.482	-21.67
183.701	25.43
183.921	47.96
184.141	-44.2
184.361	9.05
184.58	41.81
184.8	17.24
185.02	-68.78
185.239	144.21
185.459	54.1
185.679	66.39
185.898	23.38
186.118	70.48
186.338	23.38
186.557	62.29
186.777	37.72
186.997	13.14
187.216	50
187.436	164.69
187.655	7
187.875	105.3
188.095	-33.96
188.314	70.48
188.534	74.58
188.753	39.76
188.973	25.43
189.192	105.3
189.412	13.14
189.631	-1.19
189.851	13.14
190.07	43.86
190.29	-19.63
190.509	-70.83
190.729	4.95
190.948	86.87
191.168	158.55
191.387	60.24
191.607	54.1
191.826	56.15
192.045	-36.01
192.265	-42.15
192.484	39.76
192.704	-9.39
192.923	-72.87
193.142	144.21
193.362	-11.43
193.581	80.72
193.8	21.33
194.02	56.15
194.239	29.52
194.458	45.91
194.678	21.33
194.897	-36.01
195.116	33.62
195.335	2.9
195.555	66.39
195.774	-44.2
195.993	58.2
196.212	15.19
196.432	7
196.651	-11.43
196.87	7
197.089	101.2
197.308	123.73
197.528	41.81
197.747	-25.77
197.966	-31.91
198.185	131.92
198.404	9.05
198.623	50
198.842	70.48
199.062	54.1
199.281	43.86
199.5	-9.39
199.719	-15.53
199.938	-1.19
200.157	58.2
200.376	31.57
200.595	76.63
200.814	-7.34
201.033	41.81
201.252	11.09
201.471	0.85
201.69	27.48
201.909	23.38
202.128	13.14
202.347	-42.15
202.566	27.48
202.785	7
203.004	23.38
203.223	123.73
203.442	15.19
203.661	39.76
203.879	-13.48
204.098	74.58
204.317	27.48
204.536	88.92
204.755	-3.24
204.974	15.19
205.193	58.2
205.411	138.07
205.63	47.96
205.849	4.95
206.068	54.1
206.287	39.76
206.505	41.81
206.724	11.09
206.943	17.24
207.162	2.9
207.381	62.29
207.599	0.85
207.818	21.33
208.037	45.91
208.255	-15.53
208.474	0.85
208.693	47.96
208.911	21.33
209.13	54.1
209.349	13.14
209.567	31.57
209.786	111.44
210.005	33.62
210.223	13.14
210.442	0.85
210.661	33.62
210.879	33.62
211.098	56.15
211.316	23.38
211.535	78.68
211.753	0.85
211.972	-17.58
212.191	27.48
212.409	-19.63
212.628	56.15
212.846	54.1
213.065	15.19
213.283	119.64
213.502	66.39
213.72	62.29
213.938	93.01
214.157	17.24
214.375	39.76
214.594	68.44
214.812	21.33
215.031	74.58
215.249	80.72
215.467	-9.39
215.686	0.85
215.904	82.77
216.122	13.14
216.341	54.1
216.559	54.1
216.778	107.35
216.996	97.11
217.214	-36.01
217.432	-7.34
217.651	7
217.869	-19.63
218.087	-74.92
218.306	90.96
218.524	4.95
218.742	-44.2
218.96	-44.2
219.179	19.29
219.397	13.14
219.615	97.11
219.833	-36.01
220.051	17.24
220.27	78.68
220.488	37.72
220.706	-11.43
220.924	56.15
221.142	56.15
221.36	62.29
221.578	43.86
221.796	37.72
222.015	-21.67
222.233	-89.26
222.451	45.91
222.669	-23.72
222.887	58.2
223.105	-27.82
223.323	-23.72
223.541	4.95
223.759	68.44
223.977	39.76
224.195	74.58
224.413	103.25
224.631	62.29
224.849	4.95
225.067	111.44
225.285	-25.77
225.503	7
225.721	-25.77
225.939	-7.34
226.157	88.92
226.375	185.17
226.592	-15.53
226.81	-54.44
227.028	45.91
227.246	66.39
227.464	-74.92
227.682	58.2
227.9	23.38
228.117	-48.3
228.335	103.25
228.553	23.38
228.771	54.1
228.989	13.14
229.206	29.52
229.424	-17.58
229.642	23.38
229.86	0.85
230.077	80.72
230.295	15.19
230.513	45.91
230.731	74.58
230.948	50
231.166	80.72
231.384	-27.82
231.601	21.33
231.819	39.76
232.037	86.87
232.254	-19.63
232.472	70.48
232.689	29.52
232.907	54.1
233.125	21.33
233.342	7
233.56	74.58
233.777	35.67
233.995	-40.11
234.213	41.81
234.43	50
234.648	41.81
234.865	13.14
235.083	13.14
235.3	-5.29
235.518	47.96
235.735	29.52
235.953	88.92
236.17	2.9
236.388	15.19
236.605	33.62
236.822	58.2
237.04	103.25
237.257	-27.82
237.475	45.91
237.692	45.91
237.909	-19.63
238.127	39.76
238.344	47.96
238.562	9.05
238.779	-60.59
238.996	33.62
239.214	37.72
239.431	88.92
239.648	0.85
239.865	-40.11
240.083	99.16
240.3	62.29
240.517	54.1
240.735	78.68
240.952	97.11
241.169	15.19
241.386	-1.19
241.603	-17.58
241.821	-81.07
242.038	101.2
242.255	-9.39
242.472	4.95
242.689	80.72
242.907	76.63
243.124	-38.06
243.341	37.72
243.558	-72.87
243.775	-56.49
243.992	-58.54
244.209	-1.19
244.426	115.54
244.643	11.09
244.86	9.05
245.078	31.57
245.295	33.62
245.512	23.38
245.729	-21.67
245.946	37.72
246.163	41.81
246.38	9.05
246.597	95.06
246.814	2.9
247.031	111.44
247.248	0.85
247.464	29.52
247.681	15.19
247.898	80.72
248.115	31.57
248.332	47.96
248.549	31.57
248.766	90.96
248.983	29.52
249.2	52.05
249.417	7
249.633	4.95
249.85	-31.91
250.067	17.24
250.284	37.72
250.501	-9.39
250.717	41.81
250.934	-36.01
251.151	37.72
251.368	37.72
251.585	-17.58
251.801	31.57
252.018	2.9
252.235	121.68
252.451	29.52
252.668	54.1
252.885	88.92
253.102	27.48
253.318	62.29
253.535	35.67
253.752	15.19
253.968	66.39
254.185	-9.39
254.401	33.62
254.618	-5.29
254.835	7
255.051	54.1
255.268	84.82
255.484	4.95
255.701	13.14
255.917	29.52
256.134	-40.11
256.351	62.29
256.567	2.9
256.784	4.95
257	-23.72
257.217	60.24
257.433	54.1
257.65	9.05
257.866	78.68
258.082	29.52
258.299	47.96
258.515	41.81
258.732	7
258.948	-19.63
259.165	11.09
259.381	-17.58
259.597	74.58
259.814	27.48
260.03	25.43
260.246	99.16
260.463	33.62
260.679	45.91
260.895	25.43
261.112	60.24
261.328	88.92
261.544	-1.19
261.761	121.68
261.977	-33.96
262.193	-52.39
262.409	74.58
262.626	60.24
262.842	50
263.058	-13.48
263.274	13.14
263.49	7
263.707	95.06
263.923	-25.77
264.139	2.9
264.355	-48.3
264.571	119.64
264.787	43.86
265.004	43.86
265.22	33.62
265.436	68.44
265.652	-31.91
265.868	58.2
266.084	-19.63
266.3	13.14
266.516	-60.59
266.732	105.3
266.948	27.48
267.164	64.34
267.38	-7.34
267.596	54.1
267.812	84.82
268.028	31.57
268.244	-3.24
268.46	27.48
268.676	31.57
268.892	56.15
269.108	7
269.324	-21.67
269.54	-40.11
269.756	21.33
269.972	-21.67
270.188	15.19
270.403	11.09
270.619	47.96
270.835	19.29
271.051	-7.34
271.267	4.95
271.483	74.58
271.698	-5.29
271.914	17.24
272.13	111.44
272.346	7
272.562	66.39
272.777	47.96
272.993	-31.91
273.209	23.38
273.425	109.4
273.64	-15.53
273.856	-36.01
274.072	19.29
274.287	-15.53
274.503	4.95
274.719	31.57
274.934	-113.83
275.15	-1.19
275.366	-40.11
275.581	-19.63
275.797	58.2
276.012	23.38
276.228	-64.68
276.444	15.19
276.659	54.1
276.875	15.19
277.09	50
277.306	-19.63
277.521	25.43
277.737	-33.96
277.952	60.24
278.168	25.43
278.383	-11.43
278.599	7
278.814	37.72
279.03	-38.06
279.245	2.9
279.461	0.85
279.676	50
279.892	33.62
280.107	-66.73
280.322	-23.72
280.538	45.91
280.753	-25.77
280.969	-9.39
281.184	50
281.399	60.24
281.615	-11.43
281.83	-25.77
282.045	-42.15
282.26	84.82
282.476	62.29
282.691	27.48
282.906	76.63
283.122	31.57
283.337	-19.63
283.552	86.87
283.767	60.24
283.983	90.96
284.198	33.62
284.413	29.52
284.628	4.95
284.843	9.05
285.058	72.53
285.274	64.34
285.489	56.15
285.704	78.68
285.919	-58.54
286.134	45.91
286.349	-44.2
286.564	37.72
286.779	56.15
286.995	68.44
287.21	21.33
287.425	2.9
287.64	39.76
287.855	-27.82
288.07	-83.11
288.285	115.54
288.5	37.72
288.715	54.1
288.93	-3.24
289.145	11.09
289.36	37.72
289.575	50
289.79	35.67
290.004	7
290.219	76.63
290.434	33.62
290.649	45.91
290.864	72.53
291.079	37.72
291.294	9.05
291.509	2.9
291.724	17.24
291.938	-25.77
292.153	39.76
292.368	-46.25
292.583	-17.58
292.798	68.44
293.012	82.77
293.227	60.24
293.442	31.57
293.657	76.63
293.871	0.85
294.086	-25.77
294.301	123.73
294.516	41.81
294.73	-33.96
294.945	-3.24
295.16	39.76
295.374	133.97
295.589	127.83
295.804	-99.5
296.018	52.05
296.233	50
296.447	-3.24
296.662	-27.82
296.877	68.44
297.091	50
297.306	37.72
297.52	43.86
297.735	76.63
297.949	-58.54
298.164	64.34
298.378	15.19
298.593	21.33
298.807	13.14
299.022	68.44
299.236	-7.34
299.451	25.43
299.665	-3.24
299.88	25.43
300.094	-36.01
300.309	64.34
300.523	86.87
300.737	15.19
300.952	33.62
301.166	21.33
301.381	-48.3
301.595	7
301.809	50
302.024	72.53
302.238	-48.3
302.452	62.29
302.667	-19.63
302.881	93.01
303.095	131.92
303.309	25.43
303.524	88.92
303.738	9.05
303.952	23.38
304.166	45.91
304.381	-40.11
304.595	129.88
304.809	-23.72
305.023	-3.24
305.237	-25.77
305.452	76.63
305.666	29.52
305.88	13.14
306.094	45.91
306.308	23.38
306.522	37.72
306.736	-9.39
306.95	-1.19
307.164	113.49
307.379	-66.73
307.593	84.82
307.807	90.96
308.021	33.62
308.235	109.4
308.449	-25.77
308.663	31.57
308.877	95.06
309.091	43.86
309.305	31.57
309.519	-50.35
309.733	78.68
309.947	4.95
310.161	62.29
310.374	113.49
310.588	15.19
310.802	-27.82
311.016	25.43
311.23	54.1
311.444	-17.58
311.658	0.85
311.872	107.35
312.085	11.09
312.299	119.64
312.513	2.9
312.727	93.01
312.941	58.2
313.154	21.33
313.368	7
313.582	52.05
313.796	54.1
314.009	72.53
314.223	54.1
314.437	70.48
314.651	68.44
314.864	-1.19
315.078	25.43
315.292	62.29
315.505	21.33
315.719	23.38
315.933	21.33
316.146	-60.59
316.36	-33.96
316.573	21.33
316.787	84.82
317.001	80.72
317.214	47.96
317.428	17.24
317.641	17.24
317.855	33.62
318.068	-25.77
318.282	58.2
318.495	105.3
318.709	-11.43
318.922	47.96
319.136	152.4
319.349	62.29
319.563	0.85
319.776	72.53
319.99	-27.82
320.203	13.14
320.417	58.2
320.63	45.91
320.843	95.06
321.057	119.64
321.27	52.05
321.483	50
321.697	45.91
321.91	-64.68
322.124	-36.01
322.337	82.77
322.55	82.77
322.763	23.38
322.977	13.14
323.19	-40.11
323.403	62.29
323.617	11.09
323.83	105.3
324.043	-23.72
324.256	54.1
324.469	-23.72
324.683	95.06
324.896	33.62
325.109	54.1
325.322	13.14
325.535	27.48
325.748	-19.63
325.962	7
326.175	50
326.388	29.52
326.601	19.29
326.814	-1.19
327.027	15.19
327.24	84.82
327.453	-36.01
327.666	-9.39
327.879	78.68
328.092	113.49
328.305	-3.24
328.518	37.72
328.731	-7.34
328.944	45.91
329.157	45.91
329.37	-9.39
329.583	136.02
329.796	111.44
330.009	4.95
330.222	-3.24
330.435	54.1
330.648	9.05
330.861	29.52
331.073	-17.58
331.286	23.38
331.499	-7.34
331.712	-66.73
331.925	150.36
332.138	-11.43
332.35	33.62
332.563	-31.91
332.776	86.87
332.989	0.85
333.202	-27.82
333.414	-1.19
333.627	-50.35
333.84	-42.15
334.053	90.96
334.265	-33.96
334.478	-33.96
334.691	39.76
334.903	39.76
335.116	15.19
335.329	21.33
335.541	111.44
335.754	45.91
335.966	-33.96
336.179	62.29
336.392	68.44
336.604	-5.29
336.817	74.58
337.029	37.72
337.242	21.33
337.454	93.01
337.667	47.96
337.88	121.68
338.092	37.72
338.305	29.52
338.517	70.48
338.729	33.62
338.942	88.92
339.154	-15.53
339.367	66.39
339.579	27.48
339.792	17.24
340.004	41.81
340.217	103.25
340.429	33.62
340.641	25.43
340.854	-19.63
341.066	0.85
341.278	25.43
341.491	56.15
341.703	-38.06
341.915	-1.19
342.128	23.38
342.34	19.29
342.552	-17.58
342.764	41.81
342.977	15.19
343.189	119.64
343.401	72.53
343.613	-9.39
343.826	4.95
344.038	-17.58
344.25	76.63
344.462	39.76
344.674	-21.67
344.886	45.91
345.099	56.15
345.311	52.05
345.523	56.15
345.735	-95.4
345.947	23.38
346.159	33.62
346.371	-21.67
346.583	35.67
346.795	70.48
347.007	9.05
347.219	23.38
347.431	-11.43
347.643	78.68
347.855	9.05
348.067	4.95
348.279	72.53
348.491	41.81
348.703	62.29
348.915	25.43
349.127	-36.01
349.339	41.81
349.551	9.05
349.763	88.92
349.975	62.29
350.187	68.44
350.399	37.72
350.61	64.34
350.822	7
351.034	95.06
351.246	123.73
351.458	-1.19
351.669	64.34
351.881	121.68
352.093	23.38
352.305	115.54
352.517	17.24
352.728	123.73
352.94	-13.48
353.152	29.52
353.363	45.91
353.575	25.43
353.787	27.48
353.999	88.92
354.21	127.83
354.422	29.52
354.633	-11.43
354.845	-7.34
355.057	90.96
355.268	66.39
355.48	54.1
355.692	-11.43
355.903	-11.43
356.115	-48.3
356.326	70.48
356.538	117.59
356.749	60.24
356.961	54.1
357.172	45.91
357.384	66.39
357.595	95.06
357.807	74.58
358.018	13.14
358.23	64.34
358.441	125.78
358.653	86.87
358.864	33.62
359.075	50
359.287	23.38
359.498	131.92
359.709	25.43
359.921	52.05
360.132	27.48
360.344	58.2
360.555	15.19
360.766	60.24
360.977	-36.01
361.189	45.91
361.4	43.86
361.611	78.68
361.823	2.9
362.034	43.86
362.245	-66.73
362.456	62.29
362.667	29.52
362.879	9.05
363.09	37.72
363.301	97.11
363.512	41.81
363.723	70.48
363.935	56.15
364.146	47.96
364.357	-25.77
364.568	33.62
364.779	-17.58
364.99	62.29
365.201	-66.73
365.412	84.82
365.623	37.72
365.834	45.91
366.045	29.52
366.256	56.15
366.467	35.67
366.678	-31.91
366.889	47.96
367.1	58.2
367.311	33.62
367.522	-64.68
367.733	82.77
367.944	86.87
368.155	15.19
368.366	129.88
368.577	127.83
368.788	33.62
368.999	52.05
369.209	-9.39
369.42	60.24
369.631	82.77
369.842	66.39
370.053	50
370.264	21.33
370.474	-15.53
370.685	72.53
370.896	-17.58
371.107	136.02
371.317	52.05
371.528	62.29
371.739	125.78
371.95	54.1
372.16	27.48
372.371	-62.63
372.582	-25.77
372.792	15.19
373.003	62.29
373.214	95.06
373.424	54.1
373.635	23.38
373.846	66.39
374.056	50
374.267	64.34
374.477	43.86
374.688	-3.24
374.898	4.95
375.109	-9.39
375.319	88.92
375.53	66.39
375.74	76.63
375.951	-13.48
376.161	35.67
376.372	95.06
376.582	-5.29
376.793	113.49
377.003	-23.72
377.214	45.91
377.424	37.72
377.635	111.44
377.845	41.81
378.055	68.44
378.266	-52.39
378.476	23.38
378.686	-9.39
378.897	23.38
379.107	82.77
379.317	47.96
379.528	54.1
379.738	45.91
379.948	-23.72
380.158	76.63
380.369	17.24
380.579	90.96
380.789	13.14
380.999	93.01
381.21	4.95
381.42	70.48
381.63	33.62
381.84	66.39
382.05	84.82
382.261	115.54
382.471	68.44
382.681	-9.39
382.891	50
383.101	119.64
383.311	-79.02
383.521	-25.77
383.731	136.02
383.941	62.29
384.151	62.29
384.361	15.19
384.571	-3.24
384.781	54.1
384.991	50
385.201	138.07
385.411	58.2
385.621	70.48
385.831	101.2
386.041	86.87
386.251	2.9
386.461	58.2
386.671	9.05
386.881	56.15
387.091	31.57
387.301	109.4
387.511	64.34
387.72	82.77
387.93	37.72
388.14	-36.01
388.35	35.67
388.56	29.52
388.769	93.01
388.979	27.48
389.189	72.53
389.399	25.43
389.609	131.92
389.818	121.68
390.028	97.11
390.238	-21.67
390.447	50
390.657	50
390.867	64.34
391.076	4.95
391.286	119.64
391.496	78.68
391.705	47.96
391.915	121.68
392.125	39.76
392.334	4.95
392.544	119.64
392.753	86.87
392.963	0.85
393.172	93.01
393.382	-33.96
393.591	136.02
393.801	15.19
394.01	181.07
394.22	70.48
394.429	54.1
394.639	33.62
394.848	84.82
395.058	90.96
395.267	4.95
395.477	80.72
395.686	52.05
395.895	129.88
396.105	179.03
396.314	111.44
396.524	131.92
396.733	19.29
396.942	27.48
397.152	117.59
397.361	52.05
397.57	103.25
397.78	27.48
397.989	82.77
398.198	127.83
398.407	31.57
398.617	13.14
398.826	144.21
399.035	90.96
399.244	117.59
399.453	109.4
399.663	35.67
399.872	127.83
400.081	168.79
400.29	213.84
400.499	13.14
400.708	99.16
400.917	56.15
401.127	88.92
401.336	115.54
401.545	127.83
401.754	148.31
401.963	148.31
402.172	189.27
402.381	86.87
402.59	93.01
402.799	138.07
403.008	152.4
403.217	80.72
403.426	93.01
403.635	37.72
403.844	111.44
404.053	117.59
404.262	72.53
404.471	224.08
404.68	88.92
404.888	160.59
405.097	84.82
405.306	166.74
405.515	160.59
405.724	64.34
405.933	172.88
406.142	267.09
406.35	129.88
406.559	207.7
406.768	129.88
406.977	271.19
407.185	248.66
407.394	168.79
407.603	211.79
407.812	166.74
408.02	197.46
408.229	193.36
408.438	265.04
408.646	193.36
408.855	209.75
409.064	209.75
409.272	267.09
409.481	281.43
409.69	191.31
409.898	224.08
410.107	211.79
410.315	324.43
410.524	246.61
410.733	351.06
410.941	324.43
411.15	328.53
411.358	338.77
411.567	418.64
411.775	353.1
411.984	275.28
412.192	320.34
412.401	379.73
412.609	445.26
412.818	379.73
413.026	443.21
413.234	441.17
413.443	492.37
413.651	439.12
413.86	492.37
414.068	582.48
414.276	627.53
414.485	576.33
414.693	592.72
414.901	686.92
415.11	639.82
415.318	656.2
415.526	656.2
415.734	725.83
415.943	688.97
416.151	752.46
416.359	797.51
416.567	844.62
416.776	906.06
416.984	848.71
417.192	899.91
417.4	844.62
417.608	908.1
417.817	881.48
418.025	1047.37
418.233	1127.24
418.441	1022.79
418.649	1076.04
418.857	1104.71
419.065	1278.79
419.273	1143.62
419.481	1211.2
419.689	1235.78
419.897	1256.26
420.105	1282.88
420.313	1348.42
420.521	1512.25
420.729	1569.6
420.937	1475.39
421.145	1555.26
421.353	1678.14
421.561	1803.07
421.769	1743.67
421.977	1841.98
422.185	1792.83
422.393	1964.86
422.601	2087.73
422.809	2167.6
423.017	2054.97
423.224	2288.43
423.432	2267.95
423.64	2247.48
423.848	2546.48
424.056	2515.76
424.263	2599.73
424.471	2636.59
424.679	2745.13
424.887	2851.63
425.094	2833.19
425.302	2904.87
425.51	2962.22
425.718	3119.91
425.925	3052.33
426.133	3320.61
426.341	3461.92
426.548	3584.8
426.756	3687.2
426.964	3588.89
427.171	3693.34
427.379	3945.24
427.586	4033.3
427.794	4150.04
428.001	4363.03
428.209	4397.84
428.417	4397.84
428.624	4852.49
428.832	4752.14
429.039	4778.76
429.247	4840.2
429.454	5169.93
429.662	5532.42
429.869	5159.69
430.076	5450.5
430.284	5362.44
430.491	5595.9
430.699	5870.33
430.906	5978.87
431.114	6105.85
431.321	6226.68
431.528	6241.01
431.736	6732.53
431.943	7088.87
432.15	6824.69
432.358	7150.31
432.565	7506.66
432.772	7316.2
432.979	7760.61
433.187	8026.84
433.394	7975.64
433.601	8409.81
433.808	8331.99
434.016	8411.86
434.223	8776.4
434.43	9265.86
434.637	9132.75
434.844	9605.83
435.052	9947.84
435.259	9722.56
435.466	9779.9
435.673	9845.44
435.88	10455.73
436.087	11008.69
436.294	11223.72
436.501	10885.81
436.708	11055.79
436.915	11319.98
437.122	11809.44
437.329	11877.02
437.537	12163.74
437.743	12284.57
437.95	12389.02
438.157	12829.33
438.364	13226.64
438.571	13351.56
438.778	13464.2
438.985	14504.57
439.192	14209.66
439.399	14543.48
439.606	14340.73
439.813	15131.25
440.02	15946.34
440.227	15790.69
440.433	15577.7
440.64	16224.86
440.847	16136.8
441.054	16243.29
441.261	17633.86
441.467	17412.68
441.674	17680.97
441.881	18133.57
442.088	18162.24
442.294	18004.55
442.501	18321.98
442.708	18979.38
442.914	19690.02
443.121	20505.12
443.328	19909.16
443.534	21258.77
443.741	20707.87
443.948	20533.79
444.154	21977.61
444.361	21627.4
444.568	22170.12
444.774	21983.75
444.981	22434.3
445.187	23077.37
445.394	23910.89
445.6	23779.82
445.807	25889.23
446.013	24781.28
446.22	25065.94
446.426	26284.48
446.633	26630.59
446.839	27394.48
447.046	26114.5
447.252	27881.9
447.459	27466.16
447.665	27505.07
447.871	28959.13
448.078	29856.14
448.284	28627.36
448.491	29424.02
448.697	30591.36
448.903	31129.98
449.11	31162.75
449.316	30718.34
449.522	31469.94
449.728	32153.96
449.935	32227.69
450.141	32418.15
450.347	33538.39
450.553	32168.3
450.76	32397.67
450.966	33794.39
451.172	33579.35
451.378	34439.5
451.584	33569.11
451.791	34668.87
451.997	34539.85
452.203	35070.27
452.409	34916.67
452.615	34840.9
452.821	33497.43
453.027	33003.87
453.233	35008.83
453.44	33542.49
453.646	34218.32
453.852	34257.23
454.058	35012.93
454.264	33546.58
454.47	34636.1
454.676	33710.42
454.882	34781.51
455.088	31469.94
455.294	32129.39
455.5	32756.07
455.705	33323.35
455.911	31908.21
456.117	31295.86
456.323	30767.49
456.529	29270.42
456.735	30620.03
456.941	29522.32
457.147	29438.36
457.352	28494.24
457.558	28209.57
457.764	28055.98
457.97	27251.13
458.176	26931.64
458.381	27113.91
458.587	25741.77
458.793	25819.6
458.999	24355.3
459.204	26110.41
459.41	25385.43
459.616	23566.83
459.821	23814.63
460.027	23511.53
460.233	23142.9
460.438	22053.38
460.644	22397.44
460.85	21197.33
461.055	21008.92
461.261	21047.83
461.466	19311.15
461.672	18514.49
461.878	20365.85
462.083	18663.99
462.289	18428.48
462.494	18059.84
462.7	17119.82
462.905	16724.57
463.111	17498.7
463.316	17769.03
463.522	17101.39
463.727	17117.78
463.932	17062.48
464.138	16964.18
464.343	17023.57
464.549	16597.59
464.754	16884.31
464.959	16808.53
465.165	17070.67
465.37	16249.44
465.575	15442.54
465.781	16267.87
465.986	16472.67
466.191	15604.33
466.397	15344.24
466.602	14566.01
466.807	15168.11
467.012	15106.67
467.218	15383.15
467.423	15039.09
467.628	15213.17
467.833	15565.42
468.038	14963.31
468.244	14430.84
468.449	15417.96
468.654	14793.33
468.859	14529.14
469.064	14504.57
469.269	14119.55
469.474	14244.48
469.679	14582.39
469.885	13916.8
470.09	14332.54
470.295	13984.38
470.5	13718.15
470.705	13859.46
470.91	13582.98
471.115	13349.51
471.32	13730.44
471.525	13417.1
471.73	13478.54
471.935	13052.56
472.139	12755.6
472.344	12937.87
472.549	12720.79
472.754	12581.53
472.959	12313.24
473.164	12241.56
473.369	12083.87
473.574	12702.36
473.778	12475.03
473.983	12124.83
474.188	11969.18
474.393	11244.2
474.598	11545.25
474.802	11645.6
475.007	11367.08
475.212	11424.42
475.417	10986.16
475.621	11027.12
475.826	11059.88
476.031	10760.88
476.235	10707.63
476.44	10891.95
476.645	10666.67
476.849	10576.56
477.054	10457.78
477.259	10365.62
477.463	10336.95
477.668	10093.24
477.872	10203.83
478.077	10060.48
478.282	9865.92
478.486	9831.1
478.691	9599.68
478.895	9487.04
479.1	9749.18
479.304	9667.27
479.509	9505.48
479.713	9581.25
479.918	9343.69
480.122	9272.01
480.326	9237.19
480.531	9122.51
480.735	9059.02
480.94	9151.18
481.144	9345.73
481.348	8757.97
481.553	9128.65
481.757	8708.82
481.961	8815.31
482.166	9018.06
482.37	8917.71
482.574	8870.61
482.778	8788.69
482.983	8852.17
483.187	8991.44
483.391	8821.45
483.595	8757.97
483.8	8551.12
484.004	8714.96
484.208	8729.3
484.412	8774.35
484.616	9210.57
484.821	8876.75
485.025	8719.06
485.229	8835.79
485.433	8719.06
485.637	8811.21
485.841	8676.05
486.045	8803.02
486.249	8985.29
486.453	8778.45
486.657	8876.75
486.861	8925.9
487.065	8678.1
487.269	8733.39
487.473	8645.33
487.677	8782.54
487.881	8946.38
488.085	8809.17
488.289	8895.18
488.493	8864.46
488.697	8944.33
488.901	8813.26
489.105	8925.9
489.309	8946.38
489.512	8868.56
489.716	8960.72
489.92	8778.45
490.124	8950.48
490.328	8995.53
490.531	8946.38
490.735	8968.91
490.939	9024.2
491.143	9034.44
491.346	8850.13
491.55	9286.34
491.754	9128.65
491.958	9161.42
492.161	9181.9
492.365	9302.73
492.569	9411.27
492.772	9099.98
492.976	9327.3
493.18	9378.5
493.383	9423.56
493.587	9523.91
493.79	9661.12
493.994	9583.3
494.197	9646.79
494.401	9614.02
494.605	9820.86
494.808	9982.65
495.012	9816.77
495.215	9966.27
495.419	10097.34
495.622	10003.13
495.825	10183.35
496.029	10044.09
496.232	10367.67
496.436	10283.7
496.639	10676.91
496.843	10570.42
497.046	10744.5
497.249	10789.55
497.453	10883.76
497.656	10801.84
497.859	10703.54
498.063	11170.47
498.266	11465.38
498.469	11414.18
498.673	11635.36
498.876	11580.07
499.079	11645.6
499.282	11934.37
499.485	12165.79
499.689	12059.29
499.892	12319.39
500.095	12182.17
500.298	12632.72
500.501	12583.57
500.705	12817.04
500.908	12868.24
501.111	13132.43
501.314	12978.83
501.517	13486.73
501.72	13376.14
501.923	13574.79
502.126	13802.11
502.329	13824.64
502.532	14144.13
502.735	14111.36
502.938	14271.1
503.141	14328.44
503.344	14498.42
503.547	14832.24
503.75	14948.98
503.953	15293.04
504.156	15379.05
504.359	15471.21
504.562	15673.96
504.765	15886.95
504.968	15745.64
505.17	16216.67
505.373	15970.91
505.576	16382.56
505.779	16511.58
505.982	16628.31
506.185	16880.21
506.387	17134.16
506.59	17478.22
506.793	17504.84
506.996	17553.99
507.198	18035.27
507.401	17732.17
507.604	18217.54
507.807	18262.59
508.009	18530.87
508.212	18606.65
508.415	19139.12
508.617	19153.46
508.82	19227.18
509.022	19206.7
509.225	19573.29
509.428	20052.52
509.63	19706.41
509.833	19935.78
510.035	20427.29
510.238	20646.43
510.44	20754.97
510.643	21086.74
510.845	21142.03
511.048	21215.76
511.25	21631.5
511.453	21959.17
511.655	22456.83
511.858	22227.46
512.06	22266.37
512.262	22667.77
512.465	22458.88
512.667	22952.44
512.87	23310.83
513.072	23001.59
513.274	23843.31
513.477	23804.39
513.679	24115.69
513.881	24267.24
514.084	24617.44
514.286	24480.22
514.488	24777.18
514.69	25285.08
514.893	25414.1
515.095	25459.15
515.297	26014.15
515.499	25885.13
515.701	26403.27
515.904	26540.48
516.106	26669.5
516.308	26765.76
516.51	27214.26
516.712	27290.04
516.914	27541.94
517.116	28058.03
517.318	27982.25
517.52	28322.21
517.722	28203.43
517.925	28848.54
518.127	29045.15
518.329	29462.93
518.531	29010.33
518.733	29780.37
518.935	29702.54
519.136	29880.72
519.338	30226.82
519.54	30468.48
519.742	30974.33
519.944	31029.63
520.146	31674.74
520.348	31463.8
520.55	31957.36
520.752	31822.19
520.954	32473.45
521.155	32201.07
521.357	32723.3
521.559	33038.69
521.761	33681.75
521.963	33194.33
522.164	33403.22
522.366	33591.64
522.568	34017.61
522.77	34445.64
522.971	35109.18
523.173	34529.61
523.375	35191.1
523.576	34861.38
523.778	34933.06
523.98	35717.43
524.181	35799.35
524.383	35807.54
524.584	36182.32
524.786	36370.73
524.988	36110.64
525.189	36600.1
525.391	36856.1
525.592	36895.01
525.794	36923.68
525.995	37120.29
526.197	37310.75
526.398	37097.76
526.6	37671.19
526.801	37773.59
527.003	37943.57
527.204	38377.74
527.406	38283.53
527.607	38263.05
527.808	38617.35
528.01	38443.27
528.211	38568.2
528.412	39067.91
528.614	39278.85
528.815	39059.71
529.016	39571.71
529.218	39250.17
529.419	39272.7
529.62	39672.06
529.822	39180.54
530.023	39573.75
530.224	40016.11
530.425	39717.11
530.626	39491.83
530.828	39485.69
531.029	40362.22
531.23	39792.89
531.431	39942.39
531.632	40218.86
531.833	40358.13
532.035	39964.92
532.236	40040.69
532.437	40306.93
532.638	40378.61
532.839	40235.25
533.04	40769.77
533.241	40462.57
533.442	40915.17
533.643	40513.77
533.844	40673.51
534.045	40812.77
534.246	40108.27
534.447	40689.9
534.648	40753.38
534.849	40874.21
535.05	40409.32
535.251	41007.33
535.451	40464.62
535.652	40679.66
535.853	41175.27
536.054	41124.07
536.255	41031.91
536.456	40425.71
536.657	41414.88
536.857	41224.42
537.058	40507.63
537.259	41107.68
537.46	40900.84
537.66	40784.1
537.861	40771.82
538.062	41197.79
538.263	40997.09
538.463	40892.65
538.664	40628.46
538.865	40808.68
539.065	40990.95
539.266	40409.32
539.466	41208.03
539.667	40265.97
539.868	41314.53
540.068	40923.36
540.269	41007.33
540.469	41197.79
540.67	40653.03
540.87	41158.88
541.071	40712.42
541.271	40845.54
541.472	41146.59
541.672	40796.39
541.873	40638.7
542.073	40462.57
542.274	40710.38
542.474	40855.78
542.675	40399.08
542.875	41040.1
543.075	40993
543.276	40343.79
543.476	40507.63
543.676	40448.24
543.877	40847.59
544.077	40587.5
544.277	40577.26
544.478	40775.91
544.678	41214.18
544.878	40845.54
545.078	40743.14
545.279	40382.7
545.479	40368.37
545.679	40464.62
545.879	40556.78
546.079	40452.33
546.28	40292.59
546.48	40118.51
546.68	40976.61
546.88	40126.71
547.08	40425.71
547.28	40397.04
547.48	39948.53
547.68	40284.4
547.88	40157.42
548.081	40425.71
548.281	40325.36
548.481	40610.03
548.681	40587.5
548.881	40313.07
549.081	40833.25
549.28	40229.1
549.48	40583.4
549.68	40302.83
549.88	40976.61
550.08	40296.69
550.28	40440.04
550.48	40110.32
550.68	40589.55
550.88	40161.52
551.08	40145.14
551.279	40499.44
551.479	40225.01
551.679	40259.82
551.879	40036.59
552.079	40331.5
552.278	40431.85
552.478	40136.94
552.678	40243.44
552.878	40487.15
553.077	39825.65
553.277	39860.47
553.477	40247.54
553.676	39923.96
553.876	39821.56
554.076	39684.34
554.275	40020.21
554.475	39317.76
554.674	39846.13
554.874	40003.83
555.074	39629.05
555.273	39858.42
555.473	39813.37
555.672	39506.17
555.872	39764.21
556.071	39442.68
556.271	39772.41
556.47	39500.03
556.67	39164.16
556.869	39506.17
557.068	39409.92
557.268	39319.81
557.467	39282.94
557.667	39037.19
557.866	39123.2
558.065	39309.57
558.265	38834.44
558.464	39092.48
558.663	39575.8
558.863	38607.11
559.062	39432.44
559.261	38418.7
559.461	39188.74
559.66	38275.34
559.859	38785.29
560.058	38652.17
560.258	38355.21
560.457	38256.91
560.656	38410.51
560.855	38330.64
561.054	38179.09
561.253	38195.47
561.453	38414.6
561.652	38236.43
561.851	38367.5
562.05	38035.73
562.249	38005.01
562.448	38117.65
562.647	37777.68
562.846	37847.32
563.045	38220.05
563.244	37343.52
563.443	37724.44
563.642	37544.22
563.841	37746.97
564.04	37435.67
564.239	37736.73
564.438	36722.98
564.637	37374.24
564.836	37441.82
565.035	36909.35
565.234	37003.55
565.432	37122.33
565.631	37093.66
565.83	36940.07
566.029	36870.43
566.228	36149.55
566.427	36348.2
566.625	36413.74
566.824	36045.1
567.023	35903.79
567.222	35832.11
567.42	36462.89
567.619	36321.58
567.818	36254
568.016	35739.96
568.215	36016.43
568.414	36034.86
568.612	35850.55
568.811	35424.57
569.01	35701.04
569.208	35404.09
569.407	35637.56
569.605	35303.74
569.804	35561.78
570.002	35105.09
570.201	34890.05
570.4	34935.1
570.598	34971.97
570.797	34515.27
570.995	34765.12
571.193	34249.03
571.392	34763.07
571.59	34466.12
571.789	34541.89
571.987	34328.91
572.186	34068.81
572.384	34150.73
572.582	34181.45
572.781	33993.04
572.979	33538.39
573.177	33900.88
573.376	34144.59
573.574	33689.94
573.772	33812.82
573.971	33233.24
574.169	33339.74
574.367	32811.36
574.565	33106.27
574.763	33126.75
574.962	33124.7
575.16	32751.97
575.358	32764.26
575.556	32162.15
575.754	32987.49
575.952	32549.22
576.151	32792.93
576.349	32414.05
576.547	32289.13
576.745	32272.74
576.943	32547.17
577.141	32211.31
577.339	32172.39
577.537	32409.96
577.735	31897.97
577.933	31629.68
578.131	32049.52
578.329	32010.6
578.527	31441.27
578.725	31889.77
578.923	31265.14
579.121	31482.23
579.319	31099.26
579.516	31433.08
579.714	31107.45
579.912	31150.46
580.11	30638.47
580.308	30814.59
580.506	30716.29
580.704	30503.3
580.901	30751.1
581.099	31058.3
581.297	30566.79
581.495	30566.79
581.692	30456.2
581.89	30085.51
582.088	30361.99
582.285	30212.49
582.483	30329.22
582.681	29880.72
582.878	29890.96
583.076	29632.91
583.274	30275.98
583.471	29815.18
583.669	29645.2
583.866	29393.3
584.064	29434.26
584.262	29229.46
584.459	29520.27
584.657	29026.71
584.854	29507.99
585.052	28905.88
585.249	28897.69
585.447	29090.2
585.644	28717.47
585.841	29000.09
586.039	28899.74
586.236	28266.92
586.434	28498.34
586.631	28205.48
586.828	28479.91
587.026	28170.66
587.223	28223.91
587.42	28070.31
587.618	28055.98
587.815	28006.83
588.012	27539.89
588.21	27857.32
588.407	28428.71
588.604	27441.59
588.801	27488.69
588.999	27408.82
589.196	27400.63
589.393	27287.99
589.59	27386.29
589.787	27068.86
589.984	27175.35
590.182	27167.16
590.379	26876.35
590.576	26726.85
590.773	27255.22
590.97	26563.01
591.167	26900.92
591.364	26354.12
591.561	26360.26
591.758	26100.17
591.955	26173.89
592.152	26685.89
592.349	26280.39
592.546	26198.47
592.743	26096.07
592.94	25602.51
593.137	25997.77
593.334	26059.21
593.531	25545.17
593.727	25766.35
593.924	25739.72
594.121	25135.57
594.318	25682.38
594.515	25211.35
594.712	25362.9
594.908	25369.04
595.105	25319.89
595.302	24986.07
595.499	24871.39
595.696	25240.02
595.892	25123.29
596.089	24873.43
596.286	24836.57
596.482	24594.91
596.679	24615.39
596.876	24662.49
597.072	24490.46
597.269	24345.06
597.466	24252.9
597.662	24326.63
597.859	24224.23
598.055	24003.05
598.252	23955.94
598.448	23970.28
598.645	23771.63
598.841	23863.79
599.038	23880.17
599.234	24048.1
599.431	23607.79
599.627	23552.49
599.824	23630.32
600.02	23345.65
600.217	23384.56
600.413	23155.19
600.609	23171.57
600.806	22981.11
601.002	23095.8
601.198	22612.48
601.395	23063.03
601.591	22882.81
601.787	22776.31
601.984	22364.67
602.18	22766.07
602.376	22409.73
602.572	22465.02
602.769	22422.02
602.965	22571.52
603.161	22315.52
603.357	21922.31
603.553	22299.14
603.75	22108.68
603.946	22147.59
604.142	22080
604.338	21934.6
604.534	22100.48
604.73	21660.17
604.926	21613.07
605.122	21838.34
605.318	21580.3
605.514	21438.99
605.71	21537.29
605.906	21414.41
606.102	21367.31
606.298	21137.94
606.494	21371.41
606.69	21443.09
606.886	21355.02
607.082	21062.16
607.278	21529.1
607.474	20912.66
607.67	21180.95
607.866	20589.08
608.062	21107.22
608.257	20701.72
608.453	20738.58
608.649	20820.5
608.845	20501.02
609.041	20460.06
609.236	20664.86
609.432	20187.68
609.628	20593.18
609.824	20589.08
610.019	20412.96
610.215	20335.14
610.411	20627.99
610.606	20091.43
610.802	20210.21
610.998	20208.16
611.193	20187.68
611.389	20052.52
611.584	20199.97
611.78	19829.29
611.976	20132.39
612.171	19794.47
612.367	19993.12
612.562	19747.37
612.758	19489.32
612.953	19376.69
613.149	19710.5
613.344	19309.1
613.539	19864.1
613.735	19765.8
613.93	19741.22
614.126	19763.75
614.321	19663.4
614.517	19448.36
614.712	19448.36
614.907	19149.36
615.103	19575.34
615.298	19184.18
615.493	19780.14
615.688	18897.46
615.884	19540.52
616.079	18848.31
616.274	19122.74
616.47	19182.13
616.665	19173.94
616.86	18981.43
617.055	18981.43
617.25	18704.95
617.445	19051.06
617.641	18784.82
617.836	18696.76
618.031	18371.13
618.226	18559.55
618.421	18745.91
618.616	18643.51
618.811	18348.61
619.006	18797.11
619.201	18246.21
619.396	18188.86
619.591	18092.61
619.786	18276.93
619.981	17930.82
620.176	18096.71
620.371	17562.19
620.566	17965.64
620.761	17674.82
620.956	17840.71
621.151	17537.61
621.346	17492.55
621.541	17386.06
621.735	17697.35
621.93	17357.39
622.125	17287.76
622.32	16994.9
622.515	17259.09
622.709	16872.02
622.904	16978.51
623.099	16861.78
623.294	16751.19
623.488	16751.19
623.683	16747.09
623.878	16478.81
624.072	16509.53
624.267	16546.39
624.462	16005.73
624.656	16007.78
624.851	16312.92
625.046	15876.71
625.24	16282.2
625.435	15659.62
625.629	15874.66
625.824	15872.61
626.018	15778.4
626.213	15237.74
626.407	15698.53
626.602	15348.33
626.796	15395.43
626.991	15260.27
627.185	15004.27
627.38	15241.84
627.574	15022.7
627.768	14963.31
627.963	14897.78
628.157	14512.76
628.352	14842.48
628.546	14289.53
628.74	14715.51
628.935	14465.66
629.129	14398.07
629.323	14064.25
629.517	14015.1
629.712	14215.8
629.906	14004.86
630.1	13945.47
630.294	13832.83
630.489	13777.54
630.683	13597.32
630.877	13353.61
631.071	13669
631.265	13341.32
631.459	13394.57
631.653	13353.61
631.848	13398.66
632.042	13367.95
632.236	13347.47
632.43	13066.89
632.624	13306.51
632.818	12954.26
633.012	12835.47
633.206	12929.68
633.4	12901.01
633.594	12692.12
633.788	12849.81
633.982	12554.9
634.176	12659.35
634.369	12495.51
634.563	12399.26
634.757	12216.99
634.951	12278.43
635.145	12331.67
635.339	12278.43
635.533	12116.64
635.726	12122.78
635.92	12079.77
636.114	11786.91
636.308	11807.39
636.501	11877.02
636.695	11758.24
636.889	11614.88
637.083	11588.26
637.276	11467.43
637.47	11332.26
637.664	11367.08
637.857	11270.83
638.051	11238.06
638.244	11440.81
638.438	11221.67
638.632	11119.28
638.825	10887.86
639.019	11061.93
639.212	10971.82
639.406	10756.79
639.599	10787.5
639.793	10689.2
639.986	10662.58
640.18	10470.07
640.373	10517.17
640.567	10439.35
640.76	10629.81
640.954	10394.29
641.147	10187.45
641.34	10433.21
641.534	10263.22
641.727	10353.34
641.92	10363.58
642.114	10148.54
642.307	10144.44
642.5	9898.69
642.694	9718.47
642.887	9900.73
643.08	9996.99
643.273	9743.04
643.467	9802.43
643.66	9663.17
643.853	9605.83
644.046	9591.49
644.239	9509.57
644.432	9542.34
644.626	9370.31
644.819	9274.06
645.012	9476.8
645.205	9210.57
645.398	9157.32
645.591	9263.82
645.784	9204.42
645.977	9083.59
646.17	9048.78
646.363	8936.14
646.556	8764.11
646.749	8915.66
646.942	8809.17
647.135	8860.37
647.328	8729.3
647.521	8751.82
647.714	8450.77
647.907	8528.6
648.099	8776.4
648.292	8448.72
648.485	8549.07
648.678	8518.36
648.871	8327.89
649.064	8233.69
649.256	8430.29
649.449	8215.26
649.642	8338.13
649.835	8112.86
650.027	8215.26
650.22	8184.54
650.413	7918.3
650.605	7998.17
650.798	7977.69
650.991	7842.53
651.183	7944.92
651.376	7869.15
651.568	7949.02
651.761	7742.18
651.954	7768.8
652.146	7633.63
652.339	7918.3
652.531	7621.35
652.724	7725.79
652.916	7336.68
653.109	7488.23
653.301	7525.09
653.494	7340.77
653.686	7457.51
653.879	7394.02
654.071	7330.53
654.263	7332.58
654.456	7189.22
654.648	7363.3
654.84	7248.61
655.033	7119.59
655.225	7303.91
655.417	7164.65
655.61	7176.94
655.802	7129.83
655.994	6927.08
656.186	7074.54
656.379	6851.31
656.571	6879.98
656.763	6877.93
656.955	6935.28
657.148	6748.91
657.34	6836.97
657.532	6759.15
657.724	6648.56
657.916	6609.65
658.108	6585.07
658.3	6619.89
658.492	6537.97
658.684	6411
658.876	6533.87
659.068	6556.4
659.26	6372.08
659.452	6404.85
659.644	6585.07
659.836	6435.57
660.028	6333.17
660.22	6191.86
660.412	6267.64
660.604	6071.03
660.796	6226.68
660.988	6265.59
661.18	6130.42
661.372	6087.42
661.563	6152.95
661.755	6128.38
661.947	6019.83
662.139	6066.94
662.331	5982.97
662.522	5896.96
662.714	5899
662.906	5702.4
663.097	5839.61
663.289	5774.08
663.481	5688.06
663.673	5812.99
663.864	5606.14
664.056	5671.68
664.247	5647.1
664.439	5712.64
664.631	5745.41
664.822	5765.89
665.014	5686.01
665.205	5458.69
665.397	5532.42
665.588	5411.59
665.78	5714.69
665.971	5321.48
666.163	5475.07
666.354	5427.97
666.546	5423.87
666.737	5214.98
666.929	5483.27
667.12	5487.36
667.311	5384.96
667.503	5206.79
667.694	5423.87
667.885	5292.8
668.077	5301
668.268	5153.54
668.459	5272.32
668.651	5233.41
668.842	5227.27
669.033	5163.78
669.224	5120.78
669.416	5163.78
669.607	5112.58
669.798	5096.2
669.989	5284.61
670.18	5155.59
670.371	5075.72
670.563	5071.62
670.754	5239.56
670.945	4981.51
671.136	4940.55
671.327	5126.92
671.518	4983.56
671.709	4946.7
671.9	4922.12
672.091	4924.17
672.282	4934.41
672.473	5004.04
672.664	4897.55
672.855	4971.27
673.046	4827.92
673.237	4803.34
673.428	4961.03
673.619	4895.5
673.809	4786.96
674	4823.82
674.191	5012.23
674.382	4815.63
674.573	4920.07
674.764	4801.29
674.954	4797.2
675.145	4680.46
675.336	4807.44
675.527	4858.64
675.717	4801.29
675.908	4594.45
676.099	4754.19
676.289	4731.66
676.48	4768.52
676.671	4797.2
676.861	4811.53
677.052	4772.62
677.243	4725.52
677.433	4553.49
677.624	4860.68
677.814	4731.66
678.005	4766.48
678.195	4702.99
678.386	4639.5
678.576	4610.83
678.767	4731.66
678.957	4711.18
679.148	4791.05
679.338	4961.03
679.529	4629.26
679.719	4676.37
679.909	4840.2
680.1	4846.35
680.29	4604.69
680.481	4625.17
680.671	4739.85
680.861	4682.51
681.052	4666.13
681.242	4686.61
681.432	4756.24
681.622	4756.24
681.813	4576.02
682.003	4641.55
682.193	4490
682.383	4670.22
682.573	4623.12
682.764	4567.82
682.954	4662.03
683.144	4594.45
683.334	4582.16
683.524	4612.88
683.714	4616.97
683.904	4580.11
684.094	4510.48
684.284	4371.22
684.474	4526.86
684.664	4653.84
684.854	4649.74
685.044	4561.68
685.234	4477.71
685.424	4358.93
685.614	4459.28
685.804	4549.39
685.994	4549.39
686.184	4457.23
686.374	4428.56
686.564	4391.7
686.753	4453.14
686.943	4283.16
687.133	4332.31
687.323	4375.31
687.513	4440.85
687.702	4342.55
687.892	4207.38
688.082	4207.38
688.272	4324.12
688.461	4225.81
688.651	4272.92
688.841	4150.04
689.03	4137.75
689.22	4158.23
689.41	4139.8
689.599	4021.02
689.789	4147.99
689.979	4039.45
690.168	3990.3
690.358	3998.49
690.547	4002.58
690.737	3924.76
690.926	3969.82
691.116	3906.33
691.305	4049.69
691.495	3957.53
691.684	3767.07
691.874	4010.78
692.063	3838.75
692.252	3861.27
692.442	4068.12
692.631	3689.25
692.82	3818.27
693.01	3740.44
693.199	3836.7
693.388	3765.02
693.578	3846.94
693.767	3726.11
693.956	3736.35
694.146	3695.39
694.335	3650.33
694.524	3711.77
694.713	3683.1
694.902	3552.03
695.092	3627.81
695.281	3513.12
695.47	3617.57
695.659	3527.46
695.848	3636
696.037	3453.73
696.226	3519.26
696.415	3441.44
696.604	3617.57
696.793	3654.43
696.982	3502.88
697.171	3453.73
697.36	3470.11
697.549	3402.53
697.738	3437.34
697.927	3416.87
698.116	3359.52
698.305	3406.63
698.494	3380
698.683	3347.23
698.872	3429.15
699.061	3416.87
699.25	3455.78
699.438	3406.63
699.627	3306.27
699.816	3441.44
700.005	3318.56
700.193	3334.95
700.382	3486.5
700.571	3484.45
700.76	3359.52
700.948	3580.7
701.137	3216.16
701.326	3457.82
701.514	3449.63
701.703	3324.71
701.892	3363.62
702.08	3412.77
702.269	3349.28
702.457	3312.42
702.646	3412.77
702.834	3322.66
703.023	3390.24
703.212	3373.86
703.4	3482.4
703.589	3371.81
703.777	3269.41
703.965	3314.47
704.154	3306.27
704.342	3425.06
704.531	3339.04
704.719	3341.09
704.907	3515.17
705.096	3324.71
705.284	3420.96
705.472	3277.6
705.661	3382.05
705.849	3431.2
706.037	3388.19
706.226	3302.18
706.414	3343.14
706.602	3377.95
706.79	3490.59
706.979	3457.82
707.167	3396.39
707.355	3263.27
707.543	3494.69
707.731	3420.96
707.919	3373.86
708.107	3500.83
708.296	3367.71
708.484	3287.84
708.672	3437.34
708.86	3398.43
709.048	3369.76
709.236	3453.73
709.424	3468.06
709.612	3494.69
709.8	3459.87
709.988	3250.98
710.176	3457.82
710.364	3416.87
710.551	3498.78
710.739	3318.56
710.927	3423.01
711.115	3406.63
711.303	3429.15
711.491	3373.86
711.679	3414.82
711.866	3502.88
712.054	3492.64
712.242	3439.39
712.43	3500.83
712.617	3527.46
712.805	3582.75
712.993	3490.59
713.181	3478.3
713.368	3414.82
713.556	3572.51
713.744	3435.3
713.931	3625.76
714.119	3580.7
714.306	3631.9
714.494	3531.55
714.682	3416.87
714.869	3461.92
715.057	3556.13
715.244	3468.06
715.432	3511.07
715.619	3437.34
715.807	3433.25
715.994	3517.22
716.182	3597.09
716.369	3756.83
716.556	3652.38
716.744	3560.22
716.931	3549.98
717.119	3717.92
717.306	3513.12
717.493	3599.13
717.681	3572.51
717.868	3605.28
718.055	3636
718.242	3607.33
718.43	3703.58
718.617	3699.48
718.804	3685.15
718.991	3646.24
719.179	3742.49
719.366	3621.66
719.553	3650.33
719.74	3713.82
719.927	3738.4
720.114	3570.46
720.301	3660.57
720.488	3623.71
720.676	3666.72
720.863	3756.83
721.05	3662.62
721.237	3674.91
721.424	3715.87
721.611	3732.25
721.798	3605.28
721.985	3722.01
722.172	3748.64
722.358	3816.22
722.545	3646.24
722.732	3746.59
722.919	3797.79
723.106	3658.53
723.293	3648.29
723.48	3818.27
723.667	3687.2
723.853	3767.07
724.04	3801.88
724.227	3799.84
724.414	3771.16
724.6	3676.96
724.787	3818.27
724.974	3920.67
725.161	3633.95
725.347	3672.86
725.534	3832.6
725.72	3873.56
725.907	3726.11
726.094	3836.7
726.28	3615.52
726.467	3805.98
726.653	3699.48
726.84	3777.31
727.027	3793.69
727.213	3578.65
727.4	3810.08
727.586	3814.17
727.773	3722.01
727.959	3855.13
728.145	3812.12
728.332	3728.16
728.518	3701.53
728.705	3812.12
728.891	3785.5
729.077	3889.95
729.264	3736.35
729.45	3871.51
729.636	3885.85
729.823	3783.45
730.009	3709.72
730.195	3805.98
730.382	3756.83
730.568	3955.48
730.754	3877.66
730.94	3744.54
731.126	3828.51
731.313	3867.42
731.499	3902.23
731.685	3926.81
731.871	3887.9
732.057	3861.27
732.243	3769.12
732.429	3916.57
732.615	3961.62
732.801	3881.75
732.987	3787.55
733.173	3705.63
733.359	3846.94
733.545	3889.95
733.731	3887.9
733.917	3900.19
734.103	3846.94
734.289	3836.7
734.475	3853.08
734.661	4045.59
734.847	3951.39
735.033	3775.26
735.219	3789.6
735.404	3765.02
735.59	3711.77
735.776	3873.56
735.962	3910.43
736.148	3826.46
736.333	3914.52
736.519	3855.13
736.705	3842.84
736.89	3758.88
737.076	3873.56
737.262	3701.53
737.447	3920.67
737.633	3689.25
737.819	3808.03
738.004	3822.36
738.19	3812.12
738.375	3705.63
738.561	3906.33
738.747	3822.36
738.932	3756.83
739.118	3826.46
739.303	3666.72
739.489	3707.68
739.674	3691.29
739.859	3644.19
740.045	3791.64
740.23	3756.83
740.416	3674.91
740.601	3707.68
740.786	3640.09
740.972	3590.94
741.157	3539.74
741.342	3697.44
741.528	3541.79
741.713	3574.56
741.898	3601.18
742.084	3543.84
742.269	3724.06
742.454	3636
742.639	3631.9
742.824	3584.8
743.01	3607.33
743.195	3597.09
743.38	3552.03
743.565	3584.8
743.75	3523.36
743.935	3472.16
744.12	3740.44
744.305	3547.94
744.49	3470.11
744.675	3390.24
744.86	3355.43
745.045	3449.63
745.23	3416.87
745.415	3463.97
745.6	3316.51
745.785	3273.51
745.97	3347.23
746.155	3314.47
746.34	3351.33
746.525	3347.23
746.71	3347.23
746.895	3263.27
747.079	3261.22
747.264	3158.82
747.449	3275.56
747.634	3193.64
747.819	3134.25
748.003	3150.63
748.188	3134.25
748.373	3089.19
748.557	3140.39
748.742	2974.5
748.927	3136.29
749.111	2994.98
749.296	2978.6
749.481	3091.24
749.665	2923.3
749.85	2882.35
750.034	2954.02
750.219	2825
750.404	2845.48
750.588	2880.3
750.773	2851.63
750.957	2949.93
751.141	2816.81
751.326	2718.51
751.51	2741.04
751.695	2827.05
751.879	2712.36
752.064	2743.08
752.248	2741.04
752.432	2804.52
752.617	2571.05
752.801	2679.6
752.985	2573.1
753.17	2732.84
753.354	2665.26
753.538	2546.48
753.722	2495.28
753.907	2546.48
754.091	2470.7
754.275	2552.62
754.459	2382.64
754.643	2380.59
754.828	2407.22
755.012	2433.84
755.196	2388.78
755.38	2335.54
755.564	2327.35
755.748	2380.59
755.932	2378.55
756.116	2319.15
756.3	2239.28
756.484	2257.71
756.668	2401.07
756.852	2136.88
757.036	2143.03
757.22	2204.47
757.404	2194.23
757.588	2108.21
757.772	2241.33
757.956	2128.69
758.14	2159.41
758.323	2011.96
758.507	2220.85
758.691	2138.93
758.875	2063.16
759.059	1995.57
759.242	2093.88
759.426	1989.43
759.61	2081.59
759.794	1958.71
759.977	2067.25
760.161	2081.59
760.345	2114.36
760.528	1983.29
760.712	2014.01
760.895	1882.94
761.079	1860.41
761.263	1852.22
761.446	1866.55
761.63	1866.55
761.813	1905.46
761.997	1823.55
762.18	1966.9
762.364	1856.31
762.547	1790.78
762.731	1864.5
762.914	1854.27
763.098	1712.96
763.281	1848.12
763.464	1827.64
763.648	1766.2
763.831	1626.94
764.015	1758.01
764.198	1774.39
764.381	1809.21
764.564	1770.3
764.748	1801.02
764.931	1717.05
765.114	1723.2
765.297	1741.63
765.481	1747.77
765.664	1635.13
765.847	1635.13
766.03	1743.67
766.213	1739.58
766.397	1682.24
766.58	1667.9
766.763	1631.04
766.946	1538.88
767.129	1585.98
767.312	1540.93
767.495	1567.55
767.678	1538.88
767.861	1504.06
768.044	1532.73
768.227	1565.5
768.41	1643.32
768.593	1534.78
768.776	1596.22
768.959	1545.02
769.142	1618.75
769.324	1512.25
769.507	1502.01
769.69	1430.34
769.873	1547.07
770.056	1422.14
770.239	1444.67
770.421	1477.44
770.604	1469.25
770.787	1471.29
770.97	1385.28
771.152	1334.08
771.335	1489.73
771.518	1315.65
771.7	1542.97
771.883	1438.53
772.066	1416
772.248	1401.66
772.431	1473.34
772.613	1368.9
772.796	1336.13
772.978	1399.62
773.161	1282.88
773.343	1286.98
773.526	1198.92
773.708	1295.17
773.891	1252.16
774.073	1270.59
774.256	1223.49
774.438	1360.7
774.621	1215.3
774.803	1194.82
774.985	1188.68
775.168	1225.54
775.35	1168.2
775.532	1219.39
775.715	1282.88
775.897	1315.65
776.079	1170.24
776.261	1155.91
776.444	1147.72
776.626	1121.09
776.808	1078.08
776.99	1092.42
777.173	1071.94
777.355	1110.85
777.537	1170.24
777.719	1078.08
777.901	1172.29
778.083	1065.8
778.265	1033.03
778.447	1069.89
778.629	1051.46
778.811	1106.76
778.993	985.93
779.175	1151.81
779.357	1053.51
779.539	928.58
779.721	1045.32
779.903	1096.52
780.085	1014.6
780.267	1008.45
780.449	1041.22
780.631	930.63
780.812	969.54
780.994	951.11
781.176	1014.6
781.358	932.68
781.54	918.34
781.721	924.49
781.903	938.82
782.085	936.78
782.267	865.1
782.448	901.96
782.63	832.33
782.812	887.62
782.993	826.18
783.175	856.9
783.357	781.13
783.538	795.47
783.72	740.17
783.901	830.28
784.083	828.23
784.264	861
784.446	672.59
784.627	758.6
784.809	789.32
784.99	779.08
785.172	795.47
785.353	678.73
785.535	766.79
785.716	734.03
785.897	742.22
786.079	666.44
786.26	688.97
786.441	734.03
786.623	688.97
786.804	668.49
786.985	686.92
787.167	744.27
787.348	615.24
787.529	666.44
787.71	760.65
787.891	672.59
788.073	686.92
788.254	641.87
788.435	670.54
788.616	697.16
788.797	582.48
788.978	715.59
789.159	643.92
789.34	578.38
789.522	600.91
789.703	586.57
789.884	607.05
790.065	617.29
790.246	615.24
790.427	613.2
790.607	592.72
790.788	631.63
790.969	547.66
791.15	490.32
791.331	510.8
791.512	529.23
791.693	488.27
791.874	535.37
792.054	635.72
792.235	490.32
792.416	459.6
792.597	367.44
792.778	551.76
792.958	543.57
793.139	559.95
793.32	518.99
793.5	562
793.681	562
793.862	469.84
794.042	473.93
794.223	529.23
794.404	543.57
794.584	410.45
794.765	473.93
794.945	473.93
795.126	496.46
795.306	490.32
795.487	637.77
795.667	498.51
795.848	461.65
796.028	418.64
796.209	373.58
796.389	482.13
796.57	516.94
796.75	385.87
796.93	480.08
797.111	357.2
797.291	467.79
797.471	389.97
797.652	406.35
797.832	379.73
798.012	463.69
798.192	424.78
798.373	375.63
798.553	338.77
798.733	373.58
798.913	381.78
799.093	402.26
799.274	449.36
799.454	443.21
799.634	416.59
799.814	387.92
799.994	443.21
800.174	338.77
800.354	379.73
800.534	346.96
800.714	400.21
800.894	371.54
801.074	322.38
801.254	373.58
801.434	410.45
801.614	400.21
801.794	316.24
801.974	1241.92
802.154	338.77
802.334	467.79
802.514	344.91
802.693	363.34
802.873	346.96
803.053	381.78
803.233	381.78
803.413	277.33
803.592	387.92
803.772	291.66
803.952	332.62
804.131	275.28
804.311	385.87
804.491	389.97
804.67	314.19
804.85	269.14
805.03	316.24
805.209	449.36
805.389	269.14
805.568	293.71
805.748	254.8
805.928	275.28
806.107	267.09
806.287	303.95
806.466	338.77
806.646	361.3
806.825	334.67
807.004	279.38
807.184	338.77
807.363	289.62
807.543	256.85
807.722	242.51
807.901	365.39
808.081	262.99
808.26	201.55
808.439	281.43
808.619	328.53
808.798	301.9
808.977	242.51
809.156	250.71
809.336	299.86
809.515	389.97
809.694	222.03
809.873	234.32
810.052	308.05
810.231	320.34
810.411	244.56
810.59	314.19
810.769	244.56
810.948	291.66
811.127	211.79
811.306	179.03
811.485	209.75
811.664	324.43
811.843	328.53
812.022	168.79
812.201	256.85
812.38	301.9
812.559	193.36
812.737	252.75
812.916	166.74
813.095	199.51
813.274	275.28
813.453	275.28
813.632	226.13
813.811	244.56
813.989	179.03
814.168	215.89
814.347	174.93
814.526	215.89
814.704	344.91
814.883	211.79
815.062	240.47
815.24	244.56
815.419	185.17
815.598	262.99
815.776	160.59
815.955	172.88
816.133	140.12
816.312	246.61
816.49	125.78
816.669	170.83
816.847	205.65
817.026	174.93
817.204	162.64
817.383	176.98
817.561	185.17
817.74	193.36
817.918	215.89
818.097	158.55
818.275	191.31
818.453	250.71
818.632	187.22
818.81	144.21
818.988	205.65
819.167	164.69
819.345	185.17
819.523	160.59
819.701	146.26
819.879	162.64
820.058	123.73
820.236	189.27
820.414	156.5
820.592	150.36
820.77	277.33
820.948	140.12
821.127	152.4
821.305	170.83
821.483	101.2
821.661	242.51
821.839	142.16
822.017	162.64
822.195	119.64
822.373	156.5
822.551	168.79
822.729	244.56
822.907	127.83
823.085	191.31
823.262	152.4
823.44	103.25
823.618	105.3
823.796	150.36
823.974	140.12
824.152	131.92
824.329	146.26
824.507	168.79
824.685	267.09
824.863	197.46
825.04	144.21
825.218	228.18
825.396	123.73
825.574	129.88
825.751	193.36
825.929	176.98
826.107	115.54
826.284	168.79
826.462	101.2
826.639	97.11
826.817	64.34
826.994	191.31
827.172	93.01
827.349	287.57
827.527	168.79
827.704	193.36
827.882	174.93
828.059	133.97
828.237	54.1
828.414	144.21
828.591	33.62
828.769	166.74
828.946	115.54
829.124	179.03
829.301	142.16
829.478	129.88
829.655	144.21
829.833	148.31
830.01	72.53
830.187	144.21
830.364	95.06
830.542	166.74
830.719	158.55
830.896	160.59
831.073	174.93
831.25	127.83
831.427	127.83
831.604	70.48
831.782	101.2
831.959	205.65
832.136	64.34
832.313	90.96
832.49	138.07
832.667	121.68
832.844	27.48
833.021	131.92
833.198	195.41
833.374	103.25
833.551	105.3
833.728	74.58
833.905	50
834.082	33.62
834.259	119.64
834.436	103.25
834.612	21.33
834.789	127.83
834.966	95.06
835.143	152.4
835.319	35.67
835.496	84.82
835.673	113.49
835.85	97.11
836.026	113.49
836.203	105.3
836.38	60.24
836.556	179.03
836.733	45.91
836.909	154.45
837.086	111.44
837.262	33.62
837.439	-13.48
837.616	111.44
837.792	7
837.968	93.01
838.145	84.82
838.321	138.07
838.498	99.16
838.674	115.54
838.851	41.81
839.027	66.39
839.203	41.81
839.38	168.79
839.556	111.44
839.732	80.72
839.909	0.85
840.085	80.72
840.261	17.24
840.437	113.49
840.614	50
840.79	64.34
840.966	105.3
841.142	58.2
841.318	60.24
841.494	136.02
841.671	95.06
841.847	119.64
842.023	-54.44
842.199	86.87
842.375	125.78
842.551	-1.19
842.727	-25.77
842.903	111.44
843.079	33.62
843.255	121.68
843.431	99.16
843.607	164.69
843.783	64.34
843.959	78.68
844.134	62.29
844.31	78.68
844.486	43.86
844.662	62.29
844.838	52.05
845.013	50
845.189	66.39
845.365	9.05
845.541	17.24
845.716	62.29
845.892	144.21
846.068	74.58
846.244	127.83
846.419	131.92
846.595	9.05
846.77	78.68
846.946	23.38
847.122	78.68
847.297	-9.39
847.473	176.98
847.648	66.39
847.824	-5.29
847.999	43.86
848.175	82.77
848.35	58.2
848.526	97.11
848.701	88.92
848.876	154.45
849.052	99.16
849.227	-1.19
849.403	25.43
849.578	-9.39
849.753	47.96
849.929	50
850.104	27.48
850.279	47.96
850.454	-11.43
850.63	70.48
850.805	43.86
850.98	68.44
851.155	58.2
851.33	56.15
851.505	62.29
851.681	80.72
851.856	-40.11
852.031	58.2
852.206	52.05
852.381	-7.34
852.556	21.33
852.731	56.15
852.906	64.34
853.081	13.14
853.256	-11.43
853.431	54.1
853.606	27.48
853.781	45.91
853.956	25.43
854.131	74.58
854.305	37.72
854.48	39.76
854.655	-7.34
854.83	13.14
855.005	31.57
855.18	78.68
855.354	11.09
855.529	39.76
855.704	19.29
855.879	113.49
856.053	39.76
856.228	52.05
856.403	4.95
856.577	97.11
856.752	-60.59
856.926	66.39
857.101	-15.53
857.276	62.29
857.45	74.58
857.625	66.39
857.799	-3.24
857.974	7
858.148	-11.43
858.323	39.76
858.497	84.82
858.672	-44.2
858.846	11.09
859.02	33.62
859.195	-48.3
859.369	0.85
859.543	-29.87
859.718	25.43
859.892	37.72
860.066	54.1
860.241	-68.78
860.415	-15.53
860.589	37.72
860.763	68.44
860.938	17.24
861.112	35.67
861.286	-29.87
861.46	68.44
861.634	0.85
861.808	133.97
861.982	-29.87
862.157	-9.39
862.331	31.57
862.505	-7.34
862.679	-7.34
862.853	-7.34
863.027	15.19
863.201	93.01
863.375	-62.63
863.549	29.52
863.722	78.68
863.896	54.1
864.07	31.57
864.244	29.52
864.418	29.52
864.592	31.57
864.766	11.09
864.939	-11.43
865.113	23.38
865.287	47.96
865.461	-5.29
865.634	-15.53
865.808	0.85
865.982	13.14
866.156	-83.11
866.329	-56.49
866.503	-31.91
866.676	72.53
866.85	70.48
867.024	37.72
867.197	88.92
867.371	43.86
867.544	17.24
867.718	-11.43
867.891	74.58
868.065	-15.53
868.238	-25.77
868.412	43.86
868.585	43.86
868.759	23.38
868.932	50
869.105	-72.87
869.279	-21.67
869.452	56.15
869.625	-56.49
869.799	31.57
869.972	-7.34
870.145	-31.91
870.319	21.33
870.492	-23.72
870.665	-3.24
870.838	-42.15
871.011	-56.49
871.185	39.76
871.358	-93.35
871.531	58.2
871.704	-50.35
871.877	62.29
872.05	0.85
872.223	27.48
872.396	-29.87
872.569	-48.3
872.742	-42.15
872.915	68.44
873.088	-17.58
873.261	-44.2
873.434	37.72
873.607	-64.68
873.78	107.35
873.953	-66.73
874.126	-19.63
874.299	76.63
874.471	-15.53
874.644	45.91
874.817	23.38
874.99	58.2
875.163	0.85
875.335	-3.24
875.508	-58.54
875.681	29.52
875.853	-25.77
876.026	17.24
876.199	-3.24
876.371	39.76
876.544	41.81
876.717	21.33
876.889	-62.63
877.062	23.38
877.234	-36.01
877.407	-85.16
877.579	45.91
877.752	-11.43
877.924	45.91
878.097	0.85
878.269	-42.15
878.442	39.76
878.614	45.91
878.786	-9.39
878.959	35.67
879.131	-15.53
879.303	-60.59
879.476	2.9
879.648	25.43
879.82	45.91
879.993	-42.15
880.165	-23.72
880.337	9.05
880.509	-31.91
880.681	-105.64
880.854	-50.35
881.026	62.29
881.198	43.86
881.37	-13.48
881.542	0.85
881.714	17.24
881.886	-64.68
882.058	39.76
882.23	-19.63
882.402	-7.34
882.574	-13.48
882.746	-50.35
882.918	74.58
883.09	13.14
883.262	19.29
883.434	-31.91
883.606	-11.43
883.778	64.34
883.95	19.29
884.122	19.29
884.293	50
884.465	23.38
884.637	47.96
884.809	-21.67
884.98	-44.2
885.152	39.76
885.324	27.48
885.496	31.57
885.667	27.48
885.839	78.68
886.011	37.72
886.182	27.48
886.354	62.29
886.525	9.05
886.697	11.09
886.869	33.62
887.04	-33.96
887.212	45.91
887.383	84.82
887.555	21.33
887.726	-27.82
887.897	-23.72
888.069	9.05
888.24	7
888.412	13.14
888.583	-3.24
888.754	2.9
888.926	-48.3
889.097	-58.54
889.268	-66.73
889.44	-21.67
889.611	-68.78
889.782	15.19
889.953	-105.64
890.125	13.14
890.296	-122.02
890.467	-72.87
890.638	-62.63
890.809	4.95
890.98	21.33
891.151	-19.63
891.323	-23.72
891.494	11.09
891.665	-1.19
891.836	-48.3
892.007	-62.63
892.178	95.06
892.349	-15.53
892.52	11.09
892.691	-46.25
892.862	-52.39
893.032	-17.58
893.203	-25.77
893.374	-19.63
893.545	9.05
893.716	-15.53
893.887	27.48
894.057	-27.82
894.228	-60.59
894.399	-46.25
894.57	15.19
894.74	13.14
894.911	-9.39
895.082	-5.29
895.253	-42.15
895.423	45.91
895.594	-9.39
895.764	-1.19
895.935	-31.91
896.106	25.43
896.276	27.48
896.447	11.09
896.617	-70.83
896.788	-38.06
896.958	-9.39
897.129	-23.72
897.299	33.62
897.47	31.57
897.64	-5.29
897.81	17.24
897.981	-7.34
898.151	-11.43
898.322	-17.58
898.492	35.67
898.662	-72.87
898.832	-56.49
899.003	13.14
899.173	-27.82
899.343	-11.43
899.513	-44.2
