Data from USB4F104151__99__13-06-32-596.txt Node

Date: Fri Mar 14 13:06:32 EDT 2025
User: louis
Spectrometer: USB4F10415
Trigger mode: 4
Integration Time (sec): 4.000000E-2
Scans to average: 1
Electric dark correction enabled: true
Nonlinearity correction enabled: false
Boxcar width: 0
XAxis mode: Wavelengths
Number of Pixels in Spectrum: 3648
>>>>>Begin Spectral Data<<<<<
178.204	-167.76
178.424	-167.76
178.644	-167.76
178.864	-192.34
179.084	-155.47
179.304	-67.41
179.524	-12.12
179.744	-18.26
179.964	59.56
180.184	-53.08
180.404	45.23
180.624	41.13
180.844	-48.98
181.064	-18.26
181.283	20.65
181.503	-5.97
181.723	57.51
181.943	-69.46
182.163	143.53
182.383	26.79
182.602	71.85
182.822	71.85
183.042	73.9
183.262	32.94
183.482	-26.45
183.701	-10.07
183.921	0.17
184.141	14.51
184.361	49.32
184.58	32.94
184.8	49.32
185.02	26.79
185.239	82.09
185.459	-10.07
185.679	49.32
185.898	-18.26
186.118	26.79
186.338	22.7
186.557	18.6
186.777	47.27
186.997	30.89
187.216	-1.88
187.436	121
187.655	96.43
187.875	34.99
188.095	20.65
188.314	28.84
188.534	82.09
188.753	-8.02
188.973	65.71
189.192	65.71
189.412	71.85
189.631	55.47
189.851	-12.12
190.07	80.04
190.29	14.51
190.509	-20.31
190.729	8.36
190.948	88.23
191.168	194.73
191.387	96.43
191.607	-10.07
191.826	28.84
192.045	6.31
192.265	37.03
192.484	4.27
192.704	71.85
192.923	26.79
193.142	104.62
193.362	43.18
193.581	104.62
193.8	84.14
194.02	82.09
194.239	-14.17
194.458	8.36
194.678	-38.74
194.897	-44.88
195.116	22.7
195.335	24.75
195.555	112.81
195.774	30.89
195.993	45.23
196.212	-12.12
196.432	-8.02
196.651	80.04
196.87	-18.26
197.089	108.71
197.308	108.71
197.528	0.17
197.747	-71.51
197.966	-3.93
198.185	112.81
198.404	77.99
198.623	26.79
198.842	39.08
199.062	65.71
199.281	96.43
199.5	-69.46
199.719	104.62
199.938	82.09
200.157	98.47
200.376	59.56
200.595	77.99
200.814	143.53
201.033	-57.17
201.252	98.47
201.471	-42.84
201.69	125.1
201.909	22.7
202.128	88.23
202.347	55.47
202.566	39.08
202.785	-24.4
203.004	22.7
203.223	172.2
203.442	57.51
203.661	39.08
203.879	-12.12
204.098	30.89
204.317	-30.55
204.536	8.36
204.755	47.27
204.974	116.9
205.193	157.86
205.411	90.28
205.63	47.27
205.849	26.79
206.068	61.61
206.287	32.94
206.505	77.99
206.724	18.6
206.943	-16.21
207.162	69.8
207.381	-1.88
207.599	0.17
207.818	71.85
208.037	47.27
208.255	26.79
208.474	45.23
208.693	153.77
208.911	-81.75
209.13	96.43
209.349	-1.88
209.567	41.13
209.786	73.9
210.005	30.89
210.223	16.55
210.442	28.84
210.661	108.71
210.879	26.79
211.098	94.38
211.316	63.66
211.535	49.32
211.753	80.04
211.972	131.24
212.191	-16.21
212.409	32.94
212.628	90.28
212.846	63.66
213.065	22.7
213.283	67.75
213.502	37.03
213.72	86.19
213.938	34.99
214.157	14.51
214.375	32.94
214.594	108.71
214.812	51.37
215.031	82.09
215.249	2.22
215.467	55.47
215.686	22.7
215.904	4.27
216.122	57.51
216.341	55.47
216.559	49.32
216.778	90.28
216.996	65.71
217.214	0.17
217.432	22.7
217.651	34.99
217.869	0.17
218.087	-14.17
218.306	51.37
218.524	14.51
218.742	-18.26
218.96	90.28
219.179	16.55
219.397	94.38
219.615	100.52
219.833	57.51
220.051	-10.07
220.27	104.62
220.488	30.89
220.706	92.33
220.924	32.94
221.142	-3.93
221.36	61.61
221.578	51.37
221.796	73.9
222.015	4.27
222.233	61.61
222.451	73.9
222.669	-8.02
222.887	37.03
223.105	0.17
223.323	43.18
223.541	45.23
223.759	47.27
223.977	49.32
224.195	47.27
224.413	96.43
224.631	71.85
224.849	30.89
225.067	121
225.285	0.17
225.503	98.47
225.721	-32.6
225.939	98.47
226.157	34.99
226.375	114.86
226.592	26.79
226.81	55.47
227.028	80.04
227.246	65.71
227.464	71.85
227.682	69.8
227.9	137.38
228.117	18.6
228.335	16.55
228.553	63.66
228.771	37.03
228.989	82.09
229.206	-12.12
229.424	30.89
229.642	-32.6
229.86	-26.45
230.077	112.81
230.295	41.13
230.513	96.43
230.731	100.52
230.948	47.27
231.166	75.95
231.384	51.37
231.601	30.89
231.819	133.29
232.037	14.51
232.254	-12.12
232.472	63.66
232.689	65.71
232.907	143.53
233.125	39.08
233.342	-26.45
233.56	-55.12
233.777	90.28
233.995	90.28
234.213	96.43
234.43	0.17
234.648	6.31
234.865	26.79
235.083	139.43
235.3	-38.74
235.518	106.67
235.735	43.18
235.953	84.14
236.17	16.55
236.388	-1.88
236.605	43.18
236.822	37.03
237.04	123.05
237.257	18.6
237.475	-20.31
237.692	-12.12
237.909	10.41
238.127	34.99
238.344	34.99
238.562	49.32
238.779	-26.45
238.996	0.17
239.214	28.84
239.431	73.9
239.648	-16.21
239.865	-26.45
240.083	100.52
240.3	22.7
240.517	55.47
240.735	30.89
240.952	34.99
241.169	80.04
241.386	71.85
241.603	-5.97
241.821	-36.69
242.038	65.71
242.255	4.27
242.472	-14.17
242.689	49.32
242.907	94.38
243.124	63.66
243.341	43.18
243.558	14.51
243.775	-14.17
243.992	-3.93
244.209	18.6
244.426	98.47
244.643	145.58
244.86	73.9
245.078	96.43
245.295	-24.4
245.512	47.27
245.729	22.7
245.946	-1.88
246.163	51.37
246.38	51.37
246.597	16.55
246.814	57.51
247.031	59.56
247.248	94.38
247.464	71.85
247.681	18.6
247.898	100.52
248.115	39.08
248.332	-12.12
248.549	108.71
248.766	100.52
248.983	69.8
249.2	69.8
249.417	43.18
249.633	-8.02
249.85	49.32
250.067	26.79
250.284	34.99
250.501	49.32
250.717	65.71
250.934	0.17
251.151	51.37
251.368	16.55
251.585	53.42
251.801	92.33
252.018	14.51
252.235	45.23
252.451	10.41
252.668	69.8
252.885	37.03
253.102	39.08
253.318	-1.88
253.535	-46.93
253.752	-16.21
253.968	-53.08
254.185	-57.17
254.401	90.28
254.618	63.66
254.835	133.29
255.051	133.29
255.268	59.56
255.484	73.9
255.701	26.79
255.917	47.27
256.134	32.94
256.351	14.51
256.567	4.27
256.784	75.95
257	65.71
257.217	51.37
257.433	94.38
257.65	123.05
257.866	88.23
258.082	-10.07
258.299	-1.88
258.515	75.95
258.732	30.89
258.948	59.56
259.165	69.8
259.381	30.89
259.597	39.08
259.814	63.66
260.03	77.99
260.246	-30.55
260.463	32.94
260.679	114.86
260.895	80.04
261.112	20.65
261.328	26.79
261.544	47.27
261.761	135.34
261.977	71.85
262.193	-44.88
262.409	100.52
262.626	34.99
262.842	67.75
263.058	-22.36
263.274	155.82
263.49	28.84
263.707	45.23
263.923	84.14
264.139	-22.36
264.355	57.51
264.571	92.33
264.787	65.71
265.004	47.27
265.22	77.99
265.436	10.41
265.652	55.47
265.868	10.41
266.084	2.22
266.3	86.19
266.516	77.99
266.732	59.56
266.948	45.23
267.164	20.65
267.38	6.31
267.596	39.08
267.812	96.43
268.028	14.51
268.244	22.7
268.46	30.89
268.676	47.27
268.892	75.95
269.108	43.18
269.324	55.47
269.54	10.41
269.756	96.43
269.972	-48.98
270.188	59.56
270.403	22.7
270.619	108.71
270.835	-20.31
271.051	57.51
271.267	37.03
271.483	47.27
271.698	20.65
271.914	80.04
272.13	16.55
272.346	37.03
272.562	96.43
272.777	164.01
272.993	59.56
273.209	59.56
273.425	43.18
273.64	-26.45
273.856	55.47
274.072	45.23
274.287	22.7
274.503	129.19
274.719	135.34
274.934	-22.36
275.15	24.75
275.366	110.76
275.581	14.51
275.797	51.37
276.012	30.89
276.228	92.33
276.444	67.75
276.659	114.86
276.875	10.41
277.09	47.27
277.306	49.32
277.521	47.27
277.737	92.33
277.952	80.04
278.168	45.23
278.383	6.31
278.599	22.7
278.814	65.71
279.03	100.52
279.245	104.62
279.461	55.47
279.676	24.75
279.892	47.27
280.107	8.36
280.322	30.89
280.538	90.28
280.753	16.55
280.969	16.55
281.184	55.47
281.399	131.24
281.615	94.38
281.83	80.04
282.045	-3.93
282.26	71.85
282.476	8.36
282.691	143.53
282.906	26.79
283.122	80.04
283.337	51.37
283.552	118.95
283.767	55.47
283.983	84.14
284.198	28.84
284.413	80.04
284.628	-5.97
284.843	59.56
285.058	59.56
285.274	37.03
285.489	51.37
285.704	114.86
285.919	26.79
286.134	82.09
286.349	106.67
286.564	53.42
286.779	41.13
286.995	8.36
287.21	-73.56
287.425	37.03
287.64	45.23
287.855	30.89
288.07	67.75
288.285	63.66
288.5	84.14
288.715	131.24
288.93	32.94
289.145	-51.03
289.36	41.13
289.575	-24.4
289.79	45.23
290.004	77.99
290.219	18.6
290.434	39.08
290.649	-1.88
290.864	-1.88
291.079	69.8
291.294	16.55
291.509	8.36
291.724	12.46
291.938	18.6
292.153	39.08
292.368	26.79
292.583	123.05
292.798	67.75
293.012	32.94
293.227	137.38
293.442	-8.02
293.657	71.85
293.871	125.1
294.086	92.33
294.301	84.14
294.516	94.38
294.73	104.62
294.945	-28.5
295.16	90.28
295.374	164.01
295.589	118.95
295.804	34.99
296.018	2.22
296.233	57.51
296.447	67.75
296.662	82.09
296.877	28.84
297.091	12.46
297.306	59.56
297.52	39.08
297.735	47.27
297.949	20.65
298.164	88.23
298.378	20.65
298.593	51.37
298.807	39.08
299.022	20.65
299.236	69.8
299.451	-26.45
299.665	73.9
299.88	88.23
300.094	127.14
300.309	-5.97
300.523	41.13
300.737	16.55
300.952	2.22
301.166	96.43
301.381	22.7
301.595	41.13
301.809	30.89
302.024	20.65
302.238	84.14
302.452	102.57
302.667	100.52
302.881	67.75
303.095	16.55
303.309	100.52
303.524	30.89
303.738	16.55
303.952	49.32
304.166	100.52
304.381	8.36
304.595	61.61
304.809	61.61
305.023	73.9
305.237	12.46
305.452	77.99
305.666	57.51
305.88	131.24
306.094	51.37
306.308	41.13
306.522	77.99
306.736	30.89
306.95	98.47
307.164	30.89
307.379	41.13
307.593	110.76
307.807	47.27
308.021	59.56
308.235	69.8
308.449	-14.17
308.663	47.27
308.877	82.09
309.091	80.04
309.305	92.33
309.519	0.17
309.733	43.18
309.947	8.36
310.161	-40.79
310.374	121
310.588	145.58
310.802	-30.55
311.016	80.04
311.23	16.55
311.444	16.55
311.658	88.23
311.872	77.99
312.085	141.48
312.299	90.28
312.513	57.51
312.727	90.28
312.941	-18.26
313.154	55.47
313.368	110.76
313.582	-3.93
313.796	28.84
314.009	51.37
314.223	121
314.437	96.43
314.651	92.33
314.864	47.27
315.078	49.32
315.292	-42.84
315.505	20.65
315.719	32.94
315.933	71.85
316.146	100.52
316.36	-40.79
316.573	86.19
316.787	86.19
317.001	18.6
317.214	-38.74
317.428	-18.26
317.641	94.38
317.855	-14.17
318.068	24.75
318.282	84.14
318.495	39.08
318.709	57.51
318.922	53.42
319.136	30.89
319.349	37.03
319.563	0.17
319.776	65.71
319.99	-10.07
320.203	82.09
320.417	75.95
320.63	88.23
320.843	59.56
321.057	47.27
321.27	57.51
321.483	96.43
321.697	67.75
321.91	98.47
322.124	92.33
322.337	32.94
322.55	51.37
322.763	53.42
322.977	57.51
323.19	-1.88
323.403	75.95
323.617	110.76
323.83	104.62
324.043	43.18
324.256	96.43
324.469	43.18
324.683	14.51
324.896	12.46
325.109	-32.6
325.322	6.31
325.535	174.25
325.748	24.75
325.962	-20.31
326.175	45.23
326.388	18.6
326.601	41.13
326.814	26.79
327.027	39.08
327.24	55.47
327.453	24.75
327.666	37.03
327.879	75.95
328.092	102.57
328.305	-10.07
328.518	114.86
328.731	30.89
328.944	63.66
329.157	18.6
329.37	43.18
329.583	209.06
329.796	121
330.009	-16.21
330.222	123.05
330.435	55.47
330.648	53.42
330.861	123.05
331.073	26.79
331.286	116.9
331.499	84.14
331.712	37.03
331.925	51.37
332.138	90.28
332.35	75.95
332.563	-51.03
332.776	159.91
332.989	16.55
333.202	69.8
333.414	45.23
333.627	22.7
333.84	14.51
334.053	18.6
334.265	16.55
334.478	98.47
334.691	127.14
334.903	-26.45
335.116	71.85
335.329	0.17
335.541	69.8
335.754	88.23
335.966	59.56
336.179	-3.93
336.392	4.27
336.604	137.38
336.817	73.9
337.029	47.27
337.242	71.85
337.454	116.9
337.667	55.47
337.88	80.04
338.092	26.79
338.305	67.75
338.517	-10.07
338.729	121
338.942	164.01
339.154	-36.69
339.367	-38.74
339.579	80.04
339.792	-5.97
340.004	92.33
340.217	51.37
340.429	55.47
340.641	75.95
340.854	-8.02
341.066	14.51
341.278	90.28
341.491	80.04
341.703	34.99
341.915	47.27
342.128	129.19
342.34	112.81
342.552	26.79
342.764	47.27
342.977	69.8
343.189	2.22
343.401	75.95
343.613	-48.98
343.826	47.27
344.038	-16.21
344.25	106.67
344.462	-24.4
344.674	69.8
344.886	14.51
345.099	18.6
345.311	82.09
345.523	14.51
345.735	30.89
345.947	121
346.159	41.13
346.371	75.95
346.583	26.79
346.795	157.86
347.007	118.95
347.219	73.9
347.431	14.51
347.643	86.19
347.855	20.65
348.067	69.8
348.279	14.51
348.491	86.19
348.703	57.51
348.915	14.51
349.127	14.51
349.339	61.61
349.551	-10.07
349.763	114.86
349.975	80.04
350.187	96.43
350.399	98.47
350.61	65.71
350.822	80.04
351.034	59.56
351.246	34.99
351.458	127.14
351.669	80.04
351.881	98.47
352.093	166.06
352.305	57.51
352.517	106.67
352.728	106.67
352.94	67.75
353.152	61.61
353.363	-46.93
353.575	137.38
353.787	88.23
353.999	71.85
354.21	96.43
354.422	37.03
354.633	34.99
354.845	43.18
355.057	65.71
355.268	63.66
355.48	-32.6
355.692	-16.21
355.903	98.47
356.115	96.43
356.326	49.32
356.538	84.14
356.749	129.19
356.961	77.99
357.172	77.99
357.384	0.17
357.595	141.48
357.807	57.51
358.018	-3.93
358.23	55.47
358.441	75.95
358.653	127.14
358.864	96.43
359.075	4.27
359.287	53.42
359.498	112.81
359.709	100.52
359.921	75.95
360.132	110.76
360.344	112.81
360.555	90.28
360.766	57.51
360.977	14.51
361.189	18.6
361.4	100.52
361.611	137.38
361.823	108.71
362.034	-5.97
362.245	16.55
362.456	18.6
362.667	39.08
362.879	-22.36
363.09	75.95
363.301	121
363.512	10.41
363.723	34.99
363.935	112.81
364.146	57.51
364.357	-5.97
364.568	75.95
364.779	-1.88
364.99	65.71
365.201	61.61
365.412	102.57
365.623	-16.21
365.834	75.95
366.045	65.71
366.256	100.52
366.467	118.95
366.678	30.89
366.889	30.89
367.1	37.03
367.311	92.33
367.522	55.47
367.733	96.43
367.944	176.3
368.155	69.8
368.366	65.71
368.577	102.57
368.788	123.05
368.999	20.65
369.209	-14.17
369.42	98.47
369.631	180.39
369.842	55.47
370.053	86.19
370.264	151.72
370.474	57.51
370.685	6.31
370.896	114.86
371.107	110.76
371.317	94.38
371.528	80.04
371.739	80.04
371.95	14.51
372.16	149.67
372.371	-16.21
372.582	51.37
372.792	151.72
373.003	61.61
373.214	61.61
373.424	118.95
373.635	59.56
373.846	53.42
374.056	84.14
374.267	112.81
374.477	39.08
374.688	71.85
374.898	55.47
375.109	57.51
375.319	65.71
375.53	118.95
375.74	104.62
375.951	73.9
376.161	84.14
376.372	100.52
376.582	2.22
376.793	92.33
377.003	67.75
377.214	47.27
377.424	98.47
377.635	102.57
377.845	16.55
378.055	108.71
378.266	-5.97
378.476	26.79
378.686	41.13
378.897	104.62
379.107	104.62
379.317	55.47
379.528	80.04
379.738	121
379.948	-12.12
380.158	172.2
380.369	73.9
380.579	55.47
380.789	55.47
380.999	59.56
381.21	178.34
381.42	170.15
381.63	37.03
381.84	75.95
382.05	86.19
382.261	98.47
382.471	102.57
382.681	53.42
382.891	127.14
383.101	131.24
383.311	90.28
383.521	0.17
383.731	63.66
383.941	116.9
384.151	67.75
384.361	155.82
384.571	59.56
384.781	127.14
384.991	114.86
385.201	149.67
385.411	100.52
385.621	114.86
385.831	37.03
386.041	121
386.251	96.43
386.461	82.09
386.671	100.52
386.881	41.13
387.091	55.47
387.301	133.29
387.511	73.9
387.72	131.24
387.93	63.66
388.14	61.61
388.35	77.99
388.56	53.42
388.769	139.43
388.979	106.67
389.189	-5.97
389.399	143.53
389.609	73.9
389.818	104.62
390.028	61.61
390.238	100.52
390.447	63.66
390.657	116.9
390.867	77.99
391.076	-8.02
391.286	71.85
391.496	170.15
391.705	131.24
391.915	174.25
392.125	118.95
392.334	73.9
392.544	118.95
392.753	73.9
392.963	20.65
393.172	123.05
393.382	118.95
393.591	125.1
393.801	82.09
394.01	186.54
394.22	159.91
394.429	28.84
394.639	59.56
394.848	133.29
395.058	90.28
395.267	116.9
395.477	137.38
395.686	84.14
395.895	190.63
396.105	202.92
396.314	168.1
396.524	133.29
396.733	73.9
396.942	157.86
397.152	161.96
397.361	155.82
397.57	88.23
397.78	147.62
397.989	196.78
398.198	168.1
398.407	67.75
398.617	104.62
398.826	147.62
399.035	139.43
399.244	211.11
399.453	65.71
399.663	114.86
399.872	88.23
400.081	102.57
400.29	174.25
400.499	129.19
400.708	155.82
400.917	94.38
401.127	235.69
401.336	145.58
401.545	178.34
401.754	202.92
401.963	252.07
402.172	127.14
402.381	104.62
402.59	102.57
402.799	166.06
403.008	198.82
403.217	104.62
403.426	155.82
403.635	100.52
403.844	118.95
404.053	207.02
404.262	125.1
404.471	207.02
404.68	184.49
404.888	270.5
405.097	196.78
405.306	290.98
405.515	233.64
405.724	174.25
405.933	260.26
406.142	213.16
406.35	258.21
406.559	231.59
406.768	229.54
406.977	268.45
407.185	227.5
407.394	280.74
407.603	225.45
407.812	293.03
408.02	350.37
408.229	305.32
408.438	317.61
408.646	256.17
408.855	313.51
409.064	399.52
409.272	370.85
409.481	387.24
409.69	366.76
409.898	317.61
410.107	401.57
410.315	458.92
410.524	422.05
410.733	491.68
410.941	440.48
411.15	499.88
411.358	485.54
411.567	610.47
411.775	471.2
411.984	565.41
412.192	577.7
412.401	565.41
412.609	647.33
412.818	673.95
413.026	714.91
413.234	731.3
413.443	571.55
413.651	671.9
413.86	727.2
414.068	729.25
414.276	784.54
414.485	735.39
414.693	856.22
414.901	868.51
415.11	942.24
415.318	944.28
415.526	927.9
415.734	1040.54
415.943	1058.97
416.151	1095.83
416.359	1198.23
416.567	1169.56
416.776	1253.53
416.984	1280.15
417.192	1450.13
417.4	1233.05
417.608	1187.99
417.817	1300.63
418.025	1472.66
418.233	1505.43
418.441	1454.23
418.649	1573.01
418.857	1613.97
419.065	1763.47
419.273	1611.92
419.481	1749.14
419.689	1906.83
419.897	2011.28
420.105	1990.8
420.313	2097.29
420.521	2201.74
420.729	2089.1
420.937	2275.46
421.145	2226.31
421.353	2369.67
421.561	2625.67
421.769	2517.12
421.977	2730.11
422.185	2738.3
422.393	2828.42
422.601	3100.8
422.809	3008.64
423.017	3018.88
423.224	3164.28
423.432	3256.44
423.64	3215.48
423.848	3733.62
424.056	3491.96
424.263	3795.06
424.471	3815.54
424.679	3930.22
424.887	4130.92
425.094	4249.71
425.302	4313.19
425.51	4317.29
425.718	4612.2
425.925	4561
426.133	4692.07
426.341	4919.39
426.548	5161.05
426.756	5206.11
426.964	5316.7
427.171	5582.93
427.379	5740.63
427.586	5843.03
427.794	6039.63
428.001	6162.51
428.209	6568.01
428.417	6322.25
428.624	6850.63
428.832	7067.71
429.039	7006.27
429.247	6944.83
429.454	7534.65
429.662	8087.6
429.869	7655.48
430.076	7987.25
430.284	7749.68
430.491	8028.21
430.699	8634.41
430.906	8679.46
431.114	8800.29
431.321	9238.56
431.528	9248.8
431.736	9941.01
431.943	10426.38
432.15	10145.81
432.358	10084.37
432.565	10745.86
432.772	10885.12
432.979	11274.24
433.187	11137.02
433.394	11513.85
433.601	12148.72
433.808	12234.74
434.016	12124.15
434.223	12511.21
434.43	13348.83
434.637	13211.62
434.844	13959.13
435.052	14256.08
435.259	13926.36
435.466	14307.28
435.673	14325.71
435.88	14966.73
436.087	16099.25
436.294	15962.04
436.501	15499.2
436.708	16000.95
436.915	16474.03
437.122	17274.79
437.329	17254.31
437.537	17676.19
437.743	18266
437.95	17794.97
438.157	18638.73
438.364	19363.72
438.571	19201.93
438.778	19681.15
438.985	21321.57
439.192	20651.89
439.399	21067.63
439.606	20690.8
439.813	21686.11
440.02	22927.18
440.227	22486.87
440.433	22542.16
440.64	23582.53
440.847	22955.85
441.054	23574.34
441.261	25280.3
441.467	24776.5
441.674	25573.16
441.881	26187.55
442.088	26642.2
442.294	26142.49
442.501	27037.45
442.708	27342.6
442.914	28772.08
443.121	29974.24
443.328	28622.58
443.534	30662.36
443.741	29748.96
443.948	29703.91
444.154	31889.09
444.361	31692.49
444.568	31659.72
444.774	31454.92
444.981	32147.14
445.187	33007.28
445.394	34580.12
445.6	34254.5
445.807	37017.21
446.013	35618.44
446.22	36138.63
446.426	37625.45
446.633	38166.12
446.839	39491.15
447.046	37973.61
447.252	40060.49
447.459	39867.98
447.665	39786.06
447.871	41399.86
448.078	43492.88
448.284	41262.65
448.491	42620.45
448.697	44011.02
448.903	44768.77
449.11	44979.71
449.316	44539.4
449.522	45311.48
449.728	46310.89
449.935	46972.38
450.141	46632.42
450.347	47400.41
450.553	46171.63
450.76	46509.54
450.966	48489.93
451.172	47961.55
451.378	48940.48
451.584	47873.49
451.791	49124.8
451.997	49225.15
452.203	49698.23
452.409	49851.83
452.615	49679.8
452.821	47910.35
453.027	47742.42
453.233	49782.2
453.44	48201.16
453.646	48477.64
453.852	48602.57
454.058	49825.2
454.264	48389.58
454.47	49331.64
454.676	47859.15
454.882	49356.22
455.088	45377.01
455.294	45897.2
455.5	46968.29
455.705	47298.01
455.911	45575.67
456.117	44932.61
456.323	44084.75
456.529	41780.78
456.735	43390.48
456.941	42085.93
457.147	41463.35
457.352	40894.01
457.558	40087.11
457.764	40422.98
457.97	39759.44
458.176	38620.77
458.381	38647.39
458.587	37068.41
458.793	36892.28
458.999	35241.62
459.204	37854.83
459.41	35815.05
459.616	33795.75
459.821	34438.81
460.027	33947.3
460.233	33593
460.438	31690.44
460.644	32243.39
460.85	30799.57
461.055	30097.12
461.261	29964
461.466	27711.24
461.672	27066.13
461.878	28765.94
462.083	27102.99
462.289	26531.61
462.494	26265.37
462.7	24995.63
462.905	24436.53
463.111	25132.84
463.316	25243.43
463.522	24737.59
463.727	24739.63
463.932	24702.77
464.138	24278.84
464.343	24127.29
464.549	23564.1
464.754	24616.76
464.959	24428.34
465.165	24291.13
465.37	23121.74
465.575	22587.22
465.781	23484.23
465.986	23709.5
466.191	23244.62
466.397	22290.26
466.602	21311.33
466.807	21987.16
467.012	22202.2
467.218	22007.64
467.423	21935.96
467.628	21788.51
467.833	22859.6
468.038	22146.9
468.244	21055.34
468.449	22132.57
468.654	21411.68
468.859	21337.96
469.064	21094.25
469.269	20092.79
469.474	20416.37
469.679	20854.64
469.885	20311.92
470.09	20637.55
470.295	20449.14
470.5	19971.96
470.705	20053.88
470.91	19726.21
471.115	19668.86
471.32	19554.18
471.525	19507.07
471.73	19269.51
471.935	18866.06
472.139	18368.4
472.344	18778
472.549	18534.29
472.754	18163.61
472.959	17878.94
473.164	17522.59
473.369	17385.38
473.574	17960.86
473.778	17850.27
473.983	17870.75
474.188	17387.43
474.393	16811.95
474.598	17047.46
474.802	16560.05
475.007	16404.4
475.212	16711.6
475.417	15894.46
475.621	16076.73
475.826	15992.76
476.031	15763.39
476.235	15570.88
476.44	15685.56
476.645	15462.33
476.849	15243.2
477.054	15144.9
477.259	15185.86
477.463	15122.37
477.668	14391.25
477.872	14770.12
478.077	14217.17
478.282	14008.28
478.486	14022.61
478.691	14077.91
478.895	13776.86
479.1	13742.04
479.304	13998.04
479.509	13354.97
479.713	13686.75
479.918	13346.78
480.122	13180.9
480.326	13402.08
480.531	13344.74
480.735	13162.47
480.94	13154.27
481.144	13332.45
481.348	12941.29
481.553	13035.49
481.757	12566.51
481.961	12918.76
482.166	13197.28
482.37	12961.76
482.574	12613.61
482.778	12785.64
482.983	12994.53
483.187	12785.64
483.391	12857.32
483.595	12769.26
483.8	12562.41
484.004	12808.17
484.208	12820.46
484.412	12605.42
484.616	12920.81
484.821	12869.61
485.025	12660.71
485.229	12652.52
485.433	12709.86
485.637	12756.97
485.841	12392.43
486.045	12713.96
486.249	12607.47
486.453	12642.28
486.657	12689.39
486.861	12808.17
487.065	12236.78
487.269	12503.02
487.473	12302.32
487.677	12742.63
487.881	12990.44
488.085	12666.86
488.289	12929
488.493	12429.29
488.697	12898.28
488.901	12716.01
489.105	12949.48
489.309	12916.71
489.512	12785.64
489.716	13055.97
489.92	12814.31
490.124	12865.51
490.328	12969.96
490.531	12961.76
490.735	13072.36
490.939	13225.95
491.143	12867.56
491.346	13111.27
491.55	13203.43
491.754	13117.41
491.958	13318.11
492.161	13101.03
492.365	13533.15
492.569	13182.95
492.772	13361.12
492.976	13404.13
493.18	13346.78
493.383	13959.13
493.587	13766.62
493.79	13909.97
493.994	13768.66
494.197	13678.55
494.401	13948.89
494.605	13862.87
494.808	14299.09
495.012	14331.86
495.215	14315.47
495.419	14424.01
495.622	14448.59
495.825	14897.1
496.029	14766.03
496.232	15040.45
496.436	14696.39
496.639	15235.01
496.843	15507.39
497.046	15531.97
497.249	15837.11
497.453	15701.95
497.656	16066.49
497.859	16046.01
498.063	16211.89
498.266	16459.7
498.469	16457.65
498.673	16664.49
498.876	16963.5
499.079	16975.78
499.282	16943.02
499.485	17448.86
499.689	17600.41
499.892	17876.89
500.095	17602.46
500.298	18091.93
500.501	18042.78
500.705	18575.25
500.908	18683.79
501.111	19005.32
501.314	18880.39
501.517	19154.82
501.72	19380.1
501.923	19433.35
502.126	19947.39
502.329	20168.57
502.532	20340.6
502.735	20068.22
502.938	20637.55
503.141	20823.92
503.344	21178.22
503.547	21182.31
503.75	21479.27
503.953	21796.7
504.156	21944.16
504.359	22265.69
504.562	22159.19
504.765	22804.3
504.968	23029.58
505.17	23160.65
505.373	23320.39
505.576	23699.27
505.779	24096.57
505.982	23770.94
506.185	24637.23
506.387	24528.69
506.59	24897.33
506.793	25188.14
506.996	25032.49
507.198	26083.1
507.401	25751.33
507.604	25931.55
507.807	26720.02
508.009	26525.46
508.212	26865.42
508.415	27322.12
508.617	27395.85
508.82	27512.58
509.022	27139.85
509.225	28333.82
509.428	28448.5
509.63	28649.21
509.833	29003.5
510.035	29583.08
510.238	29105.9
510.44	29886.18
510.643	29867.75
510.845	30316.25
511.048	30265.05
511.25	30863.06
511.453	30959.31
511.655	31979.2
511.858	31753.93
512.06	31555.27
512.262	32372.41
512.465	32245.44
512.667	32843.45
512.87	33185.46
513.072	33195.7
513.274	33902.25
513.477	33525.42
513.679	34066.08
513.881	34549.4
514.084	35049.11
514.286	34860.69
514.488	35116.69
514.69	36142.72
514.893	35894.92
515.095	35944.07
515.297	36335.23
515.499	36869.75
515.701	37017.21
515.904	37932.65
516.106	37711.47
516.308	38272.61
516.51	38643.29
516.712	38518.37
516.914	39343.7
517.116	39403.09
517.318	39523.92
517.52	40275.52
517.722	40027.72
517.925	40646.21
518.127	40894.01
518.329	41434.67
518.531	41344.56
518.733	42004.01
518.935	42243.62
519.136	42198.57
519.338	42858.01
519.54	42634.78
519.742	43058.71
519.944	43591.19
520.146	44099.08
520.348	44224.01
520.55	44369.41
520.752	44779.01
520.954	45192.7
521.155	45264.38
521.357	45633.01
521.559	46079.47
521.761	46818.78
521.963	46573.03
522.164	47312.34
522.366	46859.74
522.568	47365.59
522.77	47881.68
522.971	48238.03
523.173	48100.81
523.375	48203.21
523.576	48569.8
523.778	48858.56
523.98	49489.34
524.181	49616.31
524.383	49491.38
524.584	50298.28
524.786	50187.69
524.988	49847.73
525.189	50761.12
525.391	50967.97
525.592	51178.91
525.794	51236.25
525.995	51103.13
526.197	51465.63
526.398	51600.79
526.6	52321.68
526.801	51807.64
527.003	51924.37
527.204	52505.99
527.406	52733.32
527.607	52772.23
527.808	53542.27
528.01	52592.01
528.211	53063.04
528.412	54062.45
528.614	53876.08
528.815	53613.94
529.016	54193.52
529.218	53550.46
529.419	54044.02
529.62	53962.1
529.822	53691.77
530.023	54211.95
530.224	54115.7
530.425	54498.67
530.626	54060.4
530.828	53845.37
531.029	55051.62
531.23	54467.95
531.431	54510.95
531.632	54945.12
531.833	55172.45
532.035	54746.47
532.236	55274.85
532.437	54979.94
532.638	54799.72
532.839	55512.41
533.04	55498.08
533.241	54541.67
533.442	55418.21
533.643	55520.6
533.844	55229.79
534.045	55371.1
534.246	54748.52
534.447	55604.57
534.648	55457.12
534.849	55842.13
535.05	54945.12
535.251	55311.71
535.451	55364.96
535.652	55606.62
535.853	55190.88
536.054	55309.66
536.255	55383.39
536.456	55299.42
536.657	56206.67
536.857	55194.98
537.058	55389.53
537.259	55760.22
537.46	55489.88
537.66	55223.65
537.861	55459.16
538.062	55174.5
538.263	55692.63
538.463	55127.39
538.664	55293.28
538.865	55477.6
539.065	55999.83
539.266	54918.5
539.466	56118.61
539.667	54879.59
539.868	55799.13
540.068	55221.6
540.269	55371.1
540.469	55792.98
540.67	54881.64
540.87	55170.4
541.071	55043.43
541.271	55653.72
541.472	55049.57
541.672	55076.19
541.873	54961.51
542.073	54584.68
542.274	55395.68
542.474	55493.98
542.675	54578.54
542.875	55303.52
543.075	54900.07
543.276	54433.13
543.476	54992.23
543.676	54967.65
543.877	54988.13
544.077	54879.59
544.277	55027.04
544.478	55037.28
544.678	55205.22
544.878	54875.49
545.078	55301.47
545.279	54979.94
545.479	54740.33
545.679	55049.57
545.879	55227.74
546.079	54918.5
546.28	54908.26
546.48	54654.31
546.68	54945.12
546.88	54781.29
547.08	54844.77
547.28	54979.94
547.48	54285.68
547.68	55086.43
547.88	54459.76
548.081	54639.98
548.281	54586.73
548.481	54525.29
548.681	54736.23
548.881	54754.66
549.081	54562.15
549.28	54574.44
549.48	54578.54
549.68	54721.9
549.88	54957.41
550.08	54596.97
550.28	54502.76
550.48	54275.44
550.68	54656.36
550.88	54314.35
551.08	54793.57
551.279	54596.97
551.479	54021.49
551.679	54338.93
551.879	54312.3
552.079	54807.91
552.278	54398.32
552.478	54400.36
552.678	54343.02
552.878	54588.78
553.077	54265.2
553.277	53474.68
553.477	54738.28
553.676	53986.67
553.876	54295.92
554.076	54119.79
554.275	53912.95
554.475	53364.09
554.674	53810.55
554.874	53898.61
555.074	53794.17
555.273	54338.93
555.473	53710.2
555.672	53331.32
555.872	53325.18
556.071	53534.07
556.271	53697.91
556.47	53732.73
556.67	53044.61
556.869	53149.06
557.068	53693.82
557.268	53044.61
557.467	53265.79
557.667	53106.05
557.866	53122.43
558.065	53325.18
558.265	52864.39
558.464	52616.58
558.663	53384.57
558.863	52368.78
559.062	53183.87
559.261	52573.58
559.461	53011.84
559.66	52493.71
559.859	52589.96
560.058	52284.81
560.258	52221.33
560.457	51891.6
560.656	52342.16
560.855	52098.45
561.054	52301.2
561.253	52094.35
561.453	52020.62
561.652	52163.98
561.851	51850.64
562.05	51932.56
562.249	51639.7
562.448	51817.88
562.647	51856.79
562.846	51434.91
563.045	51885.46
563.244	51320.22
563.443	51809.68
563.642	50746.79
563.841	51479.96
564.04	51078.56
564.239	51406.23
564.438	51049.89
564.637	50974.11
564.836	50927.01
565.035	50343.34
565.234	50533.8
565.432	50462.12
565.631	50533.8
565.83	50578.85
566.029	50271.66
566.228	50132.4
566.427	50013.62
566.625	49679.8
566.824	49518.01
567.023	49896.88
567.222	49008.06
567.42	49833.39
567.619	49497.53
567.818	49399.22
568.016	49079.74
568.215	49350.07
568.414	49053.12
568.612	49458.62
568.811	48799.17
569.01	49515.96
569.208	48524.74
569.407	48938.43
569.605	48190.92
569.804	48809.41
570.002	48569.8
570.201	48485.83
570.4	48178.64
570.598	47928.78
570.797	47971.79
570.995	47742.42
571.193	47214.04
571.392	47734.23
571.59	47347.16
571.789	47801.81
571.987	47195.61
572.186	47463.89
572.384	47099.36
572.582	47424.98
572.781	47238.62
572.979	46403.05
573.177	47236.57
573.376	47240.67
573.574	46542.31
573.772	46984.67
573.971	46196.2
574.169	46005.74
574.367	45870.57
574.565	46147.05
574.763	46255.59
574.962	45678.07
575.16	45387.25
575.358	45653.49
575.556	45100.54
575.754	45659.63
575.952	44834.3
576.151	45821.42
576.349	44852.73
576.547	44639.75
576.745	44740.1
576.943	45164.03
577.141	44742.14
577.339	45000.19
577.537	44652.03
577.735	44408.33
577.933	44211.72
578.131	44463.62
578.329	44008.97
578.527	44021.26
578.725	44127.75
578.923	44131.85
579.121	43646.48
579.319	43343.38
579.516	43791.89
579.714	43636.24
579.912	43419.16
580.11	43034.14
580.308	43636.24
580.506	43144.73
580.704	42491.43
580.901	42878.49
581.099	43394.58
581.297	42198.57
581.495	42522.15
581.692	42716.7
581.89	42483.23
582.088	42479.14
582.285	42133.03
582.483	42477.09
582.681	42202.66
582.878	42036.78
583.076	41514.55
583.274	41776.69
583.471	41489.97
583.669	41399.86
583.866	41252.41
584.064	41741.87
584.262	41082.42
584.459	41410.1
584.657	41035.32
584.854	40738.37
585.052	40396.35
585.249	40916.54
585.447	40689.21
585.644	40492.61
585.841	40427.07
586.039	40949.31
586.236	40207.94
586.434	39994.95
586.631	39550.54
586.828	40128.07
587.026	39855.69
587.223	39667.28
587.42	39454.29
587.618	39427.67
587.815	39251.54
588.012	39200.34
588.21	39046.74
588.407	39448.14
588.604	38854.23
588.801	38516.32
588.999	38819.42
589.196	38557.28
589.393	38682.2
589.59	38223.46
589.787	38467.17
589.984	38497.89
590.182	37746.28
590.379	37971.56
590.576	37942.89
590.773	37906.02
590.97	37504.62
591.167	37473.9
591.364	37154.42
591.561	37514.86
591.758	37222
591.955	37252.72
592.152	37213.81
592.349	36955.77
592.546	36736.63
592.743	37090.93
592.94	35923.59
593.137	36910.71
593.334	36845.18
593.531	36036.23
593.727	36214.4
593.924	36632.19
594.121	35802.76
594.318	36365.95
594.515	35591.82
594.712	36050.56
594.908	35616.4
595.105	35614.35
595.302	35092.12
595.499	35425.93
595.696	35038.87
595.892	34641.56
596.089	35262.1
596.286	34934.42
596.482	34856.6
596.679	34762.39
596.876	34434.72
597.072	34502.3
597.269	34719.38
597.466	34248.35
597.662	34121.38
597.859	34234.02
598.055	33992.36
598.252	33760.94
598.448	33799.85
598.645	33742.5
598.841	33400.49
599.038	33451.69
599.234	33515.18
599.431	33113.78
599.627	33023.67
599.824	33169.07
600.02	32851.64
600.217	32949.94
600.413	32755.38
600.609	32622.26
600.806	32378.56
601.002	32489.15
601.198	32231.1
601.395	32220.86
601.591	32100.03
601.787	32282.3
601.984	31856.32
602.18	32249.53
602.376	31243.98
602.572	31717.06
602.769	31999.68
602.965	31497.93
603.161	31563.47
603.357	31225.55
603.553	31286.99
603.75	31190.73
603.946	30719.7
604.142	30789.33
604.338	30928.59
604.534	30869.2
604.73	30711.51
604.926	30336.73
605.122	30955.22
605.318	30621.4
605.514	30226.14
605.71	30435.03
605.906	30129.89
606.102	30226.14
606.298	30152.41
606.494	29861.6
606.69	29886.18
606.886	29882.08
607.082	29441.77
607.278	29837.03
607.474	29294.32
607.67	29697.77
607.866	29308.65
608.062	29740.77
608.257	28987.12
608.453	29286.12
608.649	29714.15
608.845	28825.33
609.041	29163.25
609.236	29249.26
609.432	28831.47
609.628	29138.67
609.824	28833.52
610.019	28770.04
610.215	28530.42
610.411	28962.54
610.606	28493.56
610.802	28552.95
610.998	28567.29
611.193	28659.45
611.389	28260.09
611.584	28000
611.78	27928.32
611.976	28110.59
612.171	28290.81
612.367	28256
612.562	27830.02
612.758	27655.94
612.953	27662.08
613.149	28139.26
613.344	27494.15
613.539	28178.17
613.735	27694.85
613.93	27938.56
614.126	27361.03
614.321	27870.98
614.517	27668.23
614.712	27588.36
614.907	27442.95
615.103	27723.52
615.298	27205.39
615.493	27535.11
615.688	26818.32
615.884	27428.62
616.079	26826.51
616.274	26982.16
616.47	27074.32
616.665	26939.15
616.86	26728.21
617.055	26711.83
617.25	26646.29
617.445	27086.61
617.641	26287.9
617.836	26507.03
618.031	26291.99
618.226	26253.08
618.421	26226.46
618.616	26392.34
618.811	25874.21
619.006	26306.33
619.201	25706.27
619.396	25755.43
619.591	25550.63
619.786	25571.11
619.981	25648.93
620.176	25618.21
620.371	25225
620.566	25274.15
620.761	24975.15
620.956	25016.11
621.151	24780.59
621.346	25118.51
621.541	24708.91
621.735	25118.51
621.93	24151.87
622.125	24524.6
622.32	23959.36
622.515	24262.46
622.709	23965.5
622.904	23985.98
623.099	23682.88
623.294	23942.97
623.488	23643.97
623.683	23424.84
623.878	23160.65
624.072	23035.72
624.267	23228.23
624.462	23015.24
624.656	23021.39
624.851	22783.82
625.046	22521.68
625.24	22564.69
625.435	22101.85
625.629	22320.98
625.824	22251.35
626.018	22122.33
626.213	21649.25
626.407	21665.63
626.602	21464.93
626.796	21712.74
626.991	21600.1
627.185	21317.48
627.38	21118.82
627.574	20957.03
627.768	20862.83
627.963	20658.03
628.157	20524.91
628.352	20922.22
628.546	20213.62
628.74	20680.56
628.935	20283.25
629.129	20082.55
629.323	20119.42
629.517	20148.09
629.712	19990.39
629.906	19959.67
630.1	19611.52
630.294	19961.72
630.489	19390.34
630.683	19650.43
630.877	19302.28
631.071	19052.42
631.265	18927.5
631.459	18947.98
631.653	18954.12
631.848	18831.24
632.042	18618.25
632.236	18700.17
632.43	18556.82
632.624	18567.06
632.818	18315.16
633.012	18141.08
633.206	18202.52
633.4	18114.45
633.594	17852.31
633.788	17967
633.982	17809.31
634.176	18014.1
634.369	17549.21
634.563	17348.51
634.757	17315.75
634.951	17287.07
635.145	17299.36
635.339	17215.4
635.533	17147.81
635.726	17330.08
635.92	16977.83
636.114	16955.3
636.308	16734.12
636.501	16621.49
636.695	16676.78
636.889	16514.99
637.083	16261.04
637.276	16322.48
637.47	16168.88
637.664	16381.87
637.857	16160.69
638.051	15912.89
638.244	15728.57
638.438	15943.61
638.632	15947.7
638.825	15429.57
639.019	15404.99
639.212	15349.7
639.406	15671.23
639.599	15349.7
639.793	15316.93
639.986	15214.53
640.18	14929.86
640.373	15009.73
640.567	14849.99
640.76	14784.46
640.954	14737.35
641.147	14669.77
641.34	14583.76
641.534	14712.78
641.727	14501.84
641.92	14647.24
642.114	14235.6
642.307	14317.52
642.5	14280.66
642.694	13860.82
642.887	13995.99
643.08	13879.25
643.273	13952.98
643.467	13789.14
643.66	13772.76
643.853	13631.45
644.046	13424.61
644.239	13473.76
644.432	13260.77
644.626	13453.28
644.819	13162.47
645.012	13152.23
645.205	13307.87
645.398	13006.82
645.591	13025.25
645.784	13154.27
645.977	12896.23
646.17	12822.5
646.363	12664.81
646.556	12613.61
646.749	12621.8
646.942	12597.23
647.135	12306.41
647.328	12410.86
647.521	12447.72
647.714	11960.31
647.907	12369.9
648.099	12115.95
648.292	12130.29
648.485	12185.58
648.678	12019.7
648.871	11995.12
649.064	11735.03
649.256	12036.08
649.449	11573.24
649.642	11810.81
649.835	11550.71
650.027	11476.99
650.22	11493.37
650.413	11354.11
650.605	11376.64
650.798	11427.84
650.991	11196.42
651.183	11229.18
651.376	11116.55
651.568	11089.92
651.761	11005.95
651.954	11053.06
652.146	10696.71
652.339	10866.69
652.531	11026.43
652.724	10584.07
652.916	10633.22
653.109	10422.28
653.301	10522.63
653.494	10506.25
653.686	10229.77
653.879	10625.03
654.071	10414.09
654.263	10387.47
654.456	10237.97
654.648	10164.24
654.84	10037.27
655.033	10158.1
655.225	10162.19
655.417	9975.83
655.61	10164.24
655.802	9838.61
655.994	9814.04
656.186	9779.22
656.379	9873.43
656.571	9750.55
656.763	9533.47
656.955	9611.29
657.148	9723.93
657.34	9431.07
657.532	9453.59
657.724	9279.52
657.916	9453.59
658.108	9363.48
658.3	9228.32
658.492	9144.35
658.684	9033.76
658.876	9138.21
659.068	9017.38
659.26	9070.62
659.452	9017.38
659.644	9087.01
659.836	8755.24
660.028	8953.89
660.22	8658.98
660.412	8894.5
660.604	8802.34
660.796	8861.73
660.988	8679.46
661.18	8552.49
661.372	8648.74
661.563	8484.91
661.755	8421.42
661.947	8400.94
662.139	8280.11
662.331	8355.88
662.522	8251.44
662.714	8339.5
662.906	8179.76
663.097	8263.72
663.289	8321.07
663.481	8269.87
663.673	8036.4
663.864	7972.91
664.056	8022.06
664.247	8005.68
664.439	7968.82
664.631	7899.19
664.822	7837.75
665.014	7868.47
665.205	7682.1
665.397	7788.6
665.588	7768.12
665.78	7737.4
665.971	7508.02
666.163	7702.58
666.354	7645.24
666.546	7514.17
666.737	7555.13
666.929	7540.79
667.12	7616.57
667.311	7448.63
667.503	7284.8
667.694	7338.04
667.885	7112.77
668.077	7348.28
668.268	7292.99
668.459	7174.21
668.651	7280.7
668.842	7239.74
669.033	7292.99
669.224	6981.7
669.416	7192.64
669.607	7151.68
669.798	6875.2
669.989	7104.57
670.18	7123.01
670.371	6938.69
670.563	6754.37
670.754	6967.36
670.945	6756.42
671.136	7053.38
671.327	6811.71
671.518	6961.22
671.709	6905.92
671.9	6924.35
672.091	6783.04
672.282	6746.18
672.473	6697.03
672.664	6742.08
672.855	6692.93
673.046	6824
673.237	6662.21
673.428	6690.88
673.619	6660.17
673.809	6533.19
674	6570.05
674.191	6619.21
674.382	6434.89
674.573	6578.25
674.764	6420.55
674.954	6520.9
675.145	6451.27
675.336	6543.43
675.527	6424.65
675.717	6416.46
675.908	6314.06
676.099	6309.96
676.289	6488.14
676.48	6334.54
676.671	6305.87
676.861	6463.56
677.052	6174.8
677.243	6387.79
677.433	6342.73
677.624	6494.28
677.814	6473.8
678.005	6371.4
678.195	6281.29
678.386	6359.11
678.576	6363.21
678.767	6205.52
678.957	6160.46
679.148	6289.48
679.338	6230.09
679.529	6234.19
679.719	6150.22
679.909	6199.37
680.1	6260.81
680.29	6150.22
680.481	6283.34
680.671	6166.6
680.861	6101.07
681.052	6226
681.242	6023.25
681.432	6252.62
681.622	6019.15
681.813	6064.21
682.003	5920.85
682.193	6070.35
682.383	6060.11
682.573	5865.55
682.764	6021.2
682.954	6066.25
683.144	6023.25
683.334	6156.36
683.524	6148.17
683.714	5949.52
683.904	5937.23
684.094	6027.34
684.284	5912.66
684.474	5984.34
684.664	5937.23
684.854	5910.61
685.044	5906.51
685.234	5914.7
685.424	5879.89
685.614	5879.89
685.804	5863.51
685.994	5797.97
686.184	5804.11
686.374	5728.34
686.564	5732.44
686.753	5707.86
686.943	5666.9
687.133	5636.18
687.323	5568.6
687.513	5693.52
687.702	5671
687.892	5498.97
688.082	5539.93
688.272	5429.34
688.461	5478.49
688.651	5705.81
688.841	5388.38
689.03	5326.94
689.22	5275.74
689.41	5408.86
689.599	5380.18
689.789	5427.29
689.979	5347.42
690.168	5306.46
690.358	5161.05
690.547	5255.26
690.737	5081.18
690.926	5304.41
691.116	5034.08
691.305	5208.16
691.495	5005.41
691.684	5120.09
691.874	5138.52
692.063	4937.82
692.252	5011.55
692.442	4995.17
692.631	5089.37
692.82	4853.86
693.01	4882.53
693.199	4814.95
693.388	4903.01
693.578	4806.75
693.767	4980.83
693.956	4751.46
694.146	4716.64
694.335	4657.25
694.524	4726.88
694.713	4710.5
694.902	4665.44
695.092	4751.46
695.281	4784.23
695.47	4610.15
695.659	4569.19
695.848	4712.55
696.037	4524.13
696.226	4604
696.415	4622.44
696.604	4575.33
696.793	4481.13
696.982	4520.04
697.171	4546.66
697.36	4448.36
697.549	4577.38
697.738	4323.43
697.927	4425.83
698.116	4456.55
698.305	4550.76
698.494	4515.94
698.683	4513.89
698.872	4542.57
699.061	4327.53
699.25	4565.09
699.438	4337.77
699.627	4352.1
699.816	4462.69
700.005	4513.89
700.193	4270.19
700.382	4470.89
700.571	4319.34
700.76	4311.14
700.948	4464.74
701.137	4440.17
701.326	4495.46
701.514	4348.01
701.703	4421.74
701.892	4368.49
702.08	4485.22
702.269	4313.19
702.457	4249.71
702.646	4421.74
702.834	4391.02
703.023	4290.67
703.212	4427.88
703.4	4362.34
703.589	4239.47
703.777	4296.81
703.965	4323.43
704.154	4315.24
704.342	4368.49
704.531	4245.61
704.719	4208.75
704.907	4292.71
705.096	4192.36
705.284	4362.34
705.472	4442.21
705.661	4272.23
705.849	4411.5
706.037	4335.72
706.226	4327.53
706.414	4307.05
706.602	4276.33
706.79	4382.82
706.979	4284.52
707.167	4245.61
707.355	4270.19
707.543	4446.31
707.731	4288.62
707.919	4216.94
708.107	4290.67
708.296	4218.99
708.484	4243.56
708.672	4241.51
708.86	4311.14
709.048	4337.77
709.236	4370.54
709.424	4313.19
709.612	4440.17
709.8	4261.99
709.988	4307.05
710.176	4415.59
710.364	4257.9
710.551	4376.68
710.739	4305
710.927	4194.41
711.115	4319.34
711.303	4589.67
711.491	4356.2
711.679	4288.62
711.866	4339.82
712.054	4429.93
712.242	4317.29
712.43	4352.1
712.617	4491.37
712.805	4335.72
712.993	4339.82
713.181	4345.96
713.368	4495.46
713.556	4456.55
713.744	4372.58
713.931	4604
714.119	4300.91
714.306	4364.39
714.494	4413.54
714.682	4321.38
714.869	4259.95
715.057	4268.14
715.244	4317.29
715.432	4472.93
715.619	4405.35
715.807	4356.2
715.994	4485.22
716.182	4419.69
716.369	4442.21
716.556	4348.01
716.744	4284.52
716.931	4331.62
717.119	4520.04
717.306	4462.69
717.493	4495.46
717.681	4397.16
717.868	4515.94
718.055	4481.13
718.242	4382.82
718.43	4397.16
718.617	4536.42
718.804	4419.69
718.991	4421.74
719.179	4470.89
719.366	4474.98
719.553	4415.59
719.74	4446.31
719.927	4499.56
720.114	4382.82
720.301	4491.37
720.488	4319.34
720.676	4399.21
720.863	4454.5
721.05	4640.87
721.237	4358.25
721.424	4522.09
721.611	4391.02
721.798	4388.97
721.985	4454.5
722.172	4444.26
722.358	4300.91
722.545	4401.26
722.732	4395.11
722.919	4427.88
723.106	4479.08
723.293	4528.23
723.48	4438.12
723.667	4413.54
723.853	4470.89
724.04	4497.51
724.227	4497.51
724.414	4339.82
724.6	4507.75
724.787	4511.85
724.974	4589.67
725.161	4374.63
725.347	4243.56
725.534	4374.63
725.72	4542.57
725.907	4477.03
726.094	4431.98
726.28	4382.82
726.467	4339.82
726.653	4489.32
726.84	4571.24
727.027	4528.23
727.213	4538.47
727.4	4550.76
727.586	4452.45
727.773	4376.68
727.959	4511.85
728.145	4546.66
728.332	4431.98
728.518	4452.45
728.705	4364.39
728.891	4589.67
729.077	4462.69
729.264	4444.26
729.45	4331.62
729.636	4614.24
729.823	4474.98
730.009	4491.37
730.195	4499.56
730.382	4464.74
730.568	4481.13
730.754	4440.17
730.94	4577.38
731.126	4493.41
731.313	4464.74
731.499	4493.41
731.685	4425.83
731.871	4513.89
732.057	4407.4
732.243	4575.33
732.429	4401.26
732.615	4548.71
732.801	4479.08
732.987	4429.93
733.173	4460.65
733.359	4462.69
733.545	4477.03
733.731	4466.79
733.917	4479.08
734.103	4446.31
734.289	4466.79
734.475	4348.01
734.661	4470.89
734.847	4470.89
735.033	4497.51
735.219	4552.81
735.404	4339.82
735.59	4327.53
735.776	4456.55
735.962	4520.04
736.148	4456.55
736.333	4456.55
736.519	4348.01
736.705	4466.79
736.89	4237.42
737.076	4352.1
737.262	4243.56
737.447	4323.43
737.633	4225.13
737.819	4266.09
738.004	4249.71
738.19	4311.14
738.375	4194.41
738.561	4452.45
738.747	4325.48
738.932	4192.36
739.118	4313.19
739.303	4302.95
739.489	4364.39
739.674	4362.34
739.859	4186.22
740.045	4241.51
740.23	4202.6
740.416	4073.58
740.601	4237.42
740.786	4274.28
740.972	3995.76
741.157	4155.5
741.342	4051.05
741.528	3989.61
741.713	3995.76
741.898	4059.24
742.084	4135.02
742.269	4167.79
742.454	4132.97
742.639	4079.72
742.824	4118.64
743.01	4089.96
743.195	4184.17
743.38	4077.68
743.565	3956.85
743.75	4089.96
743.935	4079.72
744.12	4063.34
744.305	3891.31
744.49	3846.26
744.675	3817.58
744.86	3872.88
745.045	3965.04
745.23	3999.85
745.415	3856.5
745.6	3784.82
745.785	3901.55
745.97	3872.88
746.155	3795.06
746.34	3807.34
746.525	3758.19
746.71	3823.73
746.895	3670.13
747.079	3520.63
747.264	3663.99
747.449	3682.42
747.634	3612.79
747.819	3518.58
748.003	3549.3
748.188	3485.81
748.373	3448.95
748.557	3543.16
748.742	3455.09
748.927	3381.37
749.111	3401.85
749.296	3285.11
749.481	3391.61
749.665	3373.18
749.85	3356.79
750.034	3420.28
750.219	3242.11
750.404	3209.34
750.588	3213.43
750.773	2996.35
750.957	3268.73
751.141	3229.82
751.326	3278.97
751.51	3065.98
751.695	3151.99
751.879	3012.73
752.064	3049.6
752.248	3102.84
752.432	2967.68
752.617	3014.78
752.801	3096.7
752.985	3045.5
753.17	2875.52
753.354	3039.36
753.538	2889.85
753.722	2871.42
753.907	2834.56
754.091	2846.85
754.275	2881.66
754.459	2889.85
754.643	2826.37
754.828	2816.13
755.012	2726.02
755.196	2670.72
755.38	2646.15
755.564	2662.53
755.748	2715.78
755.932	2758.78
756.116	2687.11
756.3	2674.82
756.484	2695.3
756.668	2588.8
756.852	2398.34
757.036	2549.89
757.22	2455.69
757.404	2445.45
757.588	2451.59
757.772	2519.17
757.956	2519.17
758.14	2560.13
758.323	2281.61
758.507	2439.3
758.691	2277.51
758.875	2422.92
759.059	2338.95
759.242	2392.2
759.426	2271.37
759.61	2185.35
759.794	2283.66
759.977	2343.05
760.161	2261.13
760.345	2310.28
760.528	2160.78
760.712	2228.36
760.895	2248.84
761.079	2199.69
761.263	2168.97
761.446	2142.35
761.63	2164.87
761.813	2162.83
761.997	2168.97
762.18	2148.49
762.364	1949.84
762.547	1929.36
762.731	2107.53
762.914	1974.41
763.098	1908.88
763.281	2044.04
763.464	2062.48
763.648	2064.52
763.831	2056.33
764.015	1890.45
764.198	1964.17
764.381	2095.24
764.564	1941.65
764.748	1949.84
764.931	2023.56
765.114	1882.25
765.297	2029.71
765.481	1849.49
765.664	1900.69
765.847	1908.88
766.03	1892.49
766.213	1845.39
766.397	1908.88
766.58	1796.24
766.763	1816.72
766.946	1810.58
767.129	1749.14
767.312	1689.74
767.495	1818.77
767.678	1763.47
767.861	1804.43
768.044	1747.09
768.227	1714.32
768.41	1695.89
768.593	1829.01
768.776	1724.56
768.959	1783.95
769.142	1671.31
769.324	1697.94
769.507	1749.14
769.69	1708.18
769.873	1714.32
770.056	1829.01
770.239	1699.98
770.421	1685.65
770.604	1640.59
770.787	1593.49
770.97	1591.44
771.152	1636.5
771.335	1693.84
771.518	1708.18
771.7	1679.51
771.883	1632.4
772.066	1527.96
772.248	1550.48
772.431	1607.83
772.613	1575.06
772.796	1501.33
772.978	1540.24
773.161	1460.37
773.343	1484.95
773.526	1540.24
773.708	1505.43
773.891	1464.47
774.073	1499.28
774.256	1478.8
774.438	1448.08
774.621	1351.83
774.803	1458.32
774.985	1343.64
775.168	1392.79
775.35	1409.17
775.532	1458.32
775.715	1333.4
775.897	1335.45
776.079	1319.06
776.261	1384.6
776.444	1271.96
776.626	1374.36
776.808	1380.5
776.99	1241.24
777.173	1292.44
777.355	1306.77
777.537	1261.72
777.719	1269.91
777.901	1210.52
778.083	1218.71
778.265	1120.41
778.447	1202.33
778.629	1147.03
778.811	1257.62
778.993	1181.85
779.175	1196.18
779.357	1122.46
779.539	1056.92
779.721	1073.31
779.903	1173.66
780.085	1101.98
780.267	1120.41
780.449	1130.65
780.631	1052.83
780.812	1171.61
780.994	1065.11
781.176	1128.6
781.358	1030.3
781.54	995.48
781.721	1161.37
781.903	1073.31
782.085	975
782.267	1071.26
782.448	981.15
782.63	1054.87
782.812	1007.77
782.993	989.34
783.175	989.34
783.357	925.85
783.538	975
783.72	1001.63
783.901	981.15
784.083	923.8
784.264	915.61
784.446	913.56
784.627	807.07
784.809	942.24
784.99	884.89
785.172	864.41
785.353	891.04
785.535	796.83
785.716	813.21
785.897	794.78
786.079	876.7
786.26	827.55
786.441	829.6
786.623	772.25
786.804	809.12
786.985	714.91
787.167	833.69
787.348	805.02
787.529	712.86
787.71	868.51
787.891	827.55
788.073	835.74
788.254	762.02
788.435	770.21
788.616	723.1
788.797	780.45
788.978	716.96
789.159	796.83
789.34	784.54
789.522	671.9
789.703	639.14
789.884	706.72
790.065	606.37
790.246	762.02
790.427	608.42
790.607	759.97
790.788	688.29
790.969	710.82
791.15	706.72
791.331	628.9
791.512	645.28
791.693	555.17
791.874	694.43
792.054	710.82
792.235	655.52
792.416	608.42
792.597	551.07
792.778	688.29
792.958	641.18
793.139	630.95
793.32	493.73
793.5	622.75
793.681	581.79
793.862	614.56
794.042	581.79
794.223	602.27
794.404	553.12
794.584	473.25
794.765	589.99
794.945	555.17
795.126	606.37
795.306	596.13
795.487	506.02
795.667	592.03
795.848	583.84
796.028	540.83
796.209	538.79
796.389	563.36
796.57	553.12
796.75	587.94
796.93	481.44
797.111	448.68
797.291	557.22
797.471	546.98
797.652	489.64
797.832	442.53
798.012	546.98
798.192	530.59
798.373	438.44
798.553	465.06
798.733	485.54
798.913	428.2
799.093	546.98
799.274	385.19
799.454	514.21
799.634	456.87
799.814	497.83
799.994	430.24
800.174	485.54
800.354	497.83
800.534	389.28
800.714	397.48
800.894	458.92
801.074	393.38
801.254	424.1
801.434	506.02
801.614	397.48
801.794	407.72
801.974	1349.78
802.154	436.39
802.334	465.06
802.514	395.43
802.693	387.24
802.873	346.28
803.053	538.79
803.233	450.72
803.413	491.68
803.592	409.76
803.772	440.48
803.952	407.72
804.131	413.86
804.311	420
804.491	391.33
804.67	393.38
804.85	354.47
805.03	397.48
805.209	395.43
805.389	340.13
805.568	290.98
805.748	440.48
805.928	270.5
806.107	454.82
806.287	407.72
806.466	338.09
806.646	315.56
806.825	411.81
807.004	362.66
807.184	325.8
807.363	317.61
807.543	333.99
807.722	276.65
807.901	422.05
808.081	389.28
808.26	262.31
808.439	377
808.619	321.7
808.798	301.22
808.977	352.42
809.156	342.18
809.336	329.89
809.515	350.37
809.694	262.31
809.873	370.85
810.052	358.57
810.231	309.41
810.411	346.28
810.59	377
810.769	340.13
810.948	321.7
811.127	252.07
811.306	319.65
811.485	262.31
811.664	399.52
811.843	233.64
812.022	342.18
812.201	301.22
812.38	299.17
812.559	141.48
812.737	372.9
812.916	264.36
813.095	239.78
813.274	256.17
813.453	333.99
813.632	309.41
813.811	295.08
813.989	260.26
814.168	245.93
814.347	231.59
814.526	278.69
814.704	282.79
814.883	309.41
815.062	215.21
815.24	264.36
815.419	239.78
815.598	172.2
815.776	293.03
815.955	303.27
816.133	112.81
816.312	235.69
816.49	262.31
816.669	268.45
816.847	239.78
817.026	268.45
817.204	264.36
817.383	186.54
817.561	174.25
817.74	274.6
817.918	202.92
818.097	282.79
818.275	184.49
818.453	270.5
818.632	286.89
818.81	223.4
818.988	262.31
819.167	213.16
819.345	209.06
819.523	207.02
819.701	231.59
819.879	209.06
820.058	237.74
820.236	219.3
820.414	118.95
820.592	260.26
820.77	198.82
820.948	159.91
821.127	213.16
821.305	239.78
821.483	200.87
821.661	241.83
821.839	286.89
822.017	170.15
822.195	202.92
822.373	227.5
822.551	252.07
822.729	270.5
822.907	135.34
823.085	157.86
823.262	190.63
823.44	225.45
823.618	194.73
823.796	202.92
823.974	178.34
824.152	190.63
824.329	202.92
824.507	315.56
824.685	200.87
824.863	202.92
825.04	172.2
825.218	213.16
825.396	198.82
825.574	151.72
825.751	209.06
825.929	245.93
826.107	116.9
826.284	143.53
826.462	223.4
826.639	178.34
826.817	172.2
826.994	172.2
827.172	153.77
827.349	147.62
827.527	182.44
827.704	241.83
827.882	219.3
828.059	161.96
828.237	137.38
828.414	243.88
828.591	159.91
828.769	180.39
828.946	82.09
829.124	213.16
829.301	188.58
829.478	141.48
829.655	151.72
829.833	151.72
830.01	41.13
830.187	123.05
830.364	112.81
830.542	90.28
830.719	219.3
830.896	141.48
831.073	186.54
831.25	155.82
831.427	131.24
831.604	155.82
831.782	88.23
831.959	166.06
832.136	30.89
832.313	166.06
832.49	116.9
832.667	153.77
832.844	153.77
833.021	98.47
833.198	116.9
833.374	161.96
833.551	137.38
833.728	174.25
833.905	121
834.082	77.99
834.259	143.53
834.436	227.5
834.612	176.3
834.789	96.43
834.966	88.23
835.143	135.34
835.319	41.13
835.496	106.67
835.673	166.06
835.85	145.58
836.026	116.9
836.203	71.85
836.38	32.94
836.556	161.96
836.733	57.51
836.909	186.54
837.086	100.52
837.262	110.76
837.439	112.81
837.616	106.67
837.792	110.76
837.968	121
838.145	65.71
838.321	57.51
838.498	125.1
838.674	114.86
838.851	143.53
839.027	45.23
839.203	155.82
839.38	147.62
839.556	110.76
839.732	112.81
839.909	116.9
840.085	125.1
840.261	121
840.437	137.38
840.614	151.72
840.79	94.38
840.966	164.01
841.142	149.67
841.318	77.99
841.494	161.96
841.671	121
841.847	0.17
842.023	82.09
842.199	69.8
842.375	96.43
842.551	41.13
842.727	8.36
842.903	170.15
843.079	55.47
843.255	196.78
843.431	30.89
843.607	145.58
843.783	-10.07
843.959	47.27
844.134	65.71
844.31	84.14
844.486	-14.17
844.662	137.38
844.838	82.09
845.013	118.95
845.189	71.85
845.365	84.14
845.541	96.43
845.716	108.71
845.892	102.57
846.068	75.95
846.244	114.86
846.419	61.61
846.595	53.42
846.77	26.79
846.946	127.14
847.122	-1.88
847.297	47.27
847.473	170.15
847.648	102.57
847.824	90.28
847.999	51.37
848.175	75.95
848.35	90.28
848.526	108.71
848.701	88.23
848.876	77.99
849.052	112.81
849.227	112.81
849.403	77.99
849.578	88.23
849.753	6.31
849.929	110.76
850.104	12.46
850.279	71.85
850.454	98.47
850.63	133.29
850.805	92.33
850.98	92.33
851.155	92.33
851.33	98.47
851.505	2.22
851.681	47.27
851.856	75.95
852.031	104.62
852.206	114.86
852.381	39.08
852.556	61.61
852.731	43.18
852.906	55.47
853.081	-20.31
853.256	63.66
853.431	73.9
853.606	121
853.781	123.05
853.956	-38.74
854.131	26.79
854.305	8.36
854.48	63.66
854.655	-3.93
854.83	63.66
855.005	-8.02
855.18	71.85
855.354	-28.5
855.529	147.62
855.704	88.23
855.879	55.47
856.053	-63.32
856.228	45.23
856.403	4.27
856.577	100.52
856.752	71.85
856.926	45.23
857.101	30.89
857.276	26.79
857.45	61.61
857.625	67.75
857.799	37.03
857.974	100.52
858.148	22.7
858.323	2.22
858.497	88.23
858.672	26.79
858.846	-12.12
859.02	65.71
859.195	63.66
859.369	39.08
859.543	84.14
859.718	98.47
859.892	82.09
860.066	55.47
860.241	-36.69
860.415	39.08
860.589	10.41
860.763	14.51
860.938	53.42
861.112	-3.93
861.286	43.18
861.46	67.75
861.634	55.47
861.808	127.14
861.982	-3.93
862.157	71.85
862.331	12.46
862.505	6.31
862.679	6.31
862.853	57.51
863.027	43.18
863.201	123.05
863.375	-61.27
863.549	63.66
863.722	26.79
863.896	125.1
864.07	-38.74
864.244	71.85
864.418	39.08
864.592	80.04
864.766	20.65
864.939	55.47
865.113	90.28
865.287	86.19
865.461	-26.45
865.634	71.85
865.808	55.47
865.982	41.13
866.156	-34.64
866.329	0.17
866.503	-10.07
866.676	88.23
866.85	47.27
867.024	-12.12
867.197	6.31
867.371	96.43
867.544	55.47
867.718	-28.5
867.891	82.09
868.065	-34.64
868.238	55.47
868.412	-24.4
868.585	12.46
868.759	88.23
868.932	4.27
869.105	6.31
869.279	71.85
869.452	14.51
869.625	100.52
869.799	104.62
869.972	2.22
870.145	63.66
870.319	47.27
870.492	30.89
870.665	-20.31
870.838	-26.45
871.011	2.22
871.185	63.66
871.358	-46.93
871.531	104.62
871.704	6.31
871.877	65.71
872.05	-67.41
872.223	-1.88
872.396	94.38
872.569	22.7
872.742	-1.88
872.915	24.75
873.088	41.13
873.261	14.51
873.434	80.04
873.607	88.23
873.78	41.13
873.953	-26.45
874.126	59.56
874.299	43.18
874.471	-48.98
874.644	-22.36
874.817	114.86
874.99	129.19
875.163	-10.07
875.335	43.18
875.508	2.22
875.681	73.9
875.853	-8.02
876.026	-32.6
876.199	59.56
876.371	-10.07
876.544	2.22
876.717	65.71
876.889	41.13
877.062	63.66
877.234	-26.45
877.407	22.7
877.579	0.17
877.752	16.55
877.924	2.22
878.097	37.03
878.269	4.27
878.442	32.94
878.614	10.41
878.786	14.51
878.959	-1.88
879.131	32.94
879.303	-10.07
879.476	-28.5
879.648	4.27
879.82	30.89
879.993	-28.5
880.165	8.36
880.337	-12.12
880.509	22.7
880.681	-24.4
880.854	2.22
881.026	34.99
881.198	82.09
881.37	-1.88
881.542	73.9
881.714	2.22
881.886	-32.6
882.058	4.27
882.23	6.31
882.402	-28.5
882.574	49.32
882.746	-36.69
882.918	65.71
883.09	32.94
883.262	-32.6
883.434	-32.6
883.606	-36.69
883.778	55.47
883.95	8.36
884.122	49.32
884.293	59.56
884.465	-32.6
884.637	39.08
884.809	28.84
884.98	-12.12
885.152	112.81
885.324	88.23
885.496	-18.26
885.667	-26.45
885.839	-63.32
886.011	16.55
886.182	59.56
886.354	75.95
886.525	12.46
886.697	-1.88
886.869	-46.93
887.04	4.27
887.212	114.86
887.383	145.58
887.555	14.51
887.726	-10.07
887.897	-1.88
888.069	-1.88
888.24	30.89
888.412	45.23
888.583	0.17
888.754	-36.69
888.926	-34.64
889.097	59.56
889.268	-36.69
889.44	55.47
889.611	37.03
889.782	-24.4
889.953	-30.55
890.125	47.27
890.296	-18.26
890.467	-16.21
890.638	16.55
890.809	-36.69
890.98	-22.36
891.151	-34.64
891.323	-5.97
891.494	6.31
891.665	77.99
891.836	-8.02
892.007	37.03
892.178	30.89
892.349	71.85
892.52	-22.36
892.691	24.75
892.862	-1.88
893.032	-28.5
893.203	-8.02
893.374	65.71
893.545	100.52
893.716	45.23
893.887	88.23
894.057	-42.84
894.228	34.99
894.399	-42.84
894.57	59.56
894.74	-36.69
894.911	47.27
895.082	51.37
895.253	0.17
895.423	-18.26
895.594	28.84
895.764	86.19
895.935	-30.55
896.106	8.36
896.276	30.89
896.447	32.94
896.617	28.84
896.788	-5.97
896.958	-3.93
897.129	-1.88
897.299	-5.97
897.47	63.66
897.64	53.42
897.81	12.46
897.981	47.27
898.151	-55.12
898.322	0.17
898.492	-20.31
898.662	-34.64
898.832	-63.32
899.003	-63.32
899.173	69.8
899.343	2.22
899.513	24.75
