Data from USB4F104151__50__13-05-33-283.txt Node

Date: Fri Mar 14 13:05:33 EDT 2025
User: louis
Spectrometer: USB4F10415
Trigger mode: 4
Integration Time (sec): 4.000000E-2
Scans to average: 1
Electric dark correction enabled: true
Nonlinearity correction enabled: false
Boxcar width: 0
XAxis mode: Wavelengths
Number of Pixels in Spectrum: 3648
>>>>>Begin Spectral Data<<<<<
178.204	-235.86
178.424	-235.86
178.644	-235.86
178.864	-209.23
179.084	-182.61
179.304	-51.54
179.524	5.8
179.744	7.85
179.964	20.14
180.184	61.1
180.404	40.62
180.624	-55.64
180.844	30.38
181.064	-16.73
181.283	44.71
181.503	-82.26
181.723	-4.44
181.943	-74.07
182.163	102.06
182.383	-12.63
182.602	48.81
182.822	26.28
183.042	71.34
183.262	-57.68
183.482	9.9
183.701	-20.82
183.921	5.8
184.141	20.14
184.361	91.82
184.58	50.86
184.8	61.1
185.02	-14.68
185.239	69.29
185.459	95.91
185.679	3.75
185.898	-65.88
186.118	-6.49
186.338	32.43
186.557	59.05
186.777	38.57
186.997	5.8
187.216	124.58
187.436	114.34
187.655	30.38
187.875	89.77
188.095	38.57
188.314	79.53
188.534	106.15
188.753	20.14
188.973	48.81
189.192	97.96
189.412	61.1
189.631	24.23
189.851	11.95
190.07	83.63
190.29	-31.06
190.509	-18.77
190.729	-14.68
190.948	71.34
191.168	171.69
191.387	48.81
191.607	-84.31
191.826	11.95
192.045	42.67
192.265	18.09
192.484	-18.77
192.704	1.71
192.923	-31.06
193.142	126.63
193.362	36.52
193.581	81.58
193.8	13.99
194.02	151.21
194.239	-14.68
194.458	-8.53
194.678	34.47
194.897	-31.06
195.116	-22.87
195.335	63.15
195.555	-26.96
195.774	65.19
195.993	104.11
196.212	26.28
196.432	7.85
196.651	-104.79
196.87	-37.2
197.089	157.35
197.308	26.28
197.528	-33.11
197.747	-16.73
197.966	28.33
198.185	75.43
198.404	69.29
198.623	75.43
198.842	46.76
199.062	114.34
199.281	59.05
199.5	87.72
199.719	61.1
199.938	50.86
200.157	54.95
200.376	-14.68
200.595	106.15
200.814	-2.39
201.033	61.1
201.252	16.04
201.471	42.67
201.69	48.81
201.909	30.38
202.128	40.62
202.347	7.85
202.566	57
202.785	-6.49
203.004	-2.39
203.223	57
203.442	18.09
203.661	-37.2
203.879	59.05
204.098	48.81
204.317	-4.44
204.536	48.81
204.755	73.39
204.974	159.4
205.193	50.86
205.411	73.39
205.63	36.52
205.849	36.52
206.068	22.19
206.287	-18.77
206.505	1.71
206.724	40.62
206.943	16.04
207.162	65.19
207.381	24.23
207.599	-20.82
207.818	57
208.037	1.71
208.255	40.62
208.474	71.34
208.693	57
208.911	-12.63
209.13	95.91
209.349	52.91
209.567	-0.34
209.786	1.71
210.005	-16.73
210.223	126.63
210.442	-31.06
210.661	79.53
210.879	34.47
211.098	87.72
211.316	67.24
211.535	48.81
211.753	7.85
211.972	16.04
212.191	-14.68
212.409	40.62
212.628	73.39
212.846	-6.49
213.065	89.77
213.283	85.67
213.502	-8.53
213.72	81.58
213.938	93.87
214.157	38.57
214.375	28.33
214.594	83.63
214.812	69.29
215.031	38.57
215.249	42.67
215.467	3.75
215.686	9.9
215.904	9.9
216.122	1.71
216.341	93.87
216.559	85.67
216.778	18.09
216.996	54.95
217.214	44.71
217.432	26.28
217.651	-14.68
217.869	7.85
218.087	3.75
218.306	-29.01
218.524	11.95
218.742	11.95
218.96	36.52
219.179	-4.44
219.397	13.99
219.615	120.49
219.833	67.24
220.051	-4.44
220.27	91.82
220.488	69.29
220.706	44.71
220.924	-12.63
221.142	-49.49
221.36	7.85
221.578	91.82
221.796	32.43
222.015	-0.34
222.233	48.81
222.451	114.34
222.669	40.62
222.887	83.63
223.105	-33.11
223.323	-4.44
223.541	5.8
223.759	89.77
223.977	81.58
224.195	57
224.413	69.29
224.631	44.71
224.849	79.53
225.067	122.54
225.285	13.99
225.503	52.91
225.721	-43.35
225.939	32.43
226.157	59.05
226.375	151.21
226.592	87.72
226.81	48.81
227.028	89.77
227.246	67.24
227.464	34.47
227.682	-31.06
227.9	22.19
228.117	106.15
228.335	102.06
228.553	16.04
228.771	34.47
228.989	79.53
229.206	9.9
229.424	42.67
229.642	20.14
229.86	-26.96
230.077	9.9
230.295	61.1
230.513	61.1
230.731	26.28
230.948	63.15
231.166	102.06
231.384	44.71
231.601	-2.39
231.819	61.1
232.037	-31.06
232.254	26.28
232.472	5.8
232.689	-80.21
232.907	30.38
233.125	81.58
233.342	-72.02
233.56	57
233.777	-33.11
233.995	50.86
234.213	65.19
234.43	-18.77
234.648	38.57
234.865	-12.63
235.083	18.09
235.3	16.04
235.518	67.24
235.735	130.73
235.953	7.85
236.17	48.81
236.388	30.38
236.605	40.62
236.822	114.34
237.04	71.34
237.257	32.43
237.475	-12.63
237.692	3.75
237.909	18.09
238.127	-6.49
238.344	30.38
238.562	40.62
238.779	7.85
238.996	48.81
239.214	7.85
239.431	116.39
239.648	13.99
239.865	36.52
240.083	91.82
240.3	83.63
240.517	34.47
240.735	36.52
240.952	132.78
241.169	36.52
241.386	87.72
241.603	-8.53
241.821	52.91
242.038	20.14
242.255	18.09
242.472	-35.16
242.689	52.91
242.907	40.62
243.124	-35.16
243.341	22.19
243.558	28.33
243.775	-16.73
243.992	-53.59
244.209	89.77
244.426	132.78
244.643	30.38
244.86	36.52
245.078	40.62
245.295	-14.68
245.512	50.86
245.729	-4.44
245.946	57
246.163	30.38
246.38	1.71
246.597	-0.34
246.814	61.1
247.031	-6.49
247.248	40.62
247.464	130.73
247.681	65.19
247.898	-8.53
248.115	1.71
248.332	-4.44
248.549	61.1
248.766	153.26
248.983	46.76
249.2	-35.16
249.417	85.67
249.633	-4.44
249.85	28.33
250.067	52.91
250.284	26.28
250.501	89.77
250.717	67.24
250.934	-8.53
251.151	44.71
251.368	38.57
251.585	149.16
251.801	26.28
252.018	-24.92
252.235	-39.25
252.451	59.05
252.668	48.81
252.885	13.99
253.102	32.43
253.318	16.04
253.535	11.95
253.752	1.71
253.968	5.8
254.185	-78.16
254.401	46.76
254.618	77.48
254.835	7.85
255.051	116.39
255.268	46.76
255.484	52.91
255.701	16.04
255.917	-33.11
256.134	-24.92
256.351	75.43
256.567	9.9
256.784	20.14
257	36.52
257.217	73.39
257.433	132.78
257.65	57
257.866	106.15
258.082	-6.49
258.299	18.09
258.515	28.33
258.732	-24.92
258.948	28.33
259.165	108.2
259.381	7.85
259.597	71.34
259.814	61.1
260.03	65.19
260.246	16.04
260.463	87.72
260.679	65.19
260.895	7.85
261.112	83.63
261.328	13.99
261.544	-74.07
261.761	100.01
261.977	18.09
262.193	36.52
262.409	89.77
262.626	16.04
262.842	36.52
263.058	42.67
263.274	20.14
263.49	91.82
263.707	106.15
263.923	18.09
264.139	-0.34
264.355	46.76
264.571	83.63
264.787	9.9
265.004	59.05
265.22	9.9
265.436	48.81
265.652	34.47
265.868	44.71
266.084	18.09
266.3	40.62
266.516	34.47
266.732	65.19
266.948	67.24
267.164	73.39
267.38	73.39
267.596	61.1
267.812	122.54
268.028	52.91
268.244	7.85
268.46	11.95
268.676	-8.53
268.892	-2.39
269.108	24.23
269.324	83.63
269.54	-45.4
269.756	79.53
269.972	-29.01
270.188	106.15
270.403	-31.06
270.619	116.39
270.835	-6.49
271.051	-4.44
271.267	34.47
271.483	83.63
271.698	48.81
271.914	50.86
272.13	30.38
272.346	42.67
272.562	-10.58
272.777	118.44
272.993	50.86
273.209	16.04
273.425	28.33
273.64	22.19
273.856	85.67
274.072	44.71
274.287	-53.59
274.503	18.09
274.719	32.43
274.934	-14.68
275.15	1.71
275.366	22.19
275.581	9.9
275.797	13.99
276.012	81.58
276.228	7.85
276.444	16.04
276.659	69.29
276.875	-4.44
277.09	-49.49
277.306	61.1
277.521	73.39
277.737	83.63
277.952	65.19
278.168	22.19
278.383	28.33
278.599	52.91
278.814	65.19
279.03	59.05
279.245	104.11
279.461	42.67
279.676	106.15
279.892	-22.87
280.107	42.67
280.322	52.91
280.538	46.76
280.753	-69.97
280.969	73.39
281.184	22.19
281.399	108.2
281.615	48.81
281.83	20.14
282.045	3.75
282.26	-49.49
282.476	-12.63
282.691	48.81
282.906	40.62
283.122	67.24
283.337	22.19
283.552	83.63
283.767	40.62
283.983	16.04
284.198	73.39
284.413	3.75
284.628	-8.53
284.843	38.57
285.058	108.2
285.274	34.47
285.489	1.71
285.704	9.9
285.919	-0.34
286.134	79.53
286.349	75.43
286.564	48.81
286.779	34.47
286.995	16.04
287.21	-43.35
287.425	85.67
287.64	93.87
287.855	63.15
288.07	13.99
288.285	69.29
288.5	81.58
288.715	100.01
288.93	16.04
289.145	-14.68
289.36	85.67
289.575	1.71
289.79	116.39
290.004	22.19
290.219	73.39
290.434	-82.26
290.649	34.47
290.864	110.25
291.079	-12.63
291.294	50.86
291.509	22.19
291.724	-6.49
291.938	3.75
292.153	50.86
292.368	26.28
292.583	34.47
292.798	1.71
293.012	73.39
293.227	13.99
293.442	28.33
293.657	95.91
293.871	108.2
294.086	-0.34
294.301	28.33
294.516	75.43
294.73	54.95
294.945	22.19
295.16	44.71
295.374	85.67
295.589	106.15
295.804	-10.58
296.018	32.43
296.233	159.4
296.447	34.47
296.662	3.75
296.877	81.58
297.091	104.11
297.306	20.14
297.52	63.15
297.735	63.15
297.949	71.34
298.164	40.62
298.378	32.43
298.593	7.85
298.807	-53.59
299.022	32.43
299.236	46.76
299.451	-8.53
299.665	32.43
299.88	65.19
300.094	85.67
300.309	71.34
300.523	-57.68
300.737	22.19
300.952	93.87
301.166	-8.53
301.381	24.23
301.595	-22.87
301.809	7.85
302.024	48.81
302.238	-22.87
302.452	65.19
302.667	-0.34
302.881	100.01
303.095	34.47
303.309	83.63
303.524	-10.58
303.738	11.95
303.952	7.85
304.166	42.67
304.381	-45.4
304.595	42.67
304.809	42.67
305.023	16.04
305.237	46.76
305.452	34.47
305.666	61.1
305.88	97.96
306.094	79.53
306.308	48.81
306.522	54.95
306.736	83.63
306.95	116.39
307.164	22.19
307.379	16.04
307.593	100.01
307.807	50.86
308.021	112.3
308.235	52.91
308.449	-29.01
308.663	73.39
308.877	75.43
309.091	34.47
309.305	50.86
309.519	-31.06
309.733	11.95
309.947	-67.92
310.161	40.62
310.374	59.05
310.588	110.25
310.802	-6.49
311.016	63.15
311.23	52.91
311.444	-4.44
311.658	38.57
311.872	100.01
312.085	104.11
312.299	95.91
312.513	157.35
312.727	46.76
312.941	-96.6
313.154	69.29
313.368	112.3
313.582	69.29
313.796	-55.64
314.009	32.43
314.223	-2.39
314.437	9.9
314.651	40.62
314.864	-63.83
315.078	-26.96
315.292	7.85
315.505	69.29
315.719	50.86
315.933	52.91
316.146	104.11
316.36	13.99
316.573	-31.06
316.787	28.33
317.001	110.25
317.214	40.62
317.428	-33.11
317.641	-51.54
317.855	-8.53
318.068	11.95
318.282	93.87
318.495	75.43
318.709	57
318.922	65.19
319.136	67.24
319.349	120.49
319.563	59.05
319.776	22.19
319.99	1.71
320.203	83.63
320.417	50.86
320.63	52.91
320.843	77.48
321.057	-16.73
321.27	57
321.483	-0.34
321.697	143.02
321.91	77.48
322.124	-49.49
322.337	136.87
322.55	32.43
322.763	75.43
322.977	48.81
323.19	54.95
323.403	-24.92
323.617	22.19
323.83	24.23
324.043	28.33
324.256	18.09
324.469	44.71
324.683	138.92
324.896	-12.63
325.109	57
325.322	3.75
325.535	106.15
325.748	52.91
325.962	57
326.175	-29.01
326.388	1.71
326.601	83.63
326.814	32.43
327.027	20.14
327.24	63.15
327.453	-12.63
327.666	114.34
327.879	69.29
328.092	116.39
328.305	93.87
328.518	30.38
328.731	5.8
328.944	18.09
329.157	40.62
329.37	50.86
329.583	91.82
329.796	93.87
330.009	9.9
330.222	18.09
330.435	77.48
330.648	97.96
330.861	34.47
331.073	32.43
331.286	61.1
331.499	-20.82
331.712	7.85
331.925	50.86
332.138	-16.73
332.35	138.92
332.563	30.38
332.776	73.39
332.989	69.29
333.202	20.14
333.414	24.23
333.627	46.76
333.84	32.43
334.053	69.29
334.265	28.33
334.478	11.95
334.691	26.28
334.903	-8.53
335.116	87.72
335.329	32.43
335.541	-0.34
335.754	97.96
335.966	-4.44
336.179	40.62
336.392	48.81
336.604	22.19
336.817	87.72
337.029	-14.68
337.242	-12.63
337.454	83.63
337.667	75.43
337.88	46.76
338.092	24.23
338.305	100.01
338.517	1.71
338.729	50.86
338.942	77.48
339.154	3.75
339.367	-14.68
339.579	59.05
339.792	36.52
340.004	67.24
340.217	36.52
340.429	52.91
340.641	16.04
340.854	28.33
341.066	20.14
341.278	30.38
341.491	126.63
341.703	67.24
341.915	-16.73
342.128	116.39
342.34	48.81
342.552	-39.25
342.764	1.71
342.977	-0.34
343.189	32.43
343.401	54.95
343.613	-65.88
343.826	106.15
344.038	-16.73
344.25	69.29
344.462	1.71
344.674	167.59
344.886	44.71
345.099	102.06
345.311	93.87
345.523	34.47
345.735	-29.01
345.947	-6.49
346.159	26.28
346.371	7.85
346.583	1.71
346.795	118.44
347.007	-78.16
347.219	24.23
347.431	-14.68
347.643	67.24
347.855	-22.87
348.067	87.72
348.279	-8.53
348.491	100.01
348.703	28.33
348.915	-4.44
349.127	24.23
349.339	57
349.551	-20.82
349.763	87.72
349.975	-43.35
350.187	24.23
350.399	97.96
350.61	5.8
350.822	48.81
351.034	46.76
351.246	30.38
351.458	-29.01
351.669	110.25
351.881	116.39
352.093	106.15
352.305	114.34
352.517	85.67
352.728	48.81
352.94	67.24
353.152	79.53
353.363	-24.92
353.575	48.81
353.787	91.82
353.999	57
354.21	89.77
354.422	-18.77
354.633	16.04
354.845	67.24
355.057	102.06
355.268	11.95
355.48	11.95
355.692	7.85
355.903	9.9
356.115	85.67
356.326	-0.34
356.538	20.14
356.749	48.81
356.961	75.43
357.172	-20.82
357.384	28.33
357.595	93.87
357.807	48.81
358.018	-45.4
358.23	73.39
358.441	54.95
358.653	16.04
358.864	-53.59
359.075	89.77
359.287	40.62
359.498	100.01
359.709	13.99
359.921	73.39
360.132	181.93
360.344	50.86
360.555	-0.34
360.766	9.9
360.977	40.62
361.189	149.16
361.4	-0.34
361.611	161.45
361.823	91.82
362.034	28.33
362.245	46.76
362.456	18.09
362.667	30.38
362.879	67.24
363.09	87.72
363.301	93.87
363.512	48.81
363.723	100.01
363.935	52.91
364.146	52.91
364.357	93.87
364.568	57
364.779	-18.77
364.99	145.06
365.201	-8.53
365.412	106.15
365.623	-51.54
365.834	65.19
366.045	9.9
366.256	108.2
366.467	50.86
366.678	24.23
366.889	46.76
367.1	91.82
367.311	106.15
367.522	18.09
367.733	126.63
367.944	26.28
368.155	67.24
368.366	147.11
368.577	83.63
368.788	81.58
368.999	87.72
369.209	79.53
369.42	126.63
369.631	52.91
369.842	46.76
370.053	32.43
370.264	67.24
370.474	11.95
370.685	112.3
370.896	65.19
371.107	75.43
371.317	44.71
371.528	73.39
371.739	77.48
371.95	46.76
372.16	114.34
372.371	-82.26
372.582	69.29
372.792	106.15
373.003	24.23
373.214	18.09
373.424	134.82
373.635	-20.82
373.846	140.97
374.056	40.62
374.267	204.46
374.477	73.39
374.688	46.76
374.898	42.67
375.109	116.39
375.319	46.76
375.53	138.92
375.74	118.44
375.951	-31.06
376.161	16.04
376.372	110.25
376.582	-10.58
376.793	26.28
377.003	67.24
377.214	-47.44
377.424	77.48
377.635	24.23
377.845	-6.49
378.055	52.91
378.266	24.23
378.476	28.33
378.686	-0.34
378.897	11.95
379.107	61.1
379.317	34.47
379.528	40.62
379.738	11.95
379.948	-74.07
380.158	104.11
380.369	91.82
380.579	155.3
380.789	42.67
380.999	73.39
381.21	97.96
381.42	196.26
381.63	81.58
381.84	116.39
382.05	24.23
382.261	89.77
382.471	114.34
382.681	67.24
382.891	194.22
383.101	48.81
383.311	-20.82
383.521	7.85
383.731	67.24
383.941	61.1
384.151	28.33
384.361	22.19
384.571	83.63
384.781	34.47
384.991	110.25
385.201	183.98
385.411	65.19
385.621	140.97
385.831	7.85
386.041	32.43
386.251	32.43
386.461	167.59
386.671	87.72
386.881	122.54
387.091	16.04
387.301	83.63
387.511	50.86
387.72	81.58
387.93	69.29
388.14	-24.92
388.35	114.34
388.56	165.54
388.769	190.12
388.979	81.58
389.189	59.05
389.399	59.05
389.609	79.53
389.818	50.86
390.028	69.29
390.238	97.96
390.447	18.09
390.657	81.58
390.867	20.14
391.076	13.99
391.286	91.82
391.496	30.38
391.705	52.91
391.915	122.54
392.125	63.15
392.334	136.87
392.544	79.53
392.753	73.39
392.963	52.91
393.172	32.43
393.382	-18.77
393.591	104.11
393.801	54.95
394.01	206.5
394.22	69.29
394.429	44.71
394.639	83.63
394.848	-8.53
395.058	18.09
395.267	89.77
395.477	85.67
395.686	-14.68
395.895	138.92
396.105	161.45
396.314	61.1
396.524	69.29
396.733	63.15
396.942	26.28
397.152	73.39
397.361	116.39
397.57	167.59
397.78	108.2
397.989	122.54
398.198	161.45
398.407	59.05
398.617	46.76
398.826	89.77
399.035	83.63
399.244	140.97
399.453	120.49
399.663	42.67
399.872	132.78
400.081	102.06
400.29	157.35
400.499	36.52
400.708	143.02
400.917	67.24
401.127	130.73
401.336	65.19
401.545	190.12
401.754	204.46
401.963	122.54
402.172	85.67
402.381	112.3
402.59	100.01
402.799	52.91
403.008	93.87
403.217	122.54
403.426	165.54
403.635	42.67
403.844	114.34
404.053	77.48
404.262	143.02
404.471	143.02
404.68	171.69
404.888	196.26
405.097	149.16
405.306	143.02
405.515	110.25
405.724	163.5
405.933	214.7
406.142	134.82
406.35	169.64
406.559	159.4
406.768	224.94
406.977	163.5
407.185	188.07
407.394	192.17
407.603	163.5
407.812	165.54
408.02	208.55
408.229	198.31
408.438	241.32
408.646	147.11
408.855	218.79
409.064	255.65
409.272	190.12
409.481	302.76
409.69	269.99
409.898	222.89
410.107	229.03
410.315	298.66
410.524	296.61
410.733	249.51
410.941	222.89
411.15	315.05
411.358	370.34
411.567	325.29
411.775	409.25
411.984	368.29
412.192	360.1
412.401	317.09
412.609	425.64
412.818	442.02
413.026	444.07
413.234	472.74
413.443	460.45
413.651	444.07
413.86	485.03
414.068	552.61
414.276	657.06
414.485	458.4
414.693	550.56
414.901	609.95
415.11	528.03
415.318	593.57
415.526	624.29
415.734	669.34
415.943	663.2
416.151	763.55
416.359	786.08
416.567	687.78
416.776	698.02
416.984	788.13
417.192	954.01
417.4	865.95
417.608	781.98
417.817	872.09
418.025	929.44
418.233	1033.88
418.441	917.15
418.649	884.38
418.857	1062.55
419.065	1158.81
419.273	1011.36
419.481	1097.37
419.689	1087.13
419.897	1185.43
420.105	1261.21
420.313	1306.26
420.521	1392.28
420.729	1369.75
420.937	1429.14
421.145	1363.61
421.353	1584.79
421.561	1539.73
421.769	1683.09
421.977	1748.62
422.185	1783.44
422.393	1875.6
422.601	1908.37
422.809	1891.98
423.017	2018.96
423.224	2109.07
423.432	2018.96
423.64	2109.07
423.848	2434.69
424.056	2313.86
424.263	2475.65
424.471	2463.37
424.679	2442.89
424.887	2543.24
425.094	2651.78
425.302	2637.44
425.51	2678.4
425.718	2805.38
425.925	2991.74
426.133	3012.22
426.341	3241.59
426.548	3358.33
426.756	3370.62
426.964	3378.81
427.171	3427.96
427.379	3688.05
427.586	3657.33
427.794	3761.78
428.001	3886.7
428.209	4009.58
428.417	3985.01
428.624	4431.46
428.832	4515.43
429.039	4497
429.247	4548.2
429.454	4859.49
429.662	5111.39
429.869	4861.54
430.076	5062.24
430.284	4890.21
430.491	5138.01
430.699	5385.82
430.906	5547.61
431.114	5545.56
431.321	5762.64
431.528	6002.26
431.736	6329.93
431.943	6524.49
432.15	6348.36
432.358	6567.49
432.565	6676.04
432.772	6874.69
432.979	6997.57
433.187	7241.28
433.394	7382.59
433.601	7603.77
433.808	7953.97
434.016	7798.32
434.223	8099.38
434.43	8599.08
434.637	8330.8
434.844	8963.62
435.052	9061.92
435.259	8977.95
435.466	9119.26
435.673	9074.21
435.88	9651.74
436.087	9999.89
436.294	10124.82
436.501	9950.74
436.708	10128.91
436.915	10368.52
437.122	10880.52
437.329	10974.72
437.537	11343.36
437.743	11445.76
437.95	11505.15
438.157	11961.84
438.364	12424.69
438.571	12246.51
438.778	12131.83
438.985	13630.94
439.192	13147.62
439.399	13506.01
439.606	12938.73
439.813	13884.89
440.02	14783.95
440.227	14515.66
440.433	14579.15
440.64	14837.19
440.847	14538.19
441.054	15183.3
441.261	15863.22
441.467	16031.16
441.674	16278.96
441.881	17024.42
442.088	16764.33
442.294	16539.05
442.501	17108.39
442.708	17497.5
442.914	18310.55
443.121	18709.9
443.328	18511.25
443.534	19733.89
443.741	18750.86
443.948	18859.4
444.154	20200.82
444.361	19832.19
444.568	20192.63
444.774	20168.05
444.981	20311.41
445.187	21173.61
445.394	22177.11
445.6	21847.39
445.807	23878.97
446.013	22852.94
446.22	23358.79
446.426	24227.13
446.633	24481.08
446.839	25240.87
447.046	23915.84
447.252	25468.2
447.459	25615.65
447.665	25466.15
447.871	26834.19
448.078	27591.94
448.284	26625.3
448.491	27266.31
448.697	28130.56
448.903	28871.92
449.11	28871.92
449.316	28554.49
449.522	28972.27
449.728	29658.34
449.935	29787.36
450.141	29805.8
450.347	30809.3
450.553	29775.08
450.76	30205.15
450.966	31229.13
451.172	30659.8
451.378	31528.14
451.584	30883.03
451.791	31777.99
451.997	31724.74
452.203	32142.53
452.409	32201.92
452.615	32117.95
452.821	30825.68
453.027	30733.53
453.233	32529.59
453.44	30883.03
453.646	31304.91
453.852	31644.87
454.058	31995.07
454.264	30989.52
454.47	31874.24
454.676	30846.16
454.882	32054.47
455.088	29424.87
455.294	29740.26
455.5	30362.84
455.705	30590.17
455.911	29551.85
456.117	29056.24
456.323	28331.26
456.529	26819.86
456.735	28032.25
456.941	27739.4
457.147	26909.97
457.352	26148.12
457.558	25857.31
457.764	26074.4
457.97	25763.11
458.176	24982.83
458.381	24753.46
458.587	23768.38
458.793	23627.07
458.999	22486.36
459.204	24237.37
459.41	23362.89
459.616	21892.44
459.821	22084.95
460.027	22084.95
460.233	21480.8
460.438	20591.98
460.644	20364.66
460.85	19867
461.055	19121.54
461.261	19455.36
461.466	17583.52
461.672	17302.95
461.878	18412.95
462.083	17458.59
462.289	17116.58
462.494	16795.05
462.7	16049.59
462.905	15836.6
463.111	16268.72
463.316	16141.75
463.522	15676.86
463.727	15957.43
463.932	15443.39
464.138	15615.42
464.343	15785.4
464.549	15171.01
464.754	15816.12
464.959	15809.98
465.165	15599.04
465.37	14763.47
465.575	14427.6
465.781	15125.96
465.986	15189.44
466.191	14550.48
466.397	14198.23
466.602	13651.42
466.807	14069.2
467.012	14018
467.218	14038.48
467.423	13893.08
467.628	13852.12
467.833	14579.15
468.038	13874.65
468.244	13663.71
468.449	14280.14
468.654	13704.67
468.859	13612.51
469.064	13600.22
469.269	13100.51
469.474	13123.04
469.679	13346.27
469.885	12955.11
470.09	13096.42
470.295	13061.6
470.5	12666.35
470.705	12852.71
470.91	12473.84
471.115	12410.35
471.32	12590.57
471.525	12436.97
471.73	12361.2
471.935	12221.94
472.139	11918.84
472.344	11951.6
472.549	11851.25
472.754	11718.14
472.959	11480.57
473.164	11210.24
473.369	11179.52
473.574	11695.61
473.778	11472.38
473.983	11232.77
474.188	11281.92
474.393	10896.9
474.598	10896.9
474.802	10532.36
475.007	10597.9
475.212	10804.74
475.417	10198.54
475.621	10098.19
475.826	10014.23
476.031	10057.23
476.235	9862.68
476.44	10055.19
476.645	9856.53
476.849	9815.57
477.054	9803.29
477.259	9489.95
477.463	9520.67
477.668	9428.51
477.872	9602.58
478.077	9149.98
478.282	8988.19
478.486	8984.1
478.691	8855.08
478.895	9010.72
479.1	9078.3
479.304	8867.36
479.509	8715.81
479.713	8875.56
479.918	8789.54
480.122	8468.01
480.326	8433.19
480.531	8566.31
480.735	8527.4
480.94	8224.3
481.144	8793.64
481.348	8166.96
481.553	8490.54
481.757	8334.89
481.961	8248.88
482.166	8394.28
482.37	8109.61
482.574	8070.7
482.778	8183.34
482.983	8255.02
483.187	8087.09
483.391	8179.25
483.595	8193.58
483.8	8248.88
484.004	8257.07
484.208	8089.14
484.412	8193.58
484.616	8187.44
484.821	8146.48
485.025	7937.59
485.229	8275.5
485.433	8078.9
485.637	8154.67
485.841	8097.33
486.045	8121.9
486.249	8302.12
486.453	8060.46
486.657	8238.64
486.861	8291.88
487.065	7939.63
487.269	8011.31
487.473	8189.49
487.677	8160.81
487.881	8283.69
488.085	8177.2
488.289	8146.48
488.493	8113.71
488.697	8183.34
488.901	8334.89
489.105	8353.32
489.309	8220.21
489.512	8191.53
489.716	8332.84
489.92	8343.08
490.124	8248.88
490.328	8425
490.531	8224.3
490.735	8562.22
490.939	8556.07
491.143	8396.33
491.346	8183.34
491.55	8465.96
491.754	8541.74
491.958	8498.73
492.161	8445.48
492.365	8521.26
492.569	8609.32
492.772	8500.78
492.976	8736.29
493.18	8791.59
493.383	8789.54
493.587	8969.76
493.79	9059.87
493.994	8767.01
494.197	8926.75
494.401	9096.74
494.605	8922.66
494.808	9197.09
495.012	9166.37
495.215	9205.28
495.419	9412.12
495.622	9252.38
495.825	9420.31
496.029	9469.47
496.232	9600.54
496.436	9553.43
496.639	9995.79
496.843	9946.64
497.046	9889.3
497.249	9971.22
497.453	10192.4
497.656	10282.51
497.859	10268.17
498.063	10362.38
498.266	10563.08
498.469	10456.59
498.673	10618.38
498.876	10823.17
499.079	10710.54
499.282	10913.28
499.485	11156.99
499.689	11118.08
499.892	11367.93
500.095	11460.09
500.298	11632.12
500.501	11623.93
500.705	11787.77
500.908	11998.71
501.111	12066.29
501.314	12277.23
501.517	12162.55
501.72	12488.17
501.923	12332.53
502.126	12774.89
502.329	13041.12
502.532	12961.25
502.735	13100.51
502.938	13430.24
503.141	13340.13
503.344	13542.88
503.547	13520.35
503.75	13639.13
503.953	14241.23
504.156	14093.78
504.359	14292.43
504.562	14138.83
504.765	14556.62
504.968	14575.05
505.17	15230.4
505.373	14765.51
505.576	15230.4
505.779	15281.6
505.982	15416.77
506.185	15881.66
506.387	15592.89
506.59	16059.83
506.793	16121.27
506.996	16268.72
507.198	16559.53
507.401	16498.09
507.604	16825.77
507.807	16987.56
508.009	17429.92
508.212	17284.51
508.415	17460.64
508.617	17843.61
508.82	17788.32
509.022	17651.1
509.225	18206.1
509.428	18443.67
509.63	18615.69
509.833	18449.81
510.035	18914.7
510.238	19006.86
510.44	19219.85
510.643	19535.23
510.845	19563.9
511.048	19309.96
511.25	19656.06
511.453	19924.35
511.655	20710.77
511.858	20497.78
512.06	20624.75
512.262	20956.52
512.465	20743.53
512.667	21253.48
512.87	21495.14
513.072	21482.85
513.274	21808.48
513.477	22234.46
513.679	22437.2
513.881	22695.25
514.084	22621.52
514.286	22748.5
514.488	22832.46
514.69	23622.98
514.893	23391.56
515.095	23629.12
515.297	23981.37
515.499	24059.2
515.701	24450.36
515.904	24669.49
516.106	25158.95
516.308	25077.04
516.51	25247.02
516.712	25287.98
516.914	25693.47
517.116	26205.47
517.318	26125.6
517.52	26252.57
517.722	26326.3
517.925	26504.47
518.127	27110.67
518.329	27215.12
518.531	27125
518.733	27671.81
518.935	28044.54
519.136	28105.98
519.338	28087.55
519.54	28437.75
519.742	28830.96
519.944	28630.26
520.146	28984.56
520.348	29375.72
520.55	29467.88
520.752	29635.81
520.954	30239.97
521.155	29873.38
521.357	30201.05
521.559	30657.75
521.761	31311.05
521.963	31034.58
522.164	31345.87
522.366	31294.67
522.568	31786.18
522.77	31825.09
522.971	32206.02
523.173	32177.34
523.375	32341.18
523.576	32498.87
523.778	32308.41
523.98	33053.87
524.181	33166.51
524.383	33172.66
524.584	33758.38
524.786	33664.17
524.988	33797.29
525.189	34210.98
525.391	34682.01
525.592	34475.16
525.794	34634.91
525.995	34692.25
526.197	34774.17
526.398	34903.19
526.6	35007.64
526.801	35413.13
527.003	35673.23
527.204	35523.72
527.406	36070.53
527.607	35556.49
527.808	36205.7
528.01	35892.36
528.211	35894.41
528.412	36793.47
528.614	36390.02
528.815	36619.39
529.016	36621.44
529.218	36017.29
529.419	36648.06
529.62	36879.48
529.822	36662.4
530.023	36691.07
530.224	36740.22
530.425	36883.58
530.626	36914.3
530.828	37055.61
531.029	37459.06
531.23	37311.6
531.431	37350.51
531.632	37264.5
531.833	37598.32
532.035	37297.27
532.236	37778.54
532.437	37684.33
532.638	37504.11
532.839	37895.27
533.04	37973.1
533.241	37270.64
533.442	38399.07
533.643	37907.56
533.844	37831.79
534.045	37964.9
534.246	37418.1
534.447	38100.07
534.648	38128.74
534.849	38073.45
535.05	38095.97
535.251	38067.3
535.451	38110.31
535.652	38020.2
535.853	38552.67
536.054	38055.01
536.255	38069.35
536.456	37700.72
536.657	38648.92
536.857	38227.04
537.058	37969
537.259	38143.08
537.46	38018.15
537.66	38059.11
537.861	38485.09
538.062	38259.81
538.263	37989.48
538.463	38136.93
538.664	38327.39
538.865	38382.69
539.065	38177.89
539.266	38001.77
539.466	38394.98
539.667	38042.73
539.868	38526.05
540.068	38163.56
540.269	38259.81
540.469	38544.48
540.67	37846.12
540.87	37973.1
541.071	38235.24
541.271	38282.34
541.472	38089.83
541.672	38190.18
541.873	38151.27
542.073	37778.54
542.274	38222.95
542.474	38089.83
542.675	37815.4
542.875	38061.16
543.075	38196.32
543.276	37850.22
543.476	38360.16
543.676	37907.56
543.877	38106.21
544.077	37932.14
544.277	37770.35
544.478	38411.36
544.678	37915.75
544.878	37532.78
545.078	38255.71
545.279	37452.91
545.479	37739.63
545.679	37907.56
545.879	37786.73
546.079	37952.62
546.28	37581.93
546.48	37620.84
546.68	37925.99
546.88	38159.46
547.08	37735.53
547.28	37825.64
547.48	37403.76
547.68	37989.48
547.88	37586.03
548.081	37964.9
548.281	37846.12
548.481	37852.27
548.681	38055.01
548.881	37762.15
549.081	37702.76
549.28	37121.14
549.48	37835.88
549.68	37852.27
549.88	37969
550.08	37633.13
550.28	37817.45
550.48	37946.47
550.68	37661.8
550.88	37581.93
551.08	37633.13
551.279	37799.02
551.479	37178.48
551.679	37508.21
551.879	37653.61
552.079	37670
552.278	37751.91
552.478	37270.64
552.678	37616.75
552.878	37799.02
553.077	37262.45
553.277	36951.16
553.477	37620.84
553.676	37452.91
553.876	37258.35
554.076	37020.79
554.275	37028.98
554.475	36824.18
554.674	36981.88
554.874	37186.68
555.074	37237.87
555.273	37344.37
555.473	37051.51
555.672	36686.97
555.872	37020.79
556.071	37176.44
556.271	37190.77
556.47	36971.64
556.67	36682.87
556.869	36764.79
557.068	36912.25
557.268	36508.8
557.467	36576.38
557.667	36553.85
557.866	36568.19
558.065	36785.27
558.265	36494.46
558.464	36453.5
558.663	37100.66
558.863	36154.5
559.062	36658.3
559.261	36172.93
559.461	36246.66
559.66	35884.17
559.859	36000.9
560.058	35873.93
560.258	35900.55
560.457	35697.8
560.656	36172.93
560.855	36125.83
561.054	36187.27
561.253	35368.08
561.453	35708.04
561.652	35441.81
561.851	35644.55
562.05	35632.27
562.249	35380.37
562.448	35525.77
562.647	35357.84
562.846	35177.62
563.045	35566.73
563.244	34946.2
563.443	35169.43
563.642	34798.74
563.841	35069.08
564.04	34669.72
564.239	35128.47
564.438	34383.01
564.637	35077.27
564.836	34684.06
565.035	34260.13
565.234	34778.26
565.432	34034.85
565.631	34376.86
565.83	34657.43
566.029	34204.83
566.228	34376.86
566.427	33619.11
566.625	33379.5
566.824	34049.19
567.023	34124.96
567.222	33434.8
567.42	33983.65
567.619	33561.77
567.818	33172.66
568.016	33764.52
568.215	33649.83
568.414	33281.2
568.612	33625.26
568.811	33234.1
569.01	33205.42
569.208	32519.35
569.407	33203.38
569.605	32582.84
569.804	33178.8
570.002	32834.74
570.201	32462.01
570.4	32025.79
570.598	32322.75
570.797	32058.56
570.995	32486.59
571.193	31937.73
571.392	32515.26
571.59	31823.05
571.789	31771.85
571.987	31683.78
572.186	32169.15
572.384	31573.19
572.582	31626.44
572.781	31950.02
572.979	31216.85
573.177	31284.43
573.376	31919.3
573.574	31294.67
573.772	31458.51
573.971	31384.78
574.169	31063.25
574.367	30905.56
574.565	31087.82
574.763	30498.01
574.962	30891.22
575.16	30352.6
575.358	30356.7
575.556	30280.92
575.754	30864.6
575.952	29906.15
576.151	30334.17
576.349	30065.89
576.547	29992.16
576.745	30135.52
576.943	29707.49
577.141	29795.56
577.339	29801.7
577.537	29486.31
577.735	29369.58
577.933	29494.5
578.131	29881.57
578.329	29590.76
578.527	29179.12
578.725	29414.63
578.923	29293.8
579.121	29142.25
579.319	29048.05
579.516	29113.58
579.714	29068.53
579.912	28830.96
580.11	28525.82
580.308	28855.54
580.506	28615.93
580.704	28255.48
580.901	28546.3
581.099	28861.68
581.297	28110.08
581.495	28290.3
581.692	28419.32
581.89	28359.93
582.088	28245.24
582.285	27862.27
582.483	28493.05
582.681	27770.11
582.878	27690.24
583.076	27673.86
583.274	27827.46
583.471	26995.98
583.669	27415.82
583.866	27307.27
584.064	27374.86
584.262	27143.44
584.459	27497.74
584.657	26828.05
584.854	27106.57
585.052	26807.57
585.249	26871.06
585.447	26639.64
585.644	26297.63
585.841	26836.24
586.039	27061.52
586.236	26254.62
586.434	26561.81
586.631	26334.49
586.828	26371.35
587.026	26414.36
587.223	26148.12
587.42	25920.8
587.618	25912.61
587.815	25765.15
588.012	25689.38
588.21	25601.32
588.407	25926.94
588.604	25769.25
588.801	25537.83
588.999	25627.94
589.196	25492.77
589.393	25507.11
589.59	25427.24
589.787	25036.08
589.984	25285.93
590.182	24997.17
590.379	25156.91
590.576	25017.64
590.773	24790.32
590.97	24913.2
591.167	24528.18
591.364	24401.21
591.561	24810.8
591.758	24304.95
591.955	24202.55
592.152	24272.18
592.349	24018.24
592.546	24335.67
592.743	24153.4
592.94	23838.01
593.137	24196.41
593.334	24417.59
593.531	23670.08
593.727	23651.65
593.924	23823.68
594.121	23424.33
594.318	23649.6
594.515	23070.03
594.712	23665.99
594.908	23098.7
595.105	23514.44
595.302	23409.99
595.499	23043.4
595.696	23119.18
595.892	22898
596.089	23291.21
596.286	23143.75
596.482	22912.33
596.679	22687.06
596.876	22957.39
597.072	22785.36
597.269	22596.95
597.466	22074.71
597.662	22521.17
597.859	22281.56
598.055	22601.04
598.252	21939.55
598.448	22455.64
598.645	22095.19
598.841	21908.83
599.038	21925.21
599.234	22013.27
599.431	21736.8
599.627	21831.01
599.824	21917.02
600.02	21851.49
600.217	21781.85
600.413	21628.26
600.609	21284.2
600.806	21523.81
601.002	21423.46
601.198	21415.27
601.395	21216.61
601.591	21050.73
601.787	21278.05
601.984	20923.76
602.18	20985.19
602.376	20628.85
602.572	20913.52
602.769	20860.27
602.965	20602.22
603.161	20768.11
603.357	20667.76
603.553	20567.41
603.75	20503.92
603.946	20405.62
604.142	20438.39
604.338	20135.29
604.534	20290.93
604.73	20020.6
604.926	20041.08
605.122	20041.08
605.318	20340.08
605.514	20010.36
605.71	19940.73
605.906	19746.17
606.102	19719.55
606.298	19746.17
606.494	19604.86
606.69	19740.03
606.886	19742.08
607.082	19420.55
607.278	19633.54
607.474	19238.28
607.67	19565.95
607.866	19101.06
608.062	19381.63
608.257	19488.13
608.453	19101.06
608.649	19299.72
608.845	19099.02
609.041	18830.73
609.236	19385.73
609.432	18767.24
609.628	18773.39
609.824	18619.79
610.019	18646.41
610.215	18824.59
610.411	18820.49
610.606	18820.49
610.802	18826.64
610.998	18589.07
611.193	18718.09
611.389	18705.81
611.584	18507.15
611.78	18341.27
611.976	18462.1
612.171	18468.24
612.367	18206.1
612.562	18181.53
612.758	18029.98
612.953	18122.13
613.149	18267.54
613.344	18283.92
613.539	18300.31
613.735	18281.88
613.93	18300.31
614.126	18087.32
614.321	18406.8
614.517	18079.13
614.712	17819.03
614.907	17786.27
615.103	18029.98
615.298	17827.23
615.493	18013.59
615.688	17683.87
615.884	17927.58
616.079	17604
616.274	17589.66
616.47	17661.34
616.665	17520.03
616.86	17474.98
617.055	17501.6
617.25	17618.33
617.445	17698.2
617.641	17372.58
617.836	17325.47
618.031	17100.2
618.226	17221.03
618.421	17079.72
618.616	17225.12
618.811	16989.61
619.006	16852.39
619.201	16962.98
619.396	17122.73
619.591	16549.29
619.786	16971.18
619.981	16557.49
620.176	16924.07
620.371	16524.72
620.566	16518.57
620.761	16440.75
620.956	16090.55
621.151	16330.16
621.346	16354.74
621.541	16197.04
621.735	16065.97
621.93	15826.36
622.125	16039.35
622.32	15650.24
622.515	15889.85
622.709	15760.83
622.904	15424.96
623.099	15463.87
623.294	15594.94
623.488	15257.03
623.683	15740.35
623.878	15056.32
624.072	15254.98
624.267	14953.93
624.462	15033.8
624.656	14976.45
624.851	15039.94
625.046	14757.32
625.24	14587.34
625.435	14702.03
625.629	14511.57
625.824	14466.51
626.018	14362.06
626.213	14069.2
626.407	14491.09
626.602	14114.26
626.796	14204.37
626.991	14099.92
627.185	13911.51
627.38	13905.37
627.574	13997.53
627.768	14030.29
627.963	13675.99
628.157	13600.22
628.352	13622.75
628.546	13229.54
628.74	13628.89
628.935	13100.51
629.129	13270.5
629.323	13143.52
629.517	12987.88
629.712	13194.72
629.906	12971.49
630.1	12842.47
630.294	12996.07
630.489	12844.52
630.683	12658.15
630.877	12445.16
631.071	12467.69
631.265	12434.92
631.459	12408.3
631.653	12463.6
631.848	12240.37
632.042	12461.55
632.236	12344.81
632.43	11951.6
632.624	12180.98
632.818	11822.58
633.012	12043.76
633.206	11920.88
633.4	11939.32
633.594	11720.18
633.788	11763.19
633.982	11734.52
634.176	11695.61
634.369	11462.14
634.563	11292.16
634.757	11310.59
634.951	11441.66
635.145	11193.86
635.339	11175.42
635.533	11179.52
635.726	11195.9
635.92	11034.11
636.114	11038.21
636.308	10884.61
636.501	11038.21
636.695	10800.65
636.889	10714.63
637.083	10653.19
637.276	10651.14
637.47	10454.54
637.664	10563.08
637.857	10389
638.051	10401.29
638.244	10419.72
638.438	10337.8
638.632	10198.54
638.825	10141.2
639.019	10165.78
639.212	9860.63
639.406	10198.54
639.599	9891.35
639.793	9903.64
639.986	9969.17
640.18	9944.59
640.373	9747.99
640.567	9795.09
640.76	9747.99
640.954	9727.51
641.147	9510.43
641.34	9627.16
641.534	9440.79
641.727	9465.37
641.92	9238.05
642.114	9338.4
642.307	9164.32
642.5	9535
642.694	8934.95
642.887	9133.6
643.08	9127.46
643.273	9053.73
643.467	8873.51
643.66	8887.84
643.853	8920.61
644.046	8703.53
644.239	8734.25
644.432	8644.13
644.626	8545.83
644.819	8615.46
645.012	8574.5
645.205	8650.28
645.398	8388.14
645.591	8394.28
645.784	8312.36
645.977	8255.02
646.17	8558.12
646.363	8283.69
646.556	8164.91
646.749	8136.24
646.942	8111.66
647.135	8156.72
647.328	8148.53
647.521	8099.38
647.714	7986.74
647.907	7972.4
648.099	7867.95
648.292	8029.74
648.485	7958.07
648.678	7847.47
648.871	7663.16
649.064	7732.79
649.256	7681.59
649.449	7700.02
649.642	7573.05
649.835	7429.69
650.027	7493.18
650.22	7415.35
650.413	7470.65
650.605	7228.99
650.798	7499.32
650.991	7267.9
651.183	7345.72
651.376	7298.62
651.568	7272
651.761	7319.1
651.954	7282.24
652.146	7108.16
652.339	7083.58
652.531	7161.41
652.724	7016
652.916	6733.38
653.109	6934.08
653.301	6956.61
653.494	7116.35
653.686	6811.2
653.879	6848.07
654.071	6817.35
654.263	6813.25
654.456	6717
654.648	6833.73
654.84	6440.52
655.033	6555.21
655.225	6563.4
655.417	6512.2
655.61	6561.35
655.802	6590.02
655.994	6532.68
656.186	6491.72
656.379	6387.27
656.571	6383.18
656.763	6223.44
656.955	6245.96
657.148	6358.6
657.34	6221.39
657.532	6213.2
657.724	6297.16
657.916	6125.13
658.108	6219.34
658.3	6155.85
658.492	6073.93
658.684	6075.98
658.876	6030.93
659.068	5887.57
659.26	5967.44
659.452	5897.81
659.644	5729.88
659.836	5877.33
660.028	5906
660.22	5899.86
660.412	5713.49
660.604	5639.76
660.796	5662.29
660.988	5764.69
661.18	5629.52
661.372	5639.76
661.563	5600.85
661.755	5623.38
661.947	5506.65
662.139	5594.71
662.331	5658.2
662.522	5434.97
662.714	5305.95
662.906	5465.69
663.097	5346.91
663.289	5332.57
663.481	5293.66
663.673	5336.67
663.864	5426.78
664.056	5260.89
664.247	5385.82
664.439	5236.31
664.631	5305.95
664.822	5135.96
665.014	5070.43
665.205	5097.05
665.397	5168.73
665.588	5103.2
665.78	5129.82
665.971	5097.05
666.163	5002.85
666.354	4920.93
666.546	5056.09
666.737	5052
666.929	4894.3
667.12	4898.4
667.311	4890.21
667.503	4916.83
667.694	4814.43
667.885	4984.41
668.077	4990.56
668.268	4851.3
668.459	4849.25
668.651	4771.43
668.842	4851.3
669.033	4734.56
669.224	4720.23
669.416	4796
669.607	4644.45
669.798	4613.73
669.989	4912.74
670.18	4804.19
670.371	4726.37
670.563	4664.93
670.754	4632.16
670.945	4531.81
671.136	4738.66
671.327	4656.74
671.518	4533.86
671.709	4734.56
671.9	4572.77
672.091	4572.77
672.282	4593.25
672.473	4525.67
672.664	4447.85
672.855	4482.66
673.046	4558.44
673.237	4644.45
673.428	4601.44
673.619	4542.05
673.809	4525.67
674	4429.42
674.191	4347.5
674.382	4472.42
674.573	4415.08
674.764	4376.17
674.954	4435.56
675.145	4310.63
675.336	4425.32
675.527	4357.74
675.717	4376.17
675.908	4355.69
676.099	4376.17
676.289	4406.89
676.48	4261.48
676.671	4345.45
676.861	4406.89
677.052	4398.7
677.243	4288.11
677.433	4355.69
677.624	4404.84
677.814	4415.08
678.005	4304.49
678.195	4279.91
678.386	4367.98
678.576	4300.39
678.767	4308.58
678.957	4275.82
679.148	4327.02
679.338	4284.01
679.529	4259.43
679.719	4228.71
679.909	4515.43
680.1	4214.38
680.29	4292.2
680.481	4349.54
680.671	4206.19
680.861	4245.1
681.052	4341.35
681.242	4228.71
681.432	4255.34
681.622	4159.08
681.813	4173.42
682.003	4253.29
682.193	4214.38
682.383	4292.2
682.573	4224.62
682.764	4167.28
682.954	4327.02
683.144	4167.28
683.334	4085.36
683.524	4314.73
683.714	4175.47
683.904	4191.85
684.094	4255.34
684.284	4068.97
684.474	4277.87
684.664	4224.62
684.854	4200.04
685.044	4093.55
685.234	4175.47
685.424	4173.42
685.614	4165.23
685.804	4054.64
685.994	4087.4
686.184	4032.11
686.374	4132.46
686.564	4097.64
686.753	4054.64
686.943	4023.92
687.133	3997.29
687.323	4052.59
687.513	4093.55
687.702	3864.18
687.892	3878.51
688.082	3991.15
688.272	3831.41
688.461	3841.65
688.651	3849.84
688.841	3841.65
689.03	3935.85
689.22	3851.89
689.41	3800.69
689.599	3796.59
689.789	3780.21
689.979	3565.17
690.168	3710.58
690.358	3776.11
690.547	3608.18
690.737	3761.78
690.926	3761.78
691.116	3733.11
691.305	3657.33
691.495	3571.32
691.684	3495.54
691.874	3524.21
692.063	3540.6
692.252	3595.89
692.442	3561.08
692.631	3462.77
692.82	3522.16
693.01	3401.33
693.199	3432.05
693.388	3464.82
693.578	3483.25
693.767	3427.96
693.956	3442.29
694.146	3251.83
694.335	3358.33
694.524	3366.52
694.713	3395.19
694.902	3477.11
695.092	3384.95
695.281	3268.22
695.47	3366.52
695.659	3399.29
695.848	3223.16
696.037	3243.64
696.226	3251.83
696.415	3237.5
696.604	3376.76
696.793	3286.65
696.982	3202.68
697.171	3384.95
697.36	3251.83
697.549	3206.78
697.738	3194.49
697.927	3225.21
698.116	3126.91
698.305	3270.26
698.494	3212.92
698.683	3186.3
698.872	3147.39
699.061	3075.71
699.25	3106.43
699.438	3266.17
699.627	3214.97
699.816	3268.22
700.005	3088
700.193	3200.63
700.382	3131
700.571	3079.8
700.76	3155.58
700.948	3262.07
701.137	3272.31
701.326	3186.3
701.514	3112.57
701.703	3063.42
701.892	3120.76
702.08	3190.39
702.269	3141.24
702.457	3104.38
702.646	3202.68
702.834	3034.75
703.023	3049.08
703.212	3153.53
703.4	3264.12
703.589	3096.19
703.777	3145.34
703.965	3026.56
704.154	3303.03
704.342	3096.19
704.531	3241.59
704.719	3112.57
704.907	3149.43
705.096	3079.8
705.284	3149.43
705.472	3182.2
705.661	3061.37
705.849	3174.01
706.037	3190.39
706.226	3180.15
706.414	3100.28
706.602	3116.67
706.79	3153.53
706.979	3196.54
707.167	3088
707.355	3090.04
707.543	3260.02
707.731	3190.39
707.919	3335.8
708.107	3112.57
708.296	3137.15
708.484	3178.11
708.672	3165.82
708.86	2969.21
709.048	3200.63
709.236	3290.74
709.424	3233.4
709.612	3171.96
709.8	3178.11
709.988	3274.36
710.176	3200.63
710.364	3212.92
710.551	3194.49
710.739	3253.88
710.927	3192.44
711.115	3339.9
711.303	3262.07
711.491	3212.92
711.679	3298.94
711.866	3204.73
712.054	3272.31
712.242	3315.32
712.43	3321.46
712.617	3407.48
712.805	3069.56
712.993	3245.69
713.181	3192.44
713.368	3161.72
713.556	3260.02
713.744	3194.49
713.931	3423.86
714.119	3235.45
714.306	3339.9
714.494	3268.22
714.682	3233.4
714.869	3401.33
715.057	3356.28
715.244	3159.67
715.432	3239.55
715.619	3335.8
715.807	3370.62
715.994	3350.14
716.182	3225.21
716.369	3438.2
716.556	3364.47
716.744	3300.98
716.931	3343.99
717.119	3393.14
717.306	3434.1
717.493	3403.38
717.681	3378.81
717.868	3368.57
718.055	3335.8
718.242	3452.53
718.43	3460.73
718.617	3403.38
718.804	3419.77
718.991	3552.88
719.179	3483.25
719.366	3526.26
719.553	3534.45
719.74	3567.22
719.927	3419.77
720.114	3458.68
720.301	3491.45
720.488	3343.99
720.676	3387
720.863	3493.49
721.05	3583.6
721.237	3477.11
721.424	3468.92
721.611	3489.4
721.798	3397.24
721.985	3597.94
722.172	3462.77
722.358	3468.92
722.545	3575.41
722.732	3485.3
722.919	3589.75
723.106	3501.69
723.293	3468.92
723.48	3602.04
723.667	3542.64
723.853	3456.63
724.04	3516.02
724.227	3466.87
724.414	3475.06
724.6	3497.59
724.787	3694.19
724.974	3530.36
725.161	3493.49
725.347	3360.38
725.534	3563.12
725.72	3559.03
725.907	3534.45
726.094	3473.01
726.28	3520.12
726.467	3499.64
726.653	3593.84
726.84	3669.62
727.027	3686
727.213	3427.96
727.4	3559.03
727.586	3509.88
727.773	3540.6
727.959	3473.01
728.145	3495.54
728.332	3493.49
728.518	3579.51
728.705	3505.78
728.891	3726.96
729.077	3565.17
729.264	3618.42
729.45	3520.12
729.636	3782.26
729.823	3520.12
730.009	3579.51
730.195	3710.58
730.382	3669.62
730.568	3708.53
730.754	3661.43
730.94	3530.36
731.126	3657.33
731.313	3657.33
731.499	3587.7
731.685	3716.72
731.871	3505.78
732.057	3673.71
732.243	3690.1
732.429	3544.69
732.615	3704.43
732.801	3665.52
732.987	3516.02
733.173	3597.94
733.359	3708.53
733.545	3651.19
733.731	3550.84
733.917	3663.47
734.103	3726.96
734.289	3622.52
734.475	3673.71
734.661	3722.87
734.847	3651.19
735.033	3563.12
735.219	3608.18
735.404	3690.1
735.59	3475.06
735.776	3647.09
735.962	3630.71
736.148	3681.91
736.333	3647.09
736.519	3595.89
736.705	3540.6
736.89	3606.13
737.076	3597.94
737.262	3542.64
737.447	3554.93
737.633	3546.74
737.819	3622.52
738.004	3458.68
738.19	3538.55
738.375	3573.36
738.561	3610.23
738.747	3616.37
738.932	3403.38
739.118	3593.84
739.303	3651.19
739.489	3542.64
739.674	3477.11
739.859	3509.88
740.045	3518.07
740.23	3573.36
740.416	3495.54
740.601	3415.67
740.786	3466.87
740.972	3450.49
741.157	3464.82
741.342	3415.67
741.528	3303.03
741.713	3423.86
741.898	3382.9
742.084	3311.22
742.269	3389.05
742.454	3315.32
742.639	3489.4
742.824	3421.81
743.01	3366.52
743.195	3378.81
743.38	3278.46
743.565	3274.36
743.75	3182.2
743.935	3374.71
744.12	3303.03
744.305	3124.86
744.49	3090.04
744.675	3192.44
744.86	3169.91
745.045	3239.55
745.23	3049.08
745.415	3006.08
745.6	3182.2
745.785	3198.59
745.97	3112.57
746.155	3178.11
746.34	3174.01
746.525	3057.28
746.71	3071.61
746.895	2899.58
747.079	2903.68
747.264	2965.12
747.449	3036.8
747.634	2870.91
747.819	2997.88
748.003	2842.24
748.188	2875.01
748.373	2858.62
748.557	2860.67
748.742	2850.43
748.927	2795.14
749.111	2989.69
749.296	2678.4
749.481	2795.14
749.665	2766.46
749.85	2756.22
750.034	2745.98
750.219	2688.64
750.404	2758.27
750.588	2635.39
750.773	2569.86
750.957	2621.06
751.141	2449.03
751.326	2674.31
751.51	2580.1
751.695	2535.04
751.879	2567.81
752.064	2684.55
752.248	2600.58
752.432	2557.57
752.617	2516.61
752.801	2567.81
752.985	2645.63
753.17	2492.04
753.354	2412.17
753.538	2377.35
753.722	2356.87
753.907	2416.26
754.091	2348.68
754.275	2338.44
754.459	2268.81
754.643	2262.66
754.828	2410.12
755.012	2305.67
755.196	2164.36
755.38	2291.34
755.564	2313.86
755.748	2203.27
755.932	2170.51
756.116	2258.57
756.3	2092.68
756.484	2123.4
756.668	2072.2
756.852	2078.35
757.036	1978
757.22	2014.86
757.404	2088.59
757.588	2010.76
757.772	2002.57
757.956	1971.85
758.14	2100.87
758.323	2045.58
758.507	1947.28
758.691	1951.37
758.875	1982.09
759.059	2033.29
759.242	1808.02
759.426	1914.51
759.61	1910.41
759.794	1902.22
759.977	2002.57
760.161	1912.46
760.345	1982.09
760.528	1891.98
760.712	1836.69
760.895	1873.55
761.079	1765.01
761.263	1728.14
761.446	1767.06
761.63	1687.18
761.813	1808.02
761.997	1785.49
762.18	1711.76
762.364	1707.66
762.547	1640.08
762.731	1765.01
762.914	1736.34
763.098	1705.62
763.281	1683.09
763.464	1685.14
763.648	1695.38
763.831	1633.94
764.015	1605.27
764.198	1621.65
764.381	1646.23
764.564	1601.17
764.748	1668.75
764.931	1631.89
765.114	1625.75
765.297	1621.65
765.481	1504.92
765.664	1580.69
765.847	1652.37
766.03	1617.55
766.213	1457.81
766.397	1449.62
766.58	1478.29
766.763	1568.4
766.946	1525.4
767.129	1457.81
767.312	1425.04
767.495	1564.31
767.678	1359.51
767.861	1509.01
768.044	1470.1
768.227	1515.16
768.41	1466
768.593	1482.39
768.776	1388.18
768.959	1439.38
769.142	1502.87
769.324	1394.33
769.507	1314.45
769.69	1459.86
769.873	1470.1
770.056	1392.28
770.239	1361.56
770.421	1310.36
770.604	1296.02
770.787	1261.21
770.97	1310.36
771.152	1334.93
771.335	1334.93
771.518	1322.65
771.7	1476.24
771.883	1400.47
772.066	1339.03
772.248	1320.6
772.431	1355.41
772.613	1318.55
772.796	1175.19
772.978	1253.02
773.161	1283.74
773.343	1322.65
773.526	1255.06
773.708	1146.52
773.891	1171.1
774.073	1150.62
774.256	1191.58
774.438	1253.02
774.621	1140.38
774.803	1193.62
774.985	1216.15
775.168	1203.86
775.35	1138.33
775.532	1134.23
775.715	1140.38
775.897	1162.9
776.079	1060.51
776.261	1115.8
776.444	1085.08
776.626	1064.6
776.808	1011.36
776.99	988.83
777.173	1119.9
777.355	1105.56
777.537	1019.55
777.719	1040.03
777.901	968.35
778.083	911
778.265	947.87
778.447	968.35
778.629	1052.31
778.811	986.78
778.993	956.06
779.175	990.88
779.357	919.2
779.539	896.67
779.721	951.96
779.903	1007.26
780.085	927.39
780.267	900.76
780.449	859.81
780.631	1031.83
780.812	980.64
780.994	915.1
781.176	980.64
781.358	915.1
781.54	802.46
781.721	908.96
781.903	986.78
782.085	911
782.267	976.54
782.448	810.65
782.63	833.18
782.812	796.32
782.993	771.74
783.175	786.08
783.357	728.74
783.538	851.61
783.72	788.13
783.901	839.33
784.083	755.36
784.264	700.06
784.446	747.17
784.627	765.6
784.809	741.02
784.99	652.96
785.172	728.74
785.353	710.3
785.535	706.21
785.716	695.97
785.897	671.39
786.079	714.4
786.26	693.92
786.441	720.54
786.623	632.48
786.804	616.1
786.985	642.72
787.167	659.1
787.348	558.75
787.529	614.05
787.71	698.02
787.891	675.49
788.073	587.43
788.254	661.15
788.435	720.54
788.616	581.28
788.797	605.86
788.978	695.97
789.159	624.29
789.34	646.82
789.522	544.42
789.703	595.62
789.884	528.03
790.065	634.53
790.246	648.86
790.427	568.99
790.607	669.34
790.788	607.91
790.969	626.34
791.15	525.99
791.331	534.18
791.512	478.88
791.693	433.83
791.874	503.46
792.054	636.58
792.235	589.47
792.416	458.4
792.597	452.26
792.778	525.99
792.958	519.84
793.139	493.22
793.32	478.88
793.5	401.06
793.681	550.56
793.862	444.07
794.042	450.21
794.223	378.53
794.404	552.61
794.584	409.25
794.765	442.02
794.945	470.69
795.126	470.69
795.306	439.97
795.487	478.88
795.667	421.54
795.848	544.42
796.028	454.31
796.209	470.69
796.389	409.25
796.57	509.6
796.75	442.02
796.93	446.12
797.111	364.2
797.291	386.72
797.471	431.78
797.652	376.48
797.832	353.96
798.012	458.4
798.192	368.29
798.373	401.06
798.553	331.43
798.733	495.27
798.913	382.63
799.093	401.06
799.274	413.35
799.454	417.44
799.634	433.83
799.814	444.07
799.994	396.96
800.174	437.92
800.354	362.15
800.534	278.18
800.714	394.92
800.894	345.77
801.074	390.82
801.254	310.95
801.434	411.3
801.614	286.37
801.794	302.76
801.974	1293.97
802.154	380.58
802.334	335.53
802.514	298.66
802.693	362.15
802.873	347.81
803.053	419.49
803.233	386.72
803.413	360.1
803.592	335.53
803.772	329.38
803.952	315.05
804.131	304.81
804.311	298.66
804.491	360.1
804.67	347.81
804.85	298.66
805.03	372.39
805.209	368.29
805.389	290.47
805.568	317.09
805.748	249.51
805.928	255.65
806.107	243.37
806.287	356.01
806.466	253.61
806.646	333.48
806.825	376.48
807.004	399.01
807.184	329.38
807.363	452.26
807.543	353.96
807.722	206.5
807.901	284.33
808.081	321.19
808.26	241.32
808.439	272.04
808.619	249.51
808.798	304.81
808.977	218.79
809.156	370.34
809.336	343.72
809.515	378.53
809.694	220.84
809.873	278.18
810.052	302.76
810.231	267.94
810.411	261.8
810.59	343.72
810.769	241.32
810.948	265.89
811.127	247.46
811.306	272.04
811.485	257.7
811.664	298.66
811.843	249.51
812.022	237.22
812.201	220.84
812.38	239.27
812.559	247.46
812.737	241.32
812.916	159.4
813.095	188.07
813.274	280.23
813.453	212.65
813.632	241.32
813.811	183.98
813.989	124.58
814.168	212.65
814.347	161.45
814.526	237.22
814.704	282.28
814.883	280.23
815.062	200.36
815.24	218.79
815.419	175.78
815.598	206.5
815.776	97.96
815.955	218.79
816.133	175.78
816.312	183.98
816.49	188.07
816.669	196.26
816.847	247.46
817.026	231.08
817.204	220.84
817.383	200.36
817.561	206.5
817.74	212.65
817.918	194.22
818.097	237.22
818.275	190.12
818.453	214.7
818.632	210.6
818.81	143.02
818.988	75.43
819.167	226.98
819.345	198.31
819.523	171.69
819.701	177.83
819.879	251.56
820.058	173.74
820.236	120.49
820.414	147.11
820.592	155.3
820.77	175.78
820.948	224.94
821.127	130.73
821.305	122.54
821.483	177.83
821.661	208.55
821.839	200.36
822.017	124.58
822.195	143.02
822.373	181.93
822.551	183.98
822.729	210.6
822.907	165.54
823.085	210.6
823.262	222.89
823.44	165.54
823.618	220.84
823.796	192.17
823.974	120.49
824.152	153.26
824.329	132.78
824.507	149.16
824.685	102.06
824.863	140.97
825.04	147.11
825.218	181.93
825.396	97.96
825.574	175.78
825.751	196.26
825.929	149.16
826.107	97.96
826.284	167.59
826.462	67.24
826.639	171.69
826.817	46.76
826.994	173.74
827.172	57
827.349	265.89
827.527	198.31
827.704	194.22
827.882	173.74
828.059	220.84
828.237	159.4
828.414	190.12
828.591	93.87
828.769	140.97
828.946	143.02
829.124	179.88
829.301	155.3
829.478	138.92
829.655	192.17
829.833	140.97
830.01	126.63
830.187	169.64
830.364	163.5
830.542	140.97
830.719	165.54
830.896	167.59
831.073	155.3
831.25	67.24
831.427	151.21
831.604	116.39
831.782	79.53
831.959	100.01
832.136	69.29
832.313	75.43
832.49	126.63
832.667	126.63
832.844	59.05
833.021	192.17
833.198	181.93
833.374	87.72
833.551	145.06
833.728	97.96
833.905	155.3
834.082	32.43
834.259	147.11
834.436	130.73
834.612	104.11
834.789	104.11
834.966	91.82
835.143	63.15
835.319	87.72
835.496	159.4
835.673	186.02
835.85	163.5
836.026	122.54
836.203	151.21
836.38	114.34
836.556	61.1
836.733	122.54
836.909	102.06
837.086	67.24
837.262	3.75
837.439	79.53
837.616	3.75
837.792	73.39
837.968	50.86
838.145	-0.34
838.321	120.49
838.498	143.02
838.674	91.82
838.851	120.49
839.027	112.3
839.203	24.23
839.38	143.02
839.556	65.19
839.732	171.69
839.909	163.5
840.085	79.53
840.261	-0.34
840.437	147.11
840.614	57
840.79	100.01
840.966	104.11
841.142	126.63
841.318	120.49
841.494	110.25
841.671	63.15
841.847	52.91
842.023	-8.53
842.199	63.15
842.375	132.78
842.551	-18.77
842.727	-65.88
842.903	132.78
843.079	61.1
843.255	155.3
843.431	50.86
843.607	57
843.783	-14.68
843.959	122.54
844.134	-4.44
844.31	91.82
844.486	13.99
844.662	69.29
844.838	38.57
845.013	147.11
845.189	126.63
845.365	34.47
845.541	73.39
845.716	155.3
845.892	128.68
846.068	-45.4
846.244	48.81
846.419	73.39
846.595	108.2
846.77	81.58
846.946	132.78
847.122	61.1
847.297	-16.73
847.473	165.54
847.648	11.95
847.824	151.21
847.999	20.14
848.175	149.16
848.35	136.87
848.526	128.68
848.701	83.63
848.876	85.67
849.052	65.19
849.227	24.23
849.403	1.71
849.578	106.15
849.753	118.44
849.929	61.1
850.104	100.01
850.279	34.47
850.454	87.72
850.63	61.1
850.805	52.91
850.98	44.71
851.155	11.95
851.33	44.71
851.505	-47.44
851.681	67.24
851.856	-61.78
852.031	36.52
852.206	67.24
852.381	59.05
852.556	-0.34
852.731	22.19
852.906	73.39
853.081	140.97
853.256	151.21
853.431	91.82
853.606	83.63
853.781	22.19
853.956	-53.59
854.131	20.14
854.305	13.99
854.48	20.14
854.655	54.95
854.83	9.9
855.005	20.14
855.18	26.28
855.354	63.15
855.529	-18.77
855.704	-18.77
855.879	65.19
856.053	-12.63
856.228	106.15
856.403	-8.53
856.577	67.24
856.752	-29.01
856.926	32.43
857.101	16.04
857.276	44.71
857.45	50.86
857.625	61.1
857.799	79.53
857.974	-6.49
858.148	106.15
858.323	79.53
858.497	85.67
858.672	38.57
858.846	67.24
859.02	52.91
859.195	-6.49
859.369	44.71
859.543	65.19
859.718	59.05
859.892	50.86
860.066	93.87
860.241	11.95
860.415	40.62
860.589	48.81
860.763	30.38
860.938	48.81
861.112	124.58
861.286	1.71
861.46	44.71
861.634	-8.53
861.808	126.63
861.982	36.52
862.157	-14.68
862.331	-18.77
862.505	9.9
862.679	-29.01
862.853	32.43
863.027	48.81
863.201	91.82
863.375	-6.49
863.549	26.28
863.722	1.71
863.896	77.48
864.07	1.71
864.244	54.95
864.418	71.34
864.592	32.43
864.766	38.57
864.939	104.11
865.113	-16.73
865.287	83.63
865.461	-74.07
865.634	16.04
865.808	7.85
865.982	-45.4
866.156	24.23
866.329	-16.73
866.503	-24.92
866.676	52.91
866.85	40.62
867.024	-0.34
867.197	38.57
867.371	16.04
867.544	32.43
867.718	3.75
867.891	28.33
868.065	-10.58
868.238	132.78
868.412	83.63
868.585	36.52
868.759	3.75
868.932	-49.49
869.105	18.09
869.279	20.14
869.452	-49.49
869.625	57
869.799	26.28
869.972	67.24
870.145	13.99
870.319	40.62
870.492	34.47
870.665	26.28
870.838	-10.58
871.011	7.85
871.185	16.04
871.358	75.43
871.531	7.85
871.704	-41.3
871.877	36.52
872.05	63.15
872.223	-22.87
872.396	30.38
872.569	42.67
872.742	-14.68
872.915	18.09
873.088	9.9
873.261	24.23
873.434	11.95
873.607	18.09
873.78	63.15
873.953	-20.82
874.126	59.05
874.299	16.04
874.471	32.43
874.644	-0.34
874.817	114.34
874.99	91.82
875.163	38.57
875.335	44.71
875.508	-8.53
875.681	24.23
875.853	7.85
876.026	40.62
876.199	34.47
876.371	24.23
876.544	73.39
876.717	40.62
876.889	42.67
877.062	-8.53
877.234	-41.3
877.407	13.99
877.579	73.39
877.752	40.62
877.924	48.81
878.097	-22.87
878.269	89.77
878.442	67.24
878.614	18.09
878.786	1.71
878.959	-4.44
879.131	-14.68
879.303	-49.49
879.476	-104.79
879.648	87.72
879.82	44.71
879.993	36.52
880.165	18.09
880.337	-65.88
880.509	3.75
880.681	-41.3
880.854	-12.63
881.026	91.82
881.198	155.3
881.37	-2.39
881.542	36.52
881.714	-10.58
881.886	32.43
882.058	26.28
882.23	50.86
882.402	-39.25
882.574	9.9
882.746	87.72
882.918	34.47
883.09	46.76
883.262	-4.44
883.434	46.76
883.606	-51.54
883.778	61.1
883.95	28.33
884.122	26.28
884.293	13.99
884.465	3.75
884.637	-10.58
884.809	-39.25
884.98	61.1
885.152	91.82
885.324	11.95
885.496	-4.44
885.667	26.28
885.839	-0.34
886.011	75.43
886.182	-2.39
886.354	-2.39
886.525	-20.82
886.697	-47.44
886.869	-2.39
887.04	-0.34
887.212	-24.92
887.383	20.14
887.555	30.38
887.726	-4.44
887.897	-16.73
888.069	81.58
888.24	36.52
888.412	28.33
888.583	59.05
888.754	-16.73
888.926	-6.49
889.097	7.85
889.268	-57.68
889.44	73.39
889.611	-37.2
889.782	-4.44
889.953	-49.49
890.125	69.29
890.296	40.62
890.467	-22.87
890.638	40.62
890.809	-2.39
890.98	16.04
891.151	-16.73
891.323	-2.39
891.494	16.04
891.665	5.8
891.836	67.24
892.007	38.57
892.178	79.53
892.349	32.43
892.52	-24.92
892.691	-8.53
892.862	22.19
893.032	3.75
893.203	-112.98
893.374	-47.44
893.545	120.49
893.716	-35.16
893.887	65.19
894.057	-24.92
894.228	16.04
894.399	-80.21
894.57	13.99
894.74	-24.92
894.911	-8.53
895.082	-39.25
895.253	1.71
895.423	7.85
895.594	24.23
895.764	22.19
895.935	-8.53
896.106	34.47
896.276	-115.03
896.447	13.99
896.617	30.38
896.788	-33.11
896.958	-16.73
897.129	24.23
897.299	-51.54
897.47	-18.77
897.64	22.19
897.81	-29.01
897.981	24.23
898.151	-4.44
898.322	28.33
898.492	-14.68
898.662	-45.4
898.832	-16.73
899.003	-2.39
899.173	54.95
899.343	-82.26
899.513	-41.3
