Data from USB4F104151__80__13-06-08-759.txt Node

Date: Fri Mar 14 13:06:08 EDT 2025
User: louis
Spectrometer: USB4F10415
Trigger mode: 4
Integration Time (sec): 4.000000E-2
Scans to average: 1
Electric dark correction enabled: true
Nonlinearity correction enabled: false
Boxcar width: 0
XAxis mode: Wavelengths
Number of Pixels in Spectrum: 3648
>>>>>Begin Spectral Data<<<<<
178.204	-170.15
178.424	-170.15
178.644	-170.15
178.864	-161.96
179.084	-209.06
179.304	-26.79
179.524	-39.08
179.744	46.93
179.964	30.55
180.184	46.93
180.404	-57.51
180.624	30.55
180.844	46.93
181.064	-59.56
181.283	-30.89
181.503	-0.17
181.723	12.12
181.943	-28.84
182.163	59.22
182.383	16.21
182.602	116.56
182.822	108.37
183.042	83.8
183.262	-30.89
183.482	-4.27
183.701	-28.84
183.921	32.6
184.141	81.75
184.361	94.04
184.58	16.21
184.8	98.13
185.02	-39.08
185.239	22.36
185.459	24.4
185.679	75.6
185.898	-26.79
186.118	118.61
186.338	73.56
186.557	102.23
186.777	-47.27
186.997	10.07
187.216	110.42
187.436	94.04
187.655	48.98
187.875	65.36
188.095	34.64
188.314	67.41
188.534	42.84
188.753	-10.41
188.973	63.32
189.192	94.04
189.412	14.17
189.631	14.17
189.851	85.84
190.07	102.23
190.29	1.88
190.509	-0.17
190.729	-22.7
190.948	77.65
191.168	241.49
191.387	53.08
191.607	-34.99
191.826	79.7
192.045	18.26
192.265	12.12
192.484	108.37
192.704	32.6
192.923	10.07
193.142	210.77
193.362	46.93
193.581	67.41
193.8	18.26
194.02	67.41
194.239	42.84
194.458	59.22
194.678	12.12
194.897	100.18
195.116	40.79
195.335	36.69
195.555	75.6
195.774	36.69
195.993	42.84
196.212	10.07
196.432	65.36
196.651	87.89
196.87	1.88
197.089	149.33
197.308	34.64
197.528	44.88
197.747	-39.08
197.966	79.7
198.185	69.46
198.404	3.93
198.623	61.27
198.842	28.5
199.062	100.18
199.281	100.18
199.5	42.84
199.719	57.17
199.938	118.61
200.157	53.08
200.376	104.28
200.595	102.23
200.814	42.84
201.033	55.12
201.252	8.02
201.471	44.88
201.69	102.23
201.909	-10.41
202.128	85.84
202.347	20.31
202.566	16.21
202.785	55.12
203.004	-47.27
203.223	126.8
203.442	116.56
203.661	3.93
203.879	83.8
204.098	137.04
204.317	-43.18
204.536	75.6
204.755	83.8
204.974	-43.18
205.193	-6.31
205.411	51.03
205.63	-6.31
205.849	51.03
206.068	18.26
206.287	94.04
206.505	1.88
206.724	1.88
206.943	-30.89
207.162	116.56
207.381	59.22
207.599	10.07
207.818	67.41
208.037	18.26
208.255	3.93
208.474	42.84
208.693	61.27
208.911	14.17
209.13	44.88
209.349	75.6
209.567	98.13
209.786	108.37
210.005	69.46
210.223	10.07
210.442	-28.84
210.661	69.46
210.879	8.02
211.098	16.21
211.316	22.36
211.535	77.65
211.753	5.97
211.972	63.32
212.191	110.42
212.409	83.8
212.628	89.94
212.846	46.93
213.065	34.64
213.283	153.43
213.502	18.26
213.72	75.6
213.938	-22.7
214.157	30.55
214.375	12.12
214.594	57.17
214.812	71.51
215.031	46.93
215.249	51.03
215.467	8.02
215.686	10.07
215.904	73.56
216.122	42.84
216.341	102.23
216.559	79.7
216.778	81.75
216.996	122.71
217.214	36.69
217.432	-4.27
217.651	1.88
217.869	75.6
218.087	83.8
218.306	30.55
218.524	28.5
218.742	16.21
218.96	85.84
219.179	42.84
219.397	38.74
219.615	108.37
219.833	57.17
220.051	26.45
220.27	102.23
220.488	55.12
220.706	79.7
220.924	3.93
221.142	69.46
221.36	48.98
221.578	77.65
221.796	20.31
222.015	40.79
222.233	20.31
222.451	100.18
222.669	77.65
222.887	61.27
223.105	5.97
223.323	28.5
223.541	53.08
223.759	14.17
223.977	32.6
224.195	104.28
224.413	75.6
224.631	26.45
224.849	69.46
225.067	104.28
225.285	42.84
225.503	83.8
225.721	14.17
225.939	30.55
226.157	28.5
226.375	141.14
226.592	59.22
226.81	51.03
227.028	108.37
227.246	63.32
227.464	5.97
227.682	83.8
227.9	30.55
228.117	91.99
228.335	36.69
228.553	48.98
228.771	20.31
228.989	48.98
229.206	69.46
229.424	-6.31
229.642	-57.51
229.86	71.51
230.077	102.23
230.295	-20.65
230.513	124.76
230.731	106.32
230.948	65.36
231.166	120.66
231.384	18.26
231.601	28.5
231.819	94.04
232.037	-2.22
232.254	-30.89
232.472	51.03
232.689	55.12
232.907	91.99
233.125	5.97
233.342	81.75
233.56	22.36
233.777	100.18
233.995	30.55
234.213	112.47
234.43	40.79
234.648	1.88
234.865	12.12
235.083	28.5
235.3	-49.32
235.518	79.7
235.735	18.26
235.953	77.65
236.17	30.55
236.388	1.88
236.605	79.7
236.822	100.18
237.04	40.79
237.257	10.07
237.475	-28.84
237.692	18.26
237.909	48.98
238.127	83.8
238.344	42.84
238.562	59.22
238.779	1.88
238.996	16.21
239.214	34.64
239.431	149.33
239.648	42.84
239.865	104.28
240.083	73.56
240.3	40.79
240.517	5.97
240.735	34.64
240.952	96.08
241.169	38.74
241.386	48.98
241.603	73.56
241.821	75.6
242.038	75.6
242.255	-10.41
242.472	-16.55
242.689	91.99
242.907	83.8
243.124	118.61
243.341	34.64
243.558	-39.08
243.775	40.79
243.992	-45.23
244.209	108.37
244.426	116.56
244.643	36.69
244.86	59.22
245.078	51.03
245.295	26.45
245.512	26.45
245.729	63.32
245.946	67.41
246.163	83.8
246.38	34.64
246.597	-32.94
246.814	-8.36
247.031	-14.51
247.248	63.32
247.464	59.22
247.681	28.5
247.898	98.13
248.115	91.99
248.332	42.84
248.549	108.37
248.766	42.84
248.983	118.61
249.2	51.03
249.417	28.5
249.633	42.84
249.85	18.26
250.067	55.12
250.284	57.17
250.501	-22.7
250.717	53.08
250.934	-14.51
251.151	65.36
251.368	3.93
251.585	12.12
251.801	96.08
252.018	3.93
252.235	63.32
252.451	85.84
252.668	38.74
252.885	96.08
253.102	51.03
253.318	12.12
253.535	-26.79
253.752	141.14
253.968	53.08
254.185	-14.51
254.401	73.56
254.618	94.04
254.835	-77.99
255.051	116.56
255.268	178
255.484	100.18
255.701	85.84
255.917	30.55
256.134	3.93
256.351	18.26
256.567	-55.47
256.784	96.08
257	30.55
257.217	141.14
257.433	118.61
257.65	85.84
257.866	75.6
258.082	-71.85
258.299	77.65
258.515	34.64
258.732	14.17
258.948	1.88
259.165	16.21
259.381	40.79
259.597	85.84
259.814	1.88
260.03	40.79
260.246	77.65
260.463	73.56
260.679	-34.99
260.895	83.8
261.112	89.94
261.328	-4.27
261.544	-71.85
261.761	141.14
261.977	22.36
262.193	-51.37
262.409	75.6
262.626	98.13
262.842	69.46
263.058	44.88
263.274	46.93
263.49	38.74
263.707	67.41
263.923	5.97
264.139	-6.31
264.355	59.22
264.571	96.08
264.787	-6.31
265.004	36.69
265.22	57.17
265.436	-26.79
265.652	94.04
265.868	30.55
266.084	26.45
266.3	102.23
266.516	-47.27
266.732	59.22
266.948	26.45
267.164	96.08
267.38	65.36
267.596	85.84
267.812	141.14
268.028	55.12
268.244	61.27
268.46	26.45
268.676	51.03
268.892	145.24
269.108	12.12
269.324	3.93
269.54	34.64
269.756	65.36
269.972	22.36
270.188	42.84
270.403	-39.08
270.619	22.36
270.835	-20.65
271.051	28.5
271.267	1.88
271.483	-22.7
271.698	124.76
271.914	69.46
272.13	44.88
272.346	48.98
272.562	12.12
272.777	108.37
272.993	-30.89
273.209	102.23
273.425	53.08
273.64	1.88
273.856	132.95
274.072	-6.31
274.287	-26.79
274.503	71.51
274.719	153.43
274.934	48.98
275.15	30.55
275.366	71.51
275.581	63.32
275.797	77.65
276.012	26.45
276.228	18.26
276.444	-22.7
276.659	71.51
276.875	59.22
277.09	42.84
277.306	89.94
277.521	128.85
277.737	51.03
277.952	34.64
278.168	69.46
278.383	77.65
278.599	20.31
278.814	36.69
279.03	26.45
279.245	132.95
279.461	40.79
279.676	14.17
279.892	12.12
280.107	75.6
280.322	-43.18
280.538	36.69
280.753	85.84
280.969	12.12
281.184	-2.22
281.399	141.14
281.615	38.74
281.83	59.22
282.045	22.36
282.26	34.64
282.476	42.84
282.691	44.88
282.906	46.93
283.122	24.4
283.337	-32.94
283.552	3.93
283.767	16.21
283.983	20.31
284.198	22.36
284.413	102.23
284.628	-12.46
284.843	32.6
285.058	112.47
285.274	20.31
285.489	32.6
285.704	53.08
285.919	42.84
286.134	34.64
286.349	-8.36
286.564	-2.22
286.779	69.46
286.995	85.84
287.21	-41.13
287.425	59.22
287.64	26.45
287.855	63.32
288.07	-51.37
288.285	102.23
288.5	57.17
288.715	83.8
288.93	59.22
289.145	59.22
289.36	102.23
289.575	12.12
289.79	173.91
290.004	65.36
290.219	57.17
290.434	44.88
290.649	53.08
290.864	-8.36
291.079	42.84
291.294	83.8
291.509	65.36
291.724	34.64
291.938	-20.65
292.153	63.32
292.368	28.5
292.583	14.17
292.798	-43.18
293.012	32.6
293.227	-4.27
293.442	36.69
293.657	94.04
293.871	85.84
294.086	61.27
294.301	75.6
294.516	135
294.73	22.36
294.945	-86.19
295.16	-4.27
295.374	132.95
295.589	26.45
295.804	18.26
296.018	83.8
296.233	100.18
296.447	42.84
296.662	30.55
296.877	112.47
297.091	14.17
297.306	83.8
297.52	10.07
297.735	89.94
297.949	-20.65
298.164	34.64
298.378	32.6
298.593	-14.51
298.807	8.02
299.022	53.08
299.236	34.64
299.451	-34.99
299.665	24.4
299.88	53.08
300.094	32.6
300.309	94.04
300.523	151.38
300.737	108.37
300.952	-18.6
301.166	51.03
301.381	14.17
301.595	34.64
301.809	44.88
302.024	-77.99
302.238	-14.51
302.452	53.08
302.667	71.51
302.881	124.76
303.095	91.99
303.309	44.88
303.524	26.45
303.738	87.89
303.952	-2.22
304.166	96.08
304.381	-12.46
304.595	73.56
304.809	44.88
305.023	28.5
305.237	48.98
305.452	34.64
305.666	46.93
305.88	71.51
306.094	77.65
306.308	106.32
306.522	135
306.736	175.95
306.95	12.12
307.164	44.88
307.379	75.6
307.593	143.19
307.807	24.4
308.021	61.27
308.235	53.08
308.449	51.03
308.663	130.9
308.877	171.86
309.091	-30.89
309.305	67.41
309.519	26.45
309.733	85.84
309.947	-2.22
310.161	-2.22
310.374	18.26
310.588	120.66
310.802	69.46
311.016	12.12
311.23	83.8
311.444	18.26
311.658	30.55
311.872	57.17
312.085	71.51
312.299	98.13
312.513	116.56
312.727	63.32
312.941	-14.51
313.154	55.12
313.368	63.32
313.582	20.31
313.796	34.64
314.009	63.32
314.223	71.51
314.437	28.5
314.651	51.03
314.864	34.64
315.078	32.6
315.292	65.36
315.505	42.84
315.719	67.41
315.933	69.46
316.146	20.31
316.36	26.45
316.573	63.32
316.787	16.21
317.001	87.89
317.214	-53.42
317.428	71.51
317.641	20.31
317.855	-16.55
318.068	94.04
318.282	57.17
318.495	153.43
318.709	46.93
318.922	26.45
319.136	87.89
319.349	30.55
319.563	89.94
319.776	69.46
319.99	-24.75
320.203	110.42
320.417	34.64
320.63	67.41
320.843	132.95
321.057	38.74
321.27	81.75
321.483	79.7
321.697	124.76
321.91	46.93
322.124	87.89
322.337	132.95
322.55	-10.41
322.763	53.08
322.977	18.26
323.19	81.75
323.403	44.88
323.617	34.64
323.83	126.8
324.043	10.07
324.256	53.08
324.469	-32.94
324.683	106.32
324.896	20.31
325.109	3.93
325.322	30.55
325.535	141.14
325.748	147.28
325.962	51.03
326.175	30.55
326.388	44.88
326.601	81.75
326.814	32.6
327.027	83.8
327.24	94.04
327.453	14.17
327.666	104.28
327.879	87.89
328.092	-4.27
328.305	98.13
328.518	38.74
328.731	14.17
328.944	59.22
329.157	42.84
329.37	46.93
329.583	69.46
329.796	94.04
330.009	-28.84
330.222	110.42
330.435	57.17
330.648	30.55
330.861	71.51
331.073	61.27
331.286	-24.75
331.499	75.6
331.712	-51.37
331.925	51.03
332.138	87.89
332.35	151.38
332.563	-0.17
332.776	1.88
332.989	5.97
333.202	8.02
333.414	-0.17
333.627	81.75
333.84	102.23
334.053	55.12
334.265	32.6
334.478	83.8
334.691	137.04
334.903	12.12
335.116	81.75
335.329	98.13
335.541	67.41
335.754	157.52
335.966	32.6
336.179	-24.75
336.392	81.75
336.604	53.08
336.817	61.27
337.029	104.28
337.242	75.6
337.454	83.8
337.667	126.8
337.88	51.03
338.092	-14.51
338.305	3.93
338.517	10.07
338.729	132.95
338.942	69.46
339.154	14.17
339.367	53.08
339.579	44.88
339.792	1.88
340.004	42.84
340.217	69.46
340.429	51.03
340.641	16.21
340.854	44.88
341.066	14.17
341.278	83.8
341.491	124.76
341.703	46.93
341.915	-18.6
342.128	28.5
342.34	-12.46
342.552	71.51
342.764	5.97
342.977	67.41
343.189	63.32
343.401	36.69
343.613	-24.75
343.826	75.6
344.038	3.93
344.25	46.93
344.462	3.93
344.674	85.84
344.886	102.23
345.099	137.04
345.311	67.41
345.523	69.46
345.735	28.5
345.947	110.42
346.159	94.04
346.371	145.24
346.583	18.26
346.795	155.47
347.007	46.93
347.219	135
347.431	-49.32
347.643	126.8
347.855	67.41
348.067	79.7
348.279	55.12
348.491	48.98
348.703	46.93
348.915	28.5
349.127	-4.27
349.339	-4.27
349.551	46.93
349.763	42.84
349.975	40.79
350.187	118.61
350.399	85.84
350.61	24.4
350.822	30.55
351.034	81.75
351.246	20.31
351.458	124.76
351.669	18.26
351.881	108.37
352.093	77.65
352.305	59.22
352.517	102.23
352.728	128.85
352.94	44.88
353.152	51.03
353.363	63.32
353.575	112.47
353.787	102.23
353.999	42.84
354.21	100.18
354.422	61.27
354.633	18.26
354.845	28.5
355.057	12.12
355.268	102.23
355.48	42.84
355.692	55.12
355.903	55.12
356.115	28.5
356.326	-0.17
356.538	57.17
356.749	53.08
356.961	124.76
357.172	24.4
357.384	12.12
357.595	149.33
357.807	-0.17
358.018	36.69
358.23	42.84
358.441	161.62
358.653	89.94
358.864	42.84
359.075	87.89
359.287	122.71
359.498	81.75
359.709	-16.55
359.921	40.79
360.132	94.04
360.344	71.51
360.555	26.45
360.766	128.85
360.977	-2.22
361.189	63.32
361.4	85.84
361.611	124.76
361.823	141.14
362.034	69.46
362.245	-24.75
362.456	12.12
362.667	135
362.879	87.89
363.09	63.32
363.301	48.98
363.512	51.03
363.723	-22.7
363.935	-2.22
364.146	28.5
364.357	57.17
364.568	89.94
364.779	-26.79
364.99	85.84
365.201	104.28
365.412	75.6
365.623	30.55
365.834	63.32
366.045	81.75
366.256	12.12
366.467	55.12
366.678	61.27
366.889	108.37
367.1	102.23
367.311	104.28
367.522	57.17
367.733	89.94
367.944	124.76
368.155	51.03
368.366	77.65
368.577	83.8
368.788	151.38
368.999	1.88
369.209	83.8
369.42	116.56
369.631	192.34
369.842	126.8
370.053	14.17
370.264	63.32
370.474	-32.94
370.685	83.8
370.896	55.12
371.107	40.79
371.317	20.31
371.528	75.6
371.739	100.18
371.95	153.43
372.16	91.99
372.371	12.12
372.582	36.69
372.792	26.45
373.003	126.8
373.214	100.18
373.424	102.23
373.635	63.32
373.846	71.51
374.056	79.7
374.267	87.89
374.477	20.31
374.688	26.45
374.898	89.94
375.109	59.22
375.319	51.03
375.53	46.93
375.74	108.37
375.951	1.88
376.161	77.65
376.372	106.32
376.582	18.26
376.793	59.22
377.003	3.93
377.214	44.88
377.424	79.7
377.635	-4.27
377.845	57.17
378.055	77.65
378.266	-6.31
378.476	18.26
378.686	126.8
378.897	149.33
379.107	151.38
379.317	42.84
379.528	51.03
379.738	75.6
379.948	28.5
380.158	108.37
380.369	73.56
380.579	87.89
380.789	16.21
380.999	36.69
381.21	91.99
381.42	57.17
381.63	122.71
381.84	69.46
382.05	75.6
382.261	34.64
382.471	153.43
382.681	18.26
382.891	108.37
383.101	69.46
383.311	10.07
383.521	51.03
383.731	106.32
383.941	61.27
384.151	40.79
384.361	8.02
384.571	57.17
384.781	124.76
384.991	116.56
385.201	87.89
385.411	141.14
385.621	147.28
385.831	30.55
386.041	79.7
386.251	132.95
386.461	38.74
386.671	26.45
386.881	48.98
387.091	67.41
387.301	114.52
387.511	81.75
387.72	38.74
387.93	48.98
388.14	10.07
388.35	151.38
388.56	83.8
388.769	202.58
388.979	1.88
389.189	-34.99
389.399	69.46
389.609	65.36
389.818	149.33
390.028	91.99
390.238	83.8
390.447	53.08
390.657	96.08
390.867	102.23
391.076	46.93
391.286	38.74
391.496	-4.27
391.705	16.21
391.915	110.42
392.125	102.23
392.334	104.28
392.544	182.1
392.753	100.18
392.963	28.5
393.172	87.89
393.382	14.17
393.591	214.87
393.801	67.41
394.01	149.33
394.22	20.31
394.429	85.84
394.639	94.04
394.848	85.84
395.058	57.17
395.267	46.93
395.477	106.32
395.686	89.94
395.895	198.48
396.105	126.8
396.314	132.95
396.524	44.88
396.733	98.13
396.942	151.38
397.152	102.23
397.361	130.9
397.57	145.24
397.78	85.84
397.989	137.04
398.198	208.72
398.407	98.13
398.617	106.32
398.826	173.91
399.035	-0.17
399.244	116.56
399.453	132.95
399.663	69.46
399.872	151.38
400.081	61.27
400.29	194.39
400.499	69.46
400.708	200.53
400.917	81.75
401.127	151.38
401.336	112.47
401.545	132.95
401.754	167.76
401.963	110.42
402.172	77.65
402.381	110.42
402.59	104.28
402.799	190.29
403.008	173.91
403.217	198.48
403.426	165.71
403.635	188.24
403.844	139.09
404.053	178
404.262	118.61
404.471	239.44
404.68	180.05
404.888	151.38
405.097	159.57
405.306	163.67
405.515	175.95
405.724	233.3
405.933	151.38
406.142	192.34
406.35	239.44
406.559	233.3
406.768	255.83
406.977	184.15
407.185	241.49
407.394	214.87
407.603	196.43
407.812	251.73
408.02	294.74
408.229	202.58
408.438	216.91
408.646	182.1
408.855	300.88
409.064	227.15
409.272	313.17
409.481	335.7
409.69	278.35
409.898	317.26
410.107	362.32
410.315	333.65
410.524	337.74
410.733	339.79
410.941	364.37
411.15	411.47
411.358	395.09
411.567	448.33
411.775	456.53
411.984	497.49
412.192	530.25
412.401	458.57
412.609	542.54
412.818	577.36
413.026	583.5
413.234	505.68
413.443	646.99
413.651	526.16
413.86	589.64
414.068	755.53
414.276	653.13
414.485	610.12
414.693	700.23
414.901	782.15
415.11	800.59
415.318	753.48
415.526	855.88
415.734	868.17
415.943	823.11
416.151	952.13
416.359	843.59
416.567	995.14
416.776	960.33
416.984	1124.16
417.192	1093.44
417.4	1029.96
417.608	989
417.817	1113.92
418.025	1242.95
418.233	1298.24
418.441	1206.08
418.649	1312.58
418.857	1341.25
419.065	1546.05
419.273	1347.39
419.481	1457.98
419.689	1488.7
419.897	1615.68
420.105	1691.45
420.313	1707.84
420.521	1711.93
420.729	1791.8
420.937	1767.23
421.145	1881.91
421.353	1972.02
421.561	2101.05
421.769	2172.72
421.977	2230.07
422.185	2273.07
422.393	2348.85
422.601	2545.45
422.809	2434.86
423.017	2527.02
423.224	2670.38
423.432	2662.19
423.64	2717.48
423.848	2821.93
424.056	2836.27
424.263	3172.13
424.471	3067.69
424.679	3186.47
424.887	3288.87
425.094	3499.81
425.302	3460.9
425.51	3630.88
425.718	3749.66
425.925	3698.46
426.133	3981.08
426.341	4011.8
426.548	4138.77
426.756	4218.64
426.964	4296.47
427.171	4534.03
427.379	4716.3
427.586	4728.59
427.794	4914.95
428.001	5175.05
428.209	5205.77
428.417	5191.43
428.624	5635.84
428.832	5736.19
429.039	5435.14
429.247	5607.17
429.454	6149.88
429.662	6590.19
429.869	6113.02
430.076	6526.71
430.284	6407.92
430.491	6708.97
430.699	7024.36
430.906	7100.14
431.114	7184.1
431.321	7395.04
431.528	7577.31
431.736	7845.6
431.943	8357.59
432.15	8191.7
432.358	8183.51
432.565	8865.49
432.772	8654.55
432.979	9166.54
433.187	9162.44
433.394	9221.83
433.601	9987.77
433.808	9969.34
434.016	10010.3
434.223	10423.99
434.43	11046.57
434.637	10720.95
434.844	11382.44
435.052	11583.14
435.259	11507.37
435.466	11703.97
435.673	11648.68
435.88	12263.07
436.087	12715.67
436.294	12947.09
436.501	12908.18
436.708	12879.5
436.915	13438.6
437.122	13936.26
437.329	14151.29
437.537	14548.6
437.743	14657.14
437.95	14399.1
438.157	15220.33
438.364	15855.2
438.571	15619.69
438.778	15693.41
438.985	17294.93
439.192	16655.96
439.399	17204.81
439.606	16860.76
439.813	17745.48
440.02	18734.65
440.227	18540.09
440.433	18208.32
440.64	19097.14
440.847	18910.77
441.054	19283.5
441.261	20561.44
441.467	20049.44
441.674	20749.85
441.881	21354
442.088	21620.24
442.294	21505.55
442.501	21966.34
442.708	22169.09
442.914	23164.4
443.121	23881.19
443.328	23344.63
443.534	24917.47
443.741	24333.79
443.948	24352.23
444.154	26086.86
444.361	25695.69
444.568	25740.75
444.774	25748.94
444.981	25814.48
445.187	27051.45
445.394	28288.42
445.6	28016.04
445.807	30473.6
446.013	28937.63
446.22	29832.59
446.426	30975.36
446.633	31139.19
446.839	32435.56
447.046	30686.59
447.252	32572.77
447.459	32406.89
447.665	32413.03
447.871	34061.65
448.078	35278.14
448.284	33668.44
448.491	34420.04
448.697	36046.13
448.903	36689.19
449.11	36783.4
449.316	36117.81
449.522	37131.55
449.728	37850.39
449.935	37786.9
450.141	38034.7
450.347	39144.7
450.553	37649.69
450.76	38464.78
450.966	40000.75
451.172	39218.43
451.378	40135.92
451.584	39253.25
451.791	40539.37
451.997	40506.6
452.203	41207.01
452.409	41229.54
452.615	41067.75
452.821	39507.19
453.027	39060.74
453.233	41198.82
453.44	39664.89
453.646	39920.88
453.852	40166.64
454.058	40733.93
454.264	39439.61
454.47	40772.84
454.676	39521.53
454.882	41305.31
455.088	37313.82
455.294	38096.14
455.5	38655.24
455.705	38749.45
455.911	37397.79
456.117	36664.61
456.323	36230.44
456.529	34399.56
456.735	35657.01
456.941	34739.52
457.147	34305.35
457.352	33449.3
457.558	33131.87
457.764	33144.16
457.97	32611.68
458.176	31767.92
458.381	31952.24
458.587	30285.19
458.793	30326.15
458.999	28837.28
459.204	30598.53
459.41	29816.21
459.616	28011.95
459.821	27755.95
460.027	27901.36
460.233	27098.55
460.438	26164.68
460.644	26299.84
460.85	25101.78
461.055	24638.94
461.261	24792.54
461.466	22889.98
461.672	22025.73
461.878	23766.51
462.083	22126.08
462.289	21859.85
462.494	21579.28
462.7	20790.81
462.905	19899.94
463.111	20710.94
463.316	20868.63
463.522	20071.97
463.727	20354.59
463.932	20456.99
464.138	20067.88
464.343	19990.05
464.549	19605.03
464.754	20010.53
464.959	19936.81
465.165	19953.19
465.37	19308.08
465.575	18478.65
465.781	19164.72
465.986	19361.33
466.191	18492.99
466.397	18333.25
466.602	17391.18
466.807	18251.33
467.012	18099.78
467.218	17886.79
467.423	17819.21
467.628	17962.56
467.833	18656.82
468.038	17923.65
468.244	17282.64
468.449	18230.85
468.654	17335.88
468.859	17251.92
469.064	17403.47
469.269	16375.39
469.474	16658.01
469.679	17155.66
469.885	16502.36
470.09	17026.64
470.295	16797.27
470.5	16277.08
470.705	16342.62
470.91	16146.01
471.115	15808.1
471.32	16426.59
471.525	15906.4
471.73	15681.13
471.935	15672.93
472.139	15162.99
472.344	15406.7
472.549	15130.22
472.754	14927.47
472.959	14708.34
473.164	14288.51
473.369	14468.73
473.574	14845.55
473.778	14607.99
473.983	14417.53
474.188	14423.67
474.393	13512.33
474.598	13708.93
474.802	13473.42
475.007	13448.84
475.212	13549.19
475.417	12938.9
475.621	13209.23
475.826	13145.74
476.031	12852.88
476.235	12566.17
476.44	12986
476.645	12631.7
476.849	12529.3
477.054	12355.22
477.259	12308.12
477.463	12463.77
477.668	11945.63
477.872	12273.31
478.077	11843.23
478.282	11529.89
478.486	11577
478.691	11540.13
478.895	11296.42
479.1	11312.81
479.304	11519.65
479.509	11177.64
479.713	11380.39
479.918	10811.06
480.122	10925.74
480.326	11105.96
480.531	10950.32
480.735	10892.98
480.94	10727.09
481.144	11118.25
481.348	10550.96
481.553	10702.51
481.757	10641.07
481.961	10557.11
482.166	10796.72
482.37	10532.53
482.574	10565.3
482.778	10512.05
482.983	10778.29
483.187	10430.13
483.391	10768.05
483.595	10444.47
483.8	10208.95
484.004	10421.94
484.208	10929.84
484.412	10454.71
484.616	10526.39
484.821	10618.55
485.025	10163.9
485.229	10348.22
485.433	10542.77
485.637	10411.7
485.841	10229.43
486.045	10469.05
486.249	10548.92
486.453	10475.19
486.657	10671.79
486.861	10667.7
487.065	10333.88
487.269	10430.13
487.473	10266.3
487.677	10510
487.881	10589.88
488.085	10538.68
488.289	10495.67
488.493	10577.59
488.697	10641.07
488.901	10540.72
489.105	10442.42
489.309	10604.21
489.512	10639.03
489.716	10608.31
489.92	10491.57
490.124	10585.78
490.328	10694.32
490.531	10559.16
490.735	11001.52
490.939	10888.88
491.143	10702.51
491.346	10710.71
491.55	10907.31
491.754	10852.02
491.958	10913.45
492.161	10950.32
492.365	11144.88
492.569	10954.41
492.772	11114.16
492.976	11161.26
493.18	11167.4
493.383	11273.9
493.587	11048.62
493.79	11488.93
493.994	11701.92
494.197	11601.57
494.401	11726.5
494.605	11855.52
494.808	11775.65
495.012	11794.08
495.215	12011.17
495.419	12082.84
495.622	11945.63
495.825	12201.63
496.029	12170.91
496.232	12349.08
496.436	12361.37
496.639	12662.42
496.843	12521.11
497.046	12875.41
497.249	12797.59
497.453	13092.49
497.656	13151.88
497.859	13172.36
498.063	13299.34
498.266	13682.31
498.469	13307.53
498.673	13831.81
498.876	13848.19
499.079	13987.46
499.282	14012.03
499.485	14413.43
499.689	14466.68
499.892	14773.88
500.095	14503.54
500.298	15009.39
500.501	14913.14
500.705	15330.92
500.908	15535.72
501.111	15447.66
501.314	15593.06
501.517	15906.4
501.72	16115.3
501.923	16045.66
502.126	16402.01
502.329	16944.72
502.532	16553.56
502.735	17034.83
502.938	17043.03
503.141	17215.05
503.344	17516.11
503.547	17335.88
503.75	17948.23
503.953	18034.24
504.156	18411.07
504.359	18427.45
504.562	18484.8
504.765	18843.19
504.968	19019.32
505.17	19109.43
505.373	19351.09
505.576	19656.23
505.779	19715.62
505.982	19795.5
506.185	20438.56
506.387	20123.17
506.59	20659.74
506.793	21098
506.996	20774.42
507.198	21571.08
507.401	21413.39
507.604	21657.1
507.807	22158.85
508.009	22083.08
508.212	21978.63
508.415	22322.69
508.617	22771.19
508.82	22935.03
509.022	22892.02
509.225	23588.33
509.428	23530.99
509.63	23809.51
509.833	23545.33
510.035	24356.32
510.238	24296.93
510.44	24780.25
510.643	25118.17
510.845	25304.53
511.048	24923.61
511.25	25269.72
511.453	25357.78
511.655	26758.59
511.858	26029.51
512.06	26645.95
512.262	26672.57
512.465	26903.99
512.667	27372.98
512.87	27723.18
513.072	27159.99
513.274	27952.55
513.477	28200.36
513.679	28659.1
513.881	28579.23
514.084	29199.77
514.286	29001.11
514.488	29427.09
514.69	29996.43
514.893	29973.9
515.095	30203.27
515.297	30324.1
515.499	30700.93
515.701	31090.04
515.904	31663.47
516.106	31417.72
516.308	31837.55
516.51	31989.1
516.712	31980.91
516.914	32601.44
517.116	33004.89
517.318	33303.9
517.52	33250.65
517.722	33342.81
517.925	33799.51
518.127	34334.03
518.329	34786.63
518.531	34202.96
518.733	34803.01
518.935	35595.57
519.136	35536.18
519.338	35611.96
519.54	36115.76
519.742	36623.65
519.944	36609.32
520.146	37016.86
520.348	36799.78
520.55	37262.62
520.752	37279
520.954	38278.41
521.155	37399.83
521.357	38307.08
521.559	38647.05
521.761	39116.03
521.963	38935.81
522.164	38976.77
522.366	39177.47
522.568	39888.12
522.77	40185.07
522.971	40353.01
523.173	40082.67
523.375	41047.27
523.576	40795.37
523.778	40570.09
523.98	41166.05
524.181	41471.2
524.383	41510.11
524.584	41684.19
524.786	42253.52
524.988	41884.89
525.189	42443.98
525.391	42882.25
525.592	42800.33
525.794	42925.25
525.995	42994.89
526.197	42986.69
526.398	43447.49
526.6	43539.64
526.801	43801.78
527.003	43691.19
527.204	44111.03
527.406	44231.86
527.607	44319.92
527.808	44522.67
528.01	43734.2
528.211	44463.28
528.412	44979.37
528.614	44872.87
528.815	44940.46
529.016	45014.18
529.218	45020.33
529.419	45192.36
529.62	45153.44
529.822	45104.29
530.023	45221.03
530.224	45784.22
530.425	45200.55
530.626	45151.4
530.828	45350.05
531.029	46257.3
531.23	45425.82
531.431	45610.14
531.632	46118.04
531.833	46359.7
532.035	45823.13
532.236	46384.27
532.437	46380.18
532.638	45804.7
532.839	46271.64
533.04	46525.58
533.241	45833.37
533.442	47144.07
533.643	46640.27
533.844	46333.07
534.045	46800.01
534.246	46021.78
534.447	47058.06
534.648	46435.47
534.849	46906.51
535.05	46183.57
535.251	46828.68
535.451	46263.44
535.652	46804.11
535.853	46199.96
536.054	46959.75
536.255	46984.33
536.456	46380.18
536.657	46797.96
536.857	46490.77
537.058	46652.56
537.259	46677.13
537.46	46812.3
537.66	46556.3
537.861	46494.86
538.062	46376.08
538.263	46722.19
538.463	46333.07
538.664	46632.08
538.865	46867.59
539.065	46740.62
539.266	46390.42
539.466	47342.72
539.667	46161.04
539.868	46906.51
540.068	46695.56
540.269	46308.5
540.469	46830.73
540.67	46789.77
540.87	46519.44
541.071	46324.88
541.271	46746.76
541.472	46761.1
541.672	46105.75
541.873	46572.69
542.073	46103.7
542.274	46955.66
542.474	46013.59
542.675	45929.62
542.875	46498.96
543.075	46118.04
543.276	45468.83
543.476	46402.71
543.676	46136.47
543.877	46197.91
544.077	46378.13
544.277	46505.1
544.478	46142.61
544.678	46353.55
544.878	45962.39
545.078	46279.83
545.279	46310.55
545.479	45911.19
545.679	46294.16
545.879	46007.45
546.079	46115.99
546.28	46408.85
546.48	45720.73
546.68	46468.24
546.88	46290.07
547.08	46185.62
547.28	46318.74
547.48	46099.61
547.68	46326.93
547.88	45984.92
548.081	46251.16
548.281	46408.85
548.481	46077.08
548.681	46670.99
548.881	46134.42
549.081	45642.91
549.28	46001.3
549.48	46189.72
549.68	45720.73
549.88	46384.27
550.08	45759.64
550.28	46288.02
550.48	45782.17
550.68	45972.63
550.88	45784.22
551.08	45485.22
551.279	45429.92
551.479	45434.02
551.679	45982.87
551.879	45747.36
552.079	45907.1
552.278	45694.11
552.478	45593.76
552.678	45859.99
552.878	46050.45
553.077	45581.47
553.277	44752.04
553.477	45968.54
553.676	45399.2
553.876	45214.88
554.076	45378.72
554.275	45393.06
554.475	44692.65
554.674	45552.8
554.874	45687.96
555.074	44889.26
555.273	45335.71
555.473	45622.43
555.672	45436.06
555.872	45210.79
556.071	45102.25
556.271	45370.53
556.47	44885.16
556.67	44541.1
556.869	45552.8
557.068	45352.1
557.268	44909.74
557.467	44973.22
557.667	44666.03
557.866	45092.01
558.065	45114.53
558.265	44430.51
558.464	44717.23
558.663	45216.93
558.863	44420.27
559.062	45323.43
559.261	44018.87
559.461	44729.51
559.66	44332.21
559.859	44330.16
560.058	43928.76
560.258	44483.76
560.457	43629.76
560.656	44168.37
560.855	43926.71
561.054	44266.67
561.253	43629.76
561.453	43857.08
561.652	43977.91
561.851	43801.78
562.05	43730.11
562.249	43465.92
562.448	43928.76
562.647	43517.12
562.846	43111.62
563.045	43328.7
563.244	42935.49
563.443	43599.04
563.642	43044.04
563.841	43297.98
564.04	42921.16
564.239	43293.89
564.438	42826.95
564.637	43381.95
564.836	43166.91
565.035	42345.68
565.234	42706.12
565.432	42626.25
565.631	42439.89
565.83	42523.85
566.029	42220.75
566.228	42284.24
566.427	42443.98
566.625	41905.37
566.824	41827.54
567.023	42110.16
567.222	41475.29
567.42	41817.3
567.619	41725.14
567.818	41874.65
568.016	41733.34
568.215	41807.06
568.414	41532.64
568.612	41796.82
568.811	41235.68
569.01	41393.37
569.208	41094.37
569.407	41190.62
569.605	40717.54
569.804	41174.24
570.002	40910.05
570.201	40692.97
570.4	40744.17
570.598	40094.96
570.797	40471.79
570.995	40205.55
571.193	40342.77
571.392	40553.71
571.59	40015.09
571.789	39781.62
571.987	40000.75
572.186	39888.12
572.384	39924.98
572.582	39933.17
572.781	39814.39
572.979	39349.5
573.177	39249.15
573.376	39765.24
573.574	39855.35
573.772	39361.79
573.971	38688.01
574.169	39136.51
574.367	38862.08
574.565	39183.62
574.763	38950.15
574.962	38706.44
575.16	38448.39
575.358	38544.65
575.556	38305.04
575.754	38915.33
575.952	38208.78
576.151	38419.72
576.349	38016.27
576.547	37834
576.745	37893.4
576.943	38040.85
577.141	37809.43
577.339	37930.26
577.537	37401.88
577.735	37631.26
577.933	37360.92
578.131	37420.31
578.329	37088.54
578.527	36988.19
578.725	37283.1
578.923	37082.4
579.121	36893.99
579.319	36881.7
579.516	36951.33
579.714	36764.96
579.912	36764.96
580.11	36453.67
580.308	36734.24
580.506	36058.42
580.704	35710.26
580.901	35947.82
581.099	36437.29
581.297	35935.54
581.495	35798.32
581.692	36175.15
581.89	35525.94
582.088	36166.96
582.285	35589.43
582.483	35788.08
582.681	35714.36
582.878	35243.32
583.076	35388.73
583.274	35282.23
583.471	35046.72
583.669	34823.49
583.866	34878.79
584.064	35194.17
584.262	34301.26
584.459	35097.92
584.657	34430.28
584.854	34610.5
585.052	34313.55
585.249	34178.38
585.447	34245.96
585.644	33736.02
585.841	34284.87
586.039	34135.37
586.236	33707.35
586.434	33545.56
586.631	33379.67
586.828	33733.97
587.026	33533.27
587.223	33262.94
587.42	33264.99
587.618	33488.21
587.815	33105.24
588.012	33019.23
588.21	32884.06
588.407	33043.81
588.604	32646.5
588.801	32503.14
588.999	32613.73
589.196	32566.63
589.393	32486.76
589.59	32603.49
589.787	32527.72
589.984	32099.69
590.182	31702.39
590.379	32343.4
590.576	31907.18
590.773	31776.11
590.97	31749.49
591.167	31942
591.364	31221.11
591.561	31655.28
591.758	31247.74
591.955	31182.2
592.152	31806.83
592.349	31049.08
592.546	31262.07
592.743	31176.06
592.94	30799.23
593.137	30852.48
593.334	30745.98
593.531	30311.81
593.727	30702.98
593.924	30934.4
594.121	30215.56
594.318	30576
594.515	30352.77
594.712	30381.45
594.908	29898.13
595.105	30014.86
595.302	29730.19
595.499	30248.33
595.696	29666.7
595.892	29787.53
596.089	29666.7
596.286	29343.13
596.482	29566.35
596.679	29644.18
596.876	29326.74
597.072	29089.18
597.269	29048.22
597.466	28917.15
597.662	29109.66
597.859	29033.88
598.055	28734.88
598.252	28890.52
598.448	28624.29
598.645	28505.51
598.841	28388.77
599.038	28448.16
599.234	28394.92
599.431	28259.75
599.627	27968.94
599.824	28229.03
600.02	27903.4
600.217	27952.55
600.413	27841.96
600.609	27809.2
600.806	27778.48
601.002	27639.22
601.198	27342.26
601.395	27157.94
601.591	27567.54
601.787	27256.25
601.984	27129.27
602.18	27121.08
602.376	27127.22
602.572	27096.5
602.769	26596.8
602.965	26422.72
603.161	26822.08
603.357	26570.18
603.553	26645.95
603.75	26265.03
603.946	26301.89
604.142	26285.51
604.338	25890.25
604.534	26238.4
604.73	26103.24
604.926	25587.15
605.122	26181.06
605.318	25548.24
605.514	25595.34
605.71	25542.1
605.906	25701.84
606.102	25501.14
606.298	25234.9
606.494	25554.38
606.69	25398.74
606.886	25392.59
607.082	24792.54
607.278	25400.79
607.474	24796.63
607.67	25376.21
607.866	24882.65
608.062	25118.17
608.257	24735.2
608.453	24612.32
608.649	25028.06
608.845	24735.2
609.041	24778.2
609.236	24604.13
609.432	24395.23
609.628	24849.88
609.824	24491.49
610.019	24643.04
610.215	23991.78
610.411	24229.35
610.606	23967.21
610.802	24360.42
610.998	24110.57
611.193	24274.4
611.389	23940.58
611.584	23983.59
611.78	23784.94
611.976	23891.43
612.171	24147.43
612.367	23696.88
612.562	23936.49
612.758	23068.15
612.953	23348.72
613.149	23703.02
613.344	23377.39
613.539	23881.19
613.735	23635.44
613.93	23424.5
614.126	23389.68
614.321	23576.05
614.517	23447.02
614.712	23090.68
614.907	23225.84
615.103	23502.32
615.298	23045.62
615.493	23404.02
615.688	23113.2
615.884	23332.34
616.079	22914.55
616.274	22941.18
616.47	23111.16
616.665	22779.39
616.86	22808.06
617.055	22586.88
617.25	22449.66
617.445	22826.49
617.641	22353.41
617.836	22961.65
618.031	22480.38
618.226	22343.17
618.421	22144.52
618.616	22322.69
618.811	21896.71
619.006	22343.17
619.201	21542.41
619.396	22091.27
619.591	21763.59
619.786	21964.29
619.981	21476.88
620.176	21927.43
620.371	21468.69
620.566	21581.32
620.761	21339.66
620.956	21538.32
621.151	21227.03
621.346	21110.29
621.541	20629.02
621.735	21302.8
621.93	20647.45
622.125	20923.93
622.32	20422.17
622.515	20547.1
622.709	20530.72
622.904	20252.19
623.099	20395.55
623.294	19998.24
623.488	19867.17
623.683	20237.86
623.878	19678.76
624.072	19957.28
624.267	19648.04
624.462	19709.48
624.656	19549.74
624.851	19338.8
625.046	19267.12
625.24	19113.52
625.435	19164.72
625.629	18865.72
625.824	18710.07
626.018	18798.13
626.213	18343.49
626.407	18497.08
626.602	18617.91
626.796	18236.99
626.991	18357.82
627.185	18269.76
627.38	18142.78
627.574	17806.92
627.768	17608.26
627.963	17831.49
628.157	17620.55
628.352	17788.49
628.546	17532.49
628.74	17577.55
628.935	17350.22
629.129	17229.39
629.323	17030.74
629.517	17014.35
629.712	16881.24
629.906	16963.15
630.1	16660.06
630.294	16703.06
630.489	16617.05
630.683	16799.32
630.877	16272.99
631.071	16461.4
631.265	16371.29
631.459	15971.94
631.653	16008.8
631.848	16035.42
632.042	15914.59
632.236	15902.31
632.43	15576.68
632.624	15912.55
632.818	15775.33
633.012	15539.82
633.206	15388.27
633.4	15527.53
633.594	15480.43
633.788	15222.38
633.982	14976.62
634.176	14995.06
634.369	14904.95
634.563	14968.43
634.757	14933.62
634.951	14790.26
635.145	14583.41
635.339	14718.58
635.533	14501.5
635.726	14519.93
635.92	14403.19
636.114	14370.43
636.308	14270.08
636.501	14276.22
636.695	14270.08
636.889	13964.93
637.083	13942.4
637.276	13944.45
637.47	13827.71
637.664	13807.23
637.857	13741.7
638.051	13604.49
638.244	13493.9
638.438	13528.71
638.632	13442.7
638.825	13280.91
639.019	13276.81
639.212	13270.67
639.406	13127.31
639.599	13194.89
639.793	12990.1
639.986	12885.65
640.18	12676.76
640.373	12801.68
640.567	12492.44
640.76	12648.08
640.954	12451.48
641.147	12379.8
641.34	12433.05
641.534	12357.27
641.727	12439.19
641.92	12422.81
642.114	12043.93
642.307	12283.55
642.5	12156.57
642.694	12074.65
642.887	11800.23
643.08	11982.49
643.273	12009.12
643.467	11701.92
643.66	11617.96
643.853	11476.65
644.046	11417.26
644.239	11577
644.432	11333.29
644.626	11439.78
644.819	11091.63
645.012	11366.06
645.205	11275.95
645.398	11247.27
645.591	11005.61
645.784	11085.48
645.977	10888.88
646.17	11138.73
646.363	10931.89
646.556	10548.92
646.749	10776.24
646.942	10919.6
647.135	10882.74
647.328	10634.93
647.521	10495.67
647.714	10327.74
647.907	10405.56
648.099	10112.7
648.292	10399.41
648.485	10399.41
648.678	9946.81
648.871	10251.96
649.064	10301.11
649.256	10065.6
649.449	10110.65
649.642	9772.74
649.835	9979.58
650.027	9893.57
650.22	9844.42
650.413	9543.36
650.605	9690.82
650.798	9744.06
650.991	9811.65
651.183	9739.97
651.376	9504.45
651.568	9567.94
651.761	9215.69
651.954	9377.48
652.146	9217.74
652.339	9383.62
652.531	9189.07
652.724	9352.9
652.916	8986.32
653.109	9058
653.301	9189.07
653.494	9137.87
653.686	8988.36
653.879	9107.15
654.071	8892.11
654.263	8769.23
654.456	8857.29
654.648	8802
654.84	8855.25
655.033	8683.22
655.225	8761.04
655.417	8378.07
655.61	8580.82
655.802	8650.45
655.994	8343.25
656.186	8365.78
656.379	8179.42
656.571	8263.38
656.763	8222.42
656.955	8357.59
657.148	8253.14
657.34	8206.04
657.532	8077.02
657.724	7929.56
657.916	8201.94
658.108	7931.61
658.3	7927.52
658.492	7900.89
658.684	8005.34
658.876	7886.56
659.068	7839.45
659.26	7685.86
659.452	7698.14
659.644	7806.69
659.836	7481.06
660.028	7896.8
660.22	7669.47
660.412	7612.13
660.604	7542.5
660.796	7407.33
660.988	7653.09
661.18	7284.45
661.372	7268.07
661.563	7374.56
661.755	7298.79
661.947	7216.87
662.139	7216.87
662.331	7388.9
662.522	7165.67
662.714	6944.49
662.906	7026.41
663.097	7003.88
663.289	7005.93
663.481	6977.26
663.673	7032.55
663.864	6901.48
664.056	6852.33
664.247	6979.31
664.439	6887.15
664.631	6745.84
664.822	6899.44
665.014	6713.07
665.205	6827.76
665.397	6833.9
665.588	6733.55
665.78	6561.52
665.971	6629.1
666.163	6649.58
666.354	6655.73
666.546	6438.64
666.737	6455.03
666.929	6397.68
667.12	6483.7
667.311	6364.92
667.503	6420.21
667.694	6264.57
667.885	6303.48
668.077	6424.31
668.268	6280.95
668.459	6194.93
668.651	6258.42
668.842	6354.68
669.033	6287.09
669.224	6211.32
669.416	6268.66
669.607	6123.26
669.798	6063.86
669.989	6246.13
670.18	6172.41
670.371	6162.17
670.563	6029.05
670.754	6113.02
670.945	5928.7
671.136	5867.26
671.327	5938.94
671.518	6084.34
671.709	5889.79
671.9	6008.57
672.091	6000.38
672.282	5867.26
672.473	5873.4
672.664	5828.35
672.855	5865.21
673.046	5719.81
673.237	5658.37
673.428	5887.74
673.619	5803.77
673.809	5826.3
674	5768.96
674.191	5586.69
674.382	5672.7
674.573	5689.09
674.764	5666.56
674.954	5789.44
675.145	5541.63
675.336	5631.74
675.527	5590.78
675.717	5746.43
675.908	5625.6
676.099	5674.75
676.289	5535.49
676.48	5474.05
676.671	5646.08
676.861	5648.13
677.052	5621.5
677.243	5549.82
677.433	5467.91
677.624	5553.92
677.814	5545.73
678.005	5637.89
678.195	5613.31
678.386	5539.58
678.576	5609.22
678.767	5512.96
678.957	5383.94
679.148	5478.15
679.338	5502.72
679.529	5486.34
679.719	5420.8
679.909	5467.91
680.1	5318.4
680.29	5596.93
680.481	5547.78
680.671	5443.33
680.861	5498.63
681.052	5568.26
681.242	5490.43
681.432	5498.63
681.622	5228.29
681.813	5390.08
682.003	5420.8
682.193	5408.51
682.383	5312.26
682.573	5228.29
682.764	5502.72
682.954	5293.83
683.144	5256.97
683.334	5336.84
683.524	5310.21
683.714	5160.71
683.904	5457.67
684.094	5340.93
684.284	5254.92
684.474	5320.45
684.664	5213.96
684.854	5252.87
685.044	5273.35
685.234	5265.16
685.424	5170.95
685.614	5162.76
685.804	5197.57
685.994	5306.12
686.184	5291.78
686.374	5205.77
686.564	4974.35
686.753	5091.08
686.943	5043.98
687.133	5207.81
687.323	5015.3
687.513	5066.5
687.702	5025.54
687.892	5011.21
688.082	5013.26
688.272	4951.82
688.461	4701.97
688.651	4896.52
688.841	4785.93
689.03	4841.23
689.22	4820.75
689.41	4722.45
689.599	4661.01
689.789	4683.53
689.979	4630.29
690.168	4695.82
690.358	4730.64
690.547	4454.16
690.737	4579.09
690.926	4624.14
691.116	4513.55
691.305	4599.57
691.495	4566.8
691.684	4450.07
691.874	4509.46
692.063	4484.88
692.252	4407.06
692.442	4372.24
692.631	4380.43
692.82	4288.28
693.01	4443.92
693.199	4386.58
693.388	4278.04
693.578	4359.95
693.767	4450.07
693.956	4185.88
694.146	4153.11
694.335	4214.55
694.524	4214.55
694.713	4243.22
694.902	4157.21
695.092	4278.04
695.281	4122.39
695.47	4116.25
695.659	4163.35
695.848	4167.45
696.037	4052.76
696.226	4138.77
696.415	3983.13
696.604	4003.61
696.793	4038.42
696.982	4048.66
697.171	4042.52
697.36	3897.11
697.549	3950.36
697.738	3950.36
697.927	3925.79
698.116	3852.06
698.305	3893.02
698.494	3976.98
698.683	4007.7
698.872	4052.76
699.061	3962.65
699.25	3815.2
699.438	3913.5
699.627	3817.24
699.816	4032.28
700.005	3737.37
700.193	3708.7
700.382	3919.64
700.571	3704.6
700.76	3813.15
700.948	3854.11
701.137	3731.23
701.326	3780.38
701.514	3780.38
701.703	3755.8
701.892	3856.15
702.08	3876.63
702.269	3657.5
702.457	3802.91
702.646	3788.57
702.834	3680.03
703.023	3675.93
703.212	3792.67
703.4	3733.28
703.589	3733.28
703.777	3903.26
703.965	3761.95
704.154	3708.7
704.342	3772.19
704.531	3876.63
704.719	3704.6
704.907	3700.51
705.096	3725.08
705.284	3669.79
705.472	3821.34
705.661	3774.24
705.849	3845.91
706.037	3827.48
706.226	3655.45
706.414	3831.58
706.602	3770.14
706.79	3759.9
706.979	3622.69
707.167	3675.93
707.355	3747.61
707.543	3690.27
707.731	3860.25
707.919	3735.32
708.107	3741.47
708.296	3831.58
708.484	3671.84
708.672	3723.04
708.86	3735.32
709.048	3610.4
709.236	3680.03
709.424	3845.91
709.612	3741.47
709.8	3764
709.988	3745.56
710.176	3747.61
710.364	3770.14
710.551	3712.8
710.739	3690.27
710.927	3901.21
711.115	3798.81
711.303	3778.33
711.491	3852.06
711.679	3751.71
711.866	3903.26
712.054	3864.35
712.242	3761.95
712.43	3772.19
712.617	3706.65
712.805	3821.34
712.993	3710.75
713.181	3733.28
713.368	3843.87
713.556	3784.48
713.744	3712.8
713.931	3929.88
714.119	3723.04
714.306	3897.11
714.494	3884.83
714.682	3923.74
714.869	3790.62
715.057	3794.72
715.244	3831.58
715.432	3933.98
715.619	3794.72
715.807	3684.13
715.994	3979.03
716.182	3905.31
716.369	3788.57
716.556	3979.03
716.744	3878.68
716.931	3948.31
717.119	3962.65
717.306	3839.77
717.493	4017.94
717.681	3741.47
717.868	4003.61
718.055	3907.35
718.242	3970.84
718.43	3997.46
718.617	3890.97
718.804	3942.17
718.991	4036.38
719.179	3972.89
719.366	4099.86
719.553	4065.05
719.74	3925.79
719.927	4015.9
720.114	3931.93
720.301	4073.24
720.488	3915.55
720.676	4042.52
720.863	4099.86
721.05	3979.03
721.237	3950.36
721.424	4093.72
721.611	4179.73
721.798	3909.4
721.985	4103.96
722.172	3956.5
722.358	4003.61
722.545	4110.1
722.732	3974.94
722.919	4120.34
723.106	3991.32
723.293	4116.25
723.48	4007.7
723.667	4099.86
723.853	4015.9
724.04	4069.14
724.227	4046.62
724.414	3966.74
724.6	3979.03
724.787	4114.2
724.974	4083.48
725.161	4056.86
725.347	4007.7
725.534	4083.48
725.72	4116.25
725.907	4132.63
726.094	4091.67
726.28	4093.72
726.467	3974.94
726.653	4095.77
726.84	4196.12
727.027	4189.97
727.213	4032.28
727.4	4067.1
727.586	3979.03
727.773	4175.64
727.959	4130.58
728.145	4165.4
728.332	3964.7
728.518	4085.53
728.705	4081.43
728.891	4015.9
729.077	4130.58
729.264	4015.9
729.45	4128.53
729.636	4278.04
729.823	4015.9
730.009	4134.68
730.195	4212.5
730.382	4286.23
730.568	4110.1
730.754	4235.03
730.94	4079.38
731.126	4204.31
731.313	4138.77
731.499	4128.53
731.685	4237.08
731.871	3981.08
732.057	4206.36
732.243	4134.68
732.429	4126.49
732.615	4218.64
732.801	4255.51
732.987	4134.68
733.173	4280.08
733.359	4362
733.545	4095.77
733.731	4009.75
733.917	4380.43
734.103	4112.15
734.289	4208.41
734.475	4091.67
734.661	4230.93
734.847	4159.25
735.033	4058.9
735.219	4095.77
735.404	3991.32
735.59	4155.16
735.776	4060.95
735.962	4302.61
736.148	4210.45
736.333	4151.06
736.519	4071.19
736.705	4042.52
736.89	4128.53
737.076	4157.21
737.262	4034.33
737.447	4222.74
737.633	4232.98
737.819	4114.2
738.004	4077.34
738.19	4181.78
738.375	3985.18
738.561	4099.86
738.747	3952.41
738.932	4024.09
739.118	4163.35
739.303	4030.23
739.489	3995.42
739.674	3946.27
739.859	3981.08
740.045	4071.19
740.23	4142.87
740.416	3888.92
740.601	4073.24
740.786	3933.98
740.972	3989.27
741.157	3872.54
741.342	3878.68
741.528	3903.26
741.713	3964.7
741.898	3927.83
742.084	3809.05
742.269	3893.02
742.454	3794.72
742.639	3841.82
742.824	3753.76
743.01	3950.36
743.195	3819.29
743.38	3727.13
743.565	3864.35
743.75	3790.62
743.935	3622.69
744.12	3837.72
744.305	3753.76
744.49	3741.47
744.675	3704.6
744.86	3778.33
745.045	3757.85
745.23	3632.93
745.415	3538.72
745.6	3612.45
745.785	3551.01
745.97	3526.43
746.155	3532.58
746.34	3528.48
746.525	3512.1
746.71	3491.62
746.895	3485.47
747.079	3510.05
747.264	3370.79
747.449	3352.35
747.634	3301.15
747.819	3333.92
748.003	3471.14
748.188	3307.3
748.373	3313.44
748.557	3344.16
748.742	3235.62
748.927	3247.91
749.111	3217.19
749.296	3229.48
749.481	3323.68
749.665	3118.89
749.85	3122.98
750.034	3174.18
750.219	3032.87
750.404	3141.41
750.588	3143.46
750.773	3073.83
750.957	3036.97
751.141	3061.54
751.326	3063.59
751.51	2989.86
751.695	3028.78
751.879	3024.68
752.064	3034.92
752.248	2881.32
752.432	3028.78
752.617	2909.99
752.801	2942.76
752.985	2746.16
753.17	2746.16
753.354	2801.45
753.538	2813.74
753.722	2717.48
753.907	2604.85
754.091	2627.37
754.275	2672.43
754.459	2672.43
754.643	2641.71
754.828	2561.84
755.012	2567.98
755.196	2621.23
755.38	2518.83
755.564	2598.7
755.748	2615.09
755.932	2633.52
756.116	2524.97
756.3	2406.19
756.484	2488.11
756.668	2463.54
756.852	2391.86
757.036	2406.19
757.22	2551.6
757.404	2359.09
757.588	2367.28
757.772	2436.91
757.956	2395.95
758.14	2363.19
758.323	2240.31
758.507	2291.51
758.691	2268.98
758.875	2338.61
759.059	2320.18
759.242	2244.4
759.426	2232.12
759.61	2121.52
759.794	2168.63
759.977	2088.76
760.161	2299.7
760.345	2137.91
760.528	2316.08
760.712	2144.05
760.895	2105.14
761.079	2127.67
761.263	2025.27
761.446	2111.29
761.63	2045.75
761.813	2074.42
761.997	2135.86
762.18	1998.65
762.364	1992.5
762.547	2049.85
762.731	1990.45
762.914	2062.13
763.098	1869.62
763.281	1900.34
763.464	1910.58
763.648	1855.29
763.831	1994.55
764.015	1943.35
764.198	1918.78
764.381	1935.16
764.564	1920.82
764.748	1838.91
764.931	1894.2
765.114	1888.06
765.297	1820.47
765.481	1746.75
765.664	1830.71
765.847	1802.04
766.03	1871.67
766.213	1769.27
766.397	1812.28
766.58	1736.51
766.763	1799.99
766.946	1705.79
767.129	1623.87
767.312	1713.98
767.495	1718.08
767.678	1705.79
767.861	1736.51
768.044	1722.17
768.227	1752.89
768.41	1689.4
768.593	1705.79
768.776	1681.21
768.959	1597.24
769.142	1793.85
769.324	1689.4
769.507	1728.31
769.69	1566.53
769.873	1593.15
770.056	1740.6
770.239	1595.2
770.421	1648.44
770.604	1703.74
770.787	1662.78
770.97	1619.77
771.152	1429.31
771.335	1597.24
771.518	1546.05
771.7	1599.29
771.883	1464.13
772.066	1568.57
772.248	1486.65
772.431	1470.27
772.613	1519.42
772.796	1476.41
772.978	1544
773.161	1519.42
773.343	1343.3
773.526	1460.03
773.708	1277.76
773.891	1445.7
774.073	1447.74
774.256	1244.99
774.438	1519.42
774.621	1288
774.803	1304.39
774.985	1285.95
775.168	1396.54
775.35	1312.58
775.532	1322.82
775.715	1265.47
775.897	1343.3
776.079	1263.43
776.261	1197.89
776.444	1277.76
776.626	1275.71
776.808	1261.38
776.99	1107.78
777.173	1220.42
777.355	1181.51
777.537	1232.71
777.719	1208.13
777.901	1228.61
778.083	1189.7
778.265	1134.4
778.447	1136.45
778.629	1079.11
778.811	1140.55
778.993	1142.6
779.175	1161.03
779.357	1126.21
779.539	1042.25
779.721	1025.86
779.903	1021.77
780.085	1087.3
780.267	1079.11
780.449	999.24
780.631	1079.11
780.812	1113.92
780.994	964.42
781.176	1005.38
781.358	982.85
781.54	1001.29
781.721	1066.82
781.903	1017.67
782.085	1044.29
782.267	1025.86
782.448	874.31
782.63	921.42
782.812	970.57
782.993	921.42
783.175	923.46
783.357	911.18
783.538	927.56
783.72	896.84
783.901	896.84
784.083	929.61
784.264	941.89
784.446	792.39
784.627	870.22
784.809	874.31
784.99	821.06
785.172	900.94
785.353	814.92
785.535	814.92
785.716	835.4
785.897	755.53
786.079	905.03
786.26	808.78
786.441	790.35
786.623	747.34
786.804	702.28
786.985	780.11
787.167	765.77
787.348	745.29
787.529	776.01
787.71	806.73
787.891	790.35
788.073	710.47
788.254	692.04
788.435	780.11
788.616	763.72
788.797	655.18
788.978	757.58
789.159	653.13
789.34	661.32
789.522	583.5
789.703	751.43
789.884	636.75
790.065	716.62
790.246	702.28
790.427	714.57
790.607	720.71
790.788	749.39
790.969	528.21
791.15	646.99
791.331	536.4
791.512	657.23
791.693	573.26
791.874	698.19
792.054	634.7
792.235	628.56
792.416	622.41
792.597	585.55
792.778	610.12
792.958	634.7
793.139	632.65
793.32	569.16
793.5	421.71
793.681	634.7
793.862	599.88
794.042	632.65
794.223	485.2
794.404	554.83
794.584	477.01
794.765	599.88
794.945	513.87
795.126	571.21
795.306	616.27
795.487	517.97
795.667	497.49
795.848	571.21
796.028	581.45
796.209	552.78
796.389	565.07
796.57	589.64
796.75	517.97
796.93	491.34
797.111	472.91
797.291	438.09
797.471	491.34
797.652	526.16
797.832	458.57
798.012	528.21
798.192	472.91
798.373	495.44
798.553	452.43
798.733	468.81
798.913	425.81
799.093	429.9
799.274	440.14
799.454	497.49
799.634	374.61
799.814	493.39
799.994	524.11
800.174	483.15
800.354	538.45
800.534	401.23
800.714	413.52
800.894	458.57
801.074	307.02
801.254	438.09
801.434	517.97
801.614	419.66
801.794	395.09
801.974	1353.54
802.154	417.61
802.334	397.14
802.514	378.7
802.693	378.7
802.873	399.18
803.053	350.03
803.233	456.53
803.413	450.38
803.592	450.38
803.772	384.85
803.952	341.84
804.131	413.52
804.311	438.09
804.491	468.81
804.67	284.5
804.85	339.79
805.03	376.66
805.209	462.67
805.389	304.98
805.568	366.42
805.748	347.98
805.928	302.93
806.107	370.51
806.287	380.75
806.466	423.76
806.646	390.99
806.825	307.02
807.004	370.51
807.184	345.94
807.363	329.55
807.543	362.32
807.722	268.11
807.901	360.27
808.081	300.88
808.26	239.44
808.439	376.66
808.619	335.7
808.798	384.85
808.977	362.32
809.156	419.66
809.336	321.36
809.515	292.69
809.694	321.36
809.873	286.54
810.052	304.98
810.231	360.27
810.411	300.88
810.59	292.69
810.769	251.73
810.948	378.7
811.127	218.96
811.306	266.07
811.485	327.5
811.664	368.46
811.843	286.54
812.022	302.93
812.201	233.3
812.38	333.65
812.559	274.26
812.737	378.7
812.916	290.64
813.095	282.45
813.274	210.77
813.453	264.02
813.632	294.74
813.811	315.22
813.989	233.3
814.168	190.29
814.347	214.87
814.526	333.65
814.704	313.17
814.883	313.17
815.062	259.92
815.24	337.74
815.419	264.02
815.598	327.5
815.776	180.05
815.955	272.21
816.133	196.43
816.312	270.16
816.49	280.4
816.669	292.69
816.847	247.63
817.026	282.45
817.204	276.31
817.383	194.39
817.561	204.63
817.74	280.4
817.918	241.49
818.097	284.5
818.275	233.3
818.453	241.49
818.632	251.73
818.81	157.52
818.988	200.53
819.167	208.72
819.345	225.11
819.523	167.76
819.701	237.39
819.879	231.25
820.058	159.57
820.236	255.83
820.414	198.48
820.592	141.14
820.77	202.58
820.948	163.67
821.127	188.24
821.305	243.54
821.483	118.61
821.661	243.54
821.839	268.11
822.017	126.8
822.195	175.95
822.373	216.91
822.551	247.63
822.729	214.87
822.907	235.35
823.085	206.67
823.262	159.57
823.44	206.67
823.618	141.14
823.796	237.39
823.974	186.19
824.152	296.78
824.329	182.1
824.507	214.87
824.685	229.2
824.863	149.33
825.04	227.15
825.218	155.47
825.396	196.43
825.574	169.81
825.751	139.09
825.929	255.83
826.107	61.27
826.284	59.22
826.462	188.24
826.639	135
826.817	141.14
826.994	186.19
827.172	141.14
827.349	206.67
827.527	124.76
827.704	247.63
827.882	188.24
828.059	149.33
828.237	141.14
828.414	188.24
828.591	51.03
828.769	169.81
828.946	188.24
829.124	206.67
829.301	167.76
829.478	192.34
829.655	169.81
829.833	178
830.01	110.42
830.187	89.94
830.364	151.38
830.542	128.85
830.719	216.91
830.896	233.3
831.073	163.67
831.25	210.77
831.427	182.1
831.604	161.62
831.782	104.28
831.959	173.91
832.136	114.52
832.313	77.65
832.49	145.24
832.667	167.76
832.844	137.04
833.021	235.35
833.198	75.6
833.374	173.91
833.551	210.77
833.728	118.61
833.905	186.19
834.082	83.8
834.259	167.76
834.436	135
834.612	65.36
834.789	188.24
834.966	104.28
835.143	141.14
835.319	73.56
835.496	159.57
835.673	186.19
835.85	167.76
836.026	28.5
836.203	135
836.38	38.74
836.556	137.04
836.733	79.7
836.909	132.95
837.086	124.76
837.262	48.98
837.439	104.28
837.616	87.89
837.792	108.37
837.968	169.81
838.145	48.98
838.321	100.18
838.498	200.53
838.674	46.93
838.851	100.18
839.027	79.7
839.203	141.14
839.38	114.52
839.556	40.79
839.732	202.58
839.909	85.84
840.085	194.39
840.261	96.08
840.437	42.84
840.614	98.13
840.79	96.08
840.966	147.28
841.142	106.32
841.318	46.93
841.494	94.04
841.671	96.08
841.847	3.93
842.023	91.99
842.199	147.28
842.375	79.7
842.551	20.31
842.727	69.46
842.903	149.33
843.079	26.45
843.255	102.23
843.431	20.31
843.607	100.18
843.783	-30.89
843.959	114.52
844.134	59.22
844.31	188.24
844.486	126.8
844.662	32.6
844.838	100.18
845.013	141.14
845.189	132.95
845.365	96.08
845.541	26.45
845.716	112.47
845.892	155.47
846.068	89.94
846.244	108.37
846.419	163.67
846.595	-6.31
846.77	38.74
846.946	108.37
847.122	63.32
847.297	71.51
847.473	155.47
847.648	71.51
847.824	79.7
847.999	42.84
848.175	106.32
848.35	112.47
848.526	73.56
848.701	28.5
848.876	132.95
849.052	53.08
849.227	85.84
849.403	85.84
849.578	100.18
849.753	26.45
849.929	79.7
850.104	34.64
850.279	108.37
850.454	51.03
850.63	137.04
850.805	112.47
850.98	77.65
851.155	65.36
851.33	38.74
851.505	94.04
851.681	81.75
851.856	87.89
852.031	89.94
852.206	46.93
852.381	65.36
852.556	30.55
852.731	91.99
852.906	118.61
853.081	98.13
853.256	132.95
853.431	10.07
853.606	-4.27
853.781	59.22
853.956	-22.7
854.131	5.97
854.305	-22.7
854.48	26.45
854.655	-8.36
854.83	61.27
855.005	59.22
855.18	65.36
855.354	-26.79
855.529	110.42
855.704	51.03
855.879	36.69
856.053	67.41
856.228	69.46
856.403	30.55
856.577	149.33
856.752	1.88
856.926	3.93
857.101	85.84
857.276	1.88
857.45	75.6
857.625	141.14
857.799	61.27
857.974	69.46
858.148	5.97
858.323	61.27
858.497	14.17
858.672	53.08
858.846	75.6
859.02	91.99
859.195	87.89
859.369	26.45
859.543	69.46
859.718	114.52
859.892	55.12
860.066	71.51
860.241	65.36
860.415	-22.7
860.589	126.8
860.763	26.45
860.938	-2.22
861.112	104.28
861.286	98.13
861.46	46.93
861.634	69.46
861.808	85.84
861.982	55.12
862.157	-28.84
862.331	-14.51
862.505	26.45
862.679	10.07
862.853	14.17
863.027	44.88
863.201	155.47
863.375	14.17
863.549	12.12
863.722	77.65
863.896	65.36
864.07	-41.13
864.244	42.84
864.418	65.36
864.592	116.56
864.766	42.84
864.939	26.45
865.113	20.31
865.287	63.32
865.461	-80.04
865.634	51.03
865.808	83.8
865.982	46.93
866.156	-16.55
866.329	22.36
866.503	67.41
866.676	59.22
866.85	-22.7
867.024	32.6
867.197	38.74
867.371	51.03
867.544	44.88
867.718	-12.46
867.891	98.13
868.065	34.64
868.238	61.27
868.412	139.09
868.585	-18.6
868.759	10.07
868.932	-0.17
869.105	-12.46
869.279	42.84
869.452	3.93
869.625	34.64
869.799	38.74
869.972	-57.51
870.145	53.08
870.319	98.13
870.492	1.88
870.665	-6.31
870.838	3.93
871.011	-51.37
871.185	1.88
871.358	77.65
871.531	-22.7
871.704	-43.18
871.877	-24.75
872.05	-16.55
872.223	1.88
872.396	14.17
872.569	143.19
872.742	-73.9
872.915	53.08
873.088	16.21
873.261	-2.22
873.434	14.17
873.607	-28.84
873.78	98.13
873.953	-4.27
874.126	14.17
874.299	61.27
874.471	14.17
874.644	-4.27
874.817	46.93
874.99	81.75
875.163	-6.31
875.335	71.51
875.508	36.69
875.681	132.95
875.853	-6.31
876.026	20.31
876.199	40.79
876.371	1.88
876.544	1.88
876.717	53.08
876.889	-16.55
877.062	-6.31
877.234	-53.42
877.407	-2.22
877.579	53.08
877.752	-6.31
877.924	48.98
878.097	-6.31
878.269	-6.31
878.442	-16.55
878.614	12.12
878.786	18.26
878.959	55.12
879.131	-6.31
879.303	22.36
879.476	24.4
879.648	73.56
879.82	69.46
879.993	36.69
880.165	1.88
880.337	-47.27
880.509	1.88
880.681	-53.42
880.854	-37.03
881.026	96.08
881.198	112.47
881.37	-14.51
881.542	14.17
881.714	1.88
881.886	55.12
882.058	24.4
882.23	59.22
882.402	-34.99
882.574	20.31
882.746	30.55
882.918	48.98
883.09	42.84
883.262	42.84
883.434	-8.36
883.606	-22.7
883.778	24.4
883.95	-22.7
884.122	18.26
884.293	53.08
884.465	22.36
884.637	51.03
884.809	-22.7
884.98	55.12
885.152	63.32
885.324	55.12
885.496	-14.51
885.667	16.21
885.839	8.02
886.011	42.84
886.182	20.31
886.354	85.84
886.525	75.6
886.697	69.46
886.869	-24.75
887.04	40.79
887.212	81.75
887.383	48.98
887.555	63.32
887.726	32.6
887.897	-2.22
888.069	12.12
888.24	106.32
888.412	34.64
888.583	3.93
888.754	42.84
888.926	-32.94
889.097	-67.75
889.268	-12.46
889.44	-2.22
889.611	-14.51
889.782	-4.27
889.953	73.56
890.125	67.41
890.296	55.12
890.467	-61.61
890.638	-6.31
890.809	3.93
890.98	-30.89
891.151	-55.47
891.323	61.27
891.494	75.6
891.665	-16.55
891.836	14.17
892.007	-37.03
892.178	-4.27
892.349	8.02
892.52	14.17
892.691	32.6
892.862	-8.36
893.032	3.93
893.203	51.03
893.374	-63.66
893.545	12.12
893.716	-10.41
893.887	55.12
894.057	5.97
894.228	-4.27
894.399	-37.03
894.57	104.28
894.74	30.55
894.911	-14.51
895.082	-39.08
895.253	-118.95
895.423	-45.23
895.594	-2.22
895.764	28.5
895.935	-0.17
896.106	42.84
896.276	55.12
896.447	61.27
896.617	-18.6
896.788	-92.33
896.958	36.69
897.129	26.45
897.299	5.97
897.47	46.93
897.64	53.08
897.81	26.45
897.981	65.36
898.151	-106.67
898.322	-51.37
898.492	32.6
898.662	-45.23
898.832	-16.55
899.003	-2.22
899.173	42.84
899.343	-14.51
899.513	-47.27
