Data from USB4F104151__57__13-05-41-002.txt Node

Date: Fri Mar 14 13:05:41 EDT 2025
User: louis
Spectrometer: USB4F10415
Trigger mode: 4
Integration Time (sec): 4.000000E-2
Scans to average: 1
Electric dark correction enabled: true
Nonlinearity correction enabled: false
Boxcar width: 0
XAxis mode: Wavelengths
Number of Pixels in Spectrum: 3648
>>>>>Begin Spectral Data<<<<<
178.204	-200.19
178.424	-200.19
178.644	-200.19
178.864	-128.51
179.084	-192
179.304	-22.02
179.524	-52.74
179.744	-58.88
179.964	12.8
180.184	-38.4
180.404	-58.88
180.624	102.91
180.844	53.76
181.064	-19.97
181.283	29.18
181.503	47.62
181.723	4.61
181.943	6.66
182.163	111.1
182.383	14.85
182.602	64
182.822	102.91
183.042	84.48
183.262	45.57
183.482	12.8
183.701	14.85
183.921	68.09
184.141	-83.45
184.361	96.77
184.58	-5.63
184.8	37.38
185.02	92.67
185.239	104.96
185.459	41.47
185.679	109.05
185.898	29.18
186.118	104.96
186.338	29.18
186.557	94.72
186.777	0.51
186.997	72.19
187.216	41.47
187.436	117.25
187.655	20.99
187.875	53.76
188.095	35.33
188.314	76.29
188.534	141.82
188.753	23.04
188.973	74.24
189.192	119.29
189.412	10.75
189.631	10.75
189.851	82.43
190.07	51.71
190.29	35.33
190.509	96.77
190.729	59.9
190.948	102.91
191.168	213.5
191.387	41.47
191.607	2.56
191.826	49.66
192.045	84.48
192.265	27.14
192.484	51.71
192.704	82.43
192.923	10.75
193.142	141.82
193.362	64
193.581	59.9
193.8	113.15
194.02	57.86
194.239	51.71
194.458	117.25
194.678	70.14
194.897	43.52
195.116	127.49
195.335	72.19
195.555	164.35
195.774	109.05
195.993	117.25
196.212	43.52
196.432	80.38
196.651	100.86
196.87	70.14
197.089	100.86
197.308	154.11
197.528	2.56
197.747	-17.92
197.966	-9.73
198.185	109.05
198.404	10.75
198.623	94.72
198.842	133.63
199.062	78.33
199.281	84.48
199.5	80.38
199.719	104.96
199.938	55.81
200.157	98.81
200.376	88.57
200.595	78.33
200.814	84.48
201.033	29.18
201.252	66.05
201.471	-11.78
201.69	45.57
201.909	90.62
202.128	55.81
202.347	78.33
202.566	55.81
202.785	37.38
203.004	-7.68
203.223	121.34
203.442	20.99
203.661	39.42
203.879	16.9
204.098	86.53
204.317	12.8
204.536	125.44
204.755	76.29
204.974	-1.54
205.193	123.39
205.411	109.05
205.63	102.91
205.849	35.33
206.068	64
206.287	31.23
206.505	143.87
206.724	-3.58
206.943	51.71
207.162	94.72
207.381	86.53
207.599	109.05
207.818	117.25
208.037	45.57
208.255	74.24
208.474	61.95
208.693	92.67
208.911	10.75
209.13	123.39
209.349	68.09
209.567	33.28
209.786	94.72
210.005	-17.92
210.223	43.52
210.442	20.99
210.661	76.29
210.879	119.29
211.098	25.09
211.316	119.29
211.535	133.63
211.753	31.23
211.972	47.62
212.191	55.81
212.409	100.86
212.628	145.92
212.846	-19.97
213.065	66.05
213.283	150.01
213.502	12.8
213.72	94.72
213.938	53.76
214.157	59.9
214.375	111.1
214.594	16.9
214.812	72.19
215.031	14.85
215.249	68.09
215.467	-24.06
215.686	107.01
215.904	43.52
216.122	61.95
216.341	68.09
216.559	-24.06
216.778	78.33
216.996	100.86
217.214	-11.78
217.432	53.76
217.651	-28.16
217.869	51.71
218.087	-24.06
218.306	59.9
218.524	29.18
218.742	84.48
218.96	141.82
219.179	25.09
219.397	14.85
219.615	164.35
219.833	121.34
220.051	61.95
220.27	84.48
220.488	-19.97
220.706	84.48
220.924	39.42
221.142	86.53
221.36	100.86
221.578	53.76
221.796	-7.68
222.015	31.23
222.233	70.14
222.451	111.1
222.669	78.33
222.887	61.95
223.105	-5.63
223.323	61.95
223.541	-3.58
223.759	88.57
223.977	90.62
224.195	80.38
224.413	115.2
224.631	84.48
224.849	80.38
225.067	61.95
225.285	20.99
225.503	84.48
225.721	35.33
225.939	29.18
226.157	64
226.375	152.06
226.592	14.85
226.81	29.18
227.028	117.25
227.246	197.12
227.464	6.66
227.682	111.1
227.9	45.57
228.117	76.29
228.335	57.86
228.553	39.42
228.771	107.01
228.989	125.44
229.206	-11.78
229.424	51.71
229.642	8.7
229.86	33.28
230.077	86.53
230.295	45.57
230.513	180.73
230.731	115.2
230.948	98.81
231.166	109.05
231.384	68.09
231.601	86.53
231.819	55.81
232.037	31.23
232.254	-24.06
232.472	119.29
232.689	12.8
232.907	84.48
233.125	84.48
233.342	39.42
233.56	68.09
233.777	100.86
233.995	16.9
234.213	109.05
234.43	55.81
234.648	61.95
234.865	49.66
235.083	96.77
235.3	51.71
235.518	39.42
235.735	66.05
235.953	135.68
236.17	14.85
236.388	-30.21
236.605	125.44
236.822	133.63
237.04	23.04
237.257	66.05
237.475	23.04
237.692	123.39
237.909	66.05
238.127	64
238.344	102.91
238.562	43.52
238.779	4.61
238.996	33.28
239.214	98.81
239.431	84.48
239.648	-32.26
239.865	96.77
240.083	39.42
240.3	-44.54
240.517	16.9
240.735	70.14
240.952	133.63
241.169	39.42
241.386	70.14
241.603	47.62
241.821	20.99
242.038	47.62
242.255	64
242.472	-54.78
242.689	72.19
242.907	123.39
243.124	84.48
243.341	72.19
243.558	45.57
243.775	10.75
243.992	-15.87
244.209	174.59
244.426	127.49
244.643	92.67
244.86	31.23
245.078	49.66
245.295	94.72
245.512	76.29
245.729	35.33
245.946	47.62
246.163	41.47
246.38	43.52
246.597	76.29
246.814	51.71
247.031	76.29
247.248	33.28
247.464	113.15
247.681	70.14
247.898	72.19
248.115	111.1
248.332	-30.21
248.549	141.82
248.766	68.09
248.983	43.52
249.2	72.19
249.417	84.48
249.633	94.72
249.85	14.85
250.067	88.57
250.284	39.42
250.501	94.72
250.717	70.14
250.934	45.57
251.151	72.19
251.368	29.18
251.585	139.77
251.801	82.43
252.018	2.56
252.235	90.62
252.451	41.47
252.668	18.94
252.885	139.77
253.102	45.57
253.318	80.38
253.535	35.33
253.752	78.33
253.968	-1.54
254.185	43.52
254.401	45.57
254.618	117.25
254.835	72.19
255.051	129.53
255.268	18.94
255.484	2.56
255.701	31.23
255.917	100.86
256.134	49.66
256.351	35.33
256.567	18.94
256.784	2.56
257	18.94
257.217	104.96
257.433	57.86
257.65	90.62
257.866	76.29
258.082	23.04
258.299	39.42
258.515	72.19
258.732	51.71
258.948	92.67
259.165	43.52
259.381	29.18
259.597	137.73
259.814	27.14
260.03	102.91
260.246	10.75
260.463	92.67
260.679	64
260.895	104.96
261.112	98.81
261.328	64
261.544	23.04
261.761	98.81
261.977	27.14
262.193	-36.35
262.409	70.14
262.626	45.57
262.842	98.81
263.058	51.71
263.274	74.24
263.49	29.18
263.707	90.62
263.923	88.57
264.139	4.61
264.355	53.76
264.571	193.02
264.787	70.14
265.004	18.94
265.22	2.56
265.436	70.14
265.652	80.38
265.868	121.34
266.084	0.51
266.3	68.09
266.516	-13.82
266.732	20.99
266.948	76.29
267.164	102.91
267.38	0.51
267.596	72.19
267.812	164.35
268.028	59.9
268.244	51.71
268.46	-1.54
268.676	-71.17
268.892	80.38
269.108	33.28
269.324	18.94
269.54	4.61
269.756	37.38
269.972	70.14
270.188	86.53
270.403	51.71
270.619	18.94
270.835	94.72
271.051	-11.78
271.267	61.95
271.483	88.57
271.698	104.96
271.914	70.14
272.13	94.72
272.346	23.04
272.562	35.33
272.777	20.99
272.993	70.14
273.209	117.25
273.425	72.19
273.64	-1.54
273.856	64
274.072	23.04
274.287	-15.87
274.503	111.1
274.719	76.29
274.934	92.67
275.15	-19.97
275.366	76.29
275.581	-1.54
275.797	23.04
276.012	55.81
276.228	94.72
276.444	102.91
276.659	86.53
276.875	109.05
277.09	-15.87
277.306	100.86
277.521	119.29
277.737	33.28
277.952	127.49
278.168	76.29
278.383	68.09
278.599	14.85
278.814	86.53
279.03	25.09
279.245	143.87
279.461	4.61
279.676	147.97
279.892	27.14
280.107	27.14
280.322	109.05
280.538	76.29
280.753	-13.82
280.969	141.82
281.184	61.95
281.399	104.96
281.615	80.38
281.83	10.75
282.045	57.86
282.26	47.62
282.476	27.14
282.691	119.29
282.906	113.15
283.122	53.76
283.337	55.81
283.552	57.86
283.767	82.43
283.983	104.96
284.198	12.8
284.413	117.25
284.628	16.9
284.843	111.1
285.058	35.33
285.274	0.51
285.489	-5.63
285.704	88.57
285.919	88.57
286.134	80.38
286.349	61.95
286.564	72.19
286.779	152.06
286.995	76.29
287.21	20.99
287.425	102.91
287.64	47.62
287.855	129.53
288.07	35.33
288.285	92.67
288.5	35.33
288.715	74.24
288.93	66.05
289.145	31.23
289.36	76.29
289.575	90.62
289.79	141.82
290.004	27.14
290.219	74.24
290.434	-26.11
290.649	55.81
290.864	66.05
291.079	27.14
291.294	107.01
291.509	86.53
291.724	-3.58
291.938	51.71
292.153	133.63
292.368	-50.69
292.583	12.8
292.798	76.29
293.012	31.23
293.227	27.14
293.442	10.75
293.657	27.14
293.871	88.57
294.086	53.76
294.301	176.64
294.516	123.39
294.73	51.71
294.945	2.56
295.16	47.62
295.374	135.68
295.589	107.01
295.804	6.66
296.018	135.68
296.233	137.73
296.447	74.24
296.662	-11.78
296.877	59.9
297.091	68.09
297.306	64
297.52	96.77
297.735	135.68
297.949	53.76
298.164	43.52
298.378	2.56
298.593	74.24
298.807	84.48
299.022	117.25
299.236	31.23
299.451	53.76
299.665	10.75
299.88	-22.02
300.094	45.57
300.309	37.38
300.523	66.05
300.737	-30.21
300.952	102.91
301.166	141.82
301.381	16.9
301.595	41.47
301.809	117.25
302.024	113.15
302.238	-22.02
302.452	86.53
302.667	51.71
302.881	84.48
303.095	104.96
303.309	76.29
303.524	49.66
303.738	59.9
303.952	53.76
304.166	72.19
304.381	-46.59
304.595	141.82
304.809	64
305.023	68.09
305.237	53.76
305.452	121.34
305.666	68.09
305.88	92.67
306.094	113.15
306.308	78.33
306.522	72.19
306.736	92.67
306.95	162.3
307.164	33.28
307.379	14.85
307.593	117.25
307.807	127.49
308.021	123.39
308.235	72.19
308.449	57.86
308.663	74.24
308.877	92.67
309.091	78.33
309.305	109.05
309.519	-62.98
309.733	64
309.947	80.38
310.161	68.09
310.374	154.11
310.588	74.24
310.802	41.47
311.016	8.7
311.23	72.19
311.444	4.61
311.658	66.05
311.872	74.24
312.085	147.97
312.299	152.06
312.513	90.62
312.727	64
312.941	57.86
313.154	14.85
313.368	10.75
313.582	74.24
313.796	70.14
314.009	27.14
314.223	113.15
314.437	111.1
314.651	90.62
314.864	102.91
315.078	68.09
315.292	111.1
315.505	68.09
315.719	86.53
315.933	43.52
316.146	66.05
316.36	88.57
316.573	133.63
316.787	119.29
317.001	80.38
317.214	53.76
317.428	119.29
317.641	31.23
317.855	84.48
318.068	96.77
318.282	33.28
318.495	84.48
318.709	76.29
318.922	92.67
319.136	160.25
319.349	117.25
319.563	53.76
319.776	61.95
319.99	-22.02
320.203	115.2
320.417	51.71
320.63	80.38
320.843	113.15
321.057	72.19
321.27	-9.73
321.483	66.05
321.697	111.1
321.91	107.01
322.124	129.53
322.337	23.04
322.55	10.75
322.763	94.72
322.977	74.24
323.19	80.38
323.403	107.01
323.617	82.43
323.83	131.58
324.043	23.04
324.256	80.38
324.469	12.8
324.683	119.29
324.896	55.81
325.109	82.43
325.322	-9.73
325.535	113.15
325.748	18.94
325.962	-17.92
326.175	51.71
326.388	94.72
326.601	104.96
326.814	27.14
327.027	70.14
327.24	129.53
327.453	6.66
327.666	39.42
327.879	53.76
328.092	80.38
328.305	43.52
328.518	33.28
328.731	82.43
328.944	86.53
329.157	127.49
329.37	76.29
329.583	49.66
329.796	55.81
330.009	33.28
330.222	53.76
330.435	104.96
330.648	-7.68
330.861	72.19
331.073	78.33
331.286	66.05
331.499	111.1
331.712	27.14
331.925	68.09
332.138	72.19
332.35	92.67
332.563	80.38
332.776	127.49
332.989	37.38
333.202	-22.02
333.414	68.09
333.627	125.44
333.84	125.44
334.053	78.33
334.265	43.52
334.478	43.52
334.691	102.91
334.903	27.14
335.116	27.14
335.329	37.38
335.541	109.05
335.754	154.11
335.966	37.38
336.179	18.94
336.392	86.53
336.604	64
336.817	55.81
337.029	156.16
337.242	72.19
337.454	123.39
337.667	102.91
337.88	59.9
338.092	61.95
338.305	61.95
338.517	92.67
338.729	129.53
338.942	125.44
339.154	59.9
339.367	18.94
339.579	86.53
339.792	4.61
340.004	70.14
340.217	18.94
340.429	104.96
340.641	49.66
340.854	18.94
341.066	29.18
341.278	80.38
341.491	98.81
341.703	41.47
341.915	72.19
342.128	45.57
342.34	121.34
342.552	78.33
342.764	18.94
342.977	59.9
343.189	84.48
343.401	72.19
343.613	20.99
343.826	72.19
344.038	102.91
344.25	94.72
344.462	80.38
344.674	53.76
344.886	-3.58
345.099	41.47
345.311	51.71
345.523	53.76
345.735	-5.63
345.947	70.14
346.159	102.91
346.371	90.62
346.583	31.23
346.795	154.11
347.007	66.05
347.219	55.81
347.431	68.09
347.643	88.57
347.855	84.48
348.067	98.81
348.279	59.9
348.491	137.73
348.703	102.91
348.915	53.76
349.127	86.53
349.339	94.72
349.551	23.04
349.763	141.82
349.975	43.52
350.187	92.67
350.399	125.44
350.61	115.2
350.822	6.66
351.034	43.52
351.246	86.53
351.458	100.86
351.669	113.15
351.881	158.21
352.093	57.86
352.305	137.73
352.517	55.81
352.728	43.52
352.94	55.81
353.152	119.29
353.363	27.14
353.575	45.57
353.787	68.09
353.999	104.96
354.21	166.4
354.422	51.71
354.633	35.33
354.845	4.61
355.057	82.43
355.268	45.57
355.48	141.82
355.692	59.9
355.903	61.95
356.115	27.14
356.326	4.61
356.538	92.67
356.749	94.72
356.961	166.4
357.172	64
357.384	29.18
357.595	125.44
357.807	45.57
358.018	59.9
358.23	12.8
358.441	80.38
358.653	92.67
358.864	33.28
359.075	4.61
359.287	147.97
359.498	82.43
359.709	129.53
359.921	72.19
360.132	107.01
360.344	100.86
360.555	47.62
360.766	45.57
360.977	53.76
361.189	117.25
361.4	117.25
361.611	92.67
361.823	94.72
362.034	143.87
362.245	-36.35
362.456	49.66
362.667	88.57
362.879	80.38
363.09	119.29
363.301	123.39
363.512	86.53
363.723	174.59
363.935	82.43
364.146	107.01
364.357	70.14
364.568	98.81
364.779	-13.82
364.99	170.49
365.201	59.9
365.412	53.76
365.623	-46.59
365.834	137.73
366.045	76.29
366.256	119.29
366.467	76.29
366.678	113.15
366.889	64
367.1	129.53
367.311	107.01
367.522	92.67
367.733	49.66
367.944	147.97
368.155	125.44
368.366	127.49
368.577	111.1
368.788	125.44
368.999	43.52
369.209	141.82
369.42	190.97
369.631	209.4
369.842	59.9
370.053	111.1
370.264	156.16
370.474	92.67
370.685	41.47
370.896	45.57
371.107	160.25
371.317	100.86
371.528	45.57
371.739	131.58
371.95	127.49
372.16	123.39
372.371	61.95
372.582	23.04
372.792	53.76
373.003	78.33
373.214	111.1
373.424	119.29
373.635	37.38
373.846	59.9
374.056	100.86
374.267	117.25
374.477	61.95
374.688	96.77
374.898	80.38
375.109	10.75
375.319	51.71
375.53	57.86
375.74	96.77
375.951	139.77
376.161	150.01
376.372	133.63
376.582	-71.17
376.793	92.67
377.003	-30.21
377.214	27.14
377.424	55.81
377.635	59.9
377.845	-5.63
378.055	156.16
378.266	125.44
378.476	4.61
378.686	145.92
378.897	18.94
379.107	117.25
379.317	64
379.528	86.53
379.738	176.64
379.948	-3.58
380.158	92.67
380.369	72.19
380.579	86.53
380.789	125.44
380.999	94.72
381.21	41.47
381.42	193.02
381.63	76.29
381.84	43.52
382.05	94.72
382.261	125.44
382.471	51.71
382.681	61.95
382.891	129.53
383.101	53.76
383.311	43.52
383.521	68.09
383.731	141.82
383.941	137.73
384.151	61.95
384.361	82.43
384.571	76.29
384.781	152.06
384.991	94.72
385.201	164.35
385.411	96.77
385.621	92.67
385.831	37.38
386.041	76.29
386.251	72.19
386.461	109.05
386.671	84.48
386.881	109.05
387.091	37.38
387.301	92.67
387.511	45.57
387.72	51.71
387.93	80.38
388.14	12.8
388.35	41.47
388.56	113.15
388.769	180.73
388.979	127.49
389.189	96.77
389.399	68.09
389.609	199.16
389.818	123.39
390.028	131.58
390.238	96.77
390.447	102.91
390.657	107.01
390.867	137.73
391.076	2.56
391.286	29.18
391.496	59.9
391.705	39.42
391.915	117.25
392.125	113.15
392.334	115.2
392.544	96.77
392.753	104.96
392.963	117.25
393.172	86.53
393.382	127.49
393.591	225.79
393.801	64
394.01	141.82
394.22	100.86
394.429	125.44
394.639	100.86
394.848	72.19
395.058	-1.54
395.267	113.15
395.477	107.01
395.686	125.44
395.895	178.69
396.105	199.16
396.314	119.29
396.524	121.34
396.733	150.01
396.942	109.05
397.152	102.91
397.361	119.29
397.57	123.39
397.78	135.68
397.989	154.11
398.198	266.75
398.407	92.67
398.617	176.64
398.826	125.44
399.035	100.86
399.244	117.25
399.453	172.54
399.663	119.29
399.872	180.73
400.081	84.48
400.29	176.64
400.499	66.05
400.708	182.78
400.917	82.43
401.127	55.81
401.336	111.1
401.545	203.26
401.754	199.16
401.963	135.68
402.172	92.67
402.381	201.21
402.59	158.21
402.799	123.39
403.008	211.45
403.217	154.11
403.426	279.04
403.635	150.01
403.844	133.63
404.053	145.92
404.262	227.84
404.471	260.6
404.68	193.02
404.888	205.31
405.097	195.07
405.306	225.79
405.515	199.16
405.724	109.05
405.933	289.28
406.142	217.6
406.35	260.6
406.559	225.79
406.768	197.12
406.977	209.4
407.185	242.17
407.394	246.27
407.603	217.6
407.812	291.32
408.02	266.75
408.229	272.89
408.438	248.32
408.646	233.98
408.855	289.28
409.064	346.62
409.272	293.37
409.481	356.86
409.69	340.47
409.898	350.71
410.107	344.57
410.315	371.19
410.524	358.91
410.733	442.87
410.941	379.39
411.15	412.15
411.358	352.76
411.567	418.3
411.775	545.27
411.984	414.2
412.192	469.5
412.401	485.88
412.609	612.85
412.818	567.8
413.026	535.03
413.234	598.52
413.443	514.55
413.651	555.51
413.86	643.57
414.068	690.68
414.276	766.45
414.485	793.08
414.693	831.99
414.901	846.32
415.11	842.23
415.318	864.75
415.526	817.65
415.734	913.91
415.943	961.01
416.151	934.39
416.359	967.15
416.567	965.11
416.776	944.63
416.984	1108.46
417.192	1153.52
417.4	1067.5
417.608	1141.23
417.817	1145.33
418.025	1307.12
418.233	1405.42
418.441	1288.68
418.649	1343.98
418.857	1421.8
419.065	1575.4
419.273	1520.1
419.481	1438.19
419.689	1733.09
419.897	1554.92
420.105	1706.47
420.313	1804.77
420.521	1841.64
420.729	1780.2
420.937	1921.51
421.145	2083.3
421.353	2093.54
421.561	2251.23
421.769	2255.33
421.977	2300.38
422.185	2408.92
422.393	2474.46
422.601	2587.1
422.809	2482.65
423.017	2656.73
423.224	2736.6
423.432	2806.23
423.64	2875.86
423.848	3062.23
424.056	2986.45
424.263	3176.91
424.471	3330.51
424.679	3312.08
424.887	3387.85
425.094	3514.83
425.302	3541.45
425.51	3740.1
425.718	3828.17
425.925	3903.94
426.133	3957.19
426.341	4227.52
426.548	4409.79
426.756	4323.77
426.964	4630.97
427.171	4587.96
427.379	4899.25
427.586	5171.63
427.794	5106.1
428.001	5278.13
428.209	5607.85
428.417	5360.05
428.624	5792.17
428.832	5910.95
429.039	5853.61
429.247	5831.08
429.454	6470.05
429.662	6758.81
429.869	6375.84
430.076	6752.66
430.284	6570.4
430.491	6793.62
430.699	7352.72
430.906	7391.63
431.114	7508.37
431.321	7795.08
431.528	7911.82
431.736	8604.03
431.943	8688
432.15	8524.16
432.358	8792.44
432.565	9212.28
432.772	8851.83
432.979	9550.19
433.187	9699.69
433.394	9580.91
433.601	10520.93
433.808	10334.56
434.016	10469.73
434.223	10682.72
434.43	11368.79
434.637	11147.61
434.844	11841.87
435.052	12273.99
435.259	12017.99
435.466	12079.43
435.673	12034.38
435.88	12699.97
436.087	13406.52
436.294	13429.04
436.501	13336.88
436.708	13566.26
436.915	13945.13
437.122	14631.2
437.329	14641.44
437.537	15057.18
437.743	15096.09
437.95	15003.93
438.157	16206.09
438.364	16472.32
438.571	16496.9
438.778	16537.86
438.985	17948.91
439.192	17221.88
439.399	18022.64
439.606	17432.82
439.813	18385.13
440.02	19488.98
440.227	19388.63
440.433	19241.18
440.64	19609.81
440.847	19534.04
441.054	19945.68
441.261	21432.5
441.467	20883.65
441.674	21815.48
441.881	22139.05
442.088	22675.62
442.294	21899.44
442.501	22771.88
442.708	22849.7
442.914	23783.57
443.121	25024.64
443.328	24400.01
443.534	25950.32
443.741	25573.5
443.948	25061.51
444.154	27005.03
444.361	26990.69
444.568	27023.46
444.774	26873.96
444.981	27312.22
445.187	28155.99
445.394	29130.82
445.6	29130.82
445.807	31655.96
446.013	30478.38
446.22	30705.71
446.426	31797.27
446.633	32221.2
446.839	33605.63
447.046	32233.49
447.252	33757.18
447.459	34017.27
447.665	33548.29
447.871	35379.17
448.078	36945.87
448.284	34981.87
448.491	36235.22
448.697	37218.25
448.903	38205.37
449.11	38516.66
449.316	37404.61
449.522	38242.23
449.728	39448.49
449.935	39495.59
450.141	39860.13
450.347	40744.85
450.553	39092.14
450.76	40105.88
450.966	41107.34
451.172	40503.19
451.378	41817.99
451.584	41232.27
451.791	41916.29
451.997	41725.83
452.203	42647.41
452.409	42491.77
452.615	42176.38
452.821	40587.16
453.027	40556.44
453.233	42082.17
453.44	40662.93
453.646	41551.75
453.852	41502.6
454.058	41858.95
454.264	40771.47
454.47	42014.59
454.676	41193.36
454.882	42485.62
455.088	38629.3
455.294	39385
455.5	39604.13
455.705	40652.69
455.911	38531
456.117	37601.22
456.323	37330.89
456.529	35149.8
456.735	37025.74
456.941	36188.12
457.147	35624.93
457.352	34574.32
457.558	34134.01
457.764	34283.51
457.97	33495.04
458.176	32817.16
458.381	33103.88
458.587	31336.48
458.793	31330.34
458.999	29741.11
459.204	31633.44
459.41	31045.67
459.616	28753.99
459.821	28889.16
460.027	28706.89
460.233	28190.8
460.438	26929.25
460.644	27103.33
460.85	26005.62
461.055	25458.81
461.261	25409.66
461.466	23533.72
461.672	22792.36
461.878	24357
462.083	22829.22
462.289	22448.3
462.494	22030.51
462.7	20990.14
462.905	20443.34
463.111	21491.9
463.316	21414.07
463.522	20736.2
463.727	20961.47
463.932	20758.72
464.138	21016.77
464.343	21018.82
464.549	19910.86
464.754	20854.98
464.959	20707.52
465.165	20302.03
465.37	19816.66
465.575	19011.81
465.781	19855.57
465.986	20035.79
466.191	19224.79
466.397	18958.56
466.602	17746.16
466.807	18608.36
467.012	18921.7
467.218	18720.99
467.423	18252.01
467.628	18434.28
467.833	19232.99
468.038	18512.1
468.244	18053.36
468.449	18856.16
468.654	17826.03
468.859	17959.15
469.064	17848.56
469.269	17123.58
469.474	17355
469.679	17692.91
469.885	17023.23
470.09	17578.23
470.295	17031.42
470.5	16662.79
470.705	17111.29
470.91	16650.5
471.115	16537.86
471.32	16623.87
471.525	16736.51
471.73	16001.29
471.935	16091.4
472.139	15577.36
472.344	15696.14
472.549	15610.13
472.754	15329.56
472.959	15012.12
473.164	14924.06
473.369	14792.99
473.574	15034.65
473.778	14993.69
473.983	15028.51
474.188	14694.69
474.393	14076.2
474.598	14223.65
474.802	14063.91
475.007	14061.87
475.212	14127.4
475.417	13326.64
475.621	13564.21
475.826	13568.3
476.031	13123.9
476.235	13142.33
476.44	13379.89
476.645	13076.79
476.849	12847.42
477.054	12654.91
477.259	12593.47
477.463	12613.95
477.668	12355.91
477.872	12509.51
478.077	12298.56
478.282	11866.44
478.486	11882.83
478.691	11829.58
478.895	11827.53
479.1	11669.84
479.304	11848.01
479.509	11247.96
479.713	11663.69
479.918	11403.6
480.122	11069.78
480.326	11217.24
480.531	11219.28
480.735	10973.53
480.94	11063.64
481.144	11368.79
481.348	11000.15
481.553	11051.35
481.757	10676.57
481.961	10752.35
482.166	10971.48
482.37	10916.19
482.574	10770.78
482.778	10795.36
482.983	10889.56
483.187	10926.43
483.391	11000.15
483.595	10801.5
483.8	10766.68
484.004	10754.4
484.208	10883.42
484.412	10778.97
484.616	10791.26
484.821	10695
485.025	10615.13
485.229	10971.48
485.433	10830.17
485.637	10772.83
485.841	10791.26
486.045	10864.99
486.249	10717.53
486.453	10582.37
486.657	10559.84
486.861	10817.88
487.065	10568.03
487.269	10815.83
487.473	10701.15
487.677	10781.02
487.881	10946.9
488.085	10799.45
488.289	11004.25
488.493	10684.76
488.697	10895.71
488.901	10760.54
489.105	10799.45
489.309	10828.12
489.512	10756.44
489.716	10914.14
489.92	11016.54
490.124	10846.55
490.328	11176.28
490.531	11112.79
490.735	11037.02
490.939	11092.31
491.143	11059.54
491.346	10871.13
491.55	11268.44
491.754	11323.73
491.958	11407.7
492.161	11522.38
492.365	11252.05
492.569	11293.01
492.772	11282.77
492.976	11360.59
493.18	11446.61
493.383	11731.28
493.587	11858.25
493.79	11852.11
493.994	11571.54
494.197	11710.8
494.401	11952.46
494.605	11923.79
494.808	12312.9
495.012	12147.01
495.215	12128.58
495.419	12296.52
495.622	12200.26
495.825	12536.13
496.029	12515.65
496.232	12798.27
496.436	12624.19
496.639	13007.16
496.843	12886.33
497.046	13130.04
497.249	13228.34
497.453	13357.36
497.656	13334.84
497.859	13572.4
498.063	13707.57
498.266	14000.43
498.469	13814.06
498.673	14014.76
498.876	13992.23
499.079	14330.15
499.282	14248.23
499.485	14881.05
499.689	14672.16
499.892	14786.85
500.095	15038.75
500.298	15429.91
500.501	15034.65
500.705	15712.53
500.908	15864.08
501.111	16130.31
501.314	16242.95
501.517	16173.32
501.72	16476.42
501.923	16310.54
502.126	16769.28
502.329	17039.61
502.532	17021.18
502.735	17221.88
502.938	17422.58
503.141	17942.77
503.344	17821.94
503.547	17758.45
503.75	18399.46
503.953	18178.28
504.156	18798.82
504.359	18794.72
504.562	18845.92
504.765	19310.81
504.968	19462.36
505.17	19402.97
505.373	19710.16
505.576	20359.37
505.779	20234.44
505.982	20232.4
506.185	20762.82
506.387	20639.94
506.59	20695.24
506.793	21340.35
506.996	21221.56
507.198	21831.86
507.401	22022.32
507.604	22208.69
507.807	22579.37
508.009	22610.09
508.212	22931.62
508.415	22993.06
508.617	23283.87
508.82	23476.38
509.022	23089.31
509.225	23888.02
509.428	23933.07
509.63	24297.61
509.833	24565.9
510.035	25251.97
510.238	24881.28
510.44	25180.29
510.643	25563.26
510.845	25987.19
511.048	25649.27
511.25	26024.05
511.453	26335.34
511.655	27074.66
511.858	27195.49
512.06	27088.99
512.262	27621.47
512.465	27449.44
512.667	27977.81
512.87	28196.95
513.072	28665.93
513.274	29063.24
513.477	28952.65
513.679	29515.84
513.881	29485.12
514.084	29620.28
514.286	29501.5
514.488	30177.33
514.69	30705.71
514.893	30939.18
515.095	31105.06
515.297	31242.28
515.499	31447.07
515.701	31606.81
515.904	32266.26
516.106	32352.27
516.308	33062.92
516.51	33038.34
516.712	32741.39
516.914	33589.25
517.116	33894.39
517.318	33955.83
517.52	33996.79
517.722	34371.57
517.925	34924.52
518.127	35237.86
518.329	35483.62
518.531	35504.1
518.733	35960.8
518.935	35866.59
519.136	36343.77
519.338	36771.79
519.54	37007.31
519.742	37791.68
519.944	37351.37
520.146	37750.72
520.348	37971.9
520.55	37803.97
520.752	38492.08
520.954	39036.84
521.155	39059.37
521.357	39557.03
521.559	39716.77
521.761	40447.89
521.963	40191.9
522.164	40454.04
522.366	40505.24
522.568	40863.63
522.77	41011.09
522.971	41729.92
523.173	41848.71
523.375	42235.77
523.576	41854.85
523.778	41832.32
523.98	42921.84
524.181	42911.6
524.383	42770.29
524.584	43431.79
524.786	43685.73
524.988	43644.77
525.189	44068.7
525.391	44099.42
525.592	44703.57
525.794	44805.97
525.995	44760.92
526.197	44543.83
526.398	44810.07
526.6	44949.33
526.801	45094.74
527.003	45684.55
527.204	45926.21
527.406	45866.82
527.607	46020.42
527.808	46282.56
528.01	45731.65
528.211	46210.88
528.412	47181.62
528.614	46458.68
528.815	46608.18
529.016	47302.45
529.218	46917.43
529.419	47390.51
529.62	47177.52
529.822	46751.54
530.023	47564.59
530.224	47456.04
530.425	47142.7
530.626	47118.13
530.828	47365.93
531.029	48240.42
531.23	47245.1
531.431	47621.93
531.632	47705.9
531.833	48178.98
532.035	48170.78
532.236	48424.73
532.437	48553.76
532.638	48318.24
532.839	48445.21
533.04	48572.19
533.241	48221.98
533.442	49129.23
533.643	48260.9
533.844	48375.58
534.045	48733.98
534.246	48232.22
534.447	48688.92
534.648	48262.94
534.849	48570.14
535.05	48283.42
535.251	48535.32
535.451	48391.97
535.652	48729.88
535.853	48555.8
536.054	48523.04
536.255	48844.57
536.456	48086.82
536.657	49239.82
536.857	48686.87
537.058	48486.17
537.259	48836.37
537.46	48678.68
537.66	48637.72
537.861	48785.18
538.062	48475.93
538.263	49084.18
538.463	48475.93
538.664	48803.61
538.865	49100.56
539.065	48793.37
539.266	48203.55
539.466	48752.41
539.667	48402.21
539.868	48758.55
540.068	48592.67
540.269	48668.44
540.469	48717.59
540.67	48244.51
540.87	48848.66
541.071	48465.69
541.271	48707.35
541.472	48475.93
541.672	48162.59
541.873	48445.21
542.073	47896.36
542.274	48727.83
542.474	48189.22
542.675	48271.14
542.875	48621.34
543.075	48783.13
543.276	47814.44
543.476	48998.16
543.676	48082.72
543.877	48430.88
544.077	48822.04
544.277	48150.31
544.478	47941.41
544.678	48428.83
544.878	48424.73
545.078	48453.4
545.279	48109.35
545.479	47978.28
545.679	48144.16
545.879	48555.8
546.079	48277.28
546.28	48019.24
546.48	47605.55
546.68	48279.33
546.88	48269.09
547.08	48310.05
547.28	47695.66
547.48	47849.25
547.68	48029.48
547.88	47834.92
548.081	48086.82
548.281	47873.83
548.481	48080.67
548.681	48443.16
548.881	47976.23
549.081	47957.8
549.28	47724.33
549.48	47867.69
549.68	47644.46
549.88	48654.11
550.08	47505.2
550.28	48164.64
550.48	47793.96
550.68	48205.6
550.88	47505.2
551.08	47787.81
551.279	47683.37
551.479	47527.72
551.679	48047.91
551.879	47519.53
552.079	48367.39
552.278	48070.43
552.478	47798.05
552.678	47290.16
552.878	48029.48
553.077	47398.7
553.277	47554.35
553.477	47679.27
553.676	47298.35
553.876	47728.42
554.076	47204.14
554.275	47441.71
554.475	46659.38
554.674	47556.39
554.874	47261.49
555.074	47101.75
555.273	47562.54
555.473	47763.24
555.672	46890.8
555.872	47257.39
556.071	47089.46
556.271	47687.46
556.47	47605.55
556.67	46776.12
556.869	46929.72
557.068	46815.03
557.268	46589.75
557.467	46624.57
557.667	46831.41
557.866	46507.83
558.065	46405.44
558.265	46516.03
558.464	46163.78
558.663	46550.84
558.863	45940.55
559.062	46999.35
559.261	45776.71
559.461	46452.54
559.66	46053.19
559.859	46004.03
560.058	45899.59
560.258	45938.5
560.457	45760.33
560.656	46231.36
560.855	45979.46
561.054	45725.51
561.253	45821.76
561.453	45934.4
561.652	45672.26
561.851	45621.06
562.05	45768.52
562.249	45195.09
562.448	45709.13
562.647	45379.4
562.846	45551.43
563.045	45145.94
563.244	44547.93
563.443	45328.2
563.642	44425.05
563.841	45186.89
564.04	44504.92
564.239	44953.43
564.438	44316.51
564.637	44500.82
564.836	44730.2
565.035	43954.02
565.234	44334.94
565.432	44197.73
565.631	43794.28
565.83	43999.07
566.029	43872.1
566.228	43749.22
566.427	43198.32
566.625	43206.51
566.824	43020.14
567.023	43616.1
567.222	42680.18
567.42	43286.38
567.619	43003.76
567.818	43102.06
568.016	42925.94
568.215	43126.64
568.414	42815.35
568.612	42747.76
568.811	42704.76
569.01	42270.59
569.208	42098.56
569.407	42919.79
569.605	41570.18
569.804	42121.09
570.002	41959.3
570.201	41813.89
570.4	41633.67
570.598	41652.1
570.797	41312.14
570.995	41637.76
571.193	40851.34
571.392	41766.79
571.59	41254.79
571.789	41002.89
571.987	40865.68
572.186	40830.86
572.384	40736.66
572.582	40949.65
572.781	40920.98
572.979	40255.39
573.177	40634.26
573.376	40771.47
573.574	40333.21
573.772	40298.39
573.971	39851.94
574.169	39745.44
574.367	39557.03
574.565	39954.33
574.763	39954.33
574.962	39626.66
575.16	39247.79
575.358	39288.74
575.556	38688.69
575.754	39583.65
575.952	39151.53
576.151	38887.34
576.349	38545.33
576.547	38719.41
576.745	39018.41
576.943	38555.57
577.141	38510.52
577.339	38465.46
577.537	38182.84
577.735	38449.08
577.933	38270.9
578.131	38090.68
578.329	37754.82
578.527	37547.97
578.725	37871.55
578.923	37857.21
579.121	37867.45
579.319	37384.13
579.516	37519.3
579.714	37345.22
579.912	37117.9
580.11	37205.96
580.308	36949.96
580.506	37078.99
580.704	36499.41
580.901	37035.98
581.099	37060.55
581.297	36702.16
581.495	36782.03
581.692	36575.19
581.89	36372.44
582.088	36513.75
582.285	36435.92
582.483	36319.19
582.681	36132.82
582.878	36110.3
583.076	35966.94
583.274	36202.46
583.471	35319.78
583.669	35688.42
583.866	35215.33
584.064	35860.44
584.262	34942.95
584.459	35395.56
584.657	35065.83
584.854	35409.89
585.052	34531.31
585.249	34867.18
585.447	35026.92
585.644	34371.57
585.841	34629.62
586.039	34678.77
586.236	34179.06
586.434	34492.4
586.631	34101.24
586.828	34121.72
587.026	34330.61
587.223	34201.59
587.42	33902.59
587.618	34121.72
587.815	33390.59
588.012	33464.32
588.21	33265.67
588.407	33396.74
588.604	33386.5
588.801	33331.2
588.999	33150.98
589.196	33019.91
589.393	32780.3
589.59	32774.16
589.787	32317.46
589.984	32552.98
590.182	31997.98
590.379	32114.71
590.576	32184.34
590.773	32120.85
590.97	31668.25
591.167	31971.35
591.364	31668.25
591.561	32016.41
591.758	31598.62
591.955	31619.1
592.152	31522.85
592.349	31537.18
592.546	31825.95
592.743	31453.22
592.94	30990.38
593.137	31035.43
593.334	31598.62
593.531	30660.65
593.727	30908.46
593.924	30953.51
594.121	30517.29
594.318	30795.82
594.515	30449.71
594.712	30437.42
594.908	30525.49
595.105	30500.91
595.302	29982.77
595.499	30498.86
595.696	29874.23
595.892	29560.89
596.089	29820.98
596.286	30132.28
596.482	30054.45
596.679	29960.25
596.876	29958.2
597.072	29521.98
597.269	29274.18
597.466	29280.32
597.662	29098.05
597.859	29464.64
598.055	29218.88
598.252	29130.82
598.448	29085.76
598.645	28794.95
598.841	28508.24
599.038	28504.14
599.234	28610.64
599.431	28207.19
599.627	28207.19
599.824	28399.69
600.02	28004.44
600.217	28141.65
600.413	28047.44
600.609	27768.92
600.806	27994.2
601.002	27750.49
601.198	27523.16
601.395	27748.44
601.591	27299.94
601.787	27316.32
601.984	27111.52
602.18	27664.47
602.376	27101.28
602.572	27082.85
602.769	27197.54
602.965	27007.08
603.161	26945.64
603.357	26843.24
603.553	26773.61
603.75	26681.45
603.946	26493.04
604.142	26839.14
604.338	26167.41
604.534	26368.11
604.73	26179.7
604.926	26142.83
605.122	26259.57
605.318	25931.89
605.514	25714.81
605.71	25649.27
605.906	25677.94
606.102	25809.01
606.298	25892.98
606.494	25780.34
606.69	25643.13
606.886	25544.83
607.082	25446.52
607.278	25704.57
607.474	25016.45
607.67	25462.91
607.866	25067.65
608.062	25340.03
608.257	25221.25
608.453	25006.21
608.649	25157.76
608.845	24518.79
609.041	24785.03
609.236	24795.27
609.432	24649.86
609.628	24649.86
609.824	24526.99
610.019	24375.44
610.215	24533.13
610.411	24465.55
610.606	24645.77
610.802	24588.42
610.998	24316.04
611.193	24606.86
611.389	23849.11
611.584	24184.97
611.78	23990.42
611.976	24191.12
612.171	24021.14
612.367	24062.1
612.562	24064.14
612.758	23507.1
612.953	24058
613.149	24127.63
613.344	23660.69
613.539	23869.59
613.735	23744.66
613.93	23750.81
614.126	23728.28
614.321	23591.06
614.517	23396.51
614.712	23517.34
614.907	23279.77
615.103	23724.18
615.298	23328.92
615.493	23449.75
615.688	22798.5
615.884	23500.95
616.079	22993.06
616.274	22921.38
616.47	23134.37
616.665	23003.3
616.86	22761.64
617.055	23025.82
617.25	22888.61
617.445	22882.47
617.641	22358.19
617.836	22610.09
618.031	22055.09
618.226	22958.24
618.421	22223.02
618.616	22415.53
618.811	22038.7
619.006	22372.52
619.201	22032.56
619.396	22167.73
619.591	21754.04
619.786	21981.36
619.981	21301.43
620.176	21792.95
620.371	21317.82
620.566	21393.59
620.761	21448.89
620.956	21665.97
621.151	21037.25
621.346	21319.87
621.541	20840.64
621.735	21047.49
621.93	20621.51
622.125	20994.24
622.32	20566.21
622.515	20469.96
622.709	20562.12
622.904	20474.06
623.099	20285.64
623.294	20287.69
623.488	19945.68
623.683	20322.51
623.878	19820.75
624.072	19970.26
624.267	19710.16
624.462	19542.23
624.656	19366.1
624.851	19523.8
625.046	19329.24
625.24	19091.68
625.435	19052.77
625.629	18774.24
625.824	18962.65
626.018	18897.12
626.213	18409.7
626.407	18870.5
626.602	18196.71
626.796	18528.49
626.991	18254.06
627.185	18106.6
627.38	18059.5
627.574	17746.16
627.768	17920.24
627.963	17764.59
628.157	17643.76
628.352	17510.64
628.546	17197.31
628.74	17780.98
628.935	17240.31
629.129	17418.49
629.323	17008.89
629.517	17043.71
629.712	17117.43
629.906	17023.23
630.1	16640.26
630.294	16695.55
630.489	16369.93
630.683	16533.76
630.877	16417.03
631.071	16275.72
631.265	16345.35
631.459	16228.62
631.653	15943.95
631.848	16034.06
632.042	15966.48
632.236	15907.09
632.43	15909.13
632.624	15620.37
632.818	15493.4
633.012	15452.44
633.206	15456.53
633.4	15276.31
633.594	15034.65
633.788	15100.19
633.982	15077.66
634.176	15333.65
634.369	15198.49
634.563	14674.21
634.757	14739.74
634.951	14962.97
635.145	14930.2
635.339	14653.73
635.533	14743.84
635.726	14627.1
635.92	14264.61
636.114	14385.44
636.308	14250.28
636.501	14166.31
636.695	14018.86
636.889	13943.08
637.083	13930.8
637.276	13850.92
637.47	13664.56
637.664	13779.25
637.857	13764.91
638.051	13406.52
638.244	13396.28
638.438	13400.37
638.632	13596.98
638.825	13199.67
639.019	13158.71
639.212	13429.04
639.406	13052.22
639.599	13209.91
639.793	12888.38
639.986	12863.8
640.18	12745.02
640.373	12884.28
640.567	12591.42
640.76	12745.02
640.954	12464.45
641.147	12456.26
641.34	12429.63
641.534	12497.22
641.727	12413.25
641.92	12372.29
642.114	12204.36
642.307	12020.04
642.5	12187.97
642.694	11866.44
642.887	11848.01
643.08	11823.44
643.273	11958.6
643.467	11655.5
643.66	11628.88
643.853	11397.46
644.046	11432.27
644.239	11544.91
644.432	11354.45
644.626	11321.68
644.819	11536.72
645.012	11276.63
645.205	11313.49
645.398	11356.5
645.591	11069.78
645.784	11137.37
645.977	11051.35
646.17	10854.75
646.363	11010.39
646.556	10535.26
646.749	10604.89
646.942	10860.89
647.135	10580.32
647.328	10522.98
647.521	10531.17
647.714	10201.44
647.907	10447.2
648.099	10477.92
648.292	10477.92
648.485	10228.07
648.678	10045.8
648.871	10279.27
649.064	9963.88
649.256	10045.8
649.449	10068.33
649.642	9988.46
649.835	9824.62
650.027	9816.43
650.22	9929.06
650.413	9720.17
650.605	9820.52
650.798	9828.71
650.991	9673.07
651.183	9509.23
651.376	9464.18
651.568	9699.69
651.761	9595.25
651.954	9339.25
652.146	9290.1
652.339	9353.59
652.531	9195.89
652.724	9138.55
652.916	9079.16
653.109	9089.4
653.301	9038.2
653.494	9089.4
653.686	8788.35
653.879	8941.94
654.071	8855.93
654.263	8767.87
654.456	8659.32
654.648	8642.94
654.84	8575.36
655.033	8632.7
655.225	8472.96
655.417	8735.1
655.61	8587.64
655.802	8581.5
655.994	8432
656.186	8489.34
656.379	8190.34
656.571	8372.61
656.763	8157.57
656.955	8290.69
657.148	8333.7
657.34	8444.29
657.532	7944.58
657.724	8042.89
657.916	7993.73
658.108	8049.03
658.3	7950.73
658.492	7999.88
658.684	7846.28
658.876	7858.57
659.068	8003.97
659.26	7616.91
659.452	7778.7
659.644	7623.05
659.836	7477.65
660.028	7721.35
660.22	7481.74
660.412	7651.72
660.604	7438.73
660.796	7270.8
660.988	7287.18
661.18	7387.54
661.372	7375.25
661.563	7262.61
661.755	7205.27
661.947	7395.73
662.139	7278.99
662.331	7182.74
662.522	7168.4
662.714	6855.06
662.906	7104.92
663.097	7102.87
663.289	6975.89
663.481	6912.41
663.673	7160.21
663.864	7051.67
664.056	6842.78
664.247	6777.24
664.439	6803.86
664.631	6871.45
664.822	6664.6
665.014	6818.2
665.205	6625.69
665.397	6736.28
665.588	6670.75
665.78	6711.71
665.971	6592.92
666.163	6597.02
666.354	6498.72
666.546	6580.64
666.737	6384.03
666.929	6513.05
667.12	6560.16
667.311	6519.2
667.503	6201.76
667.694	6281.63
667.885	6371.74
668.077	6517.15
668.268	6267.3
668.459	6390.17
668.651	6234.53
668.842	6259.1
669.033	6130.08
669.224	6246.82
669.416	6367.65
669.607	6197.67
669.798	6181.28
669.989	6384.03
670.18	6177.19
670.371	6156.71
670.563	6205.86
670.754	6070.69
670.945	5929.38
671.136	5880.23
671.327	5908.9
671.518	5966.24
671.709	6154.66
671.9	6066.6
672.091	6023.59
672.282	5726.63
672.473	5851.56
672.664	5931.43
672.855	5853.61
673.046	5935.53
673.237	5935.53
673.428	5851.56
673.619	5861.8
673.809	5933.48
674	5929.38
674.191	5747.11
674.382	5824.94
674.573	5786.02
674.764	5595.56
674.954	5716.39
675.145	5654.95
675.336	5728.68
675.527	5558.7
675.717	5659.05
675.908	5751.21
676.099	5568.94
676.289	5622.19
676.48	5700.01
676.671	5495.21
676.861	5659.05
677.052	5550.51
677.243	5634.47
677.433	5712.3
677.624	5626.28
677.814	5536.17
678.005	5628.33
678.195	5478.83
678.386	5505.45
678.576	5489.07
678.767	5650.86
678.957	5599.66
679.148	5659.05
679.338	5697.96
679.529	5534.12
679.719	5427.63
679.909	5405.1
680.1	5558.7
680.29	5527.98
680.481	5597.61
680.671	5462.44
680.861	5368.24
681.052	5636.52
681.242	5585.32
681.432	5595.56
681.622	5564.84
681.813	5423.53
682.003	5403.05
682.193	5319.09
682.383	5556.65
682.573	5448.11
682.764	5505.45
682.954	5355.95
683.144	5396.91
683.334	5431.73
683.524	5513.64
683.714	5472.68
683.904	5382.57
684.094	5396.91
684.284	5384.62
684.474	5310.89
684.664	5525.93
684.854	5355.95
685.044	5306.8
685.234	5366.19
685.424	5362.09
685.614	5349.81
685.804	5401.01
685.994	5329.33
686.184	5286.32
686.374	5259.7
686.564	5312.94
686.753	5310.89
686.943	5097.91
687.133	4999.6
687.323	5175.73
687.513	5179.82
687.702	5079.47
687.892	4991.41
688.082	5120.43
688.272	5132.72
688.461	4897.21
688.651	4954.55
688.841	4735.42
689.03	4985.27
689.22	4829.62
689.41	4913.59
689.599	4843.96
689.789	4753.85
689.979	4798.9
690.168	4813.24
690.358	4807.09
690.547	4768.18
690.737	4821.43
690.926	4682.17
691.116	4581.82
691.305	4663.74
691.495	4583.87
691.684	4356.54
691.874	4577.72
692.063	4524.47
692.252	4530.62
692.442	4565.43
692.631	4463.04
692.82	4475.32
693.01	4516.28
693.199	4360.64
693.388	4456.89
693.578	4463.04
693.767	4370.88
693.956	4426.17
694.146	4331.97
694.335	4387.26
694.524	4155.84
694.713	4196.8
694.902	4288.96
695.092	4368.83
695.281	4190.66
695.47	4182.46
695.659	4143.55
695.848	4194.75
696.037	4213.18
696.226	4067.78
696.415	4112.83
696.604	4090.31
696.793	4213.18
696.982	4059.59
697.171	4180.42
697.36	4084.16
697.549	4196.8
697.738	3989.96
697.927	4030.91
698.116	4041.15
698.305	4104.64
698.494	3903.94
698.683	4000.19
698.872	4075.97
699.061	3969.48
699.25	4057.54
699.438	4008.39
699.627	3987.91
699.816	3967.43
700.005	4012.48
700.193	3977.67
700.382	4090.31
700.571	4047.3
700.76	4063.68
700.948	4118.98
701.137	4016.58
701.326	3928.52
701.514	3942.85
701.703	4010.43
701.892	4049.35
702.08	4067.78
702.269	3959.24
702.457	3819.97
702.646	3924.42
702.834	3830.21
703.023	3807.69
703.212	3920.32
703.4	3862.98
703.589	3719.62
703.777	4018.63
703.965	3826.12
704.154	3920.32
704.342	3893.7
704.531	3885.51
704.719	3819.97
704.907	3942.85
705.096	3965.38
705.284	3838.41
705.472	3901.89
705.661	4014.53
705.849	3897.8
706.037	3838.41
706.226	3881.41
706.414	3768.77
706.602	3811.78
706.79	4032.96
706.979	3879.36
707.167	3983.81
707.355	3914.18
707.543	4032.96
707.731	3897.8
707.919	4143.55
708.107	3854.79
708.296	3998.15
708.484	3787.21
708.672	3901.89
708.86	4016.58
709.048	3996.1
709.236	4016.58
709.424	3885.51
709.612	3938.76
709.8	3985.86
709.988	3944.9
710.176	3977.67
710.364	4135.36
710.551	4016.58
710.739	3963.33
710.927	3998.15
711.115	3998.15
711.303	3867.08
711.491	3953.09
711.679	4026.82
711.866	3959.24
712.054	3951.04
712.242	3930.56
712.43	3951.04
712.617	3992
712.805	3996.1
712.993	4071.87
713.181	3942.85
713.368	3957.19
713.556	4024.77
713.744	3979.72
713.931	4217.28
714.119	4086.21
714.306	4067.78
714.494	4012.48
714.682	4010.43
714.869	3953.09
715.057	4041.15
715.244	4014.53
715.432	4172.22
715.619	4069.83
715.807	4092.35
715.994	4102.59
716.182	3965.38
716.369	3996.1
716.556	4073.92
716.744	3959.24
716.931	4032.96
717.119	4180.42
717.306	4090.31
717.493	4106.69
717.681	4024.77
717.868	4196.8
718.055	4172.22
718.242	4229.57
718.43	4161.98
718.617	4180.42
718.804	4217.28
718.991	4243.9
719.179	4075.97
719.366	4049.35
719.553	4123.07
719.74	4174.27
719.927	4123.07
720.114	4186.56
720.301	4141.5
720.488	4110.79
720.676	4207.04
720.863	4295.1
721.05	4229.57
721.237	4143.55
721.424	4211.14
721.611	4102.59
721.798	4147.65
721.985	4075.97
722.172	4147.65
722.358	4057.54
722.545	4303.29
722.732	4118.98
722.919	4192.7
723.106	4116.93
723.293	4190.66
723.48	4108.74
723.667	4118.98
723.853	4041.15
724.04	4229.57
724.227	4164.03
724.414	4239.81
724.6	4125.12
724.787	4243.9
724.974	4286.91
725.161	4299.2
725.347	4348.35
725.534	4323.77
725.72	4313.53
725.907	4239.81
726.094	4217.28
726.28	4209.09
726.467	4321.73
726.653	4284.86
726.84	4250.05
727.027	4090.31
727.213	4286.91
727.4	4348.35
727.586	4305.34
727.773	4180.42
727.959	4364.73
728.145	4161.98
728.332	4198.85
728.518	4293.05
728.705	4370.88
728.891	4213.18
729.077	4229.57
729.264	4198.85
729.45	4301.25
729.636	4276.67
729.823	4299.2
730.009	4428.22
730.195	4389.31
730.382	4254.14
730.568	4229.57
730.754	4358.59
730.94	4299.2
731.126	4370.88
731.313	4329.92
731.499	4325.82
731.685	4311.49
731.871	4368.83
732.057	4379.07
732.243	4252.1
732.429	4340.16
732.615	4352.45
732.801	4147.65
732.987	4370.88
733.173	4311.49
733.359	4299.2
733.545	4239.81
733.731	4190.66
733.917	4301.25
734.103	4448.7
734.289	4438.46
734.475	4245.95
734.661	4334.01
734.847	4450.75
735.033	4231.62
735.219	4260.29
735.404	4303.29
735.59	4331.97
735.776	4336.06
735.962	4248
736.148	4317.63
736.333	4307.39
736.519	4198.85
736.705	4383.17
736.89	4157.89
737.076	4217.28
737.262	4190.66
737.447	4176.32
737.633	4329.92
737.819	4286.91
738.004	4078.02
738.19	4303.29
738.375	3969.48
738.561	4211.14
738.747	4121.03
738.932	4151.74
739.118	4192.7
739.303	4270.53
739.489	4098.5
739.674	4170.18
739.859	4104.64
740.045	4045.25
740.23	4067.78
740.416	4100.55
740.601	4182.46
740.786	3918.28
740.972	4067.78
741.157	3961.28
741.342	3957.19
741.528	4014.53
741.713	4028.87
741.898	3946.95
742.084	4057.54
742.269	4139.46
742.454	3992
742.639	4063.68
742.824	3918.28
743.01	4014.53
743.195	3979.72
743.38	3969.48
743.565	3934.66
743.75	3981.76
743.935	3905.99
744.12	3963.33
744.305	3854.79
744.49	3901.89
744.675	3791.3
744.86	3699.14
745.045	3758.53
745.23	3699.14
745.415	3754.44
745.6	3822.02
745.785	3738.05
745.97	3541.45
746.155	3674.57
746.34	3697.1
746.525	3656.14
746.71	3633.61
746.895	3711.43
747.079	3523.02
747.264	3541.45
747.449	3514.83
747.634	3459.53
747.819	3494.35
748.003	3369.42
748.188	3320.27
748.373	3445.2
748.557	3404.24
748.742	3396.04
748.927	3189.2
749.111	3166.67
749.296	3117.52
749.481	3303.89
749.665	3246.54
749.85	3176.91
750.034	3299.79
750.219	3258.83
750.404	3242.45
750.588	3236.3
750.773	3094.99
750.957	3238.35
751.141	3154.38
751.326	3101.14
751.51	2953.68
751.695	3107.28
751.879	3008.98
752.064	3035.6
752.248	3004.88
752.432	3090.9
752.617	2959.83
752.801	2892.24
752.985	2933.2
753.17	2894.29
753.354	2908.63
753.538	2935.25
753.722	2841.04
753.907	2632.15
754.091	2861.52
754.275	2652.63
754.459	2767.32
754.643	2593.24
754.828	2787.8
755.012	2673.11
755.196	2623.96
755.38	2642.39
755.564	2752.98
755.748	2617.82
755.932	2499.03
756.116	2689.49
756.3	2591.19
756.484	2517.47
756.668	2517.47
756.852	2466.27
757.036	2529.75
757.22	2329.05
757.404	2441.69
757.588	2533.85
757.772	2443.74
757.956	2390.49
758.14	2341.34
758.323	2265.57
758.507	2466.27
758.691	2339.29
758.875	2398.68
759.059	2345.44
759.242	2351.58
759.426	2222.56
759.61	2253.28
759.794	2159.07
759.977	2253.28
760.161	2374.11
760.345	2126.3
760.528	2200.03
760.712	2234.85
760.895	2144.74
761.079	2148.83
761.263	1964.51
761.446	2134.5
761.63	2179.55
761.813	2091.49
761.997	2034.14
762.18	2007.52
762.364	2083.3
762.547	2042.34
762.731	2046.43
762.914	2015.71
763.098	1995.23
763.281	1888.74
763.464	1984.99
763.648	1915.36
763.831	1898.98
764.015	1868.26
764.198	1915.36
764.381	1948.13
764.564	2005.47
764.748	2050.53
764.931	1929.7
765.114	1780.2
765.297	1960.42
765.481	1847.78
765.664	1800.68
765.847	1792.48
766.03	1913.31
766.213	1831.4
766.397	1903.07
766.58	1802.72
766.763	1776.1
766.946	1718.76
767.129	1774.05
767.312	1769.96
767.495	1712.61
767.678	1724.9
767.861	1763.81
768.044	1792.48
768.227	1731.05
768.41	1671.65
768.593	1610.22
768.776	1663.46
768.959	1618.41
769.142	1735.14
769.324	1743.33
769.507	1708.52
769.69	1647.08
769.873	1675.75
770.056	1716.71
770.239	1632.74
770.421	1669.61
770.604	1638.89
770.787	1561.06
770.97	1579.5
771.152	1550.82
771.335	1622.5
771.518	1634.79
771.7	1671.65
771.883	1667.56
772.066	1554.92
772.248	1556.97
772.431	1544.68
772.613	1602.02
772.796	1456.62
772.978	1534.44
773.161	1542.63
773.343	1516.01
773.526	1446.38
773.708	1448.43
773.891	1358.32
774.073	1509.86
774.256	1450.47
774.438	1544.68
774.621	1315.31
774.803	1380.84
774.985	1405.42
775.168	1372.65
775.35	1305.07
775.532	1391.08
775.715	1343.98
775.897	1356.27
776.079	1298.92
776.261	1321.45
776.444	1272.3
776.626	1200.62
776.808	1251.82
776.99	1260.01
777.173	1317.36
777.355	1274.35
777.537	1329.64
777.719	1243.63
777.901	1141.23
778.083	1174
778.265	1171.95
778.447	1223.15
778.629	1157.61
778.811	1223.15
778.993	1169.9
779.175	1147.37
779.357	1116.65
779.539	1075.7
779.721	1145.33
779.903	1071.6
780.085	1044.98
780.267	1100.27
780.449	1143.28
780.631	1100.27
780.812	1036.78
780.994	1130.99
781.176	1067.5
781.358	1069.55
781.54	1075.7
781.721	987.63
781.903	1022.45
782.085	948.72
782.267	1055.22
782.448	909.81
782.63	883.19
782.812	977.39
782.993	846.32
783.175	1001.97
783.357	850.42
783.538	1014.26
783.72	905.71
783.901	793.08
784.083	965.11
784.264	874.99
784.446	889.33
784.627	854.51
784.809	897.52
784.99	791.03
785.172	915.95
785.353	920.05
785.535	885.23
785.716	836.08
785.897	817.65
786.079	836.08
786.26	879.09
786.441	797.17
786.623	756.21
786.804	782.84
786.985	877.04
787.167	735.73
787.348	702.97
787.529	799.22
787.71	883.19
787.891	748.02
788.073	752.12
788.254	702.97
788.435	825.84
788.616	707.06
788.797	676.34
788.978	774.64
789.159	729.59
789.34	786.93
789.522	602.61
789.703	633.33
789.884	748.02
790.065	682.49
790.246	723.44
790.427	643.57
790.607	709.11
790.788	741.88
790.969	616.95
791.15	700.92
791.331	641.53
791.512	580.09
791.693	662.01
791.874	584.18
792.054	795.12
792.235	629.24
792.416	653.81
792.597	666.1
792.778	633.33
792.958	709.11
793.139	575.99
793.32	696.82
793.5	610.81
793.681	637.43
793.862	590.33
794.042	557.56
794.223	485.88
794.404	543.22
794.584	635.38
794.765	537.08
794.945	608.76
795.126	692.73
795.306	522.74
795.487	496.12
795.667	500.22
795.848	500.22
796.028	590.33
796.209	475.64
796.389	582.14
796.57	444.92
796.75	461.3
796.93	573.94
797.111	582.14
797.291	502.26
797.471	475.64
797.652	457.21
797.832	469.5
798.012	559.61
798.192	461.3
798.373	426.49
798.553	455.16
798.733	559.61
798.913	444.92
799.093	440.83
799.274	567.8
799.454	481.78
799.634	502.26
799.814	485.88
799.994	506.36
800.174	457.21
800.354	444.92
800.534	358.91
800.714	510.46
800.894	463.35
801.074	373.24
801.254	455.16
801.434	406.01
801.614	350.71
801.794	401.91
801.974	1386.99
802.154	387.58
802.334	424.44
802.514	406.01
802.693	465.4
802.873	461.3
803.053	512.5
803.233	393.72
803.413	457.21
803.592	430.59
803.772	485.88
803.952	369.15
804.131	410.11
804.311	436.73
804.491	475.64
804.67	375.29
804.85	299.52
805.03	465.4
805.209	403.96
805.389	334.33
805.568	330.23
805.748	426.49
805.928	379.39
806.107	422.39
806.287	412.15
806.466	385.53
806.646	336.38
806.825	399.87
807.004	313.85
807.184	408.06
807.363	430.59
807.543	430.59
807.722	346.62
807.901	311.8
808.081	373.24
808.26	352.76
808.439	301.56
808.619	377.34
808.798	342.52
808.977	356.86
809.156	371.19
809.336	305.66
809.515	365.05
809.694	229.88
809.873	317.95
810.052	354.81
810.231	391.67
810.411	363
810.59	416.25
810.769	352.76
810.948	332.28
811.127	246.27
811.306	356.86
811.485	320
811.664	379.39
811.843	320
812.022	297.47
812.201	260.6
812.38	209.4
812.559	219.64
812.737	326.14
812.916	268.8
813.095	270.84
813.274	328.19
813.453	297.47
813.632	303.61
813.811	348.67
813.989	256.51
814.168	227.84
814.347	217.6
814.526	242.17
814.704	233.98
814.883	305.66
815.062	256.51
815.24	297.47
815.419	236.03
815.598	289.28
815.776	297.47
815.955	266.75
816.133	190.97
816.312	254.46
816.49	193.02
816.669	258.56
816.847	301.56
817.026	217.6
817.204	248.32
817.383	252.41
817.561	203.26
817.74	242.17
817.918	256.51
818.097	252.41
818.275	158.21
818.453	342.52
818.632	297.47
818.81	256.51
818.988	274.94
819.167	215.55
819.345	281.08
819.523	260.6
819.701	240.12
819.879	166.4
820.058	213.5
820.236	201.21
820.414	229.88
820.592	174.59
820.77	160.25
820.948	248.32
821.127	252.41
821.305	215.55
821.483	160.25
821.661	215.55
821.839	240.12
822.017	190.97
822.195	139.77
822.373	260.6
822.551	188.93
822.729	246.27
822.907	135.68
823.085	238.08
823.262	262.65
823.44	152.06
823.618	231.93
823.796	164.35
823.974	111.1
824.152	195.07
824.329	227.84
824.507	223.74
824.685	221.69
824.863	178.69
825.04	176.64
825.218	217.6
825.396	199.16
825.574	236.03
825.751	244.22
825.929	231.93
826.107	168.45
826.284	201.21
826.462	274.94
826.639	168.45
826.817	117.25
826.994	182.78
827.172	180.73
827.349	182.78
827.527	246.27
827.704	113.15
827.882	160.25
828.059	160.25
828.237	100.86
828.414	188.93
828.591	86.53
828.769	182.78
828.946	139.77
829.124	145.92
829.301	231.93
829.478	150.01
829.655	147.97
829.833	199.16
830.01	111.1
830.187	154.11
830.364	123.39
830.542	225.79
830.719	166.4
830.896	160.25
831.073	188.93
831.25	193.02
831.427	231.93
831.604	143.87
831.782	193.02
831.959	145.92
832.136	252.41
832.313	119.29
832.49	170.49
832.667	100.86
832.844	92.67
833.021	209.4
833.198	127.49
833.374	127.49
833.551	111.1
833.728	92.67
833.905	242.17
834.082	145.92
834.259	190.97
834.436	127.49
834.612	131.58
834.789	166.4
834.966	88.57
835.143	51.71
835.319	111.1
835.496	133.63
835.673	135.68
835.85	100.86
836.026	100.86
836.203	205.31
836.38	90.62
836.556	137.73
836.733	133.63
836.909	182.78
837.086	96.77
837.262	125.44
837.439	145.92
837.616	145.92
837.792	266.75
837.968	145.92
838.145	123.39
838.321	197.12
838.498	123.39
838.674	137.73
838.851	117.25
839.027	119.29
839.203	76.29
839.38	199.16
839.556	90.62
839.732	141.82
839.909	141.82
840.085	150.01
840.261	10.75
840.437	162.3
840.614	47.62
840.79	164.35
840.966	117.25
841.142	55.81
841.318	145.92
841.494	158.21
841.671	119.29
841.847	125.44
842.023	92.67
842.199	61.95
842.375	195.07
842.551	51.71
842.727	92.67
842.903	221.69
843.079	74.24
843.255	184.83
843.431	129.53
843.607	201.21
843.783	37.38
843.959	82.43
844.134	102.91
844.31	145.92
844.486	113.15
844.662	109.05
844.838	164.35
845.013	107.01
845.189	109.05
845.365	186.88
845.541	133.63
845.716	150.01
845.892	86.53
846.068	125.44
846.244	92.67
846.419	41.47
846.595	70.14
846.77	72.19
846.946	59.9
847.122	135.68
847.297	74.24
847.473	119.29
847.648	82.43
847.824	88.57
847.999	102.91
848.175	74.24
848.35	78.33
848.526	129.53
848.701	109.05
848.876	84.48
849.052	176.64
849.227	53.76
849.403	117.25
849.578	98.81
849.753	31.23
849.929	100.86
850.104	92.67
850.279	127.49
850.454	74.24
850.63	143.87
850.805	27.14
850.98	100.86
851.155	47.62
851.33	29.18
851.505	43.52
851.681	104.96
851.856	84.48
852.031	160.25
852.206	102.91
852.381	68.09
852.556	86.53
852.731	86.53
852.906	92.67
853.081	119.29
853.256	201.21
853.431	29.18
853.606	10.75
853.781	-1.54
853.956	61.95
854.131	88.57
854.305	33.28
854.48	80.38
854.655	76.29
854.83	135.68
855.005	113.15
855.18	41.47
855.354	74.24
855.529	78.33
855.704	39.42
855.879	78.33
856.053	37.38
856.228	80.38
856.403	45.57
856.577	84.48
856.752	41.47
856.926	0.51
857.101	47.62
857.276	39.42
857.45	-1.54
857.625	129.53
857.799	117.25
857.974	64
858.148	53.76
858.323	78.33
858.497	68.09
858.672	51.71
858.846	141.82
859.02	133.63
859.195	55.81
859.369	49.66
859.543	20.99
859.718	84.48
859.892	84.48
860.066	135.68
860.241	-62.98
860.415	37.38
860.589	96.77
860.763	115.2
860.938	143.87
861.112	111.1
861.286	25.09
861.46	-28.16
861.634	27.14
861.808	102.91
861.982	6.66
862.157	-7.68
862.331	64
862.505	29.18
862.679	115.2
862.853	25.09
863.027	37.38
863.201	92.67
863.375	-40.45
863.549	76.29
863.722	100.86
863.896	33.28
864.07	16.9
864.244	82.43
864.418	94.72
864.592	-38.4
864.766	37.38
864.939	27.14
865.113	35.33
865.287	96.77
865.461	47.62
865.634	84.48
865.808	76.29
865.982	10.75
866.156	-42.5
866.329	-5.63
866.503	-5.63
866.676	92.67
866.85	14.85
867.024	49.66
867.197	123.39
867.371	80.38
867.544	39.42
867.718	12.8
867.891	92.67
868.065	29.18
868.238	18.94
868.412	88.57
868.585	113.15
868.759	92.67
868.932	37.38
869.105	27.14
869.279	41.47
869.452	41.47
869.625	20.99
869.799	18.94
869.972	-38.4
870.145	2.56
870.319	55.81
870.492	45.57
870.665	-52.74
870.838	-26.11
871.011	-52.74
871.185	74.24
871.358	20.99
871.531	49.66
871.704	39.42
871.877	82.43
872.05	20.99
872.223	-13.82
872.396	76.29
872.569	51.71
872.742	-50.69
872.915	49.66
873.088	51.71
873.261	-26.11
873.434	84.48
873.607	78.33
873.78	37.38
873.953	6.66
874.126	23.04
874.299	78.33
874.471	14.85
874.644	59.9
874.817	61.95
874.99	64
875.163	84.48
875.335	98.81
875.508	4.61
875.681	121.34
875.853	18.94
876.026	35.33
876.199	29.18
876.371	64
876.544	59.9
876.717	96.77
876.889	-5.63
877.062	-26.11
877.234	-42.5
877.407	16.9
877.579	-11.78
877.752	20.99
877.924	72.19
878.097	29.18
878.269	47.62
878.442	96.77
878.614	107.01
878.786	35.33
878.959	33.28
879.131	43.52
879.303	10.75
879.476	31.23
879.648	127.49
879.82	98.81
879.993	18.94
880.165	35.33
880.337	-13.82
880.509	2.56
880.681	-30.21
880.854	-42.5
881.026	51.71
881.198	104.96
881.37	47.62
881.542	47.62
881.714	10.75
881.886	10.75
882.058	133.63
882.23	10.75
882.402	-30.21
882.574	51.71
882.746	18.94
882.918	117.25
883.09	125.44
883.262	57.86
883.434	-11.78
883.606	6.66
883.778	45.57
883.95	-7.68
884.122	43.52
884.293	115.2
884.465	51.71
884.637	55.81
884.809	49.66
884.98	49.66
885.152	64
885.324	35.33
885.496	-24.06
885.667	20.99
885.839	-9.73
886.011	88.57
886.182	98.81
886.354	182.78
886.525	172.54
886.697	88.57
886.869	-19.97
887.04	98.81
887.212	70.14
887.383	57.86
887.555	31.23
887.726	12.8
887.897	31.23
888.069	37.38
888.24	51.71
888.412	84.48
888.583	76.29
888.754	53.76
888.926	-26.11
889.097	-19.97
889.268	-48.64
889.44	2.56
889.611	-26.11
889.782	-30.21
889.953	-44.54
890.125	84.48
890.296	88.57
890.467	-3.58
890.638	64
890.809	68.09
890.98	27.14
891.151	53.76
891.323	94.72
891.494	20.99
891.665	-28.16
891.836	35.33
892.007	29.18
892.178	14.85
892.349	4.61
892.52	35.33
892.691	90.62
892.862	-13.82
893.032	12.8
893.203	-71.17
893.374	4.61
893.545	29.18
893.716	-9.73
893.887	66.05
894.057	23.04
894.228	47.62
894.399	33.28
894.57	84.48
894.74	37.38
894.911	29.18
895.082	2.56
895.253	53.76
895.423	45.57
895.594	6.66
895.764	119.29
895.935	-26.11
896.106	33.28
896.276	-28.16
896.447	31.23
896.617	25.09
896.788	-7.68
896.958	-5.63
897.129	-38.4
897.299	49.66
897.47	76.29
897.64	121.34
897.81	-5.63
897.981	-3.58
898.151	-28.16
898.322	-5.63
898.492	47.62
898.662	2.56
898.832	25.09
899.003	33.28
899.173	98.81
899.343	53.76
899.513	0.51
