Data from USB4F104151__72__13-06-01-720.txt Node

Date: Fri Mar 14 13:06:01 EDT 2025
User: louis
Spectrometer: USB4F10415
Trigger mode: 4
Integration Time (sec): 4.000000E-2
Scans to average: 1
Electric dark correction enabled: true
Nonlinearity correction enabled: false
Boxcar width: 0
XAxis mode: Wavelengths
Number of Pixels in Spectrum: 3648
>>>>>Begin Spectral Data<<<<<
178.204	-231.25
178.424	-231.25
178.644	-231.25
178.864	-163.67
179.084	-196.43
179.304	45.23
179.524	10.41
179.744	6.31
179.964	86.19
180.184	-55.12
180.404	-38.74
180.624	10.41
180.844	-16.21
181.064	-42.84
181.283	20.65
181.503	-36.69
181.723	10.41
181.943	-18.26
182.163	55.47
182.383	14.51
182.602	39.08
182.822	26.79
183.042	30.89
183.262	-1.88
183.482	10.41
183.701	-16.21
183.921	41.13
184.141	-32.6
184.361	67.75
184.58	-3.93
184.8	45.23
185.02	30.89
185.239	2.22
185.459	32.94
185.679	32.94
185.898	2.22
186.118	125.1
186.338	2.22
186.557	22.7
186.777	8.36
186.997	-12.12
187.216	37.03
187.436	94.38
187.655	84.14
187.875	121
188.095	34.99
188.314	147.62
188.534	88.23
188.753	6.31
188.973	-3.93
189.192	75.95
189.412	30.89
189.631	30.89
189.851	43.18
190.07	131.24
190.29	22.7
190.509	-12.12
190.729	80.04
190.948	121
191.168	200.87
191.387	96.43
191.607	30.89
191.826	14.51
192.045	37.03
192.265	-42.84
192.484	-5.97
192.704	14.51
192.923	-1.88
193.142	133.29
193.362	-20.31
193.581	71.85
193.8	84.14
194.02	82.09
194.239	41.13
194.458	102.57
194.678	45.23
194.897	-36.69
195.116	75.95
195.335	57.51
195.555	82.09
195.774	2.22
195.993	84.14
196.212	6.31
196.432	10.41
196.651	22.7
196.87	49.32
197.089	102.57
197.308	84.14
197.528	43.18
197.747	37.03
197.966	-8.02
198.185	65.71
198.404	14.51
198.623	90.28
198.842	59.56
199.062	77.99
199.281	51.37
199.5	-16.21
199.719	41.13
199.938	114.86
200.157	149.67
200.376	57.51
200.595	84.14
200.814	14.51
201.033	30.89
201.252	18.6
201.471	61.61
201.69	104.62
201.909	18.6
202.128	45.23
202.347	10.41
202.566	-5.97
202.785	14.51
203.004	-8.02
203.223	47.27
203.442	-48.98
203.661	30.89
203.879	16.55
204.098	110.76
204.317	-24.4
204.536	26.79
204.755	16.55
204.974	121
205.193	-24.4
205.411	112.81
205.63	22.7
205.849	34.99
206.068	63.66
206.287	49.32
206.505	102.57
206.724	39.08
206.943	28.84
207.162	-5.97
207.381	14.51
207.599	26.79
207.818	-44.88
208.037	24.75
208.255	-3.93
208.474	53.42
208.693	65.71
208.911	65.71
209.13	-42.84
209.349	18.6
209.567	-12.12
209.786	172.2
210.005	47.27
210.223	34.99
210.442	14.51
210.661	14.51
210.879	43.18
211.098	24.75
211.316	67.75
211.535	123.05
211.753	32.94
211.972	43.18
212.191	0.17
212.409	-8.02
212.628	84.14
212.846	39.08
213.065	16.55
213.283	24.75
213.502	45.23
213.72	80.04
213.938	59.56
214.157	-1.88
214.375	-55.12
214.594	6.31
214.812	61.61
215.031	43.18
215.249	4.27
215.467	-3.93
215.686	12.46
215.904	32.94
216.122	2.22
216.341	137.38
216.559	34.99
216.778	80.04
216.996	12.46
217.214	-1.88
217.432	32.94
217.651	22.7
217.869	51.37
218.087	41.13
218.306	-20.31
218.524	-10.07
218.742	2.22
218.96	63.66
219.179	24.75
219.397	39.08
219.615	108.71
219.833	24.75
220.051	24.75
220.27	80.04
220.488	30.89
220.706	41.13
220.924	10.41
221.142	-40.79
221.36	14.51
221.578	147.62
221.796	14.51
222.015	22.7
222.233	47.27
222.451	139.43
222.669	-57.17
222.887	43.18
223.105	16.55
223.323	-5.97
223.541	18.6
223.759	20.65
223.977	-79.7
224.195	106.67
224.413	90.28
224.631	57.51
224.849	92.33
225.067	129.19
225.285	-16.21
225.503	28.84
225.721	-48.98
225.939	90.28
226.157	24.75
226.375	155.82
226.592	2.22
226.81	-30.55
227.028	88.23
227.246	82.09
227.464	73.9
227.682	51.37
227.9	16.55
228.117	112.81
228.335	39.08
228.553	94.38
228.771	22.7
228.989	-8.02
229.206	61.61
229.424	43.18
229.642	-16.21
229.86	-83.8
230.077	125.1
230.295	69.8
230.513	59.56
230.731	49.32
230.948	92.33
231.166	114.86
231.384	-32.6
231.601	77.99
231.819	69.8
232.037	-16.21
232.254	-8.02
232.472	16.55
232.689	6.31
232.907	98.47
233.125	39.08
233.342	51.37
233.56	-53.08
233.777	100.52
233.995	-18.26
234.213	94.38
234.43	14.51
234.648	82.09
234.865	-1.88
235.083	77.99
235.3	-3.93
235.518	82.09
235.735	80.04
235.953	88.23
236.17	-16.21
236.388	49.32
236.605	22.7
236.822	84.14
237.04	131.24
237.257	39.08
237.475	16.55
237.692	32.94
237.909	84.14
238.127	69.8
238.344	41.13
238.562	84.14
238.779	4.27
238.996	-3.93
239.214	24.75
239.431	86.19
239.648	57.51
239.865	34.99
240.083	65.71
240.3	65.71
240.517	63.66
240.735	6.31
240.952	73.9
241.169	67.75
241.386	24.75
241.603	90.28
241.821	47.27
242.038	88.23
242.255	53.42
242.472	-22.36
242.689	53.42
242.907	45.23
243.124	104.62
243.341	16.55
243.558	26.79
243.775	20.65
243.992	18.6
244.209	30.89
244.426	190.63
244.643	98.47
244.86	43.18
245.078	84.14
245.295	30.89
245.512	100.52
245.729	-71.51
245.946	59.56
246.163	129.19
246.38	71.85
246.597	30.89
246.814	-24.4
247.031	-38.74
247.248	10.41
247.464	98.47
247.681	55.47
247.898	73.9
248.115	34.99
248.332	43.18
248.549	108.71
248.766	147.62
248.983	90.28
249.2	57.51
249.417	65.71
249.633	26.79
249.85	57.51
250.067	51.37
250.284	71.85
250.501	123.05
250.717	71.85
250.934	73.9
251.151	69.8
251.368	-40.79
251.585	47.27
251.801	34.99
252.018	34.99
252.235	71.85
252.451	12.46
252.668	12.46
252.885	-1.88
253.102	67.75
253.318	18.6
253.535	94.38
253.752	73.9
253.968	4.27
254.185	20.65
254.401	82.09
254.618	41.13
254.835	-24.4
255.051	73.9
255.268	57.51
255.484	-51.03
255.701	63.66
255.917	131.24
256.134	30.89
256.351	82.09
256.567	-44.88
256.784	-5.97
257	14.51
257.217	34.99
257.433	71.85
257.65	59.56
257.866	57.51
258.082	8.36
258.299	24.75
258.515	100.52
258.732	-89.94
258.948	0.17
259.165	98.47
259.381	55.47
259.597	22.7
259.814	22.7
260.03	22.7
260.246	-1.88
260.463	137.38
260.679	80.04
260.895	41.13
261.112	-1.88
261.328	32.94
261.544	18.6
261.761	182.44
261.977	71.85
262.193	12.46
262.409	71.85
262.626	32.94
262.842	112.81
263.058	34.99
263.274	-34.64
263.49	8.36
263.707	73.9
263.923	41.13
264.139	41.13
264.355	20.65
264.571	65.71
264.787	63.66
265.004	67.75
265.22	26.79
265.436	-14.17
265.652	-16.21
265.868	67.75
266.084	-10.07
266.3	26.79
266.516	-18.26
266.732	39.08
266.948	28.84
267.164	73.9
267.38	2.22
267.596	49.32
267.812	104.62
268.028	28.84
268.244	43.18
268.46	73.9
268.676	59.56
268.892	100.52
269.108	51.37
269.324	55.47
269.54	-42.84
269.756	53.42
269.972	-30.55
270.188	-5.97
270.403	-34.64
270.619	6.31
270.835	96.43
271.051	-16.21
271.267	0.17
271.483	-22.36
271.698	90.28
271.914	57.51
272.13	98.47
272.346	-20.31
272.562	71.85
272.777	102.57
272.993	49.32
273.209	20.65
273.425	73.9
273.64	0.17
273.856	80.04
274.072	8.36
274.287	-1.88
274.503	45.23
274.719	100.52
274.934	30.89
275.15	-55.12
275.366	4.27
275.581	75.95
275.797	51.37
276.012	43.18
276.228	67.75
276.444	-1.88
276.659	104.62
276.875	30.89
277.09	34.99
277.306	49.32
277.521	28.84
277.737	71.85
277.952	86.19
278.168	88.23
278.383	-32.6
278.599	22.7
278.814	59.56
279.03	28.84
279.245	149.67
279.461	34.99
279.676	137.38
279.892	43.18
280.107	10.41
280.322	6.31
280.538	88.23
280.753	26.79
280.969	84.14
281.184	47.27
281.399	88.23
281.615	73.9
281.83	-10.07
282.045	-40.79
282.26	-5.97
282.476	30.89
282.691	51.37
282.906	34.99
283.122	94.38
283.337	51.37
283.552	98.47
283.767	2.22
283.983	28.84
284.198	-24.4
284.413	59.56
284.628	14.51
284.843	45.23
285.058	71.85
285.274	96.43
285.489	8.36
285.704	112.81
285.919	0.17
286.134	75.95
286.349	43.18
286.564	84.14
286.779	112.81
286.995	121
287.21	26.79
287.425	10.41
287.64	24.75
287.855	39.08
288.07	-67.41
288.285	49.32
288.5	67.75
288.715	37.03
288.93	18.6
289.145	-10.07
289.36	114.86
289.575	47.27
289.79	24.75
290.004	-28.5
290.219	86.19
290.434	18.6
290.649	41.13
290.864	-26.45
291.079	67.75
291.294	45.23
291.509	80.04
291.724	16.55
291.938	-51.03
292.153	82.09
292.368	28.84
292.583	51.37
292.798	28.84
293.012	100.52
293.227	51.37
293.442	59.56
293.657	86.19
293.871	47.27
294.086	37.03
294.301	82.09
294.516	139.43
294.73	63.66
294.945	65.71
295.16	14.51
295.374	137.38
295.589	8.36
295.804	63.66
296.018	57.51
296.233	96.43
296.447	94.38
296.662	59.56
296.877	121
297.091	51.37
297.306	59.56
297.52	63.66
297.735	73.9
297.949	82.09
298.164	51.37
298.378	16.55
298.593	32.94
298.807	55.47
299.022	49.32
299.236	71.85
299.451	67.75
299.665	39.08
299.88	51.37
300.094	59.56
300.309	49.32
300.523	86.19
300.737	47.27
300.952	-1.88
301.166	53.42
301.381	30.89
301.595	53.42
301.809	16.55
302.024	24.75
302.238	34.99
302.452	49.32
302.667	51.37
302.881	61.61
303.095	69.8
303.309	47.27
303.524	34.99
303.738	51.37
303.952	-5.97
304.166	123.05
304.381	-51.03
304.595	121
304.809	-8.02
305.023	-3.93
305.237	-3.93
305.452	112.81
305.666	116.9
305.88	80.04
306.094	88.23
306.308	55.47
306.522	47.27
306.736	-16.21
306.95	47.27
307.164	47.27
307.379	73.9
307.593	90.28
307.807	75.95
308.021	39.08
308.235	67.75
308.449	55.47
308.663	8.36
308.877	123.05
309.091	-16.21
309.305	102.57
309.519	-83.8
309.733	65.71
309.947	10.41
310.161	151.72
310.374	43.18
310.588	39.08
310.802	-1.88
311.016	47.27
311.23	123.05
311.444	4.27
311.658	67.75
311.872	118.95
312.085	30.89
312.299	86.19
312.513	92.33
312.727	39.08
312.941	-1.88
313.154	53.42
313.368	6.31
313.582	137.38
313.796	49.32
314.009	-24.4
314.223	157.86
314.437	28.84
314.651	96.43
314.864	47.27
315.078	-20.31
315.292	4.27
315.505	37.03
315.719	59.56
315.933	65.71
316.146	51.37
316.36	2.22
316.573	96.43
316.787	67.75
317.001	131.24
317.214	47.27
317.428	65.71
317.641	-12.12
317.855	-5.97
318.068	69.8
318.282	63.66
318.495	65.71
318.709	98.47
318.922	14.51
319.136	151.72
319.349	94.38
319.563	22.7
319.776	-26.45
319.99	30.89
320.203	53.42
320.417	67.75
320.63	65.71
320.843	94.38
321.057	53.42
321.27	8.36
321.483	116.9
321.697	63.66
321.91	2.22
322.124	63.66
322.337	4.27
322.55	32.94
322.763	67.75
322.977	88.23
323.19	67.75
323.403	80.04
323.617	67.75
323.83	106.67
324.043	-30.55
324.256	73.9
324.469	8.36
324.683	88.23
324.896	-26.45
325.109	-40.79
325.322	26.79
325.535	65.71
325.748	94.38
325.962	75.95
326.175	116.9
326.388	73.9
326.601	98.47
326.814	51.37
327.027	-1.88
327.24	92.33
327.453	-16.21
327.666	47.27
327.879	57.51
328.092	71.85
328.305	61.61
328.518	51.37
328.731	106.67
328.944	96.43
329.157	108.71
329.37	14.51
329.583	145.58
329.796	147.62
330.009	-24.4
330.222	92.33
330.435	26.79
330.648	121
330.861	30.89
331.073	67.75
331.286	67.75
331.499	28.84
331.712	-18.26
331.925	106.67
332.138	75.95
332.35	96.43
332.563	24.75
332.776	59.56
332.989	-28.5
333.202	71.85
333.414	135.34
333.627	16.55
333.84	-12.12
334.053	14.51
334.265	-81.75
334.478	-22.36
334.691	6.31
334.903	39.08
335.116	39.08
335.329	39.08
335.541	102.57
335.754	51.37
335.966	51.37
336.179	43.18
336.392	37.03
336.604	65.71
336.817	49.32
337.029	88.23
337.242	82.09
337.454	71.85
337.667	6.31
337.88	106.67
338.092	71.85
338.305	59.56
338.517	41.13
338.729	112.81
338.942	123.05
339.154	26.79
339.367	-10.07
339.579	121
339.792	-10.07
340.004	71.85
340.217	6.31
340.429	96.43
340.641	34.99
340.854	-20.31
341.066	34.99
341.278	137.38
341.491	59.56
341.703	75.95
341.915	8.36
342.128	75.95
342.34	75.95
342.552	28.84
342.764	100.52
342.977	82.09
343.189	114.86
343.401	6.31
343.613	34.99
343.826	49.32
344.038	14.51
344.25	80.04
344.462	6.31
344.674	59.56
344.886	49.32
345.099	49.32
345.311	69.8
345.523	-28.5
345.735	49.32
345.947	37.03
346.159	86.19
346.371	55.47
346.583	98.47
346.795	166.06
347.007	49.32
347.219	47.27
347.431	-1.88
347.643	123.05
347.855	2.22
348.067	125.1
348.279	59.56
348.491	22.7
348.703	53.42
348.915	69.8
349.127	-57.17
349.339	41.13
349.551	-1.88
349.763	82.09
349.975	59.56
350.187	24.75
350.399	90.28
350.61	104.62
350.822	51.37
351.034	6.31
351.246	98.47
351.458	14.51
351.669	137.38
351.881	37.03
352.093	88.23
352.305	114.86
352.517	110.76
352.728	131.24
352.94	10.41
353.152	69.8
353.363	-40.79
353.575	49.32
353.787	84.14
353.999	55.47
354.21	200.87
354.422	4.27
354.633	24.75
354.845	84.14
355.057	82.09
355.268	80.04
355.48	106.67
355.692	125.1
355.903	49.32
356.115	22.7
356.326	-32.6
356.538	153.77
356.749	-10.07
356.961	47.27
357.172	-18.26
357.384	-5.97
357.595	110.76
357.807	39.08
358.018	18.6
358.23	63.66
358.441	133.29
358.653	51.37
358.864	-57.17
359.075	6.31
359.287	63.66
359.498	73.9
359.709	55.47
359.921	26.79
360.132	69.8
360.344	24.75
360.555	14.51
360.766	106.67
360.977	-1.88
361.189	92.33
361.4	41.13
361.611	151.72
361.823	47.27
362.034	24.75
362.245	22.7
362.456	12.46
362.667	80.04
362.879	47.27
363.09	39.08
363.301	24.75
363.512	2.22
363.723	-8.02
363.935	47.27
364.146	204.97
364.357	6.31
364.568	100.52
364.779	24.75
364.99	53.42
365.201	98.47
365.412	82.09
365.623	-8.02
365.834	61.61
366.045	67.75
366.256	112.81
366.467	108.71
366.678	28.84
366.889	137.38
367.1	94.38
367.311	-10.07
367.522	-18.26
367.733	135.34
367.944	77.99
368.155	82.09
368.366	59.56
368.577	61.61
368.788	96.43
368.999	22.7
369.209	59.56
369.42	186.54
369.631	65.71
369.842	88.23
370.053	14.51
370.264	61.61
370.474	24.75
370.685	26.79
370.896	0.17
371.107	176.3
371.317	22.7
371.528	26.79
371.739	112.81
371.95	26.79
372.16	39.08
372.371	-34.64
372.582	108.71
372.792	102.57
373.003	104.62
373.214	135.34
373.424	41.13
373.635	-20.31
373.846	88.23
374.056	102.57
374.267	49.32
374.477	32.94
374.688	51.37
374.898	47.27
375.109	41.13
375.319	82.09
375.53	86.19
375.74	112.81
375.951	41.13
376.161	-24.4
376.372	67.75
376.582	71.85
376.793	57.51
377.003	57.51
377.214	55.47
377.424	63.66
377.635	80.04
377.845	-12.12
378.055	153.77
378.266	20.65
378.476	14.51
378.686	57.51
378.897	129.19
379.107	65.71
379.317	57.51
379.528	155.82
379.738	45.23
379.948	73.9
380.158	125.1
380.369	121
380.579	69.8
380.789	84.14
380.999	94.38
381.21	92.33
381.42	139.43
381.63	16.55
381.84	106.67
382.05	75.95
382.261	192.68
382.471	53.42
382.681	65.71
382.891	176.3
383.101	71.85
383.311	20.65
383.521	8.36
383.731	98.47
383.941	145.58
384.151	153.77
384.361	94.38
384.571	61.61
384.781	59.56
384.991	129.19
385.201	166.06
385.411	153.77
385.621	80.04
385.831	133.29
386.041	77.99
386.251	82.09
386.461	47.27
386.671	73.9
386.881	65.71
387.091	61.61
387.301	73.9
387.511	73.9
387.72	139.43
387.93	155.82
388.14	4.27
388.35	41.13
388.56	149.67
388.769	88.23
388.979	82.09
389.189	14.51
389.399	80.04
389.609	37.03
389.818	166.06
390.028	82.09
390.238	65.71
390.447	63.66
390.657	135.34
390.867	88.23
391.076	6.31
391.286	104.62
391.496	137.38
391.705	112.81
391.915	59.56
392.125	137.38
392.334	65.71
392.544	159.91
392.753	98.47
392.963	133.29
393.172	137.38
393.382	151.72
393.591	121
393.801	92.33
394.01	202.92
394.22	129.19
394.429	41.13
394.639	121
394.848	137.38
395.058	143.53
395.267	153.77
395.477	135.34
395.686	153.77
395.895	153.77
396.105	202.92
396.314	129.19
396.524	151.72
396.733	196.78
396.942	194.73
397.152	125.1
397.361	180.39
397.57	123.05
397.78	114.86
397.989	125.1
398.198	170.15
398.407	90.28
398.617	96.43
398.826	63.66
399.035	118.95
399.244	161.96
399.453	129.19
399.663	104.62
399.872	215.21
400.081	131.24
400.29	161.96
400.499	32.94
400.708	125.1
400.917	98.47
401.127	127.14
401.336	53.42
401.545	268.45
401.754	145.58
401.963	127.14
402.172	161.96
402.381	123.05
402.59	166.06
402.799	139.43
403.008	243.88
403.217	135.34
403.426	75.95
403.635	131.24
403.844	190.63
404.053	176.3
404.262	182.44
404.471	186.54
404.68	176.3
404.888	139.43
405.097	190.63
405.306	241.83
405.515	221.35
405.724	219.3
405.933	295.08
406.142	161.96
406.35	268.45
406.559	295.08
406.768	250.02
406.977	297.13
407.185	301.22
407.394	272.55
407.603	241.83
407.812	276.65
408.02	346.28
408.229	303.27
408.438	321.7
408.646	293.03
408.855	385.19
409.064	387.24
409.272	307.37
409.481	403.62
409.69	377
409.898	348.33
410.107	374.95
410.315	415.91
410.524	393.38
410.733	370.85
410.941	424.1
411.15	522.4
411.358	403.62
411.567	549.03
411.775	473.25
411.984	506.02
412.192	567.46
412.401	483.49
412.609	747.68
412.818	641.18
413.026	680.1
413.234	686.24
413.443	686.24
413.651	655.52
413.86	778.4
414.068	727.2
414.276	802.97
414.485	737.44
414.693	786.59
414.901	940.19
415.11	995.48
415.318	825.5
415.526	878.75
415.734	970.91
415.943	1050.78
416.151	1104.03
416.359	1089.69
416.567	999.58
416.776	1122.46
416.984	1177.75
417.192	1355.93
417.4	1175.7
417.608	1200.28
417.817	1296.53
418.025	1398.93
418.233	1542.29
418.441	1472.66
418.649	1511.57
418.857	1595.54
419.065	1777.81
419.273	1710.22
419.481	1718.42
419.689	1820.81
419.897	1910.93
420.105	1998.99
420.313	1915.02
420.521	2140.3
420.729	2054.28
420.937	2152.59
421.145	2250.89
421.353	2363.53
421.561	2431.11
421.769	2513.03
421.977	2680.96
422.185	2590.85
422.393	2670.72
422.601	3041.4
422.809	3000.44
423.017	2971.77
423.224	3119.23
423.432	3160.19
423.64	3188.86
423.848	3512.44
424.056	3332.22
424.263	3641.46
424.471	3602.55
424.679	3625.08
424.887	3971.18
425.094	4042.86
425.302	4126.83
425.51	4130.92
425.718	4380.78
425.925	4243.56
426.133	4679.78
426.341	4816.99
426.548	5038.17
426.756	5046.37
426.964	5146.72
427.171	5310.55
427.379	5525.59
427.586	5687.38
427.794	5822.55
428.001	6078.54
428.209	6189.13
428.417	6258.76
428.624	6608.97
428.832	6594.63
429.039	6572.1
429.247	6707.27
429.454	7335.99
429.662	7778.36
429.869	7235.64
430.076	7723.06
430.284	7399.48
430.491	7843.89
430.699	8333.36
430.906	8396.84
431.114	8333.36
431.321	8638.5
431.528	8919.07
431.736	9510.94
431.943	9816.08
432.15	9627.67
432.358	9685.01
432.565	10217.49
432.772	10215.44
432.979	11036.67
433.187	10971.14
433.394	10942.47
433.601	11728.89
433.808	11737.08
434.016	11743.22
434.223	12322.8
434.43	12980.2
434.637	12556.27
434.844	13572.06
435.052	13709.27
435.259	13354.97
435.466	13801.43
435.673	13553.63
435.88	14499.79
436.087	15228.87
436.294	15581.12
436.501	14909.38
436.708	15263.68
436.915	15962.04
437.122	16822.19
437.329	16471.98
437.537	17125.29
437.743	17463.2
437.95	16893.86
438.157	17848.22
438.364	18558.86
438.571	18603.92
438.778	18585.49
438.985	20369.27
439.192	19570.56
439.399	20379.51
439.606	19826.56
439.813	21067.63
440.02	22234.97
440.227	22138.71
440.433	21901.15
440.64	22474.58
440.847	22290.26
441.054	22916.94
441.261	24633.14
441.467	24057.66
441.674	24489.78
441.881	25231.15
442.088	25638.69
442.294	24948.53
442.501	25308.97
442.708	26558.23
442.914	27162.38
443.121	28501.75
443.328	27590.41
443.534	29587.18
443.741	28473.08
443.948	28253.95
444.154	30826.2
444.361	30510.81
444.568	30615.26
444.774	30584.54
444.981	30682.84
445.187	31588.04
445.394	33171.12
445.6	33017.52
445.807	36230.79
446.013	34352.8
446.22	34700.95
446.426	36640.38
446.633	36277.89
446.839	37815.91
447.046	36441.73
447.252	38911.58
447.459	38237.8
447.665	38518.37
447.871	40044.1
448.078	41864.75
448.284	39702.09
448.491	40465.99
448.697	42858.01
448.903	43193.88
449.11	43365.91
449.316	42649.12
449.522	43292.18
449.728	44502.53
449.935	44951.04
450.141	44944.89
450.347	45866.48
450.553	44946.94
450.76	45106.68
450.966	46595.56
451.172	46296.55
451.378	47248.86
451.584	46321.13
451.791	47963.6
451.997	47533.53
452.203	48192.97
452.409	48383.43
452.615	48297.42
452.821	46515.68
453.027	46018.03
453.233	48375.24
453.44	46597.6
453.646	46763.49
453.852	47390.17
454.058	48035.28
454.264	46618.08
454.47	47513.05
454.676	46433.77
454.882	47971.79
455.088	44062.22
455.294	44877.31
455.5	45276.66
455.705	46038.51
455.911	44068.36
456.117	42726.94
456.323	42346.02
456.529	40488.51
456.735	42470.95
456.941	40760.89
457.147	40769.08
457.352	39663.18
457.558	39083.61
457.764	39143
457.97	38137.44
458.176	37285.49
458.381	37277.3
458.587	35966.6
458.793	35747.47
458.999	34033.32
459.204	36320.9
459.41	35333.78
459.616	32851.64
459.821	32841.4
460.027	33418.92
460.233	31858.37
460.438	30498.52
460.644	31084.24
460.85	29413.1
461.055	29193.97
461.261	28845.81
461.466	27143.95
461.672	26165.02
461.878	27909.89
462.083	25995.04
462.289	25743.14
462.494	25405.22
462.7	24223.55
462.905	23054.15
463.111	24631.09
463.316	24631.09
463.522	23785.28
463.727	23983.93
463.932	24067.9
464.138	23588.67
464.343	23822.14
464.549	23162.7
464.754	23789.38
464.959	23549.76
465.165	23381.83
465.37	22255.45
465.575	21800.8
465.781	22904.65
465.986	22871.89
466.191	22134.62
466.397	21409.64
466.602	20731.76
466.807	21077.87
467.012	21426.02
467.218	21145.45
467.423	20801.39
467.628	21081.96
467.833	22075.23
468.038	21041
468.244	20764.53
468.449	21288.81
468.654	20774.77
468.859	20506.48
469.064	20258.68
469.269	19693.44
469.474	19644.29
469.679	20207.48
469.885	19924.86
470.09	19844.99
470.295	19892.09
470.5	19390.34
470.705	19296.13
470.91	18550.67
471.115	18845.58
471.32	19109.77
471.525	18816.91
471.73	18655.12
471.935	18300.82
472.139	17647.52
472.344	17991.58
472.549	18005.91
472.754	17665.95
472.959	17475.49
473.164	16938.92
473.369	16840.62
473.574	17356.71
473.778	17125.29
473.983	17069.99
474.188	17063.85
474.393	16132.02
474.598	16197.56
474.802	16054.2
475.007	15888.31
475.212	15790.01
475.417	15022.02
475.621	15286.21
475.826	15439.81
476.031	15341.5
476.235	14729.16
476.44	15239.11
476.645	14675.91
476.849	14575.56
477.054	14614.48
477.259	14311.38
477.463	14569.42
477.668	13950.93
477.872	14202.83
478.077	13869.02
478.282	13490.14
478.486	13649.88
478.691	13500.38
478.895	13434.85
479.1	13211.62
479.304	13408.22
479.509	13101.03
479.713	13320.16
479.918	12980.2
480.122	12726.25
480.326	12740.58
480.531	12842.98
480.735	12527.6
480.94	12625.9
481.144	13096.93
481.348	12474.35
481.553	12425.2
481.757	12306.41
481.961	12564.46
482.166	12638.19
482.37	12558.32
482.574	12042.23
482.778	12605.42
482.983	12378.09
483.187	12165.11
483.391	12339.18
483.595	12079.09
483.8	12208.11
484.004	12240.88
484.208	12341.23
484.412	12210.16
484.616	12435.44
484.821	12359.66
485.025	11986.93
485.229	12326.89
485.433	12165.11
485.637	12134.39
485.841	12324.85
486.045	12189.68
486.249	12429.29
486.453	12216.3
486.657	12281.84
486.861	12697.58
487.065	12081.14
487.269	12378.09
487.473	12062.71
487.677	12511.21
487.881	12517.36
488.085	12148.72
488.289	12468.2
488.493	12222.45
488.697	12283.89
488.901	12363.76
489.105	12384.24
489.309	12296.18
489.512	12326.89
489.716	12462.06
489.92	12247.02
490.124	12472.3
490.328	12654.57
490.531	12654.57
490.735	12625.9
490.939	12732.39
491.143	12535.79
491.346	12562.41
491.55	12924.9
491.754	12765.16
491.958	12939.24
492.161	12990.44
492.365	12822.5
492.569	12838.89
492.772	12859.37
492.976	13139.94
493.18	13101.03
493.383	13119.46
493.587	13645.79
493.79	13410.27
493.994	13195.23
494.197	13473.76
494.401	13731.8
494.605	13703.13
494.808	13866.97
495.012	13703.13
495.215	13883.35
495.419	13959.13
495.622	14110.68
495.825	14260.18
496.029	14034.9
496.232	14706.63
496.436	14358.48
496.639	14700.49
496.843	14677.96
497.046	14944.2
497.249	15222.72
497.453	15214.53
497.656	15421.38
497.859	15411.14
498.063	15474.62
498.266	15992.76
498.469	15630.27
498.673	15982.52
498.876	16023.48
499.079	16406.45
499.282	16236.47
499.485	16854.95
499.689	16746.41
499.892	16951.21
500.095	17002.41
500.298	17510.3
500.501	17508.26
500.705	17862.55
500.908	17928.09
501.111	18145.17
501.314	18085.78
501.517	18524.05
501.72	18859.91
501.923	18769.8
502.126	19302.28
502.329	19265.41
502.532	19464.07
502.735	19523.46
502.938	19912.57
503.141	20262.77
503.344	20465.52
503.547	20381.56
503.75	20686.7
503.953	20965.23
504.156	21161.83
504.359	21260.13
504.562	21579.62
504.765	22034.27
504.968	22114.14
505.17	22472.53
505.373	22196.06
505.576	22939.47
505.779	22824.78
505.982	23281.48
506.185	23467.84
506.387	23607.11
506.59	23877.44
506.793	24260.41
506.996	24037.18
507.198	24889.13
507.401	24780.59
507.604	25186.09
507.807	25503.53
508.009	25767.71
508.212	25982.75
508.415	26085.15
508.617	26414.87
508.82	26578.71
509.022	26482.45
509.225	27318.03
509.428	27633.41
509.63	27543.3
509.833	27735.81
510.035	28309.24
510.238	28178.17
510.44	28651.25
510.643	29023.98
510.845	29482.73
511.048	29214.44
511.25	29619.94
511.453	29947.62
511.655	30775
511.858	30297.82
512.06	30602.97
512.262	31190.73
512.465	30897.88
512.667	31448.78
512.87	31667.91
513.072	31880.9
513.274	32472.76
513.477	32775.86
513.679	32810.68
513.881	33160.88
514.084	33459.88
514.286	33404.59
514.488	33699.5
514.69	34686.62
514.893	35047.06
515.095	35030.68
515.297	35178.13
515.499	34975.38
515.701	35683.98
515.904	35841.67
516.106	36394.62
516.308	36783.74
516.51	36806.27
516.712	37017.21
516.914	37398.13
517.116	38303.33
517.318	38090.34
517.52	38180.45
517.722	38258.27
517.925	39085.65
518.127	39036.5
518.329	39425.62
518.531	39319.12
518.733	40519.23
518.935	40222.28
519.136	40273.48
519.338	40885.82
519.54	41389.62
519.742	41590.32
519.944	41786.93
520.146	42595.87
520.348	42503.71
520.55	42800.67
520.752	43103.77
520.954	43445.78
521.155	43558.42
521.357	43660.82
521.559	44013.07
521.761	44744.19
521.963	44932.61
522.164	44938.75
522.366	44924.41
522.568	45231.61
522.77	45643.25
522.971	45874.67
523.173	45805.04
523.375	46437.86
523.576	46202.35
523.778	46183.91
523.98	46882.27
524.181	47087.07
524.383	47668.69
524.584	47420.89
524.786	47906.26
524.988	47631.83
525.189	48088.52
525.391	48498.12
525.592	48561.61
525.794	48668.1
525.995	48539.08
526.197	49075.65
526.398	49380.79
526.6	49382.84
526.801	49376.7
527.003	49991.09
527.204	49806.77
527.406	50136.49
527.607	49995.18
527.808	50480.55
528.01	49710.52
528.211	49898.93
528.412	51537.3
528.614	51305.88
528.815	50961.83
529.016	51254.68
529.218	50902.43
529.419	51479.96
529.62	51062.18
529.822	51400.09
530.023	51555.74
530.224	51578.26
530.425	51363.23
530.626	51275.16
530.828	51295.64
531.029	51905.94
531.23	51572.12
531.431	51754.39
531.632	52282.76
531.833	51760.53
532.035	52022.67
532.236	52491.66
532.437	52321.68
532.638	51869.08
532.839	52901.25
533.04	52301.2
533.241	51783.06
533.442	52659.59
533.643	52524.43
533.844	52090.26
534.045	52432.27
534.246	51809.68
534.447	52397.45
534.648	52372.88
534.849	52381.07
535.05	52106.64
535.251	52745.61
535.451	52514.19
535.652	52458.89
535.853	52561.29
536.054	52495.75
536.255	52575.62
536.456	52082.06
536.657	53169.54
536.857	52501.9
537.058	52399.5
537.259	52729.22
537.46	52389.26
537.66	52444.55
537.861	52565.38
538.062	52620.68
538.263	52528.52
538.463	52264.33
538.664	52333.96
538.865	52274.57
539.065	52854.15
539.266	52219.28
539.466	52811.14
539.667	52188.56
539.868	52800.9
540.068	52561.29
540.269	52456.84
540.469	52768.13
540.67	52231.57
540.87	52624.78
541.071	52303.24
541.271	53056.9
541.472	51910.03
541.672	52542.86
541.873	51873.17
542.073	51561.88
542.274	52727.17
542.474	52018.58
542.675	51905.94
542.875	52637.06
543.075	52170.13
543.276	51375.51
543.476	52557.19
543.676	51541.4
543.877	52028.82
544.077	52004.24
544.277	52010.39
544.478	52217.23
544.678	52155.79
544.878	51817.88
545.078	51905.94
545.279	51608.98
545.479	51637.65
545.679	51996.05
545.879	51801.49
546.079	51553.69
546.28	51979.67
546.48	51629.46
546.68	51813.78
546.88	51973.52
547.08	52135.31
547.28	51596.7
547.48	51439
547.68	52032.91
547.88	51445.15
548.081	51695
548.281	51840.4
548.481	51826.07
548.681	51920.27
548.881	51811.73
549.081	51713.43
549.28	51172.77
549.48	51776.92
549.68	51299.74
549.88	51713.43
550.08	51244.44
550.28	51629.46
550.48	51434.91
550.68	51821.97
550.88	51352.99
551.08	51410.33
551.279	51412.38
551.479	51535.26
551.679	51684.76
551.879	51006.88
552.079	51465.63
552.278	51189.15
552.478	51439
552.678	51197.34
552.878	51557.78
553.077	50853.28
553.277	50597.29
553.477	51686.81
553.676	50941.35
553.876	51084.7
554.076	50918.82
554.275	50916.77
554.475	50333.1
554.674	50838.95
554.874	51031.46
555.074	50828.71
555.273	51266.97
555.473	51096.99
555.672	50425.26
555.872	51037.6
556.071	50709.92
556.271	50967.97
556.47	50908.58
556.67	50236.84
556.869	50494.89
557.068	50482.6
557.268	50159.02
557.467	50611.62
557.667	50341.29
557.866	50232.75
558.065	49843.63
558.265	50087.34
558.464	49903.03
558.663	50398.63
558.863	49784.24
559.062	50265.52
559.261	49694.13
559.461	50382.25
559.66	49587.64
559.859	49890.74
560.058	49411.51
560.258	49907.12
560.457	49143.23
560.656	49554.87
560.855	49368.51
561.054	49294.78
561.253	48928.19
561.453	49292.73
561.652	49286.59
561.851	49395.13
562.05	49212.86
562.249	48745.92
562.448	48991.68
562.647	49098.17
562.846	48762.31
563.045	48911.81
563.244	48416.2
563.443	48766.4
563.642	47834.58
563.841	48623.04
564.04	48600.52
564.239	48829.89
564.438	47973.84
564.637	48551.37
564.836	48074.19
565.035	47607.25
565.234	47896.02
565.432	47773.14
565.631	47703.51
565.83	47959.5
566.029	47508.95
566.228	47269.34
566.427	47443.41
566.625	47183.32
566.824	47236.57
567.023	47535.57
567.222	46509.54
567.42	47461.85
567.619	46900.7
567.818	47289.82
568.016	46613.99
568.215	47138.27
568.414	46706.15
568.612	46865.89
568.811	46683.62
569.01	46489.06
569.208	46061.04
569.407	46589.41
569.605	45950.45
569.804	46243.31
570.002	45868.53
570.201	46362.09
570.4	45770.22
570.598	45579.76
570.797	45266.42
570.995	45716.98
571.193	45221.37
571.392	45567.48
571.59	45262.33
571.789	45166.07
571.987	45137.4
572.186	44961.28
572.384	45233.66
572.582	44844.54
572.781	45164.03
572.979	44809.73
573.177	44609.03
573.376	44873.21
573.574	44453.38
573.772	44365.32
573.971	44310.02
574.169	44181
574.367	43628.05
574.565	44246.54
574.763	43718.16
574.962	44056.07
575.16	43759.12
575.358	43515.41
575.556	42997.27
575.754	43664.91
575.952	43146.78
576.151	43511.31
576.349	42810.91
576.547	43103.77
576.745	43087.39
576.943	42835.49
577.141	42669.6
577.339	42817.05
577.537	42802.72
577.735	42743.33
577.933	42556.96
578.131	42573.35
578.329	42169.9
578.527	42233.38
578.725	42098.22
578.923	41963.05
579.121	41780.78
579.319	41997.87
579.516	41936.43
579.714	41625.14
579.912	41416.24
580.11	41346.61
580.308	41473.59
580.506	41135.67
580.704	40740.41
580.901	41285.17
581.099	41303.6
581.297	40994.36
581.495	40803.9
581.692	40998.46
581.89	40154.69
582.088	40760.89
582.285	40382.02
582.483	40638.01
582.681	40422.98
582.878	40361.54
583.076	39779.92
583.274	40160.84
583.471	39378.51
583.669	39710.28
583.866	39450.19
584.064	39376.47
584.262	39061.08
584.459	39487.06
584.657	39099.99
584.854	39485.01
585.052	38688.35
585.249	39288.4
585.447	38786.65
585.644	38696.54
585.841	38616.67
586.039	39229.01
586.236	38422.11
586.434	38461.02
586.631	38190.69
586.828	38035.05
587.026	38288.99
587.223	38190.69
587.42	37756.52
587.618	38225.51
587.815	37699.18
588.012	37740.14
588.21	37527.15
588.407	37789.29
588.604	37310.07
588.801	37213.81
588.999	37144.18
589.196	37252.72
589.393	37070.45
589.59	36865.66
589.787	36431.49
589.984	36540.03
590.182	35808.9
590.379	36517.5
590.576	36595.32
590.773	36095.62
590.97	36128.39
591.167	35841.67
591.364	35780.23
591.561	35913.35
591.758	35532.43
591.955	35573.39
592.152	35790.47
592.349	35616.4
592.546	35286.67
592.743	35604.11
592.94	34737.82
593.137	35409.55
593.334	35356.3
593.531	34508.44
593.727	34956.95
593.924	34952.85
594.121	34260.64
594.318	34109.09
594.515	34166.43
594.712	34459.29
594.908	33963.68
595.105	34416.29
595.302	34092.71
595.499	34287.26
595.696	33871.53
595.892	33580.71
596.089	33805.99
596.286	33674.92
596.482	33427.12
596.679	33365.68
596.876	33396.4
597.072	33238.7
597.269	32960.18
597.466	32925.36
597.662	32702.14
597.859	32939.7
598.055	33035.95
598.252	32497.34
598.448	32935.6
598.645	32450.24
598.841	32171.71
599.038	32171.71
599.234	32016.07
599.431	32007.87
599.627	32022.21
599.824	31928
600.02	31639.24
600.217	31811.27
600.413	31686.34
600.609	31274.7
600.806	31346.38
601.002	31616.71
601.198	31012.56
601.395	31055.57
601.591	30832.34
601.787	30975.7
601.984	30881.49
602.18	31110.86
602.376	30697.17
602.572	30535.38
602.769	30936.79
602.965	30142.17
603.161	30406.36
603.357	30058.21
603.553	30195.42
603.75	29859.56
603.946	29763.3
604.142	30265.05
604.338	29642.47
604.534	30037.73
604.73	29566.7
604.926	29794.02
605.122	29421.29
605.318	29433.58
605.514	29161.2
605.71	29079.28
605.906	29173.49
606.102	28784.37
606.298	29118.19
606.494	28970.74
606.69	28866.29
606.886	29196.01
607.082	28327.67
607.278	28555
607.474	28081.92
607.67	28763.89
607.866	28137.21
608.062	28964.59
608.257	27924.22
608.453	28008.19
608.649	28284.67
608.845	28180.22
609.041	28038.91
609.236	28393.21
609.432	28059.39
609.628	28161.79
609.824	27709.19
610.019	27813.63
610.215	27604.74
610.411	27940.61
610.606	27686.66
610.802	27821.83
610.998	27725.57
611.193	27324.17
611.389	27682.56
611.584	27401.99
611.78	27277.07
611.976	27326.22
612.171	27440.9
612.367	27088.65
612.562	26787.6
612.758	26945.3
612.953	26902.29
613.149	27064.08
613.344	26650.39
613.539	26990.35
613.735	26935.06
613.93	26855.18
614.126	26445.59
614.321	26767.12
614.517	26572.57
614.712	26615.57
614.907	26474.26
615.103	26515.22
615.298	26291.99
615.493	26519.32
615.688	25933.6
615.884	26707.73
616.079	26087.2
616.274	26201.88
616.47	25849.63
616.665	25814.82
616.86	25884.45
617.055	25816.86
617.25	25540.39
617.445	25900.83
617.641	25313.06
617.836	25605.92
618.031	25399.08
618.226	25675.55
618.421	25196.33
618.616	25610.02
618.811	25093.93
619.006	25476.9
619.201	24899.37
619.396	25427.75
619.591	24882.99
619.786	25061.16
619.981	24583.99
620.176	25028.4
620.371	24452.92
620.566	24547.12
620.761	24371
620.956	24514.36
621.151	24078.14
621.346	24168.25
621.541	24108.86
621.735	23936.83
621.93	23603.01
622.125	23686.98
622.32	23502.66
622.515	23416.65
622.709	23080.78
622.904	23328.58
623.099	23238.47
623.294	23013.2
623.488	22765.39
623.683	22826.83
623.878	22273.88
624.072	22382.42
624.267	22579.03
624.462	22130.52
624.656	22157.14
624.851	22003.55
625.046	22136.66
625.24	21942.11
625.435	21518.18
625.629	21741.41
625.824	21178.22
626.018	21421.92
626.213	21098.34
626.407	21090.15
626.602	20696.94
626.796	21004.14
626.991	20803.44
627.185	20584.3
627.38	20594.54
627.574	20100.98
627.768	20518.77
627.963	20526.96
628.157	20305.78
628.352	19988.35
628.546	19867.52
628.74	19969.91
628.935	19916.67
629.129	19636.1
629.323	19482.5
629.517	19382.15
629.712	19363.72
629.906	19115.91
630.1	18970.51
630.294	19124.1
630.489	19120.01
630.683	19165.06
630.877	18276.24
631.071	18728.84
631.265	18610.06
631.459	18349.97
631.653	18470.8
631.848	18311.06
632.042	18237.33
632.236	18311.06
632.43	17954.71
632.624	18040.73
632.818	17811.35
633.012	17731.48
633.206	17520.54
633.4	17612.7
633.594	17223.59
633.788	17348.51
633.982	17803.16
634.176	17137.57
634.369	17147.81
634.563	17194.92
634.757	16773.03
634.951	16992.17
635.145	16842.67
635.339	16619.44
635.533	16680.88
635.726	16627.63
635.92	16373.68
636.114	16291.76
636.308	16304.05
636.501	15941.56
636.695	16000.95
636.889	16058.29
637.083	15837.11
637.276	15869.88
637.47	15534.01
637.664	15902.65
637.857	15744.95
638.051	15669.18
638.244	15329.22
638.438	15261.63
638.632	15454.14
638.825	15232.96
639.019	15034.31
639.212	14831.56
639.406	14929.86
639.599	14680.01
639.793	14696.39
639.986	14802.89
640.18	14684.11
640.373	14600.14
640.567	14268.37
640.76	14319.57
640.954	14522.32
641.147	14239.7
641.34	14286.8
641.534	14307.28
641.727	14184.4
641.92	14221.27
642.114	13989.85
642.307	13957.08
642.5	13852.63
642.694	13465.57
642.887	13739.99
643.08	13924.31
643.273	13467.61
643.467	13602.78
643.66	13314.02
643.853	13338.59
644.046	13123.55
644.239	13373.41
644.432	13025.25
644.626	12896.23
644.819	12812.26
645.012	13074.4
645.205	13027.3
645.398	12793.83
645.591	12845.03
645.784	12580.84
645.977	12402.67
646.17	12421.1
646.363	12449.77
646.556	12279.79
646.749	12460.01
646.942	12408.81
647.135	12013.56
647.328	12130.29
647.521	12136.43
647.714	11923.44
647.907	11954.16
648.099	11782.13
648.292	11837.43
648.485	11909.11
648.678	11401.21
648.871	11845.62
649.064	11556.86
649.256	11614.2
649.449	11364.35
649.642	11354.11
649.835	11198.46
650.027	11167.74
650.22	11124.74
650.413	11177.98
650.605	11171.84
650.798	11024.39
650.991	10981.38
651.183	11075.59
651.376	10639.37
651.568	10940.42
651.761	10665.99
651.954	10764.29
652.146	10760.2
652.339	10627.08
652.531	10680.33
652.724	10608.65
652.916	10182.67
653.109	10295.31
653.301	10532.87
653.494	10559.5
653.686	10119.18
653.879	10389.52
654.071	10078.22
654.263	10082.32
654.456	10045.46
654.648	9930.77
654.84	9787.41
655.033	9877.52
655.225	9852.95
655.417	9777.17
655.61	10119.18
655.802	9699.35
655.994	9633.82
656.186	9648.15
656.379	9492.51
656.571	9584.66
656.763	9379.87
656.955	9492.51
657.148	9396.25
657.34	9242.65
657.532	9158.69
657.724	9154.59
657.916	9279.52
658.108	9261.09
658.3	9078.82
658.492	9091.1
658.684	8886.31
658.876	8757.29
659.068	9142.3
659.26	8871.97
659.452	8734.76
659.644	8882.21
659.836	8730.66
660.028	8828.96
660.22	8591.4
660.412	8527.91
660.604	8579.11
660.796	8609.83
660.988	8450.09
661.18	8552.49
661.372	8214.57
661.563	8339.5
661.755	8296.49
661.947	8222.77
662.139	8167.47
662.331	8226.86
662.522	8040.5
662.714	8063.02
662.906	8085.55
663.097	8060.98
663.289	8024.11
663.481	8020.02
663.673	7989.3
663.864	8001.58
664.056	7798.84
664.247	7692.34
664.439	7659.57
664.631	7839.8
664.822	7637.05
665.014	7577.66
665.205	7913.52
665.397	7598.13
665.588	7620.66
665.78	7381.05
665.971	7399.48
666.163	7579.7
666.354	7483.45
666.546	7354.43
666.737	7413.82
666.929	7235.64
667.12	7290.94
667.311	7221.31
667.503	7436.35
667.694	7323.71
667.885	7092.29
668.077	7112.77
668.268	7225.4
668.459	6959.17
668.651	7141.44
668.842	7221.31
669.033	6903.87
669.224	7077.95
669.416	7170.11
669.607	6887.49
669.798	7010.37
669.989	6924.35
670.18	6912.07
670.371	6885.44
670.563	6897.73
670.754	6875.2
670.945	6828.1
671.136	6879.3
671.327	6701.12
671.518	6799.43
671.709	6752.32
671.9	6703.17
672.091	6729.8
672.282	6635.59
672.473	6676.55
672.664	6613.06
672.855	6594.63
673.046	6631.49
673.237	6563.91
673.428	6801.47
673.619	6459.46
673.809	6445.13
674	6504.52
674.191	6522.95
674.382	6563.91
674.573	6522.95
674.764	6322.25
674.954	6590.53
675.145	6449.22
675.336	6438.98
675.527	6389.83
675.717	6488.14
675.908	6195.28
676.099	6309.96
676.289	6422.6
676.48	6355.02
676.671	6133.84
676.861	6404.17
677.052	6162.51
677.243	6256.72
677.433	6252.62
677.624	6293.58
677.814	6320.2
678.005	6262.86
678.195	6258.76
678.386	6203.47
678.576	6133.84
678.767	5941.33
678.957	6156.36
679.148	6312.01
679.338	6191.18
679.529	6226
679.719	6051.92
679.909	6162.51
680.1	6142.03
680.29	6111.31
680.481	6029.39
680.671	6285.39
680.861	6029.39
681.052	6142.03
681.242	5988.43
681.432	6166.6
681.622	5963.86
681.813	6060.11
682.003	6019.15
682.193	6068.3
682.383	6131.79
682.573	5978.19
682.764	6094.93
682.954	5953.62
683.144	6082.64
683.334	6078.54
683.524	5941.33
683.714	5943.38
683.904	5888.08
684.094	5992.53
684.284	5920.85
684.474	5947.47
684.664	5941.33
684.854	5822.55
685.044	5687.38
685.234	5632.08
685.424	5693.52
685.614	5714
685.804	5707.86
685.994	5658.71
686.184	5732.44
686.374	5773.39
686.564	5523.54
686.753	5765.2
686.943	5507.16
687.133	5636.18
687.323	5599.32
687.513	5574.74
687.702	5386.33
687.892	5437.53
688.082	5486.68
688.272	5458.01
688.461	5412.95
688.651	5476.44
688.841	5208.16
689.03	5314.65
689.22	5240.92
689.41	5367.9
689.599	5298.27
689.789	5216.35
689.979	5253.21
690.168	5290.07
690.358	5122.14
690.547	5328.99
690.737	5316.7
690.926	5122.14
691.116	5013.6
691.305	5064.8
691.495	4886.62
691.684	4970.59
691.874	5048.41
692.063	4974.69
692.252	4970.59
692.442	4960.35
692.631	4716.64
692.82	4780.13
693.01	4798.56
693.199	4782.18
693.388	4569.19
693.578	4624.48
693.767	4702.31
693.956	4661.35
694.146	4628.58
694.335	4630.63
694.524	4479.08
694.713	4511.85
694.902	4540.52
695.092	4773.99
695.281	4499.56
695.47	4536.42
695.659	4565.09
695.848	4470.89
696.037	4393.06
696.226	4372.58
696.415	4339.82
696.604	4429.93
696.793	4268.14
696.982	4382.82
697.171	4294.76
697.36	4130.92
697.549	4393.06
697.738	4075.63
697.927	4296.81
698.116	4302.95
698.305	4208.75
698.494	4227.18
698.683	4268.14
698.872	4325.48
699.061	4120.68
699.25	4184.17
699.438	4292.71
699.627	4182.12
699.816	4253.8
700.005	4089.96
700.193	4194.41
700.382	4208.75
700.571	4077.68
700.76	4124.78
700.948	4171.88
701.137	4061.29
701.326	4040.81
701.514	4010.09
701.703	4044.91
701.892	4034.67
702.08	4178.03
702.269	4077.68
702.457	4110.44
702.646	4108.4
702.834	3995.76
703.023	3987.57
703.212	4020.33
703.4	3993.71
703.589	4020.33
703.777	4073.58
703.965	3905.65
704.154	3919.98
704.342	3954.8
704.531	3926.13
704.719	3854.45
704.907	4020.33
705.096	3887.22
705.284	3922.03
705.472	3833.97
705.661	3917.93
705.849	3967.09
706.037	4100.2
706.226	3893.36
706.414	3946.61
706.602	3778.67
706.79	4020.33
706.979	3866.74
707.167	3977.33
707.355	3928.17
707.543	3868.78
707.731	3934.32
707.919	3887.22
708.107	3973.23
708.296	3999.85
708.484	3889.26
708.672	3879.02
708.86	3965.04
709.048	4024.43
709.236	3901.55
709.424	4149.36
709.612	3969.13
709.8	3815.54
709.988	3864.69
710.176	3960.94
710.364	3881.07
710.551	3827.82
710.739	4053.1
710.927	4030.57
711.115	3893.36
711.303	4075.63
711.491	4055.15
711.679	3919.98
711.866	4046.96
712.054	4024.43
712.242	3801.2
712.43	3989.61
712.617	4020.33
712.805	4042.86
712.993	3928.17
713.181	3881.07
713.368	3967.09
713.556	4020.33
713.744	3907.7
713.931	4128.88
714.119	4044.91
714.306	4020.33
714.494	3967.09
714.682	3909.74
714.869	4036.72
715.057	4016.24
715.244	3979.37
715.432	4098.16
715.619	3922.03
715.807	4012.14
715.994	4094.06
716.182	3950.7
716.369	3979.37
716.556	4175.98
716.744	3995.76
716.931	4118.64
717.119	4036.72
717.306	4083.82
717.493	4053.1
717.681	4020.33
717.868	4157.55
718.055	3991.66
718.242	4034.67
718.43	4065.39
718.617	4157.55
718.804	4141.16
718.991	4075.63
719.179	4112.49
719.366	4087.92
719.553	4157.55
719.74	4274.28
719.927	4151.4
720.114	4079.72
720.301	4313.19
720.488	4128.88
720.676	4012.14
720.863	4210.79
721.05	4268.14
721.237	4237.42
721.424	4200.55
721.611	4049
721.798	4071.53
721.985	4102.25
722.172	4143.21
722.358	4120.68
722.545	4153.45
722.732	4071.53
722.919	4378.73
723.106	4112.49
723.293	4221.03
723.48	4225.13
723.667	4149.36
723.853	4257.9
724.04	4249.71
724.227	4233.32
724.414	4161.64
724.6	4130.92
724.787	4249.71
724.974	4305
725.161	4317.29
725.347	4106.35
725.534	4243.56
725.72	4253.8
725.907	4253.8
726.094	4350.06
726.28	4270.19
726.467	4294.76
726.653	4251.75
726.84	4333.67
727.027	4348.01
727.213	4159.6
727.4	4280.43
727.586	4323.43
727.773	4122.73
727.959	4259.95
728.145	4354.15
728.332	4386.92
728.518	4188.27
728.705	4331.62
728.891	4194.41
729.077	4270.19
729.264	4143.21
729.45	4251.75
729.636	4352.1
729.823	4229.23
730.009	4423.78
730.195	4380.78
730.382	4374.63
730.568	4380.78
730.754	4251.75
730.94	4366.44
731.126	4505.7
731.313	4391.02
731.499	4417.64
731.685	4372.58
731.871	4335.72
732.057	4409.45
732.243	4427.88
732.429	4249.71
732.615	4313.19
732.801	4415.59
732.987	4325.48
733.173	4391.02
733.359	4425.83
733.545	4384.87
733.731	4264.04
733.917	4229.23
734.103	4446.31
734.289	4382.82
734.475	4423.78
734.661	4517.99
734.847	4350.06
735.033	4446.31
735.219	4401.26
735.404	4419.69
735.59	4360.3
735.776	4294.76
735.962	4294.76
736.148	4397.16
736.333	4509.8
736.519	4331.62
736.705	4235.37
736.89	4323.43
737.076	4225.13
737.262	4272.23
737.447	4268.14
737.633	4317.29
737.819	4348.01
738.004	4143.21
738.19	4235.37
738.375	4196.46
738.561	4307.05
738.747	4223.08
738.932	4380.78
739.118	4429.93
739.303	4309.1
739.489	4323.43
739.674	4278.38
739.859	4118.64
740.045	4182.12
740.23	4165.74
740.416	4186.22
740.601	4216.94
740.786	4245.61
740.972	4124.78
741.157	4139.12
741.342	4149.36
741.528	4098.16
741.713	4255.85
741.898	3969.13
742.084	4085.87
742.269	4122.73
742.454	4202.6
742.639	4120.68
742.824	4067.44
743.01	3979.37
743.195	4126.83
743.38	4046.96
743.565	4055.15
743.75	4075.63
743.935	3987.57
744.12	4034.67
744.305	3774.58
744.49	3897.46
744.675	3848.3
744.86	3786.86
745.045	3768.43
745.23	3885.17
745.415	3782.77
745.6	3852.4
745.785	3840.11
745.97	3872.88
746.155	3852.4
746.34	3844.21
746.525	3795.06
746.71	3711.09
746.895	3567.73
747.079	3674.23
747.264	3563.64
747.449	3627.12
747.634	3643.51
747.819	3672.18
748.003	3502.2
748.188	3565.68
748.373	3506.29
748.557	3438.71
748.742	3561.59
748.927	3405.94
749.111	3358.84
749.296	3393.65
749.481	3422.33
749.665	3420.28
749.85	3332.22
750.034	3330.17
750.219	3358.84
750.404	3205.24
750.588	3217.53
750.773	3102.84
750.957	3225.72
751.141	3121.28
751.326	3182.71
751.51	3192.95
751.695	3201.15
751.879	3235.96
752.064	3137.66
752.248	3025.02
752.432	3004.54
752.617	3002.49
752.801	3088.51
752.985	3012.73
753.17	3045.5
753.354	3053.69
753.538	2936.96
753.722	2832.51
753.907	2883.71
754.091	2785.41
754.275	2852.99
754.459	2807.94
754.643	2783.36
754.828	2744.45
755.012	2803.84
755.196	2814.08
755.38	2672.77
755.564	2660.48
755.748	2685.06
755.932	2670.72
756.116	2478.21
756.3	2607.23
756.484	2558.08
756.668	2625.67
756.852	2506.88
757.036	2586.76
757.22	2531.46
757.404	2500.74
757.588	2392.2
757.772	2562.18
757.956	2398.34
758.14	2578.56
758.323	2373.77
758.507	2420.87
758.691	2373.77
758.875	2412.68
759.059	2449.54
759.242	2351.24
759.426	2336.9
759.61	2394.25
759.794	2410.63
759.977	2259.08
760.161	2398.34
760.345	2297.99
760.528	2173.07
760.712	2195.59
760.895	2238.6
761.079	2261.13
761.263	2220.17
761.446	2175.11
761.63	2158.73
761.813	2216.07
761.997	2250.89
762.18	2087.05
762.364	2181.26
762.547	2033.8
762.731	2044.04
762.914	2128.01
763.098	2078.86
763.281	2091.15
763.464	1990.8
763.648	2103.43
763.831	2029.71
764.015	2037.9
764.198	2025.61
764.381	2087.05
764.564	2003.08
764.748	1953.93
764.931	1988.75
765.114	1890.45
765.297	1951.88
765.481	1843.34
765.664	1976.46
765.847	1927.31
766.03	1927.31
766.213	1884.3
766.397	1882.25
766.58	1910.93
766.763	1888.4
766.946	1753.23
767.129	1802.38
767.312	1824.91
767.495	1939.6
767.678	1806.48
767.861	1958.03
768.044	1841.29
768.227	1796.24
768.41	1892.49
768.593	1742.99
768.776	1773.71
768.959	1816.72
769.142	1874.06
769.324	1736.85
769.507	1763.47
769.69	1622.16
769.873	1757.33
770.056	1779.86
770.239	1644.69
770.421	1652.88
770.604	1702.03
770.787	1665.17
770.97	1650.83
771.152	1611.92
771.335	1589.39
771.518	1581.2
771.7	1632.4
771.883	1704.08
772.066	1712.27
772.248	1591.44
772.431	1620.11
772.613	1560.72
772.796	1530
772.978	1622.16
773.161	1648.79
773.343	1538.2
773.526	1439.89
773.708	1429.65
773.891	1448.08
774.073	1527.96
774.256	1446.04
774.438	1556.63
774.621	1501.33
774.803	1513.62
774.985	1450.13
775.168	1452.18
775.35	1390.74
775.532	1331.35
775.715	1386.65
775.897	1384.6
776.079	1314.97
776.261	1374.36
776.444	1382.55
776.626	1343.64
776.808	1317.01
776.99	1323.16
777.173	1308.82
777.355	1353.88
777.537	1323.16
777.719	1269.91
777.901	1173.66
778.083	1214.62
778.265	1196.18
778.447	1276.06
778.629	1185.94
778.811	1241.24
778.993	1255.58
779.175	1204.38
779.357	1235.1
779.539	1239.19
779.721	1241.24
779.903	1175.7
780.085	1028.25
780.267	1157.27
780.449	1132.7
780.631	1202.33
780.812	1173.66
780.994	1112.22
781.176	1048.73
781.358	1095.83
781.54	1063.07
781.721	1122.46
781.903	1089.69
782.085	1013.92
782.267	989.34
782.448	1003.68
782.63	1067.16
782.812	1108.12
782.993	925.85
783.175	1011.87
783.357	940.19
783.538	940.19
783.72	972.96
783.901	1030.3
784.083	925.85
784.264	907.42
784.446	891.04
784.627	845.98
784.809	1024.16
784.99	854.17
785.172	872.61
785.353	772.25
785.535	905.37
785.716	835.74
785.897	829.6
786.079	817.31
786.26	858.27
786.441	815.26
786.623	802.97
786.804	850.08
786.985	874.65
787.167	833.69
787.348	719.01
787.529	776.35
787.71	768.16
787.891	796.83
788.073	790.69
788.254	721.06
788.435	807.07
788.616	825.5
788.797	794.78
788.978	802.97
789.159	721.06
789.34	772.25
789.522	788.64
789.703	694.43
789.884	714.91
790.065	729.25
790.246	790.69
790.427	585.89
790.607	684.19
790.788	719.01
790.969	790.69
791.15	702.62
791.331	604.32
791.512	637.09
791.693	592.03
791.874	725.15
792.054	698.53
792.235	659.62
792.416	663.71
792.597	628.9
792.778	622.75
792.958	571.55
793.139	614.56
793.32	614.56
793.5	604.32
793.681	692.38
793.862	641.18
794.042	549.03
794.223	643.23
794.404	635.04
794.584	479.4
794.765	620.71
794.945	565.41
795.126	587.94
795.306	622.75
795.487	489.64
795.667	538.79
795.848	579.75
796.028	579.75
796.209	571.55
796.389	622.75
796.57	493.73
796.75	530.59
796.93	549.03
797.111	522.4
797.291	481.44
797.471	497.83
797.652	485.54
797.832	489.64
798.012	448.68
798.192	557.22
798.373	497.83
798.553	495.78
798.733	481.44
798.913	422.05
799.093	465.06
799.274	458.92
799.454	506.02
799.634	565.41
799.814	530.59
799.994	446.63
800.174	501.92
800.354	399.52
800.534	368.81
800.714	555.17
800.894	434.34
801.074	383.14
801.254	387.24
801.434	499.88
801.614	413.86
801.794	399.52
801.974	1351.83
802.154	415.91
802.334	485.54
802.514	442.53
802.693	393.38
802.873	452.77
803.053	544.93
803.233	350.37
803.413	436.39
803.592	401.57
803.772	370.85
803.952	383.14
804.131	342.18
804.311	471.2
804.491	510.11
804.67	401.57
804.85	426.15
805.03	444.58
805.209	522.4
805.389	381.09
805.568	348.33
805.748	368.81
805.928	333.99
806.107	379.04
806.287	311.46
806.466	389.28
806.646	342.18
806.825	360.61
807.004	333.99
807.184	415.91
807.363	417.96
807.543	333.99
807.722	383.14
807.901	325.8
808.081	366.76
808.26	288.93
808.439	395.43
808.619	391.33
808.798	268.45
808.977	229.54
809.156	397.48
809.336	295.08
809.515	354.47
809.694	323.75
809.873	278.69
810.052	354.47
810.231	413.86
810.411	387.24
810.59	374.95
810.769	286.89
810.948	354.47
811.127	260.26
811.306	325.8
811.485	333.99
811.664	360.61
811.843	280.74
812.022	272.55
812.201	223.4
812.38	303.27
812.559	231.59
812.737	254.12
812.916	262.31
813.095	252.07
813.274	307.37
813.453	264.36
813.632	305.32
813.811	274.6
813.989	270.5
814.168	262.31
814.347	241.83
814.526	241.83
814.704	288.93
814.883	297.13
815.062	256.17
815.24	362.66
815.419	260.26
815.598	325.8
815.776	219.3
815.955	252.07
816.133	174.25
816.312	241.83
816.49	233.64
816.669	217.26
816.847	270.5
817.026	321.7
817.204	293.03
817.383	274.6
817.561	200.87
817.74	243.88
817.918	145.58
818.097	252.07
818.275	239.78
818.453	188.58
818.632	223.4
818.81	243.88
818.988	260.26
819.167	194.73
819.345	209.06
819.523	241.83
819.701	229.54
819.879	258.21
820.058	288.93
820.236	229.54
820.414	186.54
820.592	260.26
820.77	256.17
820.948	260.26
821.127	170.15
821.305	239.78
821.483	125.1
821.661	305.32
821.839	225.45
822.017	194.73
822.195	262.31
822.373	262.31
822.551	198.82
822.729	225.45
822.907	227.5
823.085	262.31
823.262	186.54
823.44	143.53
823.618	215.21
823.796	211.11
823.974	82.09
824.152	141.48
824.329	286.89
824.507	182.44
824.685	223.4
824.863	121
825.04	198.82
825.218	233.64
825.396	145.58
825.574	168.1
825.751	170.15
825.929	190.63
826.107	145.58
826.284	258.21
826.462	164.01
826.639	147.62
826.817	159.91
826.994	178.34
827.172	118.95
827.349	252.07
827.527	182.44
827.704	155.82
827.882	180.39
828.059	211.11
828.237	145.58
828.414	239.78
828.591	90.28
828.769	190.63
828.946	96.43
829.124	227.5
829.301	237.74
829.478	176.3
829.655	121
829.833	145.58
830.01	77.99
830.187	174.25
830.364	188.58
830.542	174.25
830.719	270.5
830.896	143.53
831.073	202.92
831.25	211.11
831.427	121
831.604	151.72
831.782	147.62
831.959	147.62
832.136	133.29
832.313	94.38
832.49	67.75
832.667	90.28
832.844	73.9
833.021	129.19
833.198	151.72
833.374	137.38
833.551	178.34
833.728	149.67
833.905	131.24
834.082	106.67
834.259	202.92
834.436	219.3
834.612	57.51
834.789	161.96
834.966	131.24
835.143	129.19
835.319	55.47
835.496	200.87
835.673	155.82
835.85	80.04
836.026	161.96
836.203	202.92
836.38	112.81
836.556	110.76
836.733	88.23
836.909	182.44
837.086	123.05
837.262	92.33
837.439	161.96
837.616	98.47
837.792	157.86
837.968	172.2
838.145	-14.17
838.321	137.38
838.498	141.48
838.674	143.53
838.851	86.19
839.027	176.3
839.203	80.04
839.38	135.34
839.556	98.47
839.732	157.86
839.909	133.29
840.085	104.62
840.261	155.82
840.437	121
840.614	86.19
840.79	184.49
840.966	129.19
841.142	55.47
841.318	26.79
841.494	116.9
841.671	141.48
841.847	22.7
842.023	53.42
842.199	73.9
842.375	164.01
842.551	39.08
842.727	112.81
842.903	77.99
843.079	65.71
843.255	149.67
843.431	75.95
843.607	96.43
843.783	41.13
843.959	129.19
844.134	86.19
844.31	137.38
844.486	34.99
844.662	55.47
844.838	98.47
845.013	118.95
845.189	125.1
845.365	137.38
845.541	49.32
845.716	106.67
845.892	98.47
846.068	57.51
846.244	63.66
846.419	43.18
846.595	41.13
846.77	73.9
846.946	96.43
847.122	102.57
847.297	121
847.473	88.23
847.648	61.61
847.824	194.73
847.999	-67.41
848.175	77.99
848.35	69.8
848.526	166.06
848.701	41.13
848.876	104.62
849.052	106.67
849.227	123.05
849.403	55.47
849.578	153.77
849.753	137.38
849.929	131.24
850.104	-69.46
850.279	131.24
850.454	10.41
850.63	147.62
850.805	166.06
850.98	47.27
851.155	127.14
851.33	47.27
851.505	41.13
851.681	88.23
851.856	55.47
852.031	75.95
852.206	118.95
852.381	47.27
852.556	69.8
852.731	82.09
852.906	88.23
853.081	86.19
853.256	116.9
853.431	53.42
853.606	4.27
853.781	49.32
853.956	-30.55
854.131	59.56
854.305	-26.45
854.48	-3.93
854.655	55.47
854.83	22.7
855.005	63.66
855.18	41.13
855.354	22.7
855.529	34.99
855.704	-38.74
855.879	131.24
856.053	-5.97
856.228	59.56
856.403	32.94
856.577	37.03
856.752	20.65
856.926	43.18
857.101	45.23
857.276	22.7
857.45	82.09
857.625	153.77
857.799	41.13
857.974	51.37
858.148	-30.55
858.323	75.95
858.497	-8.02
858.672	71.85
858.846	-26.45
859.02	90.28
859.195	2.22
859.369	-12.12
859.543	2.22
859.718	22.7
859.892	39.08
860.066	32.94
860.241	-40.79
860.415	6.31
860.589	57.51
860.763	82.09
860.938	22.7
861.112	123.05
861.286	14.51
861.46	88.23
861.634	86.19
861.808	82.09
861.982	8.36
862.157	16.55
862.331	32.94
862.505	28.84
862.679	4.27
862.853	-55.12
863.027	55.47
863.201	170.15
863.375	22.7
863.549	55.47
863.722	131.24
863.896	112.81
864.07	8.36
864.244	49.32
864.418	57.51
864.592	-26.45
864.766	24.75
864.939	22.7
865.113	75.95
865.287	86.19
865.461	24.75
865.634	-14.17
865.808	133.29
865.982	20.65
866.156	-26.45
866.329	-5.97
866.503	32.94
866.676	65.71
866.85	59.56
867.024	51.37
867.197	34.99
867.371	14.51
867.544	129.19
867.718	-5.97
867.891	-1.88
868.065	-26.45
868.238	147.62
868.412	45.23
868.585	34.99
868.759	-12.12
868.932	88.23
869.105	-40.79
869.279	-10.07
869.452	63.66
869.625	2.22
869.799	45.23
869.972	26.79
870.145	34.99
870.319	71.85
870.492	18.6
870.665	32.94
870.838	-14.17
871.011	30.89
871.185	-26.45
871.358	53.42
871.531	-12.12
871.704	39.08
871.877	80.04
872.05	-48.98
872.223	37.03
872.396	49.32
872.569	-18.26
872.742	18.6
872.915	67.75
873.088	30.89
873.261	-22.36
873.434	96.43
873.607	57.51
873.78	49.32
873.953	8.36
874.126	22.7
874.299	30.89
874.471	16.55
874.644	39.08
874.817	34.99
874.99	63.66
875.163	6.31
875.335	8.36
875.508	71.85
875.681	41.13
875.853	26.79
876.026	-8.02
876.199	32.94
876.371	20.65
876.544	22.7
876.717	-5.97
876.889	59.56
877.062	4.27
877.234	-8.02
877.407	-65.36
877.579	51.37
877.752	45.23
877.924	77.99
878.097	55.47
878.269	37.03
878.442	100.52
878.614	82.09
878.786	47.27
878.959	34.99
879.131	-12.12
879.303	-32.6
879.476	16.55
879.648	55.47
879.82	-26.45
879.993	-14.17
880.165	-42.84
880.337	-59.22
880.509	63.66
880.681	-5.97
880.854	-5.97
881.026	57.51
881.198	172.2
881.37	37.03
881.542	24.75
881.714	18.6
881.886	-26.45
882.058	-44.88
882.23	-12.12
882.402	14.51
882.574	30.89
882.746	80.04
882.918	32.94
883.09	110.76
883.262	22.7
883.434	10.41
883.606	-57.17
883.778	18.6
883.95	80.04
884.122	41.13
884.293	30.89
884.465	2.22
884.637	96.43
884.809	45.23
884.98	41.13
885.152	6.31
885.324	8.36
885.496	51.37
885.667	10.41
885.839	-8.02
886.011	65.71
886.182	10.41
886.354	45.23
886.525	-12.12
886.697	41.13
886.869	0.17
887.04	-34.64
887.212	90.28
887.383	166.06
887.555	-26.45
887.726	14.51
887.897	-61.27
888.069	63.66
888.24	-55.12
888.412	24.75
888.583	-32.6
888.754	-8.02
888.926	-59.22
889.097	49.32
889.268	-36.69
889.44	-12.12
889.611	-44.88
889.782	-73.56
889.953	-71.51
890.125	108.71
890.296	-32.6
890.467	0.17
890.638	-10.07
890.809	-16.21
890.98	98.47
891.151	-3.93
891.323	6.31
891.494	39.08
891.665	0.17
891.836	123.05
892.007	-34.64
892.178	22.7
892.349	26.79
892.52	-24.4
892.691	-1.88
892.862	-53.08
893.032	39.08
893.203	-22.36
893.374	49.32
893.545	26.79
893.716	8.36
893.887	55.47
894.057	18.6
894.228	-46.93
894.399	10.41
894.57	61.61
894.74	84.14
894.911	80.04
895.082	32.94
895.253	34.99
895.423	34.99
895.594	106.67
895.764	8.36
895.935	-16.21
896.106	-8.02
896.276	59.56
896.447	-1.88
896.617	18.6
896.788	8.36
896.958	-26.45
897.129	6.31
897.299	26.79
897.47	73.9
897.64	123.05
897.81	-32.6
897.981	26.79
898.151	-48.98
898.322	41.13
898.492	55.47
898.662	2.22
898.832	-18.26
899.003	26.79
899.173	71.85
899.343	-10.07
899.513	12.46
