Data from USB4F104151__54__13-05-35-162.txt Node

Date: Fri Mar 14 13:05:35 EDT 2025
User: louis
Spectrometer: USB4F10415
Trigger mode: 4
Integration Time (sec): 4.000000E-2
Scans to average: 1
Electric dark correction enabled: true
Nonlinearity correction enabled: false
Boxcar width: 0
XAxis mode: Wavelengths
Number of Pixels in Spectrum: 3648
>>>>>Begin Spectral Data<<<<<
178.204	-207.02
178.424	-207.02
178.644	-207.02
178.864	-96.43
179.084	-219.3
179.304	-2.22
179.524	12.12
179.744	36.69
179.964	69.46
180.184	22.36
180.404	-34.99
180.624	-18.6
180.844	18.26
181.064	-69.8
181.283	-49.32
181.503	-61.61
181.723	77.65
181.943	-10.41
182.163	126.8
182.383	57.17
182.602	34.64
182.822	53.08
183.042	24.4
183.262	34.64
183.482	8.02
183.701	28.5
183.921	26.45
184.141	-41.13
184.361	79.7
184.58	100.18
184.8	-57.51
185.02	5.97
185.239	114.52
185.459	8.02
185.679	112.47
185.898	22.36
186.118	81.75
186.338	3.93
186.557	28.5
186.777	-57.51
186.997	-32.94
187.216	40.79
187.436	106.32
187.655	53.08
187.875	48.98
188.095	79.7
188.314	24.4
188.534	38.74
188.753	-28.84
188.973	44.88
189.192	28.5
189.412	-20.65
189.631	94.04
189.851	110.42
190.07	135
190.29	-45.23
190.509	8.02
190.729	-55.47
190.948	100.18
191.168	192.34
191.387	75.6
191.607	-18.6
191.826	16.21
192.045	-2.22
192.265	-12.46
192.484	55.12
192.704	20.31
192.923	14.17
193.142	163.67
193.362	145.24
193.581	102.23
193.8	69.46
194.02	126.8
194.239	81.75
194.458	71.51
194.678	48.98
194.897	89.94
195.116	20.31
195.335	85.84
195.555	94.04
195.774	-22.7
195.993	12.12
196.212	83.8
196.432	32.6
196.651	-47.27
196.87	59.22
197.089	135
197.308	46.93
197.528	114.52
197.747	-61.61
197.966	30.55
198.185	128.85
198.404	36.69
198.623	106.32
198.842	42.84
199.062	61.27
199.281	98.13
199.5	38.74
199.719	12.12
199.938	110.42
200.157	94.04
200.376	42.84
200.595	202.58
200.814	83.8
201.033	28.5
201.252	42.84
201.471	83.8
201.69	102.23
201.909	120.66
202.128	104.28
202.347	32.6
202.566	42.84
202.785	-14.51
203.004	28.5
203.223	175.95
203.442	-2.22
203.661	8.02
203.879	69.46
204.098	130.9
204.317	-14.51
204.536	106.32
204.755	5.97
204.974	81.75
205.193	87.89
205.411	135
205.63	61.27
205.849	128.85
206.068	91.99
206.287	36.69
206.505	57.17
206.724	69.46
206.943	57.17
207.162	-4.27
207.381	114.52
207.599	8.02
207.818	38.74
208.037	53.08
208.255	22.36
208.474	-2.22
208.693	34.64
208.911	1.88
209.13	42.84
209.349	65.36
209.567	59.22
209.786	145.24
210.005	30.55
210.223	32.6
210.442	-12.46
210.661	16.21
210.879	44.88
211.098	-37.03
211.316	40.79
211.535	112.47
211.753	100.18
211.972	30.55
212.191	-20.65
212.409	96.08
212.628	-10.41
212.846	36.69
213.065	44.88
213.283	94.04
213.502	48.98
213.72	96.08
213.938	85.84
214.157	46.93
214.375	71.51
214.594	-41.13
214.812	139.09
215.031	59.22
215.249	28.5
215.467	20.31
215.686	-14.51
215.904	75.6
216.122	85.84
216.341	126.8
216.559	14.17
216.778	48.98
216.996	77.65
217.214	44.88
217.432	-2.22
217.651	-26.79
217.869	18.26
218.087	87.89
218.306	28.5
218.524	83.8
218.742	1.88
218.96	24.4
219.179	28.5
219.397	36.69
219.615	96.08
219.833	24.4
220.051	42.84
220.27	139.09
220.488	116.56
220.706	89.94
220.924	8.02
221.142	-8.36
221.36	12.12
221.578	85.84
221.796	44.88
222.015	42.84
222.233	36.69
222.451	79.7
222.669	32.6
222.887	20.31
223.105	26.45
223.323	-12.46
223.541	22.36
223.759	91.99
223.977	139.09
224.195	61.27
224.413	71.51
224.631	22.36
224.849	114.52
225.067	65.36
225.285	-41.13
225.503	59.22
225.721	-94.38
225.939	-12.46
226.157	65.36
226.375	128.85
226.592	20.31
226.81	-0.17
227.028	22.36
227.246	71.51
227.464	32.6
227.682	-4.27
227.9	12.12
228.117	94.04
228.335	-2.22
228.553	-12.46
228.771	38.74
228.989	24.4
229.206	63.32
229.424	18.26
229.642	30.55
229.86	48.98
230.077	102.23
230.295	24.4
230.513	73.56
230.731	8.02
230.948	91.99
231.166	40.79
231.384	-8.36
231.601	-14.51
231.819	112.47
232.037	-2.22
232.254	30.55
232.472	5.97
232.689	-34.99
232.907	79.7
233.125	36.69
233.342	5.97
233.56	-37.03
233.777	51.03
233.995	36.69
234.213	79.7
234.43	14.17
234.648	114.52
234.865	10.07
235.083	96.08
235.3	87.89
235.518	112.47
235.735	182.1
235.953	118.61
236.17	30.55
236.388	63.32
236.605	81.75
236.822	108.37
237.04	61.27
237.257	73.56
237.475	-4.27
237.692	59.22
237.909	-20.65
238.127	48.98
238.344	65.36
238.562	46.93
238.779	-65.71
238.996	65.36
239.214	38.74
239.431	20.31
239.648	42.84
239.865	63.32
240.083	155.47
240.3	-2.22
240.517	10.07
240.735	12.12
240.952	67.41
241.169	20.31
241.386	44.88
241.603	63.32
241.821	3.93
242.038	94.04
242.255	102.23
242.472	46.93
242.689	46.93
242.907	30.55
243.124	61.27
243.341	44.88
243.558	8.02
243.775	-32.94
243.992	-63.66
244.209	53.08
244.426	110.42
244.643	38.74
244.86	12.12
245.078	51.03
245.295	79.7
245.512	91.99
245.729	32.6
245.946	91.99
246.163	59.22
246.38	53.08
246.597	36.69
246.814	44.88
247.031	48.98
247.248	-6.31
247.464	159.57
247.681	145.24
247.898	20.31
248.115	53.08
248.332	-2.22
248.549	-12.46
248.766	79.7
248.983	53.08
249.2	-8.36
249.417	40.79
249.633	65.36
249.85	65.36
250.067	-49.32
250.284	69.46
250.501	67.41
250.717	85.84
250.934	44.88
251.151	16.21
251.368	34.64
251.585	40.79
251.801	16.21
252.018	-71.85
252.235	46.93
252.451	87.89
252.668	-43.18
252.885	79.7
253.102	96.08
253.318	38.74
253.535	18.26
253.752	10.07
253.968	10.07
254.185	16.21
254.401	77.65
254.618	87.89
254.835	48.98
255.051	106.32
255.268	18.26
255.484	51.03
255.701	3.93
255.917	87.89
256.134	14.17
256.351	30.55
256.567	18.26
256.784	24.4
257	-22.7
257.217	118.61
257.433	38.74
257.65	48.98
257.866	30.55
258.082	-41.13
258.299	122.71
258.515	83.8
258.732	61.27
258.948	-0.17
259.165	75.6
259.381	65.36
259.597	89.94
259.814	22.36
260.03	44.88
260.246	85.84
260.463	40.79
260.679	63.32
260.895	151.38
261.112	46.93
261.328	14.17
261.544	36.69
261.761	147.28
261.977	120.66
262.193	-4.27
262.409	180.05
262.626	26.45
262.842	69.46
263.058	-0.17
263.274	36.69
263.49	61.27
263.707	71.51
263.923	73.56
264.139	51.03
264.355	59.22
264.571	85.84
264.787	63.32
265.004	48.98
265.22	-0.17
265.436	38.74
265.652	-37.03
265.868	85.84
266.084	5.97
266.3	46.93
266.516	59.22
266.732	61.27
266.948	51.03
267.164	34.64
267.38	83.8
267.596	26.45
267.812	161.62
268.028	36.69
268.244	14.17
268.46	-37.03
268.676	-28.84
268.892	77.65
269.108	-82.09
269.324	16.21
269.54	-24.75
269.756	79.7
269.972	20.31
270.188	67.41
270.403	40.79
270.619	26.45
270.835	63.32
271.051	32.6
271.267	75.6
271.483	-43.18
271.698	65.36
271.914	44.88
272.13	69.46
272.346	34.64
272.562	69.46
272.777	44.88
272.993	69.46
273.209	-4.27
273.425	63.32
273.64	-2.22
273.856	163.67
274.072	143.19
274.287	-22.7
274.503	77.65
274.719	77.65
274.934	3.93
275.15	-2.22
275.366	55.12
275.581	-26.79
275.797	44.88
276.012	51.03
276.228	22.36
276.444	118.61
276.659	141.14
276.875	51.03
277.09	26.45
277.306	28.5
277.521	79.7
277.737	79.7
277.952	59.22
278.168	-49.32
278.383	137.04
278.599	-14.51
278.814	137.04
279.03	32.6
279.245	94.04
279.461	46.93
279.676	130.9
279.892	-41.13
280.107	59.22
280.322	-30.89
280.538	143.19
280.753	-6.31
280.969	63.32
281.184	8.02
281.399	104.28
281.615	-12.46
281.83	91.99
282.045	59.22
282.26	-37.03
282.476	100.18
282.691	132.95
282.906	73.56
283.122	5.97
283.337	-0.17
283.552	57.17
283.767	24.4
283.983	120.66
284.198	20.31
284.413	96.08
284.628	8.02
284.843	63.32
285.058	118.61
285.274	57.17
285.489	-6.31
285.704	42.84
285.919	44.88
286.134	71.51
286.349	91.99
286.564	36.69
286.779	57.17
286.995	38.74
287.21	3.93
287.425	71.51
287.64	34.64
287.855	44.88
288.07	-10.41
288.285	71.51
288.5	94.04
288.715	96.08
288.93	69.46
289.145	-4.27
289.36	126.8
289.575	28.5
289.79	116.56
290.004	26.45
290.219	139.09
290.434	-28.84
290.649	53.08
290.864	-18.6
291.079	69.46
291.294	77.65
291.509	40.79
291.724	-20.65
291.938	12.12
292.153	63.32
292.368	-2.22
292.583	1.88
292.798	-14.51
293.012	100.18
293.227	106.32
293.442	79.7
293.657	100.18
293.871	135
294.086	8.02
294.301	71.51
294.516	87.89
294.73	61.27
294.945	-18.6
295.16	-8.36
295.374	106.32
295.589	16.21
295.804	-6.31
296.018	8.02
296.233	137.04
296.447	55.12
296.662	53.08
296.877	81.75
297.091	110.42
297.306	55.12
297.52	44.88
297.735	69.46
297.949	1.88
298.164	77.65
298.378	73.56
298.593	-43.18
298.807	81.75
299.022	-34.99
299.236	69.46
299.451	38.74
299.665	-43.18
299.88	22.36
300.094	98.13
300.309	71.51
300.523	5.97
300.737	-18.6
300.952	3.93
301.166	32.6
301.381	-32.94
301.595	24.4
301.809	12.12
302.024	48.98
302.238	46.93
302.452	67.41
302.667	-0.17
302.881	-14.51
303.095	30.55
303.309	53.08
303.524	-32.94
303.738	42.84
303.952	63.32
304.166	38.74
304.381	-16.55
304.595	163.67
304.809	14.17
305.023	-45.23
305.237	18.26
305.452	12.12
305.666	20.31
305.88	89.94
306.094	26.45
306.308	116.56
306.522	30.55
306.736	28.5
306.95	53.08
307.164	18.26
307.379	-14.51
307.593	106.32
307.807	106.32
308.021	135
308.235	20.31
308.449	-4.27
308.663	-4.27
308.877	159.57
309.091	42.84
309.305	106.32
309.519	-24.75
309.733	77.65
309.947	-12.46
310.161	36.69
310.374	81.75
310.588	79.7
310.802	34.64
311.016	96.08
311.23	100.18
311.444	10.07
311.658	-51.37
311.872	61.27
312.085	63.32
312.299	137.04
312.513	63.32
312.727	89.94
312.941	28.5
313.154	63.32
313.368	98.13
313.582	34.64
313.796	28.5
314.009	55.12
314.223	79.7
314.437	-12.46
314.651	63.32
314.864	40.79
315.078	36.69
315.292	20.31
315.505	81.75
315.719	34.64
315.933	96.08
316.146	51.03
316.36	-24.75
316.573	46.93
316.787	96.08
317.001	81.75
317.214	-41.13
317.428	96.08
317.641	44.88
317.855	73.56
318.068	96.08
318.282	42.84
318.495	55.12
318.709	124.76
318.922	38.74
319.136	94.04
319.349	57.17
319.563	-26.79
319.776	44.88
319.99	69.46
320.203	89.94
320.417	57.17
320.63	89.94
320.843	130.9
321.057	36.69
321.27	71.51
321.483	87.89
321.697	106.32
321.91	16.21
322.124	48.98
322.337	44.88
322.55	55.12
322.763	12.12
322.977	83.8
323.19	87.89
323.403	73.56
323.617	77.65
323.83	22.36
324.043	32.6
324.256	-0.17
324.469	-71.85
324.683	77.65
324.896	12.12
325.109	106.32
325.322	-0.17
325.535	57.17
325.748	61.27
325.962	26.45
326.175	-4.27
326.388	51.03
326.601	-14.51
326.814	-20.65
327.027	24.4
327.24	169.81
327.453	12.12
327.666	22.36
327.879	85.84
328.092	81.75
328.305	-12.46
328.518	44.88
328.731	32.6
328.944	-8.36
329.157	87.89
329.37	3.93
329.583	165.71
329.796	87.89
330.009	81.75
330.222	8.02
330.435	32.6
330.648	77.65
330.861	73.56
331.073	53.08
331.286	67.41
331.499	79.7
331.712	73.56
331.925	110.42
332.138	10.07
332.35	10.07
332.563	34.64
332.776	157.52
332.989	38.74
333.202	67.41
333.414	44.88
333.627	20.31
333.84	32.6
334.053	53.08
334.265	51.03
334.478	79.7
334.691	87.89
334.903	10.07
335.116	38.74
335.329	5.97
335.541	63.32
335.754	102.23
335.966	-4.27
336.179	32.6
336.392	34.64
336.604	24.4
336.817	87.89
337.029	100.18
337.242	5.97
337.454	63.32
337.667	8.02
337.88	75.6
338.092	120.66
338.305	69.46
338.517	20.31
338.729	-4.27
338.942	73.56
339.154	44.88
339.367	-26.79
339.579	69.46
339.792	98.13
340.004	63.32
340.217	14.17
340.429	135
340.641	-16.55
340.854	73.56
341.066	-8.36
341.278	139.09
341.491	87.89
341.703	57.17
341.915	46.93
342.128	30.55
342.34	59.22
342.552	44.88
342.764	16.21
342.977	69.46
343.189	38.74
343.401	55.12
343.613	-102.57
343.826	75.6
344.038	87.89
344.25	89.94
344.462	5.97
344.674	61.27
344.886	57.17
345.099	20.31
345.311	94.04
345.523	71.51
345.735	-12.46
345.947	98.13
346.159	79.7
346.371	63.32
346.583	81.75
346.795	186.19
347.007	28.5
347.219	87.89
347.431	75.6
347.643	94.04
347.855	-20.65
348.067	81.75
348.279	8.02
348.491	147.28
348.703	155.47
348.915	26.45
349.127	-59.56
349.339	69.46
349.551	-20.65
349.763	110.42
349.975	94.04
350.187	100.18
350.399	20.31
350.61	96.08
350.822	38.74
351.034	63.32
351.246	-14.51
351.458	65.36
351.669	106.32
351.881	126.8
352.093	85.84
352.305	110.42
352.517	87.89
352.728	161.62
352.94	65.36
353.152	73.56
353.363	3.93
353.575	143.19
353.787	20.31
353.999	28.5
354.21	61.27
354.422	79.7
354.633	77.65
354.845	46.93
355.057	57.17
355.268	73.56
355.48	118.61
355.692	28.5
355.903	51.03
356.115	-2.22
356.326	38.74
356.538	102.23
356.749	5.97
356.961	79.7
357.172	34.64
357.384	-18.6
357.595	137.04
357.807	26.45
358.018	55.12
358.23	81.75
358.441	175.95
358.653	40.79
358.864	63.32
359.075	-12.46
359.287	98.13
359.498	96.08
359.709	61.27
359.921	69.46
360.132	79.7
360.344	112.47
360.555	44.88
360.766	79.7
360.977	3.93
361.189	130.9
361.4	30.55
361.611	44.88
361.823	132.95
362.034	73.56
362.245	104.28
362.456	48.98
362.667	85.84
362.879	81.75
363.09	38.74
363.301	53.08
363.512	89.94
363.723	28.5
363.935	85.84
364.146	77.65
364.357	36.69
364.568	126.8
364.779	20.31
364.99	106.32
365.201	85.84
365.412	18.26
365.623	42.84
365.834	112.47
366.045	51.03
366.256	96.08
366.467	106.32
366.678	100.18
366.889	71.51
367.1	57.17
367.311	38.74
367.522	-12.46
367.733	85.84
367.944	30.55
368.155	85.84
368.366	94.04
368.577	108.37
368.788	63.32
368.999	-0.17
369.209	81.75
369.42	108.37
369.631	77.65
369.842	36.69
370.053	-12.46
370.264	71.51
370.474	10.07
370.685	44.88
370.896	102.23
371.107	137.04
371.317	63.32
371.528	18.26
371.739	53.08
371.95	32.6
372.16	151.38
372.371	59.22
372.582	128.85
372.792	71.51
373.003	102.23
373.214	34.64
373.424	106.32
373.635	51.03
373.846	106.32
374.056	57.17
374.267	110.42
374.477	40.79
374.688	-16.55
374.898	61.27
375.109	81.75
375.319	79.7
375.53	143.19
375.74	85.84
375.951	59.22
376.161	81.75
376.372	143.19
376.582	-8.36
376.793	110.42
377.003	42.84
377.214	28.5
377.424	22.36
377.635	53.08
377.845	44.88
378.055	149.33
378.266	53.08
378.476	14.17
378.686	114.52
378.897	26.45
379.107	112.47
379.317	110.42
379.528	67.41
379.738	149.33
379.948	-32.94
380.158	102.23
380.369	73.56
380.579	63.32
380.789	67.41
380.999	94.04
381.21	85.84
381.42	89.94
381.63	38.74
381.84	65.36
382.05	46.93
382.261	55.12
382.471	114.52
382.681	3.93
382.891	175.95
383.101	57.17
383.311	-47.27
383.521	12.12
383.731	182.1
383.941	83.8
384.151	106.32
384.361	67.41
384.571	44.88
384.781	114.52
384.991	126.8
385.201	110.42
385.411	65.36
385.621	-4.27
385.831	16.21
386.041	22.36
386.251	81.75
386.461	159.57
386.671	5.97
386.881	143.19
387.091	14.17
387.301	63.32
387.511	73.56
387.72	100.18
387.93	120.66
388.14	65.36
388.35	16.21
388.56	24.4
388.769	83.8
388.979	5.97
389.189	77.65
389.399	36.69
389.609	46.93
389.818	89.94
390.028	112.47
390.238	71.51
390.447	42.84
390.657	61.27
390.867	-6.31
391.076	100.18
391.286	34.64
391.496	24.4
391.705	77.65
391.915	130.9
392.125	153.43
392.334	79.7
392.544	143.19
392.753	12.12
392.963	104.28
393.172	118.61
393.382	77.65
393.591	206.67
393.801	38.74
394.01	96.08
394.22	145.24
394.429	75.6
394.639	44.88
394.848	161.62
395.058	135
395.267	63.32
395.477	104.28
395.686	91.99
395.895	104.28
396.105	200.53
396.314	108.37
396.524	34.64
396.733	81.75
396.942	159.57
397.152	42.84
397.361	128.85
397.57	112.47
397.78	53.08
397.989	85.84
398.198	188.24
398.407	100.18
398.617	135
398.826	79.7
399.035	67.41
399.244	120.66
399.453	114.52
399.663	126.8
399.872	130.9
400.081	94.04
400.29	171.86
400.499	161.62
400.708	135
400.917	77.65
401.127	171.86
401.336	75.6
401.545	227.15
401.754	169.81
401.963	163.67
402.172	81.75
402.381	14.17
402.59	141.14
402.799	139.09
403.008	196.43
403.217	116.56
403.426	94.04
403.635	30.55
403.844	137.04
404.053	114.52
404.262	75.6
404.471	175.95
404.68	124.76
404.888	143.19
405.097	122.71
405.306	106.32
405.515	139.09
405.724	227.15
405.933	190.29
406.142	200.53
406.35	257.87
406.559	178
406.768	247.63
406.977	241.49
407.185	126.8
407.394	196.43
407.603	169.81
407.812	266.07
408.02	272.21
408.229	245.59
408.438	229.2
408.646	141.14
408.855	200.53
409.064	239.44
409.272	302.93
409.481	395.09
409.69	272.21
409.898	259.92
410.107	196.43
410.315	335.7
410.524	300.88
410.733	421.71
410.941	364.37
411.15	397.14
411.358	388.94
411.567	382.8
411.775	347.98
411.984	329.55
412.192	491.34
412.401	356.18
412.609	440.14
412.818	456.53
413.026	454.48
413.234	493.39
413.443	495.44
413.651	501.58
413.86	483.15
414.068	528.21
414.276	612.17
414.485	556.88
414.693	644.94
414.901	679.75
415.11	644.94
415.318	626.51
415.526	751.43
415.734	696.14
415.943	728.91
416.151	827.21
416.359	767.82
416.567	845.64
416.776	823.11
416.984	929.61
417.192	857.93
417.4	927.56
417.608	872.26
417.817	1003.33
418.025	986.95
418.233	1044.29
418.441	1027.91
418.649	966.47
418.857	1238.85
419.065	1259.33
419.273	1036.1
419.481	1240.9
419.689	1257.28
419.897	1392.45
420.105	1259.33
420.313	1462.08
420.521	1400.64
420.729	1341.25
420.937	1509.18
421.145	1570.62
421.353	1617.72
421.561	1806.14
421.769	1693.5
421.977	1847.1
422.185	1918.78
422.393	1888.06
422.601	2019.13
422.809	2023.22
423.017	1916.73
423.224	2187.06
423.432	2336.56
423.64	2135.86
423.848	2510.64
424.056	2373.43
424.263	2578.22
424.471	2506.54
424.679	2623.28
424.887	2723.63
425.094	2809.64
425.302	2930.47
425.51	2983.72
425.718	3053.35
425.925	3151.65
426.133	3053.35
426.341	3327.78
426.548	3649.31
426.756	3403.55
426.964	3634.97
427.171	3667.74
427.379	3925.79
427.586	3915.55
427.794	4034.33
428.001	4208.41
428.209	4417.3
428.417	4353.81
428.624	4644.62
428.832	4519.7
429.039	4634.38
429.247	4591.38
429.454	4943.63
429.662	5353.22
429.869	4980.49
430.076	5408.51
430.284	5371.65
430.491	5496.58
430.699	5965.56
430.906	5807.87
431.114	5816.06
431.321	6239.99
431.528	6029.05
431.736	6532.85
431.943	6983.4
432.15	6606.58
432.358	6852.33
432.565	7210.73
432.772	7050.99
432.979	7528.16
433.187	7605.99
433.394	7741.15
433.601	8099.55
433.808	8416.98
434.016	8210.14
434.223	8496.85
434.43	9053.9
434.637	8896.21
434.844	9512.64
435.052	9656
435.259	9623.23
435.466	9701.06
435.673	9539.27
435.88	10049.21
436.087	10778.29
436.294	10620.6
436.501	10444.47
436.708	10653.36
436.915	11191.98
437.122	11667.11
437.329	11523.75
437.537	12054.17
437.743	11996.83
437.95	11972.25
438.157	12508.82
438.364	12824.21
438.571	12889.74
438.778	12977.81
438.985	14380.67
439.192	13776.52
439.399	14249.6
439.606	13647.49
439.813	14685.81
440.02	15355.5
440.227	15185.52
440.433	15216.24
440.64	15548.01
440.847	15347.31
441.054	15906.4
441.261	16895.57
441.467	16744.02
441.674	17088.08
441.881	17688.14
442.088	17436.24
442.294	17516.11
442.501	18019.91
442.708	18165.31
442.914	18886.2
443.121	19893.8
443.328	19052.08
443.534	20504.09
443.741	20088.35
443.948	19930.66
444.154	21345.81
444.361	21374.48
444.568	21274.13
444.774	21597.71
444.981	21771.79
445.187	22222.34
445.394	23205.36
445.6	23000.57
445.807	24929.75
446.013	23954.92
446.22	24088.04
446.426	25308.63
446.633	25783.76
446.839	26695.1
447.046	25454.03
447.252	26785.21
447.459	27125.18
447.665	26684.86
447.871	28059.05
448.078	28960.16
448.284	28052.91
448.491	28472.74
448.697	29732.24
448.903	30184.84
449.11	30217.61
449.316	29889.93
449.522	30653.83
449.728	31190.39
449.935	31638.9
450.141	31376.76
450.347	32124.27
450.553	31182.2
450.76	31851.89
450.966	32597.35
451.172	32451.94
451.378	33189.21
451.584	32173.42
451.791	33324.38
451.997	33236.31
452.203	33770.83
452.409	33715.54
452.615	33420.63
452.821	32798.05
453.027	32161.13
453.233	33766.74
453.44	32593.25
453.646	33189.21
453.852	33236.31
454.058	33312.09
454.264	32451.94
454.47	33629.52
454.676	32640.36
454.882	33662.29
455.088	30641.54
455.294	31225.21
455.5	31860.08
455.705	32083.31
455.911	30989.69
456.117	30365.06
456.323	29769.1
456.529	28386.72
456.735	29244.82
456.941	28618.14
457.147	28138.92
457.352	27434.42
457.558	27192.76
457.764	27280.82
457.97	26619.33
458.176	26211.78
458.381	26328.52
458.587	24575.45
458.793	25034.2
458.999	24075.75
459.204	25122.26
459.41	24382.95
459.616	22930.94
459.821	23045.62
460.027	22791.67
460.233	22156.8
460.438	21245.46
460.644	21749.26
460.85	20360.73
461.055	20182.56
461.261	20373.02
461.466	18726.46
461.672	18134.59
461.878	19412.53
462.083	18067.01
462.289	17698.38
462.494	17487.43
462.7	16799.32
462.905	16229.98
463.111	16799.32
463.316	17038.93
463.522	16553.56
463.727	16791.13
463.932	16729.69
464.138	16217.69
464.343	16424.54
464.549	16250.46
464.754	16592.47
464.959	16367.2
465.165	16313.95
465.37	15670.89
465.575	15261.29
465.781	15674.98
465.986	15791.72
466.191	15210.09
466.397	14872.18
466.602	14317.18
466.807	14925.43
467.012	14947.95
467.218	14782.07
467.423	14243.45
467.628	14790.26
467.833	15382.12
468.038	14466.68
468.244	14421.63
468.449	14655.09
468.654	14263.93
468.859	14155.39
469.064	14229.12
469.269	13768.32
469.474	13661.83
469.679	13956.74
469.885	13510.28
470.09	13756.04
470.295	13710.98
470.5	13328.01
470.705	13018.77
470.91	13160.08
471.115	13096.59
471.32	13293.19
471.525	13403.78
471.73	12971.66
471.935	12680.85
472.139	12336.79
472.344	12340.89
472.549	12418.71
472.754	12168.86
472.959	12160.67
473.164	11904.67
473.369	11574.95
473.574	12000.93
473.778	11759.27
473.983	11953.82
474.188	11894.43
474.393	11255.47
474.598	11284.14
474.802	11032.24
475.007	11138.73
475.212	11079.34
475.417	10729.14
475.621	10499.77
475.826	10702.51
476.031	10514.1
476.235	10387.13
476.44	10446.52
476.645	10163.9
476.849	10292.92
477.054	10067.64
477.259	9971.39
477.463	10159.8
477.668	9825.98
477.872	9805.5
478.077	9789.12
478.282	9481.92
478.486	9426.63
478.691	9293.51
478.895	9352.9
479.1	9129.67
479.304	9326.28
479.509	9014.99
479.713	9248.46
479.918	9170.63
480.122	8945.36
480.326	9162.44
480.531	8865.49
480.735	8756.94
480.94	8705.74
481.144	9060.04
481.348	8595.15
481.553	8789.71
481.757	8507.09
481.961	8834.77
482.166	8668.88
482.37	8793.81
482.574	8437.46
482.778	8541.91
482.983	8904.4
483.187	8601.3
483.391	8644.31
483.595	8728.27
483.8	8613.59
484.004	8900.3
484.208	8654.55
484.412	8640.21
484.616	8644.31
484.821	8656.59
485.025	8447.7
485.229	8488.66
485.433	8457.94
485.637	8468.18
485.841	8521.43
486.045	8625.87
486.249	8562.39
486.453	8500.95
486.657	8560.34
486.861	8650.45
487.065	8449.75
487.269	8474.32
487.473	8507.09
487.677	8736.46
487.881	8756.94
488.085	8636.11
488.289	8507.09
488.493	8740.56
488.697	8715.98
488.901	8511.19
489.105	8597.2
489.309	8654.55
489.512	8736.46
489.716	8658.64
489.92	8683.22
490.124	8875.73
490.328	8804.05
490.531	8638.16
490.735	8924.88
490.939	8695.5
491.143	8953.55
491.346	8890.06
491.55	8900.3
491.754	8599.25
491.958	8828.62
492.161	8953.55
492.365	8824.53
492.569	9135.82
492.772	8941.26
492.976	9254.6
493.18	9275.08
493.383	9291.46
493.587	9133.77
493.79	9520.84
493.994	9207.5
494.197	9230.02
494.401	9338.57
494.605	9488.07
494.808	9594.56
495.012	9643.71
495.215	9598.66
495.419	9891.52
495.622	9752.26
495.825	9830.08
496.029	9842.37
496.232	10176.19
496.436	10041.02
496.639	10315.45
496.843	10280.63
497.046	10593.97
497.249	10512.05
497.453	10559.16
497.656	10745.52
497.859	10661.55
498.063	10704.56
498.266	11175.59
498.469	10866.35
498.673	10952.37
498.876	11296.42
499.079	11345.58
499.282	11202.22
499.485	11978.4
499.689	11687.59
499.892	11769.51
500.095	11849.38
500.298	12291.74
500.501	12103.32
500.705	12572.31
500.908	12615.32
501.111	12740.24
501.314	12955.28
501.517	12945.04
501.72	13178.51
501.923	13047.44
502.126	13221.52
502.329	13387.4
502.532	13442.7
502.735	13448.84
502.938	13944.45
503.141	14007.94
503.344	14151.29
503.547	14169.73
503.75	14595.7
503.953	14392.95
504.156	14806.64
504.359	14941.81
504.562	15019.63
504.765	15392.36
504.968	15283.82
505.17	15453.8
505.373	15650.41
505.576	16047.71
505.779	16051.81
505.982	16143.97
506.185	16539.22
506.387	16621.14
506.59	16778.84
506.793	17051.22
506.996	17081.94
507.198	17755.72
507.401	17563.21
507.604	17565.26
507.807	18032.19
508.009	18196.03
508.212	18181.7
508.415	18368.06
508.617	18587.19
508.82	18730.55
509.022	18816.57
509.225	19281.46
509.428	19217.97
509.63	19428.91
509.833	19629.61
510.035	19828.26
510.238	19938.85
510.44	20082.21
510.643	20514.33
510.845	20649.5
511.048	20557.34
511.25	20878.87
511.453	20899.35
511.655	21485.07
511.858	21653
512.06	21577.23
512.262	22009.35
512.465	21921.29
512.667	22089.22
512.87	22547.97
513.072	22484.48
513.274	22691.32
513.477	23088.63
513.679	23074.29
513.881	23674.35
514.084	23733.74
514.286	23852.52
514.488	24018.41
514.69	24661.47
514.893	24661.47
515.095	24735.2
515.297	25066.97
515.499	25075.16
515.701	25394.64
515.904	25378.26
516.106	25892.3
516.308	26258.88
516.51	26648
516.712	26461.63
516.914	26889.66
517.116	27084.22
517.318	27213.24
517.52	27389.36
517.722	27553.2
517.925	27905.45
518.127	28145.06
518.329	28417.44
518.531	28360.1
518.733	28980.64
518.935	29087.13
519.136	29060.51
519.338	29406.61
519.54	29470.1
519.742	30059.91
519.944	29918.6
520.146	30451.08
520.348	30608.77
520.55	31044.99
520.752	31122.81
520.954	31432.05
521.155	31157.63
521.357	31782.26
521.559	31929.71
521.761	32312.68
521.963	32349.54
522.164	32365.93
522.366	32798.05
522.568	32861.54
522.77	33189.21
522.971	33721.68
523.173	33441.11
523.375	33434.97
523.576	33989.97
523.778	33682.77
523.98	34413.9
524.181	34483.53
524.383	34635.08
524.584	35061.05
524.786	35102.01
524.988	34981.18
525.189	35284.28
525.391	35921.2
525.592	35874.1
525.794	35765.56
525.995	35804.47
526.197	36072.75
526.398	36142.38
526.6	36660.52
526.801	36664.61
527.003	36818.21
527.204	36619.56
527.406	37176.61
527.607	37291.29
527.808	37358.88
528.01	36801.83
528.211	37428.51
528.412	38165.77
528.614	37858.58
528.815	38173.97
529.016	38145.3
529.218	37698.84
529.419	37807.38
529.62	38255.89
529.822	38069.52
530.023	38270.22
530.224	38790.41
530.425	38505.74
530.626	38137.1
530.828	37989.65
531.029	39085.31
531.23	38325.52
531.431	38360.33
531.632	38708.49
531.833	38712.58
532.035	39095.55
532.236	38927.62
532.437	39511.29
532.638	39146.75
532.839	39515.39
533.04	39316.73
533.241	39060.74
533.442	39701.75
533.643	39402.75
533.844	39482.62
534.045	39167.23
534.246	39140.61
534.447	39572.73
534.648	39329.02
534.849	39820.53
535.05	39353.6
535.251	39494.91
535.451	39150.85
535.652	39732.47
535.853	39478.52
536.054	39730.42
536.255	39652.6
536.456	39460.09
536.657	39939.32
536.857	39726.33
537.058	39091.46
537.259	39662.84
537.46	39609.59
537.66	39843.06
537.861	39742.71
538.062	39582.97
538.263	39732.47
538.463	39326.97
538.664	39347.45
538.865	39566.59
539.065	39636.22
539.266	39535.87
539.466	39824.63
539.667	38710.53
539.868	39935.22
540.068	39523.58
540.269	39093.5
540.469	39705.85
540.67	39402.75
540.87	39369.98
541.071	39552.25
541.271	39709.94
541.472	39380.22
541.672	39224.57
541.873	39308.54
542.073	38995.2
542.274	39757.05
542.474	39646.46
542.675	39333.12
542.875	39552.25
543.075	39636.22
543.276	39077.12
543.476	39861.49
543.676	39347.45
543.877	39562.49
544.077	39390.46
544.277	39208.19
544.478	39197.95
544.678	39173.38
544.878	39427.32
545.078	39333.12
545.279	39304.45
545.479	39288.06
545.679	39245.05
545.879	39451.9
546.079	39146.75
546.28	39101.7
546.48	38993.15
546.68	39324.93
546.88	39468.28
547.08	39380.22
547.28	38950.15
547.48	38622.47
547.68	38999.3
547.88	39140.61
548.081	39165.18
548.281	39236.86
548.481	39042.31
548.681	39257.34
548.881	39451.9
549.081	39212.29
549.28	38577.42
549.48	39331.07
549.68	39156.99
549.88	39566.59
550.08	38978.82
550.28	39066.88
550.48	39015.68
550.68	38923.52
550.88	38817.03
551.08	38755.59
551.279	39075.07
551.479	38829.32
551.679	39062.79
551.879	38679.82
552.079	38802.69
552.278	38847.75
552.478	38653.19
552.678	38976.77
552.878	38786.31
553.077	38933.76
553.277	38554.89
553.477	38817.03
553.676	38454.54
553.876	38810.89
554.076	38665.48
554.275	38733.06
554.475	38661.38
554.674	38843.65
554.874	38503.69
555.074	38319.37
555.273	38450.44
555.473	38683.91
555.672	38046.99
555.872	38477.07
556.071	38485.26
556.271	38634.76
556.47	38198.54
556.67	38010.13
556.869	37879.06
557.068	38276.37
557.268	37721.37
557.467	37600.54
557.667	38343.95
557.866	37887.25
558.065	37973.27
558.265	37907.73
558.464	37360.92
558.663	37901.59
558.863	37430.55
559.062	37932.31
559.261	37418.27
559.461	37891.35
559.66	37223.71
559.859	37436.7
560.058	37303.58
560.258	37340.44
560.457	37014.82
560.656	37514.52
560.855	36779.3
561.054	37584.15
561.253	37137.69
561.453	37147.93
561.652	37174.56
561.851	37227.81
562.05	36486.44
562.249	36119.85
562.448	36975.91
562.647	36693.29
562.846	36801.83
563.045	36472.1
563.244	36367.66
563.443	36627.75
563.642	36218.16
563.841	36789.54
564.04	35364.15
564.239	36859.17
564.438	36029.74
564.637	36109.61
564.836	36056.37
565.035	35478.84
565.234	35740.98
565.432	35364.15
565.631	35648.82
565.83	35910.96
566.029	35376.44
566.228	35386.68
566.427	35298.62
566.625	34987.33
566.824	34864.45
567.023	35198.27
567.222	34700.61
567.42	35241.28
567.619	34852.16
567.818	34983.23
568.016	34698.56
568.215	34778.43
568.414	34594.12
568.612	34835.78
568.811	34563.4
569.01	34131.28
569.208	33901.9
569.407	34415.94
569.605	33914.19
569.804	34215.24
570.002	33555.8
570.201	33631.57
570.4	33502.55
570.598	33799.51
570.797	33770.83
570.995	33418.58
571.193	33158.49
571.392	33875.28
571.59	33264.99
571.789	33383.77
571.987	33101.15
572.186	33000.8
572.384	32931.17
572.582	33049.95
572.781	32726.37
572.979	32351.59
573.177	32800.1
573.376	32996.7
573.574	32150.89
573.772	32400.74
573.971	32421.22
574.169	32142.7
574.367	32089.45
574.565	32212.33
574.763	31747.44
574.962	32038.25
575.16	31360.37
575.358	31667.57
575.556	31577.46
575.754	31896.94
575.952	31364.47
576.151	31518.07
576.349	31155.58
576.547	31126.91
576.745	31430.01
576.943	31270.26
577.141	30756.22
577.339	31229.3
577.537	30942.59
577.735	30815.62
577.933	30961.02
578.131	30813.57
578.329	30258.57
578.527	30451.08
578.725	30545.28
578.923	30322.05
579.121	30342.53
579.319	30315.91
579.516	30307.72
579.714	30430.6
579.912	30199.18
580.11	30301.57
580.308	30121.35
580.506	30051.72
580.704	29726.1
580.901	29822.35
581.099	29992.33
581.297	29519.25
581.495	29595.03
581.692	29183.38
581.89	29310.36
582.088	29138.33
582.285	28827.04
582.483	29326.74
582.681	29138.33
582.878	28591.52
583.076	28986.78
583.274	29074.84
583.471	28581.28
583.669	28452.26
583.866	28665.25
584.064	28898.72
584.262	28261.8
584.459	28560.8
584.657	28061.1
584.854	28446.12
585.052	28075.43
585.249	28163.5
585.447	27784.62
585.644	27946.41
585.841	28011.95
586.039	27968.94
586.236	27649.46
586.434	27520.43
586.631	27385.27
586.828	27463.09
587.026	27102.65
587.223	27239.86
587.42	27194.81
587.618	27092.41
587.815	27168.18
588.012	26869.18
588.21	27108.79
588.407	26889.66
588.604	26871.23
588.801	26349
588.999	26742.21
589.196	26594.75
589.393	26525.12
589.59	26287.56
589.787	26314.18
589.984	26467.78
590.182	26262.98
590.379	26267.08
590.576	25841.1
590.773	25914.83
590.97	25640.4
591.167	25726.41
591.364	25505.23
591.561	25392.59
591.758	25441.75
591.955	25384.4
592.152	25617.87
592.349	25222.61
592.546	25107.93
592.743	25136.6
592.94	24669.66
593.137	25339.35
593.334	25034.2
593.531	24827.35
593.727	24782.3
593.924	24825.31
594.121	24258.02
594.318	24591.84
594.515	24393.19
594.712	24714.72
594.908	24260.07
595.105	24405.47
595.302	23932.39
595.499	24247.78
595.696	24227.3
595.892	24002.02
596.089	24260.07
596.286	24133.09
596.482	23850.47
596.679	24165.86
596.876	23803.37
597.072	23991.78
597.269	23494.13
597.466	23530.99
597.662	23457.26
597.859	23547.37
598.055	23356.91
598.252	23105.01
598.448	23606.77
598.645	22951.42
598.841	23135.73
599.038	22877.69
599.234	23301.62
599.431	22875.64
599.627	22748.67
599.824	22746.62
600.02	22875.64
600.217	22541.82
600.413	22705.66
600.609	22306.3
600.806	21980.68
601.002	22484.48
601.198	22199.81
601.395	22330.88
601.591	22363.65
601.787	21997.06
601.984	21843.46
602.18	21997.06
602.376	21638.67
602.572	21741.07
602.769	21775.88
602.965	21718.54
603.161	21480.97
603.357	21489.17
603.553	21282.32
603.75	21435.92
603.946	21235.22
604.142	21378.58
604.338	20766.23
604.534	21374.48
604.73	21304.85
604.926	20844.06
605.122	21163.54
605.318	20917.78
605.514	20608.54
605.71	20882.97
605.906	20758.04
606.102	20559.39
606.298	20557.34
606.494	20583.96
606.69	20733.46
606.886	20518.43
607.082	20125.22
607.278	20420.13
607.474	20147.75
607.67	20139.55
607.866	19926.57
608.062	20495.9
608.257	20088.35
608.453	20121.12
608.649	20219.42
608.845	19957.28
609.041	19803.69
609.236	19953.19
609.432	19840.55
609.628	19992.1
609.824	19791.4
610.019	19713.58
610.215	19752.49
610.411	19805.74
610.606	19437.1
610.802	19488.3
610.998	19361.33
611.193	19988
611.389	19336.75
611.584	19164.72
611.78	19215.92
611.976	19199.54
612.171	19519.02
612.367	19084.85
612.562	19238.45
612.758	19111.47
612.953	18832.95
613.149	19181.1
613.344	18982.45
613.539	19340.85
613.735	18918.96
613.93	19119.67
614.126	18679.35
614.321	18986.55
614.517	18933.3
614.712	18783.8
614.907	18501.18
615.103	18982.45
615.298	18474.56
615.493	18693.69
615.688	18554.43
615.884	18812.47
616.079	18277.95
616.274	18486.84
616.47	18484.8
616.665	18349.63
616.86	18161.22
617.055	18236.99
617.25	18116.16
617.445	18183.74
617.641	18064.96
617.836	18241.09
618.031	17956.42
618.226	17741.38
618.421	17606.22
618.616	17839.69
618.811	17806.92
619.006	17716.81
619.201	17757.77
619.396	17667.66
619.591	17276.49
619.786	17741.38
619.981	17360.46
620.176	17731.14
620.371	17143.38
620.566	17208.91
620.761	17004.11
620.956	17352.27
621.151	16744.02
621.346	17178.19
621.541	16758.36
621.735	16868.95
621.93	16600.66
622.125	16799.32
622.32	16541.27
622.515	16678.49
622.709	16254.56
622.904	16555.61
623.099	16313.95
623.294	16215.65
623.488	16029.28
623.683	15892.07
623.878	15591.02
624.072	16019.04
624.267	15916.64
624.462	15545.96
624.656	15543.91
624.851	15367.79
625.046	15367.79
625.24	15527.53
625.435	15285.87
625.629	15488.62
625.824	15103.6
626.018	14915.19
626.213	14808.69
626.407	14757.49
626.602	14638.71
626.796	14632.57
626.991	14519.93
627.185	14642.81
627.38	14466.68
627.574	14319.23
627.768	14169.73
627.963	14300.8
628.157	13989.5
628.352	14454.39
628.546	13956.74
628.74	13971.07
628.935	13780.61
629.129	13989.5
629.323	13588.1
629.517	13522.57
629.712	13629.06
629.906	13366.92
630.1	13549.19
630.294	13364.87
630.489	13334.15
630.683	13278.86
630.877	13080.21
631.071	13209.23
631.265	13020.81
631.459	13012.62
631.653	12947.09
631.848	12852.88
632.042	12822.16
632.236	12848.79
632.43	12433.05
632.624	12639.89
632.818	12576.41
633.012	12371.61
633.206	12412.57
633.4	12394.14
633.594	12263.07
633.788	12265.11
633.982	12408.47
634.176	12109.47
634.369	11947.68
634.563	12041.89
634.757	11722.4
634.951	11978.4
635.145	11898.53
635.339	11765.41
635.533	11734.69
635.726	11638.44
635.92	11382.44
636.114	11689.63
636.308	11525.8
636.501	11472.55
636.695	11294.38
636.889	11275.95
637.083	11128.49
637.276	11091.63
637.47	11093.68
637.664	11071.15
637.857	10970.8
638.051	10940.08
638.244	10794.67
638.438	10849.97
638.632	10854.06
638.825	10532.53
639.019	10696.37
639.212	10649.27
639.406	10794.67
639.599	10540.72
639.793	10409.65
639.986	10155.71
640.18	10307.26
640.373	10403.51
640.567	9948.86
640.76	10190.52
640.954	10034.88
641.147	9940.67
641.34	10022.59
641.534	10006.2
641.727	9946.81
641.92	9615.04
642.114	9668.29
642.307	9746.11
642.5	9645.76
642.694	9359.05
642.887	9410.25
643.08	9653.95
643.273	9545.41
643.467	9367.24
643.66	9334.47
643.853	9266.89
644.046	9299.66
644.239	9326.28
644.432	9139.91
644.626	9117.39
644.819	9027.28
645.012	8971.98
645.205	8959.69
645.398	9176.78
645.591	8896.21
645.784	8894.16
645.977	8607.44
646.17	8738.51
646.363	8591.06
646.556	8537.81
646.749	8609.49
646.942	8773.33
647.135	8687.31
647.328	8582.87
647.521	8429.27
647.714	8308.44
647.907	8373.97
648.099	8285.91
648.292	8367.83
648.485	8310.49
648.678	8244.95
648.871	8111.83
649.064	8269.53
649.256	8126.17
649.449	8138.46
649.642	8015.58
649.835	7976.67
650.027	7804.64
650.22	7878.37
650.413	7708.38
650.605	7716.58
650.798	7818.97
650.991	7587.55
651.183	7657.18
651.376	7542.5
651.568	7571.17
651.761	7716.58
651.954	7395.04
652.146	7509.73
652.339	7562.98
652.531	7401.19
652.724	7452.39
652.916	7212.78
653.109	7118.57
653.301	7206.63
653.494	7280.36
653.686	7073.51
653.879	7235.3
654.071	7096.04
654.263	6901.48
654.456	7249.64
654.648	6936.3
654.84	6829.81
655.033	7012.07
655.225	6881
655.417	6803.18
655.61	6866.67
655.802	6799.09
655.994	6756.08
656.186	6745.84
656.379	6727.41
656.571	6678.26
656.763	6522.61
656.955	6512.37
657.148	6545.14
657.34	6551.28
657.532	6313.72
657.724	6231.8
657.916	6467.31
658.108	6526.71
658.3	6301.43
658.492	6450.93
658.684	6287.09
658.876	6346.48
659.068	6262.52
659.26	6123.26
659.452	6248.18
659.644	6315.76
659.836	6135.54
660.028	6153.98
660.22	5936.89
660.412	5873.4
660.604	5914.36
660.796	6022.91
660.988	5969.66
661.18	5934.84
661.372	5983.99
661.563	5996.28
661.755	5861.12
661.947	5912.32
662.139	5904.12
662.331	5814.01
662.522	5816.06
662.714	5623.55
662.906	5578.5
663.097	5648.13
663.289	5441.28
663.481	5510.91
663.673	5519.11
663.864	5668.61
664.056	5289.73
664.247	5506.82
664.439	5525.25
664.631	5433.09
664.822	5439.23
665.014	5369.6
665.205	5504.77
665.397	5275.4
665.588	5648.13
665.78	5277.44
665.971	5250.82
666.163	5228.29
666.354	5218.05
666.546	5209.86
666.737	5351.17
666.929	5271.3
667.12	5148.42
667.311	5173
667.503	5123.85
667.694	5058.31
667.885	5121.8
668.077	4968.2
668.268	5007.11
668.459	4923.15
668.651	5091.08
668.842	4990.73
669.033	4984.59
669.224	4908.81
669.416	5115.66
669.607	5021.45
669.798	4886.28
669.989	4849.42
670.18	4960.01
670.371	4781.84
670.563	4661.01
670.754	4863.76
670.945	4835.08
671.136	4892.43
671.327	4900.62
671.518	4781.84
671.709	4818.7
671.9	4757.26
672.091	4822.8
672.282	4880.14
672.473	4790.03
672.664	4648.72
672.855	4826.89
673.046	4777.74
673.237	4818.7
673.428	4658.96
673.619	4615.95
673.809	4669.2
674	4763.4
674.191	4787.98
674.382	4628.24
674.573	4697.87
674.764	4691.73
674.954	4620.05
675.145	4546.32
675.336	4574.99
675.527	4478.74
675.717	4667.15
675.908	4470.55
676.099	4577.04
676.289	4677.39
676.48	4476.69
676.671	4618
676.861	4634.38
677.052	4546.32
677.243	4642.57
677.433	4536.08
677.624	4661.01
677.814	4591.38
678.005	4611.85
678.195	4585.23
678.386	4497.17
678.576	4429.59
678.767	4366.1
678.957	4566.8
679.148	4597.52
679.338	4564.75
679.529	4568.85
679.719	4433.68
679.909	4538.13
680.1	4452.11
680.29	4513.55
680.481	4491.02
680.671	4640.53
680.861	4427.54
681.052	4507.41
681.242	4441.87
681.432	4583.18
681.622	4501.26
681.813	4527.89
682.003	4382.48
682.193	4425.49
682.383	4568.85
682.573	4427.54
682.764	4419.35
682.954	4515.6
683.144	4503.31
683.334	4470.55
683.524	4380.43
683.714	4556.56
683.904	4484.88
684.094	4464.4
684.284	4435.73
684.474	4536.08
684.664	4282.13
684.854	4237.08
685.044	4452.11
685.234	4312.85
685.424	4394.77
685.614	4314.9
685.804	4341.52
685.994	4296.47
686.184	4214.55
686.374	4355.86
686.564	4265.75
686.753	4257.56
686.943	4134.68
687.133	3956.5
687.323	4323.09
687.513	4196.12
687.702	4138.77
687.892	4026.14
688.082	4208.41
688.272	4224.79
688.461	4003.61
688.651	4101.91
688.841	4005.66
689.03	4017.94
689.22	4067.1
689.41	3938.07
689.599	3821.34
689.789	3856.15
689.979	4132.63
690.168	3878.68
690.358	3862.3
690.547	3731.23
690.737	3862.3
690.926	3821.34
691.116	3729.18
691.305	3825.43
691.495	3837.72
691.684	3718.94
691.874	3655.45
692.063	3659.55
692.252	3743.52
692.442	3624.73
692.631	3530.53
692.82	3632.93
693.01	3612.45
693.199	3538.72
693.388	3417.89
693.578	3491.62
693.767	3551.01
693.956	3563.29
694.146	3444.51
694.335	3512.1
694.524	3335.97
694.713	3501.86
694.902	3544.86
695.092	3477.28
695.281	3421.99
695.47	3487.52
695.659	3356.45
695.848	3381.03
696.037	3372.83
696.226	3245.86
696.415	3329.83
696.604	3323.68
696.793	3288.87
696.982	3157.8
697.171	3329.83
697.36	3381.03
697.549	3350.31
697.738	3135.27
697.927	3192.61
698.116	3270.44
698.305	3264.29
698.494	3159.85
698.683	3258.15
698.872	3335.97
699.061	3110.69
699.25	3116.84
699.438	3356.45
699.627	3139.37
699.816	3288.87
700.005	3165.99
700.193	3151.65
700.382	3301.15
700.571	3225.38
700.76	3178.28
700.948	3174.18
701.137	3233.57
701.326	3145.51
701.514	3147.56
701.703	3104.55
701.892	3280.68
702.08	3192.61
702.269	3153.7
702.457	3034.92
702.646	3225.38
702.834	3260.2
703.023	3178.28
703.212	3231.52
703.4	3217.19
703.589	2985.77
703.777	3231.52
703.965	3088.17
704.154	3149.61
704.342	3143.46
704.531	3133.22
704.719	3159.85
704.907	3157.8
705.096	3139.37
705.284	3168.04
705.472	3082.02
705.661	3116.84
705.849	3100.45
706.037	3157.8
706.226	3241.76
706.414	3096.36
706.602	3098.41
706.79	3292.96
706.979	3106.6
707.167	3127.08
707.355	3194.66
707.543	3184.42
707.731	3198.76
707.919	3006.25
708.107	3247.91
708.296	3108.65
708.484	3096.36
708.672	3286.82
708.86	3211.04
709.048	3159.85
709.236	3219.24
709.424	3268.39
709.612	3157.8
709.8	3174.18
709.988	3202.85
710.176	3321.63
710.364	3264.29
710.551	3206.95
710.739	3198.76
710.927	2955.05
711.115	3247.91
711.303	3219.24
711.491	3211.04
711.679	3223.33
711.866	3217.19
712.054	3241.76
712.242	3225.38
712.43	3401.51
712.617	3268.39
712.805	3247.91
712.993	3264.29
713.181	3268.39
713.368	3276.58
713.556	3213.09
713.744	3112.74
713.931	3356.45
714.119	3290.92
714.306	3307.3
714.494	3360.55
714.682	3266.34
714.869	3274.53
715.057	3358.5
715.244	3262.24
715.432	3475.23
715.619	3383.07
715.807	3297.06
715.994	3448.61
716.182	3344.16
716.369	3407.65
716.556	3409.7
716.744	3321.63
716.931	3471.14
717.119	3456.8
717.306	3501.86
717.493	3176.23
717.681	3297.06
717.868	3372.83
718.055	3284.77
718.242	3405.6
718.43	3419.94
718.617	3340.07
718.804	3518.24
718.991	3399.46
719.179	3290.92
719.366	3479.33
719.553	3460.9
719.74	3321.63
719.927	3374.88
720.114	3399.46
720.301	3284.77
720.488	3344.16
720.676	3452.7
720.863	3643.17
721.05	3551.01
721.237	3405.6
721.424	3381.03
721.611	3452.7
721.798	3485.47
721.985	3354.4
722.172	3295.01
722.358	3524.38
722.545	3333.92
722.732	3387.17
722.919	3544.86
723.106	3381.03
723.293	3501.86
723.48	3471.14
723.667	3405.6
723.853	3438.37
724.04	3645.21
724.227	3610.4
724.414	3403.55
724.6	3501.86
724.787	3485.47
724.974	3534.62
725.161	3448.61
725.347	3378.98
725.534	3546.91
725.72	3512.1
725.907	3464.99
726.094	3573.53
726.28	3487.52
726.467	3475.23
726.653	3647.26
726.84	3614.49
727.027	3649.31
727.213	3479.33
727.4	3555.1
727.586	3551.01
727.773	3651.36
727.959	3471.14
728.145	3565.34
728.332	3469.09
728.518	3487.52
728.705	3696.41
728.891	3551.01
729.077	3534.62
729.264	3405.6
729.45	3577.63
729.636	3637.02
729.823	3569.44
730.009	3471.14
730.195	3555.1
730.382	3639.07
730.568	3458.85
730.754	3696.41
730.94	3567.39
731.126	3577.63
731.313	3692.32
731.499	3559.2
731.685	3653.41
731.871	3522.34
732.057	3596.06
732.243	3501.86
732.429	3614.49
732.615	3727.13
732.801	3555.1
732.987	3489.57
733.173	3555.1
733.359	3649.31
733.545	3587.87
733.731	3454.75
733.917	3669.79
734.103	3495.71
734.289	3571.49
734.475	3712.8
734.661	3602.21
734.847	3528.48
735.033	3682.08
735.219	3649.31
735.404	3510.05
735.59	3499.81
735.776	3591.97
735.962	3548.96
736.148	3559.2
736.333	3632.93
736.519	3573.53
736.705	3460.9
736.89	3620.64
737.076	3587.87
737.262	3415.84
737.447	3591.97
737.633	3419.94
737.819	3561.25
738.004	3473.18
738.19	3534.62
738.375	3606.3
738.561	3442.46
738.747	3536.67
738.932	3417.89
739.118	3458.85
739.303	3405.6
739.489	3487.52
739.674	3456.8
739.859	3417.89
740.045	3432.22
740.23	3503.9
740.416	3393.31
740.601	3356.45
740.786	3577.63
740.972	3305.25
741.157	3356.45
741.342	3274.53
741.528	3192.61
741.713	3354.4
741.898	3280.68
742.084	3387.17
742.269	3309.35
742.454	3282.72
742.639	3378.98
742.824	3274.53
743.01	3424.03
743.195	3264.29
743.38	3227.43
743.565	3192.61
743.75	3323.68
743.935	3223.33
744.12	3221.28
744.305	3100.45
744.49	3112.74
744.675	3041.06
744.86	3045.16
745.045	3163.94
745.23	3084.07
745.415	3151.65
745.6	3059.49
745.785	3028.78
745.97	3079.97
746.155	3028.78
746.34	3135.27
746.525	2959.14
746.71	3104.55
746.895	3022.63
747.079	2969.38
747.264	2840.36
747.449	2953
747.634	2850.6
747.819	2940.71
748.003	2926.38
748.188	2930.47
748.373	2854.7
748.557	2821.93
748.742	2756.4
748.927	2793.26
749.111	2774.83
749.296	2705.2
749.481	2826.03
749.665	2807.59
749.85	2746.16
750.034	2762.54
750.219	2668.33
750.404	2592.56
750.588	2662.19
750.773	2553.65
750.957	2694.96
751.141	2484.02
751.326	2553.65
751.51	2502.45
751.695	2570.03
751.879	2506.54
752.064	2608.94
752.248	2408.24
752.432	2537.26
752.617	2479.92
752.801	2453.3
752.985	2436.91
753.17	2369.33
753.354	2340.66
753.538	2344.75
753.722	2363.19
753.907	2344.75
754.091	2256.69
754.275	2262.83
754.459	2164.53
754.643	2242.36
754.828	2248.5
755.012	2166.58
755.196	2162.48
755.38	2279.22
755.564	2170.68
755.748	2168.63
755.932	2193.2
756.116	2135.86
756.3	2090.81
756.484	2125.62
756.668	2064.18
756.852	1982.26
757.036	1969.98
757.22	2142
757.404	1976.12
757.588	2019.13
757.772	2068.28
757.956	2082.61
758.14	1957.69
758.323	1992.5
758.507	1929.02
758.691	1892.15
758.875	1931.06
759.059	1904.44
759.242	1961.78
759.426	1859.38
759.61	1822.52
759.794	1820.47
759.977	1851.19
760.161	1888.06
760.345	1826.62
760.528	1840.95
760.712	1826.62
760.895	1857.34
761.079	1779.51
761.263	1769.27
761.446	1716.03
761.63	1812.28
761.813	1806.14
761.997	1750.84
762.18	1713.98
762.364	1720.12
762.547	1587.01
762.731	1738.55
762.914	1673.02
763.098	1679.16
763.281	1685.31
763.464	1544
763.648	1709.88
763.831	1619.77
764.015	1523.52
764.198	1648.44
764.381	1509.18
764.564	1644.35
764.748	1634.11
764.931	1611.58
765.114	1560.38
765.297	1601.34
765.481	1576.77
765.664	1535.81
765.847	1632.06
766.03	1527.61
766.213	1531.71
766.397	1486.65
766.58	1492.8
766.763	1523.52
766.946	1464.13
767.129	1570.62
767.312	1544
767.495	1488.7
767.678	1417.02
767.861	1441.6
768.044	1404.74
768.227	1484.61
768.41	1429.31
768.593	1476.41
768.776	1480.51
768.959	1431.36
769.142	1587.01
769.324	1392.45
769.507	1298.24
769.69	1304.39
769.873	1414.98
770.056	1425.22
770.239	1558.33
770.421	1339.2
770.604	1396.54
770.787	1414.98
770.97	1351.49
771.152	1322.82
771.335	1417.02
771.518	1281.86
771.7	1400.64
771.883	1357.63
772.066	1298.24
772.248	1218.37
772.431	1318.72
772.613	1331.01
772.796	1251.14
772.978	1281.86
773.161	1320.77
773.343	1290.05
773.526	1279.81
773.708	1101.64
773.891	1228.61
774.073	1267.52
774.256	1165.12
774.438	1240.9
774.621	1054.53
774.803	1232.71
774.985	1103.68
775.168	1185.6
775.35	1138.5
775.532	1165.12
775.715	1095.49
775.897	1189.7
776.079	1156.93
776.261	1197.89
776.444	1052.49
776.626	1132.36
776.808	1095.49
776.99	968.52
777.173	1079.11
777.355	1058.63
777.537	1075.01
777.719	978.76
777.901	976.71
778.083	1050.44
778.265	954.18
778.447	999.24
778.629	933.7
778.811	1087.3
778.993	968.52
779.175	1081.16
779.357	968.52
779.539	997.19
779.721	986.95
779.903	974.66
780.085	958.28
780.267	905.03
780.449	945.99
780.631	1013.57
780.812	984.9
780.994	847.69
781.176	862.02
781.358	786.25
781.54	847.69
781.721	954.18
781.903	866.12
782.085	825.16
782.267	855.88
782.448	847.69
782.63	911.18
782.812	849.74
782.993	819.02
783.175	851.78
783.357	857.93
783.538	710.47
783.72	767.82
783.901	735.05
784.083	800.59
784.264	853.83
784.446	626.51
784.627	679.75
784.809	724.81
784.99	737.1
785.172	708.43
785.353	741.19
785.535	675.66
785.716	649.04
785.897	710.47
786.079	644.94
786.26	646.99
786.441	694.09
786.623	620.36
786.804	626.51
786.985	685.9
787.167	741.19
787.348	667.47
787.529	651.08
787.71	687.95
787.891	565.07
788.073	687.95
788.254	601.93
788.435	696.14
788.616	685.9
788.797	567.12
788.978	636.75
789.159	593.74
789.34	677.71
789.522	538.45
789.703	606.03
789.884	581.45
790.065	620.36
790.246	675.66
790.427	485.2
790.607	585.55
790.788	612.17
790.969	548.68
791.15	507.73
791.331	565.07
791.512	538.45
791.693	575.31
791.874	538.45
792.054	646.99
792.235	589.64
792.416	507.73
792.597	479.05
792.778	560.97
792.958	470.86
793.139	560.97
793.32	446.29
793.5	511.82
793.681	479.05
793.862	495.44
794.042	507.73
794.223	423.76
794.404	436.05
794.584	466.77
794.765	440.14
794.945	456.53
795.126	499.53
795.306	511.82
795.487	454.48
795.667	417.61
795.848	499.53
796.028	511.82
796.209	436.05
796.389	563.02
796.57	450.38
796.75	343.89
796.93	479.05
797.111	454.48
797.291	415.57
797.471	380.75
797.652	397.14
797.832	362.32
798.012	479.05
798.192	352.08
798.373	364.37
798.553	339.79
798.733	405.33
798.913	464.72
799.093	421.71
799.274	425.81
799.454	403.28
799.634	474.96
799.814	427.85
799.994	413.52
800.174	460.62
800.354	335.7
800.534	370.51
800.714	384.85
800.894	446.29
801.074	372.56
801.254	397.14
801.434	368.46
801.614	403.28
801.794	261.97
801.974	1324.87
802.154	352.08
802.334	393.04
802.514	317.26
802.693	325.46
802.873	319.31
803.053	335.7
803.233	345.94
803.413	290.64
803.592	290.64
803.772	364.37
803.952	347.98
804.131	325.46
804.311	479.05
804.491	368.46
804.67	339.79
804.85	300.88
805.03	307.02
805.209	378.7
805.389	282.45
805.568	364.37
805.748	266.07
805.928	319.31
806.107	274.26
806.287	292.69
806.466	270.16
806.646	296.78
806.825	300.88
807.004	274.26
807.184	388.94
807.363	298.83
807.543	257.87
807.722	397.14
807.901	235.35
808.081	368.46
808.26	272.21
808.439	208.72
808.619	311.12
808.798	257.87
808.977	251.73
809.156	261.97
809.336	296.78
809.515	329.55
809.694	241.49
809.873	243.54
810.052	333.65
810.231	272.21
810.411	358.22
810.59	268.11
810.769	186.19
810.948	352.08
811.127	198.48
811.306	249.68
811.485	233.3
811.664	290.64
811.843	243.54
812.022	274.26
812.201	200.53
812.38	257.87
812.559	241.49
812.737	327.5
812.916	175.95
813.095	259.92
813.274	288.59
813.453	247.63
813.632	317.26
813.811	249.68
813.989	149.33
814.168	264.02
814.347	268.11
814.526	221.01
814.704	309.07
814.883	296.78
815.062	204.63
815.24	241.49
815.419	135
815.598	227.15
815.776	175.95
815.955	231.25
816.133	163.67
816.312	231.25
816.49	137.04
816.669	167.76
816.847	210.77
817.026	212.82
817.204	137.04
817.383	210.77
817.561	149.33
817.74	200.53
817.918	218.96
818.097	227.15
818.275	180.05
818.453	221.01
818.632	208.72
818.81	194.39
818.988	278.35
819.167	192.34
819.345	221.01
819.523	233.3
819.701	171.86
819.879	186.19
820.058	227.15
820.236	135
820.414	251.73
820.592	178
820.77	192.34
820.948	126.8
821.127	126.8
821.305	114.52
821.483	169.81
821.661	167.76
821.839	202.58
822.017	182.1
822.195	202.58
822.373	216.91
822.551	233.3
822.729	227.15
822.907	159.57
823.085	169.81
823.262	141.14
823.44	112.47
823.618	61.27
823.796	216.91
823.974	94.04
824.152	141.14
824.329	135
824.507	126.8
824.685	159.57
824.863	48.98
825.04	157.52
825.218	192.34
825.396	167.76
825.574	139.09
825.751	175.95
825.929	190.29
826.107	57.17
826.284	120.66
826.462	106.32
826.639	116.56
826.817	135
826.994	165.71
827.172	145.24
827.349	169.81
827.527	175.95
827.704	159.57
827.882	188.24
828.059	85.84
828.237	130.9
828.414	151.38
828.591	89.94
828.769	139.09
828.946	182.1
829.124	171.86
829.301	227.15
829.478	159.57
829.655	122.71
829.833	151.38
830.01	104.28
830.187	120.66
830.364	182.1
830.542	167.76
830.719	167.76
830.896	141.14
831.073	139.09
831.25	81.75
831.427	173.91
831.604	102.23
831.782	94.04
831.959	178
832.136	135
832.313	100.18
832.49	128.85
832.667	147.28
832.844	151.38
833.021	208.72
833.198	151.38
833.374	55.12
833.551	132.95
833.728	63.32
833.905	139.09
834.082	126.8
834.259	120.66
834.436	178
834.612	73.56
834.789	155.47
834.966	69.46
835.143	100.18
835.319	65.36
835.496	73.56
835.673	61.27
835.85	169.81
836.026	46.93
836.203	130.9
836.38	57.17
836.556	94.04
836.733	202.58
836.909	184.15
837.086	91.99
837.262	104.28
837.439	104.28
837.616	135
837.792	110.42
837.968	112.47
838.145	128.85
838.321	145.24
838.498	96.08
838.674	137.04
838.851	85.84
839.027	98.13
839.203	178
839.38	65.36
839.556	98.13
839.732	89.94
839.909	132.95
840.085	178
840.261	77.65
840.437	87.89
840.614	57.17
840.79	102.23
840.966	98.13
841.142	36.69
841.318	79.7
841.494	75.6
841.671	135
841.847	22.36
842.023	141.14
842.199	89.94
842.375	120.66
842.551	61.27
842.727	61.27
842.903	157.52
843.079	55.12
843.255	175.95
843.431	48.98
843.607	102.23
843.783	20.31
843.959	28.5
844.134	71.51
844.31	135
844.486	126.8
844.662	42.84
844.838	124.76
845.013	167.76
845.189	110.42
845.365	124.76
845.541	110.42
845.716	135
845.892	139.09
846.068	-41.13
846.244	122.71
846.419	126.8
846.595	98.13
846.77	-30.89
846.946	141.14
847.122	116.56
847.297	69.46
847.473	175.95
847.648	-28.84
847.824	98.13
847.999	14.17
848.175	57.17
848.35	104.28
848.526	65.36
848.701	155.47
848.876	32.6
849.052	89.94
849.227	77.65
849.403	100.18
849.578	89.94
849.753	137.04
849.929	137.04
850.104	8.02
850.279	55.12
850.454	1.88
850.63	141.14
850.805	61.27
850.98	143.19
851.155	132.95
851.33	132.95
851.505	-4.27
851.681	132.95
851.856	85.84
852.031	159.57
852.206	51.03
852.381	38.74
852.556	51.03
852.731	63.32
852.906	61.27
853.081	87.89
853.256	87.89
853.431	10.07
853.606	79.7
853.781	67.41
853.956	-18.6
854.131	112.47
854.305	69.46
854.48	59.22
854.655	1.88
854.83	-37.03
855.005	114.52
855.18	44.88
855.354	63.32
855.529	38.74
855.704	98.13
855.879	81.75
856.053	44.88
856.228	71.51
856.403	30.55
856.577	108.37
856.752	8.02
856.926	-12.46
857.101	1.88
857.276	40.79
857.45	46.93
857.625	155.47
857.799	34.64
857.974	143.19
858.148	5.97
858.323	128.85
858.497	48.98
858.672	-34.99
858.846	87.89
859.02	87.89
859.195	5.97
859.369	22.36
859.543	-28.84
859.718	32.6
859.892	-12.46
860.066	16.21
860.241	44.88
860.415	28.5
860.589	89.94
860.763	42.84
860.938	46.93
861.112	8.02
861.286	12.12
861.46	91.99
861.634	32.6
861.808	102.23
861.982	73.56
862.157	38.74
862.331	3.93
862.505	-28.84
862.679	-20.65
862.853	12.12
863.027	61.27
863.201	155.47
863.375	-4.27
863.549	8.02
863.722	22.36
863.896	149.33
864.07	-24.75
864.244	-20.65
864.418	48.98
864.592	98.13
864.766	-61.61
864.939	87.89
865.113	1.88
865.287	59.22
865.461	-34.99
865.634	63.32
865.808	-2.22
865.982	48.98
866.156	8.02
866.329	46.93
866.503	114.52
866.676	55.12
866.85	-4.27
867.024	48.98
867.197	-8.36
867.371	63.32
867.544	81.75
867.718	5.97
867.891	46.93
868.065	-26.79
868.238	69.46
868.412	61.27
868.585	126.8
868.759	26.45
868.932	-49.32
869.105	59.22
869.279	40.79
869.452	-37.03
869.625	-4.27
869.799	-43.18
869.972	-26.79
870.145	-16.55
870.319	77.65
870.492	63.32
870.665	-16.55
870.838	32.6
871.011	10.07
871.185	12.12
871.358	10.07
871.531	153.43
871.704	12.12
871.877	-10.41
872.05	28.5
872.223	20.31
872.396	55.12
872.569	87.89
872.742	-43.18
872.915	89.94
873.088	69.46
873.261	-4.27
873.434	-8.36
873.607	22.36
873.78	85.84
873.953	26.45
874.126	-4.27
874.299	-0.17
874.471	10.07
874.644	-0.17
874.817	-2.22
874.99	102.23
875.163	51.03
875.335	46.93
875.508	16.21
875.681	53.08
875.853	-8.36
876.026	51.03
876.199	-47.27
876.371	30.55
876.544	-2.22
876.717	30.55
876.889	5.97
877.062	28.5
877.234	18.26
877.407	28.5
877.579	22.36
877.752	112.47
877.924	40.79
878.097	36.69
878.269	40.79
878.442	16.21
878.614	81.75
878.786	36.69
878.959	53.08
879.131	-4.27
879.303	-12.46
879.476	14.17
879.648	124.76
879.82	-4.27
879.993	-18.6
880.165	-16.55
880.337	-22.7
880.509	96.08
880.681	-63.66
880.854	-2.22
881.026	32.6
881.198	151.38
881.37	-10.41
881.542	55.12
881.714	-45.23
881.886	16.21
882.058	-10.41
882.23	69.46
882.402	-16.55
882.574	53.08
882.746	61.27
882.918	-12.46
883.09	89.94
883.262	12.12
883.434	89.94
883.606	-28.84
883.778	12.12
883.95	59.22
884.122	8.02
884.293	112.47
884.465	-10.41
884.637	71.51
884.809	36.69
884.98	36.69
885.152	67.41
885.324	120.66
885.496	22.36
885.667	30.55
885.839	40.79
886.011	24.4
886.182	40.79
886.354	30.55
886.525	69.46
886.697	94.04
886.869	-24.75
887.04	5.97
887.212	85.84
887.383	34.64
887.555	38.74
887.726	3.93
887.897	-28.84
888.069	22.36
888.24	69.46
888.412	-45.23
888.583	-24.75
888.754	28.5
888.926	-47.27
889.097	46.93
889.268	-6.31
889.44	-8.36
889.611	44.88
889.782	-53.42
889.953	-6.31
890.125	79.7
890.296	10.07
890.467	30.55
890.638	73.56
890.809	-10.41
890.98	-59.56
891.151	77.65
891.323	28.5
891.494	20.31
891.665	16.21
891.836	5.97
892.007	20.31
892.178	94.04
892.349	24.4
892.52	32.6
892.691	-26.79
892.862	-55.47
893.032	12.12
893.203	-16.55
893.374	46.93
893.545	30.55
893.716	-28.84
893.887	51.03
894.057	-12.46
894.228	20.31
894.399	-22.7
894.57	124.76
894.74	-28.84
894.911	-12.46
895.082	1.88
895.253	30.55
895.423	42.84
895.594	89.94
895.764	69.46
895.935	-2.22
896.106	26.45
896.276	-37.03
896.447	22.36
896.617	-28.84
896.788	16.21
896.958	-8.36
897.129	-4.27
897.299	20.31
897.47	30.55
897.64	34.64
897.81	-37.03
897.981	51.03
898.151	3.93
898.322	20.31
898.492	59.22
898.662	-12.46
898.832	-10.41
899.003	42.84
899.173	87.89
899.343	-10.41
899.513	-6.31
