Data from USB4F104151__59__13-05-41-561.txt Node

Date: Fri Mar 14 13:05:41 EDT 2025
User: louis
Spectrometer: USB4F10415
Trigger mode: 4
Integration Time (sec): 4.000000E-2
Scans to average: 1
Electric dark correction enabled: true
Nonlinearity correction enabled: false
Boxcar width: 0
XAxis mode: Wavelengths
Number of Pixels in Spectrum: 3648
>>>>>Begin Spectral Data<<<<<
178.204	-205.14
178.424	-205.14
178.644	-205.14
178.864	-145.75
179.084	-90.45
179.304	-90.45
179.524	16.04
179.744	-49.49
179.964	75.43
180.184	-16.73
180.404	16.04
180.624	13.99
180.844	-0.34
181.064	-33.11
181.283	20.14
181.503	38.57
181.723	9.9
181.943	-53.59
182.163	134.82
182.383	-26.96
182.602	26.28
182.822	81.58
183.042	18.09
183.262	38.57
183.482	65.19
183.701	-8.53
183.921	71.34
184.141	-0.34
184.361	30.38
184.58	63.15
184.8	-14.68
185.02	73.39
185.239	83.63
185.459	20.14
185.679	-10.58
185.898	-8.53
186.118	44.71
186.338	83.63
186.557	1.71
186.777	24.23
186.997	89.77
187.216	-37.2
187.436	106.15
187.655	13.99
187.875	48.81
188.095	24.23
188.314	79.53
188.534	57
188.753	75.43
188.973	44.71
189.192	102.06
189.412	16.04
189.631	52.91
189.851	65.19
190.07	118.44
190.29	-18.77
190.509	-24.92
190.729	24.23
190.948	30.38
191.168	200.36
191.387	48.81
191.607	59.05
191.826	5.8
192.045	-53.59
192.265	50.86
192.484	52.91
192.704	104.11
192.923	36.52
193.142	69.29
193.362	30.38
193.581	20.14
193.8	48.81
194.02	102.06
194.239	-29.01
194.458	75.43
194.678	20.14
194.897	1.71
195.116	85.67
195.335	11.95
195.555	44.71
195.774	54.95
195.993	77.48
196.212	61.1
196.432	18.09
196.651	34.47
196.87	-0.34
197.089	157.35
197.308	5.8
197.528	65.19
197.747	16.04
197.966	-74.07
198.185	97.96
198.404	-53.59
198.623	50.86
198.842	54.95
199.062	65.19
199.281	118.44
199.5	16.04
199.719	71.34
199.938	59.05
200.157	61.1
200.376	22.19
200.595	159.4
200.814	52.91
201.033	-78.16
201.252	95.91
201.471	67.24
201.69	52.91
201.909	93.87
202.128	61.1
202.347	48.81
202.566	85.67
202.785	93.87
203.004	-4.44
203.223	28.33
203.442	71.34
203.661	-61.78
203.879	54.95
204.098	97.96
204.317	22.19
204.536	79.53
204.755	16.04
204.974	126.63
205.193	83.63
205.411	186.02
205.63	100.01
205.849	57
206.068	-16.73
206.287	11.95
206.505	89.77
206.724	-53.59
206.943	5.8
207.162	-102.74
207.381	-2.39
207.599	28.33
207.818	50.86
208.037	22.19
208.255	24.23
208.474	11.95
208.693	46.76
208.911	48.81
209.13	61.1
209.349	73.39
209.567	61.1
209.786	192.17
210.005	9.9
210.223	5.8
210.442	30.38
210.661	46.76
210.879	-12.63
211.098	28.33
211.316	69.29
211.535	93.87
211.753	71.34
211.972	36.52
212.191	26.28
212.409	28.33
212.628	22.19
212.846	-98.64
213.065	22.19
213.283	61.1
213.502	93.87
213.72	-33.11
213.938	54.95
214.157	52.91
214.375	42.67
214.594	9.9
214.812	97.96
215.031	-55.64
215.249	-74.07
215.467	3.75
215.686	67.24
215.904	28.33
216.122	24.23
216.341	87.72
216.559	26.28
216.778	79.53
216.996	87.72
217.214	32.43
217.432	16.04
217.651	26.28
217.869	46.76
218.087	34.47
218.306	-31.06
218.524	44.71
218.742	28.33
218.96	95.91
219.179	-8.53
219.397	65.19
219.615	118.44
219.833	30.38
220.051	20.14
220.27	61.1
220.488	28.33
220.706	20.14
220.924	-18.77
221.142	73.39
221.36	7.85
221.578	22.19
221.796	28.33
222.015	69.29
222.233	16.04
222.451	145.06
222.669	5.8
222.887	128.68
223.105	-12.63
223.323	52.91
223.541	-26.96
223.759	79.53
223.977	38.57
224.195	32.43
224.413	85.67
224.631	52.91
224.849	65.19
225.067	102.06
225.285	63.15
225.503	61.1
225.721	-37.2
225.939	20.14
226.157	61.1
226.375	147.11
226.592	36.52
226.81	-20.82
227.028	87.72
227.246	157.35
227.464	-0.34
227.682	97.96
227.9	89.77
228.117	54.95
228.335	42.67
228.553	124.58
228.771	69.29
228.989	-12.63
229.206	114.34
229.424	-0.34
229.642	83.63
229.86	-8.53
230.077	83.63
230.295	61.1
230.513	42.67
230.731	89.77
230.948	95.91
231.166	93.87
231.384	18.09
231.601	7.85
231.819	163.5
232.037	32.43
232.254	32.43
232.472	7.85
232.689	42.67
232.907	93.87
233.125	-29.01
233.342	-33.11
233.56	-29.01
233.777	-6.49
233.995	67.24
234.213	75.43
234.43	-45.4
234.648	34.47
234.865	52.91
235.083	48.81
235.3	100.01
235.518	81.58
235.735	97.96
235.953	155.3
236.17	-12.63
236.388	36.52
236.605	44.71
236.822	89.77
237.04	167.59
237.257	59.05
237.475	46.76
237.692	85.67
237.909	97.96
238.127	3.75
238.344	61.1
238.562	97.96
238.779	40.62
238.996	-88.4
239.214	-49.49
239.431	87.72
239.648	28.33
239.865	52.91
240.083	61.1
240.3	-14.68
240.517	34.47
240.735	-4.44
240.952	87.72
241.169	75.43
241.386	1.71
241.603	-45.4
241.821	77.48
242.038	73.39
242.255	57
242.472	42.67
242.689	36.52
242.907	28.33
243.124	126.63
243.341	34.47
243.558	40.62
243.775	3.75
243.992	3.75
244.209	46.76
244.426	89.77
244.643	30.38
244.86	-26.96
245.078	18.09
245.295	52.91
245.512	-10.58
245.729	13.99
245.946	24.23
246.163	138.92
246.38	89.77
246.597	52.91
246.814	-29.01
247.031	26.28
247.248	34.47
247.464	112.3
247.681	13.99
247.898	57
248.115	32.43
248.332	-6.49
248.549	85.67
248.766	136.87
248.983	46.76
249.2	26.28
249.417	83.63
249.633	-12.63
249.85	93.87
250.067	46.76
250.284	97.96
250.501	77.48
250.717	97.96
250.934	1.71
251.151	9.9
251.368	69.29
251.585	69.29
251.801	73.39
252.018	-29.01
252.235	97.96
252.451	42.67
252.668	42.67
252.885	81.58
253.102	42.67
253.318	20.14
253.535	-8.53
253.752	48.81
253.968	11.95
254.185	-2.39
254.401	5.8
254.618	61.1
254.835	-20.82
255.051	61.1
255.268	54.95
255.484	5.8
255.701	22.19
255.917	24.23
256.134	54.95
256.351	46.76
256.567	28.33
256.784	28.33
257	-29.01
257.217	26.28
257.433	1.71
257.65	48.81
257.866	22.19
258.082	-49.49
258.299	-4.44
258.515	93.87
258.732	32.43
258.948	-14.68
259.165	-0.34
259.381	73.39
259.597	46.76
259.814	32.43
260.03	89.77
260.246	48.81
260.463	110.25
260.679	89.77
260.895	-108.88
261.112	44.71
261.328	18.09
261.544	44.71
261.761	73.39
261.977	9.9
262.193	-29.01
262.409	93.87
262.626	112.3
262.842	-61.78
263.058	69.29
263.274	61.1
263.49	11.95
263.707	38.57
263.923	57
264.139	3.75
264.355	28.33
264.571	77.48
264.787	5.8
265.004	77.48
265.22	-76.12
265.436	7.85
265.652	57
265.868	50.86
266.084	-0.34
266.3	65.19
266.516	44.71
266.732	1.71
266.948	24.23
267.164	63.15
267.38	77.48
267.596	93.87
267.812	134.82
268.028	44.71
268.244	-31.06
268.46	77.48
268.676	-4.44
268.892	48.81
269.108	-14.68
269.324	54.95
269.54	1.71
269.756	73.39
269.972	-35.16
270.188	20.14
270.403	-22.87
270.619	-16.73
270.835	32.43
271.051	48.81
271.267	-8.53
271.483	46.76
271.698	-4.44
271.914	69.29
272.13	44.71
272.346	108.2
272.562	100.01
272.777	46.76
272.993	54.95
273.209	28.33
273.425	93.87
273.64	-2.39
273.856	-6.49
274.072	28.33
274.287	34.47
274.503	34.47
274.719	81.58
274.934	48.81
275.15	-8.53
275.366	26.28
275.581	54.95
275.797	38.57
276.012	57
276.228	30.38
276.444	81.58
276.659	-0.34
276.875	40.62
277.09	81.58
277.306	40.62
277.521	140.97
277.737	81.58
277.952	112.3
278.168	46.76
278.383	22.19
278.599	77.48
278.814	57
279.03	-24.92
279.245	106.15
279.461	85.67
279.676	106.15
279.892	44.71
280.107	-53.59
280.322	24.23
280.538	114.34
280.753	30.38
280.969	18.09
281.184	28.33
281.399	102.06
281.615	69.29
281.83	85.67
282.045	-49.49
282.26	-2.39
282.476	91.82
282.691	102.06
282.906	28.33
283.122	18.09
283.337	16.04
283.552	52.91
283.767	9.9
283.983	108.2
284.198	32.43
284.413	93.87
284.628	3.75
284.843	143.02
285.058	77.48
285.274	89.77
285.489	-29.01
285.704	52.91
285.919	-12.63
286.134	61.1
286.349	42.67
286.564	-37.2
286.779	71.34
286.995	91.82
287.21	-10.58
287.425	52.91
287.64	-4.44
287.855	81.58
288.07	-4.44
288.285	77.48
288.5	100.01
288.715	20.14
288.93	69.29
289.145	73.39
289.36	83.63
289.575	52.91
289.79	50.86
290.004	32.43
290.219	38.57
290.434	20.14
290.649	3.75
290.864	52.91
291.079	34.47
291.294	102.06
291.509	38.57
291.724	-45.4
291.938	-51.54
292.153	87.72
292.368	36.52
292.583	65.19
292.798	102.06
293.012	48.81
293.227	83.63
293.442	-8.53
293.657	79.53
293.871	102.06
294.086	95.91
294.301	81.58
294.516	85.67
294.73	61.1
294.945	-4.44
295.16	7.85
295.374	61.1
295.589	65.19
295.804	-26.96
296.018	24.23
296.233	124.58
296.447	89.77
296.662	52.91
296.877	136.87
297.091	48.81
297.306	57
297.52	81.58
297.735	46.76
297.949	69.29
298.164	36.52
298.378	108.2
298.593	-18.77
298.807	22.19
299.022	24.23
299.236	77.48
299.451	67.24
299.665	38.57
299.88	48.81
300.094	24.23
300.309	110.25
300.523	18.09
300.737	13.99
300.952	71.34
301.166	130.73
301.381	-31.06
301.595	7.85
301.809	18.09
302.024	36.52
302.238	-2.39
302.452	57
302.667	61.1
302.881	73.39
303.095	83.63
303.309	59.05
303.524	-20.82
303.738	48.81
303.952	-18.77
304.166	50.86
304.381	-4.44
304.595	42.67
304.809	52.91
305.023	63.15
305.237	67.24
305.452	59.05
305.666	108.2
305.88	102.06
306.094	30.38
306.308	18.09
306.522	16.04
306.736	79.53
306.95	52.91
307.164	36.52
307.379	-29.01
307.593	100.01
307.807	81.58
308.021	52.91
308.235	77.48
308.449	46.76
308.663	40.62
308.877	69.29
309.091	73.39
309.305	38.57
309.519	-33.11
309.733	116.39
309.947	-37.2
310.161	83.63
310.374	85.67
310.588	110.25
310.802	85.67
311.016	93.87
311.23	7.85
311.444	-0.34
311.658	46.76
311.872	38.57
312.085	91.82
312.299	110.25
312.513	67.24
312.727	147.11
312.941	18.09
313.154	79.53
313.368	5.8
313.582	48.81
313.796	52.91
314.009	28.33
314.223	167.59
314.437	44.71
314.651	69.29
314.864	67.24
315.078	-16.73
315.292	36.52
315.505	22.19
315.719	132.78
315.933	61.1
316.146	63.15
316.36	-29.01
316.573	65.19
316.787	46.76
317.001	95.91
317.214	32.43
317.428	30.38
317.641	-10.58
317.855	-10.58
318.068	59.05
318.282	77.48
318.495	16.04
318.709	-4.44
318.922	44.71
319.136	73.39
319.349	138.92
319.563	46.76
319.776	22.19
319.99	16.04
320.203	61.1
320.417	48.81
320.63	44.71
320.843	116.39
321.057	42.67
321.27	71.34
321.483	118.44
321.697	143.02
321.91	7.85
322.124	91.82
322.337	63.15
322.55	65.19
322.763	77.48
322.977	-18.77
323.19	18.09
323.403	18.09
323.617	102.06
323.83	114.34
324.043	57
324.256	63.15
324.469	44.71
324.683	50.86
324.896	-37.2
325.109	61.1
325.322	34.47
325.535	81.58
325.748	95.91
325.962	54.95
326.175	22.19
326.388	63.15
326.601	118.44
326.814	11.95
327.027	87.72
327.24	157.35
327.453	-0.34
327.666	81.58
327.879	73.39
328.092	42.67
328.305	50.86
328.518	11.95
328.731	65.19
328.944	106.15
329.157	22.19
329.37	-0.34
329.583	122.54
329.796	136.87
330.009	3.75
330.222	118.44
330.435	44.71
330.648	48.81
330.861	81.58
331.073	13.99
331.286	97.96
331.499	71.34
331.712	20.14
331.925	-20.82
332.138	71.34
332.35	118.44
332.563	-16.73
332.776	106.15
332.989	-49.49
333.202	52.91
333.414	110.25
333.627	89.77
333.84	40.62
334.053	38.57
334.265	-88.4
334.478	50.86
334.691	46.76
334.903	54.95
335.116	-16.73
335.329	20.14
335.541	100.01
335.754	102.06
335.966	85.67
336.179	57
336.392	100.01
336.604	42.67
336.817	28.33
337.029	63.15
337.242	52.91
337.454	44.71
337.667	73.39
337.88	134.82
338.092	138.92
338.305	104.11
338.517	22.19
338.729	36.52
338.942	61.1
339.154	40.62
339.367	87.72
339.579	48.81
339.792	89.77
340.004	120.49
340.217	30.38
340.429	110.25
340.641	36.52
340.854	24.23
341.066	-35.16
341.278	122.54
341.491	77.48
341.703	3.75
341.915	79.53
342.128	42.67
342.34	128.68
342.552	40.62
342.764	112.3
342.977	44.71
343.189	50.86
343.401	118.44
343.613	38.57
343.826	46.76
344.038	54.95
344.25	18.09
344.462	24.23
344.674	46.76
344.886	11.95
345.099	54.95
345.311	36.52
345.523	110.25
345.735	50.86
345.947	106.15
346.159	46.76
346.371	22.19
346.583	5.8
346.795	87.72
347.007	1.71
347.219	67.24
347.431	36.52
347.643	87.72
347.855	-10.58
348.067	77.48
348.279	79.53
348.491	67.24
348.703	-33.11
348.915	38.57
349.127	-49.49
349.339	104.11
349.551	32.43
349.763	93.87
349.975	77.48
350.187	73.39
350.399	52.91
350.61	91.82
350.822	-4.44
351.034	65.19
351.246	28.33
351.458	9.9
351.669	81.58
351.881	122.54
352.093	87.72
352.305	136.87
352.517	97.96
352.728	91.82
352.94	75.43
353.152	-0.34
353.363	28.33
353.575	24.23
353.787	85.67
353.999	116.39
354.21	104.11
354.422	42.67
354.633	40.62
354.845	38.57
355.057	57
355.268	89.77
355.48	175.78
355.692	93.87
355.903	71.34
356.115	13.99
356.326	9.9
356.538	91.82
356.749	136.87
356.961	136.87
357.172	61.1
357.384	63.15
357.595	116.39
357.807	50.86
358.018	5.8
358.23	87.72
358.441	100.01
358.653	40.62
358.864	73.39
359.075	40.62
359.287	153.26
359.498	112.3
359.709	-10.58
359.921	71.34
360.132	61.1
360.344	44.71
360.555	5.8
360.766	73.39
360.977	24.23
361.189	102.06
361.4	28.33
361.611	85.67
361.823	100.01
362.034	48.81
362.245	50.86
362.456	5.8
362.667	52.91
362.879	52.91
363.09	83.63
363.301	118.44
363.512	-2.39
363.723	26.28
363.935	61.1
364.146	16.04
364.357	-12.63
364.568	110.25
364.779	-33.11
364.99	93.87
365.201	-16.73
365.412	9.9
365.623	-35.16
365.834	87.72
366.045	48.81
366.256	95.91
366.467	40.62
366.678	77.48
366.889	67.24
367.1	116.39
367.311	95.91
367.522	108.2
367.733	54.95
367.944	102.06
368.155	11.95
368.366	50.86
368.577	63.15
368.788	81.58
368.999	-0.34
369.209	108.2
369.42	145.06
369.631	143.02
369.842	151.21
370.053	38.57
370.264	93.87
370.474	89.77
370.685	97.96
370.896	-18.77
371.107	114.34
371.317	163.5
371.528	59.05
371.739	100.01
371.95	67.24
372.16	106.15
372.371	1.71
372.582	85.67
372.792	97.96
373.003	71.34
373.214	110.25
373.424	1.71
373.635	3.75
373.846	71.34
374.056	3.75
374.267	24.23
374.477	59.05
374.688	-29.01
374.898	77.48
375.109	48.81
375.319	126.63
375.53	79.53
375.74	71.34
375.951	52.91
376.161	61.1
376.372	118.44
376.582	30.38
376.793	52.91
377.003	69.29
377.214	120.49
377.424	57
377.635	77.48
377.845	20.14
378.055	79.53
378.266	95.91
378.476	46.76
378.686	79.53
378.897	71.34
379.107	85.67
379.317	36.52
379.528	77.48
379.738	91.82
379.948	71.34
380.158	30.38
380.369	22.19
380.579	63.15
380.789	50.86
380.999	104.11
381.21	114.34
381.42	130.73
381.63	102.06
381.84	44.71
382.05	95.91
382.261	104.11
382.471	151.21
382.681	-10.58
382.891	110.25
383.101	36.52
383.311	9.9
383.521	71.34
383.731	77.48
383.941	75.43
384.151	102.06
384.361	73.39
384.571	77.48
384.781	20.14
384.991	120.49
385.201	136.87
385.411	69.29
385.621	83.63
385.831	57
386.041	67.24
386.251	69.29
386.461	108.2
386.671	112.3
386.881	147.11
387.091	20.14
387.301	89.77
387.511	22.19
387.72	167.59
387.93	87.72
388.14	69.29
388.35	30.38
388.56	181.93
388.769	79.53
388.979	104.11
389.189	44.71
389.399	65.19
389.609	149.16
389.818	73.39
390.028	145.06
390.238	140.97
390.447	-14.68
390.657	85.67
390.867	13.99
391.076	63.15
391.286	13.99
391.496	54.95
391.705	28.33
391.915	124.58
392.125	128.68
392.334	-18.77
392.544	124.58
392.753	20.14
392.963	50.86
393.172	116.39
393.382	63.15
393.591	95.91
393.801	9.9
394.01	194.22
394.22	149.16
394.429	102.06
394.639	110.25
394.848	147.11
395.058	102.06
395.267	77.48
395.477	97.96
395.686	124.58
395.895	169.64
396.105	224.94
396.314	171.69
396.524	59.05
396.733	161.45
396.942	188.07
397.152	89.77
397.361	54.95
397.57	118.44
397.78	91.82
397.989	177.83
398.198	169.64
398.407	167.59
398.617	77.48
398.826	112.3
399.035	97.96
399.244	151.21
399.453	124.58
399.663	151.21
399.872	126.63
400.081	67.24
400.29	212.65
400.499	138.92
400.708	186.02
400.917	110.25
401.127	159.4
401.336	128.68
401.545	126.63
401.754	226.98
401.963	151.21
402.172	134.82
402.381	128.68
402.59	120.49
402.799	206.5
403.008	226.98
403.217	167.59
403.426	104.11
403.635	122.54
403.844	114.34
404.053	151.21
404.262	95.91
404.471	210.6
404.68	188.07
404.888	169.64
405.097	167.59
405.306	202.41
405.515	233.13
405.724	196.26
405.933	208.55
406.142	155.3
406.35	286.37
406.559	200.36
406.768	210.6
406.977	325.29
407.185	243.37
407.394	233.13
407.603	132.78
407.812	188.07
408.02	253.61
408.229	325.29
408.438	370.34
408.646	208.55
408.855	276.13
409.064	353.96
409.272	353.96
409.481	421.54
409.69	290.47
409.898	300.71
410.107	415.4
410.315	358.05
410.524	331.43
410.733	439.97
410.941	448.16
411.15	425.64
411.358	433.83
411.567	519.84
411.775	460.45
411.984	456.36
412.192	593.57
412.401	474.79
412.609	630.43
412.818	525.99
413.026	609.95
413.234	530.08
413.443	636.58
413.651	530.08
413.86	550.56
414.068	716.45
414.276	736.93
414.485	648.86
414.693	810.65
414.901	818.85
415.11	847.52
415.318	861.85
415.526	810.65
415.734	890.53
415.943	902.81
416.151	876.19
416.359	949.92
416.567	982.68
416.776	962.2
416.984	1068.7
417.192	1103.51
417.4	1132.19
417.608	1162.9
417.817	1203.86
418.025	1234.58
418.233	1351.32
418.441	1347.22
418.649	1230.49
418.857	1476.24
419.065	1599.12
419.273	1384.09
419.481	1529.49
419.689	1578.64
419.897	1719.95
420.105	1689.23
420.313	1752.72
420.521	1873.55
420.729	1926.8
420.937	1885.84
421.145	1941.13
421.353	2117.26
421.561	2238.09
421.769	2156.17
421.977	2199.18
422.185	2250.38
422.393	2381.45
422.601	2610.82
422.809	2625.15
423.017	2596.48
423.224	2727.55
423.432	2788.99
423.64	2840.19
423.848	3098.24
424.056	2965.12
424.263	3313.27
424.471	3249.79
424.679	3317.37
424.887	3456.63
425.094	3434.1
425.302	3604.08
425.51	3683.95
425.718	3896.94
425.925	3901.04
426.133	3968.62
426.341	4142.7
426.548	4361.83
426.756	4515.43
426.964	4402.79
427.171	4681.32
427.379	4882.02
427.586	4855.39
427.794	5113.44
428.001	5359.19
428.209	5557.85
428.417	5439.06
428.624	5746.26
428.832	5893.71
429.039	5860.95
429.247	5817.94
429.454	6381.13
429.662	6696.52
429.869	6395.47
430.076	6884.93
430.284	6680.13
430.491	6968.9
430.699	7272
430.906	7337.53
431.114	7339.58
431.321	7687.73
431.528	7728.69
431.736	8269.36
431.943	8771.11
432.15	8554.02
432.358	8695.33
432.565	9227.81
432.772	8881.7
432.979	9522.71
433.187	9616.92
433.394	9715.22
433.601	10257.93
433.808	10425.87
434.016	10307.09
434.223	10718.73
434.43	11361.79
434.637	11245.06
434.844	11814.39
435.052	12086.77
435.259	12115.44
435.466	12054
435.673	12144.11
435.88	12688.87
436.087	13299.17
436.294	13481.44
436.501	13184.48
436.708	13452.77
436.915	14118.36
437.122	14409.17
437.329	14618.06
437.537	15160.77
437.743	15107.52
437.95	14839.24
438.157	15965.62
438.364	16100.79
438.571	16238
438.778	16455.09
438.985	17880.47
439.192	17448.35
439.399	18019.74
439.606	17546.65
439.813	18668.94
440.02	19420.55
440.227	19393.92
440.433	18986.38
440.64	19604.86
440.847	19408.26
441.054	20006.27
441.261	21331.3
441.467	21048.68
441.674	21484.9
441.881	22537.55
442.088	22224.22
442.294	22119.77
442.501	22658.38
442.708	23094.6
442.914	24030.52
443.121	24685.87
443.328	24280.38
443.534	26354.97
443.741	25257.26
443.948	24866.1
444.154	26823.95
444.361	26637.59
444.568	26750.23
444.774	26512.66
444.981	27356.43
445.187	27766.02
445.394	29416.68
445.6	28454.14
445.807	31759.56
446.013	30305.5
446.22	30743.77
446.426	31921.35
446.633	32533.69
446.839	33520.81
447.046	31997.12
447.252	33703.08
447.459	33889.45
447.665	33813.67
447.871	35523.72
448.078	36596.86
448.284	34983.06
448.491	36265.09
448.697	37385.33
448.903	37940.33
449.11	38153.32
449.316	37166.2
449.522	38419.55
449.728	39273.56
449.935	39724.11
450.141	39609.42
450.347	40309.83
450.553	39138.39
450.76	39834.7
450.966	41360.44
451.172	40600.64
451.378	41907.24
451.584	41008.18
451.791	42075.18
451.997	41460.79
452.203	42447.91
452.409	42759.2
452.615	42091.56
452.821	40657.98
453.027	40406.08
453.233	42382.37
453.44	40971.32
453.646	41108.54
453.852	41462.83
454.058	42187.81
454.264	40686.65
454.47	41563.18
454.676	40817.72
454.882	42077.22
455.088	38505.57
455.294	39066.71
455.5	39830.6
455.705	40213.57
455.911	38853.72
456.117	37624.94
456.323	37356.66
456.529	35579.02
456.735	36902.01
456.941	36041.86
457.147	35140.75
457.352	34569.37
457.558	34002.08
457.764	33875.11
457.97	33496.24
458.176	32808.12
458.381	32728.25
458.587	31214.8
458.793	31495.37
458.999	29531.37
459.204	31786.18
459.41	30846.16
459.616	28742.9
459.821	28996.85
460.027	28814.58
460.233	27835.65
460.438	26793.23
460.644	27206.92
460.85	25687.33
461.055	25441.57
461.261	25414.95
461.466	23178.57
461.672	22701.39
461.878	24315.19
462.083	22875.47
462.289	22449.49
462.494	22148.44
462.7	21130.6
462.905	20557.17
463.111	21359.97
463.316	21488.99
463.522	20876.65
463.727	20952.43
463.932	20692.33
464.138	20798.83
464.343	20907.37
464.549	20082.04
464.754	20632.94
464.959	20628.85
465.165	20252.02
465.37	19824
465.575	19066.25
465.781	19764.61
465.986	19926.39
466.191	19326.34
466.397	18730.38
466.602	17853.85
466.807	18550.16
467.012	18941.32
467.218	18447.76
467.423	18269.59
467.628	18255.25
467.833	18886.03
468.038	18382.23
468.244	17730.97
468.449	18613.65
468.654	18177.43
468.859	17845.66
469.064	17995.16
469.269	17149.35
469.474	17327.52
469.679	17487.26
469.885	16942.5
470.09	17393.06
470.295	17204.64
470.5	16946.6
470.705	16934.31
470.91	16645.55
471.115	16510.38
471.32	16471.47
471.525	16502.19
471.73	16072.12
471.935	16207.28
472.139	15674.81
472.344	15732.15
472.549	15609.28
472.754	15338.94
472.959	15238.59
473.164	14693.83
473.369	14790.09
473.574	14867.91
473.778	14808.52
473.983	14878.15
474.188	14699.98
474.393	14208.47
474.598	14161.36
474.802	14169.55
475.007	14054.87
475.212	14163.41
475.417	13434.33
475.621	13514.2
475.826	13280.74
476.031	13229.54
476.235	13096.42
476.44	13186.53
476.645	13106.66
476.849	13004.26
477.054	12676.59
477.259	12731.88
477.463	12633.58
477.668	12350.96
477.872	12428.78
478.077	12252.66
478.282	11798.01
478.486	11992.56
478.691	11677.18
478.895	11664.89
479.1	11695.61
479.304	11630.07
479.509	11251.2
479.713	11662.84
479.918	11277.82
480.122	11111.94
480.326	11337.21
480.531	11175.42
480.735	11218.43
480.94	11189.76
481.144	11523.58
481.348	10937.86
481.553	10964.48
481.757	10671.62
481.961	10954.24
482.166	10905.09
482.37	10833.41
482.574	10774.02
482.778	10640.9
482.983	11017.73
483.187	10685.96
483.391	10704.39
483.595	10759.69
483.8	10694.15
484.004	10731.01
484.208	10612.23
484.412	10735.11
484.616	10913.28
484.821	10802.69
485.025	10540.55
485.229	10679.82
485.433	10597.9
485.637	10767.88
485.841	10675.72
486.045	10661.38
486.249	10792.45
486.453	10624.52
486.657	10647.05
486.861	10618.38
487.065	10497.55
487.269	10579.47
487.473	10704.39
487.677	10946.05
487.881	11202.05
488.085	10696.2
488.289	11013.63
488.493	10958.34
488.697	10843.65
488.901	10634.76
489.105	10786.31
489.309	10814.98
489.512	10827.27
489.716	10857.99
489.92	10972.68
490.124	10884.61
490.328	11283.97
490.531	10886.66
490.735	10919.43
490.939	11021.83
491.143	10784.26
491.346	10925.57
491.55	11118.08
491.754	11195.9
491.958	11329.02
492.161	11134.46
492.365	11234.82
492.569	11113.99
492.772	11232.77
492.976	11570.68
493.18	11306.49
493.383	11783.67
493.587	11654.65
493.79	11900.41
493.994	11822.58
494.197	11685.37
494.401	11984.37
494.605	11963.89
494.808	12072.43
495.012	12123.63
495.215	12219.89
495.419	12283.38
495.622	12209.65
495.825	12475.88
496.029	12316.14
496.232	12733.93
496.436	12561.9
496.639	12807.66
496.843	12803.56
497.046	13174.24
497.249	13239.78
497.453	13327.84
497.656	13424.09
497.859	13405.66
498.063	13733.34
498.266	13852.12
498.469	13964.76
498.673	14087.64
498.876	14101.97
499.079	14611.92
499.282	14329.3
499.485	14767.56
499.689	14869.96
499.892	14953.93
500.095	15103.43
500.298	15470.01
500.501	15257.03
500.705	15486.4
500.908	15650.24
501.111	15805.88
501.314	16014.77
501.517	16352.69
501.72	16616.88
501.923	16559.53
502.126	16717.23
502.329	17173.92
502.532	17294.75
502.735	17241.51
502.938	17550.75
503.141	17685.92
503.344	18027.93
503.547	17880.47
503.75	18048.41
503.953	18371.99
504.156	18566.54
504.359	19002.76
504.562	18906.51
504.765	19019.14
504.968	19606.91
505.17	19774.84
505.373	19627.39
505.576	20176.25
505.779	20079.99
505.982	20129.14
506.185	20604.27
506.387	20772.21
506.59	20962.67
506.793	21450.08
506.996	21575.01
507.198	21841.25
507.401	21841.25
507.604	22080.86
507.807	22371.67
508.009	22617.43
508.212	22699.34
508.415	22994.25
508.617	23305.54
508.82	23541.06
509.022	23377.22
509.225	23901.5
509.428	24202.55
509.63	23989.56
509.833	24372.53
510.035	24876.34
510.238	24847.66
510.44	24862
510.643	25744.67
510.845	25492.77
511.048	25546.02
511.25	25974.05
511.453	26563.86
511.655	27008.27
511.858	26680.6
512.06	26920.21
512.262	27223.31
512.465	27720.96
512.667	27505.93
512.87	28253.44
513.072	28212.48
513.274	28843.25
513.477	29218.03
513.679	29226.22
513.881	29662.44
514.084	29486.31
514.286	29842.66
514.488	29773.03
514.69	30997.71
514.893	30792.92
515.095	31302.86
515.297	31220.94
515.499	31454.41
515.701	31567.05
515.904	31933.64
516.106	32490.68
516.308	32341.18
516.51	33049.78
516.712	33004.72
516.914	33395.89
517.116	33629.35
517.318	33995.94
517.52	34374.81
517.722	34262.18
517.925	34786.46
518.127	35259.54
518.329	35112.08
518.531	35376.27
518.733	36140.16
518.935	36484.22
519.136	36338.82
519.338	36478.08
519.54	37186.68
519.742	37360.75
519.944	37264.5
520.146	37784.68
520.348	38253.67
520.55	38528.09
520.752	38462.56
520.954	39101.53
521.155	38952.02
521.357	39640.14
521.559	39756.88
521.761	40266.82
521.963	40340.55
522.164	40358.98
522.366	40365.12
522.568	41278.52
522.77	40899.64
522.971	41810.99
523.173	41348.15
523.375	42064.94
523.576	41806.89
523.778	42372.13
523.98	42673.18
524.181	42974.23
524.383	42445.86
524.584	43222.04
524.786	43363.35
524.988	43295.77
525.189	44028.94
525.391	44348.42
525.592	44284.93
525.794	44741.63
525.995	44413.96
526.197	44588.03
526.398	44721.15
526.6	45007.87
526.801	45452.28
527.003	45589.49
527.204	45804.53
527.406	45878.25
527.607	46033.9
527.808	46371.82
528.01	45270.01
528.211	45927.41
528.412	47131.61
528.614	46511.08
528.815	46650.34
529.016	47051.74
529.218	46947.29
529.419	47104.99
529.62	47303.64
529.822	47252.44
530.023	47268.83
530.224	47510.49
530.425	47594.45
530.626	47184.86
530.828	47098.84
531.029	48217.03
531.23	47694.8
531.431	47475.67
531.632	47967.18
531.833	48032.72
532.035	48098.25
532.236	48206.8
532.437	48217.03
532.638	47963.09
532.839	48294.86
533.04	48962.5
533.241	47928.27
533.442	48909.25
533.643	48331.72
533.844	48348.1
534.045	48634.82
534.246	48190.41
534.447	48327.63
534.648	48528.33
534.849	48565.19
535.05	48753.6
535.251	48518.09
535.451	48329.67
535.652	48710.6
535.853	48536.52
536.054	48776.13
536.255	48870.34
536.456	48372.68
536.657	49406.9
536.857	48341.96
537.058	48493.51
537.259	49386.43
537.46	48853.95
537.66	48462.79
537.861	48724.93
538.062	49058.75
538.263	49077.18
538.463	48446.41
538.664	48667.59
538.865	48780.23
539.065	48731.08
539.266	48251.85
539.466	49085.37
539.667	47956.94
539.868	48956.35
540.068	48645.06
540.269	48702.4
540.469	48653.25
540.67	48167.88
540.87	48516.04
541.071	48423.88
541.271	48896.96
541.472	48851.91
541.672	48253.9
541.873	48325.58
542.073	48241.61
542.274	48890.82
542.474	48440.26
542.675	48106.44
542.875	48784.32
543.075	48665.54
543.276	47754.19
543.476	48915.39
543.676	48499.65
543.877	48462.79
544.077	48296.91
544.277	47913.94
544.478	48202.7
544.678	48581.57
544.878	47971.28
545.078	48239.56
545.279	47774.67
545.479	48092.11
545.679	48436.17
545.879	48425.93
546.079	48479.17
546.28	48391.11
546.48	47938.51
546.68	48110.54
546.88	48135.12
547.08	47946.7
547.28	48214.99
547.48	47971.28
547.68	48440.26
547.88	47746
548.081	48370.63
548.281	48055.25
548.481	47961.04
548.681	48133.07
548.881	48085.96
549.081	48065.49
549.28	47784.91
549.48	48069.58
549.68	47662.04
549.88	48436.17
550.08	47832.02
550.28	47899.6
550.48	47692.75
550.68	48110.54
550.88	48112.59
551.08	47559.64
551.279	47961.04
551.479	47107.04
551.679	48036.81
551.879	47483.86
552.079	48126.92
552.278	47641.56
552.478	47698.9
552.678	47612.88
552.878	47881.17
553.077	47487.96
553.277	47274.97
553.477	48483.27
553.676	47463.38
553.876	47799.25
554.076	47166.43
554.275	47285.21
554.475	47014.88
554.674	47717.33
554.874	47510.49
555.074	47360.98
555.273	47356.89
555.473	47221.72
555.672	46722.02
555.872	47461.33
556.071	47051.74
556.271	47516.63
556.47	47119.32
556.67	46576.61
556.869	46879.71
557.068	46896.1
557.268	46709.73
557.467	46558.18
557.667	46078.96
557.866	46947.29
558.065	46980.06
558.265	46693.35
558.464	46437.35
558.663	46803.94
558.863	46142.44
559.062	46883.81
559.261	45833.2
559.461	46728.16
559.66	45847.54
559.859	45827.06
560.058	45667.31
560.258	45741.04
560.457	45622.26
560.656	45796.34
560.855	46293.99
561.054	45757.42
561.253	45218.81
561.453	45779.95
561.652	45237.24
561.851	45698.03
562.05	45392.89
562.249	44557.31
562.448	45274.1
562.647	44985.34
562.846	45136.89
563.045	45038.59
563.244	44596.23
563.443	44997.63
563.642	44516.36
563.841	44545.03
564.04	44530.69
564.239	44721.15
564.438	44471.3
564.637	44268.55
564.836	44375.05
565.035	44143.63
565.234	44329.99
565.432	43990.03
565.631	44071.95
565.83	43834.38
566.029	43664.4
566.228	43508.75
566.427	43408.4
566.625	43047.96
566.824	42865.69
567.023	43260.95
567.222	42777.63
567.42	43435.03
567.619	43213.85
567.818	43013.15
568.016	42849.31
568.215	43082.78
568.414	42759.2
568.612	42761.25
568.811	42091.56
569.01	42501.15
569.208	42060.84
569.407	42368.04
569.605	41802.8
569.804	42202.15
570.002	41794.6
570.201	42277.93
570.4	41542.7
570.598	41294.9
570.797	41364.53
570.995	41716.78
571.193	40723.52
571.392	41098.3
571.59	40995.9
571.789	41204.79
571.987	41313.33
572.186	40893.5
572.384	40787
572.582	40668.22
572.781	40662.08
572.979	40064.07
573.177	40518.72
573.376	40825.92
573.574	39720.01
573.772	40135.75
573.971	39740.49
574.169	39846.99
574.367	39378
574.565	40277.06
574.763	39421.01
574.962	39541.84
575.16	39347.28
575.358	39328.85
575.556	38564.96
575.754	39414.87
575.952	38900.83
576.151	39191.64
576.349	38618.21
576.547	38579.29
576.745	38671.45
576.943	38474.85
577.141	38567.01
577.339	38593.63
577.537	38288.48
577.735	38308.96
577.933	38126.69
578.131	38247.52
578.329	37925.99
578.527	37819.5
578.725	37940.33
578.923	37803.11
579.121	37551.21
579.319	37487.73
579.516	37774.44
579.714	37663.85
579.912	37170.29
580.11	37119.09
580.308	36996.21
580.506	37414
580.704	36627.58
580.901	36932.73
581.099	36895.86
581.297	36650.11
581.495	36420.73
581.692	37106.8
581.89	36172.93
582.088	36301.95
582.285	36332.67
582.483	36545.66
582.681	36150.4
582.878	36031.62
583.076	35304.59
583.274	35654.79
583.471	35513.48
583.669	35603.6
583.866	35536.01
584.064	35380.37
584.262	34935.96
584.459	35220.63
584.657	34784.41
584.854	35267.73
585.052	34618.52
585.249	34997.4
585.447	34841.75
585.644	34587.8
585.841	34530.46
586.039	34958.49
586.236	34106.53
586.434	34661.53
586.631	34155.68
586.828	34137.25
587.026	33883.3
587.223	33770.66
587.42	33631.4
587.618	33635.5
587.815	33479.85
588.012	33547.43
588.21	33332.4
588.407	33520.81
588.604	33086.64
588.801	32877.75
588.999	33361.07
589.196	33049.78
589.393	32810.17
589.59	32890.04
589.787	32722.1
589.984	32353.47
590.182	32177.34
590.379	32543.93
590.576	32386.24
590.773	32130.24
590.97	31724.74
591.167	32279.74
591.364	31632.58
591.561	31872.2
591.758	31876.29
591.955	31659.21
592.152	31685.83
592.349	31386.83
592.546	31415.5
592.743	31323.34
592.94	31151.31
593.137	31401.16
593.334	31143.12
593.531	30983.38
593.727	31098.06
593.924	30706.9
594.121	30690.52
594.318	30715.09
594.515	30248.16
594.712	30620.89
594.908	30446.81
595.105	30532.82
595.302	30229.73
595.499	30164.19
595.696	30455
595.892	29770.98
596.089	30342.36
596.286	29887.71
596.482	29754.6
596.679	29557.99
596.876	29646.05
597.072	29215.98
597.269	29224.17
597.466	29058.29
597.662	29037.81
597.859	29054.19
598.055	28933.36
598.252	28714.23
598.448	28749.04
598.645	28845.3
598.841	28587.25
599.038	28634.36
599.234	28620.02
599.431	28603.64
599.627	28243.2
599.824	28400.89
600.02	28003.58
600.217	28214.52
600.413	28237.05
600.609	27981.06
600.806	27772.16
601.002	28179.71
601.198	27563.27
601.395	27387.14
601.591	27434.25
601.787	27548.93
601.984	27389.19
602.18	27411.72
602.376	27399.43
602.572	26971.41
602.769	26887.44
602.965	26647.83
603.161	26881.3
603.357	26682.64
603.553	26582.29
603.75	26752.27
603.946	26144.03
604.142	26449.18
604.338	26285.34
604.534	26535.19
604.73	25994.53
604.926	25883.94
605.122	26154.27
605.318	26131.74
605.514	25763.11
605.71	25687.33
605.906	25623.84
606.102	25486.63
606.298	25838.88
606.494	25687.33
606.69	25404.71
606.886	25589.03
607.082	24864.05
607.278	25718.05
607.474	25115.95
607.67	25427.24
607.866	25230.63
608.062	25410.85
608.257	25023.79
608.453	24644.91
608.649	25056.56
608.845	24757.55
609.041	25068.84
609.236	24878.38
609.432	24644.91
609.628	24675.63
609.824	24558.9
610.019	24309.05
610.215	24722.74
610.411	24206.65
610.606	24401.21
610.802	24489.27
610.998	24266.04
611.193	24386.87
611.389	24030.52
611.584	24098.11
611.78	23903.55
611.976	24091.96
612.171	24188.22
612.367	24128.83
612.562	23907.65
612.758	23348.55
612.953	23422.28
613.149	24053.05
613.344	23500.1
613.539	23741.76
613.735	23743.81
613.93	23637.31
614.126	23498.05
614.321	23749.95
614.517	23354.69
614.712	23373.13
614.907	23164.23
615.103	23221.58
615.298	23299.4
615.493	23342.41
615.688	22777.17
615.884	23567.68
616.079	22668.62
616.274	23174.47
616.47	22654.29
616.665	22781.26
616.86	22953.29
617.055	22594.9
617.25	22562.13
617.445	23149.9
617.641	22734.16
617.836	22650.19
618.031	22365.53
618.226	22551.89
618.421	22197.59
618.616	22390.1
618.811	22115.67
619.006	22175.06
619.201	21966.17
619.396	22295.89
619.591	21691.74
619.786	21785.95
619.981	21542.24
620.176	21876.06
620.371	21464.42
620.566	21540.19
620.761	21185.9
620.956	21255.53
621.151	20936.04
621.346	21321.06
621.541	20659.57
621.735	21060.97
621.93	20575.6
622.125	20753.77
622.32	20745.58
622.515	20813.17
622.709	20696.43
622.904	20393.33
623.099	20350.32
623.294	19998.07
623.488	20245.88
623.683	20063.61
623.878	20180.34
624.072	19838.33
624.267	19613.06
624.462	19764.61
624.656	19729.79
624.851	19244.42
625.046	19455.36
625.24	18961.8
625.435	18965.9
625.629	18900.36
625.824	18771.34
626.018	18828.68
626.213	18187.67
626.407	18484.62
626.602	18511.25
626.796	18568.59
626.991	18525.58
627.185	18322.84
627.38	17692.06
627.574	18107.8
627.768	17773.98
627.963	17622.43
628.157	17087.91
628.352	17558.94
628.546	17315.23
628.74	17673.63
628.935	17393.06
629.129	17378.72
629.323	17108.39
629.517	16866.73
629.712	16704.94
629.906	16780.71
630.1	16612.78
630.294	16813.48
630.489	16367.02
630.683	16774.57
630.877	16342.45
631.071	16182.71
631.265	16373.17
631.459	16215.48
631.653	16141.75
631.848	15891.9
632.042	16084.41
632.236	16080.31
632.43	15893.94
632.624	15885.75
632.818	15570.37
633.012	15310.27
633.206	15535.55
633.4	15414.72
633.594	15193.54
633.788	15576.51
633.982	15109.57
634.176	15275.46
634.369	15060.42
634.563	14876.1
634.757	14953.93
634.951	14931.4
635.145	14650.83
635.339	14796.23
635.533	14439.89
635.726	14693.83
635.92	14450.13
636.114	14224.85
636.308	14214.61
636.501	14194.13
636.695	14306.77
636.889	14058.96
637.083	14065.11
637.276	13796.82
637.47	13723.1
637.664	13942.23
637.857	13768.15
638.051	13551.07
638.244	13411.81
638.438	13585.88
638.632	13340.13
638.825	13131.23
639.019	13254.11
639.212	13004.26
639.406	13282.78
639.599	12905.96
639.793	13217.25
639.986	12754.41
640.18	12854.76
640.373	12725.74
640.567	12555.76
640.76	12674.54
640.954	12695.02
641.147	12361.2
641.34	12430.83
641.534	12391.92
641.727	12287.47
641.92	12213.74
642.114	12146.16
642.307	12146.16
642.5	12115.44
642.694	12039.67
642.887	11847.16
643.08	11859.45
643.273	11726.33
643.467	11900.41
643.66	11597.31
643.853	11388.41
644.046	11496.96
644.239	11544.06
644.432	11390.46
644.626	11306.49
644.819	11388.41
645.012	11286.01
645.205	11060.74
645.398	11124.22
645.591	11036.16
645.784	10984.96
645.977	10948.1
646.17	10853.89
646.363	10780.17
646.556	10690.06
646.749	10696.2
646.942	10712.58
647.135	10745.35
647.328	10475.02
647.521	10681.86
647.714	10556.94
647.907	10434.06
648.099	10272.27
648.292	10223.12
648.485	10454.54
648.678	10159.63
648.871	10049.04
649.064	10042.9
649.256	10124.82
649.449	10022.42
649.642	9969.17
649.835	9809.43
650.027	9696.79
650.22	9975.31
650.413	9547.29
650.605	9799.19
650.798	9702.93
650.991	9639.45
651.183	9569.82
651.376	9483.8
651.568	9596.44
651.761	9367.07
651.954	9573.91
652.146	9311.77
652.339	9328.16
652.531	9481.75
652.724	9244.19
652.916	9117.22
653.109	9109.02
653.301	8758.82
653.494	9100.83
653.686	8877.6
653.879	9055.78
654.071	8902.18
654.263	8863.27
654.456	8934.95
654.648	8807.97
654.84	8482.35
655.033	8666.66
655.225	8588.84
655.417	8480.3
655.61	8564.26
655.802	8476.2
655.994	8515.11
656.186	8369.71
656.379	8336.94
656.571	8308.27
656.763	8078.9
656.955	8189.49
657.148	8369.71
657.34	8154.67
657.532	8089.14
657.724	7960.11
657.916	8023.6
658.108	7882.29
658.3	7966.26
658.492	8031.79
658.684	7638.58
658.876	7863.86
659.068	7904.82
659.26	7816.76
659.452	7630.39
659.644	7644.73
659.836	7460.41
660.028	7657.01
660.22	7419.45
660.412	7540.28
660.604	7292.48
660.796	7435.83
660.988	7444.03
661.18	7525.94
661.372	7194.17
661.563	7245.37
661.755	7138.88
661.947	7368.25
662.139	7312.96
662.331	7026.24
662.522	7147.07
662.714	6977.09
662.906	7128.64
663.097	7147.07
663.289	7085.63
663.481	6913.6
663.673	6841.92
663.864	6819.39
664.056	6813.25
664.247	6913.6
664.439	6770.24
664.631	6768.2
664.822	6891.07
665.014	6772.29
665.205	6653.51
665.397	6733.38
665.588	6522.44
665.78	6671.94
665.971	6729.28
666.163	6563.4
666.354	6516.3
666.546	6297.16
666.737	6489.67
666.929	6397.51
667.12	6485.58
667.311	6385.23
667.503	6379.08
667.694	6245.96
667.885	6319.69
668.077	6278.73
668.268	6250.06
668.459	6475.34
668.651	6354.51
668.842	6254.16
669.033	6186.57
669.224	6254.16
669.416	6334.03
669.607	6157.9
669.798	6207.05
669.989	6264.4
670.18	6084.17
670.371	6133.33
670.563	5992.02
670.754	6010.45
670.945	5889.62
671.136	6090.32
671.327	6127.18
671.518	5973.58
671.709	5963.34
671.9	5979.73
672.091	5891.66
672.282	5840.47
672.473	5897.81
672.664	5860.95
672.855	5893.71
673.046	5869.14
673.237	5920.34
673.428	5871.19
673.619	5779.03
673.809	5576.28
674	5805.65
674.191	5754.45
674.382	5709.4
674.573	5762.64
674.764	5770.83
674.954	5805.65
675.145	5600.85
675.336	5590.61
675.527	5561.94
675.717	5701.2
675.908	5729.88
676.099	5688.92
676.289	5660.24
676.48	5514.84
676.671	5713.49
676.861	5590.61
677.052	5619.28
677.243	5658.2
677.433	5568.09
677.624	5750.35
677.814	5512.79
678.005	5678.68
678.195	5633.62
678.386	5719.64
678.576	5590.61
678.767	5625.43
678.957	5455.45
679.148	5490.26
679.338	5582.42
679.529	5627.48
679.719	5400.15
679.909	5721.68
680.1	5566.04
680.29	5307.99
680.481	5650
680.671	5475.93
680.861	5625.43
681.052	5516.89
681.242	5475.93
681.432	5586.52
681.622	5475.93
681.813	5434.97
682.003	5553.75
682.193	5361.24
682.383	5473.88
682.573	5457.5
682.764	5355.1
682.954	5312.09
683.144	5391.96
683.334	5369.43
683.524	5525.08
683.714	5516.89
683.904	5371.48
684.094	5396.06
684.284	5230.17
684.474	5516.89
684.664	5449.3
684.854	5332.57
685.044	5377.62
685.234	5332.57
685.424	5375.58
685.614	5299.8
685.804	5314.14
685.994	5291.61
686.184	5150.3
686.374	5307.99
686.564	5240.41
686.753	5170.78
686.943	5219.93
687.133	5181.02
687.323	4927.07
687.513	5238.36
687.702	4955.74
687.892	4900.45
688.082	5133.92
688.272	5133.92
688.461	5043.81
688.651	4982.37
688.841	4882.02
689.03	4933.22
689.22	4890.21
689.41	4730.47
689.599	4869.73
689.789	4906.59
689.979	4726.37
690.168	4712.03
690.358	4763.23
690.547	4632.16
690.737	4886.11
690.926	4697.7
691.116	4535.91
691.305	4654.69
691.495	4521.57
691.684	4456.04
691.874	4619.88
692.063	4527.72
692.252	4501.09
692.442	4585.06
692.631	4456.04
692.82	4322.92
693.01	4335.21
693.199	4453.99
693.388	4367.98
693.578	4286.06
693.767	4357.74
693.956	4292.2
694.146	4269.67
694.335	4273.77
694.524	4126.32
694.713	4341.35
694.902	4124.27
695.092	4263.53
695.281	4214.38
695.47	4030.06
695.659	4083.31
695.848	4093.55
696.037	4124.27
696.226	4259.43
696.415	4159.08
696.604	3919.47
696.793	4114.03
696.982	4038.25
697.171	4099.69
697.36	4071.02
697.549	3827.31
697.738	3997.29
697.927	4048.49
698.116	4081.26
698.305	4052.59
698.494	3972.72
698.683	3978.86
698.872	4064.88
699.061	4060.78
699.25	3966.57
699.438	4054.64
699.627	3921.52
699.816	3997.29
700.005	3782.26
700.193	3870.32
700.382	4038.25
700.571	4038.25
700.76	4099.69
700.948	3825.26
701.137	3987.05
701.326	3907.18
701.514	3831.41
701.703	3880.56
701.892	3999.34
702.08	3903.09
702.269	3763.83
702.457	4038.25
702.646	3909.23
702.834	3927.66
703.023	3776.11
703.212	4032.11
703.4	3878.51
703.589	3862.13
703.777	3886.7
703.965	3823.22
704.154	4009.58
704.342	3833.46
704.531	3772.02
704.719	3903.09
704.907	3849.84
705.096	3819.12
705.284	3913.33
705.472	3886.7
705.661	3831.41
705.849	4054.64
706.037	3946.09
706.226	3878.51
706.414	3776.11
706.602	3845.74
706.79	3933.81
706.979	3733.11
707.167	3860.08
707.355	3937.9
707.543	3858.03
707.731	4083.31
707.919	3819.12
708.107	3886.7
708.296	3780.21
708.484	3827.31
708.672	3903.09
708.86	3874.42
709.048	3952.24
709.236	3946.09
709.424	3997.29
709.612	3864.18
709.8	3853.94
709.988	3917.42
710.176	4068.97
710.364	3890.8
710.551	3896.94
710.739	3935.85
710.927	3913.33
711.115	3937.9
711.303	4058.73
711.491	3989.1
711.679	3878.51
711.866	3921.52
712.054	3993.2
712.242	3862.13
712.43	4023.92
712.617	4089.45
712.805	4077.16
712.993	4009.58
713.181	3991.15
713.368	4011.63
713.556	4042.35
713.744	3925.61
713.931	4015.73
714.119	3976.81
714.306	4034.16
714.494	4062.83
714.682	3960.43
714.869	3921.52
715.057	3968.62
715.244	4050.54
715.432	3978.86
715.619	4093.55
715.807	4017.77
715.994	4077.16
716.182	4025.97
716.369	4107.88
716.556	4073.07
716.744	4066.92
716.931	4011.63
717.119	4216.43
717.306	4200.04
717.493	4068.97
717.681	4150.89
717.868	4040.3
718.055	4118.12
718.242	4212.33
718.43	4157.04
718.617	4134.51
718.804	4038.25
718.991	4095.6
719.179	4103.79
719.366	4118.12
719.553	4099.69
719.74	4132.46
719.927	4157.04
720.114	4214.38
720.301	4048.49
720.488	4079.21
720.676	4152.94
720.863	3993.2
721.05	4101.74
721.237	4138.6
721.424	4195.95
721.611	4197.99
721.798	4152.94
721.985	4122.22
722.172	4159.08
722.358	4101.74
722.545	4232.81
722.732	4109.93
722.919	4181.61
723.106	4193.9
723.293	4290.15
723.48	4103.79
723.667	4154.99
723.853	4093.55
724.04	4189.8
724.227	4320.87
724.414	4118.12
724.6	4099.69
724.787	4273.77
724.974	4359.78
725.161	4118.12
725.347	4122.22
725.534	4329.06
725.72	4257.39
725.907	4365.93
726.094	4249.19
726.28	4255.34
726.467	4163.18
726.653	4228.71
726.84	4251.24
727.027	4320.87
727.213	4154.99
727.4	4193.9
727.586	4259.43
727.773	4310.63
727.959	4222.57
728.145	4318.82
728.332	4304.49
728.518	4281.96
728.705	4177.51
728.891	4300.39
729.077	4169.32
729.264	4329.06
729.45	4318.82
729.636	4152.94
729.823	4114.03
730.009	4374.12
730.195	4071.02
730.382	4243.05
730.568	4263.53
730.754	4181.61
730.94	4308.58
731.126	4333.16
731.313	4296.3
731.499	4298.35
731.685	4333.16
731.871	4296.3
732.057	4337.26
732.243	4210.28
732.429	4318.82
732.615	4441.7
732.801	4318.82
732.987	4380.26
733.173	4144.75
733.359	4417.13
733.545	4257.39
733.731	4347.5
733.917	4298.35
734.103	4351.59
734.289	4421.22
734.475	4118.12
734.661	4241
734.847	4361.83
735.033	4241
735.219	4372.07
735.404	4292.2
735.59	4212.33
735.776	4052.59
735.962	4333.16
736.148	4296.3
736.333	4269.67
736.519	4292.2
736.705	4195.95
736.89	4210.28
737.076	4259.43
737.262	4167.28
737.447	4175.47
737.633	4073.07
737.819	4200.04
738.004	4214.38
738.19	4259.43
738.375	4236.91
738.561	4187.75
738.747	4132.46
738.932	4179.56
739.118	4214.38
739.303	4089.45
739.489	4132.46
739.674	4062.83
739.859	4064.88
740.045	4150.89
740.23	4099.69
740.416	4036.21
740.601	4050.54
740.786	4013.68
740.972	4046.44
741.157	4054.64
741.342	4015.73
741.528	4046.44
741.713	3937.9
741.898	4066.92
742.084	3929.71
742.269	3954.29
742.454	4034.16
742.639	3995.25
742.824	3841.65
743.01	4030.06
743.195	3987.05
743.38	3780.21
743.565	3796.59
743.75	3782.26
743.935	3923.57
744.12	3827.31
744.305	3821.17
744.49	3747.44
744.675	3724.91
744.86	3720.82
745.045	3792.5
745.23	3735.15
745.415	3735.15
745.6	3698.29
745.785	3534.45
745.97	3769.97
746.155	3647.09
746.34	3620.47
746.525	3632.76
746.71	3643
746.895	3643
747.079	3516.02
747.264	3534.45
747.449	3462.77
747.634	3513.97
747.819	3382.9
748.003	3446.39
748.188	3464.82
748.373	3237.5
748.557	3505.78
748.742	3444.34
748.927	3333.75
749.111	3276.41
749.296	3251.83
749.481	3231.35
749.665	3239.55
749.85	3182.2
750.034	3305.08
750.219	3171.96
750.404	3098.24
750.588	3171.96
750.773	3108.48
750.957	3153.53
751.141	3085.95
751.326	3034.75
751.51	2913.92
751.695	3081.85
751.879	3075.71
752.064	2952.83
752.248	3051.13
752.432	2913.92
752.617	2809.47
752.801	2977.41
752.985	2940.54
753.17	2911.87
753.354	2850.43
753.538	2827.9
753.722	2805.38
753.907	2651.78
754.091	2762.37
754.275	2791.04
754.459	2709.12
754.643	2608.77
754.828	2584.2
755.012	2647.68
755.196	2590.34
755.38	2526.85
755.564	2535.04
755.748	2573.96
755.932	2668.16
756.116	2576
756.3	2555.52
756.484	2489.99
756.668	2504.32
756.852	2391.69
757.036	2428.55
757.22	2356.87
757.404	2395.78
757.588	2389.64
757.772	2299.53
757.956	2377.35
758.14	2311.82
758.323	2195.08
758.507	2358.92
758.691	2305.67
758.875	2395.78
759.059	2371.21
759.242	2289.29
759.426	2205.32
759.61	2211.46
759.794	2217.61
759.977	2270.86
760.161	2322.06
760.345	2262.66
760.528	2231.94
760.712	2193.03
760.895	2166.41
761.079	2090.63
761.263	2190.99
761.446	2023.05
761.63	2113.16
761.813	2188.94
761.997	1889.93
762.18	2064.01
762.364	2133.64
762.547	1971.85
762.731	1939.09
762.914	2023.05
763.098	1990.28
763.281	2000.52
763.464	1904.27
763.648	1988.24
763.831	1990.28
764.015	2012.81
764.198	1994.38
764.381	1877.65
764.564	1959.56
764.748	1928.85
764.931	1953.42
765.114	1787.54
765.297	1922.7
765.481	1851.02
765.664	1781.39
765.847	1887.89
766.03	1875.6
766.213	1873.55
766.397	1920.65
766.58	1797.78
766.763	1824.4
766.946	1785.49
767.129	1719.95
767.312	1769.1
767.495	1832.59
767.678	1738.38
767.861	1803.92
768.044	1765.01
768.227	1691.28
768.41	1722
768.593	1808.02
768.776	1699.47
768.959	1660.56
769.142	1660.56
769.324	1703.57
769.507	1601.17
769.69	1609.36
769.873	1570.45
770.056	1740.43
770.239	1650.32
770.421	1595.03
770.604	1638.03
770.787	1629.84
770.97	1586.83
771.152	1547.92
771.335	1609.36
771.518	1603.22
771.7	1631.89
771.883	1638.03
772.066	1549.97
772.248	1547.92
772.431	1597.07
772.613	1590.93
772.796	1439.38
772.978	1451.67
773.161	1527.44
773.343	1466
773.526	1439.38
773.708	1412.76
773.891	1425.04
774.073	1429.14
774.256	1449.62
774.438	1445.52
774.621	1384.09
774.803	1334.93
774.985	1298.07
775.168	1388.18
775.35	1382.04
775.532	1349.27
775.715	1240.73
775.897	1429.14
776.079	1314.45
776.261	1369.75
776.444	1285.78
776.626	1373.85
776.808	1259.16
776.99	1226.39
777.173	1326.74
777.355	1199.77
777.537	1216.15
777.719	1265.3
777.901	1224.34
778.083	1117.85
778.265	1113.75
778.447	1275.54
778.629	1224.34
778.811	1250.97
778.993	1044.12
779.175	1191.58
779.357	1158.81
779.539	1083.03
779.721	1109.66
779.903	1148.57
780.085	1117.85
780.267	1064.6
780.449	1093.27
780.631	1207.96
780.812	1064.6
780.994	1031.83
781.176	1044.12
781.358	1042.07
781.54	986.78
781.721	994.97
781.903	968.35
782.085	972.44
782.267	1005.21
782.448	896.67
782.63	954.01
782.812	968.35
782.993	859.81
783.175	992.92
783.357	947.87
783.538	915.1
783.72	882.33
783.901	997.02
784.083	859.81
784.264	913.05
784.446	872.09
784.627	761.5
784.809	857.76
784.99	800.41
785.172	925.34
785.353	876.19
785.535	915.1
785.716	806.56
785.897	824.99
786.079	806.56
786.26	843.42
786.441	890.53
786.623	728.74
786.804	724.64
786.985	831.13
787.167	847.52
787.348	700.06
787.529	716.45
787.71	767.65
787.891	759.46
788.073	704.16
788.254	687.78
788.435	814.75
788.616	759.46
788.797	663.2
788.978	693.92
789.159	726.69
789.34	714.4
789.522	751.26
789.703	652.96
789.884	724.64
790.065	691.87
790.246	747.17
790.427	597.67
790.607	726.69
790.788	732.83
790.969	589.47
791.15	657.06
791.331	577.19
791.512	661.15
791.693	620.19
791.874	648.86
792.054	702.11
792.235	734.88
792.416	571.04
792.597	564.9
792.778	579.23
792.958	673.44
793.139	624.29
793.32	470.69
793.5	530.08
793.681	601.76
793.862	540.32
794.042	568.99
794.223	515.75
794.404	622.24
794.584	499.36
794.765	474.79
794.945	519.84
795.126	513.7
795.306	609.95
795.487	579.23
795.667	523.94
795.848	528.03
796.028	495.27
796.209	491.17
796.389	579.23
796.57	558.75
796.75	454.31
796.93	417.44
797.111	485.03
797.291	552.61
797.471	433.83
797.652	489.12
797.832	456.36
798.012	511.65
798.192	452.26
798.373	480.93
798.553	550.56
798.733	474.79
798.913	480.93
799.093	472.74
799.274	515.75
799.454	540.32
799.634	442.02
799.814	525.99
799.994	450.21
800.174	413.35
800.354	431.78
800.534	294.57
800.714	433.83
800.894	431.78
801.074	364.2
801.254	394.92
801.434	530.08
801.614	415.4
801.794	356.01
801.974	1259.16
802.154	317.09
802.334	513.7
802.514	388.77
802.693	437.92
802.873	419.49
803.053	382.63
803.233	417.44
803.413	300.71
803.592	323.24
803.772	417.44
803.952	331.43
804.131	366.25
804.311	474.79
804.491	446.12
804.67	335.53
804.85	399.01
805.03	442.02
805.209	456.36
805.389	333.48
805.568	364.2
805.748	321.19
805.928	394.92
806.107	366.25
806.287	411.3
806.466	413.35
806.646	337.57
806.825	368.29
807.004	356.01
807.184	386.72
807.363	399.01
807.543	399.01
807.722	331.43
807.901	415.4
808.081	384.68
808.26	278.18
808.439	353.96
808.619	251.56
808.798	360.1
808.977	339.62
809.156	331.43
809.336	362.15
809.515	431.78
809.694	325.29
809.873	331.43
810.052	327.33
810.231	372.39
810.411	372.39
810.59	380.58
810.769	263.85
810.948	313
811.127	212.65
811.306	235.18
811.485	282.28
811.664	269.99
811.843	364.2
812.022	302.76
812.201	294.57
812.38	278.18
812.559	376.48
812.737	276.13
812.916	167.59
813.095	251.56
813.274	349.86
813.453	231.08
813.632	362.15
813.811	313
813.989	276.13
814.168	356.01
814.347	249.51
814.526	284.33
814.704	333.48
814.883	331.43
815.062	247.46
815.24	294.57
815.419	231.08
815.598	286.37
815.776	226.98
815.955	224.94
816.133	200.36
816.312	257.7
816.49	233.13
816.669	196.26
816.847	239.27
817.026	222.89
817.204	251.56
817.383	292.52
817.561	222.89
817.74	298.66
817.918	226.98
818.097	169.64
818.275	153.26
818.453	241.32
818.632	290.47
818.81	208.55
818.988	210.6
819.167	173.74
819.345	290.47
819.523	249.51
819.701	190.12
819.879	218.79
820.058	243.37
820.236	210.6
820.414	282.28
820.592	138.92
820.77	253.61
820.948	202.41
821.127	200.36
821.305	186.02
821.483	183.98
821.661	218.79
821.839	235.18
822.017	204.46
822.195	118.44
822.373	241.32
822.551	229.03
822.729	235.18
822.907	224.94
823.085	208.55
823.262	239.27
823.44	124.58
823.618	179.88
823.796	124.58
823.974	186.02
824.152	186.02
824.329	183.98
824.507	149.16
824.685	251.56
824.863	218.79
825.04	179.88
825.218	200.36
825.396	171.69
825.574	177.83
825.751	175.78
825.929	212.65
826.107	97.96
826.284	183.98
826.462	224.94
826.639	192.17
826.817	159.4
826.994	200.36
827.172	161.45
827.349	251.56
827.527	59.05
827.704	196.26
827.882	138.92
828.059	212.65
828.237	151.21
828.414	179.88
828.591	126.63
828.769	112.3
828.946	136.87
829.124	194.22
829.301	183.98
829.478	102.06
829.655	175.78
829.833	128.68
830.01	118.44
830.187	114.34
830.364	194.22
830.542	151.21
830.719	159.4
830.896	200.36
831.073	149.16
831.25	145.06
831.427	120.49
831.604	73.39
831.782	114.34
831.959	120.49
832.136	67.24
832.313	136.87
832.49	196.26
832.667	249.51
832.844	77.48
833.021	261.8
833.198	151.21
833.374	120.49
833.551	136.87
833.728	93.87
833.905	163.5
834.082	26.28
834.259	173.74
834.436	233.13
834.612	85.67
834.789	116.39
834.966	114.34
835.143	122.54
835.319	42.67
835.496	110.25
835.673	106.15
835.85	106.15
836.026	179.88
836.203	155.3
836.38	28.33
836.556	91.82
836.733	75.43
836.909	130.73
837.086	130.73
837.262	67.24
837.439	192.17
837.616	181.93
837.792	100.01
837.968	77.48
838.145	91.82
838.321	81.58
838.498	147.11
838.674	147.11
838.851	118.44
839.027	134.82
839.203	100.01
839.38	175.78
839.556	167.59
839.732	126.63
839.909	177.83
840.085	140.97
840.261	95.91
840.437	149.16
840.614	44.71
840.79	102.06
840.966	112.3
841.142	95.91
841.318	95.91
841.494	112.3
841.671	118.44
841.847	110.25
842.023	83.63
842.199	120.49
842.375	177.83
842.551	46.76
842.727	65.19
842.903	183.98
843.079	63.15
843.255	183.98
843.431	134.82
843.607	91.82
843.783	79.53
843.959	52.91
844.134	50.86
844.31	136.87
844.486	87.72
844.662	59.05
844.838	83.63
845.013	44.71
845.189	136.87
845.365	145.06
845.541	122.54
845.716	61.1
845.892	153.26
846.068	118.44
846.244	-4.44
846.419	57
846.595	-57.68
846.77	30.38
846.946	52.91
847.122	122.54
847.297	87.72
847.473	54.95
847.648	93.87
847.824	83.63
847.999	32.43
848.175	132.78
848.35	102.06
848.526	167.59
848.701	110.25
848.876	83.63
849.052	130.73
849.227	91.82
849.403	110.25
849.578	128.68
849.753	126.63
849.929	69.29
850.104	-26.96
850.279	190.12
850.454	73.39
850.63	75.43
850.805	46.76
850.98	7.85
851.155	11.95
851.33	57
851.505	-63.83
851.681	50.86
851.856	46.76
852.031	63.15
852.206	87.72
852.381	18.09
852.556	22.19
852.731	147.11
852.906	97.96
853.081	73.39
853.256	157.35
853.431	112.3
853.606	-6.49
853.781	22.19
853.956	-20.82
854.131	77.48
854.305	75.43
854.48	-0.34
854.655	116.39
854.83	59.05
855.005	26.28
855.18	44.71
855.354	24.23
855.529	77.48
855.704	132.78
855.879	71.34
856.053	-29.01
856.228	79.53
856.403	38.57
856.577	91.82
856.752	9.9
856.926	24.23
857.101	100.01
857.276	61.1
857.45	89.77
857.625	87.72
857.799	40.62
857.974	93.87
858.148	36.52
858.323	77.48
858.497	52.91
858.672	34.47
858.846	-61.78
859.02	104.11
859.195	40.62
859.369	42.67
859.543	46.76
859.718	108.2
859.892	65.19
860.066	57
860.241	30.38
860.415	44.71
860.589	36.52
860.763	-12.63
860.938	79.53
861.112	100.01
861.286	44.71
861.46	52.91
861.634	-20.82
861.808	118.44
861.982	87.72
862.157	3.75
862.331	34.47
862.505	-6.49
862.679	3.75
862.853	-18.77
863.027	69.29
863.201	71.34
863.375	22.19
863.549	65.19
863.722	147.11
863.896	18.09
864.07	-26.96
864.244	59.05
864.418	-10.58
864.592	52.91
864.766	65.19
864.939	73.39
865.113	3.75
865.287	151.21
865.461	24.23
865.634	40.62
865.808	-26.96
865.982	7.85
866.156	50.86
866.329	-33.11
866.503	44.71
866.676	46.76
866.85	26.28
867.024	9.9
867.197	20.14
867.371	34.47
867.544	95.91
867.718	-4.44
867.891	83.63
868.065	-4.44
868.238	13.99
868.412	36.52
868.585	22.19
868.759	32.43
868.932	54.95
869.105	-0.34
869.279	22.19
869.452	-51.54
869.625	54.95
869.799	30.38
869.972	1.71
870.145	50.86
870.319	52.91
870.492	11.95
870.665	87.72
870.838	24.23
871.011	-29.01
871.185	77.48
871.358	13.99
871.531	1.71
871.704	-0.34
871.877	36.52
872.05	36.52
872.223	-45.4
872.396	63.15
872.569	22.19
872.742	61.1
872.915	63.15
873.088	-0.34
873.261	28.33
873.434	30.38
873.607	22.19
873.78	79.53
873.953	-8.53
874.126	65.19
874.299	69.29
874.471	3.75
874.644	63.15
874.817	104.11
874.99	106.15
875.163	-29.01
875.335	30.38
875.508	-49.49
875.681	83.63
875.853	7.85
876.026	48.81
876.199	54.95
876.371	-20.82
876.544	44.71
876.717	-6.49
876.889	-20.82
877.062	69.29
877.234	-53.59
877.407	-20.82
877.579	28.33
877.752	16.04
877.924	57
878.097	42.67
878.269	61.1
878.442	71.34
878.614	77.48
878.786	22.19
878.959	13.99
879.131	69.29
879.303	-47.44
879.476	89.77
879.648	67.24
879.82	9.9
879.993	85.67
880.165	-4.44
880.337	-22.87
880.509	30.38
880.681	16.04
880.854	44.71
881.026	65.19
881.198	106.15
881.37	-49.49
881.542	-20.82
881.714	-6.49
881.886	13.99
882.058	-10.58
882.23	77.48
882.402	-47.44
882.574	13.99
882.746	42.67
882.918	69.29
883.09	20.14
883.262	-37.2
883.434	30.38
883.606	-57.68
883.778	3.75
883.95	34.47
884.122	-0.34
884.293	7.85
884.465	16.04
884.637	100.01
884.809	16.04
884.98	18.09
885.152	36.52
885.324	9.9
885.496	-12.63
885.667	73.39
885.839	48.81
886.011	81.58
886.182	26.28
886.354	16.04
886.525	13.99
886.697	7.85
886.869	-59.73
887.04	54.95
887.212	54.95
887.383	112.3
887.555	11.95
887.726	-22.87
887.897	5.8
888.069	61.1
888.24	5.8
888.412	1.71
888.583	36.52
888.754	52.91
888.926	-26.96
889.097	-78.16
889.268	-8.53
889.44	48.81
889.611	-53.59
889.782	-18.77
889.953	-10.58
890.125	81.58
890.296	-2.39
890.467	-4.44
890.638	-8.53
890.809	-24.92
890.98	-4.44
891.151	24.23
891.323	89.77
891.494	34.47
891.665	-43.35
891.836	-33.11
892.007	-4.44
892.178	3.75
892.349	7.85
892.52	-4.44
892.691	28.33
892.862	-12.63
893.032	-31.06
893.203	-33.11
893.374	-0.34
893.545	46.76
893.716	-29.01
893.887	83.63
894.057	-24.92
894.228	-24.92
894.399	-29.01
894.57	93.87
894.74	-18.77
894.911	32.43
895.082	-0.34
895.253	22.19
895.423	-6.49
895.594	-8.53
895.764	52.91
895.935	-53.59
896.106	44.71
896.276	-4.44
896.447	16.04
896.617	20.14
896.788	-102.74
896.958	-90.45
897.129	40.62
897.299	-26.96
897.47	52.91
897.64	13.99
897.81	-29.01
897.981	13.99
898.151	-31.06
898.322	-10.58
898.492	22.19
898.662	71.34
898.832	30.38
899.003	18.09
899.173	48.81
899.343	-31.06
899.513	13.99
