Data from USB4F104151__81__13-06-13-679.txt Node

Date: Fri Mar 14 13:06:13 EDT 2025
User: louis
Spectrometer: USB4F10415
Trigger mode: 4
Integration Time (sec): 4.000000E-2
Scans to average: 1
Electric dark correction enabled: true
Nonlinearity correction enabled: false
Boxcar width: 0
XAxis mode: Wavelengths
Number of Pixels in Spectrum: 3648
>>>>>Begin Spectral Data<<<<<
178.204	-224.08
178.424	-224.08
178.644	-224.08
178.864	-260.95
179.084	-209.75
179.304	-0.85
179.524	-35.67
179.744	-0.85
179.964	36.01
180.184	-0.85
180.404	-0.85
180.624	25.77
180.844	-11.09
181.064	-80.72
181.283	23.72
181.503	-0.85
181.723	46.25
181.943	-123.73
182.163	62.63
182.383	-4.95
182.602	40.11
182.822	25.77
183.042	33.96
183.262	-52.05
183.482	44.2
183.701	-33.62
183.921	31.91
184.141	-7
184.361	-11.09
184.58	31.91
184.8	-35.67
185.02	-41.81
185.239	-47.96
185.459	-13.14
185.679	23.72
185.898	-0.85
186.118	44.2
186.338	31.91
186.557	-41.81
186.777	-33.62
186.997	-78.68
187.216	27.82
187.436	64.68
187.655	-17.24
187.875	-7
188.095	-41.81
188.314	58.54
188.534	17.58
188.753	44.2
188.973	48.3
189.192	11.43
189.412	-64.34
189.631	7.34
189.851	-29.52
190.07	99.5
190.29	11.43
190.509	9.39
190.729	13.48
190.948	-21.33
191.168	195.75
191.387	107.69
191.607	-58.2
191.826	-33.62
192.045	1.19
192.265	25.77
192.484	7.34
192.704	-19.29
192.923	-27.48
193.142	138.41
193.362	25.77
193.581	103.59
193.8	-2.9
194.02	99.5
194.239	23.72
194.458	23.72
194.678	52.39
194.897	-17.24
195.116	-33.62
195.335	15.53
195.555	36.01
195.774	7.34
195.993	68.78
196.212	15.53
196.432	-66.39
196.651	21.67
196.87	-23.38
197.089	101.55
197.308	56.49
197.528	33.96
197.747	-56.15
197.966	44.2
198.185	62.63
198.404	-31.57
198.623	68.78
198.842	85.16
199.062	89.26
199.281	52.39
199.5	-9.05
199.719	9.39
199.938	76.97
200.157	23.72
200.376	162.98
200.595	42.15
200.814	62.63
201.033	-43.86
201.252	25.77
201.471	44.2
201.69	50.35
201.909	-4.95
202.128	72.87
202.347	-35.67
202.566	-15.19
202.785	-62.29
203.004	7.34
203.223	66.73
203.442	-27.48
203.661	-29.52
203.879	15.53
204.098	91.31
204.317	-7
204.536	48.3
204.755	-2.9
204.974	31.91
205.193	7.34
205.411	54.44
205.63	48.3
205.849	70.83
206.068	3.24
206.287	56.49
206.505	27.82
206.724	3.24
206.943	-58.2
207.162	-15.19
207.381	-31.57
207.599	-39.76
207.818	-35.67
208.037	-54.1
208.255	-56.15
208.474	79.02
208.693	36.01
208.911	9.39
209.13	85.16
209.349	-66.39
209.567	89.26
209.786	68.78
210.005	79.02
210.223	38.06
210.442	-17.24
210.661	17.58
210.879	72.87
211.098	19.63
211.316	54.44
211.535	23.72
211.753	56.49
211.972	56.49
212.191	-78.68
212.409	-41.81
212.628	9.39
212.846	-4.95
213.065	11.43
213.283	25.77
213.502	25.77
213.72	-43.86
213.938	50.35
214.157	56.49
214.375	-4.95
214.594	11.43
214.812	33.96
215.031	-52.05
215.249	5.29
215.467	36.01
215.686	-27.48
215.904	85.16
216.122	33.96
216.341	-33.62
216.559	-0.85
216.778	46.25
216.996	13.48
217.214	-41.81
217.432	-29.52
217.651	-70.48
217.869	-2.9
218.087	21.67
218.306	-35.67
218.524	52.39
218.742	-41.81
218.96	66.73
219.179	-27.48
219.397	-13.14
219.615	40.11
219.833	5.29
220.051	-88.92
220.27	81.07
220.488	-23.38
220.706	66.73
220.924	-56.15
221.142	-45.91
221.36	-21.33
221.578	-2.9
221.796	48.3
222.015	-0.85
222.233	-0.85
222.451	56.49
222.669	-45.91
222.887	44.2
223.105	-64.34
223.323	-25.43
223.541	9.39
223.759	25.77
223.977	-19.29
224.195	58.54
224.413	50.35
224.631	-0.85
224.849	66.73
225.067	66.73
225.285	-21.33
225.503	44.2
225.721	38.06
225.939	-21.33
226.157	-2.9
226.375	103.59
226.592	-0.85
226.81	-25.43
227.028	50.35
227.246	60.59
227.464	-2.9
227.682	-15.19
227.9	5.29
228.117	-11.09
228.335	21.67
228.553	56.49
228.771	42.15
228.989	-4.95
229.206	-39.76
229.424	-90.96
229.642	-84.82
229.86	-50
230.077	19.63
230.295	56.49
230.513	-33.62
230.731	72.87
230.948	70.83
231.166	38.06
231.384	-29.52
231.601	-72.53
231.819	-52.05
232.037	25.77
232.254	-50
232.472	48.3
232.689	-11.09
232.907	-25.43
233.125	93.35
233.342	7.34
233.56	-31.57
233.777	-15.19
233.995	74.92
234.213	74.92
234.43	-41.81
234.648	-62.29
234.865	-86.87
235.083	52.39
235.3	-31.57
235.518	19.63
235.735	64.68
235.953	83.11
236.17	-2.9
236.388	42.15
236.605	17.58
236.822	1.19
237.04	64.68
237.257	7.34
237.475	-50
237.692	56.49
237.909	-25.43
238.127	-29.52
238.344	40.11
238.562	-41.81
238.779	-0.85
238.996	-129.88
239.214	-11.09
239.431	46.25
239.648	-39.76
239.865	117.93
240.083	1.19
240.3	7.34
240.517	1.19
240.735	48.3
240.952	97.45
241.169	27.82
241.386	33.96
241.603	23.72
241.821	-39.76
242.038	-2.9
242.255	-17.24
242.472	-39.76
242.689	81.07
242.907	64.68
243.124	1.19
243.341	23.72
243.558	-23.38
243.775	-25.43
243.992	-37.72
244.209	70.83
244.426	99.5
244.643	29.87
244.86	-39.76
245.078	-54.1
245.295	-41.81
245.512	72.87
245.729	-66.39
245.946	25.77
246.163	-33.62
246.38	13.48
246.597	42.15
246.814	-11.09
247.031	52.39
247.248	-29.52
247.464	72.87
247.681	-11.09
247.898	33.96
248.115	-0.85
248.332	21.67
248.549	31.91
248.766	72.87
248.983	66.73
249.2	-4.95
249.417	21.67
249.633	-19.29
249.85	7.34
250.067	-15.19
250.284	36.01
250.501	19.63
250.717	50.35
250.934	-7
251.151	31.91
251.368	-25.43
251.585	105.64
251.801	-2.9
252.018	-31.57
252.235	40.11
252.451	-82.77
252.668	-19.29
252.885	81.07
253.102	-15.19
253.318	-31.57
253.535	9.39
253.752	-2.9
253.968	-72.53
254.185	-66.39
254.401	11.43
254.618	36.01
254.835	-0.85
255.051	81.07
255.268	9.39
255.484	40.11
255.701	7.34
255.917	44.2
256.134	79.02
256.351	60.59
256.567	-41.81
256.784	-0.85
257	-13.14
257.217	122.02
257.433	76.97
257.65	-25.43
257.866	46.25
258.082	-17.24
258.299	-21.33
258.515	70.83
258.732	7.34
258.948	-31.57
259.165	5.29
259.381	-62.29
259.597	33.96
259.814	64.68
260.03	21.67
260.246	42.15
260.463	-7
260.679	36.01
260.895	-21.33
261.112	72.87
261.328	-41.81
261.544	-9.05
261.761	93.35
261.977	-103.25
262.193	-43.86
262.409	38.06
262.626	15.53
262.842	60.59
263.058	33.96
263.274	76.97
263.49	36.01
263.707	66.73
263.923	17.58
264.139	-19.29
264.355	33.96
264.571	79.02
264.787	19.63
265.004	31.91
265.22	-17.24
265.436	1.19
265.652	17.58
265.868	105.64
266.084	-62.29
266.3	-39.76
266.516	-97.11
266.732	-41.81
266.948	-13.14
267.164	-15.19
267.38	62.63
267.596	-25.43
267.812	42.15
268.028	132.26
268.244	-39.76
268.46	-0.85
268.676	-13.14
268.892	-35.67
269.108	-58.2
269.324	-45.91
269.54	-23.38
269.756	40.11
269.972	-47.96
270.188	29.87
270.403	-90.96
270.619	5.29
270.835	23.72
271.051	27.82
271.267	-78.68
271.483	-23.38
271.698	72.87
271.914	76.97
272.13	52.39
272.346	1.19
272.562	7.34
272.777	7.34
272.993	-21.33
273.209	-29.52
273.425	64.68
273.64	25.77
273.856	15.53
274.072	3.24
274.287	-25.43
274.503	27.82
274.719	-0.85
274.934	15.53
275.15	-45.91
275.366	113.83
275.581	36.01
275.797	11.43
276.012	-50
276.228	-4.95
276.444	9.39
276.659	113.83
276.875	7.34
277.09	50.35
277.306	-2.9
277.521	48.3
277.737	27.82
277.952	25.77
278.168	-11.09
278.383	15.53
278.599	15.53
278.814	146.6
279.03	23.72
279.245	136.36
279.461	-9.05
279.676	58.54
279.892	-47.96
280.107	-31.57
280.322	-33.62
280.538	52.39
280.753	-39.76
280.969	1.19
281.184	-4.95
281.399	3.24
281.615	-23.38
281.83	3.24
282.045	7.34
282.26	11.43
282.476	62.63
282.691	107.69
282.906	44.2
283.122	58.54
283.337	-52.05
283.552	36.01
283.767	-37.72
283.983	87.21
284.198	-17.24
284.413	44.2
284.628	13.48
284.843	27.82
285.058	-7
285.274	-0.85
285.489	9.39
285.704	72.87
285.919	-41.81
286.134	-43.86
286.349	-72.53
286.564	-23.38
286.779	72.87
286.995	-23.38
287.21	-82.77
287.425	-9.05
287.64	-21.33
287.855	25.77
288.07	-11.09
288.285	11.43
288.5	81.07
288.715	79.02
288.93	7.34
289.145	7.34
289.36	70.83
289.575	-31.57
289.79	-27.48
290.004	-0.85
290.219	40.11
290.434	-15.19
290.649	42.15
290.864	48.3
291.079	-62.29
291.294	-19.29
291.509	-29.52
291.724	-74.58
291.938	-62.29
292.153	33.96
292.368	-17.24
292.583	-17.24
292.798	-11.09
293.012	60.59
293.227	3.24
293.442	-47.96
293.657	87.21
293.871	-23.38
294.086	42.15
294.301	66.73
294.516	40.11
294.73	29.87
294.945	7.34
295.16	15.53
295.374	103.59
295.589	31.91
295.804	9.39
296.018	48.3
296.233	42.15
296.447	-50
296.662	-58.2
296.877	48.3
297.091	-31.57
297.306	25.77
297.52	11.43
297.735	56.49
297.949	33.96
298.164	52.39
298.378	31.91
298.593	-111.44
298.807	-41.81
299.022	-84.82
299.236	64.68
299.451	-23.38
299.665	5.29
299.88	72.87
300.094	62.63
300.309	25.77
300.523	-7
300.737	58.54
300.952	-7
301.166	-0.85
301.381	19.63
301.595	-4.95
301.809	7.34
302.024	-29.52
302.238	-7
302.452	167.08
302.667	91.31
302.881	21.67
303.095	3.24
303.309	-11.09
303.524	-33.62
303.738	-17.24
303.952	-11.09
304.166	-58.2
304.381	-80.72
304.595	56.49
304.809	36.01
305.023	31.91
305.237	5.29
305.452	13.48
305.666	3.24
305.88	60.59
306.094	109.74
306.308	25.77
306.522	33.96
306.736	38.06
306.95	1.19
307.164	25.77
307.379	7.34
307.593	50.35
307.807	79.02
308.021	-29.52
308.235	31.91
308.449	3.24
308.663	23.72
308.877	130.22
309.091	-86.87
309.305	-25.43
309.519	-47.96
309.733	72.87
309.947	-33.62
310.161	50.35
310.374	89.26
310.588	15.53
310.802	-2.9
311.016	-27.48
311.23	68.78
311.444	9.39
311.658	15.53
311.872	68.78
312.085	38.06
312.299	105.64
312.513	23.72
312.727	-17.24
312.941	36.01
313.154	15.53
313.368	7.34
313.582	-45.91
313.796	-19.29
314.009	15.53
314.223	-35.67
314.437	58.54
314.651	9.39
314.864	-7
315.078	-17.24
315.292	-148.31
315.505	-0.85
315.719	23.72
315.933	13.48
316.146	23.72
316.36	-31.57
316.573	101.55
316.787	46.25
317.001	-25.43
317.214	9.39
317.428	-33.62
317.641	-43.86
317.855	-72.53
318.068	-9.05
318.282	-2.9
318.495	58.54
318.709	27.82
318.922	11.43
319.136	113.83
319.349	15.53
319.563	40.11
319.776	19.63
319.99	-35.67
320.203	40.11
320.417	27.82
320.63	42.15
320.843	74.92
321.057	25.77
321.27	7.34
321.483	11.43
321.697	44.2
321.91	3.24
322.124	-4.95
322.337	27.82
322.55	-31.57
322.763	-17.24
322.977	25.77
323.19	-17.24
323.403	21.67
323.617	68.78
323.83	87.21
324.043	31.91
324.256	72.87
324.469	-109.4
324.683	126.12
324.896	-7
325.109	38.06
325.322	-60.24
325.535	81.07
325.748	95.4
325.962	-60.24
326.175	-41.81
326.388	9.39
326.601	27.82
326.814	70.83
327.027	-31.57
327.24	85.16
327.453	15.53
327.666	70.83
327.879	58.54
328.092	15.53
328.305	9.39
328.518	-2.9
328.731	29.87
328.944	25.77
329.157	40.11
329.37	5.29
329.583	60.59
329.796	-4.95
330.009	42.15
330.222	42.15
330.435	52.39
330.648	62.63
330.861	40.11
331.073	-37.72
331.286	3.24
331.499	109.74
331.712	56.49
331.925	25.77
332.138	17.58
332.35	19.63
332.563	-15.19
332.776	21.67
332.989	9.39
333.202	-54.1
333.414	11.43
333.627	62.63
333.84	31.91
334.053	-0.85
334.265	-17.24
334.478	-35.67
334.691	101.55
334.903	-23.38
335.116	-31.57
335.329	-66.39
335.541	40.11
335.754	11.43
335.966	21.67
336.179	-17.24
336.392	-11.09
336.604	-45.91
336.817	17.58
337.029	33.96
337.242	81.07
337.454	31.91
337.667	42.15
337.88	126.12
338.092	85.16
338.305	64.68
338.517	-13.14
338.729	7.34
338.942	38.06
339.154	-70.48
339.367	-21.33
339.579	13.48
339.792	5.29
340.004	79.02
340.217	13.48
340.429	13.48
340.641	1.19
340.854	60.59
341.066	-4.95
341.278	48.3
341.491	62.63
341.703	44.2
341.915	-60.24
342.128	52.39
342.34	-9.05
342.552	31.91
342.764	17.58
342.977	36.01
343.189	23.72
343.401	31.91
343.613	-66.39
343.826	11.43
344.038	-54.1
344.25	56.49
344.462	1.19
344.674	62.63
344.886	27.82
345.099	52.39
345.311	11.43
345.523	9.39
345.735	-29.52
345.947	60.59
346.159	83.11
346.371	11.43
346.583	21.67
346.795	117.93
347.007	-4.95
347.219	119.98
347.431	25.77
347.643	40.11
347.855	-84.82
348.067	103.59
348.279	-45.91
348.491	99.5
348.703	-7
348.915	83.11
349.127	-72.53
349.339	124.07
349.551	3.24
349.763	-29.52
349.975	68.78
350.187	83.11
350.399	5.29
350.61	31.91
350.822	38.06
351.034	-11.09
351.246	19.63
351.458	11.43
351.669	68.78
351.881	-0.85
352.093	103.59
352.305	58.54
352.517	17.58
352.728	56.49
352.94	9.39
353.152	42.15
353.363	58.54
353.575	42.15
353.787	93.35
353.999	56.49
354.21	66.73
354.422	-21.33
354.633	-23.38
354.845	17.58
355.057	105.64
355.268	-45.91
355.48	21.67
355.692	-11.09
355.903	25.77
356.115	-31.57
356.326	-39.76
356.538	105.64
356.749	144.55
356.961	54.44
357.172	52.39
357.384	-33.62
357.595	99.5
357.807	54.44
358.018	-2.9
358.23	25.77
358.441	46.25
358.653	56.49
358.864	31.91
359.075	33.96
359.287	19.63
359.498	-0.85
359.709	-21.33
359.921	56.49
360.132	-31.57
360.344	15.53
360.555	23.72
360.766	23.72
360.977	87.21
361.189	25.77
361.4	46.25
361.611	7.34
361.823	97.45
362.034	56.49
362.245	-47.96
362.456	87.21
362.667	23.72
362.879	36.01
363.09	11.43
363.301	74.92
363.512	-4.95
363.723	27.82
363.935	-66.39
364.146	-9.05
364.357	58.54
364.568	15.53
364.779	-58.2
364.99	72.87
365.201	93.35
365.412	160.94
365.623	-45.91
365.834	46.25
366.045	9.39
366.256	25.77
366.467	27.82
366.678	-23.38
366.889	44.2
367.1	23.72
367.311	-21.33
367.522	27.82
367.733	70.83
367.944	-23.38
368.155	-33.62
368.366	9.39
368.577	115.88
368.788	17.58
368.999	-39.76
369.209	54.44
369.42	109.74
369.631	134.31
369.842	3.24
370.053	-4.95
370.264	50.35
370.474	-29.52
370.685	107.69
370.896	38.06
371.107	68.78
371.317	56.49
371.528	-2.9
371.739	5.29
371.95	85.16
372.16	42.15
372.371	-76.63
372.582	25.77
372.792	111.78
373.003	130.22
373.214	-9.05
373.424	81.07
373.635	48.3
373.846	74.92
374.056	3.24
374.267	107.69
374.477	76.97
374.688	33.96
374.898	66.73
375.109	-23.38
375.319	23.72
375.53	99.5
375.74	7.34
375.951	33.96
376.161	56.49
376.372	83.11
376.582	5.29
376.793	38.06
377.003	-29.52
377.214	27.82
377.424	93.35
377.635	113.83
377.845	17.58
378.055	48.3
378.266	-15.19
378.476	33.96
378.686	64.68
378.897	50.35
379.107	105.64
379.317	33.96
379.528	44.2
379.738	89.26
379.948	-117.59
380.158	81.07
380.369	-39.76
380.579	79.02
380.789	70.83
380.999	-4.95
381.21	101.55
381.42	115.88
381.63	-56.15
381.84	-15.19
382.05	27.82
382.261	93.35
382.471	-0.85
382.681	17.58
382.891	-7
383.101	23.72
383.311	9.39
383.521	13.48
383.731	48.3
383.941	97.45
384.151	25.77
384.361	91.31
384.571	9.39
384.781	56.49
384.991	130.22
385.201	107.69
385.411	48.3
385.621	60.59
385.831	23.72
386.041	122.02
386.251	-27.48
386.461	76.97
386.671	58.54
386.881	31.91
387.091	3.24
387.301	42.15
387.511	-76.63
387.72	74.92
387.93	89.26
388.14	9.39
388.35	115.88
388.56	132.26
388.769	115.88
388.979	33.96
389.189	3.24
389.399	25.77
389.609	70.83
389.818	60.59
390.028	52.39
390.238	36.01
390.447	50.35
390.657	85.16
390.867	11.43
391.076	-9.05
391.286	79.02
391.496	9.39
391.705	74.92
391.915	122.02
392.125	11.43
392.334	5.29
392.544	95.4
392.753	95.4
392.963	66.73
393.172	-11.09
393.382	9.39
393.591	130.22
393.801	29.87
394.01	122.02
394.22	91.31
394.429	15.53
394.639	72.87
394.848	19.63
395.058	58.54
395.267	-9.05
395.477	122.02
395.686	52.39
395.895	87.21
396.105	97.45
396.314	74.92
396.524	64.68
396.733	97.45
396.942	140.46
397.152	140.46
397.361	117.93
397.57	-9.05
397.78	48.3
397.989	97.45
398.198	158.89
398.407	97.45
398.617	42.15
398.826	72.87
399.035	162.98
399.244	70.83
399.453	97.45
399.663	83.11
399.872	87.21
400.081	-45.91
400.29	107.69
400.499	52.39
400.708	146.6
400.917	83.11
401.127	154.79
401.336	54.44
401.545	175.27
401.754	136.36
401.963	103.59
402.172	91.31
402.381	185.51
402.59	99.5
402.799	111.78
403.008	103.59
403.217	107.69
403.426	144.55
403.635	81.07
403.844	132.26
404.053	146.6
404.262	101.55
404.471	201.9
404.68	115.88
404.888	146.6
405.097	68.78
405.306	117.93
405.515	111.78
405.724	134.31
405.933	187.56
406.142	173.22
406.35	197.8
406.559	138.41
406.768	117.93
406.977	189.61
407.185	220.33
407.394	296.1
407.603	42.15
407.812	214.18
408.02	242.85
408.229	261.29
408.438	212.14
408.646	185.51
408.855	203.94
409.064	310.44
409.272	177.32
409.481	251.05
409.69	283.81
409.898	238.76
410.107	294.05
410.315	273.57
410.524	249
410.733	310.44
410.941	265.38
411.15	408.74
411.358	371.88
411.567	394.4
411.775	418.98
411.984	392.36
412.192	484.52
412.401	433.32
412.609	545.95
412.818	525.47
413.026	511.14
413.234	564.39
413.443	515.23
413.651	558.24
413.86	586.91
414.068	574.63
414.276	642.21
414.485	656.54
414.693	638.11
414.901	728.22
415.11	744.61
415.318	826.53
415.526	763.04
415.734	724.13
415.943	896.16
416.151	933.02
416.359	916.64
416.567	875.68
416.776	943.26
416.984	976.03
417.192	1041.56
417.4	953.5
417.608	959.64
417.817	1135.77
418.025	1244.31
418.233	1272.98
418.441	1195.16
418.649	1309.85
418.857	1377.43
419.065	1262.74
419.273	1318.04
419.481	1453.2
419.689	1494.16
419.897	1592.47
420.105	1639.57
420.313	1649.81
420.521	1645.71
420.729	1709.2
420.937	1709.2
421.145	1809.55
421.353	1967.24
421.561	2008.2
421.769	2030.73
421.977	2169.99
422.185	2188.43
422.393	2223.24
422.601	2417.8
422.809	2389.13
423.017	2387.08
423.224	2634.88
423.432	2710.66
423.64	2630.79
423.848	2921.6
424.056	2692.23
424.263	2901.12
424.471	3036.28
424.679	3009.66
424.887	3218.55
425.094	3454.07
425.302	3429.49
425.51	3400.82
425.718	3630.2
425.925	3652.72
426.133	3652.72
426.341	3931.25
426.548	4090.99
426.756	4099.18
426.964	4230.25
427.171	4443.24
427.379	4418.66
427.586	4633.7
427.794	4793.44
428.001	5059.68
428.209	5233.75
428.417	5117.02
428.624	5461.08
428.832	5534.81
429.039	5356.63
429.247	5395.54
429.454	5872.72
429.662	6321.23
429.869	6085.71
430.076	6474.82
430.284	6100.05
430.491	6390.86
430.699	7017.54
430.906	6917.19
431.114	6841.41
431.321	7289.92
431.528	7322.68
431.736	7959.6
431.943	7953.46
432.15	8059.95
432.358	7986.22
432.565	8629.29
432.772	8322.09
432.979	9024.54
433.187	9022.5
433.394	9169.95
433.601	9694.23
433.808	9810.96
434.016	9890.84
434.223	10202.13
434.43	10560.52
434.637	10472.46
434.844	11043.84
435.052	11377.66
435.259	11332.61
435.466	11465.72
435.673	11340.8
435.88	12028.92
436.087	12680.17
436.294	12663.79
436.501	12200.94
436.708	12631.02
436.915	13065.19
437.122	13544.41
437.329	13741.02
437.537	14109.65
437.743	14414.8
437.95	14291.92
438.157	15037.38
438.364	15385.54
438.571	15209.41
438.778	15358.91
438.985	17083.3
439.192	16223.16
439.399	17116.07
439.606	16479.15
439.813	17472.42
440.02	18334.61
440.227	18252.69
440.433	18058.14
440.64	18437.01
440.847	18613.13
441.054	18856.84
441.261	20124.54
441.467	19772.28
441.674	20067.19
441.881	20773.74
442.088	20806.51
442.294	20902.76
442.501	21121.9
442.708	22102.87
442.914	22502.23
443.121	23503.68
443.328	23155.53
443.534	24478.52
443.741	24187.71
443.948	23325.51
444.154	25223.98
444.361	25211.69
444.568	25232.17
444.774	25412.39
444.981	25680.67
445.187	26542.87
445.394	27456.26
445.6	26901.26
445.807	29854.44
446.013	28449.53
446.22	29088.49
446.426	30008.03
446.633	30452.44
446.839	31584.97
447.046	30087.9
447.252	31713.99
447.459	31773.38
447.665	31630.02
447.871	33594.03
448.078	34906.77
448.284	33127.09
448.491	33911.46
448.697	34978.45
448.903	36180.61
449.11	36037.25
449.316	35289.74
449.522	35928.71
449.728	37450.35
449.935	37636.72
450.141	37128.82
450.347	38093.41
450.553	36969.08
450.76	37687.92
450.966	38777.43
451.172	38586.97
451.378	39553.62
451.584	38752.86
451.791	39699.02
451.997	39699.02
452.203	40432.19
452.409	40151.62
452.615	40264.26
452.821	38355.55
453.027	38134.37
453.233	40442.43
453.44	38859.35
453.646	39027.29
453.852	39494.22
454.058	40321.6
454.264	39127.64
454.47	39449.17
454.676	38484.58
454.882	39604.81
455.088	36899.45
455.294	37204.59
455.5	37651.05
455.705	38509.15
455.911	36604.54
456.117	35754.63
456.323	35207.83
456.529	33727.14
456.735	35187.35
456.941	33872.55
457.147	33991.33
457.352	32355
457.558	32561.85
457.764	32400.06
457.97	31703.75
458.176	31247.05
458.381	31249.1
458.587	29807.33
458.793	29735.65
458.999	28244.73
459.204	30448.35
459.41	29393.64
459.616	27484.94
459.821	27575.05
460.027	27216.65
460.233	26974.99
460.438	25416.49
460.644	25731.87
460.85	24519.48
461.055	24083.26
461.261	24216.38
461.466	22483.8
461.672	21490.53
461.878	23208.78
462.083	21637.98
462.289	21363.56
462.494	20953.96
462.7	20231.03
462.905	19561.34
463.111	20366.2
463.316	20577.14
463.522	19868.54
463.727	19934.07
463.932	19772.28
464.138	19721.09
464.343	19929.98
464.549	18983.82
464.754	19884.92
464.959	19594.11
465.165	19250.05
465.37	18670.48
465.575	18115.48
465.781	19100.55
465.986	18934.67
466.191	18144.15
466.397	17865.63
466.602	17165.22
466.807	17802.14
467.012	17732.51
467.218	17572.77
467.423	17214.37
467.628	17441.7
467.833	18170.77
468.038	17505.18
468.244	17144.74
468.449	17980.31
468.654	17175.46
468.859	16843.69
469.064	16968.62
469.269	16450.48
469.474	16405.42
469.679	16743.34
469.885	16307.12
470.09	16544.69
470.295	16559.02
470.5	15991.73
470.705	16178.1
470.91	15764.41
471.115	15721.4
471.32	16012.21
471.525	15682.49
471.73	15332.29
471.935	15363.01
472.139	14826.44
472.344	15184.83
472.549	14955.46
472.754	14715.85
472.959	14392.27
473.164	13876.18
473.369	13990.87
473.574	14519.25
473.778	14185.43
473.983	14117.84
474.188	14171.09
474.393	13571.04
474.598	13472.73
474.802	13411.29
475.007	13065.19
475.212	13364.19
475.417	12807.14
475.621	12901.35
475.826	12932.07
476.031	12751.85
476.235	12456.94
476.44	12905.45
476.645	12528.62
476.849	12559.34
477.054	12272.62
477.259	12016.63
477.463	12297.2
477.668	11815.93
477.872	11953.14
478.077	11731.96
478.282	11435
478.486	11435
478.691	11129.86
478.895	11172.86
479.1	11129.86
479.304	11092.99
479.509	10673.16
479.713	11103.23
479.918	10826.76
480.122	10376.2
480.326	10765.32
480.531	10755.08
480.735	10652.68
480.94	10609.67
481.144	10904.58
481.348	10425.36
481.553	10370.06
481.757	10206.22
481.961	10288.14
482.166	10388.49
482.37	10583.05
482.574	9952.27
482.778	10193.94
482.983	10550.28
483.187	10282
483.391	10365.96
483.595	10148.88
483.8	10365.96
484.004	10249.23
484.208	10394.64
484.412	10193.94
484.616	10132.5
484.821	10445.84
485.025	10155.02
485.229	10529.8
485.433	10208.27
485.637	10304.53
485.841	10107.92
486.045	10290.19
486.249	10349.58
486.453	10277.9
486.657	10374.16
486.861	10425.36
487.065	10073.1
487.269	10189.84
487.473	9968.66
487.677	10617.86
487.881	10361.87
488.085	10265.61
488.289	10322.96
488.493	10269.71
488.697	10310.67
488.901	10392.59
489.105	10402.83
489.309	10402.83
489.512	10499.08
489.716	10513.42
489.92	10478.6
490.124	10476.55
490.328	10607.62
490.531	10458.12
490.735	10488.84
490.939	10652.68
491.143	10578.95
491.346	10503.18
491.55	10591.24
491.754	10710.02
491.958	10722.31
492.161	10740.74
492.365	11090.95
492.569	10677.26
492.772	10787.85
492.976	11062.27
493.18	11074.56
493.383	11052.03
493.587	11213.82
493.79	11322.37
493.994	11062.27
494.197	11475.96
494.401	11475.96
494.605	11463.68
494.808	11508.73
495.012	11441.15
495.215	11660.28
495.419	11742.2
495.622	11654.14
495.825	12014.58
496.029	12006.39
496.232	12141.55
496.436	12073.97
496.639	12616.68
496.843	12309.49
497.046	12622.83
497.249	12686.31
497.453	12719.08
497.656	12811.24
497.859	12803.05
498.063	13138.91
498.266	13296.61
498.469	13011.94
498.673	13343.71
498.876	13630.43
499.079	13804.5
499.282	13693.91
499.485	14386.13
499.689	14107.6
499.892	14275.54
500.095	14425.04
500.298	14810.06
500.501	14539.72
500.705	14908.36
500.908	15180.74
501.111	15143.88
501.314	15340.48
501.517	15508.41
501.72	15791.03
501.923	15662.01
502.126	16124.85
502.329	16593.84
502.532	16337.84
502.735	16599.98
502.938	16849.83
503.141	17167.27
503.344	17032.1
503.547	17339.3
503.75	17419.17
503.953	17765.28
504.156	17949.59
504.359	17951.64
504.562	18260.88
504.765	18658.19
504.968	18711.44
505.17	18846.6
505.373	19020.68
505.576	19239.81
505.779	19481.47
505.982	19454.85
506.185	20085.62
506.387	20114.3
506.59	20222.84
506.793	20745.07
506.996	20505.46
507.198	21093.22
507.401	20849.52
507.604	21271.4
507.807	21832.54
508.009	21590.88
508.212	22055.77
508.415	22207.32
508.617	22399.83
508.82	22326.1
509.022	22643.54
509.225	23200.58
509.428	23038.8
509.63	23311.17
509.833	23681.86
510.035	23968.57
510.238	24122.17
510.44	24191.8
510.643	24730.42
510.845	24798
511.048	24744.75
511.25	25529.13
511.453	25293.61
511.655	26168.09
511.858	25801.5
512.06	26108.7
512.262	26641.17
512.465	26495.77
512.667	26901.26
512.87	27288.33
513.072	27286.28
513.274	27896.58
513.477	27867.91
513.679	28379.9
513.881	28476.15
514.084	28871.41
514.286	28900.08
514.488	28918.51
514.69	29764.32
514.893	29635.3
515.095	29795.04
515.297	30051.04
515.499	30317.28
515.701	30839.51
515.904	31357.64
516.106	31599.3
516.308	31429.32
516.51	31832.77
516.712	31939.27
516.914	32137.92
517.116	33049.27
517.318	32402.11
517.52	32903.86
517.722	32971.44
517.925	33579.69
518.127	34106.02
518.329	34192.03
518.531	33807.01
518.733	35043.99
518.935	34816.66
519.136	35062.42
519.338	35621.52
519.54	35756.68
519.742	36072.07
519.944	36319.87
520.146	36915.83
520.348	37075.57
520.55	37169.78
520.752	37026.42
520.954	37628.52
521.155	37718.64
521.357	38077.03
521.559	38148.71
521.761	39068.25
521.963	38744.67
522.164	39019.1
522.366	39127.64
522.568	39297.62
522.77	39885.39
522.971	40442.43
523.173	39471.7
523.375	40245.83
523.576	40528.45
523.778	40636.99
523.98	41083.45
524.181	41441.84
524.383	41290.29
524.584	41779.76
524.786	42041.9
524.988	41880.11
525.189	42543.65
525.391	42160.68
525.592	42701.34
525.794	43053.59
525.995	43018.78
526.197	43270.68
526.398	42850.84
526.6	43307.54
526.801	43418.13
527.003	43694.61
527.204	44208.65
527.406	44233.22
527.607	44222.98
527.808	44534.28
528.01	44110.35
528.211	44417.54
528.412	44999.16
528.614	45001.21
528.815	45142.52
529.016	45332.98
529.218	45220.34
529.419	45189.63
529.62	45210.1
529.822	45072.89
530.023	45380.09
530.224	45660.66
530.425	45498.87
530.626	45713.91
530.828	45490.68
531.029	46227.95
531.23	45887.98
531.431	45806.06
531.632	46393.83
531.833	46494.18
532.035	46334.44
532.236	46350.82
532.437	46625.25
532.638	45574.64
532.839	46627.3
533.04	46823.9
533.241	46275.05
533.442	46850.53
533.643	46684.64
533.844	46698.98
534.045	46862.82
534.246	46180.84
534.447	46717.41
534.648	46705.12
534.849	46914.01
535.05	46522.85
535.251	46592.48
535.451	46391.78
535.652	47264.22
535.853	46748.13
536.054	47147.48
536.255	47192.54
536.456	46549.48
536.657	47288.79
536.857	46897.63
537.058	46655.97
537.259	46950.88
537.46	46856.67
537.66	46594.53
537.861	46795.23
538.062	46549.48
538.263	46752.23
538.463	46989.79
538.664	46774.75
538.865	46950.88
539.065	47389.14
539.266	46455.27
539.466	47215.07
539.667	46430.69
539.868	47653.33
540.068	46404.07
540.269	47288.79
540.469	46842.34
540.67	46406.12
540.87	46832.1
541.071	46744.03
541.271	46825.95
541.472	46838.24
541.672	46420.45
541.873	46477.8
542.073	46496.23
542.274	47210.97
542.474	46805.47
542.675	46559.72
542.875	47149.53
543.075	46522.85
543.276	46336.49
543.476	47122.91
543.676	46651.87
543.877	46705.12
544.077	46780.9
544.277	46584.29
544.478	46346.73
544.678	47049.18
544.878	46475.75
545.078	47112.67
545.279	46201.32
545.479	46445.03
545.679	46934.49
545.879	46217.71
546.079	46680.55
546.28	47217.11
546.48	45922.8
546.68	46825.95
546.88	47026.65
547.08	46623.2
547.28	46748.13
547.48	46027.24
547.68	46062.06
547.88	46514.66
548.081	46737.89
548.281	46250.47
548.481	45935.09
548.681	46524.9
548.881	46031.34
549.081	46377.45
549.28	45959.66
549.48	46418.41
549.68	46119.4
549.88	46813.66
550.08	45912.56
550.28	46627.3
550.48	45967.85
550.68	46297.58
550.88	46023.15
551.08	46254.57
551.279	46207.47
551.479	45930.99
551.679	46279.14
551.879	45971.95
552.079	46246.38
552.278	45761.01
552.478	46156.27
552.678	45795.82
552.878	46131.69
553.077	45896.17
553.277	45513.2
553.477	46287.34
553.676	45720.05
553.876	45494.77
554.076	45523.44
554.275	45773.3
554.475	45285.88
554.674	45732.34
554.874	45566.45
555.074	45316.6
555.273	45634.03
555.473	45873.65
555.672	45603.31
555.872	45746.67
556.071	45359.61
556.271	45892.08
556.47	45031.93
556.67	45447.67
556.869	45414.9
557.068	45500.92
557.268	45130.23
557.467	45298.17
557.667	45187.58
557.866	44890.62
558.065	45359.61
558.265	44880.38
558.464	44857.85
558.663	45052.41
558.863	44755.46
559.062	45214.2
559.261	44517.89
559.461	45103.61
559.66	44390.92
559.859	44440.07
560.058	44063.24
560.258	44874.24
560.457	44132.87
560.656	44724.74
560.855	43987.47
561.054	44700.16
561.253	43835.92
561.453	44048.91
561.652	43962.89
561.851	44462.6
562.05	43846.16
562.249	43911.69
562.448	44063.24
562.647	43708.94
562.846	43754
563.045	43854.35
563.244	43491.86
563.443	43891.21
563.642	42873.37
563.841	43172.38
564.04	43334.17
564.239	43436.56
564.438	42897.95
564.637	43379.22
564.836	43420.18
565.035	43121.18
565.234	42641.95
565.432	42453.54
565.631	43223.58
565.83	42678.82
566.029	42625.57
566.228	42115.62
566.427	42723.87
566.625	42076.71
566.824	41828.91
567.023	42557.99
567.222	41740.85
567.42	42037.8
567.619	41615.92
567.818	41560.62
568.016	41347.64
568.215	41790
568.414	41839.15
568.612	41988.65
568.811	41241.14
569.01	41814.57
569.208	40759.87
569.407	41261.62
569.605	40718.91
569.804	40970.81
570.002	41359.92
570.201	40870.46
570.4	40589.89
570.598	40235.59
570.797	40168.01
570.995	40802.88
571.193	39907.91
571.392	40397.38
571.59	39893.58
571.789	40129.09
571.987	39414.35
572.186	40010.31
572.384	39367.25
572.582	39895.63
572.781	39854.67
572.979	39125.59
573.177	39604.81
573.376	39580.24
573.574	39264.85
573.772	39201.36
573.971	38752.86
574.169	38533.73
574.367	38773.34
574.565	39017.05
574.763	38912.6
574.962	38636.13
575.16	38470.24
575.358	38505.06
575.556	37911.14
575.754	38607.45
575.952	37626.48
576.151	38541.92
576.349	37775.98
576.547	37902.95
576.745	37919.34
576.943	37905
577.141	37227.12
577.339	37880.42
577.537	37071.48
577.735	37202.55
577.933	37225.07
578.131	37096.05
578.329	37048.95
578.527	36967.03
578.725	36946.55
578.923	36555.39
579.121	36620.92
579.319	36788.86
579.516	37065.33
579.714	36397.7
579.912	36242.05
580.11	36256.39
580.308	36194.95
580.506	36199.04
580.704	35728.01
580.901	35934.85
581.099	36403.84
581.297	35646.09
581.495	35603.08
581.692	35928.71
581.89	35476.11
582.088	36051.59
582.285	35646.09
582.483	35938.95
582.681	35439.25
582.878	34974.36
583.076	34972.31
583.274	35244.69
583.471	34478.75
583.669	34933.4
583.866	34536.09
584.064	34841.24
584.262	34030.24
584.459	34693.79
584.657	34450.08
584.854	34691.74
585.052	33520.3
585.249	34216.61
585.447	33710.76
585.644	33825.45
585.841	33899.17
586.039	34089.63
586.236	33209.01
586.434	33335.98
586.631	33692.33
586.828	33510.06
587.026	33274.54
587.223	33561.26
587.42	32971.44
587.618	32991.92
587.815	32731.83
588.012	33096.37
588.21	32803.51
588.407	32922.29
588.604	32551.61
588.801	32217.79
588.999	32258.75
589.196	32232.13
589.393	32076.48
589.59	32056
589.787	31707.85
589.984	31587.02
590.182	31617.74
590.379	31730.37
590.576	31707.85
590.773	31656.65
590.97	31437.51
591.167	31400.65
591.364	31333.07
591.561	31259.34
591.758	30896.85
591.955	30903
592.152	31261.39
592.349	30694.1
592.546	30753.49
592.743	31148.75
592.94	30542.55
593.137	30536.41
593.334	30773.97
593.531	29913.83
593.727	30261.98
593.924	30255.84
594.121	29938.4
594.318	30329.56
594.515	29661.93
594.712	30055.14
594.908	29668.07
595.105	29764.32
595.302	29584.1
595.499	29522.66
595.696	29389.55
595.892	29367.02
596.089	29283.05
596.286	29240.04
596.482	29100.78
596.679	29119.21
596.876	29113.07
597.072	29008.62
597.269	28961.52
597.466	28474.1
597.662	28545.78
597.859	28566.26
598.055	28580.6
598.252	28259.07
598.448	28300.03
598.645	27906.82
598.841	27632.39
599.038	27980.54
599.234	28154.62
599.431	27726.6
599.627	27704.07
599.824	28181.24
600.02	27491.08
600.217	27456.26
600.413	27210.51
600.609	27489.03
600.806	27468.55
601.002	27292.43
601.198	26802.96
601.395	27153.16
601.591	26819.35
601.787	26706.71
601.984	26825.49
602.18	26860.3
602.376	26561.3
602.572	26624.79
602.769	26485.53
602.965	26039.07
603.161	26546.97
603.357	25811.74
603.553	26192.67
603.75	26458.9
603.946	26166.04
604.142	26170.14
604.338	25735.97
604.534	25625.38
604.73	25510.69
604.926	25729.83
605.122	25723.68
605.318	25256.75
605.514	25422.63
605.71	25137.96
605.906	25328.42
606.102	25418.53
606.298	25412.39
606.494	24972.08
606.69	25023.28
606.886	25008.94
607.082	24595.25
607.278	24675.12
607.474	24601.4
607.67	25084.72
607.866	24417.08
608.062	24666.93
608.257	24410.93
608.453	24519.48
608.649	24621.87
608.845	24322.87
609.041	24517.43
609.236	24113.98
609.432	23962.43
609.628	24406.84
609.824	24304.44
610.019	24111.93
610.215	23931.71
610.411	24134.46
610.606	23984.96
610.802	23749.44
610.998	23763.78
611.193	23960.38
611.389	23384.9
611.584	23536.45
611.78	23350.09
611.976	23685.95
612.171	23417.67
612.367	23452.48
612.562	23460.68
612.758	22981.45
612.953	22844.24
613.149	23423.81
613.344	22870.86
613.539	23210.82
613.735	23247.69
613.93	23266.12
614.126	23100.23
614.321	23190.34
614.517	22850.38
614.712	23071.56
614.907	22868.81
615.103	23264.07
615.298	22471.51
615.493	22928.2
615.688	22471.51
615.884	23198.54
616.079	22127.45
616.274	22537.04
616.47	22702.93
616.665	22477.65
616.86	22274.9
617.055	22575.95
617.25	22258.52
617.445	22510.42
617.641	22049.63
617.836	22276.95
618.031	21560.16
618.226	22080.35
618.421	21936.99
618.616	21939.04
618.811	21556.07
619.006	22053.72
619.201	21177.19
619.396	21668.7
619.591	21209.96
619.786	21461.86
619.981	21171.05
620.176	21283.69
620.371	20945.77
620.566	21003.11
620.761	20880.24
620.956	20796.27
621.151	20605.81
621.346	20734.83
621.541	20542.32
621.735	20796.27
621.93	20407.16
622.125	20552.56
622.32	20046.71
622.515	20218.74
622.709	20009.85
622.904	19962.75
623.099	19667.84
623.294	19780.48
623.488	19489.67
623.683	19884.92
623.878	19194.76
624.072	19504
624.267	19252.1
624.462	19209.09
624.656	18838.41
624.851	19241.86
625.046	18983.82
625.24	18719.63
625.435	18525.07
625.629	18733.96
625.824	18482.06
626.018	18439.06
626.213	18054.04
626.407	18500.5
626.602	17939.35
626.796	18336.66
626.991	17818.52
627.185	17650.59
627.38	17959.83
627.574	17615.77
627.768	17507.23
627.963	17499.04
628.157	17527.71
628.352	17447.84
628.546	16982.95
628.74	17343.39
628.935	16679.85
629.129	16970.66
629.323	16657.32
629.517	16589.74
629.712	16616.37
629.906	16618.41
630.1	16438.19
630.294	16616.37
630.489	16292.79
630.683	16235.44
630.877	16090.04
631.071	16010.17
631.265	16047.03
631.459	15993.78
631.653	15694.78
631.848	15555.52
632.042	15606.72
632.236	15795.13
632.43	15330.24
632.624	15670.2
632.818	15270.85
633.012	15027.14
633.206	15313.86
633.4	15229.89
633.594	15047.62
633.788	14891.98
633.982	14898.12
634.176	14859.21
634.369	14724.04
634.563	14605.26
634.757	14562.25
634.951	14822.34
635.145	14259.15
635.339	14285.78
635.533	14214.1
635.726	14443.47
635.92	14148.56
636.114	14042.07
636.308	13896.66
636.501	13802.46
636.695	13974.49
636.889	13720.54
637.083	13550.56
637.276	13716.44
637.47	13505.5
637.664	13370.33
637.857	13468.64
638.051	13394.91
638.244	13106.15
638.438	13188.07
638.632	13057
638.825	13095.91
639.019	12983.27
639.212	12989.41
639.406	13001.7
639.599	12780.52
639.793	12755.94
639.986	12422.13
640.18	12764.14
640.373	12532.72
640.567	12438.51
640.76	12520.43
640.954	12286.96
641.147	12166.13
641.34	12237.81
641.534	11992.05
641.727	12059.63
641.92	12024.82
642.114	11795.45
642.307	11787.25
642.5	11957.24
642.694	11480.06
642.887	11695.1
643.08	11545.59
643.273	11467.77
643.467	11437.05
643.66	11435
643.853	11396.09
644.046	11187.2
644.239	11342.85
644.432	11215.87
644.626	11101.19
644.819	11054.08
645.012	11299.84
645.205	10980.36
645.398	11054.08
645.591	10757.13
645.784	10892.29
645.977	10296.33
646.17	10691.59
646.363	10667.02
646.556	10533.9
646.749	10517.51
646.942	10656.78
647.135	10300.43
647.328	10427.4
647.521	10361.87
647.714	10376.2
647.907	9993.23
648.099	9978.9
648.292	10009.62
648.485	10026
648.678	9710.61
648.871	9868.31
649.064	9862.16
649.256	9882.64
649.449	9772.05
649.642	9802.77
649.835	9630.74
650.027	9647.13
650.22	9544.73
650.413	9397.28
650.605	9393.18
650.798	9466.91
650.991	9329.69
651.183	9378.84
651.376	9225.25
651.568	9544.73
651.761	9085.98
651.954	9471
652.146	9362.46
652.339	9212.96
652.531	9071.65
652.724	8842.28
652.916	9042.98
653.109	8834.08
653.301	8983.59
653.494	8637.48
653.686	8791.08
653.879	8815.65
654.071	8700.97
654.263	8457.26
654.456	8592.42
654.648	8727.59
654.84	8404.01
655.033	8541.22
655.225	8418.35
655.417	8313.9
655.61	8455.21
655.802	8320.04
655.994	8117.29
656.186	8268.84
656.379	8174.64
656.571	8043.57
656.763	8223.79
656.955	8021.04
657.148	7926.83
657.34	8064.05
657.532	7975.98
657.724	7883.83
657.916	7869.49
658.108	7736.37
658.3	7900.21
658.492	7889.97
658.684	7568.44
658.876	7697.46
659.068	7765.04
659.26	7550.01
659.452	7509.05
659.644	7504.95
659.836	7371.83
660.028	7558.2
660.22	7234.62
660.412	7265.34
660.604	7208
660.796	7420.99
660.988	7294.01
661.18	7058.49
661.372	6984.77
661.563	7107.65
661.755	7064.64
661.947	7064.64
662.139	7150.65
662.331	6929.47
662.522	6962.24
662.714	7013.44
662.906	6880.32
663.097	6822.98
663.289	6859.84
663.481	6593.61
663.673	6724.68
663.864	6743.11
664.056	6804.55
664.247	6575.17
664.439	6644.81
664.631	6997.06
664.822	6710.34
665.014	6745.16
665.205	6497.35
665.397	6433.86
665.588	6397
665.78	6552.65
665.971	6591.56
666.163	6483.02
666.354	6421.58
666.546	6341.71
666.737	6313.03
666.929	6419.53
667.12	6308.94
667.311	6431.82
667.503	6202.44
667.694	6272.07
667.885	6073.42
668.077	6233.16
668.268	6167.63
668.459	6114.38
668.651	6151.24
668.842	6016.08
669.033	5792.85
669.224	5983.31
669.416	6216.78
669.607	5975.12
669.798	6032.46
669.989	5987.41
670.18	5778.51
670.371	5811.28
670.563	5798.99
670.754	5866.58
670.945	5776.47
671.136	5962.83
671.327	5747.79
671.518	5780.56
671.709	5727.32
671.9	5882.96
672.091	5608.53
672.282	5706.84
672.473	5629.01
672.664	5717.08
672.855	5579.86
673.046	5635.16
673.237	5626.96
673.428	5700.69
673.619	5641.3
673.809	5528.66
674	5626.96
674.191	5540.95
674.382	5561.43
674.573	5598.29
674.764	5571.67
674.954	5661.78
675.145	5397.59
675.336	5469.27
675.527	5497.94
675.717	5377.11
675.908	5426.26
676.099	5553.24
676.289	5520.47
676.48	5258.33
676.671	5282.91
676.861	5418.07
677.052	5497.94
677.243	5409.88
677.433	5348.44
677.624	5416.02
677.814	5413.98
678.005	5252.19
678.195	5319.77
678.386	5219.42
678.576	5389.4
678.767	5200.99
678.957	5391.45
679.148	5291.1
679.338	5434.46
679.529	5305.43
679.719	5262.43
679.909	5481.56
680.1	5323.87
680.29	5323.87
680.481	5358.68
680.671	5180.51
680.861	5235.8
681.052	5366.87
681.242	5307.48
681.432	5350.49
681.622	5340.25
681.813	5186.65
682.003	5289.05
682.193	5266.52
682.383	5284.95
682.573	5293.15
682.764	5203.04
682.954	5284.95
683.144	5184.6
683.334	5217.37
683.524	5170.27
683.714	5188.7
683.904	5196.89
684.094	4998.24
684.284	5012.57
684.474	5252.19
684.664	5317.72
684.854	5086.3
685.044	5078.11
685.234	4906.08
685.424	5102.68
685.614	4981.85
685.804	4947.04
685.994	5106.78
686.184	5117.02
686.374	5065.82
686.564	5008.48
686.753	4971.61
686.943	4959.33
687.133	4992.09
687.323	4807.78
687.513	4904.03
687.702	4981.85
687.892	4787.3
688.082	4944.99
688.272	4764.77
688.461	4797.54
688.651	4863.07
688.841	4580.45
689.03	4664.42
689.22	4736.1
689.41	4725.86
689.599	4570.21
689.789	4705.38
689.979	4602.98
690.168	4424.81
690.358	4392.04
690.547	4504.68
690.737	4543.59
690.926	4523.11
691.116	4414.57
691.305	4422.76
691.495	4531.3
691.684	4398.18
691.874	4383.85
692.063	4404.33
692.252	4361.32
692.442	4422.76
692.631	4281.45
692.82	4226.15
693.01	4093.04
693.199	4217.96
693.388	4177
693.578	4349.03
693.767	4164.72
693.956	4224.11
694.146	4078.7
694.335	4074.6
694.524	4054.12
694.713	4179.05
694.902	4152.43
695.092	4062.32
695.281	3910.77
695.47	3970.16
695.659	4029.55
695.848	3918.96
696.037	3984.49
696.226	4007.02
696.415	4015.21
696.604	3974.25
696.793	3980.4
696.982	3953.77
697.171	3982.45
697.36	3898.48
697.549	4015.21
697.738	3947.63
697.927	4031.6
698.116	3857.52
698.305	3871.86
698.494	3925.1
698.683	3796.08
698.872	4000.88
699.061	4064.36
699.25	3972.21
699.438	3759.22
699.627	3871.86
699.816	3910.77
700.005	3834.99
700.193	3931.25
700.382	3947.63
700.571	3886.19
700.76	3828.85
700.948	3890.29
701.137	3732.59
701.326	3724.4
701.514	3853.42
701.703	3818.61
701.892	3730.55
702.08	3982.45
702.269	3687.54
702.457	3755.12
702.646	3718.26
702.834	3687.54
703.023	3767.41
703.212	3654.77
703.4	3853.42
703.589	3783.79
703.777	3689.59
703.965	3667.06
704.154	3800.18
704.342	3824.75
704.531	3722.35
704.719	3685.49
704.907	3783.79
705.096	3873.9
705.284	3665.01
705.472	3791.98
705.661	3660.91
705.849	3890.29
706.037	3644.53
706.226	3617.91
706.414	3863.66
706.602	3830.9
706.79	3765.36
706.979	3761.27
707.167	3880.05
707.355	3914.86
707.543	3806.32
707.731	3814.51
707.919	3751.03
708.107	3710.07
708.296	3771.51
708.484	3783.79
708.672	3705.97
708.86	3890.29
709.048	3808.37
709.236	3751.03
709.424	3853.42
709.612	3800.18
709.8	3802.22
709.988	3800.18
710.176	3724.4
710.364	3767.41
710.551	3939.44
710.739	3667.06
710.927	3890.29
711.115	3826.8
711.303	3865.71
711.491	3896.43
711.679	3755.12
711.866	3871.86
712.054	3773.55
712.242	3912.81
712.43	3904.62
712.617	3734.64
712.805	3808.37
712.993	3802.22
713.181	3900.53
713.368	3865.71
713.556	3961.97
713.744	3660.91
713.931	3945.58
714.119	3896.43
714.306	3884.14
714.494	3925.1
714.682	3841.14
714.869	3855.47
715.057	3921.01
715.244	3841.14
715.432	3843.18
715.619	3845.23
715.807	4076.65
715.994	3775.6
716.182	3875.95
716.369	4082.8
716.556	4011.12
716.744	3898.48
716.931	3918.96
717.119	3939.44
717.306	3996.78
717.493	3945.58
717.681	4009.07
717.868	3878
718.055	4078.7
718.242	4041.84
718.43	3982.45
718.617	4062.32
718.804	3908.72
718.991	4064.36
719.179	4009.07
719.366	3882.1
719.553	4004.97
719.74	4019.31
719.927	3982.45
720.114	3923.05
720.301	4117.61
720.488	4076.65
720.676	4252.78
720.863	4037.74
721.05	4111.47
721.237	4011.12
721.424	4111.47
721.611	3996.78
721.798	4088.94
721.985	4199.53
722.172	4170.86
722.358	4177
722.545	4103.28
722.732	3910.77
722.919	4156.52
723.106	4275.31
723.293	4142.19
723.48	3853.42
723.667	4095.08
723.853	4119.66
724.04	4113.52
724.227	4193.39
724.414	4160.62
724.6	4111.47
724.787	4209.77
724.974	4234.35
725.161	4160.62
725.347	3976.3
725.534	4131.95
725.72	4168.81
725.907	4240.49
726.094	4179.05
726.28	4127.85
726.467	4127.85
726.653	4271.21
726.84	4170.86
727.027	4389.99
727.213	4050.03
727.4	4301.93
727.586	4324.46
727.773	4119.66
727.959	4113.52
728.145	4189.29
728.332	4326.5
728.518	4252.78
728.705	4303.98
728.891	4068.46
729.077	4236.39
729.264	4332.65
729.45	4277.35
729.636	4215.91
729.823	4205.67
730.009	4267.11
730.195	4402.28
730.382	4242.54
730.568	4215.91
730.754	4220.01
730.94	4258.92
731.126	4217.96
731.313	4166.76
731.499	4250.73
731.685	4277.35
731.871	4346.98
732.057	4189.29
732.243	4125.8
732.429	4269.16
732.615	4299.88
732.801	4213.87
732.987	4205.67
733.173	4279.4
733.359	4332.65
733.545	4281.45
733.731	4224.11
733.917	4232.3
734.103	4222.06
734.289	4324.46
734.475	4258.92
734.661	4324.46
734.847	4334.7
735.033	4340.84
735.219	4291.69
735.404	4258.92
735.59	4121.71
735.776	4246.63
735.962	4394.09
736.148	4324.46
736.333	4242.54
736.519	4222.06
736.705	4136.04
736.89	4197.48
737.076	4375.66
737.262	4170.86
737.447	4078.7
737.633	4095.08
737.819	4318.31
738.004	4271.21
738.19	4131.95
738.375	4086.89
738.561	4267.11
738.747	4162.67
738.932	4002.93
739.118	4326.5
739.303	4172.91
739.489	4056.17
739.674	4142.19
739.859	4054.12
740.045	4054.12
740.23	4125.8
740.416	4074.6
740.601	4103.28
740.786	4070.51
740.972	3972.21
741.157	4007.02
741.342	3837.04
741.528	3984.49
741.713	4017.26
741.898	4047.98
742.084	3955.82
742.269	4060.27
742.454	3980.4
742.639	3861.62
742.824	4027.5
743.01	3929.2
743.195	3914.86
743.38	3921.01
743.565	3964.01
743.75	3779.7
743.935	3822.7
744.12	3787.89
744.305	3861.62
744.49	3746.93
744.675	3736.69
744.86	3746.93
745.045	3753.07
745.23	3841.14
745.415	3734.64
745.6	3726.45
745.785	3718.26
745.97	3699.83
746.155	3599.48
746.34	3632.24
746.525	3441.78
746.71	3710.07
746.895	3370.1
747.079	3570.8
747.264	3529.84
747.449	3548.28
747.634	3509.37
747.819	3357.82
748.003	3374.2
748.188	3337.34
748.373	3402.87
748.557	3429.49
748.742	3323
748.927	3329.14
749.111	3275.9
749.296	3292.28
749.481	3189.88
749.665	3183.74
749.85	3196.03
750.034	3105.92
750.219	3089.53
750.404	3161.21
750.588	3034.24
750.773	2886.78
750.957	3071.1
751.141	2997.37
751.326	2942.08
751.51	2923.65
751.695	3046.52
751.879	2952.32
752.064	3116.16
752.248	2942.08
752.432	2983.04
752.617	3048.57
752.801	2958.46
752.985	2909.31
753.17	2841.73
753.354	2903.17
753.538	2829.44
753.722	2798.72
753.907	2690.18
754.091	2704.51
754.275	2677.89
754.459	2616.45
754.643	2669.7
754.828	2595.97
755.012	2600.07
755.196	2526.34
755.38	2630.79
755.564	2663.55
755.748	2516.1
755.932	2497.67
756.116	2575.49
756.3	2524.29
756.484	2483.33
756.668	2509.96
756.852	2425.99
757.036	2348.17
757.22	2532.48
757.404	2378.89
757.588	2423.94
757.772	2454.66
757.956	2415.75
758.14	2346.12
758.323	2296.97
758.507	2233.48
758.691	2342.02
758.875	2221.19
759.059	2376.84
759.242	2303.11
759.426	2161.8
759.61	2131.08
759.794	2241.67
759.977	2284.68
760.161	2337.93
760.345	2268.3
760.528	2184.33
760.712	2178.19
760.895	2100.36
761.079	2088.07
761.263	2086.03
761.446	2028.68
761.63	2088.07
761.813	2102.41
761.997	2129.03
762.18	1967.24
762.364	2010.25
762.547	2057.36
762.731	2088.07
762.914	2006.16
763.098	1883.28
763.281	1864.85
763.464	1932.43
763.648	1916.05
763.831	1991.82
764.015	1854.61
764.198	1987.72
764.381	1907.85
764.564	1916.05
764.748	1881.23
764.931	1975.44
765.114	1844.37
765.297	1895.57
765.481	1739.92
765.664	1772.69
765.847	1721.49
766.03	1840.27
766.213	1834.13
766.397	1694.86
766.58	1682.58
766.763	1893.52
766.946	1729.68
767.129	1764.5
767.312	1729.68
767.495	1713.3
767.678	1776.78
767.861	1758.35
768.044	1758.35
768.227	1735.82
768.41	1664.15
768.593	1694.86
768.776	1614.99
768.959	1686.67
769.142	1645.71
769.324	1670.29
769.507	1782.93
769.69	1645.71
769.873	1698.96
770.056	1774.74
770.239	1668.24
770.421	1707.15
770.604	1709.2
770.787	1567.89
770.97	1614.99
771.152	1571.99
771.335	1592.47
771.518	1543.32
771.7	1653.91
771.883	1647.76
772.066	1596.56
772.248	1477.78
772.431	1518.74
772.613	1559.7
772.796	1453.2
772.978	1557.65
773.161	1547.41
773.343	1440.92
773.526	1471.64
773.708	1406.1
773.891	1266.84
774.073	1391.77
774.256	1307.8
774.438	1428.63
774.621	1395.86
774.803	1391.77
774.985	1369.24
775.168	1537.17
775.35	1293.46
775.532	1385.62
775.715	1260.7
775.897	1330.33
776.079	1262.74
776.261	1395.86
776.444	1215.64
776.626	1268.89
776.808	1270.94
776.99	1195.16
777.173	1227.93
777.355	1272.98
777.537	1248.41
777.719	1291.41
777.901	1045.66
778.083	1150.11
778.265	1154.2
778.447	1242.26
778.629	1158.3
778.811	1103
778.993	1125.53
779.175	1174.68
779.357	1135.77
779.539	1100.95
779.721	1115.29
779.903	1105.05
780.085	1031.32
780.267	1072.28
780.449	1074.33
780.631	1121.43
780.812	1078.43
780.994	1066.14
781.176	996.51
781.358	1014.94
781.54	969.88
781.721	1012.89
781.903	976.03
782.085	955.55
782.267	1074.33
782.448	900.25
782.63	957.6
782.812	951.45
782.993	998.56
783.175	877.73
783.357	922.78
783.538	959.64
783.72	941.21
783.901	816.29
784.083	830.62
784.264	910.49
784.446	869.53
784.627	830.62
784.809	804
784.99	847.01
785.172	849.05
785.353	883.87
785.535	779.42
785.716	777.37
785.897	783.52
786.079	849.05
786.26	834.72
786.441	746.66
786.623	703.65
786.804	765.09
786.985	715.94
787.167	767.13
787.348	705.7
787.529	773.28
787.71	806.05
787.891	703.65
788.073	701.6
788.254	664.74
788.435	760.99
788.616	779.42
788.797	634.02
788.978	681.12
789.159	771.23
789.34	715.94
789.522	720.03
789.703	746.66
789.884	646.3
790.065	732.32
790.246	656.54
790.427	713.89
790.607	672.93
790.788	631.97
790.969	654.5
791.15	574.63
791.331	683.17
791.512	648.35
791.693	564.39
791.874	560.29
792.054	683.17
792.235	638.11
792.416	511.14
792.597	646.3
792.778	674.98
792.958	562.34
793.139	515.23
793.32	595.11
793.5	597.15
793.681	672.93
793.862	615.59
794.042	439.46
794.223	560.29
794.404	515.23
794.584	464.04
794.765	496.8
794.945	541.86
795.126	568.48
795.306	605.35
795.487	464.04
795.667	566.43
795.848	535.71
796.028	541.86
796.209	498.85
796.389	488.61
796.57	564.39
796.75	363.69
796.93	515.23
797.111	431.27
797.291	435.36
797.471	439.46
797.652	466.08
797.832	425.12
798.012	537.76
798.192	461.99
798.373	388.26
798.553	478.37
798.733	416.93
798.913	418.98
799.093	416.93
799.274	441.51
799.454	515.23
799.634	498.85
799.814	488.61
799.994	470.18
800.174	474.28
800.354	408.74
800.534	367.78
800.714	439.46
800.894	449.7
801.074	367.78
801.254	347.3
801.434	439.46
801.614	339.11
801.794	353.45
801.974	1232.02
802.154	429.22
802.334	441.51
802.514	326.82
802.693	300.2
802.873	386.21
803.053	400.55
803.233	449.7
803.413	416.93
803.592	351.4
803.772	310.44
803.952	355.49
804.131	261.29
804.311	302.25
804.491	361.64
804.67	324.77
804.85	255.14
805.03	400.55
805.209	392.36
805.389	265.38
805.568	328.87
805.748	400.55
805.928	375.97
806.107	421.03
806.287	384.16
806.466	384.16
806.646	312.49
806.825	220.33
807.004	287.91
807.184	318.63
807.363	375.97
807.543	310.44
807.722	306.34
807.901	375.97
808.081	285.86
808.26	302.25
808.439	226.47
808.619	369.83
808.798	322.73
808.977	337.06
809.156	351.4
809.336	281.77
809.515	277.67
809.694	306.34
809.873	304.29
810.052	279.72
810.231	304.29
810.411	318.63
810.59	373.92
810.769	277.67
810.948	351.4
811.127	230.57
811.306	271.53
811.485	249
811.664	326.82
811.843	179.37
812.022	294.05
812.201	316.58
812.38	267.43
812.559	279.72
812.737	306.34
812.916	218.28
813.095	253.09
813.274	287.91
813.453	205.99
813.632	171.18
813.811	318.63
813.989	181.42
814.168	269.48
814.347	216.23
814.526	275.62
814.704	345.25
814.883	300.2
815.062	160.94
815.24	273.57
815.419	222.38
815.598	236.71
815.776	181.42
815.955	234.66
816.133	179.37
816.312	279.72
816.49	126.12
816.669	132.26
816.847	298.15
817.026	257.19
817.204	244.9
817.383	218.28
817.561	253.09
817.74	191.66
817.918	113.83
818.097	175.27
818.275	230.57
818.453	244.9
818.632	203.94
818.81	220.33
818.988	216.23
819.167	113.83
819.345	175.27
819.523	210.09
819.701	181.42
819.879	238.76
820.058	187.56
820.236	187.56
820.414	169.13
820.592	205.99
820.77	228.52
820.948	162.98
821.127	238.76
821.305	210.09
821.483	156.84
821.661	222.38
821.839	179.37
822.017	203.94
822.195	191.66
822.373	220.33
822.551	175.27
822.729	126.12
822.907	187.56
823.085	203.94
823.262	136.36
823.44	138.41
823.618	230.57
823.796	134.31
823.974	107.69
824.152	214.18
824.329	187.56
824.507	218.28
824.685	214.18
824.863	148.65
825.04	111.78
825.218	154.79
825.396	201.9
825.574	162.98
825.751	74.92
825.929	156.84
826.107	107.69
826.284	158.89
826.462	154.79
826.639	210.09
826.817	138.41
826.994	136.36
827.172	9.39
827.349	277.67
827.527	99.5
827.704	212.14
827.882	150.7
828.059	160.94
828.237	126.12
828.414	171.18
828.591	-7
828.769	160.94
828.946	142.5
829.124	177.32
829.301	154.79
829.478	154.79
829.655	193.7
829.833	72.87
830.01	144.55
830.187	130.22
830.364	148.65
830.542	134.31
830.719	181.42
830.896	52.39
831.073	142.5
831.25	117.93
831.427	212.14
831.604	187.56
831.782	42.15
831.959	150.7
832.136	140.46
832.313	76.97
832.49	148.65
832.667	81.07
832.844	109.74
833.021	187.56
833.198	201.9
833.374	132.26
833.551	66.73
833.728	13.48
833.905	91.31
834.082	83.11
834.259	154.79
834.436	158.89
834.612	115.88
834.789	136.36
834.966	119.98
835.143	128.17
835.319	36.01
835.496	115.88
835.673	105.64
835.85	171.18
836.026	50.35
836.203	150.7
836.38	72.87
836.556	58.54
836.733	64.68
836.909	107.69
837.086	33.96
837.262	-0.85
837.439	87.21
837.616	19.63
837.792	107.69
837.968	103.59
838.145	56.49
838.321	122.02
838.498	117.93
838.674	160.94
838.851	128.17
839.027	117.93
839.203	70.83
839.38	54.44
839.556	44.2
839.732	144.55
839.909	72.87
840.085	111.78
840.261	56.49
840.437	72.87
840.614	68.78
840.79	99.5
840.966	81.07
841.142	109.74
841.318	29.87
841.494	42.15
841.671	175.27
841.847	97.45
842.023	40.11
842.199	148.65
842.375	136.36
842.551	81.07
842.727	19.63
842.903	79.02
843.079	52.39
843.255	60.59
843.431	-0.85
843.607	89.26
843.783	-11.09
843.959	5.29
844.134	85.16
844.31	171.18
844.486	29.87
844.662	7.34
844.838	31.91
845.013	17.58
845.189	70.83
845.365	25.77
845.541	74.92
845.716	83.11
845.892	54.44
846.068	25.77
846.244	58.54
846.419	17.58
846.595	48.3
846.77	95.4
846.946	105.64
847.122	68.78
847.297	-2.9
847.473	122.02
847.648	15.53
847.824	95.4
847.999	-43.86
848.175	74.92
848.35	107.69
848.526	142.5
848.701	60.59
848.876	66.73
849.052	54.44
849.227	60.59
849.403	-13.14
849.578	7.34
849.753	70.83
849.929	9.39
850.104	25.77
850.279	76.97
850.454	15.53
850.63	72.87
850.805	72.87
850.98	122.02
851.155	50.35
851.33	9.39
851.505	-7
851.681	50.35
851.856	93.35
852.031	-25.43
852.206	-0.85
852.381	-21.33
852.556	-70.48
852.731	1.19
852.906	105.64
853.081	91.31
853.256	95.4
853.431	11.43
853.606	33.96
853.781	-4.95
853.956	-45.91
854.131	17.58
854.305	-25.43
854.48	42.15
854.655	-17.24
854.83	48.3
855.005	-15.19
855.18	50.35
855.354	29.87
855.529	103.59
855.704	15.53
855.879	40.11
856.053	25.77
856.228	169.13
856.403	40.11
856.577	31.91
856.752	15.53
856.926	91.31
857.101	-29.52
857.276	68.78
857.45	74.92
857.625	58.54
857.799	40.11
857.974	-7
858.148	-4.95
858.323	81.07
858.497	74.92
858.672	-25.43
858.846	-9.05
859.02	68.78
859.195	-17.24
859.369	23.72
859.543	-37.72
859.718	25.77
859.892	54.44
860.066	62.63
860.241	-101.2
860.415	117.93
860.589	15.53
860.763	23.72
860.938	-15.19
861.112	44.2
861.286	-4.95
861.46	15.53
861.634	31.91
861.808	48.3
861.982	-7
862.157	-45.91
862.331	-25.43
862.505	-74.58
862.679	-37.72
862.853	-13.14
863.027	-68.44
863.201	111.78
863.375	3.24
863.549	17.58
863.722	-2.9
863.896	74.92
864.07	31.91
864.244	62.63
864.418	-84.82
864.592	52.39
864.766	79.02
864.939	81.07
865.113	-35.67
865.287	-4.95
865.461	-17.24
865.634	-9.05
865.808	46.25
865.982	44.2
866.156	-54.1
866.329	25.77
866.503	25.77
866.676	52.39
866.85	40.11
867.024	-45.91
867.197	19.63
867.371	76.97
867.544	13.48
867.718	-54.1
867.891	-2.9
868.065	-15.19
868.238	-27.48
868.412	81.07
868.585	19.63
868.759	48.3
868.932	-4.95
869.105	-0.85
869.279	7.34
869.452	-66.39
869.625	27.82
869.799	-25.43
869.972	-0.85
870.145	15.53
870.319	15.53
870.492	-17.24
870.665	-84.82
870.838	9.39
871.011	-76.63
871.185	-78.68
871.358	5.29
871.531	19.63
871.704	-29.52
871.877	15.53
872.05	-62.29
872.223	-70.48
872.396	31.91
872.569	9.39
872.742	-21.33
872.915	-2.9
873.088	-39.76
873.261	-35.67
873.434	9.39
873.607	9.39
873.78	15.53
873.953	-58.2
874.126	-9.05
874.299	13.48
874.471	-50
874.644	52.39
874.817	-0.85
874.99	56.49
875.163	-58.2
875.335	19.63
875.508	-31.57
875.681	56.49
875.853	27.82
876.026	54.44
876.199	-13.14
876.371	-13.14
876.544	19.63
876.717	31.91
876.889	38.06
877.062	44.2
877.234	-45.91
877.407	-37.72
877.579	15.53
877.752	-35.67
877.924	-19.29
878.097	52.39
878.269	5.29
878.442	-35.67
878.614	-37.72
878.786	-37.72
878.959	66.73
879.131	-2.9
879.303	-56.15
879.476	-54.1
879.648	31.91
879.82	36.01
879.993	-58.2
880.165	-27.48
880.337	-43.86
880.509	17.58
880.681	23.72
880.854	-25.43
881.026	-35.67
881.198	50.35
881.37	25.77
881.542	-7
881.714	-35.67
881.886	-95.06
882.058	1.19
882.23	3.24
882.402	-25.43
882.574	33.96
882.746	76.97
882.918	33.96
883.09	-50
883.262	36.01
883.434	46.25
883.606	-76.63
883.778	-9.05
883.95	58.54
884.122	-4.95
884.293	-17.24
884.465	-93.01
884.637	-19.29
884.809	-50
884.98	-4.95
885.152	-62.29
885.324	-2.9
885.496	-66.39
885.667	-19.29
885.839	-50
886.011	64.68
886.182	-45.91
886.354	72.87
886.525	-68.44
886.697	46.25
886.869	-109.4
887.04	42.15
887.212	42.15
887.383	19.63
887.555	58.54
887.726	9.39
887.897	-80.72
888.069	-7
888.24	93.35
888.412	-35.67
888.583	-31.57
888.754	-29.52
888.926	-111.44
889.097	-9.05
889.268	-58.2
889.44	7.34
889.611	-58.2
889.782	-60.24
889.953	-45.91
890.125	-0.85
890.296	-68.44
890.467	-27.48
890.638	21.67
890.809	-0.85
890.98	50.35
891.151	36.01
891.323	60.59
891.494	-31.57
891.665	-33.62
891.836	-0.85
892.007	-76.63
892.178	-39.76
892.349	27.82
892.52	-74.58
892.691	23.72
892.862	23.72
893.032	-82.77
893.203	17.58
893.374	-93.01
893.545	-7
893.716	-58.2
893.887	-21.33
894.057	19.63
894.228	-17.24
894.399	-76.63
894.57	-43.86
894.74	25.77
894.911	-33.62
895.082	44.2
895.253	-60.24
895.423	-2.9
895.594	-37.72
895.764	7.34
895.935	-60.24
896.106	64.68
896.276	-74.58
896.447	44.2
896.617	-107.35
896.788	-74.58
896.958	-2.9
897.129	-9.05
897.299	27.82
897.47	60.59
897.64	3.24
897.81	-25.43
897.981	31.91
898.151	-88.92
898.322	-23.38
898.492	50.35
898.662	-17.24
898.832	-78.68
899.003	23.72
899.173	3.24
899.343	-117.59
899.513	-82.77
