Data from USB4F104151__61__13-05-50-960.txt Node

Date: Fri Mar 14 13:05:50 EDT 2025
User: louis
Spectrometer: USB4F10415
Trigger mode: 4
Integration Time (sec): 4.000000E-2
Scans to average: 1
Electric dark correction enabled: true
Nonlinearity correction enabled: false
Boxcar width: 0
XAxis mode: Wavelengths
Number of Pixels in Spectrum: 3648
>>>>>Begin Spectral Data<<<<<
178.204	-155.13
178.424	-155.13
178.644	-155.13
178.864	-134.65
179.084	-163.33
179.304	18.94
179.524	-7.68
179.744	-19.97
179.964	43.52
180.184	10.75
180.404	47.62
180.624	-24.06
180.844	-60.93
181.064	31.23
181.283	-48.64
181.503	-81.41
181.723	90.62
181.943	94.72
182.163	129.53
182.383	-3.58
182.602	16.9
182.822	127.49
183.042	55.81
183.262	84.48
183.482	82.43
183.701	104.96
183.921	68.09
184.141	70.14
184.361	80.38
184.58	16.9
184.8	55.81
185.02	53.76
185.239	107.01
185.459	37.38
185.679	92.67
185.898	-56.83
186.118	86.53
186.338	61.95
186.557	53.76
186.777	37.38
186.997	78.33
187.216	-11.78
187.436	78.33
187.655	121.34
187.875	66.05
188.095	61.95
188.314	57.86
188.534	160.25
188.753	45.57
188.973	123.39
189.192	152.06
189.412	29.18
189.631	20.99
189.851	27.14
190.07	129.53
190.29	43.52
190.509	90.62
190.729	-17.92
190.948	133.63
191.168	219.64
191.387	68.09
191.607	-26.11
191.826	123.39
192.045	64
192.265	102.91
192.484	53.76
192.704	70.14
192.923	-19.97
193.142	195.07
193.362	49.66
193.581	209.4
193.8	39.42
194.02	162.3
194.239	98.81
194.458	82.43
194.678	20.99
194.897	53.76
195.116	88.57
195.335	4.61
195.555	127.49
195.774	55.81
195.993	111.1
196.212	59.9
196.432	47.62
196.651	80.38
196.87	0.51
197.089	133.63
197.308	98.81
197.528	96.77
197.747	-32.26
197.966	27.14
198.185	119.29
198.404	82.43
198.623	90.62
198.842	98.81
199.062	158.21
199.281	90.62
199.5	82.43
199.719	104.96
199.938	61.95
200.157	156.16
200.376	127.49
200.595	74.24
200.814	47.62
201.033	59.9
201.252	80.38
201.471	90.62
201.69	152.06
201.909	131.58
202.128	182.78
202.347	-7.68
202.566	25.09
202.785	33.28
203.004	-19.97
203.223	180.73
203.442	66.05
203.661	37.38
203.879	127.49
204.098	111.1
204.317	31.23
204.536	94.72
204.755	23.04
204.974	84.48
205.193	90.62
205.411	90.62
205.63	49.66
205.849	49.66
206.068	111.1
206.287	29.18
206.505	156.16
206.724	64
206.943	25.09
207.162	74.24
207.381	37.38
207.599	162.3
207.818	129.53
208.037	27.14
208.255	90.62
208.474	154.11
208.693	6.66
208.911	102.91
209.13	4.61
209.349	14.85
209.567	78.33
209.786	102.91
210.005	57.86
210.223	72.19
210.442	-19.97
210.661	43.52
210.879	31.23
211.098	160.25
211.316	92.67
211.535	88.57
211.753	74.24
211.972	98.81
212.191	57.86
212.409	57.86
212.628	147.97
212.846	16.9
213.065	164.35
213.283	109.05
213.502	113.15
213.72	117.25
213.938	55.81
214.157	68.09
214.375	4.61
214.594	57.86
214.812	125.44
215.031	96.77
215.249	20.99
215.467	-15.87
215.686	70.14
215.904	39.42
216.122	29.18
216.341	135.68
216.559	84.48
216.778	94.72
216.996	127.49
217.214	57.86
217.432	100.86
217.651	-5.63
217.869	64
218.087	80.38
218.306	68.09
218.524	156.16
218.742	55.81
218.96	55.81
219.179	139.77
219.397	78.33
219.615	178.69
219.833	102.91
220.051	29.18
220.27	57.86
220.488	131.58
220.706	139.77
220.924	18.94
221.142	119.29
221.36	74.24
221.578	29.18
221.796	86.53
222.015	53.76
222.233	98.81
222.451	109.05
222.669	25.09
222.887	88.57
223.105	29.18
223.323	-32.26
223.541	82.43
223.759	51.71
223.977	109.05
224.195	51.71
224.413	127.49
224.631	150.01
224.849	139.77
225.067	121.34
225.285	-7.68
225.503	72.19
225.721	29.18
225.939	49.66
226.157	82.43
226.375	170.49
226.592	20.99
226.81	102.91
227.028	117.25
227.246	127.49
227.464	111.1
227.682	133.63
227.9	111.1
228.117	80.38
228.335	20.99
228.553	129.53
228.771	45.57
228.989	61.95
229.206	102.91
229.424	72.19
229.642	4.61
229.86	29.18
230.077	98.81
230.295	4.61
230.513	119.29
230.731	160.25
230.948	113.15
231.166	80.38
231.384	4.61
231.601	57.86
231.819	168.45
232.037	20.99
232.254	4.61
232.472	49.66
232.689	66.05
232.907	147.97
233.125	37.38
233.342	147.97
233.56	41.47
233.777	100.86
233.995	66.05
234.213	121.34
234.43	147.97
234.648	59.9
234.865	45.57
235.083	102.91
235.3	90.62
235.518	70.14
235.735	131.58
235.953	137.73
236.17	55.81
236.388	76.29
236.605	57.86
236.822	113.15
237.04	64
237.257	49.66
237.475	123.39
237.692	31.23
237.909	129.53
238.127	131.58
238.344	72.19
238.562	100.86
238.779	43.52
238.996	31.23
239.214	86.53
239.431	61.95
239.648	68.09
239.865	76.29
240.083	96.77
240.3	57.86
240.517	16.9
240.735	31.23
240.952	57.86
241.169	127.49
241.386	76.29
241.603	80.38
241.821	-15.87
242.038	150.01
242.255	78.33
242.472	45.57
242.689	127.49
242.907	143.87
243.124	70.14
243.341	111.1
243.558	76.29
243.775	51.71
243.992	16.9
244.209	104.96
244.426	193.02
244.643	45.57
244.86	55.81
245.078	90.62
245.295	92.67
245.512	123.39
245.729	47.62
245.946	119.29
246.163	16.9
246.38	59.9
246.597	119.29
246.814	-7.68
247.031	80.38
247.248	117.25
247.464	55.81
247.681	39.42
247.898	70.14
248.115	129.53
248.332	47.62
248.549	96.77
248.766	107.01
248.983	121.34
249.2	43.52
249.417	121.34
249.633	96.77
249.85	90.62
250.067	104.96
250.284	66.05
250.501	107.01
250.717	156.16
250.934	-3.58
251.151	82.43
251.368	94.72
251.585	127.49
251.801	37.38
252.018	37.38
252.235	10.75
252.451	72.19
252.668	51.71
252.885	154.11
253.102	137.73
253.318	45.57
253.535	31.23
253.752	82.43
253.968	61.95
254.185	55.81
254.401	74.24
254.618	111.1
254.835	64
255.051	115.2
255.268	131.58
255.484	78.33
255.701	102.91
255.917	111.1
256.134	111.1
256.351	96.77
256.567	31.23
256.784	43.52
257	111.1
257.217	68.09
257.433	82.43
257.65	127.49
257.866	53.76
258.082	94.72
258.299	6.66
258.515	131.58
258.732	55.81
258.948	45.57
259.165	121.34
259.381	70.14
259.597	84.48
259.814	96.77
260.03	92.67
260.246	14.85
260.463	104.96
260.679	102.91
260.895	133.63
261.112	127.49
261.328	78.33
261.544	80.38
261.761	215.55
261.977	86.53
262.193	47.62
262.409	102.91
262.626	86.53
262.842	70.14
263.058	66.05
263.274	39.42
263.49	98.81
263.707	117.25
263.923	90.62
264.139	39.42
264.355	96.77
264.571	100.86
264.787	68.09
265.004	96.77
265.22	125.44
265.436	35.33
265.652	4.61
265.868	53.76
266.084	27.14
266.3	29.18
266.516	-15.87
266.732	102.91
266.948	45.57
267.164	76.29
267.38	119.29
267.596	72.19
267.812	143.87
268.028	68.09
268.244	29.18
268.46	111.1
268.676	90.62
268.892	92.67
269.108	-1.54
269.324	51.71
269.54	102.91
269.756	74.24
269.972	80.38
270.188	68.09
270.403	135.68
270.619	107.01
270.835	76.29
271.051	82.43
271.267	90.62
271.483	178.69
271.698	84.48
271.914	76.29
272.13	86.53
272.346	47.62
272.562	33.28
272.777	76.29
272.993	37.38
273.209	-22.02
273.425	88.57
273.64	6.66
273.856	127.49
274.072	20.99
274.287	47.62
274.503	61.95
274.719	88.57
274.934	61.95
275.15	53.76
275.366	100.86
275.581	33.28
275.797	33.28
276.012	53.76
276.228	111.1
276.444	39.42
276.659	74.24
276.875	2.56
277.09	90.62
277.306	82.43
277.521	154.11
277.737	53.76
277.952	182.78
278.168	127.49
278.383	86.53
278.599	45.57
278.814	168.45
279.03	23.04
279.245	86.53
279.461	86.53
279.676	147.97
279.892	4.61
280.107	102.91
280.322	53.76
280.538	70.14
280.753	96.77
280.969	135.68
281.184	49.66
281.399	158.21
281.615	82.43
281.83	115.2
282.045	18.94
282.26	35.33
282.476	139.77
282.691	55.81
282.906	123.39
283.122	55.81
283.337	55.81
283.552	100.86
283.767	90.62
283.983	117.25
284.198	53.76
284.413	168.45
284.628	43.52
284.843	76.29
285.058	27.14
285.274	94.72
285.489	31.23
285.704	113.15
285.919	37.38
286.134	102.91
286.349	31.23
286.564	37.38
286.779	123.39
286.995	74.24
287.21	10.75
287.425	104.96
287.64	111.1
287.855	141.82
288.07	-3.58
288.285	72.19
288.5	125.44
288.715	90.62
288.93	-9.73
289.145	31.23
289.36	170.49
289.575	33.28
289.79	76.29
290.004	78.33
290.219	111.1
290.434	41.47
290.649	70.14
290.864	27.14
291.079	72.19
291.294	86.53
291.509	104.96
291.724	12.8
291.938	39.42
292.153	152.06
292.368	68.09
292.583	94.72
292.798	96.77
293.012	86.53
293.227	66.05
293.442	102.91
293.657	43.52
293.871	102.91
294.086	80.38
294.301	143.87
294.516	61.95
294.73	88.57
294.945	14.85
295.16	23.04
295.374	94.72
295.589	233.98
295.804	4.61
296.018	109.05
296.233	98.81
296.447	84.48
296.662	8.7
296.877	98.81
297.091	45.57
297.306	121.34
297.52	84.48
297.735	125.44
297.949	137.73
298.164	70.14
298.378	74.24
298.593	33.28
298.807	25.09
299.022	82.43
299.236	125.44
299.451	68.09
299.665	109.05
299.88	80.38
300.094	57.86
300.309	168.45
300.523	78.33
300.737	113.15
300.952	102.91
301.166	45.57
301.381	31.23
301.595	20.99
301.809	127.49
302.024	57.86
302.238	84.48
302.452	143.87
302.667	107.01
302.881	125.44
303.095	94.72
303.309	156.16
303.524	31.23
303.738	96.77
303.952	29.18
304.166	80.38
304.381	-1.54
304.595	139.77
304.809	31.23
305.023	49.66
305.237	33.28
305.452	23.04
305.666	168.45
305.88	119.29
306.094	100.86
306.308	129.53
306.522	129.53
306.736	45.57
306.95	49.66
307.164	66.05
307.379	64
307.593	129.53
307.807	123.39
308.021	150.01
308.235	72.19
308.449	59.9
308.663	117.25
308.877	166.4
309.091	158.21
309.305	94.72
309.519	-9.73
309.733	68.09
309.947	39.42
310.161	119.29
310.374	70.14
310.588	193.02
310.802	16.9
311.016	55.81
311.23	111.1
311.444	35.33
311.658	107.01
311.872	188.93
312.085	137.73
312.299	90.62
312.513	111.1
312.727	39.42
312.941	2.56
313.154	190.97
313.368	125.44
313.582	86.53
313.796	66.05
314.009	47.62
314.223	213.5
314.437	152.06
314.651	115.2
314.864	-11.78
315.078	53.76
315.292	-11.78
315.505	45.57
315.719	61.95
315.933	96.77
316.146	70.14
316.36	92.67
316.573	111.1
316.787	102.91
317.001	111.1
317.214	94.72
317.428	113.15
317.641	51.71
317.855	94.72
318.068	-13.82
318.282	131.58
318.495	141.82
318.709	115.2
318.922	78.33
319.136	133.63
319.349	164.35
319.563	78.33
319.776	129.53
319.99	47.62
320.203	92.67
320.417	74.24
320.63	135.68
320.843	127.49
321.057	145.92
321.27	70.14
321.483	113.15
321.697	160.25
321.91	125.44
322.124	111.1
322.337	61.95
322.55	57.86
322.763	104.96
322.977	25.09
323.19	82.43
323.403	139.77
323.617	39.42
323.83	127.49
324.043	55.81
324.256	141.82
324.469	59.9
324.683	125.44
324.896	72.19
325.109	96.77
325.322	29.18
325.535	172.54
325.748	166.4
325.962	45.57
326.175	141.82
326.388	92.67
326.601	33.28
326.814	104.96
327.027	82.43
327.24	178.69
327.453	-19.97
327.666	137.73
327.879	141.82
328.092	57.86
328.305	133.63
328.518	51.71
328.731	113.15
328.944	80.38
329.157	104.96
329.37	94.72
329.583	127.49
329.796	113.15
330.009	14.85
330.222	94.72
330.435	70.14
330.648	98.81
330.861	102.91
331.073	86.53
331.286	160.25
331.499	92.67
331.712	78.33
331.925	61.95
332.138	68.09
332.35	104.96
332.563	64
332.776	121.34
332.989	47.62
333.202	45.57
333.414	119.29
333.627	18.94
333.84	55.81
334.053	205.31
334.265	61.95
334.478	70.14
334.691	143.87
334.903	61.95
335.116	-1.54
335.329	102.91
335.541	137.73
335.754	12.8
335.966	94.72
336.179	70.14
336.392	76.29
336.604	82.43
336.817	68.09
337.029	41.47
337.242	68.09
337.454	133.63
337.667	57.86
337.88	162.3
338.092	121.34
338.305	70.14
338.517	37.38
338.729	98.81
338.942	170.49
339.154	23.04
339.367	-19.97
339.579	104.96
339.792	84.48
340.004	86.53
340.217	123.39
340.429	47.62
340.641	31.23
340.854	-30.21
341.066	74.24
341.278	109.05
341.491	217.6
341.703	74.24
341.915	23.04
342.128	61.95
342.34	78.33
342.552	49.66
342.764	74.24
342.977	119.29
343.189	104.96
343.401	33.28
343.613	35.33
343.826	14.85
344.038	31.23
344.25	80.38
344.462	68.09
344.674	94.72
344.886	41.47
345.099	35.33
345.311	160.25
345.523	31.23
345.735	47.62
345.947	96.77
346.159	80.38
346.371	70.14
346.583	86.53
346.795	135.68
347.007	86.53
347.219	104.96
347.431	14.85
347.643	94.72
347.855	64
348.067	111.1
348.279	53.76
348.491	143.87
348.703	143.87
348.915	139.77
349.127	16.9
349.339	43.52
349.551	145.92
349.763	123.39
349.975	98.81
350.187	82.43
350.399	133.63
350.61	137.73
350.822	104.96
351.034	90.62
351.246	104.96
351.458	12.8
351.669	88.57
351.881	86.53
352.093	139.77
352.305	119.29
352.517	119.29
352.728	152.06
352.94	111.1
353.152	74.24
353.363	10.75
353.575	33.28
353.787	104.96
353.999	55.81
354.21	119.29
354.422	70.14
354.633	133.63
354.845	143.87
355.057	86.53
355.268	131.58
355.48	82.43
355.692	80.38
355.903	127.49
356.115	131.58
356.326	57.86
356.538	176.64
356.749	168.45
356.961	137.73
357.172	102.91
357.384	66.05
357.595	178.69
357.807	31.23
358.018	-48.64
358.23	55.81
358.441	152.06
358.653	70.14
358.864	59.9
359.075	68.09
359.287	115.2
359.498	203.26
359.709	186.88
359.921	43.52
360.132	68.09
360.344	139.77
360.555	94.72
360.766	53.76
360.977	45.57
361.189	166.4
361.4	29.18
361.611	61.95
361.823	182.78
362.034	80.38
362.245	12.8
362.456	94.72
362.667	70.14
362.879	76.29
363.09	127.49
363.301	119.29
363.512	107.01
363.723	64
363.935	61.95
364.146	94.72
364.357	64
364.568	133.63
364.779	92.67
364.99	154.11
365.201	135.68
365.412	94.72
365.623	-17.92
365.834	115.2
366.045	96.77
366.256	160.25
366.467	115.2
366.678	78.33
366.889	55.81
367.1	100.86
367.311	90.62
367.522	41.47
367.733	123.39
367.944	143.87
368.155	84.48
368.366	186.88
368.577	109.05
368.788	104.96
368.999	80.38
369.209	96.77
369.42	152.06
369.631	47.62
369.842	86.53
370.053	35.33
370.264	107.01
370.474	20.99
370.685	82.43
370.896	104.96
371.107	152.06
371.317	139.77
371.528	72.19
371.739	193.02
371.95	111.1
372.16	127.49
372.371	94.72
372.582	127.49
372.792	107.01
373.003	45.57
373.214	86.53
373.424	113.15
373.635	86.53
373.846	111.1
374.056	76.29
374.267	84.48
374.477	4.61
374.688	-19.97
374.898	86.53
375.109	111.1
375.319	135.68
375.53	197.12
375.74	137.73
375.951	113.15
376.161	180.73
376.372	143.87
376.582	78.33
376.793	166.4
377.003	41.47
377.214	78.33
377.424	86.53
377.635	66.05
377.845	37.38
378.055	193.02
378.266	111.1
378.476	33.28
378.686	80.38
378.897	137.73
379.107	170.49
379.317	119.29
379.528	176.64
379.738	111.1
379.948	61.95
380.158	141.82
380.369	166.4
380.579	135.68
380.789	135.68
380.999	182.78
381.21	209.4
381.42	174.59
381.63	135.68
381.84	94.72
382.05	188.93
382.261	104.96
382.471	170.49
382.681	59.9
382.891	156.16
383.101	164.35
383.311	35.33
383.521	61.95
383.731	129.53
383.941	150.01
384.151	139.77
384.361	94.72
384.571	131.58
384.781	184.83
384.991	190.97
385.201	170.49
385.411	164.35
385.621	207.36
385.831	156.16
386.041	51.71
386.251	117.25
386.461	102.91
386.671	190.97
386.881	154.11
387.091	113.15
387.301	139.77
387.511	47.62
387.72	121.34
387.93	182.78
388.14	53.76
388.35	115.2
388.56	213.5
388.769	221.69
388.979	86.53
389.189	98.81
389.399	96.77
389.609	166.4
389.818	131.58
390.028	139.77
390.238	127.49
390.447	109.05
390.657	109.05
390.867	98.81
391.076	70.14
391.286	100.86
391.496	88.57
391.705	147.97
391.915	143.87
392.125	242.17
392.334	156.16
392.544	154.11
392.753	88.57
392.963	90.62
393.172	113.15
393.382	78.33
393.591	135.68
393.801	94.72
394.01	166.4
394.22	135.68
394.429	98.81
394.639	139.77
394.848	119.29
395.058	203.26
395.267	82.43
395.477	147.97
395.686	154.11
395.895	201.21
396.105	242.17
396.314	127.49
396.524	174.59
396.733	219.64
396.942	168.45
397.152	139.77
397.361	178.69
397.57	123.39
397.78	135.68
397.989	119.29
398.198	248.32
398.407	160.25
398.617	143.87
398.826	96.77
399.035	176.64
399.244	217.6
399.453	193.02
399.663	133.63
399.872	195.07
400.081	131.58
400.29	279.04
400.499	143.87
400.708	250.36
400.917	152.06
401.127	199.16
401.336	154.11
401.545	227.84
401.754	227.84
401.963	180.73
402.172	125.44
402.381	107.01
402.59	141.82
402.799	174.59
403.008	154.11
403.217	168.45
403.426	213.5
403.635	98.81
403.844	178.69
404.053	125.44
404.262	141.82
404.471	289.28
404.68	207.36
404.888	160.25
405.097	217.6
405.306	274.94
405.515	182.78
405.724	336.38
405.933	248.32
406.142	303.61
406.35	313.85
406.559	295.42
406.768	266.75
406.977	244.22
407.185	315.9
407.394	233.98
407.603	281.08
407.812	293.37
408.02	334.33
408.229	344.57
408.438	338.43
408.646	313.85
408.855	360.95
409.064	373.24
409.272	317.95
409.481	352.76
409.69	403.96
409.898	315.9
410.107	367.1
410.315	406.01
410.524	416.25
410.733	479.74
410.941	377.34
411.15	477.69
411.358	457.21
411.567	496.12
411.775	528.89
411.984	573.94
412.192	500.22
412.401	547.32
412.609	694.77
412.818	662.01
413.026	651.77
413.234	668.15
413.443	748.02
413.651	676.34
413.86	731.64
414.068	817.65
414.276	778.74
414.485	791.03
414.693	862.71
414.901	948.72
415.11	891.38
415.318	856.56
415.526	848.37
415.734	950.77
415.943	901.62
416.151	1042.93
416.359	1094.13
416.567	1028.59
416.776	1188.33
416.984	1192.43
417.192	1294.83
417.4	1235.44
417.608	1210.86
417.817	1358.32
418.025	1317.36
418.233	1464.81
418.441	1425.9
418.649	1427.95
418.857	1591.78
419.065	1669.61
419.273	1516.01
419.481	1694.18
419.689	1774.05
419.897	1817.06
420.105	1872.36
420.313	1876.45
420.521	2011.62
420.729	1954.27
420.937	2019.81
421.145	2126.3
421.353	2163.17
421.561	2372.06
421.769	2341.34
421.977	2507.23
422.185	2468.31
422.393	2638.3
422.601	2800.09
422.809	2632.15
423.017	2707.93
423.224	2882
423.432	3197.39
423.64	2968.02
423.848	3324.37
424.056	3156.43
424.263	3613.13
424.471	3342.8
424.679	3523.02
424.887	3715.53
425.094	3846.6
425.302	3994.05
425.51	3953.09
425.718	4166.08
425.925	4233.66
426.133	4325.82
426.341	4561.34
426.548	4735.42
426.756	4751.8
426.964	4778.42
427.171	4997.56
427.379	5173.68
427.586	5317.04
427.794	5460.4
428.001	5880.23
428.209	5953.96
428.417	5786.02
428.624	6404.51
428.832	6377.89
429.039	6263.2
429.247	6246.82
429.454	6812.06
429.662	7223.7
429.869	6871.45
430.076	7358.86
430.284	7203.22
430.491	7498.13
430.699	7838.09
430.906	7807.37
431.114	7983.49
431.321	8464.77
431.528	8477.05
431.736	8778.11
431.943	9421.17
432.15	9195.89
432.358	9208.18
432.565	9802.09
432.772	9621.87
432.979	10234.21
433.187	10326.37
433.394	10551.65
433.601	10932.57
433.808	11116.89
434.016	11030.87
434.223	11465.04
434.43	12003.66
434.637	12271.94
434.844	12704.06
435.052	12955.96
435.259	12921.15
435.466	12921.15
435.673	13039.93
435.88	13783.34
436.087	14534.95
436.294	14530.85
436.501	13947.18
436.708	14487.84
436.915	15020.31
437.122	15651.09
437.329	15669.52
437.537	16224.52
437.743	16468.23
437.95	16019.72
438.157	16978.17
438.364	17625.33
438.571	17682.67
438.778	17619.19
438.985	19341.53
439.192	18360.55
439.399	18944.22
439.606	18813.15
439.813	19575
440.02	21360.83
440.227	20822.21
440.433	20574.41
440.64	20938.94
440.847	20670.66
441.054	21352.63
441.261	23013.54
441.467	22696.1
441.674	22972.58
441.881	23992.47
442.088	23869.59
442.294	23609.5
442.501	24299.66
442.708	25151.62
442.914	25604.22
443.121	27017.32
443.328	25999.48
443.534	27906.13
443.741	26933.35
443.948	26775.66
444.154	29020.23
444.361	28803.14
444.568	28936.26
444.774	28829.77
444.981	29265.99
445.187	30197.81
445.394	31399.97
445.6	30826.54
445.807	33826.81
446.013	32405.52
446.22	32913.42
446.426	34373.62
446.633	34660.34
446.839	36124.63
447.046	34209.78
447.252	36403.16
447.459	36343.77
447.665	36337.62
447.871	37689.28
448.078	39618.47
448.284	37781.44
448.491	38377.4
448.697	39989.15
448.903	40714.13
449.11	41074.57
449.316	40120.22
449.522	41107.34
449.728	41985.92
449.935	42211.2
450.141	42221.44
450.347	43444.07
450.553	41924.48
450.76	42725.24
450.966	44011.36
451.172	43763.56
451.378	44633.94
451.584	43734.88
451.791	44967.76
451.997	44787.54
452.203	45567.82
452.409	45537.1
452.615	45227.85
452.821	43657.06
453.027	43511.66
453.233	45481.8
453.44	43650.92
453.646	44396.38
453.852	44273.5
454.058	45066.06
454.264	43779.94
454.47	44754.77
454.676	43497.32
454.882	45025.1
455.088	41443.21
455.294	41930.62
455.5	42534.77
455.705	43224.94
455.911	41332.62
456.117	40558.49
456.323	39901.09
456.529	38064.06
456.735	39849.89
456.941	38686.64
457.147	37838.78
457.352	36560.85
457.558	36392.92
457.764	36501.46
457.97	36237.27
458.176	35284.97
458.381	35446.76
458.587	33538.05
458.793	33425.41
458.999	32022.55
459.204	34207.73
459.41	33226.76
459.616	30781.48
459.821	31246.37
460.027	30588.97
460.233	30007.35
460.438	28633.16
460.644	29059.14
460.85	27768.92
461.055	27236.45
461.261	27283.55
461.466	25124.99
461.672	24266.89
461.878	26206.32
462.083	24473.74
462.289	23996.56
462.494	23742.61
462.7	22608.04
462.905	22100.14
463.111	22714.53
463.316	22735.01
463.522	22442.15
463.727	22782.12
463.932	22671.53
464.138	22255.79
464.343	22313.13
464.549	21584.05
464.754	22436.01
464.959	22231.21
465.165	21637.3
465.37	21057.73
465.575	20490.44
465.781	21678.26
465.986	21418.17
466.191	20613.32
466.397	20160.72
466.602	19134.68
466.807	20015.31
467.012	19919.06
467.218	19935.44
467.423	19591.38
467.628	19974.35
467.833	20445.38
468.038	19806.42
468.244	19466.45
468.449	20109.52
468.654	19296.47
468.859	18976.99
469.064	19024.09
469.269	18671.84
469.474	18546.92
469.679	18747.62
469.885	18438.37
470.09	18657.51
470.295	18544.87
470.5	18000.11
470.705	18282.73
470.91	17656.05
471.115	17672.43
471.32	17963.25
471.525	17686.77
471.73	17326.33
471.935	17387.77
472.139	16488.71
472.344	16752.9
472.549	16994.56
472.754	16398.6
472.959	16507.14
473.164	15882.51
473.369	15726.86
473.574	16380.17
473.778	15909.13
473.983	15849.74
474.188	16019.72
474.393	15388.95
474.598	15370.52
474.802	14981.4
475.007	15159.58
475.212	15116.57
475.417	14524.71
475.621	14754.08
475.826	14655.78
476.031	14289.19
476.235	14086.44
476.44	14235.94
476.645	13895.98
476.849	13871.4
477.054	13568.3
477.259	13574.45
477.463	13531.44
477.668	13127.99
477.872	13375.8
478.077	13078.84
478.282	13103.42
478.486	12650.81
478.691	12648.77
478.895	12611.9
479.1	12523.84
479.304	12611.9
479.509	12177.73
479.713	12638.53
479.918	12005.7
480.122	11866.44
480.326	12257.6
480.531	11923.79
480.735	12042.57
480.94	12022.09
481.144	12116.3
481.348	11788.62
481.553	12026.18
481.757	11333.97
481.961	11682.13
482.166	11958.6
482.37	11624.78
482.574	11444.56
482.778	11581.78
482.983	11608.4
483.187	11534.67
483.391	11800.91
483.595	11639.12
483.8	11456.85
484.004	11518.29
484.208	11618.64
484.412	11524.43
484.616	11874.63
484.821	11815.24
485.025	11309.4
485.229	11696.46
485.433	11526.48
485.637	11716.94
485.841	11653.45
486.045	11616.59
486.249	11641.17
486.453	11567.44
486.657	11684.17
486.861	11716.94
487.065	11317.59
487.269	11567.44
487.473	11319.64
487.677	11575.63
487.881	11880.78
488.085	11895.11
488.289	11796.81
488.493	11540.82
488.697	11825.48
488.901	11538.77
489.105	11815.24
489.309	11653.45
489.512	11512.14
489.716	11739.47
489.92	11684.17
490.124	11690.32
490.328	11950.41
490.531	11839.82
490.735	11868.49
490.939	11694.41
491.143	11878.73
491.346	11796.81
491.55	12079.43
491.754	12202.31
491.958	12054.86
492.161	12138.82
492.365	12179.78
492.569	12032.33
492.772	12257.6
492.976	12417.35
493.18	12095.82
493.383	12464.45
493.587	12654.91
493.79	12712.25
493.994	12491.07
494.197	12820.8
494.401	12884.28
494.605	12935.48
494.808	12722.49
495.012	13011.26
495.215	13130.04
495.419	13082.94
495.622	13109.56
495.825	13242.68
496.029	13599.02
496.232	13629.74
496.436	13570.35
496.639	13881.64
496.843	13938.99
497.046	14025
497.249	14201.13
497.453	14104.87
497.656	14340.39
497.859	14577.95
498.063	14704.93
498.266	14942.49
498.469	14858.53
498.673	14876.96
498.876	15116.57
499.079	15591.7
499.282	15460.63
499.485	15827.21
499.689	16068.87
499.892	16079.11
500.095	16234.76
500.298	16695.55
500.501	16290.06
500.705	16627.97
500.908	16943.36
501.111	17297.66
501.314	17187.07
501.517	17481.97
501.72	17707.25
501.923	17670.39
502.126	17930.48
502.329	18510.05
502.532	18493.67
502.735	18524.39
502.938	18710.75
503.141	18737.38
503.344	19140.83
503.547	19316.95
503.75	19462.36
503.953	19910.86
504.156	19632.34
504.359	20189.39
504.562	20005.07
504.765	20771.01
504.968	20852.93
505.17	20750.53
505.373	20981.95
505.576	21452.98
505.779	21549.24
505.982	21860.53
506.185	22065.33
506.387	22073.52
506.59	22479.02
506.793	22952.1
506.996	22999.2
507.198	23496.86
507.401	23034.02
507.604	23830.68
507.807	24170.64
508.009	24076.43
508.212	24414.35
508.415	24772.74
508.617	24844.42
508.82	25284.73
509.022	25241.73
509.225	25706.62
509.428	25661.56
509.63	25954.42
509.833	26081.39
510.035	26669.16
510.238	26493.04
510.44	26998.88
510.643	27336.8
510.845	27529.31
511.048	27476.06
511.25	28260.43
511.453	27940.95
511.655	29167.68
511.858	28852.3
512.06	28794.95
512.262	29126.72
512.465	29214.79
512.667	29786.17
512.87	30042.17
513.072	30009.4
513.274	30521.39
513.477	30711.85
513.679	31338.53
513.881	31473.7
514.084	31694.88
514.286	31631.39
514.488	32235.54
514.69	32743.44
514.893	32522.26
515.095	32933.9
515.297	33409.03
515.499	33472.51
515.701	34017.27
515.904	34449.39
516.106	34467.83
516.308	34512.88
516.51	35074.02
516.712	34738.16
516.914	35471.33
517.116	35942.36
517.318	35876.83
517.52	36202.46
517.722	36822.99
517.925	37220.3
518.127	37138.38
518.329	37642.18
518.531	37314.5
518.733	38465.46
518.935	38795.18
519.136	38567.86
519.338	38655.92
519.54	38961.07
519.742	39253.93
519.944	39401.38
520.146	40509.33
520.348	40273.82
520.55	40331.16
520.752	40703.89
520.954	41267.08
521.155	41019.28
521.357	41336.71
521.559	41934.72
521.761	42526.58
521.963	42338.17
522.164	42856.31
522.366	42700.66
522.568	43282.28
522.77	43431.79
522.971	44078.94
523.173	43573.1
523.375	44207.97
523.576	44150.62
523.778	44128.09
523.98	44773.2
524.181	44978
524.383	44765.01
524.584	45700.93
524.786	45551.43
524.988	45547.34
525.189	45924.16
525.391	46358.33
525.592	46669.62
525.794	46956.34
525.995	46763.83
526.197	46960.44
526.398	46704.44
526.6	47142.7
526.801	47367.98
527.003	47783.72
527.204	47537.96
527.406	48029.48
527.607	47562.54
527.808	48566.04
528.01	47800.1
528.211	48738.07
528.412	49170.19
528.614	48641.82
528.815	48666.39
529.016	49051.41
529.218	48576.28
529.419	49620.75
529.62	49043.22
529.822	48944.92
530.023	49274.64
530.224	49075.99
530.425	49352.46
530.626	49219.34
530.828	49067.8
531.029	50132.74
531.23	49438.48
531.431	49583.88
531.632	49366.8
531.833	49729.29
532.035	49725.19
532.236	49645.32
532.437	49835.78
532.638	49917.7
532.839	49569.55
533.04	49907.46
533.241	49909.51
533.442	50636.54
533.643	50175.75
533.844	50421.5
534.045	50364.16
534.246	49897.22
534.447	50677.5
534.648	50061.06
534.849	50417.41
535.05	50429.69
535.251	50202.37
535.451	49987.33
535.652	50611.96
535.853	50398.97
536.054	50226.95
536.255	50585.34
536.456	49852.17
536.657	51123.96
536.857	50269.95
537.058	50233.09
537.259	50577.15
537.46	50419.45
537.66	50419.45
537.861	50323.2
538.062	50474.75
538.263	50120.45
538.463	50114.31
538.664	50063.11
538.865	50337.54
539.065	50532.09
539.266	50327.3
539.466	50593.53
539.667	49794.82
539.868	50603.77
540.068	50585.34
540.269	50360.06
540.469	50577.15
540.67	50030.34
540.87	49946.37
541.071	50128.64
541.271	50355.97
541.472	50181.89
541.672	49653.51
541.873	50106.12
542.073	49698.57
542.274	50448.13
542.474	50171.65
542.675	49596.17
542.875	50251.52
543.075	50052.87
543.276	49766.15
543.476	50378.5
543.676	49973
543.877	50464.51
544.077	49862.41
544.277	49733.39
544.478	49919.75
544.678	50169.6
544.878	49884.93
545.078	49864.46
545.279	49929.99
545.479	49717
545.679	49739.53
545.879	49891.08
546.079	49760.01
546.28	49882.89
546.48	49469.2
546.68	49432.33
546.88	50079.49
547.08	49622.79
547.28	49776.39
547.48	49280.78
547.68	49960.71
547.88	49391.37
548.081	49727.24
548.281	49504.01
548.481	49424.14
548.681	50116.36
548.881	49719.05
549.081	49737.48
549.28	49557.26
549.48	49622.79
549.68	49598.22
549.88	49962.76
550.08	49225.49
550.28	49743.62
550.48	49540.88
550.68	49870.6
550.88	49510.16
551.08	49346.32
551.279	49825.54
551.479	49200.91
551.679	49510.16
551.879	49282.83
552.079	49383.18
552.278	49118.99
552.478	49440.53
552.678	49372.94
552.878	49221.39
553.077	49495.82
553.277	48858.9
553.477	49434.38
553.676	49180.43
553.876	49573.64
554.076	48953.11
554.275	48783.13
554.475	48191.26
554.674	49055.51
554.874	48615.19
555.074	48678.68
555.273	48828.18
555.473	48750.36
555.672	48885.53
555.872	48643.87
556.071	48750.36
556.271	48793.37
556.47	48291.62
556.67	48092.96
556.869	48480.03
557.068	48772.89
557.268	48344.86
557.467	48318.24
557.667	48342.81
557.866	48527.13
558.065	48013.09
558.265	48097.06
558.464	47931.17
558.663	48013.09
558.863	47286.06
559.062	48547.61
559.261	47621.93
559.461	48303.9
559.66	47251.25
559.859	47615.79
560.058	47279.92
560.258	47224.62
560.457	47443.76
560.656	48107.3
560.855	47068.98
561.054	47849.25
561.253	47093.55
561.453	47214.38
561.652	47662.89
561.851	47116.08
562.05	47314.73
562.249	46817.08
562.448	47124.27
562.647	47071.03
562.846	46958.39
563.045	46835.51
563.244	46196.54
563.443	47038.26
563.642	46413.63
563.841	46454.59
564.04	46325.57
564.239	46767.93
564.438	45920.07
564.637	46303.04
564.836	46251.84
565.035	45705.03
565.234	46059.33
565.432	45920.07
565.631	45764.42
565.83	46212.93
566.029	45594.44
566.228	45203.28
566.427	45178.7
566.625	44971.86
566.824	45229.9
567.023	45354.83
567.222	44689.24
567.42	45518.67
567.619	45193.04
567.818	44834.64
568.016	44994.39
568.215	45178.7
568.414	44955.47
568.612	44877.65
568.811	44504.92
569.01	44341.08
569.208	43902.82
569.407	44310.36
569.605	44193.63
569.804	44230.49
570.002	43870.05
570.201	44056.42
570.4	43745.12
570.598	43569
570.797	43204.46
570.995	43904.87
571.193	43188.08
571.392	43659.11
571.59	43239.28
571.789	43073.39
571.987	43351.91
572.186	42573.69
572.384	42936.18
572.582	42942.32
572.781	42786.68
572.979	42483.58
573.177	42393.47
573.376	42545.01
573.574	42450.81
573.772	42479.48
573.971	42203
574.169	41871.23
574.367	41951.1
574.565	42487.67
574.763	41772.93
574.962	41629.57
575.16	41217.93
575.358	41688.96
575.556	41394.06
575.754	41815.94
575.952	41156.49
576.151	41310.09
576.349	40808.34
576.547	40912.78
576.745	40849.3
576.943	41025.42
577.141	40337.3
577.339	40626.07
577.537	40411.03
577.735	40484.76
577.933	40265.63
578.131	40388.5
578.329	40140.7
578.527	39890.85
578.725	39942.05
578.923	40118.17
579.121	39929.76
579.319	39428.01
579.516	39712.67
579.714	39638.95
579.912	39667.62
580.11	39227.31
580.308	39182.25
580.506	39493.54
580.704	38578.1
580.901	38956.97
581.099	38864.81
581.297	38502.32
581.495	38662.07
581.692	38975.41
581.89	38748.08
582.088	39057.32
582.285	38318.01
582.483	38217.66
582.681	38309.82
582.878	38109.11
583.076	37855.17
583.274	38592.44
583.471	37640.13
583.669	37789.63
583.866	37765.06
584.064	37873.6
584.262	37257.16
584.459	37619.65
584.657	37052.36
584.854	37236.68
585.052	36784.08
585.249	36945.87
585.447	37302.21
585.644	36720.59
585.841	37003.21
586.039	36888.53
586.236	36530.13
586.434	36548.56
586.631	36331.48
586.828	36177.88
587.026	35837.92
587.223	35936.22
587.42	36102.11
587.618	36349.91
587.815	35594.21
588.012	35434.47
588.21	35442.66
588.407	35778.53
588.604	35401.7
588.801	35330.02
588.999	35446.76
589.196	35315.69
589.393	34994.15
589.59	35074.02
589.787	35014.63
589.984	34682.86
590.182	34322.42
590.379	35104.74
590.576	34510.83
590.773	34643.95
590.97	34228.21
591.167	34295.8
591.364	33812.48
591.561	33579.01
591.758	33599.49
591.955	33654.78
592.152	33945.59
592.349	33673.21
592.546	33863.68
592.743	33622.01
592.94	33140.74
593.137	33146.89
593.334	33611.78
593.531	33167.37
593.727	33388.55
593.924	32882.7
594.121	32505.87
594.318	32821.26
594.515	32317.46
594.712	32856.07
594.908	32065.56
595.105	32616.46
595.302	32251.92
595.499	32409.62
595.696	32192.53
595.892	31627.29
596.089	32026.65
596.286	32063.51
596.482	32131.09
596.679	31404.06
596.876	31629.34
597.072	31359.01
597.269	31283.23
597.466	31354.91
597.662	31047.72
597.859	31123.49
598.055	30986.28
598.252	30664.75
598.448	31092.77
598.645	30662.7
598.841	30545.97
599.038	30603.31
599.234	30736.43
599.431	30289.97
599.627	30359.6
599.824	30388.27
600.02	29919.29
600.217	29945.91
600.413	30224.43
600.609	29945.91
600.806	29677.63
601.002	30109.75
601.198	29390.91
601.395	29401.15
601.591	29427.77
601.787	29233.22
601.984	29079.62
602.18	29427.77
602.376	29372.48
602.572	28983.37
602.769	29032.52
602.965	28457.04
603.161	28995.65
603.357	28557.39
603.553	28665.93
603.75	28721.23
603.946	28526.67
604.142	28586.06
604.338	28063.83
604.534	28612.68
604.73	27873.37
604.926	28039.25
605.122	28207.19
605.318	27818.07
605.514	27580.51
605.71	27390.05
605.906	27652.19
606.102	27445.34
606.298	27691.1
606.494	27322.46
606.69	27639.9
606.886	27670.62
607.082	26984.55
607.278	27553.88
607.474	26837.09
607.67	27123.81
607.866	26425.45
608.062	27234.4
608.257	26749.03
608.453	26693.74
608.649	27039.84
608.845	26654.83
609.041	26779.75
609.236	26415.21
609.432	26513.52
609.628	26628.2
609.824	26368.11
610.019	26347.63
610.215	26417.26
610.411	26331.25
610.606	26077.3
610.802	26122.35
610.998	26069.11
611.193	26316.91
611.389	25804.92
611.584	25952.37
611.78	25467
611.976	25847.93
612.171	25868.41
612.367	25852.02
612.562	25563.26
612.758	25444.48
612.953	25276.54
613.149	25520.25
613.344	25364.6
613.539	25606.27
613.735	25268.35
613.93	25405.56
614.126	25329.79
614.321	25565.31
614.517	25211.01
614.712	25036.93
614.907	24819.85
615.103	25221.25
615.298	25079.94
615.493	25231.49
615.688	24684.68
615.884	25229.44
616.079	24565.9
616.274	24617.1
616.47	24885.38
616.665	25061.51
616.86	24461.45
617.055	24178.83
617.25	24402.06
617.445	24660.1
617.641	23974.03
617.836	24254.61
618.031	24115.34
618.226	24488.07
618.421	24223.89
618.616	24246.41
618.811	23802
619.006	24041.62
619.201	23900.31
619.396	23715.99
619.591	23662.74
619.786	23791.76
619.981	23292.06
620.176	23300.25
620.371	23152.8
620.566	23066.78
620.761	22831.27
620.956	23177.37
621.151	22489.26
621.346	22956.19
621.541	22476.97
621.735	22577.32
621.93	22145.2
622.125	22569.13
622.32	22069.42
622.515	22161.58
622.709	22007.98
622.904	21768.37
623.099	22010.03
623.294	22120.62
623.488	21305.53
623.683	21684.41
623.878	21283
624.072	21506.23
624.267	21248.19
624.462	21156.03
624.656	20865.22
624.851	21258.43
625.046	21008.58
625.24	20535.49
625.435	20650.18
625.629	20492.49
625.824	20836.55
626.018	20185.29
626.213	19806.42
626.407	20226.25
626.602	19689.68
626.796	19658.96
626.991	19681.49
627.185	19826.9
627.38	19513.56
627.574	19355.86
627.768	19392.73
627.963	19294.43
628.157	19327.19
628.352	18680.03
628.546	18985.18
628.74	18575.59
628.935	18639.08
629.129	18563.3
629.323	18348.26
629.517	18360.55
629.712	18168.04
629.906	18182.38
630.1	17979.63
630.294	17910
630.489	17885.42
630.683	18028.78
630.877	17584.37
631.071	17713.39
631.265	17750.26
631.459	17373.43
631.653	17297.66
631.848	17281.27
632.042	17275.13
632.236	17152.25
632.43	16802.05
632.624	17176.83
632.818	16945.41
633.012	16718.08
633.206	16687.36
633.4	16619.78
633.594	16335.11
633.788	16496.9
633.982	16605.44
634.176	16400.65
634.369	15972.62
634.563	16218.38
634.757	15823.12
634.951	16214.28
635.145	16032.01
635.339	16085.26
635.533	15733.01
635.726	15597.84
635.92	15485.2
636.114	15628.56
636.308	15253.78
636.501	15372.57
636.695	15534.35
636.889	15274.26
637.083	14967.07
637.276	14981.4
637.47	14881.05
637.664	15001.88
637.857	14735.65
638.051	14819.61
638.244	14541.09
638.438	14702.88
638.632	14733.6
638.825	14262.57
639.019	14475.56
639.212	14225.7
639.406	14358.82
639.599	14041.39
639.793	13916.46
639.986	13816.11
640.18	13816.11
640.373	13670.7
640.567	13760.81
640.76	13541.68
640.954	13820.21
641.147	13482.29
641.34	13474.1
641.534	13799.73
641.727	13486.39
641.92	13173.05
642.114	13349.17
642.307	13140.28
642.5	13158.71
642.694	12632.38
642.887	12935.48
643.08	12833.08
643.273	12958.01
643.467	12728.64
643.66	12736.83
643.853	12587.33
644.046	12259.65
644.239	12558.66
644.432	12497.22
644.626	12171.59
644.819	12054.86
645.012	12175.69
645.205	12173.64
645.398	12095.82
645.591	12040.52
645.784	12013.9
645.977	11802.96
646.17	11909.45
646.363	11768.14
646.556	11825.48
646.749	11848.01
646.942	11788.62
647.135	11395.41
647.328	11622.73
647.521	11417.94
647.714	11385.17
647.907	11241.81
648.099	11276.63
648.292	11108.69
648.485	11069.78
648.678	10854.75
648.871	10867.03
649.064	10977.62
649.256	11112.79
649.449	10877.27
649.642	10666.33
649.835	10563.93
650.027	10795.36
650.22	10801.5
650.413	10670.43
650.605	10629.47
650.798	10617.18
650.991	10420.58
651.183	10316.13
651.376	10185.06
651.568	10328.42
651.761	10137.96
651.954	10117.48
652.146	10076.52
652.339	10019.18
652.531	10271.08
652.724	9845.1
652.916	9658.73
653.109	9699.69
653.301	9935.21
653.494	9783.66
653.686	9691.5
653.879	9746.8
654.071	9562.48
654.263	9587.05
654.456	9759.08
654.648	9488.75
654.84	9406.83
655.033	9484.66
655.225	9163.12
655.417	9204.08
655.61	9296.24
655.802	9279.86
655.994	9214.32
656.186	9130.36
656.379	8851.83
656.571	9077.11
656.763	9019.77
656.955	8890.74
657.148	9116.02
657.34	8968.57
657.532	8837.5
657.724	8743.29
657.916	8520.06
658.108	8532.35
658.3	8546.69
658.492	8626.56
658.684	8262.02
658.876	8452.48
659.068	8395.14
659.26	8329.6
659.452	8452.48
659.644	8378.75
659.836	8307.07
660.028	8319.36
660.22	8100.23
660.412	8296.83
660.604	8059.27
660.796	8227.2
660.988	7977.35
661.18	7995.78
661.372	7819.66
661.563	7967.11
661.755	7944.58
661.947	7930.25
662.139	7692.68
662.331	7668.11
662.522	7840.14
662.714	7709.07
662.906	7573.9
663.097	7621
663.289	7518.61
663.481	7412.11
663.673	7459.21
663.864	7401.87
664.056	7395.73
664.247	7541.13
664.439	7338.38
664.631	7461.26
664.822	7328.14
665.014	7227.79
665.205	7324.05
665.397	7315.86
665.588	7281.04
665.78	7057.81
665.971	7018.9
666.163	7195.03
666.354	7190.93
666.546	7092.63
666.737	6967.7
666.929	7035.28
667.12	7113.11
667.311	6881.69
667.503	6750.62
667.694	6994.33
667.885	6820.25
668.077	6949.27
668.268	6810.01
668.459	6732.19
668.651	6805.91
668.842	6721.95
669.033	6783.38
669.224	6693.27
669.416	6803.86
669.607	6611.36
669.798	6611.36
669.989	6723.99
670.18	6662.55
670.371	6605.21
670.563	6521.24
670.754	6511
670.945	6492.57
671.136	6562.2
671.327	6468
671.518	6597.02
671.709	6472.09
671.9	6453.66
672.091	6326.69
672.282	6355.36
672.473	6287.78
672.664	6326.69
672.855	6230.43
673.046	6334.88
673.237	6265.25
673.428	6287.78
673.619	6177.19
673.809	6193.57
674	6334.88
674.191	6351.26
674.382	6052.26
674.573	6205.86
674.764	6181.28
674.954	6226.34
675.145	6162.85
675.336	6191.52
675.527	6152.61
675.717	6072.74
675.908	5992.87
676.099	6068.64
676.289	5933.48
676.48	5921.19
676.671	6125.99
676.861	5945.77
677.052	6150.56
677.243	5962.15
677.433	5960.1
677.624	6109.6
677.814	6058.4
678.005	5984.68
678.195	5978.53
678.386	6130.08
678.576	5919.14
678.767	5990.82
678.957	5859.75
679.148	5953.96
679.338	6039.97
679.529	5845.41
679.719	5747.11
679.909	6019.49
680.1	6031.78
680.29	5980.58
680.481	5857.7
680.671	5921.19
680.861	5773.74
681.052	5816.74
681.242	5738.92
681.432	5898.66
681.622	5861.8
681.813	5886.37
682.003	5988.77
682.193	5775.78
682.383	5857.7
682.573	5689.77
682.764	5759.4
682.954	5822.89
683.144	5749.16
683.334	5734.82
683.524	5708.2
683.714	5736.87
683.904	5763.5
684.094	5700.01
684.284	5642.67
684.474	5951.91
684.664	5829.03
684.854	5728.68
685.044	5708.2
685.234	5546.41
685.424	5622.19
685.614	5681.58
685.804	5738.92
685.994	5575.08
686.184	5599.66
686.374	5644.71
686.564	5360.05
686.753	5542.32
686.943	5290.42
687.133	5482.92
687.323	5403.05
687.513	5548.46
687.702	5325.23
687.892	5286.32
688.082	5314.99
688.272	5349.81
688.461	5216.69
688.651	5345.71
688.841	5312.94
689.03	5077.43
689.22	5142.96
689.41	5185.97
689.599	5087.67
689.789	5085.62
689.979	5058.99
690.168	5040.56
690.358	4958.64
690.547	4893.11
690.737	4866.49
690.926	4944.31
691.116	4809.14
691.305	4905.4
691.495	4825.53
691.684	4938.16
691.874	4829.62
692.063	4815.29
692.252	4733.37
692.442	4731.32
692.631	4641.21
692.82	4682.17
693.01	4698.55
693.199	4587.96
693.388	4604.35
693.578	4530.62
693.767	4581.82
693.956	4432.32
694.146	4592.06
694.335	4452.8
694.524	4397.5
694.713	4557.24
694.902	4301.25
695.092	4379.07
695.281	4379.07
695.47	4377.02
695.659	4329.92
695.848	4379.07
696.037	4315.58
696.226	4323.77
696.415	4291.01
696.604	4317.63
696.793	4305.34
696.982	4149.7
697.171	4080.07
697.36	4211.14
697.549	4217.28
697.738	4088.26
697.927	4098.5
698.116	4008.39
698.305	4159.94
698.494	4086.21
698.683	4139.46
698.872	3987.91
699.061	4104.64
699.25	4080.07
699.438	4123.07
699.627	3953.09
699.816	4116.93
700.005	3973.57
700.193	4002.24
700.382	4118.98
700.571	4090.31
700.76	4020.67
700.948	4141.5
701.137	3946.95
701.326	3971.52
701.514	3975.62
701.703	3957.19
701.892	3914.18
702.08	4000.19
702.269	3977.67
702.457	4047.3
702.646	3918.28
702.834	3891.65
703.023	3873.22
703.212	3922.37
703.4	3957.19
703.589	3944.9
703.777	3924.42
703.965	3856.84
704.154	3840.45
704.342	3846.6
704.531	3908.04
704.719	3889.6
704.907	4035.01
705.096	3944.9
705.284	3987.91
705.472	3828.17
705.661	3879.36
705.849	3854.79
706.037	3865.03
706.226	3725.77
706.414	3873.22
706.602	3895.75
706.79	3916.23
706.979	3873.22
707.167	3985.86
707.355	3746.25
707.543	3940.8
707.731	4016.58
707.919	4039.11
708.107	3836.36
708.296	3844.55
708.484	3731.91
708.672	3881.41
708.86	4000.19
709.048	3858.89
709.236	3922.37
709.424	3832.26
709.612	3893.7
709.8	3916.23
709.988	3875.27
710.176	3764.68
710.364	3996.1
710.551	3965.38
710.739	4008.39
710.927	3840.45
711.115	3873.22
711.303	3989.96
711.491	4069.83
711.679	3903.94
711.866	3924.42
712.054	3936.71
712.242	3955.14
712.43	3967.43
712.617	3869.12
712.805	3932.61
712.993	4012.48
713.181	3840.45
713.368	3817.93
713.556	3936.71
713.744	3928.52
713.931	4075.97
714.119	3905.99
714.306	3944.9
714.494	3996.1
714.682	3971.52
714.869	3971.52
715.057	3920.32
715.244	3963.33
715.432	4075.97
715.619	4020.67
715.807	3942.85
715.994	4055.49
716.182	3918.28
716.369	3979.72
716.556	4102.59
716.744	4057.54
716.931	4051.39
717.119	4192.7
717.306	4047.3
717.493	3981.76
717.681	4133.31
717.868	3942.85
718.055	4096.45
718.242	3961.28
718.43	3979.72
718.617	4016.58
718.804	4098.5
718.991	4018.63
719.179	4147.65
719.366	4092.35
719.553	4116.93
719.74	4108.74
719.927	4073.92
720.114	4028.87
720.301	4047.3
720.488	3936.71
720.676	3963.33
720.863	4090.31
721.05	4217.28
721.237	4147.65
721.424	4170.18
721.611	4256.19
721.798	4020.67
721.985	4159.94
722.172	4043.2
722.358	4143.55
722.545	4168.13
722.732	4067.78
722.919	4280.77
723.106	4219.33
723.293	4293.05
723.48	4170.18
723.667	4202.94
723.853	4211.14
724.04	4254.14
724.227	4178.37
724.414	4159.94
724.6	4125.12
724.787	4217.28
724.974	4190.66
725.161	4420.03
725.347	4118.98
725.534	4250.05
725.72	4174.27
725.907	4223.42
726.094	4321.73
726.28	4200.9
726.467	4121.03
726.653	4307.39
726.84	4342.21
727.027	4137.41
727.213	4174.27
727.4	4309.44
727.586	4299.2
727.773	4192.7
727.959	4356.54
728.145	4295.1
728.332	4135.36
728.518	4305.34
728.705	4243.9
728.891	4237.76
729.077	4291.01
729.264	4237.76
729.45	4440.51
729.636	4264.38
729.823	4354.49
730.009	4274.62
730.195	4346.3
730.382	4417.98
730.568	4342.21
730.754	4338.11
730.94	4280.77
731.126	4266.43
731.313	4344.25
731.499	4323.77
731.685	4360.64
731.871	4366.78
732.057	4237.76
732.243	4336.06
732.429	4317.63
732.615	4325.82
732.801	4422.08
732.987	4272.57
733.173	4352.45
733.359	4311.49
733.545	4334.01
733.731	4358.59
733.917	4436.41
734.103	4403.64
734.289	4389.31
734.475	4368.83
734.661	4397.5
734.847	4393.4
735.033	4381.12
735.219	4424.12
735.404	4358.59
735.59	4284.86
735.776	4383.17
735.962	4387.26
736.148	4379.07
736.333	4428.22
736.519	4323.77
736.705	4368.83
736.89	4448.7
737.076	4293.05
737.262	4211.14
737.447	4334.01
737.633	4104.64
737.819	4276.67
738.004	4295.1
738.19	4319.68
738.375	4231.62
738.561	4248
738.747	4139.46
738.932	4026.82
739.118	4360.64
739.303	4149.7
739.489	4252.1
739.674	4211.14
739.859	4239.81
740.045	4190.66
740.23	4274.62
740.416	4245.95
740.601	4145.6
740.786	4202.94
740.972	4045.25
741.157	3994.05
741.342	4086.21
741.528	4047.3
741.713	4213.18
741.898	4116.93
742.084	4129.22
742.269	4045.25
742.454	4161.98
742.639	4094.4
742.824	4057.54
743.01	4059.59
743.195	4143.55
743.38	4035.01
743.565	3877.32
743.75	3998.15
743.935	4012.48
744.12	3949
744.305	4037.06
744.49	3881.41
744.675	3953.09
744.86	3799.49
745.045	3936.71
745.23	3805.64
745.415	3860.93
745.6	3846.6
745.785	3709.38
745.97	3789.25
746.155	3830.21
746.34	3920.32
746.525	3627.46
746.71	3738.05
746.895	3701.19
747.079	3660.23
747.264	3666.38
747.449	3643.85
747.634	3561.93
747.819	3596.75
748.003	3592.65
748.188	3527.11
748.373	3496.39
748.557	3508.68
748.742	3543.5
748.927	3514.83
749.111	3394
749.296	3371.47
749.481	3330.51
749.665	3398.09
749.85	3230.16
750.034	3365.32
750.219	3281.36
750.404	3420.62
750.588	3203.54
750.773	3205.58
750.957	3322.32
751.141	3365.32
751.326	3183.06
751.51	3307.98
751.695	3138
751.879	3101.14
752.064	3109.33
752.248	3181.01
752.432	3076.56
752.617	3119.57
752.801	3047.89
752.985	3043.79
753.17	3037.65
753.354	3025.36
753.538	3021.27
753.722	2916.82
753.907	2781.65
754.091	2851.28
754.275	2777.56
754.459	2763.22
754.643	2750.93
754.828	2746.84
755.012	2707.93
755.196	2703.83
755.38	2701.78
755.564	2630.1
755.748	2675.16
755.932	2646.49
756.116	2656.73
756.3	2724.31
756.484	2595.29
756.668	2546.14
756.852	2462.17
757.036	2699.73
757.22	2488.79
757.404	2593.24
757.588	2503.13
757.772	2619.86
757.956	2501.08
758.14	2492.89
758.323	2509.27
758.507	2435.55
758.691	2476.51
758.875	2548.19
759.059	2456.03
759.242	2466.27
759.426	2296.28
759.61	2376.16
759.794	2333.15
759.977	2345.44
760.161	2355.68
760.345	2263.52
760.528	2331.1
760.712	2359.77
760.895	2363.87
761.079	2202.08
761.263	2109.92
761.446	2163.17
761.63	2165.21
761.813	2281.95
761.997	2138.59
762.18	2038.24
762.364	2064.86
762.547	2019.81
762.731	2005.47
762.914	2169.31
763.098	2142.69
763.281	2058.72
763.464	2034.14
763.648	1978.85
763.831	2083.3
764.015	2005.47
764.198	1984.99
764.381	2062.82
764.564	2093.54
764.748	1946.08
764.931	1927.65
765.114	1974.75
765.297	2087.39
765.481	1911.27
765.664	1960.42
765.847	1966.56
766.03	1948.13
766.213	1851.88
766.397	1909.22
766.58	1894.88
766.763	1933.79
766.946	1870.31
767.129	1757.67
767.312	1849.83
767.495	1778.15
767.678	1913.31
767.861	1874.4
768.044	1913.31
768.227	1735.14
768.41	1788.39
768.593	1817.06
768.776	1802.72
768.959	1788.39
769.142	1864.16
769.324	1745.38
769.507	1776.1
769.69	1825.25
769.873	1710.57
770.056	1794.53
770.239	1765.86
770.421	1757.67
770.604	1743.33
770.787	1702.37
770.97	1694.18
771.152	1548.78
771.335	1714.66
771.518	1608.17
771.7	1636.84
771.883	1757.67
772.066	1599.98
772.248	1497.58
772.431	1585.64
772.613	1579.5
772.796	1659.37
772.978	1616.36
773.161	1655.27
773.343	1575.4
773.526	1575.4
773.708	1479.15
773.891	1446.38
774.073	1577.45
774.256	1454.57
774.438	1489.39
774.621	1419.75
774.803	1522.15
774.985	1386.99
775.168	1483.24
775.35	1407.47
775.532	1444.33
775.715	1362.41
775.897	1415.66
776.079	1368.56
776.261	1386.99
776.444	1360.36
776.626	1358.32
776.808	1378.79
776.99	1268.2
777.173	1366.51
777.355	1350.12
777.537	1315.31
777.719	1288.68
777.901	1300.97
778.083	1176.05
778.265	1124.85
778.447	1210.86
778.629	1188.33
778.811	1210.86
778.993	1290.73
779.175	1200.62
779.357	1227.25
779.539	1137.13
779.721	1133.04
779.903	1182.19
780.085	1202.67
780.267	1174
780.449	1214.96
780.631	1118.7
780.812	1163.76
780.994	1180.14
781.176	1130.99
781.358	1102.32
781.54	969.2
781.721	1030.64
781.903	1212.91
782.085	1055.22
782.267	1120.75
782.448	1028.59
782.63	1012.21
782.812	1001.97
782.993	1051.12
783.175	1028.59
783.357	1049.07
783.538	971.25
783.72	1020.4
783.901	1055.22
784.083	1075.7
784.264	1053.17
784.446	948.72
784.627	924.15
784.809	946.67
784.99	938.48
785.172	952.82
785.353	846.32
785.535	934.39
785.716	897.52
785.897	891.38
786.079	901.62
786.26	811.51
786.441	834.04
786.623	735.73
786.804	872.95
786.985	815.6
787.167	840.18
787.348	805.36
787.529	813.56
787.71	815.6
787.891	883.19
788.073	809.46
788.254	764.4
788.435	811.51
788.616	793.08
788.797	780.79
788.978	891.38
789.159	807.41
789.34	731.64
789.522	758.26
789.703	756.21
789.884	752.12
790.065	791.03
790.246	766.45
790.427	758.26
790.607	774.64
790.788	991.73
790.969	692.73
791.15	670.2
791.331	616.95
791.512	649.72
791.693	711.16
791.874	727.54
792.054	778.74
792.235	637.43
792.416	670.2
792.597	590.33
792.778	700.92
792.958	719.35
793.139	729.59
793.32	702.97
793.5	723.44
793.681	702.97
793.862	643.57
794.042	674.29
794.223	561.66
794.404	670.2
794.584	608.76
794.765	549.37
794.945	651.77
795.126	659.96
795.306	567.8
795.487	610.81
795.667	530.94
795.848	619
796.028	647.67
796.209	512.5
796.389	582.14
796.57	537.08
796.75	555.51
796.93	629.24
797.111	559.61
797.291	610.81
797.471	565.75
797.652	541.18
797.832	530.94
798.012	602.61
798.192	575.99
798.373	516.6
798.553	561.66
798.733	606.71
798.913	498.17
799.093	496.12
799.274	524.79
799.454	553.46
799.634	563.7
799.814	563.7
799.994	508.41
800.174	565.75
800.354	508.41
800.534	440.83
800.714	524.79
800.894	483.83
801.074	508.41
801.254	408.06
801.434	508.41
801.614	463.35
801.794	518.65
801.974	1425.9
802.154	395.77
802.334	473.59
802.514	434.68
802.693	440.83
802.873	455.16
803.053	545.27
803.233	467.45
803.413	489.98
803.592	446.97
803.772	389.63
803.952	467.45
804.131	389.63
804.311	508.41
804.491	440.83
804.67	426.49
804.85	424.44
805.03	506.36
805.209	457.21
805.389	399.87
805.568	467.45
805.748	393.72
805.928	352.76
806.107	461.3
806.287	418.3
806.466	471.54
806.646	432.63
806.825	397.82
807.004	346.62
807.184	377.34
807.363	403.96
807.543	381.43
807.722	385.53
807.901	383.48
808.081	391.67
808.26	283.13
808.439	381.43
808.619	457.21
808.798	410.11
808.977	401.91
809.156	369.15
809.336	340.47
809.515	340.47
809.694	342.52
809.873	381.43
810.052	330.23
810.231	416.25
810.411	438.78
810.59	373.24
810.769	369.15
810.948	422.39
811.127	371.19
811.306	303.61
811.485	328.19
811.664	428.54
811.843	356.86
812.022	256.51
812.201	342.52
812.38	299.52
812.559	276.99
812.737	334.33
812.916	225.79
813.095	287.23
813.274	301.56
813.453	299.52
813.632	358.91
813.811	373.24
813.989	342.52
814.168	338.43
814.347	313.85
814.526	305.66
814.704	373.24
814.883	373.24
815.062	262.65
815.24	287.23
815.419	342.52
815.598	307.71
815.776	186.88
815.955	299.52
816.133	238.08
816.312	297.47
816.49	201.21
816.669	328.19
816.847	324.09
817.026	311.8
817.204	324.09
817.383	246.27
817.561	283.13
817.74	233.98
817.918	281.08
818.097	356.86
818.275	236.03
818.453	244.22
818.632	383.48
818.81	262.65
818.988	285.18
819.167	293.37
819.345	299.52
819.523	262.65
819.701	229.88
819.879	322.04
820.058	272.89
820.236	244.22
820.414	274.94
820.592	225.79
820.77	301.56
820.948	180.73
821.127	197.12
821.305	332.28
821.483	281.08
821.661	287.23
821.839	240.12
822.017	211.45
822.195	219.64
822.373	193.02
822.551	242.17
822.729	262.65
822.907	172.54
823.085	174.59
823.262	197.12
823.44	250.36
823.618	231.93
823.796	238.08
823.974	209.4
824.152	246.27
824.329	209.4
824.507	238.08
824.685	272.89
824.863	225.79
825.04	166.4
825.218	207.36
825.396	248.32
825.574	250.36
825.751	174.59
825.929	201.21
826.107	109.05
826.284	193.02
826.462	233.98
826.639	209.4
826.817	207.36
826.994	219.64
827.172	233.98
827.349	258.56
827.527	240.12
827.704	252.41
827.882	274.94
828.059	186.88
828.237	219.64
828.414	188.93
828.591	88.57
828.769	201.21
828.946	188.93
829.124	219.64
829.301	240.12
829.478	203.26
829.655	236.03
829.833	197.12
830.01	188.93
830.187	238.08
830.364	250.36
830.542	221.69
830.719	307.71
830.896	178.69
831.073	205.31
831.25	129.53
831.427	250.36
831.604	211.45
831.782	236.03
831.959	209.4
832.136	102.91
832.313	285.18
832.49	125.44
832.667	170.49
832.844	137.73
833.021	168.45
833.198	266.75
833.374	199.16
833.551	178.69
833.728	164.35
833.905	176.64
834.082	172.54
834.259	137.73
834.436	152.06
834.612	172.54
834.789	215.55
834.966	123.39
835.143	199.16
835.319	131.58
835.496	182.78
835.673	152.06
835.85	104.96
836.026	201.21
836.203	154.11
836.38	139.77
836.556	162.3
836.733	121.34
836.909	242.17
837.086	131.58
837.262	119.29
837.439	123.39
837.616	168.45
837.792	53.76
837.968	145.92
838.145	41.47
838.321	233.98
838.498	184.83
838.674	213.5
838.851	145.92
839.027	137.73
839.203	152.06
839.38	176.64
839.556	94.72
839.732	176.64
839.909	139.77
840.085	154.11
840.261	152.06
840.437	184.83
840.614	139.77
840.79	168.45
840.966	152.06
841.142	203.26
841.318	113.15
841.494	203.26
841.671	121.34
841.847	84.48
842.023	94.72
842.199	213.5
842.375	137.73
842.551	61.95
842.727	166.4
842.903	160.25
843.079	61.95
843.255	172.54
843.431	139.77
843.607	131.58
843.783	88.57
843.959	123.39
844.134	55.81
844.31	117.25
844.486	123.39
844.662	86.53
844.838	141.82
845.013	147.97
845.189	178.69
845.365	113.15
845.541	168.45
845.716	119.29
845.892	119.29
846.068	88.57
846.244	107.01
846.419	152.06
846.595	72.19
846.77	137.73
846.946	131.58
847.122	23.04
847.297	74.24
847.473	129.53
847.648	76.29
847.824	135.68
847.999	135.68
848.175	61.95
848.35	150.01
848.526	125.44
848.701	86.53
848.876	147.97
849.052	129.53
849.227	84.48
849.403	162.3
849.578	133.63
849.753	174.59
849.929	139.77
850.104	82.43
850.279	121.34
850.454	57.86
850.63	102.91
850.805	94.72
850.98	88.57
851.155	143.87
851.33	82.43
851.505	45.57
851.681	139.77
851.856	68.09
852.031	145.92
852.206	88.57
852.381	49.66
852.556	86.53
852.731	158.21
852.906	133.63
853.081	37.38
853.256	145.92
853.431	88.57
853.606	113.15
853.781	61.95
853.956	-7.68
854.131	100.86
854.305	53.76
854.48	55.81
854.655	94.72
854.83	66.05
855.005	80.38
855.18	80.38
855.354	123.39
855.529	111.1
855.704	84.48
855.879	127.49
856.053	61.95
856.228	145.92
856.403	78.33
856.577	109.05
856.752	74.24
856.926	80.38
857.101	84.48
857.276	35.33
857.45	43.52
857.625	203.26
857.799	37.38
857.974	20.99
858.148	70.14
858.323	166.4
858.497	53.76
858.672	113.15
858.846	29.18
859.02	80.38
859.195	6.66
859.369	115.2
859.543	84.48
859.718	96.77
859.892	174.59
860.066	127.49
860.241	145.92
860.415	109.05
860.589	39.42
860.763	20.99
860.938	107.01
861.112	96.77
861.286	86.53
861.46	88.57
861.634	23.04
861.808	219.64
861.982	76.29
862.157	72.19
862.331	25.09
862.505	55.81
862.679	51.71
862.853	47.62
863.027	12.8
863.201	162.3
863.375	-1.54
863.549	82.43
863.722	98.81
863.896	31.23
864.07	20.99
864.244	0.51
864.418	104.96
864.592	57.86
864.766	82.43
864.939	8.7
865.113	8.7
865.287	68.09
865.461	49.66
865.634	123.39
865.808	59.9
865.982	12.8
866.156	27.14
866.329	76.29
866.503	37.38
866.676	115.2
866.85	117.25
867.024	20.99
867.197	145.92
867.371	102.91
867.544	-28.16
867.718	51.71
867.891	139.77
868.065	-30.21
868.238	145.92
868.412	86.53
868.585	8.7
868.759	-3.58
868.932	57.86
869.105	4.61
869.279	14.85
869.452	37.38
869.625	117.25
869.799	100.86
869.972	31.23
870.145	-7.68
870.319	70.14
870.492	-7.68
870.665	66.05
870.838	16.9
871.011	10.75
871.185	61.95
871.358	49.66
871.531	90.62
871.704	20.99
871.877	78.33
872.05	152.06
872.223	20.99
872.396	205.31
872.569	76.29
872.742	39.42
872.915	143.87
873.088	-7.68
873.261	64
873.434	188.93
873.607	74.24
873.78	84.48
873.953	-73.21
874.126	68.09
874.299	-13.82
874.471	68.09
874.644	51.71
874.817	82.43
874.99	111.1
875.163	16.9
875.335	111.1
875.508	33.28
875.681	113.15
875.853	-15.87
876.026	-11.78
876.199	51.71
876.371	23.04
876.544	29.18
876.717	41.47
876.889	104.96
877.062	111.1
877.234	104.96
877.407	64
877.579	72.19
877.752	39.42
877.924	6.66
878.097	86.53
878.269	31.23
878.442	33.28
878.614	57.86
878.786	115.2
878.959	76.29
879.131	31.23
879.303	49.66
879.476	107.01
879.648	129.53
879.82	115.2
879.993	12.8
880.165	64
880.337	12.8
880.509	64
880.681	41.47
880.854	-26.11
881.026	4.61
881.198	193.02
881.37	29.18
881.542	29.18
881.714	41.47
881.886	31.23
882.058	86.53
882.23	90.62
882.402	33.28
882.574	98.81
882.746	49.66
882.918	152.06
883.09	80.38
883.262	-7.68
883.434	86.53
883.606	55.81
883.778	59.9
883.95	80.38
884.122	90.62
884.293	14.85
884.465	49.66
884.637	76.29
884.809	25.09
884.98	12.8
885.152	33.28
885.324	64
885.496	45.57
885.667	-58.88
885.839	31.23
886.011	164.35
886.182	117.25
886.354	129.53
886.525	18.94
886.697	113.15
886.869	-9.73
887.04	129.53
887.212	141.82
887.383	86.53
887.555	61.95
887.726	-7.68
887.897	45.57
888.069	33.28
888.24	111.1
888.412	29.18
888.583	70.14
888.754	88.57
888.926	-32.26
889.097	47.62
889.268	-46.59
889.44	35.33
889.611	-28.16
889.782	18.94
889.953	29.18
890.125	64
890.296	55.81
890.467	-32.26
890.638	55.81
890.809	90.62
890.98	-9.73
891.151	47.62
891.323	61.95
891.494	29.18
891.665	8.7
891.836	49.66
892.007	64
892.178	29.18
892.349	41.47
892.52	6.66
892.691	27.14
892.862	49.66
893.032	-52.74
893.203	41.47
893.374	141.82
893.545	70.14
893.716	4.61
893.887	117.25
894.057	20.99
894.228	14.85
894.399	82.43
894.57	107.01
894.74	20.99
894.911	-1.54
895.082	49.66
895.253	31.23
895.423	66.05
895.594	117.25
895.764	88.57
895.935	45.57
896.106	86.53
896.276	33.28
896.447	84.48
896.617	-28.16
896.788	55.81
896.958	-30.21
897.129	-19.97
897.299	-36.35
897.47	98.81
897.64	115.2
897.81	102.91
897.981	4.61
898.151	41.47
898.322	45.57
898.492	29.18
898.662	10.75
898.832	14.85
899.003	39.42
899.173	66.05
899.343	25.09
899.513	20.99
