Data from USB4F104151__89__13-06-20-957.txt Node

Date: Fri Mar 14 13:06:20 EDT 2025
User: louis
Spectrometer: USB4F10415
Trigger mode: 4
Integration Time (sec): 4.000000E-2
Scans to average: 1
Electric dark correction enabled: true
Nonlinearity correction enabled: false
Boxcar width: 0
XAxis mode: Wavelengths
Number of Pixels in Spectrum: 3648
>>>>>Begin Spectral Data<<<<<
178.204	-185.17
178.424	-185.17
178.644	-185.17
178.864	-179.03
179.084	-172.88
179.304	-47.96
179.524	19.63
179.744	-29.52
179.964	31.91
180.184	-0.85
180.404	62.63
180.624	-43.86
180.844	23.72
181.064	-35.67
181.283	101.55
181.503	-74.58
181.723	-7
181.943	27.82
182.163	36.01
182.383	5.29
182.602	19.63
182.822	25.77
183.042	5.29
183.262	19.63
183.482	-0.85
183.701	3.24
183.921	40.11
184.141	48.3
184.361	70.83
184.58	126.12
184.8	23.72
185.02	-0.85
185.239	33.96
185.459	44.2
185.679	76.97
185.898	-74.58
186.118	74.92
186.338	52.39
186.557	111.78
186.777	27.82
186.997	5.29
187.216	-2.9
187.436	117.93
187.655	60.59
187.875	9.39
188.095	48.3
188.314	126.12
188.534	136.36
188.753	-9.05
188.973	27.82
189.192	97.45
189.412	85.16
189.631	50.35
189.851	60.59
190.07	85.16
190.29	21.67
190.509	42.15
190.729	-29.52
190.948	103.59
191.168	238.76
191.387	19.63
191.607	25.77
191.826	13.48
192.045	56.49
192.265	68.78
192.484	54.44
192.704	101.55
192.923	-70.48
193.142	173.22
193.362	124.07
193.581	66.73
193.8	36.01
194.02	111.78
194.239	54.44
194.458	81.07
194.678	27.82
194.897	-7
195.116	7.34
195.335	46.25
195.555	27.82
195.774	23.72
195.993	119.98
196.212	44.2
196.432	23.72
196.651	50.35
196.87	13.48
197.089	134.31
197.308	138.41
197.528	46.25
197.747	-45.91
197.966	29.87
198.185	85.16
198.404	23.72
198.623	56.49
198.842	1.19
199.062	134.31
199.281	160.94
199.5	83.11
199.719	60.59
199.938	119.98
200.157	93.35
200.376	130.22
200.595	44.2
200.814	44.2
201.033	11.43
201.252	101.55
201.471	27.82
201.69	27.82
201.909	105.64
202.128	15.53
202.347	70.83
202.566	38.06
202.785	44.2
203.004	81.07
203.223	144.55
203.442	72.87
203.661	-62.29
203.879	70.83
204.098	126.12
204.317	7.34
204.536	111.78
204.755	128.17
204.974	68.78
205.193	68.78
205.411	160.94
205.63	79.02
205.849	105.64
206.068	109.74
206.287	-17.24
206.505	62.63
206.724	-17.24
206.943	25.77
207.162	115.88
207.381	52.39
207.599	76.97
207.818	29.87
208.037	-78.68
208.255	56.49
208.474	1.19
208.693	42.15
208.911	19.63
209.13	64.68
209.349	72.87
209.567	91.31
209.786	21.67
210.005	72.87
210.223	76.97
210.442	-72.53
210.661	7.34
210.879	-2.9
211.098	9.39
211.316	46.25
211.535	113.83
211.753	23.72
211.972	62.63
212.191	19.63
212.409	103.59
212.628	93.35
212.846	42.15
213.065	60.59
213.283	66.73
213.502	-11.09
213.72	5.29
213.938	111.78
214.157	-9.05
214.375	48.3
214.594	21.67
214.812	62.63
215.031	44.2
215.249	-45.91
215.467	15.53
215.686	31.91
215.904	113.83
216.122	130.22
216.341	81.07
216.559	-27.48
216.778	52.39
216.996	105.64
217.214	52.39
217.432	29.87
217.651	62.63
217.869	17.58
218.087	70.83
218.306	38.06
218.524	54.44
218.742	15.53
218.96	11.43
219.179	38.06
219.397	52.39
219.615	81.07
219.833	36.01
220.051	17.58
220.27	107.69
220.488	66.73
220.706	3.24
220.924	29.87
221.142	48.3
221.36	54.44
221.578	52.39
221.796	-4.95
222.015	-13.14
222.233	48.3
222.451	70.83
222.669	23.72
222.887	36.01
223.105	27.82
223.323	105.64
223.541	5.29
223.759	44.2
223.977	111.78
224.195	60.59
224.413	46.25
224.631	60.59
224.849	83.11
225.067	162.98
225.285	29.87
225.503	46.25
225.721	-0.85
225.939	11.43
226.157	5.29
226.375	150.7
226.592	-19.29
226.81	85.16
227.028	74.92
227.246	52.39
227.464	97.45
227.682	132.26
227.9	36.01
228.117	60.59
228.335	124.07
228.553	15.53
228.771	27.82
228.989	142.5
229.206	74.92
229.424	-4.95
229.642	33.96
229.86	5.29
230.077	119.98
230.295	38.06
230.513	93.35
230.731	60.59
230.948	154.79
231.166	101.55
231.384	-0.85
231.601	-29.52
231.819	105.64
232.037	29.87
232.254	23.72
232.472	36.01
232.689	36.01
232.907	1.19
233.125	-2.9
233.342	-13.14
233.56	56.49
233.777	46.25
233.995	-15.19
234.213	60.59
234.43	5.29
234.648	25.77
234.865	76.97
235.083	81.07
235.3	58.54
235.518	93.35
235.735	136.36
235.953	48.3
236.17	52.39
236.388	1.19
236.605	64.68
236.822	95.4
237.04	21.67
237.257	60.59
237.475	-70.48
237.692	101.55
237.909	111.78
238.127	42.15
238.344	76.97
238.562	29.87
238.779	56.49
238.996	21.67
239.214	29.87
239.431	79.02
239.648	93.35
239.865	81.07
240.083	97.45
240.3	111.78
240.517	-86.87
240.735	76.97
240.952	93.35
241.169	111.78
241.386	9.39
241.603	48.3
241.821	-19.29
242.038	62.63
242.255	46.25
242.472	40.11
242.689	66.73
242.907	93.35
243.124	83.11
243.341	19.63
243.558	-4.95
243.775	19.63
243.992	-2.9
244.209	132.26
244.426	124.07
244.643	13.48
244.86	93.35
245.078	85.16
245.295	56.49
245.512	25.77
245.729	-0.85
245.946	93.35
246.163	87.21
246.38	9.39
246.597	27.82
246.814	68.78
247.031	5.29
247.248	48.3
247.464	15.53
247.681	44.2
247.898	81.07
248.115	109.74
248.332	-13.14
248.549	27.82
248.766	89.26
248.983	21.67
249.2	111.78
249.417	85.16
249.633	52.39
249.85	52.39
250.067	60.59
250.284	52.39
250.501	15.53
250.717	40.11
250.934	68.78
251.151	3.24
251.368	103.59
251.585	81.07
251.801	74.92
252.018	54.44
252.235	68.78
252.451	-60.24
252.668	33.96
252.885	68.78
253.102	60.59
253.318	44.2
253.535	66.73
253.752	74.92
253.968	11.43
254.185	36.01
254.401	52.39
254.618	93.35
254.835	9.39
255.051	64.68
255.268	101.55
255.484	58.54
255.701	79.02
255.917	117.93
256.134	9.39
256.351	-9.05
256.567	-9.05
256.784	46.25
257	-45.91
257.217	40.11
257.433	95.4
257.65	99.5
257.866	87.21
258.082	-4.95
258.299	5.29
258.515	105.64
258.732	50.35
258.948	36.01
259.165	101.55
259.381	-4.95
259.597	27.82
259.814	58.54
260.03	-27.48
260.246	68.78
260.463	115.88
260.679	68.78
260.895	-9.05
261.112	70.83
261.328	13.48
261.544	38.06
261.761	54.44
261.977	52.39
262.193	-43.86
262.409	38.06
262.626	9.39
262.842	46.25
263.058	-43.86
263.274	107.69
263.49	36.01
263.707	29.87
263.923	60.59
264.139	-35.67
264.355	-2.9
264.571	152.74
264.787	79.02
265.004	113.83
265.22	72.87
265.436	-15.19
265.652	-33.62
265.868	33.96
266.084	48.3
266.3	79.02
266.516	31.91
266.732	21.67
266.948	-13.14
267.164	76.97
267.38	68.78
267.596	99.5
267.812	68.78
268.028	64.68
268.244	52.39
268.46	7.34
268.676	64.68
268.892	23.72
269.108	-4.95
269.324	31.91
269.54	66.73
269.756	62.63
269.972	-4.95
270.188	-66.39
270.403	-2.9
270.619	42.15
270.835	70.83
271.051	62.63
271.267	-2.9
271.483	40.11
271.698	128.17
271.914	-13.14
272.13	97.45
272.346	-13.14
272.562	56.49
272.777	54.44
272.993	27.82
273.209	-7
273.425	21.67
273.64	58.54
273.856	103.59
274.072	-4.95
274.287	36.01
274.503	27.82
274.719	40.11
274.934	33.96
275.15	-74.58
275.366	128.17
275.581	-9.05
275.797	103.59
276.012	50.35
276.228	52.39
276.444	89.26
276.659	72.87
276.875	-15.19
277.09	93.35
277.306	56.49
277.521	167.08
277.737	124.07
277.952	111.78
278.168	44.2
278.383	105.64
278.599	19.63
278.814	25.77
279.03	60.59
279.245	70.83
279.461	21.67
279.676	81.07
279.892	11.43
280.107	11.43
280.322	31.91
280.538	36.01
280.753	3.24
280.969	93.35
281.184	31.91
281.399	148.65
281.615	48.3
281.83	62.63
282.045	-17.24
282.26	17.58
282.476	60.59
282.691	-62.29
282.906	105.64
283.122	97.45
283.337	9.39
283.552	83.11
283.767	44.2
283.983	99.5
284.198	66.73
284.413	52.39
284.628	23.72
284.843	11.43
285.058	5.29
285.274	66.73
285.489	21.67
285.704	87.21
285.919	-4.95
286.134	-13.14
286.349	-9.05
286.564	40.11
286.779	105.64
286.995	42.15
287.21	-27.48
287.425	25.77
287.64	50.35
287.855	72.87
288.07	-7
288.285	144.55
288.5	68.78
288.715	76.97
288.93	89.26
289.145	21.67
289.36	50.35
289.575	115.88
289.79	40.11
290.004	81.07
290.219	85.16
290.434	42.15
290.649	-23.38
290.864	-23.38
291.079	29.87
291.294	103.59
291.509	7.34
291.724	56.49
291.938	50.35
292.153	60.59
292.368	93.35
292.583	44.2
292.798	109.74
293.012	-13.14
293.227	74.92
293.442	134.31
293.657	187.56
293.871	140.46
294.086	113.83
294.301	52.39
294.516	138.41
294.73	-19.29
294.945	23.72
295.16	5.29
295.374	72.87
295.589	54.44
295.804	13.48
296.018	3.24
296.233	115.88
296.447	44.2
296.662	-11.09
296.877	85.16
297.091	93.35
297.306	-17.24
297.52	50.35
297.735	36.01
297.949	15.53
298.164	3.24
298.378	99.5
298.593	29.87
298.807	33.96
299.022	54.44
299.236	105.64
299.451	-2.9
299.665	58.54
299.88	19.63
300.094	5.29
300.309	1.19
300.523	23.72
300.737	56.49
300.952	68.78
301.166	38.06
301.381	52.39
301.595	29.87
301.809	-0.85
302.024	33.96
302.238	79.02
302.452	109.74
302.667	29.87
302.881	85.16
303.095	31.91
303.309	93.35
303.524	54.44
303.738	52.39
303.952	42.15
304.166	97.45
304.381	-21.33
304.595	119.98
304.809	-13.14
305.023	76.97
305.237	23.72
305.452	36.01
305.666	-4.95
305.88	60.59
306.094	70.83
306.308	-21.33
306.522	66.73
306.736	128.17
306.95	3.24
307.164	36.01
307.379	21.67
307.593	-9.05
307.807	66.73
308.021	31.91
308.235	76.97
308.449	5.29
308.663	44.2
308.877	62.63
309.091	50.35
309.305	103.59
309.519	-13.14
309.733	189.61
309.947	27.82
310.161	99.5
310.374	81.07
310.588	132.26
310.802	56.49
311.016	56.49
311.23	15.53
311.444	-4.95
311.658	58.54
311.872	70.83
312.085	115.88
312.299	48.3
312.513	113.83
312.727	70.83
312.941	36.01
313.154	158.89
313.368	-21.33
313.582	85.16
313.796	85.16
314.009	3.24
314.223	115.88
314.437	76.97
314.651	74.92
314.864	85.16
315.078	-4.95
315.292	23.72
315.505	113.83
315.719	97.45
315.933	113.83
316.146	128.17
316.36	-7
316.573	101.55
316.787	72.87
317.001	56.49
317.214	-4.95
317.428	58.54
317.641	70.83
317.855	64.68
318.068	33.96
318.282	76.97
318.495	97.45
318.709	79.02
318.922	15.53
319.136	119.98
319.349	48.3
319.563	42.15
319.776	56.49
319.99	27.82
320.203	83.11
320.417	3.24
320.63	74.92
320.843	134.31
321.057	79.02
321.27	93.35
321.483	105.64
321.697	107.69
321.91	-21.33
322.124	134.31
322.337	52.39
322.55	31.91
322.763	54.44
322.977	44.2
323.19	3.24
323.403	52.39
323.617	48.3
323.83	113.83
324.043	50.35
324.256	99.5
324.469	-15.19
324.683	42.15
324.896	87.21
325.109	17.58
325.322	-37.72
325.535	68.78
325.748	99.5
325.962	64.68
326.175	36.01
326.388	103.59
326.601	79.02
326.814	138.41
327.027	72.87
327.24	126.12
327.453	-27.48
327.666	128.17
327.879	48.3
328.092	76.97
328.305	122.02
328.518	50.35
328.731	17.58
328.944	36.01
329.157	58.54
329.37	103.59
329.583	93.35
329.796	103.59
330.009	-37.72
330.222	95.4
330.435	29.87
330.648	85.16
330.861	31.91
331.073	119.98
331.286	99.5
331.499	60.59
331.712	19.63
331.925	76.97
332.138	111.78
332.35	115.88
332.563	31.91
332.776	72.87
332.989	40.11
333.202	40.11
333.414	44.2
333.627	44.2
333.84	9.39
334.053	117.93
334.265	60.59
334.478	52.39
334.691	21.67
334.903	126.12
335.116	11.43
335.329	-4.95
335.541	68.78
335.754	113.83
335.966	60.59
336.179	91.31
336.392	33.96
336.604	36.01
336.817	23.72
337.029	64.68
337.242	46.25
337.454	-0.85
337.667	23.72
337.88	95.4
338.092	17.58
338.305	89.26
338.517	99.5
338.729	105.64
338.942	40.11
339.154	46.25
339.367	25.77
339.579	64.68
339.792	87.21
340.004	60.59
340.217	27.82
340.429	7.34
340.641	42.15
340.854	3.24
341.066	3.24
341.278	97.45
341.491	93.35
341.703	25.77
341.915	27.82
342.128	101.55
342.34	99.5
342.552	-47.96
342.764	-7
342.977	97.45
343.189	50.35
343.401	70.83
343.613	23.72
343.826	21.67
344.038	15.53
344.25	29.87
344.462	54.44
344.674	48.3
344.886	-19.29
345.099	101.55
345.311	54.44
345.523	56.49
345.735	29.87
345.947	79.02
346.159	99.5
346.371	87.21
346.583	95.4
346.795	81.07
347.007	40.11
347.219	-0.85
347.431	66.73
347.643	169.13
347.855	9.39
348.067	76.97
348.279	-37.72
348.491	29.87
348.703	5.29
348.915	46.25
349.127	19.63
349.339	87.21
349.551	1.19
349.763	101.55
349.975	44.2
350.187	134.31
350.399	115.88
350.61	60.59
350.822	1.19
351.034	54.44
351.246	17.58
351.458	-37.72
351.669	76.97
351.881	220.33
352.093	42.15
352.305	119.98
352.517	79.02
352.728	52.39
352.94	74.92
353.152	85.16
353.363	48.3
353.575	103.59
353.787	203.94
353.999	19.63
354.21	138.41
354.422	60.59
354.633	89.26
354.845	27.82
355.057	126.12
355.268	109.74
355.48	19.63
355.692	15.53
355.903	93.35
356.115	25.77
356.326	9.39
356.538	117.93
356.749	70.83
356.961	124.07
357.172	109.74
357.384	40.11
357.595	91.31
357.807	19.63
358.018	54.44
358.23	21.67
358.441	97.45
358.653	54.44
358.864	74.92
359.075	38.06
359.287	66.73
359.498	54.44
359.709	74.92
359.921	101.55
360.132	85.16
360.344	60.59
360.555	36.01
360.766	76.97
360.977	95.4
361.189	85.16
361.4	79.02
361.611	60.59
361.823	146.6
362.034	56.49
362.245	-31.57
362.456	27.82
362.667	-21.33
362.879	46.25
363.09	58.54
363.301	109.74
363.512	29.87
363.723	70.83
363.935	42.15
364.146	79.02
364.357	56.49
364.568	74.92
364.779	44.2
364.99	93.35
365.201	7.34
365.412	38.06
365.623	11.43
365.834	33.96
366.045	93.35
366.256	40.11
366.467	109.74
366.678	48.3
366.889	50.35
367.1	33.96
367.311	103.59
367.522	42.15
367.733	68.78
367.944	111.78
368.155	5.29
368.366	58.54
368.577	64.68
368.788	162.98
368.999	5.29
369.209	126.12
369.42	208.04
369.631	87.21
369.842	89.26
370.053	62.63
370.264	36.01
370.474	85.16
370.685	33.96
370.896	60.59
371.107	99.5
371.317	99.5
371.528	54.44
371.739	74.92
371.95	89.26
372.16	87.21
372.371	-11.09
372.582	42.15
372.792	101.55
373.003	124.07
373.214	38.06
373.424	91.31
373.635	23.72
373.846	74.92
374.056	99.5
374.267	99.5
374.477	165.03
374.688	3.24
374.898	62.63
375.109	60.59
375.319	25.77
375.53	109.74
375.74	76.97
375.951	99.5
376.161	42.15
376.372	117.93
376.582	3.24
376.793	46.25
377.003	44.2
377.214	93.35
377.424	54.44
377.635	5.29
377.845	33.96
378.055	113.83
378.266	19.63
378.476	109.74
378.686	70.83
378.897	50.35
379.107	72.87
379.317	64.68
379.528	85.16
379.738	91.31
379.948	5.29
380.158	175.27
380.369	165.03
380.579	70.83
380.789	40.11
380.999	117.93
381.21	85.16
381.42	76.97
381.63	46.25
381.84	50.35
382.05	74.92
382.261	103.59
382.471	101.55
382.681	19.63
382.891	187.56
383.101	68.78
383.311	21.67
383.521	46.25
383.731	111.78
383.941	105.64
384.151	117.93
384.361	85.16
384.571	48.3
384.781	42.15
384.991	70.83
385.201	113.83
385.411	150.7
385.621	117.93
385.831	70.83
386.041	72.87
386.251	-23.38
386.461	62.63
386.671	87.21
386.881	79.02
387.091	76.97
387.301	126.12
387.511	91.31
387.72	79.02
387.93	72.87
388.14	25.77
388.35	107.69
388.56	46.25
388.769	124.07
388.979	105.64
389.189	-13.14
389.399	109.74
389.609	173.22
389.818	93.35
390.028	60.59
390.238	142.5
390.447	23.72
390.657	173.22
390.867	66.73
391.076	29.87
391.286	140.46
391.496	62.63
391.705	74.92
391.915	103.59
392.125	62.63
392.334	52.39
392.544	60.59
392.753	107.69
392.963	126.12
393.172	93.35
393.382	33.96
393.591	144.55
393.801	111.78
394.01	216.23
394.22	89.26
394.429	42.15
394.639	140.46
394.848	130.22
395.058	81.07
395.267	60.59
395.477	56.49
395.686	179.37
395.895	136.36
396.105	183.46
396.314	74.92
396.524	144.55
396.733	42.15
396.942	85.16
397.152	72.87
397.361	101.55
397.57	115.88
397.78	62.63
397.989	62.63
398.198	177.32
398.407	54.44
398.617	111.78
398.826	97.45
399.035	97.45
399.244	122.02
399.453	126.12
399.663	101.55
399.872	150.7
400.081	81.07
400.29	126.12
400.499	42.15
400.708	152.74
400.917	111.78
401.127	89.26
401.336	138.41
401.545	232.62
401.754	95.4
401.963	175.27
402.172	101.55
402.381	62.63
402.59	109.74
402.799	87.21
403.008	154.79
403.217	142.5
403.426	140.46
403.635	160.94
403.844	128.17
404.053	111.78
404.262	156.84
404.471	249
404.68	154.79
404.888	171.18
405.097	70.83
405.306	193.7
405.515	160.94
405.724	154.79
405.933	146.6
406.142	238.76
406.35	214.18
406.559	179.37
406.768	203.94
406.977	298.15
407.185	255.14
407.394	244.9
407.603	201.9
407.812	165.03
408.02	259.24
408.229	203.94
408.438	185.51
408.646	289.96
408.855	289.96
409.064	353.45
409.272	283.81
409.481	326.82
409.69	316.58
409.898	220.33
410.107	353.45
410.315	289.96
410.524	308.39
410.733	386.21
410.941	294.05
411.15	527.52
411.358	347.3
411.567	488.61
411.775	398.5
411.984	404.64
412.192	445.6
412.401	445.6
412.609	502.95
412.818	511.14
413.026	457.89
413.234	486.56
413.443	515.23
413.651	531.62
413.86	564.39
414.068	603.3
414.276	724.13
414.485	625.83
414.693	681.12
414.901	613.54
415.11	781.47
415.318	713.89
415.526	634.02
415.734	746.66
415.943	804
416.151	830.62
416.359	875.68
416.567	926.88
416.776	867.49
416.984	959.64
417.192	1057.95
417.4	920.73
417.608	918.68
417.817	1027.23
418.025	1148.06
418.233	1150.11
418.441	1027.23
418.649	1168.54
418.857	1291.41
419.065	1408.15
419.273	1338.52
419.481	1291.41
419.689	1404.05
419.897	1465.49
420.105	1563.79
420.313	1498.26
420.521	1510.55
420.729	1684.62
420.937	1623.19
421.145	1682.58
421.353	1791.12
421.561	1852.56
421.769	1942.67
421.977	2002.06
422.185	2032.78
422.393	2118.79
422.601	2315.4
422.809	2149.51
423.017	2303.11
423.224	2292.87
423.432	2550.92
423.64	2462.85
423.848	2788.48
424.056	2587.78
424.263	2708.61
424.471	2802.82
424.679	2989.18
424.887	3060.86
425.094	3124.35
425.302	3073.15
425.51	3165.31
425.718	3275.9
425.925	3251.32
426.133	3505.27
426.341	3755.12
426.548	3888.24
426.756	3763.31
426.964	3765.36
427.171	4068.46
427.379	4232.3
427.586	4392.04
427.794	4461.67
428.001	4611.17
428.209	4949.09
428.417	4734.05
428.624	5090.4
428.832	5256.28
429.039	5082.21
429.247	5086.3
429.454	5612.63
429.662	5938.26
429.869	5600.34
430.076	6026.32
430.284	5827.67
430.491	6059.09
430.699	6237.26
430.906	6417.48
431.114	6499.4
431.321	6530.12
431.528	6935.62
431.736	7029.82
431.943	7568.44
432.15	7390.27
432.358	7267.39
432.565	7883.83
432.772	7611.45
432.979	8358.96
433.187	8512.55
433.394	8389.67
433.601	8956.96
433.808	9073.7
434.016	9065.5
434.223	9305.12
434.43	9772.05
434.637	9698.33
434.844	10245.13
435.052	10669.06
435.259	10335.24
435.466	10437.64
435.673	10361.87
435.88	10941.44
436.087	11721.72
436.294	11736.06
436.501	11387.9
436.708	11711.48
436.915	12096.5
437.122	12538.86
437.329	12502
437.537	12856.29
437.743	13136.87
437.95	13173.73
438.157	13855.7
438.364	14015.44
438.571	14224.34
438.778	14586.83
438.985	15780.79
439.192	14924.74
439.399	15381.44
439.606	15338.43
439.813	15887.29
440.02	17056.68
440.227	16774.06
440.433	16395.18
440.64	17099.69
440.847	16731.05
441.054	17363.87
441.261	18535.31
441.467	18330.51
441.674	18574.22
441.881	19237.77
442.088	19237.77
442.294	19327.88
442.501	19618.69
442.708	20001.66
442.914	20890.48
443.121	21570.4
443.328	21160.81
443.534	22512.47
443.741	21830.49
443.948	21334.89
444.154	23239.5
444.361	23294.79
444.568	23640.9
444.774	23509.83
444.981	23575.36
445.187	24339.26
445.394	25439.01
445.6	24871.73
445.807	27308.81
446.013	26299.16
446.22	26893.07
446.426	27953.92
446.633	27835.14
446.839	28934.9
447.046	27972.35
447.252	29401.83
447.459	29551.34
447.665	29686.5
447.871	30544.6
448.078	31648.46
448.284	30567.13
448.491	31451.85
448.697	32750.26
448.903	33340.08
449.11	33180.34
449.316	32750.26
449.522	33245.87
449.728	34357.92
449.935	34603.67
450.141	34499.23
450.347	35429.01
450.553	34288.29
450.76	34749.08
450.966	35969.67
451.172	35687.05
451.378	36442.75
451.584	36145.8
451.791	36563.58
451.997	36440.7
452.203	37235.31
452.409	36952.69
452.615	37270.13
452.821	35611.28
453.027	35162.77
453.233	37372.53
453.44	35797.64
453.646	36283.01
453.852	36665.98
454.058	37192.31
454.264	35719.82
454.47	36559.48
454.676	35930.76
454.882	37466.73
455.088	33594.03
455.294	34173.6
455.5	34663.07
455.705	35566.22
455.911	34079.39
456.117	33221.3
456.323	32760.5
456.529	31214.29
456.735	32613.05
456.941	31638.22
457.147	30931.67
457.352	30085.86
457.558	29842.15
457.764	29985.51
457.97	29450.99
458.176	29020.91
458.381	28924.66
458.587	27771.65
458.793	27683.59
458.999	25813.79
459.204	27812.61
459.41	27075.34
459.616	25430.82
459.821	25353
460.027	25428.77
460.233	24603.44
460.438	23853.89
460.644	24007.48
460.85	22604.63
461.055	22365.01
461.261	22426.45
461.466	20636.53
461.672	20054.9
461.878	21435.24
462.083	19991.42
462.289	19747.71
462.494	19598.21
462.7	18531.22
462.905	18045.85
463.111	18803.6
463.316	18606.99
463.522	18109.33
463.727	18568.08
463.932	18303.89
464.138	18000.79
464.343	17902.49
464.549	17521.57
464.754	18215.83
464.959	17994.65
465.165	17994.65
465.37	17150.88
465.575	16518.06
465.781	17494.94
465.986	17466.27
466.191	16956.33
466.397	16595.89
466.602	15772.6
466.807	16503.73
467.012	16522.16
467.218	16260.02
467.423	16165.81
467.628	16350.13
467.833	17042.34
468.038	16077.75
468.244	15844.28
468.449	16481.2
468.654	15909.82
468.859	15731.64
469.064	15584.19
469.269	15236.03
469.474	14842.82
469.679	15565.76
469.885	15242.18
470.09	15229.89
470.295	15260.61
470.5	14744.52
470.705	14863.3
470.91	14640.08
471.115	14361.55
471.32	14785.48
471.525	14678.99
471.73	14273.49
471.935	14046.16
472.139	13493.21
472.344	14113.75
472.549	13759.45
472.754	13489.12
472.959	13173.73
473.164	12837.86
473.369	13061.09
473.574	13380.57
473.778	13296.61
473.983	13009.89
474.188	13063.14
474.393	12553.2
474.598	12336.11
474.802	12141.55
475.007	12172.27
475.212	12358.64
475.417	11873.27
475.621	11922.42
475.826	11875.32
476.031	11807.73
476.235	11400.19
476.44	11807.73
476.645	11392
476.849	11357.18
477.054	11275.26
477.259	11000.83
477.463	11195.39
477.668	10685.45
477.872	11252.73
478.077	10791.94
478.282	10474.51
478.486	10435.6
478.691	10320.91
478.895	10130.45
479.1	10476.55
479.304	10451.98
479.509	9880.6
479.713	10296.33
479.918	9970.71
480.122	9776.15
480.326	9858.07
480.531	9935.89
480.735	9829.4
480.94	9864.21
481.144	9813.01
481.348	9735.19
481.553	9741.33
481.757	9534.49
481.961	9808.92
482.166	9995.28
482.37	9477.15
482.574	9507.87
482.778	9530.39
482.983	9683.99
483.187	9282.59
483.391	9710.61
483.595	9487.39
483.8	9493.53
484.004	9532.44
484.208	9612.31
484.412	9688.09
484.616	9524.25
484.821	9636.89
485.025	9278.49
485.229	9579.54
485.433	9456.67
485.637	9514.01
485.841	9481.24
486.045	9538.59
486.249	9323.55
486.453	9493.53
486.657	9532.44
486.861	9495.58
487.065	9292.83
487.269	9442.33
487.473	9401.37
487.677	9600.02
487.881	9585.69
488.085	9333.79
488.289	9583.64
488.493	9493.53
488.697	9640.98
488.901	9581.59
489.105	9380.89
489.309	9479.19
489.512	9575.45
489.716	9645.08
489.92	9731.09
490.124	9675.8
490.328	9851.92
490.531	9585.69
490.735	9796.63
490.939	9516.06
491.143	9784.34
491.346	9552.92
491.55	10181.65
491.754	9958.42
491.958	9853.97
492.161	9987.09
492.365	10105.87
492.569	10054.67
492.772	9931.8
492.976	9991.19
493.18	10130.45
493.383	10349.58
493.587	10046.48
493.79	10316.81
493.994	10112.02
494.197	10546.19
494.401	10552.33
494.605	10521.61
494.808	10732.55
495.012	10859.52
495.215	10959.88
495.419	11052.03
495.622	10636.3
495.825	11027.46
496.029	11185.15
496.232	11332.61
496.436	11187.2
496.639	11553.79
496.843	11299.84
497.046	11533.31
497.249	11768.82
497.453	11848.69
497.656	11842.55
497.859	11885.56
498.063	12106.74
498.266	12428.27
498.469	12176.37
498.673	12487.66
498.876	12596.2
499.079	12780.52
499.282	12631.02
499.485	13161.44
499.689	13186.02
499.892	13327.33
500.095	13159.39
500.298	13405.15
500.501	13515.74
500.705	14062.55
500.908	14037.97
501.111	13999.06
501.314	14326.74
501.517	14525.39
501.72	14339.02
501.923	14296.02
502.126	14971.85
502.329	15168.45
502.532	15150.02
502.735	15055.81
502.938	15383.49
503.141	15651.77
503.344	16081.85
503.547	15619
503.75	16192.44
503.953	16571.31
504.156	16493.49
504.359	16780.2
504.562	16763.82
504.765	17021.86
504.968	17304.48
505.17	17343.39
505.373	17531.81
505.576	17814.43
505.779	17957.78
505.982	18080.66
506.185	18348.95
506.387	18768.78
506.59	18623.37
506.793	19059.59
506.996	19010.44
507.198	19344.26
507.401	19544.96
507.604	19665.79
507.807	19950.46
508.009	19983.23
508.212	20495.22
508.415	20691.82
508.617	20910.96
508.82	21011.31
509.022	20546.42
509.225	21521.25
509.428	21341.03
509.63	21836.64
509.833	21732.19
510.035	22455.12
510.238	22152.02
510.44	22459.22
510.643	22924.11
510.845	23190.34
511.048	22723.41
511.25	23294.79
511.453	23671.62
511.655	24298.3
511.858	23774.02
512.06	24163.13
512.262	24351.54
512.465	24568.63
512.667	25082.67
512.87	24990.51
513.072	25144.11
513.274	25729.83
513.477	25873.18
513.679	26028.83
513.881	26413.85
514.084	26477.33
514.286	26665.75
514.488	26604.31
514.69	27663.11
514.893	27595.53
515.095	27499.27
515.297	27755.27
515.499	28011.26
515.701	28445.43
515.904	28816.11
516.106	28938.99
516.308	28789.49
516.51	29713.13
516.712	29563.62
516.914	29979.36
517.116	30169.82
517.318	30245.6
517.52	30464.73
517.722	30296.8
517.925	31322.83
518.127	31408.84
518.329	31871.68
518.531	31726.28
518.733	32234.17
518.935	32365.24
519.136	32457.4
519.338	32993.97
519.54	33055.41
519.742	33628.84
519.944	33716.9
520.146	34343.58
520.348	34042.53
520.55	34509.47
520.752	35093.14
520.954	35050.13
521.155	34945.69
521.357	35527.31
521.559	35707.53
521.761	36121.22
521.963	36012.68
522.164	36444.8
522.366	36641.4
522.568	36602.49
522.77	37122.68
522.971	37347.95
523.173	37282.42
523.375	37882.47
523.576	37587.57
523.778	37632.62
523.98	38167.14
524.181	38541.92
524.383	38752.86
524.584	39025.24
524.786	38799.96
524.988	39125.59
525.189	39432.78
525.391	39664.21
525.592	39922.25
525.794	39957.06
525.995	40073.8
526.197	40247.88
526.398	40329.8
526.6	41112.12
526.801	40512.06
527.003	41230.9
527.204	41165.37
527.406	41267.76
527.607	41185.85
527.808	41527.86
528.01	41015.86
528.211	41280.05
528.412	42383.91
528.614	42152.49
528.815	41996.84
529.016	42453.54
529.218	42187.3
529.419	41984.55
529.62	42510.88
529.822	42682.91
530.023	42752.54
530.224	42607.14
530.425	42351.14
530.626	42639.9
530.828	42095.14
531.029	43323.93
531.23	42590.75
531.431	42789.41
531.632	43258.39
531.833	43405.84
532.035	43096.6
532.236	43278.87
532.437	43901.45
532.638	43178.52
532.839	43866.64
533.04	43651.6
533.241	43239.96
533.442	43880.97
533.643	43485.72
533.844	43928.08
534.045	43649.55
534.246	43332.12
534.447	44196.36
534.648	43631.12
534.849	44237.32
535.05	43979.28
535.251	43557.39
535.451	43627.02
535.652	43854.35
535.853	44020.23
536.054	43909.64
536.255	44304.9
536.456	43500.05
536.657	44132.87
536.857	43815.44
537.058	43315.73
537.259	44302.85
537.46	43891.21
537.66	44036.62
537.861	44046.86
538.062	43657.74
538.263	44081.67
538.463	43657.74
538.664	44079.63
538.865	43893.26
539.065	44456.45
539.266	43977.23
539.466	44077.58
539.667	44059.15
539.868	44132.87
540.068	43995.66
540.269	43592.21
540.469	43676.18
540.67	43885.07
540.87	43702.8
541.071	44020.23
541.271	44270.09
541.472	44155.4
541.672	43612.69
541.873	43287.06
542.073	43350.55
542.274	44175.88
542.474	43731.47
542.675	43532.82
542.875	43999.76
543.075	43866.64
543.276	43147.8
543.476	44397.06
543.676	43422.23
543.877	43647.5
544.077	44329.48
544.277	43561.49
544.478	43420.18
544.678	43624.98
544.878	43551.25
545.078	43821.58
545.279	43387.41
545.479	43371.03
545.679	43450.9
545.879	43426.32
546.079	43485.72
546.28	43598.35
546.48	43184.66
546.68	43749.9
546.88	43538.96
547.08	43960.84
547.28	43794.96
547.48	42832.41
547.68	43432.47
547.88	43471.38
548.081	43686.42
548.281	43651.6
548.481	43409.94
548.681	43514.39
548.881	43573.78
549.081	43366.93
549.28	43184.66
549.48	43373.08
549.68	43612.69
549.88	43964.94
550.08	43008.54
550.28	43188.76
550.48	43110.94
550.68	43414.04
550.88	43094.55
551.08	43135.51
551.279	43205.14
551.479	43082.27
551.679	43491.86
551.879	42805.79
552.079	43199
552.278	42826.27
552.478	43254.29
552.678	43207.19
552.878	43350.55
553.077	43153.94
553.277	42617.38
553.477	43508.24
553.676	42637.86
553.876	43039.26
554.076	42967.58
554.275	42795.55
554.475	42306.09
554.674	43174.42
554.874	43235.86
555.074	42695.2
555.273	43059.74
555.473	43000.35
555.672	42394.15
555.872	42455.59
556.071	42807.84
556.271	42795.55
556.47	42537.51
556.67	42334.76
556.869	42641.95
557.068	42168.87
557.268	41812.52
557.467	42379.81
557.667	42105.38
557.866	42246.69
558.065	42050.09
558.265	42152.49
558.464	41902.64
558.663	42428.96
558.863	41761.33
559.062	42584.61
559.261	41689.65
559.461	42314.28
559.66	41536.05
559.859	41673.26
560.058	41476.66
560.258	41804.33
560.457	41386.55
560.656	41951.79
560.855	41120.31
561.054	41691.69
561.253	41210.42
561.453	41536.05
561.652	41382.45
561.851	41515.57
562.05	41046.58
562.249	40550.98
562.448	41546.29
562.647	40798.78
562.846	40798.78
563.045	40819.26
563.244	40725.05
563.443	41007.67
563.642	39940.68
563.841	40561.22
564.04	40557.12
564.239	40716.86
564.438	40165.96
564.637	40385.09
564.836	40405.57
565.035	39768.65
565.234	39912.01
565.432	40038.98
565.631	39602.77
565.83	40221.25
566.029	39606.86
566.228	39711.31
566.427	39242.32
566.625	38814.3
566.824	38945.37
567.023	39395.92
567.222	38603.36
567.42	39483.98
567.619	39031.38
567.818	38931.03
568.016	38505.06
568.215	39119.45
568.414	38621.79
568.612	38662.75
568.811	38672.99
569.01	38677.08
569.208	38013.54
569.407	38558.3
569.605	37868.14
569.804	38255.2
570.002	37755.5
570.201	38404.7
570.4	37943.91
570.598	37644.91
570.797	37698.16
570.995	37603.95
571.193	37278.32
571.392	37773.93
571.59	37476.97
571.789	37360.24
571.987	37401.2
572.186	37319.28
572.384	37188.21
572.582	37143.16
572.781	37395.06
572.979	36588.16
573.177	36881.02
573.376	36567.68
573.574	35988.1
573.772	36737.66
573.971	36043.4
574.169	36252.29
574.367	36090.5
574.565	36125.32
574.763	36121.22
574.962	35877.51
575.16	35625.61
575.358	35662.47
575.556	35416.72
575.754	35969.67
575.952	35289.74
576.151	35592.84
576.349	35222.16
576.547	35248.78
576.745	35414.67
576.943	35289.74
577.141	35302.03
577.339	34816.66
577.537	35060.37
577.735	34796.18
577.933	34534.04
578.131	34695.83
578.329	34376.35
578.527	34192.03
578.725	34267.81
578.923	34423.45
579.121	34402.97
579.319	33729.19
579.516	34220.7
579.714	34282.14
579.912	33850.02
580.11	34042.53
580.308	33716.9
580.506	33766.06
580.704	33149.62
580.901	33475.24
581.099	33845.93
581.297	33227.44
581.495	33411.76
581.692	33389.23
581.89	33020.59
582.088	33133.23
582.285	32776.89
582.483	33174.19
582.681	32944.82
582.878	32572.09
583.076	32049.86
583.274	32758.45
583.471	32197.31
583.669	32383.68
583.866	32017.09
584.064	32144.06
584.262	31996.61
584.459	31969.99
584.657	31898.31
584.854	32178.88
585.052	31683.27
585.249	32000.71
585.447	31638.22
585.644	31494.86
585.841	31541.96
586.039	31517.39
586.236	31220.43
586.434	31103.7
586.631	30999.25
586.828	31128.27
587.026	31072.98
587.223	31132.37
587.42	30851.8
587.618	30835.41
587.815	30550.74
588.012	30253.79
588.21	30362.33
588.407	30997.2
588.604	30651.09
588.801	30210.78
588.999	30198.49
589.196	30182.11
589.393	29811.43
589.59	29866.72
589.787	29793
589.984	29739.75
590.182	29631.21
590.379	29704.93
590.576	29524.71
590.773	29844.2
590.97	28992.24
591.167	29160.17
591.364	28629.75
591.561	28891.89
591.758	28435.19
591.955	28672.76
592.152	28875.51
592.349	28529.4
592.546	28803.83
592.743	28322.55
592.94	28173.05
593.137	28277.5
593.334	28619.51
593.531	27820.8
593.727	27929.34
593.924	28269.31
594.121	27937.54
594.318	28166.91
594.515	27919.1
594.712	27767.55
594.908	27616.01
595.105	27732.74
595.302	27144.97
595.499	27642.63
595.696	27357.96
595.892	27171.6
596.089	27247.37
596.286	27183.88
596.482	26979.09
596.679	26854.16
596.876	26739.47
597.072	26706.71
597.269	26845.97
597.466	26483.48
597.662	26589.97
597.859	26518.29
598.055	26561.3
598.252	26374.94
598.448	25891.62
598.645	26006.3
598.841	25791.27
599.038	26250.01
599.234	25807.65
599.431	25467.69
599.627	25549.6
599.824	25684.77
600.02	25592.61
600.217	25553.7
600.413	25553.7
600.609	25406.25
600.806	25017.13
601.002	25412.39
601.198	24931.12
601.395	25101.1
601.591	24859.44
601.787	25021.23
601.984	24777.52
602.18	25209.64
602.376	24558.39
602.572	24441.65
602.769	24881.97
602.965	24556.34
603.161	24247.1
603.357	24052.54
603.553	24165.18
603.75	24228.66
603.946	23894.85
604.142	24140.6
604.338	23966.52
604.534	24077.12
604.73	23520.07
604.926	23685.95
605.122	23587.65
605.318	23608.13
605.514	23472.96
605.71	23464.77
605.906	23487.3
606.102	23589.7
606.298	23079.75
606.494	23507.78
606.69	23460.68
606.886	23409.48
607.082	22866.77
607.278	23051.08
607.474	22778.7
607.67	22883.15
607.866	22573.91
608.062	22877.01
608.257	22770.51
608.453	22289.24
608.649	22752.08
608.845	22506.32
609.041	22584.15
609.236	22772.56
609.432	22567.76
609.628	22408.02
609.824	22457.17
610.019	22002.52
610.215	22197.08
610.411	22113.11
610.606	22281.05
610.802	22219.61
610.998	22121.31
611.193	21965.66
611.389	21812.06
611.584	21867.36
611.78	22055.77
611.976	21781.34
612.171	21613.41
612.367	21594.98
612.562	21672.8
612.758	21359.46
612.953	21240.68
613.149	21672.8
613.344	21488.48
613.539	21625.7
613.735	21472.1
613.93	21695.33
614.126	21457.76
614.321	21392.23
614.517	21414.76
614.712	21189.48
614.907	21158.76
615.103	21109.61
615.298	21121.9
615.493	21062.51
615.688	20732.78
615.884	21175.14
616.079	20763.5
616.274	20849.52
616.47	20732.78
616.665	20890.48
616.86	20511.6
617.055	20716.4
617.25	20536.18
617.445	20734.83
617.641	20194.17
617.836	20349.81
618.031	20376.44
618.226	20521.84
618.421	20294.52
618.616	20165.49
618.811	20032.38
619.006	20331.38
619.201	19923.83
619.396	19956.6
619.591	19501.95
619.786	19755.9
619.981	19499.91
620.176	19643.26
620.371	19301.25
620.566	19569.54
620.761	19311.49
620.956	19567.49
621.151	19323.78
621.346	19241.86
621.541	18848.65
621.735	19157.89
621.93	18852.75
622.125	18776.97
622.32	18596.75
622.515	18772.88
622.709	18441.11
622.904	18537.36
623.099	18465.68
623.294	18267.03
623.488	18213.78
623.683	18133.91
623.878	17783.71
624.072	18051.99
624.267	17869.72
624.462	17681.31
624.656	17599.39
624.851	17752.99
625.046	17265.57
625.24	17347.49
625.435	17099.69
625.629	17226.66
625.824	17111.97
626.018	16874.41
626.213	16526.25
626.407	17050.53
626.602	16579.5
626.796	16898.98
626.991	16536.49
627.185	16380.85
627.38	16446.38
627.574	16350.13
627.768	16227.25
627.963	16026.55
628.157	15932.34
628.352	16081.85
628.546	15911.86
628.74	15797.18
628.935	15750.07
629.129	15659.96
629.323	15403.97
629.517	15623.1
629.712	15295.43
629.906	15211.46
630.1	15229.89
630.294	15268.8
630.489	14685.13
630.683	15131.59
630.877	14861.26
631.071	14971.85
631.265	14846.92
631.459	14638.03
631.653	14732.23
631.848	14494.67
632.042	14453.71
632.236	14627.79
632.43	14187.47
632.624	14296.02
632.818	14310.35
633.012	14085.08
633.206	13980.63
633.4	13964.25
633.594	13814.74
633.788	13751.26
633.982	13917.14
634.176	13591.52
634.369	13546.46
634.563	13628.38
634.757	13657.05
634.951	13646.81
635.145	13274.08
635.339	13167.59
635.533	13200.35
635.726	13095.91
635.92	13171.68
636.114	12848.1
636.308	12913.64
636.501	12579.82
636.695	12639.21
636.889	12749.8
637.083	12471.28
637.276	12698.6
637.47	12264.43
637.664	12323.82
637.857	12440.56
638.051	12387.31
638.244	12235.76
638.438	12266.48
638.632	12284.91
638.825	12004.34
639.019	12106.74
639.212	11742.2
639.406	12028.92
639.599	11858.93
639.793	11897.85
639.986	11777.01
640.18	11652.09
640.373	11691
640.567	11256.83
640.76	11533.31
640.954	11416.57
641.147	11068.42
641.34	11105.28
641.534	11115.52
641.727	11125.76
641.92	11299.84
642.114	11031.55
642.307	11025.41
642.5	10933.25
642.694	10837
642.887	10779.65
643.08	10855.43
643.273	10714.12
643.467	10589.19
643.66	10581
643.853	10384.4
644.046	10365.96
644.239	10368.01
644.432	10284.05
644.626	9960.47
644.819	10241.04
645.012	10075.15
645.205	10359.82
645.398	9993.23
645.591	9948.18
645.784	9948.18
645.977	9786.39
646.17	9788.44
646.363	9950.23
646.556	9579.54
646.749	9649.18
646.942	9683.99
647.135	9659.42
647.328	9565.21
647.521	9487.39
647.714	9573.4
647.907	9563.16
648.099	9534.49
648.292	9274.4
648.485	9315.36
648.678	9225.25
648.871	9088.03
649.064	8981.54
649.256	9223.2
649.449	9030.69
649.642	8905.76
649.835	8680.49
650.027	8864.8
650.22	8885.28
650.413	8721.45
650.605	8686.63
650.798	8723.49
650.991	8569.9
651.183	8586.28
651.376	8451.11
651.568	8662.05
651.761	8582.18
651.954	8438.83
652.146	8279.08
652.339	8358.96
652.531	8408.11
652.724	8182.83
652.916	8053.81
653.109	8014.9
653.301	8096.82
653.494	8289.32
653.686	8076.34
653.879	8008.75
654.071	7793.72
654.263	7758.9
654.456	7836.72
654.648	8102.96
654.84	7836.72
655.033	7939.12
655.225	7670.84
655.417	7564.34
655.61	7695.41
655.802	7685.17
655.994	7496.76
656.186	7658.55
656.379	7588.92
656.571	7463.99
656.763	7486.52
656.955	7531.58
657.148	7402.55
657.34	7455.8
657.532	7195.71
657.724	7248.96
657.916	7228.48
658.108	7298.11
658.3	7314.49
658.492	7339.07
658.684	7003.2
658.876	6941.76
659.068	7130.17
659.26	7035.97
659.452	7119.93
659.644	6859.84
659.836	6841.41
660.028	6976.58
660.22	6870.08
660.412	6843.46
660.604	6687.81
660.796	6704.2
660.988	6724.68
661.18	6509.64
661.372	6708.29
661.563	6630.47
661.755	6523.98
661.947	6556.74
662.139	6577.22
662.331	6364.23
662.522	6417.48
662.714	6509.64
662.906	6329.42
663.097	6298.7
663.289	6237.26
663.481	6247.5
663.673	6376.52
663.864	6335.56
664.056	6085.71
664.247	6089.81
664.439	6181.96
664.631	6186.06
664.822	6110.29
665.014	6118.48
665.205	6001.74
665.397	6030.41
665.588	5921.87
665.78	6007.89
665.971	5876.82
666.163	6018.13
666.354	5794.9
666.546	5921.87
666.737	5868.63
666.929	5844.05
667.12	5657.68
667.311	5614.68
667.503	5612.63
667.694	5698.64
667.885	5852.24
668.077	5784.66
668.268	5778.51
668.459	5784.66
668.651	5622.87
668.842	5506.13
669.033	5512.28
669.224	5606.49
669.416	5536.85
669.607	5426.26
669.798	5356.63
669.989	5606.49
670.18	5495.89
670.371	5436.5
670.563	5370.97
670.754	5350.49
670.945	5545.05
671.136	5258.33
671.327	5200.99
671.518	5184.6
671.709	5510.23
671.9	5299.29
672.091	5268.57
672.282	5155.93
672.473	5282.91
672.664	5143.64
672.855	5182.56
673.046	5325.91
673.237	5235.8
673.428	5323.87
673.619	5209.18
673.809	5235.8
674	5393.5
674.191	5227.61
674.382	5053.53
674.573	5049.44
674.764	4979.81
674.954	5194.84
675.145	5059.68
675.336	5205.08
675.527	5010.53
675.717	5151.84
675.908	5114.97
676.099	5239.9
676.289	5049.44
676.48	5053.53
676.671	5020.77
676.861	5102.68
677.052	4957.28
677.243	4942.94
677.433	5051.49
677.624	4901.98
677.814	4971.61
678.005	4957.28
678.195	4942.94
678.386	4955.23
678.576	4869.22
678.767	4918.37
678.957	4988
679.148	4869.22
679.338	4992.09
679.529	5151.84
679.719	4885.6
679.909	4988
680.1	4975.71
680.29	4904.03
680.481	4951.14
680.671	4910.18
680.861	4932.7
681.052	5035.1
681.242	4910.18
681.432	4912.22
681.622	4961.37
681.813	4826.21
682.003	4985.95
682.193	4879.46
682.383	4959.33
682.573	4658.28
682.764	4748.39
682.954	4934.75
683.144	4992.09
683.334	4850.78
683.524	4729.95
683.714	4863.07
683.904	4818.02
684.094	4815.97
684.284	4879.46
684.474	4893.79
684.664	4813.92
684.854	4904.03
685.044	4824.16
685.234	4641.89
685.424	4709.47
685.614	4721.76
685.804	4768.87
685.994	4709.47
686.184	4719.71
686.374	4848.74
686.564	4684.9
686.753	4693.09
686.943	4627.56
687.133	4602.98
687.323	4590.69
687.513	4453.48
687.702	4541.54
687.892	4547.69
688.082	4559.97
688.272	4707.43
688.461	4465.77
688.651	4418.66
688.841	4496.49
689.03	4338.79
689.22	4461.67
689.41	4240.49
689.599	4414.57
689.789	4416.62
689.979	4379.75
690.168	4254.83
690.358	4152.43
690.547	4181.1
690.737	4250.73
690.926	4254.83
691.116	4084.84
691.305	4164.72
691.495	4248.68
691.684	4070.51
691.874	4117.61
692.063	4283.5
692.252	4238.44
692.442	4238.44
692.631	3937.39
692.82	4179.05
693.01	3988.59
693.199	3941.49
693.388	3957.87
693.578	3837.04
693.767	3853.42
693.956	3955.82
694.146	3837.04
694.335	3787.89
694.524	3855.47
694.713	3892.34
694.902	3806.32
695.092	3875.95
695.281	3824.75
695.47	3777.65
695.659	3820.66
695.848	3834.99
696.037	3781.74
696.226	3771.51
696.415	3683.44
696.604	3882.1
696.793	3765.36
696.982	3791.98
697.171	3826.8
697.36	3892.34
697.549	3640.44
697.738	3779.7
697.927	3669.11
698.116	3632.24
698.305	3720.31
698.494	3720.31
698.683	3699.83
698.872	3562.61
699.061	3675.25
699.25	3611.76
699.438	3673.2
699.627	3630.2
699.816	3650.67
700.005	3540.08
700.193	3634.29
700.382	3562.61
700.571	3652.72
700.76	3669.11
700.948	3587.19
701.137	3671.15
701.326	3640.44
701.514	3488.89
701.703	3599.48
701.892	3509.37
702.08	3622
702.269	3638.39
702.457	3562.61
702.646	3622
702.834	3570.8
703.023	3609.72
703.212	3669.11
703.4	3660.91
703.589	3550.32
703.777	3581.04
703.965	3607.67
704.154	3583.09
704.342	3548.28
704.531	3562.61
704.719	3597.43
704.907	3738.74
705.096	3591.28
705.284	3542.13
705.472	3497.08
705.661	3558.52
705.849	3675.25
706.037	3587.19
706.226	3628.15
706.414	3734.64
706.602	3652.72
706.79	3662.96
706.979	3607.67
707.167	3599.48
707.355	3728.5
707.543	3632.24
707.731	3632.24
707.919	3611.76
708.107	3675.25
708.296	3476.6
708.484	3601.52
708.672	3576.95
708.86	3595.38
709.048	3681.39
709.236	3617.91
709.424	3615.86
709.612	3679.35
709.8	3632.24
709.988	3667.06
710.176	3648.63
710.364	3771.51
710.551	3714.16
710.739	3669.11
710.927	3726.45
711.115	3681.39
711.303	3730.55
711.491	3630.2
711.679	3597.43
711.866	3638.39
712.054	3705.97
712.242	3687.54
712.43	3781.74
712.617	3748.98
712.805	3773.55
712.993	3697.78
713.181	3697.78
713.368	3867.76
713.556	3736.69
713.744	3642.48
713.931	3619.96
714.119	3687.54
714.306	3697.78
714.494	3771.51
714.682	3808.37
714.869	3863.66
715.057	3800.18
715.244	3765.36
715.432	3806.32
715.619	3810.42
715.807	3761.27
715.994	3787.89
716.182	3734.64
716.369	3781.74
716.556	3783.79
716.744	3761.27
716.931	3882.1
717.119	3927.15
717.306	3988.59
717.493	3738.74
717.681	3804.27
717.868	3781.74
718.055	3761.27
718.242	3867.76
718.43	3871.86
718.617	3884.14
718.804	3890.29
718.991	3970.16
719.179	3921.01
719.366	3853.42
719.553	3927.15
719.74	3855.47
719.927	3873.9
720.114	3849.33
720.301	3781.74
720.488	3849.33
720.676	3826.8
720.863	3763.31
721.05	3992.69
721.237	4056.17
721.424	3927.15
721.611	3957.87
721.798	3849.33
721.985	3910.77
722.172	3794.03
722.358	3898.48
722.545	3929.2
722.732	3994.73
722.919	4013.17
723.106	3845.23
723.293	3845.23
723.48	3984.49
723.667	3906.67
723.853	4007.02
724.04	3904.62
724.227	3896.43
724.414	4017.26
724.6	3998.83
724.787	3904.62
724.974	3955.82
725.161	3996.78
725.347	3918.96
725.534	3937.39
725.72	4035.69
725.907	3884.14
726.094	3937.39
726.28	3910.77
726.467	3988.59
726.653	3943.53
726.84	4164.72
727.027	4090.99
727.213	3853.42
727.4	3927.15
727.586	3904.62
727.773	4007.02
727.959	4002.93
728.145	3998.83
728.332	3961.97
728.518	3972.21
728.705	4043.88
728.891	3976.3
729.077	4041.84
729.264	4066.41
729.45	3988.59
729.636	4017.26
729.823	4131.95
730.009	4111.47
730.195	4021.36
730.382	4158.57
730.568	4039.79
730.754	4066.41
730.94	3984.49
731.126	3984.49
731.313	4101.23
731.499	4183.15
731.685	4093.04
731.871	3927.15
732.057	4009.07
732.243	4134
732.429	4099.18
732.615	4136.04
732.801	3953.77
732.987	4009.07
733.173	3976.3
733.359	4088.94
733.545	4066.41
733.731	3994.73
733.917	4113.52
734.103	4074.6
734.289	4011.12
734.475	3984.49
734.661	4131.95
734.847	4004.97
735.033	4011.12
735.219	4045.93
735.404	3972.21
735.59	4074.6
735.776	3980.4
735.962	4078.7
736.148	4033.65
736.333	4025.45
736.519	4027.5
736.705	4076.65
736.89	3929.2
737.076	4078.7
737.262	3929.2
737.447	4064.36
737.633	3937.39
737.819	3972.21
738.004	3964.01
738.19	4002.93
738.375	4000.88
738.561	3945.58
738.747	3945.58
738.932	3921.01
739.118	4125.8
739.303	3951.73
739.489	3953.77
739.674	3787.89
739.859	3863.66
740.045	3890.29
740.23	3699.83
740.416	3736.69
740.601	3859.57
740.786	3746.93
740.972	3837.04
741.157	3888.24
741.342	3718.26
741.528	3824.75
741.713	3818.61
741.898	3923.05
742.084	3705.97
742.269	3916.91
742.454	3861.62
742.639	3732.59
742.824	3654.77
743.01	3681.39
743.195	3822.7
743.38	3765.36
743.565	3601.52
743.75	3732.59
743.935	3490.93
744.12	3601.52
744.305	3470.45
744.49	3585.14
744.675	3699.83
744.86	3497.08
745.045	3544.18
745.23	3535.99
745.415	3546.23
745.6	3511.41
745.785	3597.43
745.97	3671.15
746.155	3388.53
746.34	3527.8
746.525	3378.3
746.71	3406.97
746.895	3325.05
747.079	3341.43
747.264	3286.14
747.449	3325.05
747.634	3226.75
747.819	3337.34
748.003	3171.45
748.188	3218.55
748.373	3230.84
748.557	3159.16
748.742	3294.33
748.927	3234.94
749.111	3099.77
749.296	3099.77
749.481	3175.55
749.665	3021.95
749.85	2929.79
750.034	3107.96
750.219	3120.25
750.404	2944.13
750.588	3071.1
750.773	2925.69
750.957	2987.13
751.141	2993.28
751.326	2872.45
751.51	2796.67
751.695	2772.1
751.879	2868.35
752.064	2708.61
752.248	2835.58
752.432	2839.68
752.617	2729.09
752.801	2825.34
752.985	2749.57
753.17	2616.45
753.354	2761.86
753.538	2624.64
753.722	2708.61
753.907	2624.64
754.091	2552.96
754.275	2593.92
754.459	2567.3
754.643	2602.11
754.828	2423.94
755.012	2509.96
755.196	2469
755.38	2413.7
755.564	2538.63
755.748	2356.36
755.932	2497.67
756.116	2520.2
756.3	2413.7
756.484	2432.13
756.668	2391.17
756.852	2256.01
757.036	2407.56
757.22	2290.82
757.404	2387.08
757.588	2288.78
757.772	2280.58
757.956	2309.26
758.14	2286.73
758.323	2200.71
758.507	2190.47
758.691	2202.76
758.875	2217.1
759.059	2309.26
759.242	2118.79
759.426	2225.29
759.61	2153.61
759.794	2077.83
759.977	2098.31
760.161	2200.71
760.345	2141.32
760.528	2018.44
760.712	2059.4
760.895	2038.92
761.079	2047.12
761.263	1932.43
761.446	2034.83
761.63	2018.44
761.813	2051.21
761.997	1930.38
762.18	1989.77
762.364	2008.2
762.547	1977.48
762.731	1938.57
762.914	1934.48
763.098	1782.93
763.281	1975.44
763.464	1817.74
763.648	1852.56
763.831	1860.75
764.015	1782.93
764.198	1868.94
764.381	1797.26
764.564	1817.74
764.748	1768.59
764.931	1758.35
765.114	1805.46
765.297	1791.12
765.481	1795.22
765.664	1731.73
765.847	1746.06
766.03	1782.93
766.213	1621.14
766.397	1674.39
766.58	1625.23
766.763	1823.89
766.946	1658
767.129	1717.39
767.312	1576.08
767.495	1676.43
767.678	1567.89
767.861	1592.47
768.044	1612.95
768.227	1633.43
768.41	1608.85
768.593	1717.39
768.776	1649.81
768.959	1629.33
769.142	1578.13
769.324	1639.57
769.507	1619.09
769.69	1553.55
769.873	1496.21
770.056	1594.51
770.239	1543.32
770.421	1643.67
770.604	1612.95
770.787	1559.7
770.97	1629.33
771.152	1430.68
771.335	1461.4
771.518	1457.3
771.7	1590.42
771.883	1522.84
772.066	1483.92
772.248	1531.03
772.431	1469.59
772.613	1453.2
772.796	1436.82
772.978	1424.53
773.161	1461.4
773.343	1377.43
773.526	1393.81
773.708	1418.39
773.891	1305.75
774.073	1338.52
774.256	1399.96
774.438	1420.44
774.621	1266.84
774.803	1272.98
774.985	1315.99
775.168	1354.9
775.35	1291.41
775.532	1264.79
775.715	1303.7
775.897	1334.42
776.079	1186.97
776.261	1289.37
776.444	1326.23
776.626	1207.45
776.808	1207.45
776.99	1174.68
777.173	1215.64
777.355	1191.06
777.537	1170.58
777.719	1260.7
777.901	1146.01
778.083	1131.67
778.265	1103
778.447	1176.73
778.629	1082.52
778.811	1088.67
778.993	1103
779.175	1109.15
779.357	1088.67
779.539	1080.47
779.721	1012.89
779.903	1016.99
780.085	957.6
780.267	1127.58
780.449	1016.99
780.631	959.64
780.812	1055.9
780.994	1076.38
781.176	957.6
781.358	971.93
781.54	961.69
781.721	969.88
781.903	978.08
782.085	851.1
782.267	978.08
782.448	939.16
782.63	902.3
782.812	920.73
782.993	951.45
783.175	939.16
783.357	939.16
783.538	855.2
783.72	808.09
783.901	775.33
784.083	900.25
784.264	795.81
784.446	834.72
784.627	707.74
784.809	906.4
784.99	847.01
785.172	787.61
785.353	769.18
785.535	814.24
785.716	775.33
785.897	693.41
786.079	752.8
786.26	816.29
786.441	832.67
786.623	765.09
786.804	728.22
786.985	709.79
787.167	724.13
787.348	765.09
787.529	799.9
787.71	781.47
787.891	711.84
788.073	699.55
788.254	726.18
788.435	752.8
788.616	621.73
788.797	685.22
788.978	763.04
789.159	717.98
789.34	691.36
789.522	572.58
789.703	595.11
789.884	732.32
790.065	615.59
790.246	709.79
790.427	537.76
790.607	715.94
790.788	593.06
790.969	599.2
791.15	654.5
791.331	564.39
791.512	576.67
791.693	603.3
791.874	572.58
792.054	674.98
792.235	582.82
792.416	476.32
792.597	529.57
792.778	670.88
792.958	576.67
793.139	562.34
793.32	574.63
793.5	617.63
793.681	652.45
793.862	513.19
794.042	562.34
794.223	472.23
794.404	504.99
794.584	484.52
794.765	609.44
794.945	476.32
795.126	560.29
795.306	660.64
795.487	496.8
795.667	486.56
795.848	464.04
796.028	529.57
796.209	543.91
796.389	541.86
796.57	455.84
796.75	441.51
796.93	472.23
797.111	398.5
797.291	507.04
797.471	498.85
797.652	437.41
797.832	519.33
798.012	515.23
798.192	476.32
798.373	398.5
798.553	451.75
798.733	519.33
798.913	423.08
799.093	474.28
799.274	470.18
799.454	492.71
799.634	392.36
799.814	492.71
799.994	361.64
800.174	474.28
800.354	423.08
800.534	404.64
800.714	396.45
800.894	328.87
801.074	349.35
801.254	412.84
801.434	423.08
801.614	337.06
801.794	394.4
801.974	1377.43
802.154	416.93
802.334	478.37
802.514	373.92
802.693	392.36
802.873	418.98
803.053	390.31
803.233	380.07
803.413	457.89
803.592	302.25
803.772	308.39
803.952	363.69
804.131	332.97
804.311	363.69
804.491	328.87
804.67	382.12
804.85	335.01
805.03	384.16
805.209	367.78
805.389	269.48
805.568	347.3
805.748	357.54
805.928	343.21
806.107	402.6
806.287	421.03
806.466	388.26
806.646	359.59
806.825	304.29
807.004	283.81
807.184	287.91
807.363	330.92
807.543	316.58
807.722	380.07
807.901	304.29
808.081	324.77
808.26	261.29
808.439	322.73
808.619	312.49
808.798	324.77
808.977	302.25
809.156	371.88
809.336	328.87
809.515	277.67
809.694	224.42
809.873	287.91
810.052	335.01
810.231	371.88
810.411	353.45
810.59	380.07
810.769	259.24
810.948	388.26
811.127	275.62
811.306	265.38
811.485	337.06
811.664	398.5
811.843	224.42
812.022	249
812.201	351.4
812.38	257.19
812.559	253.09
812.737	195.75
812.916	193.7
813.095	310.44
813.274	257.19
813.453	230.57
813.632	292.01
813.811	292.01
813.989	130.22
814.168	277.67
814.347	277.67
814.526	339.11
814.704	281.77
814.883	271.53
815.062	335.01
815.24	294.05
815.419	308.39
815.598	314.53
815.776	197.8
815.955	249
816.133	201.9
816.312	279.72
816.49	257.19
816.669	332.97
816.847	300.2
817.026	261.29
817.204	226.47
817.383	199.85
817.561	201.9
817.74	289.96
817.918	273.57
818.097	197.8
818.275	232.62
818.453	292.01
818.632	232.62
818.81	236.71
818.988	197.8
819.167	244.9
819.345	236.71
819.523	183.46
819.701	259.24
819.879	240.81
820.058	253.09
820.236	226.47
820.414	179.37
820.592	263.33
820.77	271.53
820.948	253.09
821.127	228.52
821.305	134.31
821.483	187.56
821.661	269.48
821.839	267.43
822.017	214.18
822.195	214.18
822.373	267.43
822.551	234.66
822.729	212.14
822.907	195.75
823.085	249
823.262	138.41
823.44	97.45
823.618	191.66
823.796	238.76
823.974	199.85
824.152	242.85
824.329	193.7
824.507	169.13
824.685	249
824.863	216.23
825.04	287.91
825.218	203.94
825.396	191.66
825.574	183.46
825.751	173.22
825.929	195.75
826.107	111.78
826.284	214.18
826.462	191.66
826.639	136.36
826.817	175.27
826.994	199.85
827.172	160.94
827.349	244.9
827.527	218.28
827.704	234.66
827.882	238.76
828.059	224.42
828.237	136.36
828.414	162.98
828.591	232.62
828.769	179.37
828.946	101.55
829.124	218.28
829.301	224.42
829.478	111.78
829.655	232.62
829.833	189.61
830.01	23.72
830.187	165.03
830.364	140.46
830.542	124.07
830.719	222.38
830.896	152.74
831.073	152.74
831.25	185.51
831.427	171.18
831.604	138.41
831.782	138.41
831.959	212.14
832.136	62.63
832.313	230.57
832.49	115.88
832.667	216.23
832.844	195.75
833.021	138.41
833.198	122.02
833.374	160.94
833.551	103.59
833.728	165.03
833.905	165.03
834.082	91.31
834.259	148.65
834.436	191.66
834.612	91.31
834.789	140.46
834.966	126.12
835.143	216.23
835.319	105.64
835.496	87.21
835.673	115.88
835.85	193.7
836.026	185.51
836.203	85.16
836.38	140.46
836.556	99.5
836.733	95.4
836.909	167.08
837.086	109.74
837.262	38.06
837.439	74.92
837.616	142.5
837.792	171.18
837.968	144.55
838.145	54.44
838.321	50.35
838.498	183.46
838.674	46.25
838.851	119.98
839.027	130.22
839.203	134.31
839.38	134.31
839.556	31.91
839.732	136.36
839.909	142.5
840.085	95.4
840.261	119.98
840.437	95.4
840.614	72.87
840.79	89.26
840.966	142.5
841.142	124.07
841.318	128.17
841.494	70.83
841.671	134.31
841.847	70.83
842.023	105.64
842.199	136.36
842.375	181.42
842.551	48.3
842.727	93.35
842.903	244.9
843.079	81.07
843.255	156.84
843.431	85.16
843.607	134.31
843.783	17.58
843.959	72.87
844.134	128.17
844.31	119.98
844.486	132.26
844.662	21.67
844.838	66.73
845.013	70.83
845.189	134.31
845.365	81.07
845.541	105.64
845.716	72.87
845.892	140.46
846.068	19.63
846.244	109.74
846.419	158.89
846.595	52.39
846.77	79.02
846.946	119.98
847.122	85.16
847.297	97.45
847.473	136.36
847.648	7.34
847.824	72.87
847.999	85.16
848.175	85.16
848.35	158.89
848.526	126.12
848.701	107.69
848.876	115.88
849.052	93.35
849.227	44.2
849.403	83.11
849.578	56.49
849.753	76.97
849.929	64.68
850.104	68.78
850.279	44.2
850.454	-13.14
850.63	76.97
850.805	76.97
850.98	119.98
851.155	85.16
851.33	152.74
851.505	23.72
851.681	138.41
851.856	17.58
852.031	99.5
852.206	68.78
852.381	119.98
852.556	36.01
852.731	21.67
852.906	76.97
853.081	33.96
853.256	183.46
853.431	83.11
853.606	66.73
853.781	85.16
853.956	-43.86
854.131	44.2
854.305	25.77
854.48	36.01
854.655	87.21
854.83	105.64
855.005	74.92
855.18	111.78
855.354	19.63
855.529	52.39
855.704	33.96
855.879	52.39
856.053	7.34
856.228	152.74
856.403	-9.05
856.577	70.83
856.752	21.67
856.926	103.59
857.101	17.58
857.276	36.01
857.45	76.97
857.625	52.39
857.799	128.17
857.974	-4.95
858.148	-2.9
858.323	113.83
858.497	48.3
858.672	58.54
858.846	83.11
859.02	97.45
859.195	27.82
859.369	40.11
859.543	136.36
859.718	99.5
859.892	70.83
860.066	3.24
860.241	87.21
860.415	-37.72
860.589	101.55
860.763	27.82
860.938	-39.76
861.112	113.83
861.286	36.01
861.46	25.77
861.634	56.49
861.808	87.21
861.982	9.39
862.157	21.67
862.331	21.67
862.505	79.02
862.679	60.59
862.853	62.63
863.027	40.11
863.201	60.59
863.375	46.25
863.549	19.63
863.722	68.78
863.896	62.63
864.07	68.78
864.244	93.35
864.418	68.78
864.592	23.72
864.766	-37.72
864.939	27.82
865.113	9.39
865.287	107.69
865.461	46.25
865.634	38.06
865.808	44.2
865.982	87.21
866.156	60.59
866.329	-2.9
866.503	-54.1
866.676	79.02
866.85	21.67
867.024	-13.14
867.197	101.55
867.371	56.49
867.544	36.01
867.718	-2.9
867.891	122.02
868.065	25.77
868.238	5.29
868.412	117.93
868.585	21.67
868.759	-13.14
868.932	7.34
869.105	13.48
869.279	85.16
869.452	-21.33
869.625	38.06
869.799	44.2
869.972	36.01
870.145	21.67
870.319	107.69
870.492	-11.09
870.665	29.87
870.838	-58.2
871.011	-29.52
871.185	70.83
871.358	23.72
871.531	66.73
871.704	33.96
871.877	19.63
872.05	3.24
872.223	-9.05
872.396	7.34
872.569	44.2
872.742	-21.33
872.915	64.68
873.088	42.15
873.261	13.48
873.434	27.82
873.607	23.72
873.78	136.36
873.953	-21.33
874.126	19.63
874.299	134.31
874.471	113.83
874.644	56.49
874.817	62.63
874.99	95.4
875.163	124.07
875.335	64.68
875.508	44.2
875.681	70.83
875.853	-7
876.026	46.25
876.199	93.35
876.371	29.87
876.544	-2.9
876.717	29.87
876.889	3.24
877.062	64.68
877.234	-60.24
877.407	31.91
877.579	-21.33
877.752	25.77
877.924	68.78
878.097	-33.62
878.269	76.97
878.442	64.68
878.614	93.35
878.786	13.48
878.959	9.39
879.131	95.4
879.303	-64.34
879.476	42.15
879.648	50.35
879.82	-29.52
879.993	-2.9
880.165	60.59
880.337	-15.19
880.509	21.67
880.681	11.43
880.854	-37.72
881.026	46.25
881.198	103.59
881.37	44.2
881.542	15.53
881.714	-21.33
881.886	-7
882.058	105.64
882.23	-4.95
882.402	-86.87
882.574	13.48
882.746	79.02
882.918	81.07
883.09	72.87
883.262	-62.29
883.434	46.25
883.606	-4.95
883.778	11.43
883.95	72.87
884.122	44.2
884.293	79.02
884.465	40.11
884.637	27.82
884.809	25.77
884.98	-2.9
885.152	115.88
885.324	-7
885.496	-39.76
885.667	-4.95
885.839	27.82
886.011	134.31
886.182	29.87
886.354	23.72
886.525	27.82
886.697	9.39
886.869	-29.52
887.04	-17.24
887.212	68.78
887.383	21.67
887.555	-0.85
887.726	81.07
887.897	-4.95
888.069	9.39
888.24	46.25
888.412	-4.95
888.583	21.67
888.754	27.82
888.926	-47.96
889.097	-21.33
889.268	3.24
889.44	29.87
889.611	-11.09
889.782	-80.72
889.953	13.48
890.125	93.35
890.296	17.58
890.467	33.96
890.638	-54.1
890.809	-2.9
890.98	-23.38
891.151	17.58
891.323	-27.48
891.494	-41.81
891.665	-33.62
891.836	85.16
892.007	38.06
892.178	11.43
892.349	27.82
892.52	7.34
892.691	19.63
892.862	3.24
893.032	-31.57
893.203	72.87
893.374	-35.67
893.545	46.25
893.716	-47.96
893.887	11.43
894.057	33.96
894.228	31.91
894.399	1.19
894.57	48.3
894.74	-37.72
894.911	50.35
895.082	21.67
895.253	-11.09
895.423	9.39
895.594	23.72
895.764	117.93
895.935	-21.33
896.106	50.35
896.276	62.63
896.447	21.67
896.617	54.44
896.788	36.01
896.958	31.91
897.129	-39.76
897.299	15.53
897.47	74.92
897.64	27.82
897.81	44.2
897.981	-9.05
898.151	-76.63
898.322	36.01
898.492	-4.95
898.662	-9.05
898.832	-45.91
899.003	31.91
899.173	101.55
899.343	-37.72
899.513	-21.33
