Data from USB4F104151__71__13-06-01-361.txt Node

Date: Fri Mar 14 13:06:01 EDT 2025
User: louis
Spectrometer: USB4F10415
Trigger mode: 4
Integration Time (sec): 4.000000E-2
Scans to average: 1
Electric dark correction enabled: true
Nonlinearity correction enabled: false
Boxcar width: 0
XAxis mode: Wavelengths
Number of Pixels in Spectrum: 3648
>>>>>Begin Spectral Data<<<<<
178.204	-180.9
178.424	-180.9
178.644	-180.9
178.864	-137.9
179.084	-242.34
179.304	-88.75
179.524	-15.02
179.744	1.37
179.964	97.62
180.184	48.47
180.404	3.41
180.624	9.56
180.844	-23.21
181.064	-58.03
181.283	-19.11
181.503	-25.26
181.723	68.95
181.943	-78.51
182.163	75.09
182.383	-29.35
182.602	9.56
182.822	68.95
183.042	27.99
183.262	-17.07
183.482	27.99
183.701	-4.78
183.921	105.81
184.141	-17.07
184.361	64.85
184.58	23.89
184.8	32.08
185.02	-31.4
185.239	77.14
185.459	93.52
185.679	58.71
185.898	15.7
186.118	87.38
186.338	81.24
186.557	64.85
186.777	30.04
186.997	77.14
187.216	120.15
187.436	109.91
187.655	-17.07
187.875	34.13
188.095	-17.07
188.314	105.81
188.534	66.9
188.753	13.65
188.973	114
189.192	105.81
189.412	89.43
189.631	23.89
189.851	-6.83
190.07	23.89
190.29	-15.02
190.509	38.23
190.729	-6.83
190.948	89.43
191.168	214.35
191.387	79.19
191.607	66.9
191.826	46.42
192.045	-23.21
192.265	7.51
192.484	81.24
192.704	-4.78
192.923	48.47
193.142	146.77
193.362	13.65
193.581	52.56
193.8	23.89
194.02	73.04
194.239	-47.79
194.458	58.71
194.678	42.32
194.897	50.52
195.116	95.57
195.335	54.61
195.555	91.48
195.774	34.13
195.993	27.99
196.212	-66.22
196.432	-0.68
196.651	21.84
196.87	62.8
197.089	97.62
197.308	68.95
197.528	73.04
197.747	48.47
197.966	-4.78
198.185	54.61
198.404	1.37
198.623	83.28
198.842	114
199.062	91.48
199.281	68.95
199.5	77.14
199.719	60.76
199.938	34.13
200.157	30.04
200.376	1.37
200.595	68.95
200.814	34.13
201.033	-0.68
201.252	87.38
201.471	77.14
201.69	77.14
201.909	-25.26
202.128	118.1
202.347	66.9
202.566	81.24
202.785	21.84
203.004	23.89
203.223	97.62
203.442	42.32
203.661	64.85
203.879	5.46
204.098	132.44
204.317	15.7
204.536	97.62
204.755	-19.11
204.974	71
205.193	54.61
205.411	114
205.63	32.08
205.849	32.08
206.068	3.41
206.287	73.04
206.505	73.04
206.724	23.89
206.943	7.51
207.162	7.51
207.381	15.7
207.599	89.43
207.818	62.8
208.037	46.42
208.255	50.52
208.474	157.01
208.693	30.04
208.911	40.28
209.13	66.9
209.349	23.89
209.567	21.84
209.786	97.62
210.005	93.52
210.223	-2.73
210.442	77.14
210.661	62.8
210.879	50.52
211.098	36.18
211.316	89.43
211.535	13.65
211.753	23.89
211.972	60.76
212.191	5.46
212.409	71
212.628	60.76
212.846	-25.26
213.065	34.13
213.283	60.76
213.502	-10.92
213.72	97.62
213.938	68.95
214.157	-4.78
214.375	148.82
214.594	23.89
214.812	99.67
215.031	116.05
215.249	58.71
215.467	32.08
215.686	1.37
215.904	97.62
216.122	50.52
216.341	81.24
216.559	1.37
216.778	54.61
216.996	56.66
217.214	-23.21
217.432	66.9
217.651	-35.5
217.869	21.84
218.087	142.68
218.306	71
218.524	27.99
218.742	1.37
218.96	73.04
219.179	-53.93
219.397	64.85
219.615	148.82
219.833	15.7
220.051	11.61
220.27	38.23
220.488	30.04
220.706	-0.68
220.924	-33.45
221.142	89.43
221.36	36.18
221.578	89.43
221.796	-17.07
222.015	64.85
222.233	-25.26
222.451	73.04
222.669	30.04
222.887	56.66
223.105	-39.59
223.323	-70.31
223.541	77.14
223.759	75.09
223.977	25.94
224.195	46.42
224.413	93.52
224.631	44.37
224.849	116.05
225.067	50.52
225.285	-0.68
225.503	32.08
225.721	-49.83
225.939	23.89
226.157	66.9
226.375	71
226.592	-25.26
226.81	42.32
227.028	9.56
227.246	214.35
227.464	75.09
227.682	152.91
227.9	75.09
228.117	-8.87
228.335	60.76
228.553	-2.73
228.771	15.7
228.989	62.8
229.206	23.89
229.424	56.66
229.642	38.23
229.86	-8.87
230.077	87.38
230.295	91.48
230.513	60.76
230.731	60.76
230.948	165.2
231.166	95.57
231.384	83.28
231.601	66.9
231.819	105.81
232.037	38.23
232.254	-2.73
232.472	7.51
232.689	-21.16
232.907	66.9
233.125	3.41
233.342	52.56
233.56	-43.69
233.777	9.56
233.995	-4.78
234.213	83.28
234.43	17.75
234.648	73.04
234.865	3.41
235.083	105.81
235.3	-8.87
235.518	87.38
235.735	91.48
235.953	138.58
236.17	62.8
236.388	30.04
236.605	122.2
236.822	122.2
237.04	60.76
237.257	-47.79
237.475	44.37
237.692	-6.83
237.909	-4.78
238.127	-6.83
238.344	87.38
238.562	60.76
238.779	-15.02
238.996	34.13
239.214	56.66
239.431	81.24
239.648	64.85
239.865	17.75
240.083	81.24
240.3	62.8
240.517	-58.03
240.735	73.04
240.952	79.19
241.169	21.84
241.386	3.41
241.603	48.47
241.821	-0.68
242.038	68.95
242.255	64.85
242.472	-12.97
242.689	91.48
242.907	15.7
243.124	75.09
243.341	42.32
243.558	-64.17
243.775	1.37
243.992	-23.21
244.209	-17.07
244.426	101.72
244.643	73.04
244.86	-4.78
245.078	68.95
245.295	-4.78
245.512	95.57
245.729	89.43
245.946	109.91
246.163	23.89
246.38	97.62
246.597	-12.97
246.814	-51.88
247.031	79.19
247.248	50.52
247.464	79.19
247.681	21.84
247.898	60.76
248.115	32.08
248.332	-25.26
248.549	66.9
248.766	157.01
248.983	103.76
249.2	42.32
249.417	79.19
249.633	15.7
249.85	66.9
250.067	23.89
250.284	66.9
250.501	103.76
250.717	116.05
250.934	-41.64
251.151	81.24
251.368	52.56
251.585	124.24
251.801	15.7
252.018	54.61
252.235	66.9
252.451	32.08
252.668	-45.74
252.885	42.32
253.102	93.52
253.318	-45.74
253.535	-62.12
253.752	58.71
253.968	116.05
254.185	46.42
254.401	103.76
254.618	60.76
254.835	68.95
255.051	179.54
255.268	25.94
255.484	44.37
255.701	-17.07
255.917	62.8
256.134	54.61
256.351	48.47
256.567	-15.02
256.784	81.24
257	13.65
257.217	27.99
257.433	3.41
257.65	97.62
257.866	54.61
258.082	114
258.299	54.61
258.515	19.8
258.732	50.52
258.948	-0.68
259.165	13.65
259.381	52.56
259.597	40.28
259.814	30.04
260.03	42.32
260.246	-21.16
260.463	60.76
260.679	128.34
260.895	124.24
261.112	-15.02
261.328	-31.4
261.544	81.24
261.761	50.52
261.977	58.71
262.193	-43.69
262.409	99.67
262.626	62.8
262.842	66.9
263.058	7.51
263.274	71
263.49	56.66
263.707	105.81
263.923	52.56
264.139	50.52
264.355	36.18
264.571	142.68
264.787	66.9
265.004	32.08
265.22	64.85
265.436	15.7
265.652	7.51
265.868	7.51
266.084	7.51
266.3	81.24
266.516	34.13
266.732	122.2
266.948	15.7
267.164	9.56
267.38	97.62
267.596	71
267.812	87.38
268.028	73.04
268.244	-21.16
268.46	144.72
268.676	-12.97
268.892	81.24
269.108	13.65
269.324	-6.83
269.54	-25.26
269.756	64.85
269.972	58.71
270.188	44.37
270.403	64.85
270.619	73.04
270.835	-6.83
271.051	56.66
271.267	75.09
271.483	91.48
271.698	62.8
271.914	25.94
272.13	25.94
272.346	5.46
272.562	1.37
272.777	95.57
272.993	44.37
273.209	42.32
273.425	101.72
273.64	79.19
273.856	56.66
274.072	83.28
274.287	-6.83
274.503	-17.07
274.719	169.3
274.934	-53.93
275.15	-25.26
275.366	73.04
275.581	44.37
275.797	42.32
276.012	19.8
276.228	30.04
276.444	130.39
276.659	132.44
276.875	17.75
277.09	34.13
277.306	-8.87
277.521	136.53
277.737	3.41
277.952	48.47
278.168	81.24
278.383	64.85
278.599	85.33
278.814	50.52
279.03	7.51
279.245	99.67
279.461	15.7
279.676	42.32
279.892	-12.97
280.107	9.56
280.322	9.56
280.538	40.28
280.753	-29.35
280.969	142.68
281.184	50.52
281.399	64.85
281.615	58.71
281.83	87.38
282.045	15.7
282.26	60.76
282.476	93.52
282.691	91.48
282.906	27.99
283.122	48.47
283.337	-0.68
283.552	87.38
283.767	32.08
283.983	73.04
284.198	17.75
284.413	60.76
284.628	-8.87
284.843	-17.07
285.058	25.94
285.274	34.13
285.489	23.89
285.704	32.08
285.919	15.7
286.134	64.85
286.349	-33.45
286.564	105.81
286.779	91.48
286.995	48.47
287.21	23.89
287.425	116.05
287.64	73.04
287.855	77.14
288.07	32.08
288.285	52.56
288.5	44.37
288.715	36.18
288.93	40.28
289.145	73.04
289.36	114
289.575	71
289.79	5.46
290.004	3.41
290.219	93.52
290.434	7.51
290.649	-78.51
290.864	38.23
291.079	64.85
291.294	107.86
291.509	40.28
291.724	21.84
291.938	87.38
292.153	142.68
292.368	19.8
292.583	77.14
292.798	21.84
293.012	114
293.227	118.1
293.442	-23.21
293.657	120.15
293.871	187.73
294.086	13.65
294.301	64.85
294.516	122.2
294.73	25.94
294.945	48.47
295.16	44.37
295.374	60.76
295.589	105.81
295.804	46.42
296.018	-8.87
296.233	140.63
296.447	25.94
296.662	23.89
296.877	-0.68
297.091	19.8
297.306	46.42
297.52	-0.68
297.735	17.75
297.949	64.85
298.164	62.8
298.378	83.28
298.593	50.52
298.807	3.41
299.022	46.42
299.236	93.52
299.451	68.95
299.665	34.13
299.88	77.14
300.094	99.67
300.309	71
300.523	-6.83
300.737	95.57
300.952	-23.21
301.166	109.91
301.381	19.8
301.595	-17.07
301.809	116.05
302.024	-25.26
302.238	25.94
302.452	64.85
302.667	71
302.881	179.54
303.095	99.67
303.309	73.04
303.524	21.84
303.738	-8.87
303.952	-15.02
304.166	62.8
304.381	-45.74
304.595	62.8
304.809	-29.35
305.023	44.37
305.237	30.04
305.452	58.71
305.666	34.13
305.88	173.39
306.094	71
306.308	-17.07
306.522	126.29
306.736	89.43
306.95	62.8
307.164	30.04
307.379	-17.07
307.593	114
307.807	-0.68
308.021	81.24
308.235	79.19
308.449	-43.69
308.663	66.9
308.877	23.89
309.091	64.85
309.305	169.3
309.519	-0.68
309.733	17.75
309.947	-21.16
310.161	152.91
310.374	130.39
310.588	138.58
310.802	40.28
311.016	50.52
311.23	-6.83
311.444	75.09
311.658	3.41
311.872	142.68
312.085	27.99
312.299	68.95
312.513	66.9
312.727	52.56
312.941	-49.83
313.154	91.48
313.368	-4.78
313.582	52.56
313.796	9.56
314.009	-2.73
314.223	91.48
314.437	73.04
314.651	73.04
314.864	64.85
315.078	89.43
315.292	44.37
315.505	1.37
315.719	34.13
315.933	58.71
316.146	64.85
316.36	46.42
316.573	71
316.787	103.76
317.001	73.04
317.214	42.32
317.428	11.61
317.641	-8.87
317.855	36.18
318.068	7.51
318.282	50.52
318.495	56.66
318.709	122.2
318.922	83.28
319.136	79.19
319.349	136.53
319.563	-49.83
319.776	21.84
319.99	-47.79
320.203	58.71
320.417	38.23
320.63	15.7
320.843	157.01
321.057	87.38
321.27	77.14
321.483	-4.78
321.697	132.44
321.91	32.08
322.124	99.67
322.337	25.94
322.55	116.05
322.763	17.75
322.977	56.66
323.19	54.61
323.403	54.61
323.617	87.38
323.83	77.14
324.043	48.47
324.256	27.99
324.469	-21.16
324.683	114
324.896	32.08
325.109	62.8
325.322	27.99
325.535	60.76
325.748	-15.02
325.962	32.08
326.175	19.8
326.388	73.04
326.601	122.2
326.814	-27.31
327.027	73.04
327.24	107.86
327.453	-4.78
327.666	89.43
327.879	95.57
328.092	107.86
328.305	-10.92
328.518	101.72
328.731	-4.78
328.944	71
329.157	9.56
329.37	44.37
329.583	181.59
329.796	118.1
330.009	3.41
330.222	27.99
330.435	-31.4
330.648	83.28
330.861	40.28
331.073	1.37
331.286	97.62
331.499	62.8
331.712	-15.02
331.925	19.8
332.138	56.66
332.35	138.58
332.563	50.52
332.776	89.43
332.989	73.04
333.202	27.99
333.414	40.28
333.627	-12.97
333.84	75.09
334.053	-0.68
334.265	11.61
334.478	97.62
334.691	27.99
334.903	75.09
335.116	1.37
335.329	-17.07
335.541	7.51
335.754	130.39
335.966	5.46
336.179	97.62
336.392	44.37
336.604	19.8
336.817	60.76
337.029	48.47
337.242	68.95
337.454	77.14
337.667	-6.83
337.88	38.23
338.092	79.19
338.305	-41.64
338.517	85.33
338.729	126.29
338.942	99.67
339.154	32.08
339.367	58.71
339.579	73.04
339.792	77.14
340.004	93.52
340.217	32.08
340.429	-8.87
340.641	66.9
340.854	-17.07
341.066	30.04
341.278	150.87
341.491	118.1
341.703	105.81
341.915	19.8
342.128	32.08
342.34	42.32
342.552	7.51
342.764	54.61
342.977	58.71
343.189	81.24
343.401	114
343.613	-17.07
343.826	21.84
344.038	36.18
344.25	46.42
344.462	81.24
344.674	34.13
344.886	-25.26
345.099	116.05
345.311	83.28
345.523	58.71
345.735	19.8
345.947	-0.68
346.159	52.56
346.371	42.32
346.583	19.8
346.795	140.63
347.007	54.61
347.219	126.29
347.431	-8.87
347.643	144.72
347.855	13.65
348.067	109.91
348.279	-43.69
348.491	87.38
348.703	81.24
348.915	38.23
349.127	27.99
349.339	114
349.551	36.18
349.763	116.05
349.975	101.72
350.187	202.07
350.399	109.91
350.61	60.76
350.822	77.14
351.034	93.52
351.246	52.56
351.458	165.2
351.669	19.8
351.881	-17.07
352.093	77.14
352.305	105.81
352.517	64.85
352.728	111.96
352.94	81.24
353.152	38.23
353.363	15.7
353.575	42.32
353.787	44.37
353.999	54.61
354.21	118.1
354.422	95.57
354.633	75.09
354.845	36.18
355.057	64.85
355.268	77.14
355.48	1.37
355.692	25.94
355.903	107.86
356.115	-4.78
356.326	103.76
356.538	103.76
356.749	83.28
356.961	142.68
357.172	122.2
357.384	15.7
357.595	181.59
357.807	15.7
358.018	17.75
358.23	-23.21
358.441	114
358.653	136.53
358.864	75.09
359.075	66.9
359.287	89.43
359.498	64.85
359.709	99.67
359.921	-8.87
360.132	23.89
360.344	36.18
360.555	34.13
360.766	75.09
360.977	34.13
361.189	60.76
361.4	42.32
361.611	130.39
361.823	95.57
362.034	75.09
362.245	44.37
362.456	30.04
362.667	68.95
362.879	-4.78
363.09	111.96
363.301	38.23
363.512	58.71
363.723	44.37
363.935	15.7
364.146	109.91
364.357	30.04
364.568	56.66
364.779	-96.94
364.99	107.86
365.201	50.52
365.412	154.96
365.623	32.08
365.834	21.84
366.045	58.71
366.256	107.86
366.467	101.72
366.678	64.85
366.889	60.76
367.1	13.65
367.311	103.76
367.522	9.56
367.733	93.52
367.944	134.48
368.155	40.28
368.366	1.37
368.577	68.95
368.788	118.1
368.999	-23.21
369.209	146.77
369.42	75.09
369.631	169.3
369.842	42.32
370.053	58.71
370.264	107.86
370.474	97.62
370.685	75.09
370.896	79.19
371.107	122.2
371.317	101.72
371.528	66.9
371.739	64.85
371.95	58.71
372.16	189.78
372.371	27.99
372.582	71
372.792	71
373.003	50.52
373.214	154.96
373.424	114
373.635	101.72
373.846	79.19
374.056	95.57
374.267	44.37
374.477	111.96
374.688	54.61
374.898	3.41
375.109	44.37
375.319	7.51
375.53	165.2
375.74	101.72
375.951	105.81
376.161	118.1
376.372	97.62
376.582	27.99
376.793	56.66
377.003	105.81
377.214	81.24
377.424	64.85
377.635	32.08
377.845	87.38
378.055	128.34
378.266	23.89
378.476	73.04
378.686	105.81
378.897	116.05
379.107	138.58
379.317	81.24
379.528	42.32
379.738	157.01
379.948	58.71
380.158	83.28
380.369	71
380.579	99.67
380.789	73.04
380.999	68.95
381.21	50.52
381.42	136.53
381.63	50.52
381.84	89.43
382.05	38.23
382.261	136.53
382.471	73.04
382.681	140.63
382.891	27.99
383.101	46.42
383.311	52.56
383.521	97.62
383.731	60.76
383.941	132.44
384.151	95.57
384.361	-29.35
384.571	114
384.781	118.1
384.991	206.16
385.201	83.28
385.411	54.61
385.621	52.56
385.831	64.85
386.041	1.37
386.251	105.81
386.461	40.28
386.671	19.8
386.881	56.66
387.091	111.96
387.301	114
387.511	60.76
387.72	34.13
387.93	138.58
388.14	-33.45
388.35	66.9
388.56	11.61
388.769	58.71
388.979	128.34
389.189	32.08
389.399	128.34
389.609	50.52
389.818	73.04
390.028	95.57
390.238	36.18
390.447	91.48
390.657	105.81
390.867	93.52
391.076	66.9
391.286	105.81
391.496	105.81
391.705	-23.21
391.915	157.01
392.125	64.85
392.334	91.48
392.544	126.29
392.753	122.2
392.963	36.18
393.172	144.72
393.382	19.8
393.591	103.76
393.801	89.43
394.01	120.15
394.22	130.39
394.429	105.81
394.639	77.14
394.848	81.24
395.058	105.81
395.267	54.61
395.477	140.63
395.686	122.2
395.895	173.39
396.105	134.48
396.314	134.48
396.524	138.58
396.733	161.11
396.942	165.2
397.152	52.56
397.361	210.26
397.57	159.06
397.78	87.38
397.989	124.24
398.198	224.59
398.407	81.24
398.617	83.28
398.826	64.85
399.035	148.82
399.244	171.35
399.453	101.72
399.663	206.16
399.872	130.39
400.081	93.52
400.29	220.5
400.499	142.68
400.708	220.5
400.917	224.59
401.127	130.39
401.336	122.2
401.545	261.46
401.754	154.96
401.963	146.77
402.172	150.87
402.381	144.72
402.59	62.8
402.799	99.67
403.008	150.87
403.217	101.72
403.426	167.25
403.635	171.35
403.844	228.69
404.053	126.29
404.262	163.15
404.471	210.26
404.68	130.39
404.888	138.58
405.097	200.02
405.306	265.55
405.515	232.79
405.724	255.31
405.933	265.55
406.142	138.58
406.35	222.55
406.559	193.87
406.768	210.26
406.977	302.42
407.185	232.79
407.394	212.31
407.603	175.44
407.812	281.94
408.02	249.17
408.229	310.61
408.438	363.86
408.646	294.22
408.855	329.04
409.064	388.43
409.272	343.38
409.481	394.58
409.69	398.67
409.898	376.14
410.107	433.49
410.315	449.87
410.524	396.62
410.733	419.15
410.941	462.16
411.15	382.29
411.358	564.56
411.567	552.27
411.775	449.87
411.984	501.07
412.192	578.89
412.401	486.73
412.609	580.94
412.818	677.19
413.026	679.24
413.234	666.96
413.443	662.86
413.651	617.8
413.86	691.53
414.068	736.59
414.276	740.68
414.485	732.49
414.693	777.55
414.901	904.52
415.11	879.94
415.318	871.75
415.526	935.24
415.734	996.68
415.943	1006.92
416.151	1094.98
416.359	1019.21
416.567	1099.08
416.776	1164.61
416.984	1277.25
417.192	1299.78
417.4	1254.72
417.608	1219.91
417.817	1248.58
418.025	1383.74
418.233	1563.97
418.441	1430.85
418.649	1572.16
418.857	1645.88
419.065	1654.08
419.273	1600.83
419.481	1779
419.689	1738.04
419.897	1801.53
420.105	2016.57
420.313	1957.18
420.521	2157.88
420.729	2061.62
420.937	2215.22
421.145	2178.36
421.353	2368.82
421.561	2407.73
421.769	2557.23
421.977	2723.12
422.185	2626.86
422.393	2811.18
422.601	2940.2
422.809	2835.75
423.017	3003.69
423.224	3112.23
423.432	3233.06
423.64	3288.36
423.848	3456.29
424.056	3357.99
424.263	3736.86
424.471	3734.81
424.679	3638.56
424.887	4013.34
425.094	4023.58
425.302	3919.13
425.51	4222.23
425.718	4322.58
425.925	4586.77
426.133	4685.07
426.341	4814.09
426.548	5072.14
426.756	5121.29
426.964	5176.58
427.171	5299.46
427.379	5457.15
427.586	5641.47
427.794	5897.47
428.001	6135.03
428.209	6409.46
428.417	6294.77
428.624	6618.35
428.832	6663.41
429.039	6782.19
429.247	6794.48
429.454	7345.38
429.662	7765.21
429.869	7392.48
430.076	7853.28
430.284	7290.09
430.491	7867.61
430.699	8260.82
430.906	8170.71
431.114	8342.74
431.321	8805.58
431.528	8891.6
431.736	9503.94
431.943	9921.73
432.15	9469.12
432.358	9923.77
432.565	10241.21
432.772	10421.43
432.979	10724.53
433.187	11224.23
433.394	10976.43
433.601	11783.33
433.808	11957.41
434.016	11488.42
434.223	12223.64
434.43	12979.34
434.637	12709.01
434.844	13425.8
435.052	13700.23
435.259	13673.6
435.466	13577.35
435.673	13649.03
435.88	14546.04
436.087	15324.27
436.294	15461.48
436.501	14851.19
436.708	15324.27
436.915	15946.85
437.122	16835.67
437.329	16467.03
437.537	17151.06
437.743	17177.68
437.95	17323.08
438.157	18148.42
438.364	18775.09
438.571	18465.85
438.778	18639.93
438.985	20876.31
439.192	19661.87
439.399	20247.58
439.606	19926.05
439.813	21126.16
440.02	22500.35
440.227	21836.81
440.433	21904.39
440.64	22318.08
440.847	22160.39
441.054	22811.64
441.261	24335.33
441.467	23952.36
441.674	24396.77
441.881	25422.8
442.088	25240.53
442.294	25220.05
442.501	25533.39
442.708	26188.74
442.914	27085.75
443.121	28343.2
443.328	27775.92
443.534	29836.17
443.741	28875.68
443.948	28496.8
444.154	30262.15
444.361	30475.14
444.568	30632.83
444.774	30561.15
444.981	30882.69
445.187	31734.64
445.394	32981.85
445.6	32682.85
445.807	36178.73
446.013	34159.44
446.22	35076.93
446.426	36412.2
446.633	36895.52
446.839	37813.01
447.046	36442.92
447.252	38214.41
447.459	38433.55
447.665	38640.39
447.871	40282.86
448.078	41911
448.284	39813.88
448.491	40850.15
448.697	42552.01
448.903	43569.85
449.11	43340.48
449.316	42785.48
449.522	43123.4
449.728	44415.66
449.935	44866.22
450.141	44966.57
450.347	46418.58
450.553	44583.6
450.76	44634.8
450.966	46869.13
451.172	46193.3
451.378	47329.92
451.584	46445.2
451.791	47534.72
451.997	47362.69
452.203	48310.9
452.409	48089.72
452.615	48429.68
452.821	46162.58
453.027	45894.3
453.233	48265.84
453.44	46287.51
453.646	47082.12
453.852	47485.57
454.058	48288.37
454.264	46570.13
454.47	47440.51
454.676	46359.19
454.882	48061.05
455.088	43629.24
455.294	44534.45
455.5	45451.94
455.705	45974.17
455.911	44016.31
456.117	42904.26
456.323	42488.53
456.529	40497.9
456.735	42480.33
456.941	41097.95
457.147	40454.89
457.352	39234.3
457.558	38773.51
457.764	38771.46
457.97	38517.51
458.176	37288.73
458.381	37776.15
458.587	35896.11
458.793	35783.48
458.999	33917.78
459.204	36637.48
459.41	35320.63
459.616	32944.99
459.821	33147.74
460.027	32832.35
460.233	32213.87
460.438	30718.85
460.644	31236.98
460.85	29383.57
461.055	29225.88
461.261	28640.16
461.466	26950.59
461.672	26063.82
461.878	27831.21
462.083	25762.76
462.289	25570.26
462.494	25252.82
462.7	24196.07
462.905	23692.27
463.111	24359.91
463.316	24343.52
463.522	23915.5
463.727	23669.74
463.932	23833.58
464.138	23546.86
464.343	23759.85
464.549	22838.26
464.754	24046.57
464.959	23579.63
465.165	23301.11
465.37	22752.25
465.575	21826.57
465.781	22828.02
465.986	22801.4
466.191	22064.13
466.397	21425.17
466.602	20542.49
466.807	21034
467.012	21185.55
467.218	21322.77
467.423	20950.04
467.628	21218.32
467.833	21777.42
468.038	21300.24
468.244	20474.91
468.449	21359.63
468.654	20755.48
468.859	20841.5
469.064	20522.01
469.269	19616.81
469.474	19545.13
469.679	20231.2
469.885	19620.91
470.09	19766.31
470.295	19973.16
470.5	19233.84
470.705	19246.13
470.91	18971.7
471.115	18598.97
471.32	19297.33
471.525	19061.81
471.73	18547.77
471.935	18056.26
472.139	18023.49
472.344	18076.74
472.549	17890.37
472.754	17921.09
472.959	17286.22
473.164	16690.26
473.369	16766.04
473.574	17509.45
473.778	17151.06
473.983	16850
474.188	17142.86
474.393	16104.54
474.598	16395.36
474.802	16106.59
475.007	16200.8
475.212	16016.48
475.417	15428.71
475.621	15410.28
475.826	15531.11
476.031	15029.36
476.235	14980.21
476.44	15266.92
476.645	14732.4
476.849	14840.95
477.054	14617.72
477.259	14486.65
477.463	14552.18
477.668	14277.76
477.872	14404.73
478.077	13794.43
478.282	13546.63
478.486	13438.09
478.691	13390.98
478.895	13425.8
479.1	13278.35
479.304	13526.15
479.509	12991.63
479.713	13294.73
479.918	12967.06
480.122	12698.77
480.326	12948.62
480.531	12856.47
480.735	12676.24
480.94	12416.15
481.144	13010.06
481.348	12510.36
481.553	12461.21
481.757	12211.35
481.961	12579.99
482.166	12545.17
482.37	12367
482.574	12164.25
482.778	12278.94
482.983	12557.46
483.187	12305.56
483.391	12364.95
483.595	12283.03
483.8	12188.83
484.004	12356.76
484.208	12418.2
484.412	12434.58
484.616	12289.18
484.821	12276.89
485.025	12068
485.229	12504.21
485.433	12012.7
485.637	12328.09
485.841	12256.41
486.045	12250.27
486.249	12389.53
486.453	12168.35
486.657	12297.37
486.861	12209.31
487.065	11807.91
487.269	12352.66
487.473	12209.31
487.677	12448.92
487.881	12442.78
488.085	12139.68
488.289	12463.26
488.493	12188.83
488.697	12391.58
488.901	12362.9
489.105	12491.93
489.309	12487.83
489.512	12493.97
489.716	12657.81
489.92	12504.21
490.124	12520.6
490.328	12493.97
490.531	12557.46
490.735	12602.52
490.939	12698.77
491.143	12524.69
491.346	12670.1
491.55	12633.24
491.754	12692.63
491.958	12946.58
492.161	12975.25
492.365	12926.1
492.569	12936.34
492.772	12987.54
492.976	13173.9
493.18	13079.69
493.383	13163.66
493.587	13087.89
493.79	13122.7
493.994	13464.71
494.197	13710.47
494.401	13593.73
494.605	13421.7
494.808	14036.1
495.012	13945.98
495.215	13954.18
495.419	14122.11
495.622	13870.21
495.825	14384.25
496.029	14107.77
496.232	14404.73
496.436	14378.11
496.639	14791.8
496.843	14763.12
497.046	15043.7
497.249	14802.04
497.453	15088.75
497.656	15256.68
497.859	15344.75
498.063	15520.87
498.266	15961.19
498.469	15797.35
498.673	15809.64
498.876	16260.19
499.079	16372.83
499.282	16309.34
499.485	16933.97
499.689	16614.49
499.892	16950.35
500.095	17087.57
500.298	17570.89
500.501	17189.97
500.705	17820.74
500.908	17679.43
501.111	18318.4
501.314	18156.61
501.517	18482.24
501.72	18547.77
501.923	18717.75
502.126	19008.56
502.329	19493.93
502.532	19459.12
502.735	19809.32
502.938	19905.57
503.141	19936.29
503.344	20347.93
503.547	20300.83
503.75	20855.83
503.953	20714.52
504.156	21034
504.359	21191.7
504.562	21416.97
504.765	21924.87
504.968	21974.02
505.17	22537.21
505.373	22608.89
505.576	22619.13
505.779	23065.59
505.982	23264.24
506.185	23739.37
506.387	23460.85
506.59	23737.32
506.793	24273.89
506.996	24126.44
507.198	24935.38
507.401	24867.8
507.604	25175
507.807	25664.46
508.009	25738.19
508.212	25725.9
508.415	26080.2
508.617	26379.2
508.82	26682.3
509.022	26487.75
509.225	27100.09
509.428	27366.32
509.63	27476.91
509.833	27521.97
510.035	28031.91
510.238	28064.68
510.44	28552.1
510.643	28994.46
510.845	29029.27
511.048	29172.63
511.25	29551.51
511.453	29756.3
511.655	30632.83
511.858	30231.43
512.06	30724.99
512.262	31044.48
512.465	30751.62
512.667	31724.4
512.87	31529.84
513.072	32117.61
513.274	32762.72
513.477	32779.11
513.679	32899.94
513.881	33489.75
514.084	33633.11
514.286	33618.77
514.488	33889.1
514.69	34790.21
514.893	34931.52
515.095	35013.44
515.297	35533.62
515.499	35283.77
515.701	35871.54
515.904	36041.52
516.106	36428.59
516.308	37014.3
516.51	36973.35
516.712	36961.06
516.914	37264.16
517.116	38064.91
517.318	37964.56
517.52	38345.48
517.722	38656.78
517.925	39035.65
518.127	39435
518.329	40026.87
518.531	39588.6
518.733	40397.55
518.935	40446.7
519.136	40389.36
519.338	40989.41
519.54	41415.39
519.742	41650.91
519.944	41685.72
520.146	42625.74
520.348	42334.93
520.55	42339.02
520.752	42556.11
520.954	43678.39
521.155	43082.44
521.357	43576
521.559	44288.69
521.761	44872.36
521.963	44610.22
522.164	44667.56
522.366	44769.96
522.568	45499.04
522.77	45722.27
522.971	45853.34
523.173	45976.22
523.375	46172.82
523.576	46152.34
523.778	46377.62
523.98	47229.57
524.181	46996.1
524.383	46971.53
524.584	47798.91
524.786	48056.95
524.988	47778.43
525.189	48454.26
525.391	48679.53
525.592	48728.69
525.794	48880.24
525.995	48902.76
526.197	49199.72
526.398	49050.22
526.6	49517.15
526.801	49488.48
527.003	49734.24
527.204	49398.37
527.406	50305.62
527.607	49658.46
527.808	50739.79
528.01	49830.49
528.211	50211.42
528.412	51264.07
528.614	51071.56
528.815	50752.08
529.016	51591.75
529.218	51319.37
529.419	51071.56
529.62	51538.5
529.822	51470.92
530.023	51120.71
530.224	51794.5
530.425	51796.54
530.626	51225.16
530.828	51292.74
531.029	52507.19
531.23	51345.99
531.431	51728.96
531.632	52269.62
531.833	52066.87
532.035	51724.86
532.236	51886.65
532.437	52165.18
532.638	52070.97
532.839	52361.78
533.04	52591.15
533.241	51751.49
533.442	53051.95
533.643	52576.82
533.844	52406.84
534.045	52406.84
534.246	51966.52
534.447	53041.71
534.648	52204.09
534.849	52656.69
535.05	51903.04
535.251	52378.17
535.451	52593.2
535.652	52884.01
535.853	52660.79
536.054	52605.49
536.255	52910.64
536.456	52283.96
536.657	53193.26
536.857	52593.2
537.058	52558.39
537.259	53322.28
537.46	52865.58
537.66	52396.6
537.861	52542
538.062	52267.58
538.263	52687.41
538.463	52343.35
538.664	52163.13
538.865	52701.75
539.065	52881.97
539.266	51896.89
539.466	52611.63
539.667	52349.49
539.868	52892.21
540.068	52636.21
540.269	52359.73
540.469	52632.11
540.67	52056.64
540.87	52455.99
541.071	52372.02
541.271	52648.5
541.472	52445.75
541.672	52310.58
541.873	52791.86
542.073	51847.74
542.274	52638.26
542.474	51739.2
542.675	51802.69
542.875	52433.46
543.075	51837.5
543.276	51991.1
543.476	52464.18
543.676	52226.62
543.877	52642.35
544.077	51849.79
544.277	52240.95
544.478	52197.94
544.678	52193.85
544.878	51632.71
545.078	52056.64
545.279	51647.04
545.479	51735.1
545.679	52030.01
545.879	52171.32
546.079	51880.51
546.28	51927.61
546.48	51495.49
546.68	52169.27
546.88	51921.47
547.08	51798.59
547.28	51929.66
547.48	51618.37
547.68	51421.76
547.88	51485.25
548.081	51984.96
548.281	51497.54
548.481	51571.27
548.681	51759.68
548.881	51384.9
549.081	51946.04
549.28	51128.91
549.48	51591.75
549.68	51624.51
549.88	52337.21
550.08	51581.51
550.28	51544.64
550.48	51794.5
550.68	51853.89
550.88	51245.64
551.08	51186.25
551.279	51536.45
551.479	51071.56
551.679	51696.19
551.879	51208.78
552.079	51565.12
552.278	51081.8
552.478	51049.03
552.678	51567.17
552.878	51403.33
553.077	51354.18
553.277	50778.7
553.477	51644.99
553.676	51059.27
553.876	51352.13
554.076	50825.81
554.275	51098.19
554.475	50565.71
554.674	51276.36
554.874	50891.34
555.074	50758.22
555.273	51089.99
555.473	51536.45
555.672	50424.4
555.872	50322.01
556.071	50682.45
556.271	51212.87
556.47	50418.26
556.67	50522.71
556.869	50756.17
557.068	50848.33
557.268	49982.04
557.467	50385.49
557.667	50207.32
557.866	50123.35
558.065	50256.47
558.265	49957.47
558.464	50131.54
558.663	50893.39
558.863	49750.62
559.062	50575.95
559.261	49617.5
559.461	50500.18
559.66	49373.8
559.859	49891.93
560.058	49689.18
560.258	49672.8
560.457	49189.48
560.656	49625.7
560.855	49404.52
561.054	50000.47
561.253	49191.53
561.453	49203.81
561.652	49130.09
561.851	49257.06
562.05	49046.12
562.249	48798.32
562.448	49216.1
562.647	48718.45
562.846	48372.34
563.045	48919.15
563.244	48396.91
563.443	49089.13
563.642	48161.4
563.841	48671.34
564.04	47852.16
564.239	48575.09
564.438	48097.91
564.637	48517.75
564.836	48417.39
565.035	47661.69
565.234	48183.93
565.432	47680.13
565.631	48097.91
565.83	48151.16
566.029	47501.95
566.228	47923.83
566.427	47504
566.625	47383.17
566.824	46787.21
567.023	48009.85
567.222	46807.69
567.42	47245.96
567.619	47075.97
567.818	46836.36
568.016	46828.17
568.215	47012.49
568.414	46940.81
568.612	46824.07
568.811	46205.59
569.01	46729.87
569.208	46189.2
569.407	46332.56
569.605	46041.75
569.804	46500.5
570.002	45972.12
570.201	46258.84
570.4	45732.51
570.598	45392.54
570.797	45511.33
570.995	45501.09
571.193	45032.1
571.392	45546.14
571.59	45232.8
571.789	45161.12
571.987	45011.62
572.186	44909.22
572.384	44595.88
572.582	45152.93
572.781	45062.82
572.979	44268.21
573.177	44432.05
573.376	44530.35
573.574	44542.64
573.772	44882.6
573.971	44448.43
574.169	44020.41
574.367	43766.46
574.565	44255.92
574.763	43965.11
574.962	43643.58
575.16	43334.34
575.358	43737.79
575.556	43090.63
575.754	43369.15
575.952	42955.46
576.151	43502.27
576.349	42732.23
576.547	42984.13
576.745	43111.11
576.943	43117.25
577.141	43283.14
577.339	42648.27
577.537	42543.82
577.735	42572.49
577.933	42642.12
578.131	42171.09
578.329	41853.65
578.527	41986.77
578.725	42074.84
578.923	41872.09
579.121	41911
579.319	41802.46
579.516	41804.5
579.714	41747.16
579.912	41575.13
580.11	41245.41
580.308	41163.49
580.506	41224.93
580.704	40762.09
580.901	41120.48
581.099	41177.82
581.297	40719.08
581.495	40588.01
581.692	41056.99
581.89	40397.55
582.088	40760.04
582.285	40452.84
582.483	40848.1
582.681	40676.07
582.878	40078.07
583.076	39772.92
583.274	40112.88
583.471	39613.18
583.669	39856.89
583.866	39443.2
584.064	39854.84
584.262	39363.32
584.459	39578.36
584.657	39027.46
584.854	39353.08
585.052	38273.81
585.249	38832.9
585.447	39056.13
585.644	38697.73
585.841	38857.48
586.039	38910.72
586.236	37935.89
586.434	38327.05
586.631	38368.01
586.828	38105.87
587.026	38124.3
587.223	37929.75
587.42	37509.91
587.618	38058.77
587.815	37925.65
588.012	37421.85
588.21	37552.92
588.407	37604.12
588.604	37450.52
588.801	37088.03
588.999	36926.24
589.196	36850.47
589.393	37036.83
589.59	36967.2
589.787	36465.45
589.984	36184.88
590.182	36530.98
590.379	36481.83
590.576	36178.73
590.773	36299.56
590.97	35892.02
591.167	36328.24
591.364	35570.49
591.561	36240.17
591.758	35420.98
591.955	35760.95
592.152	35873.59
592.349	35437.37
592.546	35523.38
592.743	35472.18
592.94	34784.07
593.137	35296.06
593.334	35351.35
593.531	34687.81
593.727	34859.84
593.924	34599.75
594.121	34454.34
594.318	34763.59
594.515	33999.69
594.712	34528.07
594.908	34067.28
595.105	34415.43
595.302	34042.7
595.499	34098
595.696	33760.08
595.892	33327.96
596.089	33995.6
596.286	33657.68
596.482	33522.52
596.679	33219.42
596.876	33487.7
597.072	33135.45
597.269	33061.72
597.466	32906.08
597.662	32688.99
597.859	32678.75
598.055	32736.1
598.252	32748.39
598.448	32639.84
598.645	32222.06
598.841	31906.67
599.038	32357.22
599.234	32148.33
599.431	31837.04
599.627	31843.18
599.824	32271.21
600.02	31710.07
600.217	31882.09
600.413	31648.63
600.609	31572.85
600.806	31366.01
601.002	31447.93
601.198	31062.91
601.395	31077.24
601.591	31288.18
601.787	30991.23
601.984	30921.6
602.18	30759.81
602.376	30907.26
602.572	30157.71
602.769	30649.22
602.965	30618.5
603.161	30395.27
603.357	30178.18
603.553	30040.97
603.75	29651.86
603.946	29551.51
604.142	29973.39
604.338	29897.61
604.534	29846.41
604.73	29662.1
604.926	29465.49
605.122	29649.81
605.318	29391.76
605.514	29219.74
605.71	29285.27
605.906	29004.7
606.102	28930.97
606.298	29031.32
606.494	29146.01
606.69	28943.26
606.886	28879.77
607.082	28373.92
607.278	28883.87
607.474	28392.36
607.67	28566.43
607.866	28371.88
608.062	28875.68
608.257	28328.87
608.453	28212.13
608.649	28461.99
608.845	28115.88
609.041	28040.11
609.236	28136.36
609.432	28068.78
609.628	27972.52
609.824	27784.11
610.019	27622.32
610.215	27552.69
610.411	27925.42
610.606	27923.37
610.802	28048.3
610.998	27552.69
611.193	27603.89
611.389	27397.04
611.584	27095.99
611.78	27034.55
611.976	27257.78
612.171	27296.69
612.367	27052.98
612.562	26837.95
612.758	26813.37
612.953	26813.37
613.149	27179.96
613.344	26698.69
613.539	27012.03
613.735	26889.15
613.93	26876.86
614.126	26500.03
614.321	26891.19
614.517	26563.52
614.712	26643.39
614.907	26311.62
615.103	26483.65
615.298	26074.06
615.493	26452.93
615.688	26078.15
615.884	26573.76
616.079	25934.79
616.274	26276.8
616.47	25969.61
616.665	25926.6
616.86	25897.93
617.055	25723.85
617.25	25945.03
617.445	25875.4
617.641	25369.55
617.836	25803.72
618.031	25418.71
618.226	25889.74
618.421	25707.47
618.616	25691.09
618.811	25015.26
619.006	25371.6
619.201	24804.31
619.396	25224.15
619.591	24712.16
619.786	25193.43
619.981	24646.62
620.176	25007.06
620.371	24507.36
620.566	24470.5
620.761	24194.02
620.956	24146.92
621.151	23831.53
621.346	24378.34
621.541	23589.87
621.735	24177.64
621.93	23630.83
622.125	23843.82
622.32	23579.63
622.515	23507.95
622.709	23297.01
622.904	23176.18
623.099	23073.78
623.294	23069.69
623.488	22676.48
623.683	22985.72
623.878	22328.32
624.072	22582.27
624.267	22559.74
624.462	22234.11
624.656	21959.69
624.851	21928.97
625.046	22021.13
625.24	21916.68
625.435	21746.7
625.629	21638.16
625.824	21627.92
626.018	21337.1
626.213	21077.01
626.407	21169.17
626.602	20890.65
626.796	21107.73
626.991	21077.01
627.185	20915.22
627.38	20618.27
627.574	20368.41
627.768	20098.08
627.963	20397.09
628.157	19895.33
628.352	20173.86
628.546	19645.48
628.74	20063.27
628.935	19760.17
629.129	19647.53
629.323	19522.6
629.517	19215.41
629.712	19389.49
629.906	19196.98
630.1	18986.04
630.294	18881.59
630.489	18881.59
630.683	19186.74
630.877	18537.53
631.071	18506.81
631.265	18742.33
631.459	18422.84
631.653	18230.34
631.848	18412.6
632.042	18080.83
632.236	18347.07
632.43	17953.86
632.624	18095.17
632.818	17726.53
633.012	17546.31
633.206	17646.66
633.4	17714.25
633.594	17263.69
633.788	17269.84
633.982	17357.9
634.176	17445.96
634.369	17239.12
634.563	17327.18
634.757	16884.82
634.951	16886.87
635.145	16733.27
635.339	16680.02
635.533	16598.1
635.726	16561.24
635.92	16489.56
636.114	16174.17
636.308	16139.36
636.501	16172.13
636.695	16276.57
636.889	15826.02
637.083	15932.51
637.276	15856.74
637.47	15959.14
637.664	15633.51
637.857	15547.5
638.051	15426.67
638.244	15178.86
638.438	15459.43
638.632	15162.48
638.825	15142
639.019	15273.07
639.212	15029.36
639.406	15076.46
639.599	14705.78
639.793	14824.56
639.986	14697.59
640.18	14759.03
640.373	14802.04
640.567	14220.41
640.76	14509.18
640.954	14345.34
641.147	14197.88
641.34	14128.25
641.534	13941.89
641.727	14032
641.92	14120.06
642.114	13988.99
642.307	13802.63
642.5	13675.65
642.694	13483.14
642.887	13503.62
643.08	13528.2
643.273	13522.06
643.467	13571.21
643.66	13450.38
643.853	13411.46
644.046	13087.89
644.239	13296.78
644.432	13067.41
644.626	12958.86
644.819	12915.86
645.012	13096.08
645.205	12946.58
645.398	12866.7
645.591	12625.04
645.784	12729.49
645.977	12403.86
646.17	12510.36
646.363	12354.71
646.556	12137.63
646.749	12467.35
646.942	12344.47
647.135	12250.27
647.328	11979.93
647.521	12219.55
647.714	11764.9
647.907	11879.58
648.099	11906.21
648.292	11773.09
648.485	11666.6
648.678	11689.12
648.871	11582.63
649.064	11459.75
649.256	11392.17
649.449	11349.16
649.642	11351.21
649.835	11281.58
650.027	11232.43
650.22	10972.33
650.413	11072.68
650.605	10990.77
650.798	10884.27
650.991	10994.86
651.183	10837.17
651.376	10833.07
651.568	10599.6
651.761	11033.77
651.954	10794.16
652.146	10632.37
652.339	10599.6
652.531	10542.26
652.724	10525.88
652.916	10292.41
653.109	10294.46
653.301	10427.57
653.494	10556.6
653.686	10204.35
653.879	10251.45
654.071	10245.31
654.263	10038.46
654.456	9848
654.648	10210.49
654.84	9665.73
655.033	9952.45
655.225	9862.33
655.417	9870.53
655.61	9807.04
655.802	9628.87
655.994	9858.24
656.186	9911.49
656.379	9381.06
656.571	9563.33
656.763	9399.49
656.955	9432.26
657.148	9186.51
657.34	9331.91
657.532	9170.12
657.724	9161.93
657.916	9077.96
658.108	9104.59
658.3	9123.02
658.492	8996.04
658.684	9102.54
658.876	9178.31
659.068	9018.57
659.26	8821.97
659.452	8854.73
659.644	8832.21
659.836	8774.86
660.028	8766.67
660.22	8635.6
660.412	8570.07
660.604	8514.77
660.796	8447.19
660.988	8643.79
661.18	8459.48
661.372	8416.47
661.563	8289.49
661.755	8447.19
661.947	8402.13
662.139	8242.39
662.331	8096.99
662.522	8256.73
662.714	8195.29
662.906	8015.07
663.097	8070.36
663.289	8006.88
663.481	8074.46
663.673	8146.14
663.864	7955.68
664.056	7707.87
664.247	7937.24
664.439	7658.72
664.631	7847.13
664.822	7892.19
665.014	7419.11
665.205	7546.08
665.397	7599.33
665.588	7541.99
665.78	7533.79
665.971	7449.83
666.163	7625.95
666.354	7544.03
666.546	7552.23
666.737	7224.55
666.929	7449.83
667.12	7316.71
667.311	7290.09
667.503	7165.16
667.694	7312.61
667.885	7185.64
668.077	7118.06
668.268	7044.33
668.459	7130.34
668.651	7124.2
668.842	7302.37
669.033	7161.06
669.224	6968.56
669.416	7077.1
669.607	6864.11
669.798	6964.46
669.989	7066.86
670.18	6976.75
670.371	6972.65
670.563	7003.37
670.754	6786.29
670.945	6857.96
671.136	6786.29
671.327	6694.13
671.518	6833.39
671.709	6886.64
671.9	6845.68
672.091	6868.2
672.282	6696.18
672.473	6778.09
672.664	6526.19
672.855	6735.09
673.046	6749.42
673.237	6593.78
673.428	6544.63
673.619	6569.2
673.809	6317.3
674	6536.43
674.191	6483.19
674.382	6333.68
674.573	6507.76
674.764	6388.98
674.954	6456.56
675.145	6319.35
675.336	6262.01
675.527	6378.74
675.717	6384.88
675.908	6311.16
676.099	6300.92
676.289	6421.75
676.48	6264.05
676.671	6253.81
676.861	6405.36
677.052	6284.53
677.243	6190.33
677.433	6262.01
677.624	6151.42
677.814	6167.8
678.005	6305.01
678.195	6282.49
678.386	6139.13
678.576	6028.54
678.767	6022.39
678.957	6161.66
679.148	6190.33
679.338	6173.94
679.529	6020.35
679.719	6110.46
679.909	6292.73
680.1	6010.11
680.29	6051.06
680.481	6079.74
680.671	6104.31
680.861	6186.23
681.052	6157.56
681.242	6018.3
681.432	6110.46
681.622	6001.91
681.813	6077.69
682.003	6124.79
682.193	5936.38
682.383	5864.7
682.573	5983.48
682.764	6042.87
682.954	6204.66
683.144	6175.99
683.334	5891.32
683.524	5928.19
683.714	6012.15
683.904	5852.41
684.094	5942.52
684.284	5887.23
684.474	5795.07
684.664	6022.39
684.854	5889.28
685.044	5856.51
685.234	5788.93
685.424	5684.48
685.614	5735.68
685.804	5700.86
685.994	5776.64
686.184	5786.88
686.374	5764.35
686.564	5604.61
686.753	5737.73
686.943	5459.2
687.133	5512.45
687.323	5659.9
687.513	5504.26
687.702	5477.63
687.892	5518.59
688.082	5373.19
688.272	5410.05
688.461	5373.19
688.651	5475.59
688.841	5328.13
689.03	5418.24
689.22	5328.13
689.41	5371.14
689.599	5348.61
689.789	5068.04
689.979	5252.36
690.168	5053.7
690.358	5152.01
690.547	5037.32
690.737	5039.37
690.926	5068.04
691.116	5029.13
691.305	5076.23
691.495	4992.27
691.684	4992.27
691.874	5012.74
692.063	4855.05
692.252	4900.11
692.442	4769.04
692.631	4738.32
692.82	4803.85
693.01	4916.49
693.199	4644.11
693.388	4719.89
693.578	4623.63
693.767	4662.54
693.956	4685.07
694.146	4637.97
694.335	4666.64
694.524	4494.61
694.713	4611.34
694.902	4633.87
695.092	4449.55
695.281	4560.14
695.47	4635.92
695.659	4373.78
695.848	4273.43
696.037	4343.06
696.226	4418.83
696.415	4320.53
696.604	4418.83
696.793	4285.72
696.982	4367.63
697.171	4439.31
697.36	4287.76
697.549	4138.26
697.738	4302.1
697.927	4252.95
698.116	4269.33
698.305	4248.85
698.494	4207.89
698.683	4201.75
698.872	4302.1
699.061	4201.75
699.25	4054.3
699.438	4222.23
699.627	4238.61
699.816	4195.61
700.005	4095.25
700.193	4076.82
700.382	4050.2
700.571	4160.79
700.76	4031.77
700.948	4093.21
701.137	4150.55
701.326	4048.15
701.514	4152.6
701.703	4103.45
701.892	4068.63
702.08	4064.54
702.269	4123.93
702.457	4064.54
702.646	4005.14
702.834	3833.11
703.023	4060.44
703.212	3958.04
703.4	3988.76
703.589	3908.89
703.777	4037.91
703.965	4013.34
704.154	3917.08
704.342	3976.47
704.531	3927.32
704.719	3863.83
704.907	3915.03
705.096	3849.5
705.284	3986.71
705.472	3941.66
705.661	4091.16
705.849	4074.78
706.037	4027.67
706.226	3843.35
706.414	3890.46
706.602	3968.28
706.79	3933.47
706.979	3851.55
707.167	3966.23
707.355	3921.18
707.543	3863.83
707.731	4072.73
707.919	3912.99
708.107	3783.96
708.296	3849.5
708.484	3802.4
708.672	3984.66
708.86	3902.75
709.048	3976.47
709.236	3994.9
709.424	3824.92
709.612	3859.74
709.8	3839.26
709.988	3824.92
710.176	4074.78
710.364	3974.42
710.551	3921.18
710.739	3970.33
710.927	3966.23
711.115	3900.7
711.303	3927.32
711.491	4089.11
711.679	3943.71
711.866	4046.1
712.054	3861.79
712.242	3790.11
712.43	4099.35
712.617	3857.69
712.805	4187.41
712.993	4105.49
713.181	3941.66
713.368	4089.11
713.556	4078.87
713.744	3935.51
713.931	4072.73
714.119	4064.54
714.306	3888.41
714.494	3849.5
714.682	3970.33
714.869	3990.81
715.057	4056.34
715.244	4019.48
715.432	4052.25
715.619	4119.83
715.807	4035.86
715.994	4007.19
716.182	4074.78
716.369	4148.5
716.556	4072.73
716.744	3992.86
716.931	3966.23
717.119	4160.79
717.306	3931.42
717.493	4080.92
717.681	4025.62
717.868	4080.92
718.055	4148.5
718.242	4181.27
718.43	4101.4
718.617	4211.99
718.804	4095.25
718.991	4056.34
719.179	4085.02
719.366	4009.24
719.553	4048.15
719.74	4150.55
719.927	4013.34
720.114	3933.47
720.301	4130.07
720.488	4152.6
720.676	4115.73
720.863	4035.86
721.05	4183.32
721.237	4201.75
721.424	4277.52
721.611	4226.32
721.798	4140.31
721.985	4179.22
722.172	4211.99
722.358	4115.73
722.545	4244.76
722.732	4160.79
722.919	4353.3
723.106	4082.97
723.293	4113.69
723.48	4201.75
723.667	4263.19
723.853	4134.17
724.04	4363.54
724.227	4381.97
724.414	4148.5
724.6	4224.28
724.787	4117.78
724.974	4351.25
725.161	4199.7
725.347	4117.78
725.534	4359.44
725.72	4201.75
725.907	4087.06
726.094	4259.09
726.28	4287.76
726.467	4154.65
726.653	4281.62
726.84	4424.98
727.027	4490.51
727.213	4277.52
727.4	4343.06
727.586	4252.95
727.773	4320.53
727.959	4255
728.145	4130.07
728.332	4275.48
728.518	4283.67
728.705	4226.32
728.891	4406.55
729.077	4381.97
729.264	4224.28
729.45	4349.2
729.636	4447.51
729.823	4293.91
730.009	4414.74
730.195	4250.9
730.382	4353.3
730.568	4334.87
730.754	4285.72
730.94	4388.11
731.126	4355.35
731.313	4345.11
731.499	4429.07
731.685	4455.7
731.871	4259.09
732.057	4379.92
732.243	4410.64
732.429	4341.01
732.615	4271.38
732.801	4502.8
732.987	4414.74
733.173	4410.64
733.359	4414.74
733.545	4379.92
733.731	4275.48
733.917	4373.78
734.103	4447.51
734.289	4211.99
734.475	4341.01
734.661	4482.32
734.847	4408.59
735.033	4386.07
735.219	4308.24
735.404	4277.52
735.59	4349.2
735.776	4302.1
735.962	4463.89
736.148	4277.52
736.333	4449.55
736.519	4398.35
736.705	4338.96
736.89	4355.35
737.076	4338.96
737.262	4324.63
737.447	4173.08
737.633	4232.47
737.819	4408.59
738.004	4132.12
738.19	4324.63
738.375	4177.17
738.561	4365.59
738.747	4185.37
738.932	4384.02
739.118	4287.76
739.303	4283.67
739.489	4209.94
739.674	4343.06
739.859	4269.33
740.045	4338.96
740.23	4218.13
740.416	4066.58
740.601	4390.16
740.786	4328.72
740.972	4142.36
741.157	4093.21
741.342	4144.41
741.528	4345.11
741.713	4302.1
741.898	4130.07
742.084	4087.06
742.269	4101.4
742.454	4132.12
742.639	4138.26
742.824	4023.58
743.01	3968.28
743.195	4060.44
743.38	4013.34
743.565	3968.28
743.75	3970.33
743.935	3955.99
744.12	4009.24
744.305	3865.88
744.49	3982.62
744.675	4013.34
744.86	3886.36
745.045	3822.88
745.23	3906.84
745.415	3704.09
745.6	3910.94
745.785	3743
745.97	3802.4
746.155	3835.16
746.34	3751.2
746.525	3753.24
746.71	3806.49
746.895	3538.21
747.079	3581.21
747.264	3648.8
747.449	3679.52
747.634	3728.67
747.819	3605.79
748.003	3530.02
748.188	3570.97
748.373	3546.4
748.557	3448.1
748.742	3437.86
748.927	3554.59
749.111	3335.46
749.296	3519.78
749.481	3321.12
749.665	3390.75
749.85	3284.26
750.034	3466.53
750.219	3233.06
750.404	3337.51
750.588	3237.16
750.773	3132.71
750.957	3290.4
751.141	3177.76
751.326	3243.3
751.51	3165.48
751.695	3024.17
751.879	3145
752.064	3183.91
752.248	3056.93
752.432	2995.5
752.617	3075.37
752.801	3073.32
752.985	3032.36
753.17	2954.54
753.354	2987.3
753.538	2956.58
753.722	2866.47
753.907	2802.99
754.091	2880.81
754.275	2882.86
754.459	2858.28
754.643	2907.43
754.828	2755.88
755.012	2780.46
755.196	2669.87
755.38	2778.41
755.564	2610.48
755.748	2729.26
755.932	2784.55
756.116	2678.06
756.3	2600.24
756.484	2614.57
756.668	2493.74
756.852	2518.32
757.036	2575.66
757.22	2434.35
757.404	2516.27
757.588	2385.2
757.772	2637.1
757.956	2452.78
758.14	2448.69
758.323	2422.06
758.507	2407.73
758.691	2422.06
758.875	2479.41
759.059	2415.92
759.242	2438.45
759.426	2338.1
759.61	2278.71
759.794	2276.66
759.977	2301.23
760.161	2383.15
760.345	2325.81
760.528	2293.04
760.712	2247.99
760.895	2282.8
761.079	2145.59
761.263	2147.64
761.446	2102.58
761.63	2172.21
761.813	2264.37
761.997	2153.78
762.18	2135.35
762.364	2139.44
762.547	2114.87
762.731	2161.97
762.914	2137.4
763.098	2157.88
763.281	2110.77
763.464	2043.19
763.648	2018.61
763.831	1998.13
764.015	1977.66
764.198	1967.42
764.381	2071.86
764.564	1981.75
764.748	1936.7
764.931	1967.42
765.114	1908.02
765.297	1932.6
765.481	1918.26
765.664	1899.83
765.847	2016.57
766.03	1871.16
766.213	1928.5
766.397	1797.43
766.58	1844.54
766.763	1908.02
766.946	1948.98
767.129	1920.31
767.312	1813.82
767.495	1869.11
767.678	1797.43
767.861	1832.25
768.044	1893.69
768.227	1813.82
768.41	1760.57
768.593	1774.91
768.776	1633.6
768.959	1828.15
769.142	1606.97
769.324	1762.62
769.507	1715.52
769.69	1686.84
769.873	1652.03
770.056	1717.56
770.239	1617.21
770.421	1684.8
770.604	1584.45
770.787	1606.97
770.97	1576.25
771.152	1586.49
771.335	1719.61
771.518	1639.74
771.7	1654.08
771.883	1590.59
772.066	1563.97
772.248	1609.02
772.431	1688.89
772.613	1547.58
772.796	1592.64
772.978	1508.67
773.161	1602.88
773.343	1525.05
773.526	1459.52
773.708	1426.75
773.891	1383.74
774.073	1402.18
774.256	1432.9
774.438	1557.82
774.621	1422.66
774.803	1426.75
774.985	1355.07
775.168	1459.52
775.35	1344.83
775.532	1324.35
775.715	1398.08
775.897	1434.94
776.079	1267.01
776.261	1441.09
776.444	1353.02
776.626	1389.89
776.808	1346.88
776.99	1350.98
777.173	1260.87
777.355	1250.63
777.537	1320.26
777.719	1305.92
777.901	1260.87
778.083	1170.76
778.265	1224
778.447	1269.06
778.629	1170.76
778.811	1181
778.993	1252.67
779.175	1246.53
779.357	1160.52
779.539	1162.56
779.721	1256.77
779.903	1281.35
780.085	1154.37
780.267	1166.66
780.449	1217.86
780.631	1137.99
780.812	1133.89
780.994	1193.28
781.176	1051.97
781.358	1017.16
781.54	1080.64
781.721	1109.32
781.903	1092.93
782.085	1066.31
782.267	1033.54
782.448	1011.01
782.63	1082.69
782.812	1019.21
782.993	945.48
783.175	1031.49
783.357	937.29
783.538	896.33
783.72	826.7
783.901	881.99
784.083	1015.11
784.264	937.29
784.446	765.26
784.627	879.94
784.809	929.1
784.99	820.55
785.172	881.99
785.353	982.34
785.535	900.42
785.716	877.9
785.897	869.7
786.079	791.88
786.26	894.28
786.441	779.59
786.623	836.94
786.804	748.87
786.985	867.66
787.167	814.41
787.348	828.74
787.529	748.87
787.71	841.03
787.891	826.7
788.073	748.87
788.254	730.44
788.435	824.65
788.616	685.39
788.797	716.11
788.978	869.7
789.159	716.11
789.34	808.26
789.522	650.57
789.703	765.26
789.884	714.06
790.065	658.76
790.246	808.26
790.427	654.67
790.607	761.16
790.788	697.67
790.969	744.78
791.15	707.91
791.331	654.67
791.512	613.71
791.693	646.48
791.874	591.18
792.054	761.16
792.235	716.11
792.416	572.75
792.597	517.45
792.778	636.24
792.958	580.94
793.139	582.99
793.32	640.33
793.5	617.8
793.681	695.63
793.862	597.32
794.042	513.36
794.223	617.8
794.404	580.94
794.584	570.7
794.765	601.42
794.945	574.8
795.126	492.88
795.306	564.56
795.487	626
795.667	511.31
795.848	460.11
796.028	527.69
796.209	515.41
796.389	578.89
796.57	476.49
796.75	515.41
796.93	531.79
797.111	460.11
797.291	542.03
797.471	507.21
797.652	572.75
797.832	556.36
798.012	537.93
798.192	511.31
798.373	451.92
798.553	507.21
798.733	496.97
798.913	460.11
799.093	521.55
799.274	515.41
799.454	482.64
799.634	607.56
799.814	499.02
799.994	441.68
800.174	484.69
800.354	441.68
800.534	392.53
800.714	564.56
800.894	406.86
801.074	499.02
801.254	427.34
801.434	552.27
801.614	433.49
801.794	386.38
801.974	1314.11
802.154	417.1
802.334	410.96
802.514	349.52
802.693	458.06
802.873	396.62
803.053	433.49
803.233	415.06
803.413	425.29
803.592	361.81
803.772	318.8
803.952	402.77
804.131	456.01
804.311	374.1
804.491	386.38
804.67	320.85
804.85	427.34
805.03	363.86
805.209	421.2
805.389	386.38
805.568	425.29
805.748	378.19
805.928	474.45
806.107	408.91
806.287	392.53
806.466	402.77
806.646	400.72
806.825	345.42
807.004	314.7
807.184	329.04
807.363	326.99
807.543	292.18
807.722	355.66
807.901	314.7
808.081	419.15
808.26	240.98
808.439	370
808.619	378.19
808.798	253.27
808.977	408.91
809.156	333.14
809.336	318.8
809.515	331.09
809.694	292.18
809.873	296.27
810.052	351.57
810.231	324.94
810.411	318.8
810.59	384.34
810.769	261.46
810.948	359.76
811.127	204.11
811.306	310.61
811.485	273.75
811.664	286.03
811.843	386.38
812.022	304.46
812.201	294.22
812.38	396.62
812.559	345.42
812.737	361.81
812.916	245.07
813.095	314.7
813.274	288.08
813.453	253.27
813.632	214.35
813.811	324.94
813.989	214.35
814.168	279.89
814.347	230.74
814.526	259.41
814.704	263.51
814.883	324.94
815.062	214.35
815.24	322.9
815.419	255.31
815.598	267.6
815.776	183.63
815.955	267.6
816.133	251.22
816.312	245.07
816.49	288.08
816.669	279.89
816.847	294.22
817.026	343.38
817.204	265.55
817.383	230.74
817.561	259.41
817.74	257.36
817.918	230.74
818.097	167.25
818.275	267.6
818.453	253.27
818.632	273.75
818.81	255.31
818.988	224.59
819.167	261.46
819.345	230.74
819.523	218.45
819.701	197.97
819.879	218.45
820.058	220.5
820.236	226.64
820.414	230.74
820.592	251.22
820.77	212.31
820.948	175.44
821.127	157.01
821.305	222.55
821.483	247.12
821.661	228.69
821.839	218.45
822.017	124.24
822.195	236.88
822.373	206.16
822.551	238.93
822.729	206.16
822.907	187.73
823.085	191.83
823.262	165.2
823.44	232.79
823.618	177.49
823.796	222.55
823.974	134.48
824.152	171.35
824.329	234.83
824.507	173.39
824.685	247.12
824.863	195.92
825.04	169.3
825.218	177.49
825.396	95.57
825.574	195.92
825.751	191.83
825.929	206.16
826.107	138.58
826.284	165.2
826.462	195.92
826.639	142.68
826.817	114
826.994	175.44
827.172	122.2
827.349	214.35
827.527	197.97
827.704	138.58
827.882	200.02
828.059	187.73
828.237	122.2
828.414	187.73
828.591	126.29
828.769	146.77
828.946	185.68
829.124	173.39
829.301	179.54
829.478	154.96
829.655	224.59
829.833	81.24
830.01	73.04
830.187	154.96
830.364	171.35
830.542	240.98
830.719	195.92
830.896	163.15
831.073	236.88
831.25	152.91
831.427	204.11
831.604	130.39
831.782	136.53
831.959	200.02
832.136	171.35
832.313	109.91
832.49	89.43
832.667	187.73
832.844	103.76
833.021	255.31
833.198	204.11
833.374	23.89
833.551	161.11
833.728	134.48
833.905	163.15
834.082	134.48
834.259	126.29
834.436	81.24
834.612	138.58
834.789	197.97
834.966	68.95
835.143	140.63
835.319	85.33
835.496	99.67
835.673	134.48
835.85	191.83
836.026	128.34
836.203	73.04
836.38	126.29
836.556	146.77
836.733	114
836.909	193.87
837.086	107.86
837.262	58.71
837.439	161.11
837.616	146.77
837.792	101.72
837.968	97.62
838.145	118.1
838.321	109.91
838.498	181.59
838.674	148.82
838.851	105.81
839.027	99.67
839.203	93.52
839.38	148.82
839.556	107.86
839.732	148.82
839.909	126.29
840.085	148.82
840.261	81.24
840.437	75.09
840.614	134.48
840.79	101.72
840.966	142.68
841.142	150.87
841.318	32.08
841.494	142.68
841.671	130.39
841.847	111.96
842.023	77.14
842.199	44.37
842.375	114
842.551	91.48
842.727	44.37
842.903	154.96
843.079	48.47
843.255	111.96
843.431	89.43
843.607	89.43
843.783	17.75
843.959	148.82
844.134	44.37
844.31	157.01
844.486	34.13
844.662	52.56
844.838	83.28
845.013	103.76
845.189	118.1
845.365	109.91
845.541	101.72
845.716	58.71
845.892	183.63
846.068	97.62
846.244	85.33
846.419	58.71
846.595	17.75
846.77	66.9
846.946	140.63
847.122	64.85
847.297	77.14
847.473	210.26
847.648	-21.16
847.824	93.52
847.999	34.13
848.175	105.81
848.35	83.28
848.526	107.86
848.701	85.33
848.876	140.63
849.052	126.29
849.227	44.37
849.403	81.24
849.578	58.71
849.753	93.52
849.929	134.48
850.104	23.89
850.279	142.68
850.454	81.24
850.63	81.24
850.805	114
850.98	140.63
851.155	81.24
851.33	109.91
851.505	9.56
851.681	85.33
851.856	99.67
852.031	95.57
852.206	-4.78
852.381	58.71
852.556	-64.17
852.731	130.39
852.906	91.48
853.081	38.23
853.256	126.29
853.431	148.82
853.606	-55.98
853.781	79.19
853.956	-27.31
854.131	32.08
854.305	1.37
854.48	64.85
854.655	64.85
854.83	48.47
855.005	54.61
855.18	89.43
855.354	50.52
855.529	66.9
855.704	122.2
855.879	15.7
856.053	-37.55
856.228	114
856.403	56.66
856.577	171.35
856.752	-66.22
856.926	48.47
857.101	87.38
857.276	36.18
857.45	62.8
857.625	93.52
857.799	66.9
857.974	21.84
858.148	-0.68
858.323	93.52
858.497	27.99
858.672	73.04
858.846	48.47
859.02	85.33
859.195	23.89
859.369	97.62
859.543	48.47
859.718	46.42
859.892	54.61
860.066	1.37
860.241	25.94
860.415	-25.26
860.589	34.13
860.763	54.61
860.938	9.56
861.112	81.24
861.286	25.94
861.46	54.61
861.634	109.91
861.808	50.52
861.982	40.28
862.157	-12.97
862.331	21.84
862.505	17.75
862.679	-29.35
862.853	44.37
863.027	48.47
863.201	83.28
863.375	-37.55
863.549	85.33
863.722	40.28
863.896	81.24
864.07	11.61
864.244	23.89
864.418	30.04
864.592	9.56
864.766	54.61
864.939	1.37
865.113	116.05
865.287	68.95
865.461	5.46
865.634	7.51
865.808	48.47
865.982	23.89
866.156	7.51
866.329	-39.59
866.503	38.23
866.676	48.47
866.85	-4.78
867.024	1.37
867.197	159.06
867.371	11.61
867.544	1.37
867.718	-64.17
867.891	75.09
868.065	-37.55
868.238	30.04
868.412	11.61
868.585	38.23
868.759	9.56
868.932	89.43
869.105	-8.87
869.279	-27.31
869.452	-0.68
869.625	-10.92
869.799	-25.26
869.972	21.84
870.145	-25.26
870.319	95.57
870.492	11.61
870.665	-4.78
870.838	73.04
871.011	-55.98
871.185	-35.5
871.358	-47.79
871.531	23.89
871.704	23.89
871.877	73.04
872.05	42.32
872.223	13.65
872.396	30.04
872.569	48.47
872.742	9.56
872.915	68.95
873.088	-0.68
873.261	-41.64
873.434	50.52
873.607	-94.89
873.78	89.43
873.953	-58.03
874.126	-62.12
874.299	11.61
874.471	27.99
874.644	52.56
874.817	83.28
874.99	64.85
875.163	50.52
875.335	21.84
875.508	13.65
875.681	124.24
875.853	-0.68
876.026	46.42
876.199	38.23
876.371	11.61
876.544	79.19
876.717	-33.45
876.889	1.37
877.062	38.23
877.234	-64.17
877.407	-8.87
877.579	9.56
877.752	13.65
877.924	7.51
878.097	81.24
878.269	27.99
878.442	15.7
878.614	-8.87
878.786	85.33
878.959	-2.73
879.131	21.84
879.303	-82.6
879.476	-33.45
879.648	89.43
879.82	-0.68
879.993	-47.79
880.165	32.08
880.337	-72.36
880.509	5.46
880.681	-41.64
880.854	7.51
881.026	17.75
881.198	138.58
881.37	-15.02
881.542	19.8
881.714	81.24
881.886	7.51
882.058	1.37
882.23	9.56
882.402	52.56
882.574	15.7
882.746	89.43
882.918	107.86
883.09	48.47
883.262	-17.07
883.434	11.61
883.606	66.9
883.778	-6.83
883.95	126.29
884.122	-55.98
884.293	25.94
884.465	-66.22
884.637	23.89
884.809	7.51
884.98	-39.59
885.152	38.23
885.324	50.52
885.496	-12.97
885.667	13.65
885.839	17.75
886.011	126.29
886.182	64.85
886.354	83.28
886.525	-0.68
886.697	58.71
886.869	-10.92
887.04	-111.27
887.212	-8.87
887.383	52.56
887.555	36.18
887.726	1.37
887.897	1.37
888.069	75.09
888.24	34.13
888.412	81.24
888.583	-6.83
888.754	3.41
888.926	-66.22
889.097	52.56
889.268	-53.93
889.44	40.28
889.611	1.37
889.782	-0.68
889.953	-21.16
890.125	27.99
890.296	23.89
890.467	-25.26
890.638	-0.68
890.809	23.89
890.98	-17.07
891.151	77.14
891.323	66.9
891.494	109.91
891.665	-12.97
891.836	46.42
892.007	77.14
892.178	73.04
892.349	93.52
892.52	-62.12
892.691	-4.78
892.862	-8.87
893.032	-12.97
893.203	27.99
893.374	-37.55
893.545	138.58
893.716	-55.98
893.887	50.52
894.057	-0.68
894.228	-37.55
894.399	-98.99
894.57	71
894.74	19.8
894.911	-21.16
895.082	34.13
895.253	46.42
895.423	-41.64
895.594	34.13
895.764	32.08
895.935	-78.51
896.106	27.99
896.276	15.7
896.447	9.56
896.617	-105.13
896.788	-17.07
896.958	66.9
897.129	-62.12
897.299	-41.64
897.47	23.89
897.64	23.89
897.81	48.47
897.981	-98.99
898.151	-82.6
898.322	-21.16
898.492	64.85
898.662	-55.98
898.832	-62.12
899.003	71
899.173	-23.21
899.343	-107.18
899.513	-76.46
