Data from USB4F104151__24__13-04-45-728.txt Node

Date: Fri Mar 14 13:04:45 EDT 2025
User: louis
Spectrometer: USB4F10415
Trigger mode: 4
Integration Time (sec): 4.000000E-2
Scans to average: 1
Electric dark correction enabled: true
Nonlinearity correction enabled: false
Boxcar width: 0
XAxis mode: Wavelengths
Number of Pixels in Spectrum: 3648
>>>>>Begin Spectral Data<<<<<
178.204	-182.1
178.424	-182.1
178.644	-182.1
178.864	-145.24
179.084	-167.76
179.304	-1.88
179.524	-44.88
179.744	0.17
179.964	98.47
180.184	57.51
180.404	-14.17
180.624	-5.97
180.844	37.03
181.064	41.13
181.283	-75.6
181.503	-75.6
181.723	-16.21
181.943	-71.51
182.163	67.75
182.383	20.65
182.602	106.67
182.822	75.95
183.042	96.43
183.262	16.55
183.482	39.08
183.701	24.75
183.921	37.03
184.141	-16.21
184.361	45.23
184.58	84.14
184.8	8.36
185.02	12.46
185.239	118.95
185.459	67.75
185.679	37.03
185.898	-36.69
186.118	125.1
186.338	4.27
186.557	41.13
186.777	-14.17
186.997	53.42
187.216	-38.74
187.436	116.9
187.655	12.46
187.875	75.95
188.095	39.08
188.314	84.14
188.534	75.95
188.753	98.47
188.973	102.57
189.192	30.89
189.412	92.33
189.631	28.84
189.851	-28.5
190.07	75.95
190.29	-12.12
190.509	32.94
190.729	-48.98
190.948	-34.64
191.168	219.3
191.387	49.32
191.607	14.51
191.826	-69.46
192.045	57.51
192.265	-32.6
192.484	-5.97
192.704	73.9
192.923	28.84
193.142	166.06
193.362	94.38
193.581	96.43
193.8	98.47
194.02	49.32
194.239	61.61
194.458	90.28
194.678	26.79
194.897	-12.12
195.116	73.9
195.335	12.46
195.555	69.8
195.774	98.47
195.993	71.85
196.212	57.51
196.432	84.14
196.651	106.67
196.87	43.18
197.089	155.82
197.308	63.66
197.528	123.05
197.747	-8.02
197.966	-24.4
198.185	73.9
198.404	41.13
198.623	90.28
198.842	98.47
199.062	98.47
199.281	100.52
199.5	24.75
199.719	22.7
199.938	49.32
200.157	43.18
200.376	106.67
200.595	57.51
200.814	-3.93
201.033	41.13
201.252	100.52
201.471	86.19
201.69	84.14
201.909	45.23
202.128	71.85
202.347	80.04
202.566	20.65
202.785	-10.07
203.004	16.55
203.223	116.9
203.442	-12.12
203.661	67.75
203.879	49.32
204.098	73.9
204.317	-5.97
204.536	108.71
204.755	73.9
204.974	123.05
205.193	65.71
205.411	151.72
205.63	41.13
205.849	12.46
206.068	49.32
206.287	24.75
206.505	47.27
206.724	0.17
206.943	32.94
207.162	14.51
207.381	71.85
207.599	57.51
207.818	37.03
208.037	41.13
208.255	-3.93
208.474	41.13
208.693	88.23
208.911	34.99
209.13	102.57
209.349	43.18
209.567	12.46
209.786	106.67
210.005	73.9
210.223	32.94
210.442	-8.02
210.661	20.65
210.879	90.28
211.098	18.6
211.316	30.89
211.535	45.23
211.753	90.28
211.972	26.79
212.191	32.94
212.409	41.13
212.628	-38.74
212.846	49.32
213.065	104.62
213.283	77.99
213.502	53.42
213.72	14.51
213.938	-3.93
214.157	77.99
214.375	98.47
214.594	108.71
214.812	2.22
215.031	-12.12
215.249	49.32
215.467	37.03
215.686	-44.88
215.904	98.47
216.122	71.85
216.341	92.33
216.559	32.94
216.778	71.85
216.996	10.41
217.214	-5.97
217.432	-10.07
217.651	57.51
217.869	90.28
218.087	18.6
218.306	-5.97
218.524	80.04
218.742	12.46
218.96	-5.97
219.179	114.86
219.397	110.76
219.615	108.71
219.833	106.67
220.051	-69.46
220.27	32.94
220.488	69.8
220.706	20.65
220.924	-18.26
221.142	-8.02
221.36	51.37
221.578	32.94
221.796	63.66
222.015	12.46
222.233	26.79
222.451	55.47
222.669	-5.97
222.887	65.71
223.105	-46.93
223.323	-10.07
223.541	37.03
223.759	4.27
223.977	-12.12
224.195	86.19
224.413	43.18
224.631	86.19
224.849	49.32
225.067	102.57
225.285	-18.26
225.503	-5.97
225.721	10.41
225.939	8.36
226.157	43.18
226.375	80.04
226.592	77.99
226.81	20.65
227.028	32.94
227.246	49.32
227.464	18.6
227.682	96.43
227.9	49.32
228.117	123.05
228.335	32.94
228.553	45.23
228.771	47.27
228.989	82.09
229.206	28.84
229.424	84.14
229.642	39.08
229.86	4.27
230.077	8.36
230.295	4.27
230.513	61.61
230.731	45.23
230.948	125.1
231.166	18.6
231.384	53.42
231.601	28.84
231.819	106.67
232.037	4.27
232.254	12.46
232.472	34.99
232.689	-36.69
232.907	57.51
233.125	131.24
233.342	28.84
233.56	-38.74
233.777	-14.17
233.995	4.27
234.213	82.09
234.43	55.47
234.648	43.18
234.865	24.75
235.083	10.41
235.3	198.82
235.518	57.51
235.735	106.67
235.953	121
236.17	86.19
236.388	-24.4
236.605	75.95
236.822	84.14
237.04	90.28
237.257	-1.88
237.475	-30.55
237.692	47.27
237.909	73.9
238.127	18.6
238.344	86.19
238.562	18.6
238.779	-8.02
238.996	24.75
239.214	51.37
239.431	100.52
239.648	26.79
239.865	57.51
240.083	77.99
240.3	30.89
240.517	22.7
240.735	73.9
240.952	49.32
241.169	161.96
241.386	-1.88
241.603	-5.97
241.821	4.27
242.038	16.55
242.255	104.62
242.472	-5.97
242.689	102.57
242.907	92.33
243.124	49.32
243.341	86.19
243.558	20.65
243.775	-98.13
243.992	28.84
244.209	121
244.426	102.57
244.643	39.08
244.86	77.99
245.078	71.85
245.295	20.65
245.512	14.51
245.729	16.55
245.946	69.8
246.163	114.86
246.38	26.79
246.597	28.84
246.814	16.55
247.031	77.99
247.248	100.52
247.464	12.46
247.681	26.79
247.898	135.34
248.115	47.27
248.332	47.27
248.549	100.52
248.766	170.15
248.983	-3.93
249.2	67.75
249.417	92.33
249.633	-24.4
249.85	57.51
250.067	-20.31
250.284	-3.93
250.501	77.99
250.717	16.55
250.934	53.42
251.151	-16.21
251.368	102.57
251.585	-10.07
251.801	8.36
252.018	-1.88
252.235	37.03
252.451	14.51
252.668	18.6
252.885	61.61
253.102	10.41
253.318	37.03
253.535	-16.21
253.752	67.75
253.968	18.6
254.185	51.37
254.401	53.42
254.618	43.18
254.835	14.51
255.051	51.37
255.268	67.75
255.484	112.81
255.701	104.62
255.917	59.56
256.134	-34.64
256.351	67.75
256.567	71.85
256.784	41.13
257	-18.26
257.217	-18.26
257.433	131.24
257.65	59.56
257.866	141.48
258.082	-1.88
258.299	20.65
258.515	57.51
258.732	14.51
258.948	84.14
259.165	49.32
259.381	34.99
259.597	39.08
259.814	71.85
260.03	45.23
260.246	20.65
260.463	-5.97
260.679	133.29
260.895	65.71
261.112	88.23
261.328	8.36
261.544	49.32
261.761	133.29
261.977	41.13
262.193	-5.97
262.409	57.51
262.626	18.6
262.842	75.95
263.058	37.03
263.274	178.34
263.49	139.43
263.707	94.38
263.923	57.51
264.139	10.41
264.355	55.47
264.571	155.82
264.787	61.61
265.004	45.23
265.22	0.17
265.436	-12.12
265.652	37.03
265.868	118.95
266.084	67.75
266.3	24.75
266.516	-8.02
266.732	28.84
266.948	98.47
267.164	32.94
267.38	102.57
267.596	57.51
267.812	157.86
268.028	10.41
268.244	37.03
268.46	-40.79
268.676	-22.36
268.892	100.52
269.108	16.55
269.324	41.13
269.54	51.37
269.756	121
269.972	-36.69
270.188	-8.02
270.403	8.36
270.619	61.61
270.835	92.33
271.051	53.42
271.267	32.94
271.483	24.75
271.698	61.61
271.914	59.56
272.13	34.99
272.346	41.13
272.562	90.28
272.777	106.67
272.993	16.55
273.209	53.42
273.425	94.38
273.64	57.51
273.856	71.85
274.072	37.03
274.287	75.95
274.503	108.71
274.719	69.8
274.934	55.47
275.15	-8.02
275.366	18.6
275.581	49.32
275.797	37.03
276.012	75.95
276.228	37.03
276.444	75.95
276.659	37.03
276.875	8.36
277.09	61.61
277.306	75.95
277.521	116.9
277.737	55.47
277.952	112.81
278.168	0.17
278.383	65.71
278.599	-63.32
278.814	55.47
279.03	65.71
279.245	116.9
279.461	20.65
279.676	104.62
279.892	-28.5
280.107	-5.97
280.322	18.6
280.538	75.95
280.753	26.79
280.969	18.6
281.184	77.99
281.399	98.47
281.615	51.37
281.83	39.08
282.045	18.6
282.26	24.75
282.476	53.42
282.691	28.84
282.906	53.42
283.122	90.28
283.337	71.85
283.552	137.38
283.767	24.75
283.983	24.75
284.198	47.27
284.413	20.65
284.628	0.17
284.843	24.75
285.058	77.99
285.274	98.47
285.489	114.86
285.704	65.71
285.919	14.51
286.134	67.75
286.349	32.94
286.564	69.8
286.779	108.71
286.995	18.6
287.21	-26.45
287.425	90.28
287.64	30.89
287.855	55.47
288.07	-18.26
288.285	75.95
288.5	49.32
288.715	69.8
288.93	-8.02
289.145	73.9
289.36	32.94
289.575	6.31
289.79	-3.93
290.004	41.13
290.219	116.9
290.434	10.41
290.649	77.99
290.864	-1.88
291.079	8.36
291.294	69.8
291.509	10.41
291.724	51.37
291.938	47.27
292.153	96.43
292.368	71.85
292.583	86.19
292.798	47.27
293.012	28.84
293.227	57.51
293.442	75.95
293.657	67.75
293.871	53.42
294.086	26.79
294.301	188.58
294.516	57.51
294.73	18.6
294.945	-38.74
295.16	61.61
295.374	106.67
295.589	129.19
295.804	-16.21
296.018	-26.45
296.233	98.47
296.447	82.09
296.662	-32.6
296.877	24.75
297.091	75.95
297.306	90.28
297.52	8.36
297.735	-3.93
297.949	104.62
298.164	108.71
298.378	82.09
298.593	22.7
298.807	22.7
299.022	116.9
299.236	127.14
299.451	34.99
299.665	53.42
299.88	49.32
300.094	16.55
300.309	75.95
300.523	92.33
300.737	69.8
300.952	-32.6
301.166	90.28
301.381	69.8
301.595	-3.93
301.809	28.84
302.024	8.36
302.238	65.71
302.452	53.42
302.667	65.71
302.881	34.99
303.095	39.08
303.309	84.14
303.524	47.27
303.738	-3.93
303.952	16.55
304.166	57.51
304.381	-85.84
304.595	88.23
304.809	73.9
305.023	65.71
305.237	16.55
305.452	118.95
305.666	180.39
305.88	51.37
306.094	159.91
306.308	112.81
306.522	26.79
306.736	118.95
306.95	75.95
307.164	34.99
307.379	-46.93
307.593	65.71
307.807	77.99
308.021	71.85
308.235	84.14
308.449	-26.45
308.663	61.61
308.877	227.5
309.091	18.6
309.305	104.62
309.519	16.55
309.733	75.95
309.947	84.14
310.161	0.17
310.374	-18.26
310.588	86.19
310.802	26.79
311.016	45.23
311.23	65.71
311.444	2.22
311.658	65.71
311.872	92.33
312.085	96.43
312.299	106.67
312.513	133.29
312.727	24.75
312.941	24.75
313.154	34.99
313.368	102.57
313.582	100.52
313.796	131.24
314.009	57.51
314.223	86.19
314.437	116.9
314.651	141.48
314.864	75.95
315.078	-63.32
315.292	2.22
315.505	39.08
315.719	51.37
315.933	-10.07
316.146	67.75
316.36	-24.4
316.573	73.9
316.787	32.94
317.001	67.75
317.214	57.51
317.428	98.47
317.641	49.32
317.855	57.51
318.068	49.32
318.282	53.42
318.495	94.38
318.709	114.86
318.922	43.18
319.136	75.95
319.349	108.71
319.563	43.18
319.776	92.33
319.99	10.41
320.203	43.18
320.417	-1.88
320.63	75.95
320.843	164.01
321.057	45.23
321.27	118.95
321.483	129.19
321.697	57.51
321.91	135.34
322.124	88.23
322.337	100.52
322.55	-1.88
322.763	75.95
322.977	86.19
323.19	69.8
323.403	32.94
323.617	51.37
323.83	34.99
324.043	73.9
324.256	108.71
324.469	-3.93
324.683	139.43
324.896	47.27
325.109	123.05
325.322	63.66
325.535	57.51
325.748	108.71
325.962	71.85
326.175	24.75
326.388	84.14
326.601	30.89
326.814	-30.55
327.027	90.28
327.24	34.99
327.453	6.31
327.666	47.27
327.879	159.91
328.092	82.09
328.305	53.42
328.518	18.6
328.731	55.47
328.944	98.47
329.157	49.32
329.37	20.65
329.583	155.82
329.796	86.19
330.009	26.79
330.222	22.7
330.435	49.32
330.648	57.51
330.861	67.75
331.073	49.32
331.286	114.86
331.499	77.99
331.712	-24.4
331.925	45.23
332.138	28.84
332.35	106.67
332.563	57.51
332.776	49.32
332.989	-34.64
333.202	49.32
333.414	94.38
333.627	-3.93
333.84	47.27
334.053	59.56
334.265	55.47
334.478	-22.36
334.691	53.42
334.903	69.8
335.116	49.32
335.329	45.23
335.541	49.32
335.754	133.29
335.966	-10.07
336.179	41.13
336.392	77.99
336.604	34.99
336.817	88.23
337.029	43.18
337.242	-26.45
337.454	110.76
337.667	59.56
337.88	102.57
338.092	86.19
338.305	114.86
338.517	26.79
338.729	41.13
338.942	75.95
339.154	-40.79
339.367	39.08
339.579	69.8
339.792	24.75
340.004	114.86
340.217	55.47
340.429	75.95
340.641	41.13
340.854	49.32
341.066	73.9
341.278	123.05
341.491	49.32
341.703	172.2
341.915	24.75
342.128	149.67
342.34	49.32
342.552	61.61
342.764	8.36
342.977	24.75
343.189	28.84
343.401	67.75
343.613	-40.79
343.826	2.22
344.038	-16.21
344.25	55.47
344.462	32.94
344.674	28.84
344.886	45.23
345.099	112.81
345.311	-1.88
345.523	12.46
345.735	24.75
345.947	0.17
346.159	26.79
346.371	67.75
346.583	55.47
346.795	55.47
347.007	47.27
347.219	123.05
347.431	55.47
347.643	86.19
347.855	12.46
348.067	51.37
348.279	39.08
348.491	41.13
348.703	164.01
348.915	0.17
349.127	0.17
349.339	65.71
349.551	37.03
349.763	104.62
349.975	34.99
350.187	110.76
350.399	67.75
350.61	96.43
350.822	16.55
351.034	57.51
351.246	59.56
351.458	77.99
351.669	168.1
351.881	88.23
352.093	102.57
352.305	147.62
352.517	94.38
352.728	129.19
352.94	77.99
353.152	0.17
353.363	2.22
353.575	131.24
353.787	90.28
353.999	92.33
354.21	121
354.422	16.55
354.633	-8.02
354.845	2.22
355.057	24.75
355.268	37.03
355.48	65.71
355.692	98.47
355.903	63.66
356.115	-10.07
356.326	61.61
356.538	98.47
356.749	151.72
356.961	102.57
357.172	49.32
357.384	-8.02
357.595	155.82
357.807	106.67
358.018	65.71
358.23	123.05
358.441	143.53
358.653	8.36
358.864	20.65
359.075	6.31
359.287	102.57
359.498	84.14
359.709	88.23
359.921	47.27
360.132	125.1
360.344	22.7
360.555	55.47
360.766	37.03
360.977	0.17
361.189	12.46
361.4	73.9
361.611	104.62
361.823	59.56
362.034	75.95
362.245	-10.07
362.456	108.71
362.667	63.66
362.879	57.51
363.09	37.03
363.301	114.86
363.512	88.23
363.723	77.99
363.935	37.03
364.146	77.99
364.357	125.1
364.568	57.51
364.779	28.84
364.99	94.38
365.201	14.51
365.412	100.52
365.623	12.46
365.834	37.03
366.045	39.08
366.256	53.42
366.467	30.89
366.678	82.09
366.889	88.23
367.1	32.94
367.311	123.05
367.522	2.22
367.733	82.09
367.944	84.14
368.155	86.19
368.366	34.99
368.577	4.27
368.788	69.8
368.999	18.6
369.209	18.6
369.42	123.05
369.631	141.48
369.842	2.22
370.053	8.36
370.264	108.71
370.474	-12.12
370.685	2.22
370.896	34.99
371.107	114.86
371.317	65.71
371.528	-22.36
371.739	137.38
371.95	116.9
372.16	82.09
372.371	6.31
372.582	80.04
372.792	57.51
373.003	41.13
373.214	73.9
373.424	92.33
373.635	45.23
373.846	100.52
374.056	69.8
374.267	69.8
374.477	57.51
374.688	-3.93
374.898	63.66
375.109	32.94
375.319	51.37
375.53	82.09
375.74	59.56
375.951	51.37
376.161	4.27
376.372	94.38
376.582	16.55
376.793	114.86
377.003	59.56
377.214	114.86
377.424	14.51
377.635	110.76
377.845	26.79
378.055	92.33
378.266	10.41
378.476	18.6
378.686	6.31
378.897	73.9
379.107	143.53
379.317	67.75
379.528	98.47
379.738	137.38
379.948	18.6
380.158	157.86
380.369	-5.97
380.579	75.95
380.789	-30.55
380.999	88.23
381.21	28.84
381.42	184.49
381.63	39.08
381.84	49.32
382.05	51.37
382.261	75.95
382.471	82.09
382.681	55.47
382.891	135.34
383.101	67.75
383.311	0.17
383.521	20.65
383.731	190.63
383.941	127.14
384.151	86.19
384.361	63.66
384.571	139.43
384.781	106.67
384.991	168.1
385.201	200.87
385.411	88.23
385.621	22.7
385.831	75.95
386.041	63.66
386.251	61.61
386.461	147.62
386.671	71.85
386.881	112.81
387.091	80.04
387.301	110.76
387.511	90.28
387.72	172.2
387.93	77.99
388.14	34.99
388.35	71.85
388.56	98.47
388.769	133.29
388.979	16.55
389.189	84.14
389.399	98.47
389.609	59.56
389.818	116.9
390.028	116.9
390.238	67.75
390.447	16.55
390.657	118.95
390.867	75.95
391.076	41.13
391.286	94.38
391.496	65.71
391.705	67.75
391.915	159.91
392.125	149.67
392.334	55.47
392.544	63.66
392.753	55.47
392.963	16.55
393.172	32.94
393.382	26.79
393.591	127.14
393.801	88.23
394.01	178.34
394.22	174.25
394.429	75.95
394.639	102.57
394.848	139.43
395.058	61.61
395.267	63.66
395.477	106.67
395.686	133.29
395.895	135.34
396.105	176.3
396.314	61.61
396.524	100.52
396.733	6.31
396.942	178.34
397.152	98.47
397.361	112.81
397.57	55.47
397.78	121
397.989	188.58
398.198	225.45
398.407	100.52
398.617	123.05
398.826	82.09
399.035	166.06
399.244	153.77
399.453	63.66
399.663	137.38
399.872	116.9
400.081	90.28
400.29	129.19
400.499	112.81
400.708	166.06
400.917	28.84
401.127	94.38
401.336	123.05
401.545	204.97
401.754	174.25
401.963	164.01
402.172	178.34
402.381	100.52
402.59	116.9
402.799	45.23
403.008	239.78
403.217	94.38
403.426	116.9
403.635	75.95
403.844	157.86
404.053	102.57
404.262	143.53
404.471	213.16
404.68	129.19
404.888	166.06
405.097	98.47
405.306	211.11
405.515	149.67
405.724	125.1
405.933	260.26
406.142	170.15
406.35	231.59
406.559	258.21
406.768	139.43
406.977	282.79
407.185	217.26
407.394	159.91
407.603	229.54
407.812	262.31
408.02	250.02
408.229	272.55
408.438	172.2
408.646	198.82
408.855	229.54
409.064	233.64
409.272	290.98
409.481	305.32
409.69	211.11
409.898	237.74
410.107	262.31
410.315	366.76
410.524	315.56
410.733	385.19
410.941	368.81
411.15	393.38
411.358	432.29
411.567	383.14
411.775	381.09
411.984	424.1
412.192	475.3
412.401	342.18
412.609	506.02
412.818	495.78
413.026	499.88
413.234	471.2
413.443	467.11
413.651	522.4
413.86	569.51
414.068	632.99
414.276	628.9
414.485	647.33
414.693	676
414.901	753.82
415.11	770.21
415.318	729.25
415.526	725.15
415.734	798.88
415.943	829.6
416.151	862.37
416.359	825.5
416.567	839.84
416.776	850.08
416.984	948.38
417.192	975
417.4	975
417.608	942.24
417.817	975
418.025	1073.31
418.233	1106.07
418.441	1095.83
418.649	1171.61
418.857	1194.14
419.065	1392.79
419.273	1233.05
419.481	1284.25
419.689	1478.8
419.897	1491.09
420.105	1454.23
420.313	1452.18
420.521	1679.51
420.729	1577.11
420.937	1613.97
421.145	1679.51
421.353	1820.81
421.561	1900.69
421.769	1962.12
421.977	1917.07
422.185	2023.56
422.393	2140.3
422.601	2211.98
422.809	2277.51
423.017	2254.98
423.224	2357.38
423.432	2449.54
423.64	2455.69
423.848	2760.83
424.056	2605.19
424.263	2818.18
424.471	2787.46
424.679	2857.09
424.887	3068.03
425.094	3065.98
425.302	3113.08
425.51	3244.15
425.718	3289.21
425.925	3287.16
426.133	3592.31
426.341	3747.95
426.548	3657.84
426.756	3760.24
426.964	4024.43
427.171	4173.93
427.379	4268.14
427.586	4354.15
427.794	4358.25
428.001	4776.03
428.209	4773.99
428.417	4753.51
428.624	5122.14
428.832	5132.38
429.039	5011.55
429.247	5099.61
429.454	5709.91
429.662	5908.56
429.869	5509.21
430.076	5920.85
430.284	5804.11
430.491	6090.83
430.699	6246.48
430.906	6445.13
431.114	6520.9
431.321	6678.6
431.528	6959.17
431.736	7272.51
431.943	7678.01
432.15	7325.75
432.358	7542.84
432.565	8011.82
432.772	7864.37
432.979	8228.91
433.187	8437.8
433.394	8198.19
433.601	9121.82
433.808	9078.82
434.016	8912.93
434.223	9359.39
434.43	9848.85
434.637	9793.56
434.844	10407.95
435.052	10602.5
435.259	10399.76
435.466	10702.86
435.673	10424.33
435.88	11204.61
436.087	11796.47
436.294	11767.8
436.501	11665.4
436.708	11829.24
436.915	12279.79
437.122	12773.35
437.329	12490.73
437.537	13015.01
437.743	13250.53
437.95	13248.48
438.157	13895.64
438.364	14235.6
438.571	14127.06
438.778	14434.25
438.985	15665.08
439.192	14948.29
439.399	15517.63
439.606	15310.79
439.813	16117.68
440.02	17205.16
440.227	16740.27
440.433	16787.37
440.64	17090.47
440.847	17221.54
441.054	17694.62
441.261	18605.97
441.467	18536.34
441.674	18902.92
441.881	19394.43
442.088	19494.79
442.294	19183.49
442.501	20062.07
442.708	20262.77
442.914	20748.14
443.121	21825.37
443.328	21022.57
443.534	22783.82
443.741	22138.71
443.948	21792.61
444.154	23633.73
444.361	23430.98
444.568	23629.63
444.774	23623.49
444.981	23889.73
445.187	24379.19
445.394	25382.7
445.6	25325.35
445.807	27766.53
446.013	26369.82
446.22	26896.14
446.426	28051.2
446.633	28126.97
446.839	29130.48
447.046	27987.71
447.252	29527.78
447.459	29519.59
447.665	29492.97
447.871	30744.28
448.078	31993.54
448.284	30303.96
448.491	31778.5
448.697	32689.85
448.903	33535.66
449.11	33466.03
449.316	33154.74
449.522	33570.47
449.728	34035.36
449.935	34598.55
450.141	34485.92
450.347	35241.62
450.553	33986.21
450.76	34989.72
450.966	35978.89
451.172	35751.56
451.378	36277.89
451.584	35860.1
451.791	36775.55
451.997	36490.88
452.203	37054.07
452.409	37348.98
452.615	36933.24
452.821	35720.84
453.027	35417.74
453.233	37076.6
453.44	35702.41
453.646	36220.55
453.852	36406.91
454.058	37424.75
454.264	36025.99
454.47	37105.27
454.676	35765.9
454.882	37133.94
455.088	33838.76
455.294	34399.9
455.5	35167.89
455.705	35540.62
455.911	33824.42
456.117	33334.96
456.323	32614.07
456.529	30789.33
456.735	32198.34
456.941	31936.2
457.147	30992.08
457.352	30080.74
457.558	30019.3
457.764	29865.7
457.97	29693.67
458.176	28518.14
458.381	28819.19
458.587	26928.91
458.793	27301.64
458.999	26093.34
459.204	27727.62
459.41	27025.17
459.616	25386.79
459.821	25540.39
460.027	24837.94
460.233	24796.98
460.438	23738.18
460.644	23693.12
460.85	22710.1
461.055	22212.44
461.261	22269.78
461.466	20705.13
461.672	19939.19
461.878	21354.34
462.083	19791.74
462.289	19586.94
462.494	19330.95
462.7	18632.59
462.905	17905.56
463.111	18900.87
463.316	18634.64
463.522	18227.09
463.727	18378.64
463.932	18210.71
464.138	18079.64
464.343	18079.64
464.549	17248.16
464.754	18155.41
464.959	18007.96
465.165	17893.27
465.37	17229.73
465.575	16476.08
465.781	17194.92
465.986	17270.69
466.191	16719.79
466.397	16592.81
466.602	15556.54
466.807	16185.27
467.012	16334.77
467.218	16195.51
467.423	16003
467.628	15771.58
467.833	16822.19
468.038	16320.43
468.244	15525.82
468.449	16072.63
468.654	15753.15
468.859	15667.13
469.064	15357.89
469.269	14925.77
469.474	14972.87
469.679	15128.52
469.885	14735.31
470.09	14925.77
470.295	15067.08
470.5	14700.49
470.705	14743.5
470.91	14475.21
471.115	14335.95
471.32	14573.52
471.525	14454.73
471.73	14159.83
471.935	13672.41
472.139	13508.57
472.344	13588.44
472.549	13522.91
472.754	13469.66
472.959	13154.27
473.164	12783.59
473.369	12877.8
473.574	13508.57
473.778	13174.75
473.983	12955.62
474.188	12795.88
474.393	12410.86
474.598	12222.45
474.802	12257.26
475.007	12318.7
475.212	12396.53
475.417	11679.74
475.621	11612.15
475.826	11851.77
476.031	11735.03
476.235	11149.31
476.44	11814.9
476.645	11218.94
476.849	11364.35
477.054	10895.36
477.259	10854.41
477.463	10883.08
477.668	10758.15
477.872	10764.29
478.077	10438.67
478.282	10487.82
478.486	10194.96
478.691	10160.14
478.895	10309.65
479.1	10129.42
479.304	10219.53
479.509	9871.38
479.713	10051.6
479.918	9922.58
480.122	9787.41
480.326	9912.34
480.531	9656.34
480.735	9758.74
480.94	9828.37
481.144	10096.66
481.348	9510.94
481.553	9648.15
481.757	9314.33
481.961	9414.68
482.166	9490.46
482.37	9553.94
482.574	9404.44
482.778	9373.72
482.983	9578.52
483.187	9197.6
483.391	9480.22
483.595	9625.62
483.8	9379.87
484.004	9519.13
484.208	9588.76
484.412	9510.94
484.616	9547.8
484.821	9330.72
485.025	9277.47
485.229	9426.97
485.433	9340.96
485.637	9373.72
485.841	9218.08
486.045	9525.27
486.249	9248.8
486.453	9312.28
486.657	9429.02
486.861	9261.09
487.065	9175.07
487.269	9363.48
487.473	9127.97
487.677	9429.02
487.881	9445.4
488.085	9377.82
488.289	9529.37
488.493	9285.66
488.697	9648.15
488.901	9611.29
489.105	9437.21
489.309	9623.58
489.512	9281.57
489.716	9547.8
489.92	9506.84
490.124	9623.58
490.328	9646.1
490.531	9672.73
490.735	9512.99
490.939	9695.25
491.143	9637.91
491.346	9680.92
491.55	9752.6
491.754	9707.54
491.958	10002.45
492.161	9828.37
492.365	10016.79
492.569	9855
492.772	9953.3
492.976	9955.35
493.18	9928.72
493.383	10074.13
493.587	10117.14
493.79	10201.1
493.994	10096.66
494.197	10174.48
494.401	10575.88
494.605	10438.67
494.808	10717.19
495.012	10518.54
495.215	10321.93
495.419	10835.97
495.622	10743.81
495.825	10797.06
496.029	10766.34
496.232	11034.63
496.436	11091.97
496.639	11307.01
496.843	11040.77
497.046	11663.35
497.249	11587.58
497.453	11669.5
497.656	11798.52
497.859	11890.68
498.063	12066.8
498.266	12003.32
498.469	12074.99
498.673	12253.17
498.876	12402.67
499.079	12533.74
499.282	12541.93
499.485	12888.04
499.689	12832.74
499.892	13150.18
500.095	12937.19
500.298	13764.57
500.501	13424.61
500.705	13524.96
500.908	13848.54
501.111	13891.54
501.314	13940.69
501.517	14168.02
501.72	14360.53
501.923	14426.06
502.126	14473.17
502.329	14720.97
502.532	14968.77
502.735	14882.76
502.938	15441.86
503.141	15327.17
503.344	15591.36
503.547	15607.74
503.75	15720.38
503.953	16099.25
504.156	16109.49
504.359	16138.16
504.562	16660.4
504.765	16867.24
504.968	17031.08
505.17	17190.82
505.373	16838.57
505.576	17356.71
505.779	17760.16
505.982	17842.07
506.185	18020.25
506.387	17985.43
506.59	18526.1
506.793	18749.32
506.996	18530.19
507.198	19122.05
507.401	19062.66
507.604	19457.92
507.807	19566.46
508.009	19513.22
508.212	20012.92
508.415	20201.33
508.617	20309.88
508.82	20627.31
509.022	20356.98
509.225	20621.17
509.428	21153.64
509.63	21462.88
509.833	21352.29
510.035	21843.81
510.238	21610.34
510.44	21790.56
510.643	22662.99
510.845	22673.23
511.048	22366.04
511.25	22839.12
511.453	22941.52
511.655	23754.56
511.858	23428.93
512.06	23787.33
512.262	23887.68
512.465	23756.61
512.667	24414.01
512.87	24551.22
513.072	24667.95
513.274	25016.11
513.477	25161.51
513.679	25442.09
513.881	25786.15
514.084	25849.63
514.286	25878.3
514.488	26359.58
514.69	26736.4
514.893	26785.55
515.095	26664.72
515.297	27232.01
515.499	27690.76
515.701	27932.42
515.904	28262.14
516.106	27887.36
516.308	28425.98
516.51	28694.26
516.712	28839.67
516.914	28727.03
517.116	29781.73
517.318	29918.95
517.52	30052.06
517.722	29982.43
517.925	30306.01
518.127	30957.27
518.329	31022.8
518.531	30893.78
518.733	31616.71
518.935	31614.66
519.136	31885
519.338	32122.56
519.54	32476.86
519.742	32540.35
519.944	32921.27
520.146	33111.73
520.348	33429.16
520.55	33697.45
520.752	33410.73
520.954	34201.25
521.155	33894.05
521.357	34338.46
521.559	34541.21
521.761	35741.32
521.963	35276.43
522.164	35186.32
522.366	35708.55
522.568	35808.9
522.77	36556.41
522.971	37004.92
523.173	36142.72
523.375	36347.52
523.576	36732.54
523.778	36585.08
523.98	37408.37
524.181	37523.05
524.383	37801.58
524.584	38452.83
524.786	38090.34
524.988	38051.43
525.189	38835.8
525.391	38899.29
525.592	38596.19
525.794	39257.68
525.995	39050.84
526.197	39300.69
526.398	39231.06
526.6	39632.46
526.801	39706.19
527.003	39986.76
527.204	40173.13
527.406	40306.24
527.607	40226.37
527.808	40486.46
528.01	40054.34
528.211	40601.15
528.412	41363
528.614	41133.62
528.815	41283.12
529.016	41358.9
529.218	41072.18
529.419	41297.46
529.62	41426.48
529.822	41662
530.023	41307.7
530.224	41823.79
530.425	41727.53
530.626	41188.92
530.828	41319.99
531.029	42585.63
531.23	42055.21
531.431	42126.89
531.632	41965.1
531.833	42087.98
532.035	41981.48
532.236	42229.29
532.437	42786.33
532.638	42247.72
532.839	42921.5
533.04	42591.78
533.241	42524.19
533.442	43124.25
533.643	42792.48
533.844	42356.26
534.045	43097.63
534.246	42096.17
534.447	42724.89
534.648	42694.18
534.849	42958.36
535.05	42620.45
535.251	42810.91
535.451	42976.79
535.652	42806.81
535.853	42516
536.054	42888.73
536.255	42456.61
536.456	42819.1
536.657	43795.98
536.857	42661.41
537.058	42368.55
537.259	43300.37
537.46	43159.06
537.66	42632.74
537.861	42858.01
538.062	42935.84
538.263	43083.29
538.463	42958.36
538.664	42540.58
538.865	42700.32
539.065	43443.73
539.266	42624.54
539.466	42974.75
539.667	42563.11
539.868	43187.74
540.068	42901.02
540.269	42479.14
540.469	43040.28
540.67	42657.31
540.87	42534.43
541.071	42708.51
541.271	43269.65
541.472	42798.62
541.672	42827.29
541.873	42655.26
542.073	42544.67
542.274	43025.95
542.474	42620.45
542.675	42325.54
542.875	42921.5
543.075	42759.71
543.276	42157.61
543.476	42595.87
543.676	42536.48
543.877	42911.26
544.077	43007.51
544.277	42790.43
544.478	42165.8
544.678	42704.42
544.878	42745.37
545.078	42982.94
545.279	42497.57
545.479	42456.61
545.679	42544.67
545.879	42604.06
546.079	42595.87
546.28	42669.6
546.48	42196.52
546.68	42645.02
546.88	42559.01
547.08	42559.01
547.28	42343.97
547.48	42296.87
547.68	41995.82
547.88	42178.09
548.081	42706.46
548.281	42612.26
548.481	42018.35
548.681	42925.6
548.881	42405.41
549.081	42477.09
549.28	42569.25
549.48	42454.56
549.68	42235.43
549.88	43197.98
550.08	42360.36
550.28	42417.7
550.48	42165.8
550.68	42483.23
550.88	42085.93
551.08	42247.72
551.279	42376.74
551.479	41686.57
551.679	42110.5
551.879	42247.72
552.079	42399.27
552.278	42112.55
552.478	41815.6
552.678	41672.24
552.878	42094.12
553.077	41903.66
553.277	41442.87
553.477	42270.25
553.676	41768.49
553.876	42364.45
554.076	41641.52
554.275	41737.77
554.475	41532.98
554.674	41928.23
554.874	41561.65
555.074	41219.64
555.273	41784.88
555.473	42083.88
555.672	41731.63
555.872	41752.11
556.071	41563.7
556.271	41684.53
556.47	41676.33
556.67	41264.69
556.869	41373.24
557.068	41254.45
557.268	41248.31
557.467	41440.82
557.667	41352.76
557.866	41274.93
558.065	40791.61
558.265	41139.77
558.464	40805.95
558.663	41190.97
558.863	40543.81
559.062	41295.41
559.261	40580.67
559.461	41303.6
559.66	40121.93
559.859	40762.94
560.058	40037.96
560.258	40502.85
560.457	40011.34
560.656	40896.06
560.855	40074.82
561.054	40400.45
561.253	40437.31
561.453	40203.85
561.652	40232.52
561.851	40076.87
562.05	39632.46
562.249	40035.91
562.448	40091.21
562.647	39839.31
562.846	39700.04
563.045	39896.65
563.244	39167.57
563.443	39738.96
563.642	39423.57
563.841	39476.82
564.04	39155.29
564.239	39243.35
564.438	39300.69
564.637	39245.4
564.836	39265.88
565.035	38493.79
565.234	38600.29
565.432	38854.23
565.631	38524.51
565.83	38614.62
566.029	38727.26
566.228	38276.71
566.427	38389.34
566.625	38092.39
566.824	37690.99
567.023	38198.88
567.222	37723.76
567.42	38252.13
567.619	37889.64
567.818	37791.34
568.016	37596.78
568.215	38051.43
568.414	37752.43
568.612	37758.57
568.811	37265.01
569.01	37504.62
569.208	36728.44
569.407	37217.91
569.605	36748.92
569.804	37260.91
570.002	36681.34
570.201	36955.77
570.4	36507.26
570.598	36640.38
570.797	36548.22
570.995	36267.65
571.193	35669.64
571.392	36542.08
571.59	36101.76
571.789	35542.67
571.987	35776.14
572.186	36148.87
572.384	35888.78
572.582	35856.01
572.781	36173.44
572.979	35098.26
573.177	35509.9
573.376	35514
573.574	35479.18
573.772	35223.19
573.971	35141.27
574.169	35090.07
574.367	34590.36
574.565	34768.54
574.763	34604.7
574.962	34623.13
575.16	34700.95
575.358	34823.83
575.556	34143.91
575.754	34674.33
575.952	34178.72
576.151	34569.88
576.349	34221.73
576.547	34029.22
576.745	34348.7
576.943	34201.25
577.141	33937.06
577.339	33887.91
577.537	33599.15
577.735	33410.73
577.933	33320.62
578.131	33570.47
578.329	33128.11
578.527	33320.62
578.725	33345.2
578.923	33425.07
579.121	32739
579.319	32753.33
579.516	32958.13
579.714	33087.15
579.912	32769.72
580.11	32687.8
580.308	32771.77
580.506	32171.71
580.704	31844.04
580.901	32126.66
581.099	32198.34
581.297	31977.15
581.495	32083.65
581.692	31788.74
581.89	31698.63
582.088	31839.94
582.285	31792.84
582.483	31925.96
582.681	31547.08
582.878	31563.47
583.076	31125.2
583.274	31661.77
583.471	31090.38
583.669	31178.45
583.866	30756.57
584.064	31086.29
584.262	30543.58
584.459	31047.38
584.657	30895.83
584.854	30959.31
585.052	30338.78
585.249	30488.28
585.447	30781.14
585.644	30297.82
585.841	30287.58
586.039	30402.27
586.236	30306.01
586.434	29902.56
586.631	30045.92
586.828	30027.49
587.026	30101.22
587.223	29851.36
587.42	29654.76
587.618	29652.71
587.815	29030.13
588.012	29038.32
588.21	29296.36
588.407	29505.26
588.604	29214.44
588.801	28786.42
588.999	29130.48
589.196	28808.95
589.393	28751.6
589.59	28536.57
589.787	28817.14
589.984	28520.18
590.182	28503.8
590.379	28589.81
590.576	28131.07
590.773	28274.43
590.97	28108.54
591.167	28319.48
591.364	27813.63
591.561	27973.38
591.758	27676.42
591.955	27907.84
592.152	27885.31
592.349	27705.09
592.546	27567.88
592.743	27485.96
592.94	27277.07
593.137	27373.32
593.334	27451.14
593.531	26896.14
593.727	27125.52
593.924	27199.24
594.121	26662.68
594.318	26814.23
594.515	26607.38
594.712	26615.57
594.908	26568.47
595.105	26582.81
595.302	26412.82
595.499	26574.61
595.696	26115.87
595.892	26087.2
596.089	26414.87
596.286	26099.48
596.482	25919.26
596.679	25992.99
596.876	26068.76
597.072	25780
597.269	25829.15
597.466	25417.51
597.662	25440.04
597.859	25521.96
598.055	25208.62
598.252	25409.32
598.448	25558.82
598.645	25278.25
598.841	25132.84
599.038	25091.88
599.234	25177.9
599.431	24891.18
599.627	24772.4
599.824	24913.71
600.02	24741.68
600.217	24338.23
600.413	24340.28
600.609	24342.33
600.806	24561.46
601.002	24500.02
601.198	24115
601.395	24121.15
601.591	23906.11
601.787	24160.06
601.984	23885.63
602.18	23840.57
602.376	23627.59
602.572	23822.14
602.769	23662.4
602.965	23553.86
603.161	23756.61
603.357	23273.29
603.553	23535.43
603.75	23412.55
603.946	23127.88
604.142	23308.1
604.338	22939.47
604.534	23228.23
604.73	22871.89
604.926	22669.14
605.122	22871.89
605.318	22654.8
605.514	22871.89
605.71	22597.46
605.906	22853.45
606.102	22740.82
606.298	22638.42
606.494	22402.9
606.69	22521.68
606.886	22376.28
607.082	22243.16
607.278	22558.55
607.474	21952.35
607.67	22165.34
607.866	21823.33
608.062	22189.91
608.257	21989.21
608.453	22083.42
608.649	21708.64
608.845	21407.59
609.041	21667.68
609.236	21727.07
609.432	21768.03
609.628	21704.54
609.824	21479.27
610.019	21596
610.215	21596
610.411	21432.16
610.606	21407.59
610.802	21438.31
610.998	21258.09
611.193	21454.69
611.389	21190.5
611.584	21071.72
611.78	21077.87
611.976	21045.1
612.171	21176.17
612.367	21073.77
612.562	20797.29
612.758	20709.23
612.953	20666.22
613.149	21090.15
613.344	20713.33
613.539	21313.38
613.735	20635.5
613.93	20868.97
614.126	20561.78
614.321	20746.09
614.517	20346.74
614.712	20631.41
614.907	20631.41
615.103	20328.31
615.298	20352.88
615.493	19965.82
615.688	20072.31
615.884	20791.15
616.079	20117.37
616.274	20211.57
616.47	20094.84
616.665	20211.57
616.86	19998.59
617.055	20369.27
617.25	20047.74
617.445	19961.72
617.641	19703.68
617.836	20053.88
618.031	19740.54
618.226	19677.05
618.421	19703.68
618.616	19715.97
618.811	19482.5
619.006	19787.64
619.201	19246.98
619.396	19351.43
619.591	18956.17
619.786	19222.41
619.981	18995.08
620.176	19259.27
620.371	18880.39
620.566	18874.25
620.761	18931.59
620.956	18618.25
621.151	18790.28
621.346	18472.85
621.541	18542.48
621.735	18624.4
621.93	18175.89
622.125	18341.78
622.32	18012.06
622.515	18214.8
622.709	17921.95
622.904	17991.58
623.099	18010.01
623.294	17840.03
623.488	17733.53
623.683	17498.02
623.878	17233.83
624.072	17428.38
624.267	17344.42
624.462	17315.75
624.656	17147.81
624.851	16900.01
625.046	17024.93
625.24	17057.7
625.435	16779.18
625.629	16541.61
625.824	16777.13
626.018	16488.37
626.213	16191.41
626.407	16379.82
626.602	16125.88
626.796	16109.49
626.991	16226.23
627.185	15929.27
627.38	15665.08
627.574	15634.36
627.768	15480.77
627.963	15527.87
628.157	15615.93
628.352	15497.15
628.546	15261.63
628.74	15380.42
628.935	15132.61
629.129	15120.32
629.323	14866.38
629.517	14673.87
629.712	14821.32
629.906	15034.31
630.1	14487.5
630.294	14770.12
630.489	14561.23
630.683	14518.22
630.877	14155.73
631.071	14321.62
631.265	14374.86
631.459	14331.86
631.653	14174.16
631.848	14180.31
632.042	14073.81
632.236	14002.13
632.43	13780.95
632.624	13762.52
632.818	13780.95
633.012	13699.03
633.206	13518.81
633.4	13690.84
633.594	13457.37
633.788	13570.01
633.982	13436.89
634.176	13111.27
634.369	13230.05
634.563	12914.66
634.757	12879.85
634.951	12916.71
635.145	13060.07
635.339	12799.98
635.533	12929
635.726	12857.32
635.92	12451.82
636.114	12384.24
636.308	12429.29
636.501	12509.16
636.695	12359.66
636.889	12281.84
637.083	12036.08
637.276	12052.47
637.47	11988.98
637.664	12140.53
637.857	12124.15
638.051	11778.04
638.244	11732.98
638.438	11884.53
638.632	11585.53
638.825	11603.96
639.019	11689.98
639.212	11726.84
639.406	11554.81
639.599	11403.26
639.793	11364.35
639.986	11126.78
640.18	11292.67
640.373	11220.99
640.567	11237.38
640.76	11016.19
640.954	11046.91
641.147	10889.22
641.34	10795.01
641.534	10911.75
641.727	10764.29
641.92	10926.08
642.114	10905.6
642.307	10469.39
642.5	10215.44
642.694	10631.18
642.887	10428.43
643.08	10317.84
643.273	10514.44
643.467	10211.34
643.66	10102.8
643.853	10227.73
644.046	10244.11
644.239	10166.29
644.432	10000.4
644.626	9852.95
644.819	9992.21
645.012	9828.37
645.205	10201.1
645.398	9840.66
645.591	9723.93
645.784	9584.66
645.977	9570.33
646.17	9584.66
646.363	9519.13
646.556	9525.27
646.749	9199.65
646.942	9478.17
647.135	9244.7
647.328	9275.42
647.521	9191.45
647.714	9142.3
647.907	9179.17
648.099	9238.56
648.292	9158.69
648.485	9166.88
648.678	8990.75
648.871	8925.22
649.064	8794.15
649.256	8904.74
649.449	8853.54
649.642	8777.76
649.835	8693.8
650.027	8622.12
650.22	8781.86
650.413	8552.49
650.605	8589.35
650.798	8513.58
650.991	8372.27
651.183	8458.28
651.376	8308.78
651.568	8439.85
651.761	8136.75
651.954	8202.29
652.146	8206.38
652.339	8136.75
652.531	8099.89
652.724	7907.38
652.916	7954.48
653.109	7942.19
653.301	7977.01
653.494	7936.05
653.686	7819.32
653.879	7927.86
654.071	7835.7
654.263	7667.77
654.456	7680.05
654.648	7800.88
654.84	7530.55
655.033	7551.03
655.225	7610.42
655.417	7467.06
655.61	7473.21
655.802	7399.48
655.994	7297.08
656.186	7264.32
656.379	7376.95
656.571	7120.96
656.763	7389.24
656.955	7127.1
657.148	7313.47
657.34	7456.82
657.532	7135.29
657.724	7088.19
657.916	6846.53
658.108	7094.33
658.3	7094.33
658.492	6987.84
658.684	6918.21
658.876	6789.19
659.068	6770.76
659.26	6813.76
659.452	6824
659.644	6746.18
659.836	6776.9
660.028	6762.56
660.22	6584.39
660.412	6514.76
660.604	6473.8
660.796	6545.48
660.988	6580.29
661.18	6512.71
661.372	6408.26
661.563	6330.44
661.755	6287.43
661.947	6436.94
662.139	6264.91
662.331	6285.39
662.522	6449.22
662.714	6350.92
662.906	6332.49
663.097	6180.94
663.289	6078.54
663.481	6203.47
663.673	6125.65
663.864	5955.66
664.056	5861.46
664.247	5976.14
664.439	5836.88
664.631	5781.59
664.822	6094.93
665.014	6103.12
665.205	5916.75
665.397	6023.25
665.588	5677.14
665.78	5820.5
665.971	5892.18
666.163	5812.31
666.354	5838.93
666.546	5767.25
666.737	5589.08
666.929	5695.57
667.12	5697.62
667.311	5679.19
667.503	5541.97
667.694	5558.36
667.885	5595.22
668.077	5695.57
668.268	5505.11
668.459	5539.93
668.651	5578.84
668.842	5584.98
669.033	5384.28
669.224	5347.42
669.416	5652.56
669.607	5466.2
669.798	5298.27
669.989	5496.92
670.18	5376.09
670.371	5226.59
670.563	5312.6
670.754	5382.23
670.945	5310.55
671.136	5312.6
671.327	5347.42
671.518	5214.3
671.709	5378.14
671.9	5240.92
672.091	5359.7
672.282	5376.09
672.473	5095.52
672.664	5222.49
672.855	5118.04
673.046	5050.46
673.237	5183.58
673.428	5095.52
673.619	5120.09
673.809	5116
674	5154.91
674.191	5275.74
674.382	4964.45
674.573	5062.75
674.764	5070.94
674.954	5087.33
675.145	4948.06
675.336	5154.91
675.527	4964.45
675.717	5187.68
675.908	4984.93
676.099	5044.32
676.289	4833.38
676.48	4997.21
676.671	5052.51
676.861	5015.65
677.052	4948.06
677.243	4812.9
677.433	4892.77
677.624	4999.26
677.814	4837.47
678.005	4825.19
678.195	5034.08
678.386	4966.49
678.576	4946.02
678.767	4923.49
678.957	4708.45
679.148	5046.37
679.338	4849.76
679.529	4814.95
679.719	5048.41
679.909	4921.44
680.1	4847.71
680.29	4825.19
680.481	4925.54
680.671	4929.63
680.861	4931.68
681.052	4896.86
681.242	4876.38
681.432	4804.71
681.622	4952.16
681.813	4683.88
682.003	4831.33
682.193	4843.62
682.383	4773.99
682.573	4864.1
682.764	4614.24
682.954	4829.28
683.144	4778.08
683.334	4677.73
683.524	4831.33
683.714	4712.55
683.904	4644.96
684.094	4739.17
684.284	4802.66
684.474	4878.43
684.664	4702.31
684.854	4855.9
685.044	4628.58
685.234	4612.2
685.424	4644.96
685.614	4644.96
685.804	4601.96
685.994	4671.59
686.184	4624.48
686.374	4800.61
686.564	4550.76
686.753	4704.35
686.943	4546.66
687.133	4657.25
687.323	4544.61
687.513	4434.02
687.702	4358.25
687.892	4382.82
688.082	4368.49
688.272	4409.45
688.461	4505.7
688.651	4474.98
688.841	4173.93
689.03	4329.58
689.22	4255.85
689.41	4292.71
689.599	4194.41
689.789	4210.79
689.979	4272.23
690.168	4137.07
690.358	4182.12
690.547	4126.83
690.737	4188.27
690.926	4182.12
691.116	4059.24
691.305	4038.77
691.495	4079.72
691.684	3858.54
691.874	4081.77
692.063	3934.32
692.252	4214.89
692.442	3930.22
692.631	3735.67
692.82	3979.37
693.01	3821.68
693.199	3913.84
693.388	3795.06
693.578	3825.78
693.767	3844.21
693.956	3805.3
694.146	3848.3
694.335	3862.64
694.524	3817.58
694.713	3801.2
694.902	3713.14
695.092	3563.64
695.281	3741.81
695.47	3760.24
695.659	3526.77
695.848	3704.95
696.037	3672.18
696.226	3762.29
696.415	3659.89
696.604	3688.56
696.793	3584.12
696.982	3561.59
697.171	3666.03
697.36	3559.54
697.549	3631.22
697.738	3350.65
697.927	3512.44
698.116	3500.15
698.305	3451
698.494	3498.1
698.683	3473.53
698.872	3627.12
699.061	3618.93
699.25	3620.98
699.438	3418.23
699.627	3512.44
699.816	3639.41
700.005	3397.75
700.193	3360.89
700.382	3518.58
700.571	3379.32
700.76	3481.72
700.948	3530.87
701.137	3407.99
701.326	3526.77
701.514	3391.61
701.703	3616.88
701.892	3375.22
702.08	3555.44
702.269	3643.51
702.457	3440.76
702.646	3391.61
702.834	3352.7
703.023	3514.49
703.212	3448.95
703.4	3344.5
703.589	3407.99
703.777	3440.76
703.965	3356.79
704.154	3399.8
704.342	3356.79
704.531	3393.65
704.719	3405.94
704.907	3434.61
705.096	3385.46
705.284	3369.08
705.472	3428.47
705.661	3477.62
705.849	3434.61
706.037	3565.68
706.226	3274.87
706.414	3467.38
706.602	3520.63
706.79	3367.03
706.979	3569.78
707.167	3606.64
707.355	3364.98
707.543	3522.68
707.731	3401.85
707.919	3383.42
708.107	3422.33
708.296	3545.2
708.484	3352.7
708.672	3436.66
708.86	3418.23
709.048	3498.1
709.236	3369.08
709.424	3485.81
709.612	3483.77
709.8	3514.49
709.988	3485.81
710.176	3401.85
710.364	3418.23
710.551	3618.93
710.739	3418.23
710.927	3522.68
711.115	3504.25
711.303	3639.41
711.491	3424.37
711.679	3414.13
711.866	3612.79
712.054	3522.68
712.242	3432.57
712.43	3614.84
712.617	3405.94
712.805	3522.68
712.993	3647.6
713.181	3483.77
713.368	3514.49
713.556	3494.01
713.744	3491.96
713.931	3555.44
714.119	3510.39
714.306	3627.12
714.494	3508.34
714.682	3518.58
714.869	3487.86
715.057	3692.66
715.244	3483.77
715.432	3575.92
715.619	3592.31
715.807	3584.12
715.994	3537.01
716.182	3432.57
716.369	3721.33
716.556	3760.24
716.744	3532.92
716.931	3545.2
717.119	3682.42
717.306	3608.69
717.493	3612.79
717.681	3614.84
717.868	3657.84
718.055	3713.14
718.242	3663.99
718.43	3735.67
718.617	3645.56
718.804	3641.46
718.991	3747.95
719.179	3795.06
719.366	3663.99
719.553	3727.47
719.74	3590.26
719.927	3780.72
720.114	3729.52
720.301	3659.89
720.488	3649.65
720.676	3696.75
720.863	3842.16
721.05	3774.58
721.237	3733.62
721.424	3661.94
721.611	3809.39
721.798	3725.43
721.985	3637.36
722.172	3739.76
722.358	3833.97
722.545	3989.61
722.732	3762.29
722.919	3815.54
723.106	3620.98
723.293	3684.47
723.48	3844.21
723.667	3709.04
723.853	3846.26
724.04	3758.19
724.227	3793.01
724.414	3838.06
724.6	3682.42
724.787	3727.47
724.974	3780.72
725.161	3774.58
725.347	3696.75
725.534	3891.31
725.72	3876.98
725.907	3846.26
726.094	3715.19
726.28	3876.98
726.467	3774.58
726.653	3772.53
726.84	4020.33
727.027	3909.74
727.213	3729.52
727.4	3807.34
727.586	3727.47
727.773	3829.87
727.959	3833.97
728.145	3840.11
728.332	3917.93
728.518	3739.76
728.705	3811.44
728.891	3723.38
729.077	3776.63
729.264	3856.5
729.45	3870.83
729.636	3903.6
729.823	3870.83
730.009	3944.56
730.195	3876.98
730.382	4006
730.568	3852.4
730.754	3842.16
730.94	3772.53
731.126	4049
731.313	3844.21
731.499	3901.55
731.685	3950.7
731.871	3885.17
732.057	3825.78
732.243	3815.54
732.429	3848.3
732.615	3924.08
732.801	3905.65
732.987	3807.34
733.173	3946.61
733.359	3817.58
733.545	3887.22
733.731	3846.26
733.917	3801.2
734.103	3915.89
734.289	3864.69
734.475	3829.87
734.661	3899.5
734.847	3752.05
735.033	3883.12
735.219	3936.37
735.404	3940.46
735.59	4006
735.776	3842.16
735.962	3842.16
736.148	3797.1
736.333	3829.87
736.519	3897.46
736.705	3833.97
736.89	3850.35
737.076	3737.71
737.262	3649.65
737.447	3905.65
737.633	3639.41
737.819	3825.78
738.004	3737.71
738.19	3747.95
738.375	3872.88
738.561	3860.59
738.747	3743.86
738.932	3747.95
739.118	3827.82
739.303	3702.9
739.489	3743.86
739.674	3711.09
739.859	3786.86
740.045	3696.75
740.23	3823.73
740.416	3649.65
740.601	3823.73
740.786	3586.16
740.972	3645.56
741.157	3614.84
741.342	3723.38
741.528	3713.14
741.713	3549.3
741.898	3637.36
742.084	3471.48
742.269	3727.47
742.454	3655.79
742.639	3584.12
742.824	3606.64
743.01	3594.36
743.195	3569.78
743.38	3532.92
743.565	3418.23
743.75	3598.45
743.935	3487.86
744.12	3567.73
744.305	3483.77
744.49	3479.67
744.675	3369.08
744.86	3483.77
745.045	3606.64
745.23	3520.63
745.415	3385.46
745.6	3405.94
745.785	3270.78
745.97	3518.58
746.155	3258.49
746.34	3326.07
746.525	3176.57
746.71	3344.5
746.895	3121.28
747.079	3276.92
747.264	3145.85
747.449	3211.39
747.634	3108.99
747.819	3244.15
748.003	3008.64
748.188	3055.74
748.373	3014.78
748.557	3133.56
748.742	3119.23
748.927	3020.92
749.111	3016.83
749.296	3045.5
749.481	2992.25
749.665	2896
749.85	2865.28
750.034	2990.21
750.219	2893.95
750.404	2795.65
750.588	2857.09
750.773	2707.59
750.957	2777.22
751.141	2965.63
751.326	2736.26
751.51	2709.63
751.695	2801.79
751.879	2797.7
752.064	2803.84
752.248	2801.79
752.432	2734.21
752.617	2777.22
752.801	2709.63
752.985	2635.91
753.17	2609.28
753.354	2656.39
753.538	2650.24
753.722	2566.28
753.907	2451.59
754.091	2463.88
754.275	2500.74
754.459	2336.9
754.643	2594.95
754.828	2410.63
755.012	2427.01
755.196	2300.04
755.38	2318.47
755.564	2297.99
755.748	2326.66
755.932	2463.88
756.116	2279.56
756.3	2406.53
756.484	2324.62
756.668	2252.94
756.852	2107.53
757.036	2154.63
757.22	2148.49
757.404	2146.44
757.588	2232.46
757.772	2279.56
757.956	2076.81
758.14	2318.47
758.323	2060.43
758.507	2218.12
758.691	2042
758.875	2134.15
759.059	2158.73
759.242	2001.04
759.426	1998.99
759.61	2085
759.794	2119.82
759.977	2085
760.161	2109.58
760.345	2085
760.528	2039.95
760.712	2066.57
760.895	1933.45
761.079	1892.49
761.263	1966.22
761.446	1867.92
761.63	1826.96
761.813	1925.26
761.997	1781.9
762.18	1896.59
762.364	1851.53
762.547	1859.73
762.731	1872.01
762.914	1912.97
763.098	1904.78
763.281	1773.71
763.464	1861.77
763.648	1818.77
763.831	1771.66
764.015	1804.43
764.198	1654.93
764.381	1777.81
764.564	1775.76
764.748	1728.66
764.931	1865.87
765.114	1679.51
765.297	1691.79
765.481	1699.98
765.664	1675.41
765.847	1722.51
766.03	1771.66
766.213	1654.93
766.397	1632.4
766.58	1638.55
766.763	1689.74
766.946	1622.16
767.129	1585.3
767.312	1601.68
767.495	1669.27
767.678	1544.34
767.861	1659.03
768.044	1599.63
768.227	1626.26
768.41	1652.88
768.593	1607.83
768.776	1560.72
768.959	1558.67
769.142	1560.72
769.324	1564.82
769.507	1573.01
769.69	1464.47
769.873	1474.71
770.056	1579.15
770.239	1521.81
770.421	1556.63
770.604	1448.08
770.787	1437.84
770.97	1435.8
771.152	1454.23
771.335	1403.03
771.518	1532.05
771.7	1501.33
771.883	1384.6
772.066	1400.98
772.248	1405.08
772.431	1405.08
772.613	1446.04
772.796	1351.83
772.978	1429.65
773.161	1386.65
773.343	1360.02
773.526	1331.35
773.708	1308.82
773.891	1249.43
774.073	1314.97
774.256	1118.36
774.438	1302.68
774.621	1224.86
774.803	1245.34
774.985	1214.62
775.168	1298.58
775.35	1198.23
775.532	1247.38
775.715	1312.92
775.897	1202.33
776.079	1237.14
776.261	1187.99
776.444	1198.23
776.626	1179.8
776.808	1114.27
776.99	1181.85
777.173	1114.27
777.355	1210.52
777.537	1231
777.719	1095.83
777.901	1114.27
778.083	1040.54
778.265	1134.75
778.447	1130.65
778.629	1040.54
778.811	1030.3
778.993	1089.69
779.175	1005.72
779.357	1087.64
779.539	995.48
779.721	1001.63
779.903	925.85
780.085	929.95
780.267	991.39
780.449	1040.54
780.631	1104.03
780.812	966.81
780.994	1005.72
781.176	915.61
781.358	1011.87
781.54	942.24
781.721	952.48
781.903	1028.25
782.085	927.9
782.267	993.44
782.448	798.88
782.63	876.7
782.812	870.56
782.993	886.94
783.175	944.28
783.357	860.32
783.538	848.03
783.72	848.03
783.901	807.07
784.083	811.17
784.264	778.4
784.446	735.39
784.627	690.34
784.809	856.22
784.99	790.69
785.172	755.87
785.353	768.16
785.535	764.06
785.716	716.96
785.897	698.53
786.079	721.06
786.26	841.89
786.441	684.19
786.623	759.97
786.804	673.95
786.985	725.15
787.167	774.3
787.348	682.14
787.529	721.06
787.71	739.49
787.891	704.67
788.073	716.96
788.254	682.14
788.435	772.25
788.616	757.92
788.797	651.42
788.978	592.03
789.159	688.29
789.34	710.82
789.522	671.9
789.703	622.75
789.884	573.6
790.065	630.95
790.246	663.71
790.427	573.6
790.607	682.14
790.788	663.71
790.969	573.6
791.15	604.32
791.331	526.5
791.512	573.6
791.693	481.44
791.874	622.75
792.054	600.23
792.235	563.36
792.416	544.93
792.597	512.16
792.778	579.75
792.958	528.55
793.139	512.16
793.32	606.37
793.5	542.88
793.681	557.22
793.862	493.73
794.042	553.12
794.223	510.11
794.404	420
794.584	520.35
794.765	530.59
794.945	555.17
795.126	497.83
795.306	589.99
795.487	483.49
795.667	479.4
795.848	520.35
796.028	436.39
796.209	424.1
796.389	456.87
796.57	473.25
796.75	436.39
796.93	460.96
797.111	463.01
797.291	407.72
797.471	508.07
797.652	458.92
797.832	444.58
798.012	483.49
798.192	454.82
798.373	415.91
798.553	444.58
798.733	479.4
798.913	428.2
799.093	428.2
799.274	413.86
799.454	460.96
799.634	428.2
799.814	469.16
799.994	503.97
800.174	448.68
800.354	393.38
800.534	321.7
800.714	463.01
800.894	348.33
801.074	327.85
801.254	395.43
801.434	473.25
801.614	442.53
801.794	327.85
801.974	1325.21
802.154	397.48
802.334	366.76
802.514	379.04
802.693	329.89
802.873	366.76
803.053	411.81
803.233	428.2
803.413	340.13
803.592	377
803.772	293.03
803.952	374.95
804.131	333.99
804.311	426.15
804.491	440.48
804.67	344.23
804.85	399.52
805.03	403.62
805.209	395.43
805.389	358.57
805.568	356.52
805.748	311.46
805.928	393.38
806.107	309.41
806.287	329.89
806.466	397.48
806.646	348.33
806.825	336.04
807.004	321.7
807.184	352.42
807.363	307.37
807.543	348.33
807.722	319.65
807.901	358.57
808.081	333.99
808.26	221.35
808.439	237.74
808.619	327.85
808.798	241.83
808.977	297.13
809.156	348.33
809.336	252.07
809.515	313.51
809.694	299.17
809.873	311.46
810.052	295.08
810.231	311.46
810.411	219.3
810.59	344.23
810.769	288.93
810.948	313.51
811.127	243.88
811.306	221.35
811.485	301.22
811.664	319.65
811.843	250.02
812.022	213.16
812.201	219.3
812.38	243.88
812.559	176.3
812.737	260.26
812.916	209.06
813.095	213.16
813.274	272.55
813.453	262.31
813.632	340.13
813.811	278.69
813.989	213.16
814.168	176.3
814.347	225.45
814.526	268.45
814.704	299.17
814.883	217.26
815.062	182.44
815.24	278.69
815.419	260.26
815.598	299.17
815.776	215.21
815.955	252.07
816.133	133.29
816.312	235.69
816.49	225.45
816.669	213.16
816.847	258.21
817.026	282.79
817.204	250.02
817.383	229.54
817.561	178.34
817.74	213.16
817.918	180.39
818.097	170.15
818.275	266.41
818.453	237.74
818.632	241.83
818.81	223.4
818.988	221.35
819.167	196.78
819.345	186.54
819.523	213.16
819.701	250.02
819.879	280.74
820.058	155.82
820.236	213.16
820.414	180.39
820.592	221.35
820.77	215.21
820.948	164.01
821.127	200.87
821.305	260.26
821.483	168.1
821.661	157.86
821.839	151.72
822.017	202.92
822.195	98.47
822.373	204.97
822.551	180.39
822.729	313.51
822.907	164.01
823.085	207.02
823.262	188.58
823.44	133.29
823.618	233.64
823.796	180.39
823.974	153.77
824.152	116.9
824.329	131.24
824.507	147.62
824.685	217.26
824.863	184.49
825.04	168.1
825.218	182.44
825.396	116.9
825.574	241.83
825.751	196.78
825.929	176.3
826.107	176.3
826.284	116.9
826.462	147.62
826.639	192.68
826.817	125.1
826.994	145.58
827.172	211.11
827.349	207.02
827.527	217.26
827.704	151.72
827.882	149.67
828.059	127.14
828.237	141.48
828.414	164.01
828.591	116.9
828.769	125.1
828.946	114.86
829.124	215.21
829.301	161.96
829.478	141.48
829.655	161.96
829.833	114.86
830.01	75.95
830.187	159.91
830.364	92.33
830.542	194.73
830.719	141.48
830.896	112.81
831.073	176.3
831.25	168.1
831.427	231.59
831.604	202.92
831.782	106.67
831.959	116.9
832.136	147.62
832.313	135.34
832.49	147.62
832.667	135.34
832.844	80.04
833.021	225.45
833.198	96.43
833.374	176.3
833.551	112.81
833.728	121
833.905	164.01
834.082	41.13
834.259	112.81
834.436	149.67
834.612	77.99
834.789	104.62
834.966	77.99
835.143	112.81
835.319	90.28
835.496	94.38
835.673	98.47
835.85	121
836.026	137.38
836.203	135.34
836.38	98.47
836.556	45.23
836.733	82.09
836.909	106.67
837.086	118.95
837.262	116.9
837.439	172.2
837.616	108.71
837.792	84.14
837.968	168.1
838.145	116.9
838.321	32.94
838.498	100.52
838.674	155.82
838.851	133.29
839.027	28.84
839.203	34.99
839.38	147.62
839.556	108.71
839.732	82.09
839.909	149.67
840.085	98.47
840.261	123.05
840.437	98.47
840.614	96.43
840.79	133.29
840.966	108.71
841.142	127.14
841.318	110.76
841.494	108.71
841.671	155.82
841.847	63.66
842.023	104.62
842.199	131.24
842.375	149.67
842.551	63.66
842.727	32.94
842.903	71.85
843.079	61.61
843.255	61.61
843.431	133.29
843.607	6.31
843.783	-57.17
843.959	69.8
844.134	49.32
844.31	131.24
844.486	80.04
844.662	139.43
844.838	32.94
845.013	147.62
845.189	106.67
845.365	170.15
845.541	114.86
845.716	106.67
845.892	123.05
846.068	12.46
846.244	67.75
846.419	129.19
846.595	12.46
846.77	18.6
846.946	141.48
847.122	65.71
847.297	45.23
847.473	102.57
847.648	30.89
847.824	20.65
847.999	32.94
848.175	100.52
848.35	65.71
848.526	73.9
848.701	59.56
848.876	112.81
849.052	39.08
849.227	10.41
849.403	67.75
849.578	34.99
849.753	39.08
849.929	53.42
850.104	-32.6
850.279	147.62
850.454	80.04
850.63	118.95
850.805	41.13
850.98	53.42
851.155	104.62
851.33	43.18
851.505	26.79
851.681	63.66
851.856	43.18
852.031	94.38
852.206	34.99
852.381	75.95
852.556	57.51
852.731	16.55
852.906	118.95
853.081	-1.88
853.256	112.81
853.431	77.99
853.606	22.7
853.781	108.71
853.956	41.13
854.131	98.47
854.305	59.56
854.48	34.99
854.655	22.7
854.83	55.47
855.005	65.71
855.18	-18.26
855.354	43.18
855.529	88.23
855.704	86.19
855.879	75.95
856.053	-14.17
856.228	80.04
856.403	10.41
856.577	127.14
856.752	-1.88
856.926	100.52
857.101	47.27
857.276	51.37
857.45	143.53
857.625	28.84
857.799	30.89
857.974	4.27
858.148	-5.97
858.323	125.1
858.497	-8.02
858.672	65.71
858.846	8.36
859.02	114.86
859.195	49.32
859.369	-22.36
859.543	-14.17
859.718	30.89
859.892	24.75
860.066	92.33
860.241	16.55
860.415	34.99
860.589	67.75
860.763	-8.02
860.938	53.42
861.112	32.94
861.286	0.17
861.46	8.36
861.634	41.13
861.808	96.43
861.982	-28.5
862.157	28.84
862.331	26.79
862.505	-79.7
862.679	-26.45
862.853	65.71
863.027	73.9
863.201	32.94
863.375	-63.32
863.549	34.99
863.722	98.47
863.896	39.08
864.07	-22.36
864.244	69.8
864.418	102.57
864.592	57.51
864.766	30.89
864.939	98.47
865.113	-5.97
865.287	32.94
865.461	45.23
865.634	-12.12
865.808	10.41
865.982	16.55
866.156	20.65
866.329	14.51
866.503	12.46
866.676	47.27
866.85	100.52
867.024	65.71
867.197	49.32
867.371	-16.21
867.544	67.75
867.718	14.51
867.891	118.95
868.065	14.51
868.238	45.23
868.412	137.38
868.585	8.36
868.759	41.13
868.932	77.99
869.105	-79.7
869.279	24.75
869.452	-22.36
869.625	34.99
869.799	6.31
869.972	-20.31
870.145	37.03
870.319	116.9
870.492	-14.17
870.665	-8.02
870.838	55.47
871.011	-26.45
871.185	75.95
871.358	49.32
871.531	16.55
871.704	32.94
871.877	98.47
872.05	39.08
872.223	-5.97
872.396	71.85
872.569	61.61
872.742	88.23
872.915	104.62
873.088	10.41
873.261	73.9
873.434	-1.88
873.607	34.99
873.78	82.09
873.953	-36.69
874.126	-48.98
874.299	53.42
874.471	73.9
874.644	69.8
874.817	32.94
874.99	51.37
875.163	8.36
875.335	-53.08
875.508	32.94
875.681	112.81
875.853	30.89
876.026	108.71
876.199	61.61
876.371	26.79
876.544	20.65
876.717	53.42
876.889	63.66
877.062	28.84
877.234	-32.6
877.407	-30.55
877.579	80.04
877.752	24.75
877.924	4.27
878.097	39.08
878.269	67.75
878.442	47.27
878.614	67.75
878.786	57.51
878.959	57.51
879.131	34.99
879.303	-24.4
879.476	6.31
879.648	41.13
879.82	63.66
879.993	10.41
880.165	16.55
880.337	12.46
880.509	16.55
880.681	-36.69
880.854	65.71
881.026	53.42
881.198	127.14
881.37	-20.31
881.542	-30.55
881.714	2.22
881.886	-16.21
882.058	32.94
882.23	59.56
882.402	57.51
882.574	22.7
882.746	-44.88
882.918	26.79
883.09	30.89
883.262	-32.6
883.434	24.75
883.606	-32.6
883.778	10.41
883.95	65.71
884.122	65.71
884.293	67.75
884.465	26.79
884.637	71.85
884.809	8.36
884.98	18.6
885.152	26.79
885.324	47.27
885.496	30.89
885.667	-42.84
885.839	-61.27
886.011	-5.97
886.182	-20.31
886.354	10.41
886.525	51.37
886.697	37.03
886.869	-14.17
887.04	-26.45
887.212	155.82
887.383	106.67
887.555	-1.88
887.726	16.55
887.897	-71.51
888.069	-46.93
888.24	98.47
888.412	10.41
888.583	49.32
888.754	90.28
888.926	-12.12
889.097	-14.17
889.268	-77.65
889.44	26.79
889.611	-36.69
889.782	0.17
889.953	4.27
890.125	-48.98
890.296	-3.93
890.467	-8.02
890.638	-3.93
890.809	55.47
890.98	-42.84
891.151	92.33
891.323	108.71
891.494	37.03
891.665	82.09
891.836	47.27
892.007	-71.51
892.178	41.13
892.349	77.99
892.52	-32.6
892.691	20.65
892.862	-18.26
893.032	-16.21
893.203	-44.88
893.374	-16.21
893.545	53.42
893.716	-32.6
893.887	71.85
894.057	16.55
894.228	16.55
894.399	-26.45
894.57	39.08
894.74	-18.26
894.911	90.28
895.082	16.55
895.253	26.79
895.423	69.8
895.594	24.75
895.764	110.76
895.935	-71.51
896.106	77.99
896.276	-5.97
896.447	8.36
896.617	32.94
896.788	43.18
896.958	0.17
897.129	-22.36
897.299	10.41
897.47	102.57
897.64	32.94
897.81	57.51
897.981	20.65
898.151	47.27
898.322	45.23
898.492	26.79
898.662	4.27
898.832	-36.69
899.003	37.03
899.173	57.51
899.343	-51.03
899.513	-61.27
