Data from USB4F104151__84__13-06-14-758.txt Node

Date: Fri Mar 14 13:06:14 EDT 2025
User: louis
Spectrometer: USB4F10415
Trigger mode: 4
Integration Time (sec): 4.000000E-2
Scans to average: 1
Electric dark correction enabled: true
Nonlinearity correction enabled: false
Boxcar width: 0
XAxis mode: Wavelengths
Number of Pixels in Spectrum: 3648
>>>>>Begin Spectral Data<<<<<
178.204	-234.49
178.424	-234.49
178.644	-234.49
178.864	-185.34
179.084	-185.34
179.304	3.07
179.524	-25.6
179.744	-35.84
179.964	103.42
180.184	11.26
180.404	5.12
180.624	-5.12
180.844	-93.18
181.064	27.65
181.283	11.26
181.503	-21.5
181.723	19.46
181.943	-93.18
182.163	44.03
182.383	-48.13
182.602	21.5
182.822	80.89
183.042	37.89
183.262	13.31
183.482	-52.22
183.701	60.42
183.921	29.7
184.141	-5.12
184.361	25.6
184.58	27.65
184.8	109.57
185.02	54.27
185.239	70.65
185.459	115.71
185.679	23.55
185.898	-99.33
186.118	105.47
186.338	62.46
186.557	119.81
186.777	33.79
186.997	37.89
187.216	-1.02
187.436	150.53
187.655	111.61
187.875	52.22
188.095	44.03
188.314	93.18
188.534	93.18
188.753	-15.36
188.973	7.17
189.192	54.27
189.412	44.03
189.631	78.85
189.851	-9.22
190.07	80.89
190.29	-9.22
190.509	19.46
190.729	84.99
190.948	-19.46
191.168	154.62
191.387	27.65
191.607	23.55
191.826	60.42
192.045	97.28
192.265	48.13
192.484	31.74
192.704	21.5
192.923	-56.32
193.142	199.68
193.362	17.41
193.581	76.8
193.8	87.04
194.02	89.09
194.239	37.89
194.458	87.04
194.678	-48.13
194.897	-5.12
195.116	72.7
195.335	97.28
195.555	-7.17
195.774	80.89
195.993	134.14
196.212	-21.5
196.432	15.36
196.651	50.18
196.87	7.17
197.089	31.74
197.308	39.94
197.528	54.27
197.747	3.07
197.966	11.26
198.185	168.96
198.404	21.5
198.623	60.42
198.842	121.85
199.062	39.94
199.281	91.13
199.5	48.13
199.719	50.18
199.938	60.42
200.157	142.33
200.376	72.7
200.595	89.09
200.814	78.85
201.033	15.36
201.252	80.89
201.471	58.37
201.69	95.23
201.909	84.99
202.128	70.65
202.347	70.65
202.566	25.6
202.785	93.18
203.004	-33.79
203.223	166.91
203.442	33.79
203.661	84.99
203.879	13.31
204.098	113.66
204.317	15.36
204.536	70.65
204.755	11.26
204.974	52.22
205.193	119.81
205.411	132.09
205.63	78.85
205.849	27.65
206.068	37.89
206.287	-29.7
206.505	95.23
206.724	70.65
206.943	11.26
207.162	35.84
207.381	5.12
207.599	-21.5
207.818	70.65
208.037	19.46
208.255	52.22
208.474	64.51
208.693	113.66
208.911	13.31
209.13	78.85
209.349	60.42
209.567	68.61
209.786	105.47
210.005	1.02
210.223	17.41
210.442	29.7
210.661	50.18
210.879	62.46
211.098	68.61
211.316	3.07
211.535	146.43
211.753	78.85
211.972	52.22
212.191	44.03
212.409	84.99
212.628	117.76
212.846	31.74
213.065	13.31
213.283	62.46
213.502	7.17
213.72	80.89
213.938	7.17
214.157	44.03
214.375	54.27
214.594	11.26
214.812	62.46
215.031	-31.74
215.249	21.5
215.467	37.89
215.686	62.46
215.904	117.76
216.122	56.32
216.341	80.89
216.559	68.61
216.778	-1.02
216.996	46.08
217.214	-54.27
217.432	48.13
217.651	72.7
217.869	5.12
218.087	70.65
218.306	-9.22
218.524	66.56
218.742	-1.02
218.96	91.13
219.179	-37.89
219.397	66.56
219.615	168.96
219.833	35.84
220.051	29.7
220.27	105.47
220.488	74.75
220.706	70.65
220.924	7.17
221.142	25.6
221.36	33.79
221.578	29.7
221.796	62.46
222.015	31.74
222.233	19.46
222.451	60.42
222.669	-9.22
222.887	48.13
223.105	-21.5
223.323	23.55
223.541	-17.41
223.759	11.26
223.977	48.13
224.195	117.76
224.413	64.51
224.631	62.46
224.849	62.46
225.067	201.72
225.285	-1.02
225.503	89.09
225.721	-25.6
225.939	-11.26
226.157	103.42
226.375	154.62
226.592	-46.08
226.81	76.8
227.028	115.71
227.246	109.57
227.464	97.28
227.682	46.08
227.9	46.08
228.117	27.65
228.335	25.6
228.553	15.36
228.771	78.85
228.989	-11.26
229.206	41.98
229.424	60.42
229.642	5.12
229.86	11.26
230.077	31.74
230.295	91.13
230.513	128
230.731	54.27
230.948	91.13
231.166	113.66
231.384	64.51
231.601	-11.26
231.819	21.5
232.037	3.07
232.254	-5.12
232.472	68.61
232.689	66.56
232.907	78.85
233.125	66.56
233.342	19.46
233.56	-37.89
233.777	-5.12
233.995	76.8
234.213	152.57
234.43	52.22
234.648	-21.5
234.865	72.7
235.083	54.27
235.3	35.84
235.518	76.8
235.735	142.33
235.953	56.32
236.17	62.46
236.388	-7.17
236.605	58.37
236.822	70.65
237.04	37.89
237.257	29.7
237.475	1.02
237.692	84.99
237.909	87.04
238.127	44.03
238.344	97.28
238.562	-9.22
238.779	-52.22
238.996	-5.12
239.214	44.03
239.431	64.51
239.648	9.22
239.865	60.42
240.083	35.84
240.3	72.7
240.517	-19.46
240.735	19.46
240.952	113.66
241.169	109.57
241.386	82.94
241.603	35.84
241.821	25.6
242.038	103.42
242.255	62.46
242.472	23.55
242.689	68.61
242.907	97.28
243.124	46.08
243.341	31.74
243.558	39.94
243.775	60.42
243.992	-25.6
244.209	109.57
244.426	97.28
244.643	27.65
244.86	60.42
245.078	5.12
245.295	29.7
245.512	84.99
245.729	11.26
245.946	56.32
246.163	76.8
246.38	23.55
246.597	76.8
246.814	27.65
247.031	44.03
247.248	52.22
247.464	11.26
247.681	25.6
247.898	105.47
248.115	109.57
248.332	-29.7
248.549	80.89
248.766	70.65
248.983	121.85
249.2	68.61
249.417	87.04
249.633	-21.5
249.85	95.23
250.067	19.46
250.284	5.12
250.501	70.65
250.717	52.22
250.934	60.42
251.151	128
251.368	48.13
251.585	35.84
251.801	44.03
252.018	27.65
252.235	93.18
252.451	35.84
252.668	-19.46
252.885	93.18
253.102	48.13
253.318	35.84
253.535	3.07
253.752	52.22
253.968	80.89
254.185	-93.18
254.401	72.7
254.618	-1.02
254.835	19.46
255.051	64.51
255.268	52.22
255.484	111.61
255.701	9.22
255.917	125.95
256.134	3.07
256.351	91.13
256.567	27.65
256.784	64.51
257	-39.94
257.217	-11.26
257.433	60.42
257.65	56.32
257.866	119.81
258.082	11.26
258.299	-27.65
258.515	56.32
258.732	27.65
258.948	64.51
259.165	64.51
259.381	33.79
259.597	25.6
259.814	72.7
260.03	-39.94
260.246	39.94
260.463	128
260.679	64.51
260.895	58.37
261.112	89.09
261.328	54.27
261.544	-11.26
261.761	76.8
261.977	19.46
262.193	-46.08
262.409	101.37
262.626	27.65
262.842	54.27
263.058	101.37
263.274	105.47
263.49	60.42
263.707	95.23
263.923	25.6
264.139	-29.7
264.355	84.99
264.571	46.08
264.787	33.79
265.004	50.18
265.22	-29.7
265.436	-15.36
265.652	58.37
265.868	-27.65
266.084	-27.65
266.3	35.84
266.516	-3.07
266.732	68.61
266.948	64.51
267.164	52.22
267.38	91.13
267.596	31.74
267.812	152.57
268.028	33.79
268.244	23.55
268.46	60.42
268.676	-21.5
268.892	31.74
269.108	-54.27
269.324	15.36
269.54	5.12
269.756	101.37
269.972	-29.7
270.188	-33.79
270.403	-27.65
270.619	1.02
270.835	15.36
271.051	-17.41
271.267	52.22
271.483	99.33
271.698	70.65
271.914	31.74
272.13	44.03
272.346	17.41
272.562	95.23
272.777	93.18
272.993	17.41
273.209	56.32
273.425	68.61
273.64	9.22
273.856	82.94
274.072	-9.22
274.287	52.22
274.503	140.29
274.719	68.61
274.934	-11.26
275.15	-21.5
275.366	29.7
275.581	56.32
275.797	48.13
276.012	84.99
276.228	72.7
276.444	84.99
276.659	121.85
276.875	23.55
277.09	101.37
277.306	60.42
277.521	93.18
277.737	78.85
277.952	44.03
278.168	117.76
278.383	93.18
278.599	29.7
278.814	48.13
279.03	78.85
279.245	35.84
279.461	21.5
279.676	31.74
279.892	27.65
280.107	74.75
280.322	-9.22
280.538	5.12
280.753	52.22
280.969	11.26
281.184	-23.55
281.399	146.43
281.615	41.98
281.83	1.02
282.045	-62.46
282.26	-54.27
282.476	44.03
282.691	27.65
282.906	82.94
283.122	-37.89
283.337	46.08
283.552	48.13
283.767	52.22
283.983	97.28
284.198	21.5
284.413	44.03
284.628	25.6
284.843	37.89
285.058	29.7
285.274	1.02
285.489	-29.7
285.704	64.51
285.919	48.13
286.134	35.84
286.349	-5.12
286.564	48.13
286.779	148.48
286.995	87.04
287.21	46.08
287.425	101.37
287.64	-5.12
287.855	-21.5
288.07	50.18
288.285	142.33
288.5	109.57
288.715	89.09
288.93	48.13
289.145	101.37
289.36	103.42
289.575	64.51
289.79	52.22
290.004	17.41
290.219	119.81
290.434	1.02
290.649	25.6
290.864	35.84
291.079	-19.46
291.294	70.65
291.509	97.28
291.724	-25.6
291.938	48.13
292.153	76.8
292.368	80.89
292.583	46.08
292.798	13.31
293.012	46.08
293.227	103.42
293.442	27.65
293.657	115.71
293.871	121.85
294.086	-41.98
294.301	91.13
294.516	33.79
294.73	70.65
294.945	-13.31
295.16	13.31
295.374	41.98
295.589	60.42
295.804	7.17
296.018	15.36
296.233	50.18
296.447	15.36
296.662	21.5
296.877	80.89
297.091	64.51
297.306	-9.22
297.52	23.55
297.735	58.37
297.949	101.37
298.164	103.42
298.378	72.7
298.593	-27.65
298.807	41.98
299.022	82.94
299.236	119.81
299.451	101.37
299.665	52.22
299.88	64.51
300.094	134.14
300.309	68.61
300.523	78.85
300.737	60.42
300.952	72.7
301.166	27.65
301.381	64.51
301.595	-5.12
301.809	-41.98
302.024	62.46
302.238	9.22
302.452	97.28
302.667	66.56
302.881	89.09
303.095	68.61
303.309	68.61
303.524	62.46
303.738	66.56
303.952	58.37
304.166	89.09
304.381	-3.07
304.595	158.72
304.809	62.46
305.023	39.94
305.237	11.26
305.452	7.17
305.666	101.37
305.88	54.27
306.094	115.71
306.308	113.66
306.522	134.14
306.736	17.41
306.95	97.28
307.164	70.65
307.379	-31.74
307.593	31.74
307.807	121.85
308.021	54.27
308.235	78.85
308.449	-23.55
308.663	33.79
308.877	113.66
309.091	82.94
309.305	87.04
309.519	-37.89
309.733	95.23
309.947	3.07
310.161	44.03
310.374	76.8
310.588	91.13
310.802	-27.65
311.016	-19.46
311.23	-15.36
311.444	62.46
311.658	31.74
311.872	70.65
312.085	46.08
312.299	138.24
312.513	173.05
312.727	68.61
312.941	72.7
313.154	25.6
313.368	33.79
313.582	48.13
313.796	62.46
314.009	-27.65
314.223	35.84
314.437	-11.26
314.651	60.42
314.864	5.12
315.078	-35.84
315.292	-5.12
315.505	-31.74
315.719	66.56
315.933	48.13
316.146	48.13
316.36	25.6
316.573	109.57
316.787	-19.46
317.001	62.46
317.214	-1.02
317.428	44.03
317.641	-21.5
317.855	97.28
318.068	48.13
318.282	21.5
318.495	130.05
318.709	66.56
318.922	50.18
319.136	76.8
319.349	52.22
319.563	19.46
319.776	95.23
319.99	-46.08
320.203	-44.03
320.417	109.57
320.63	84.99
320.843	91.13
321.057	15.36
321.27	52.22
321.483	103.42
321.697	80.89
321.91	-25.6
322.124	19.46
322.337	68.61
322.55	35.84
322.763	58.37
322.977	84.99
323.19	35.84
323.403	31.74
323.617	66.56
323.83	87.04
324.043	44.03
324.256	99.33
324.469	76.8
324.683	21.5
324.896	80.89
325.109	93.18
325.322	21.5
325.535	64.51
325.748	29.7
325.962	13.31
326.175	11.26
326.388	19.46
326.601	115.71
326.814	37.89
327.027	62.46
327.24	68.61
327.453	-3.07
327.666	87.04
327.879	101.37
328.092	72.7
328.305	74.75
328.518	25.6
328.731	25.6
328.944	19.46
329.157	107.52
329.37	62.46
329.583	111.61
329.796	54.27
330.009	7.17
330.222	183.29
330.435	72.7
330.648	58.37
330.861	56.32
331.073	11.26
331.286	27.65
331.499	76.8
331.712	-15.36
331.925	113.66
332.138	33.79
332.35	70.65
332.563	-39.94
332.776	27.65
332.989	-54.27
333.202	15.36
333.414	44.03
333.627	27.65
333.84	29.7
334.053	39.94
334.265	5.12
334.478	-27.65
334.691	101.37
334.903	58.37
335.116	19.46
335.329	7.17
335.541	117.76
335.754	89.09
335.966	44.03
336.179	93.18
336.392	99.33
336.604	13.31
336.817	87.04
337.029	27.65
337.242	33.79
337.454	134.14
337.667	41.98
337.88	56.32
338.092	58.37
338.305	95.23
338.517	74.75
338.729	62.46
338.942	74.75
339.154	35.84
339.367	21.5
339.579	29.7
339.792	-5.12
340.004	91.13
340.217	44.03
340.429	56.32
340.641	70.65
340.854	-13.31
341.066	9.22
341.278	105.47
341.491	136.19
341.703	87.04
341.915	1.02
342.128	82.94
342.34	84.99
342.552	-1.02
342.764	41.98
342.977	119.81
343.189	107.52
343.401	72.7
343.613	39.94
343.826	62.46
344.038	52.22
344.25	64.51
344.462	15.36
344.674	46.08
344.886	23.55
345.099	68.61
345.311	134.14
345.523	1.02
345.735	-50.18
345.947	-15.36
346.159	41.98
346.371	29.7
346.583	21.5
346.795	80.89
347.007	-17.41
347.219	70.65
347.431	113.66
347.643	193.53
347.855	-21.5
348.067	76.8
348.279	-3.07
348.491	50.18
348.703	48.13
348.915	-15.36
349.127	50.18
349.339	115.71
349.551	11.26
349.763	91.13
349.975	76.8
350.187	68.61
350.399	128
350.61	121.85
350.822	11.26
351.034	76.8
351.246	27.65
351.458	103.42
351.669	87.04
351.881	-15.36
352.093	109.57
352.305	207.87
352.517	128
352.728	154.62
352.94	-27.65
353.152	-25.6
353.363	87.04
353.575	7.17
353.787	134.14
353.999	64.51
354.21	72.7
354.422	29.7
354.633	54.27
354.845	48.13
355.057	72.7
355.268	76.8
355.48	93.18
355.692	7.17
355.903	7.17
356.115	76.8
356.326	-17.41
356.538	13.31
356.749	27.65
356.961	148.48
357.172	72.7
357.384	-27.65
357.595	197.63
357.807	41.98
358.018	91.13
358.23	21.5
358.441	111.61
358.653	144.38
358.864	80.89
359.075	60.42
359.287	62.46
359.498	115.71
359.709	35.84
359.921	27.65
360.132	121.85
360.344	66.56
360.555	35.84
360.766	27.65
360.977	111.61
361.189	78.85
361.4	54.27
361.611	80.89
361.823	183.29
362.034	37.89
362.245	70.65
362.456	60.42
362.667	134.14
362.879	62.46
363.09	103.42
363.301	70.65
363.512	84.99
363.723	19.46
363.935	48.13
364.146	44.03
364.357	82.94
364.568	101.37
364.779	35.84
364.99	56.32
365.201	-7.17
365.412	107.52
365.623	-11.26
365.834	78.85
366.045	66.56
366.256	109.57
366.467	62.46
366.678	35.84
366.889	39.94
367.1	87.04
367.311	97.28
367.522	60.42
367.733	93.18
367.944	9.22
368.155	72.7
368.366	117.76
368.577	76.8
368.788	78.85
368.999	48.13
369.209	23.55
369.42	144.38
369.631	158.72
369.842	39.94
370.053	-19.46
370.264	80.89
370.474	101.37
370.685	44.03
370.896	-13.31
371.107	95.23
371.317	130.05
371.528	97.28
371.739	115.71
371.95	1.02
372.16	132.09
372.371	29.7
372.582	76.8
372.792	25.6
373.003	109.57
373.214	70.65
373.424	66.56
373.635	52.22
373.846	107.52
374.056	62.46
374.267	41.98
374.477	128
374.688	21.5
374.898	31.74
375.109	3.07
375.319	119.81
375.53	109.57
375.74	60.42
375.951	46.08
376.161	78.85
376.372	160.77
376.582	44.03
376.793	-21.5
377.003	-27.65
377.214	27.65
377.424	70.65
377.635	95.23
377.845	7.17
378.055	62.46
378.266	27.65
378.476	19.46
378.686	91.13
378.897	99.33
379.107	78.85
379.317	52.22
379.528	62.46
379.738	76.8
379.948	9.22
380.158	158.72
380.369	-21.5
380.579	93.18
380.789	56.32
380.999	95.23
381.21	115.71
381.42	201.72
381.63	84.99
381.84	62.46
382.05	76.8
382.261	128
382.471	46.08
382.681	3.07
382.891	115.71
383.101	132.09
383.311	19.46
383.521	7.17
383.731	142.33
383.941	74.75
384.151	70.65
384.361	89.09
384.571	87.04
384.781	95.23
384.991	132.09
385.201	107.52
385.411	60.42
385.621	121.85
385.831	56.32
386.041	25.6
386.251	9.22
386.461	93.18
386.671	27.65
386.881	97.28
387.091	84.99
387.301	99.33
387.511	21.5
387.72	72.7
387.93	109.57
388.14	-64.51
388.35	37.89
388.56	97.28
388.769	160.77
388.979	97.28
389.189	89.09
389.399	84.99
389.609	93.18
389.818	60.42
390.028	70.65
390.238	158.72
390.447	27.65
390.657	39.94
390.867	60.42
391.076	3.07
391.286	89.09
391.496	113.66
391.705	103.42
391.915	68.61
392.125	162.81
392.334	66.56
392.544	181.25
392.753	128
392.963	64.51
393.172	95.23
393.382	11.26
393.591	211.96
393.801	37.89
394.01	207.87
394.22	97.28
394.429	128
394.639	148.48
394.848	209.92
395.058	84.99
395.267	179.2
395.477	111.61
395.686	121.85
395.895	199.68
396.105	121.85
396.314	113.66
396.524	119.81
396.733	89.09
396.942	152.57
397.152	148.48
397.361	130.05
397.57	117.76
397.78	109.57
397.989	101.37
398.198	171.01
398.407	97.28
398.617	125.95
398.826	54.27
399.035	97.28
399.244	125.95
399.453	87.04
399.663	187.39
399.872	201.72
400.081	15.36
400.29	101.37
400.499	142.33
400.708	125.95
400.917	125.95
401.127	119.81
401.336	68.61
401.545	148.48
401.754	207.87
401.963	203.77
402.172	97.28
402.381	62.46
402.59	101.37
402.799	125.95
403.008	156.67
403.217	121.85
403.426	158.72
403.635	140.29
403.844	121.85
404.053	158.72
404.262	160.77
404.471	232.44
404.68	150.53
404.888	177.15
405.097	173.05
405.306	160.77
405.515	265.21
405.724	136.19
405.933	199.68
406.142	203.77
406.35	164.86
406.559	232.44
406.768	158.72
406.977	224.25
407.185	291.84
407.394	261.12
407.603	154.62
407.812	287.74
408.02	195.58
408.229	218.11
408.438	216.06
408.646	216.06
408.855	199.68
409.064	338.94
409.272	281.6
409.481	330.75
409.69	304.12
409.898	320.51
410.107	304.12
410.315	408.57
410.524	332.79
410.733	347.13
410.941	392.19
411.15	412.67
411.358	398.33
411.567	402.43
411.775	404.47
411.984	494.58
412.192	513.02
412.401	453.63
412.609	537.59
412.818	510.97
413.026	494.58
413.234	502.78
413.443	472.06
413.651	572.41
413.86	625.65
414.068	601.08
414.276	687.09
414.485	578.55
414.693	687.09
414.901	783.35
415.11	707.57
415.318	711.67
415.526	744.44
415.734	826.36
415.943	801.78
416.151	787.44
416.359	873.46
416.567	895.99
416.776	947.19
416.984	1008.62
417.192	1033.2
417.4	1086.45
417.608	986.1
417.817	1111.02
418.025	1135.6
418.233	1217.52
418.441	1176.56
418.649	1192.94
418.857	1274.86
419.065	1346.54
419.273	1313.77
419.481	1539.05
419.689	1559.53
419.897	1541.1
420.105	1534.95
420.313	1528.81
420.521	1709.03
420.729	1723.37
420.937	1733.61
421.145	1807.33
421.353	1885.16
421.561	2075.62
421.769	1987.55
421.977	2102.24
422.185	2198.49
422.393	2227.17
422.601	2491.35
422.809	2493.4
423.017	2485.21
423.224	2452.44
423.432	2550.75
423.64	2560.98
423.848	2925.52
424.056	2677.72
424.263	3017.68
424.471	3001.3
424.679	3156.94
424.887	3345.36
425.094	3220.43
425.302	3406.8
425.51	3560.39
425.718	3576.78
425.925	3636.17
426.133	3726.28
426.341	3947.46
426.548	4084.67
426.756	4117.44
426.964	4305.85
427.171	4363.2
427.379	4561.85
427.586	4543.42
427.794	4740.02
428.001	5067.7
428.209	5233.58
428.417	5112.75
428.624	5436.33
428.832	5395.37
429.039	5383.09
429.247	5458.86
429.454	5993.38
429.662	6362.01
429.869	5944.23
430.076	6202.27
430.284	6153.12
430.491	6474.65
430.699	6824.86
430.906	6765.46
431.114	6824.86
431.321	7246.74
431.528	7259.03
431.736	7809.93
431.943	8219.52
432.15	7918.47
432.358	7918.47
432.565	8479.61
432.772	8401.79
432.979	8958.84
433.187	9026.42
433.394	9063.29
433.601	9538.41
433.808	9687.92
434.016	9601.9
434.223	10064.74
434.43	10656.61
434.637	10658.65
434.844	11096.92
435.052	11391.83
435.259	11103.06
435.466	11324.24
435.673	11139.93
435.88	12006.22
436.087	12727.1
436.294	12348.23
436.501	12348.23
436.708	12510.02
436.915	12954.43
437.122	13632.3
437.329	13534
437.537	14111.53
437.743	14064.43
437.95	14035.75
438.157	14840.61
438.364	15301.4
438.571	15080.22
438.778	15244.06
438.985	16708.35
439.192	16028.43
439.399	16534.28
439.606	16014.09
439.813	17255.16
440.02	18266.86
440.227	18004.72
440.433	17963.76
440.64	18199.27
440.847	18291.43
441.054	18506.47
441.261	19876.56
441.467	19413.72
441.674	19993.29
441.881	20925.12
442.088	20703.94
442.294	20568.77
442.501	21058.24
442.708	21426.87
442.914	22479.53
443.121	23343.77
443.328	22284.97
443.534	24513.16
443.741	23700.12
443.948	23247.52
444.154	25027.2
444.361	24844.93
444.568	24918.66
444.774	24918.66
444.981	25506.43
445.187	25922.16
445.394	27304.54
445.6	26923.62
445.807	29397.57
446.013	28445.26
446.22	28803.66
446.426	30044.73
446.633	30464.56
446.839	31072.81
447.046	30011.96
447.252	31887.9
447.459	31820.31
447.665	31261.22
447.871	33057.29
448.078	34417.14
448.284	32657.93
448.491	33505.79
448.697	34798.06
448.903	35891.68
449.11	35547.62
449.316	34877.93
449.522	35518.95
449.728	36735.44
449.935	37163.46
450.141	37454.28
450.347	37831.1
450.553	36676.05
450.76	37243.34
450.966	38678.96
451.172	38111.67
451.378	39397.8
451.584	38359.48
451.791	39201.19
451.997	38881.71
452.203	39877.02
452.409	39963.04
452.615	40094.11
452.821	38242.74
453.027	37622.21
453.233	39963.04
453.44	38216.12
453.646	38992.3
453.852	38830.51
454.058	39729.57
454.264	38648.24
454.47	39502.25
454.676	38588.85
454.882	39866.78
455.088	36311.51
455.294	37317.06
455.5	37523.91
455.705	38001.08
455.911	36477.4
456.117	35484.13
456.323	35213.8
456.529	33147.4
456.735	34857.45
456.941	34159.09
457.147	33069.58
457.352	32623.12
457.558	32129.56
457.764	32104.98
457.97	31758.88
458.176	31105.57
458.381	31081
458.587	29346.37
458.793	29416
458.999	27601.5
459.204	30110.26
459.41	28979.78
459.616	27302.5
459.821	27277.92
460.027	26937.96
460.233	26770.02
460.438	25215.62
460.644	25768.57
460.85	24550.03
461.055	23673.49
461.261	23931.54
461.466	22266.54
461.672	21322.43
461.878	22944.42
462.083	21265.08
462.289	20886.21
462.494	20992.7
462.7	19950.29
462.905	19409.62
463.111	20069.07
463.316	20177.61
463.522	19700.44
463.727	19520.21
463.932	19643.09
464.138	19587.8
464.343	19622.61
464.549	18885.34
464.754	19477.21
464.959	19292.89
465.165	19321.56
465.37	18582.24
465.575	17969.9
465.781	18750.18
465.986	18909.92
466.191	18273
466.397	17677.04
466.602	17025.79
466.807	17545.97
467.012	17435.38
467.218	17486.58
467.423	17492.73
467.628	17439.48
467.833	18055.92
468.038	17402.61
468.244	16890.62
468.449	17812.21
468.654	17193.72
468.859	16945.92
469.064	16702.21
469.269	16241.42
469.474	16214.79
469.679	16501.51
469.885	16069.39
470.09	16354.05
470.295	16177.93
470.5	15717.14
470.705	15938.32
470.91	15473.43
471.115	15348.5
471.32	15739.66
471.525	15575.83
471.73	15436.56
471.935	15045.4
472.139	14492.45
472.344	14773.02
472.549	14773.02
472.754	14512.93
472.959	14363.43
473.164	14068.52
473.369	14005.03
473.574	14316.33
473.778	14011.18
473.983	14330.66
474.188	14080.81
474.393	13304.63
474.598	13175.61
474.802	13245.24
475.007	13222.71
475.212	12993.34
475.417	12606.27
475.621	12800.83
475.826	12718.91
476.031	12532.54
476.235	12456.77
476.44	12266.31
476.645	12405.57
476.849	12409.67
477.054	12077.9
477.259	11879.24
477.463	11922.25
477.668	11733.84
477.872	11842.38
478.077	11537.23
478.282	11144.02
478.486	11359.06
478.691	11232.08
478.895	11098.97
479.1	11146.07
479.304	11039.58
479.509	10668.89
479.713	11004.76
479.918	10660.7
480.122	10347.36
480.326	10732.38
480.531	10529.63
480.735	10443.62
480.94	10447.71
481.144	10820.44
481.348	10392.42
481.553	10464.1
481.757	10169.19
481.961	10298.21
482.166	10421.09
482.37	10554.21
482.574	10287.97
482.778	10091.37
482.983	10294.11
483.187	10220.39
483.391	10148.71
483.595	10115.94
483.8	10011.5
484.004	10255.2
484.208	10244.96
484.412	10060.65
484.616	10201.96
484.821	10179.43
485.025	9970.54
485.229	10283.88
485.433	10199.91
485.637	10126.18
485.841	10105.7
486.045	10161
486.249	10226.53
486.453	10074.98
486.657	10099.56
486.861	10269.54
487.065	10007.4
487.269	10169.19
487.473	9978.73
487.677	10281.83
487.881	10322.79
488.085	10357.6
488.289	10300.26
488.493	10201.96
488.697	10290.02
488.901	10257.25
489.105	10318.69
489.309	10306.4
489.512	10408.8
489.716	10423.14
489.92	10408.8
490.124	10398.56
490.328	10494.82
490.531	10333.03
490.735	10384.23
490.939	10701.66
491.143	10488.67
491.346	10380.13
491.55	10724.19
491.754	10597.21
491.958	10658.65
492.161	10693.47
492.365	10699.61
492.569	10539.87
492.772	10832.73
492.976	10898.27
493.18	10842.97
493.383	10990.42
493.587	11088.73
493.79	11131.73
493.994	11058.01
494.197	11131.73
494.401	11215.7
494.605	11375.44
494.808	11451.22
495.012	11600.72
495.215	11639.63
495.419	11549.52
495.622	11742.03
495.825	11762.51
496.029	11907.91
496.232	11950.92
496.436	11840.33
496.639	12542.78
496.843	12219.21
497.046	12550.98
497.249	12815.16
497.453	12669.76
497.656	12786.49
497.859	12991.29
498.063	13019.96
498.266	13165.37
498.469	13257.53
498.673	13507.38
498.876	13447.99
499.079	13603.63
499.282	13706.03
499.485	13916.97
499.689	14107.43
499.892	14285.61
500.095	14338.85
500.298	14553.89
500.501	14412.58
500.705	14990.11
500.908	15000.35
501.111	15139.61
501.314	15401.75
501.517	15579.92
501.72	15553.3
501.923	15577.87
502.126	16157.45
502.329	16089.87
502.532	16417.54
502.735	16499.46
502.938	16739.07
503.141	16755.46
503.344	16790.27
503.547	17068.8
503.75	17345.27
503.953	17711.86
504.156	17720.05
504.359	17763.06
504.562	17887.98
504.765	18332.39
504.968	18524.9
505.17	18623.2
505.373	18899.68
505.576	19432.15
505.779	19419.86
505.982	19485.4
506.185	19882.7
506.387	19682
506.59	20105.93
506.793	20458.18
506.996	20417.22
507.198	20994.75
507.401	20650.69
507.604	21164.73
507.807	21539.51
508.009	21703.35
508.212	21797.56
508.415	21963.44
508.617	21924.53
508.82	22342.32
509.022	22383.27
509.225	23110.3
509.428	23149.21
509.63	23122.59
509.833	22932.13
510.035	24244.88
510.238	23749.27
510.44	24277.65
510.643	24316.56
510.845	24588.94
511.048	24818.31
511.25	25315.97
511.453	24930.95
511.655	26063.47
511.858	25440.89
512.06	25830.01
512.262	26329.71
512.465	26266.22
512.667	26901.09
512.87	26901.09
513.072	27003.49
513.274	27464.28
513.477	27843.16
513.679	27998.8
513.881	28334.67
514.084	28817.99
514.286	28531.28
514.488	28899.91
514.69	29489.73
514.893	29536.83
515.095	29702.71
515.297	30050.87
515.499	29991.48
515.701	30100.02
515.904	31003.17
516.106	31271.46
516.308	31238.69
516.51	31658.52
516.712	31666.72
516.914	32094.74
517.116	32354.83
517.318	32387.6
517.52	32727.56
517.722	32569.87
517.925	33298.95
518.127	33718.78
518.329	34062.84
518.531	33786.36
518.733	34617.84
518.935	34351.6
519.136	34906.6
519.338	35584.48
519.54	35213.8
519.742	36053.47
519.944	35951.07
520.146	36342.23
520.348	37087.69
520.55	36690.38
520.752	36942.28
520.954	37329.35
521.155	37265.86
521.357	37761.47
521.559	37843.39
521.761	38498.74
521.963	38523.32
522.164	38537.65
522.366	38537.65
522.568	39285.16
522.77	39500.2
522.971	40128.92
523.173	39627.17
523.375	40141.21
523.576	40112.54
523.778	40010.14
523.98	41009.55
524.181	40716.69
524.383	41064.85
524.584	41408.9
524.786	41404.81
524.988	41490.82
525.189	42023.29
525.391	42377.59
525.592	42326.39
525.794	42709.36
525.995	42854.77
526.197	42643.83
526.398	42867.06
526.6	43665.77
526.801	43716.96
527.003	43329.9
527.204	43546.98
527.406	44101.98
527.607	43614.57
527.808	44286.3
528.01	43454.82
528.211	44079.46
528.412	44859.73
528.614	45093.2
528.815	44964.18
529.016	45123.92
529.218	44435.8
529.419	44994.9
529.62	45345.1
529.822	45283.66
530.023	45128.02
530.224	45087.06
530.425	45300.04
530.626	45009.23
530.828	45363.53
531.029	45996.35
531.23	45431.11
531.431	45257.04
531.632	45603.14
531.833	45666.63
532.035	45527.37
532.236	45779.27
532.437	46090.56
532.638	45996.35
532.839	46053.7
533.04	46297.41
533.241	46029.12
533.442	46770.49
533.643	46653.75
533.844	46264.64
534.045	46195.01
534.246	46080.32
534.447	46434.62
534.648	46248.25
534.849	46747.96
535.05	46143.81
535.251	46197.06
535.451	46227.77
535.652	46758.2
535.853	46377.28
536.054	46842.17
536.255	46948.66
536.456	45908.29
536.657	46803.25
536.857	46197.06
537.058	46274.88
537.259	46991.67
537.46	46709.05
537.66	46297.41
537.861	46512.44
538.062	46567.74
538.263	46442.81
538.463	46305.6
538.664	46291.26
538.865	46160.19
539.065	46776.63
539.266	45877.57
539.466	46965.04
539.667	46156.1
539.868	46985.52
540.068	46614.84
540.269	46229.82
540.469	46451
540.67	46430.52
540.87	46342.46
541.071	46211.39
541.271	46403.9
541.472	46688.57
541.672	46262.59
541.873	46201.15
542.073	45660.49
542.274	46547.26
542.474	46291.26
542.675	45918.53
542.875	46567.74
543.075	46397.76
543.276	45934.92
543.476	46500.15
543.676	46309.69
543.877	46330.17
544.077	46479.67
544.277	46190.91
544.478	45898.05
544.678	46412.09
544.878	46508.35
545.078	46401.85
545.279	46549.31
545.479	45828.42
545.679	46340.41
545.879	45971.78
546.079	46244.16
546.28	45951.3
546.48	45799.75
546.68	46266.69
546.88	45838.66
547.08	46131.52
547.28	45959.49
547.48	45672.78
547.68	46127.42
547.88	45779.27
548.081	46285.12
548.281	46076.22
548.481	45994.31
548.681	46190.91
548.881	46399.8
549.081	45834.56
549.28	45869.38
549.48	46229.82
549.68	45807.94
549.88	46321.98
550.08	45629.77
550.28	45818.18
550.48	45541.71
550.68	46451
550.88	45357.39
551.08	45545.8
551.279	45945.15
551.479	45701.45
551.679	45594.95
551.879	45564.23
552.079	45857.09
552.278	45625.67
552.478	45713.73
552.678	45529.42
552.878	45793.61
553.077	45535.56
553.277	45181.26
553.477	46231.87
553.676	45752.65
553.876	45611.34
554.076	45359.44
554.275	45091.15
554.475	44982.61
554.674	45447.5
554.874	45654.34
555.074	44955.99
555.273	45443.4
555.473	45543.75
555.672	44790.1
555.872	44947.79
556.071	45230.41
556.271	45568.33
556.47	45214.03
556.67	44880.21
556.869	44994.9
557.068	45072.72
557.268	44300.64
557.467	44865.88
557.667	45031.76
557.866	44581.21
558.065	44849.49
558.265	44734.81
558.464	44276.06
558.663	44755.29
558.863	44069.22
559.062	45029.71
559.261	44175.71
559.461	44853.59
559.66	43745.64
559.859	44454.23
560.058	43837.8
560.258	44216.67
560.457	43616.61
560.656	44355.93
560.855	43555.18
561.054	44108.13
561.253	43925.86
561.453	44257.63
561.652	43841.89
561.851	44087.65
562.05	43579.75
562.249	42918.26
562.448	43876.71
562.647	43493.74
562.846	43307.37
563.045	43170.16
563.244	42801.52
563.443	43598.18
563.642	42961.26
563.841	43321.71
564.04	42746.23
564.239	42938.74
564.438	42854.77
564.637	42862.96
564.836	42572.15
565.035	42131.84
565.234	42543.48
565.432	42299.77
565.631	42584.44
565.83	42377.59
566.029	41730.44
566.228	42183.04
566.427	41976.19
566.625	41900.42
566.824	41755.01
567.023	41830.79
567.222	41152.91
567.42	41617.8
567.619	41341.32
567.818	41521.54
568.016	41240.97
568.215	41617.8
568.414	41109.9
568.612	41390.47
568.811	40882.58
569.01	41331.08
569.208	40386.97
569.407	41355.66
569.605	40386.97
569.804	40878.48
570.002	40397.21
570.201	40499.61
570.4	40477.08
570.598	40077.72
570.797	39704.99
570.995	40075.68
571.193	39608.74
571.392	39985.57
571.59	39358.89
571.789	39541.16
571.987	39668.13
572.186	39367.08
572.384	39504.29
572.582	39449
572.781	39651.75
572.979	39125.42
573.177	39276.97
573.376	39223.72
573.574	38730.16
573.772	38902.19
573.971	38783.41
574.169	38422.97
574.367	38003.13
574.565	38607.28
574.763	38574.52
574.962	38289.85
575.16	37616.07
575.358	38326.71
575.556	37638.59
575.754	38392.25
575.952	37798.34
576.151	37784
576.349	37259.72
576.547	37216.71
576.745	37695.94
576.943	37337.54
577.141	37044.68
577.339	37450.18
577.537	37452.23
577.735	37075.4
577.933	37018.06
578.131	37071.31
578.329	36866.51
578.527	36321.75
578.725	36483.54
578.923	37063.11
579.121	36155.86
579.319	36131.29
579.516	36583.89
579.714	36579.79
579.912	36235.74
580.11	35715.55
580.308	35906.01
580.506	35949.02
580.704	35457.51
580.901	36049.37
581.099	36037.08
581.297	35054.06
581.495	35805.66
581.692	35484.13
581.89	35029.48
582.088	35494.37
582.285	35072.49
582.483	35027.43
582.681	35172.84
582.878	34660.85
583.076	34574.83
583.274	35019.24
583.471	34241.01
583.669	34396.66
583.866	34023.93
584.064	34230.77
584.262	34042.36
584.459	34261.49
584.657	33720.83
584.854	34077.18
585.052	33731.07
585.249	33989.11
585.447	33839.61
585.644	33389.06
585.841	33980.92
586.039	33427.97
586.236	33133.06
586.434	33077.77
586.631	32987.66
586.828	33114.63
587.026	33045
587.223	32846.35
587.42	32965.13
587.618	32735.76
587.815	32549.39
588.012	32293.4
588.21	32307.73
588.407	32655.89
588.604	32270.87
588.801	31949.34
588.999	32035.35
589.196	31975.96
589.393	31986.2
589.59	31758.88
589.787	32057.88
589.984	31756.83
590.182	31441.44
590.379	31754.78
590.576	31222.31
590.773	31023.65
590.97	31199.78
591.167	31353.38
591.364	30847.53
591.561	30966.31
591.758	30509.61
591.955	30671.4
592.152	30624.3
592.349	30657.07
592.546	30738.99
592.743	30726.7
592.94	30161.46
593.137	30505.52
593.334	30474.8
593.531	30161.46
593.727	30134.84
593.924	30011.96
594.121	29696.57
594.318	29944.38
594.515	29545.02
594.712	29635.13
594.908	29571.64
595.105	29729.34
595.302	29506.11
595.499	29297.22
595.696	29133.38
595.892	28871.24
596.089	28983.88
596.286	29166.15
596.482	28875.34
596.679	28990.02
596.876	28619.34
597.072	28592.72
597.269	28662.35
597.466	28324.43
597.662	28002.9
597.859	28308.05
598.055	28373.58
598.252	28072.53
598.448	27943.51
598.645	27912.79
598.841	27587.16
599.038	27763.29
599.234	27742.81
599.431	27546.2
599.627	27441.76
599.824	27773.53
600.02	27333.21
600.217	27636.31
600.413	27007.59
600.609	27462.24
600.806	27085.41
601.002	27157.09
601.198	26780.26
601.395	26813.03
601.591	26456.68
601.787	26890.85
601.984	26704.49
602.18	26724.97
602.376	26221.17
602.572	26518.12
602.769	26174.06
602.965	25834.1
603.161	26290.8
603.357	25660.02
603.553	25713.27
603.75	26118.77
603.946	25367.16
604.142	25926.26
604.338	25627.26
604.534	25655.93
604.73	25326.21
604.926	25715.32
605.122	25504.38
605.318	25389.69
605.514	25027.2
605.71	24980.1
605.906	25191.04
606.102	24769.16
606.298	24978.05
606.494	24967.81
606.69	24906.37
606.886	24939.14
607.082	24455.82
607.278	24623.75
607.474	24326.8
607.67	24443.53
607.866	24181.39
608.062	24459.91
608.257	24359.56
608.453	24355.47
608.649	24205.97
608.845	24095.38
609.041	24011.41
609.236	24025.75
609.432	23904.92
609.628	24326.8
609.824	24052.37
610.019	23732.89
610.215	23872.15
610.411	23831.19
610.606	23538.33
610.802	24101.52
610.998	23767.7
611.193	23573.14
611.389	23517.85
611.584	23329.44
611.78	23317.15
611.976	23513.75
612.171	23507.61
612.367	23157.41
612.562	22934.18
612.758	22964.9
612.953	22725.29
613.149	22987.43
613.344	22882.98
613.539	23061.15
613.735	22708.9
613.93	23214.75
614.126	22794.92
614.321	23102.11
614.517	22643.37
614.712	22856.36
614.907	22547.11
615.103	22864.55
615.298	22465.19
615.493	22817.44
615.688	22411.95
615.884	22911.65
616.079	22387.37
616.274	22407.85
616.47	22166.19
616.665	22381.23
616.86	22256.3
617.055	22205.1
617.25	21951.15
617.445	22151.85
617.641	21715.64
617.836	22110.89
618.031	21639.86
618.226	22078.13
618.421	21674.68
618.616	21899.95
618.811	21496.5
619.006	21863.09
619.201	21390.01
619.396	21295.8
619.591	21299.9
619.786	21244.6
619.981	21084.86
620.176	21021.38
620.371	20933.31
620.566	20673.22
620.761	20953.79
620.956	20966.08
621.151	20820.67
621.346	20847.3
621.541	20390.6
621.735	20521.67
621.93	20011.73
622.125	20361.93
622.32	19913.42
622.515	19866.32
622.709	19942.1
622.904	19970.77
623.099	19634.9
623.294	19827.41
623.488	19391.19
623.683	19421.91
623.878	19147.48
624.072	19403.48
624.267	19098.33
624.462	19100.38
624.656	18969.31
624.851	18854.62
625.046	18529
625.24	18756.32
625.435	18612.96
625.629	18379.5
625.824	18379.5
626.018	18406.12
626.213	17883.89
626.407	18084.59
626.602	17863.41
626.796	18014.96
626.991	18004.72
627.185	17789.68
627.38	17509.11
627.574	17562.36
627.768	17668.85
627.963	17324.79
628.157	16984.83
628.352	17042.17
628.546	16722.69
628.74	16798.46
628.935	16777.98
629.129	17036.03
629.323	16392.97
629.517	16624.39
629.712	16528.13
629.906	16583.43
630.1	16257.8
630.294	16243.46
630.489	16010
630.683	16100.11
630.877	16085.77
631.071	15944.46
631.265	15932.17
631.459	15678.22
631.653	15393.56
631.848	15909.65
632.042	15467.28
632.236	15790.86
632.43	15483.67
632.624	15452.95
632.818	15162.14
633.012	15096.6
633.206	15133.47
633.4	15112.99
633.594	14992.16
633.788	15002.4
633.982	14961.44
634.176	14609.19
634.369	14326.57
634.563	14594.85
634.757	14388
634.951	14150.44
635.145	14490.4
635.339	14424.87
635.533	14121.77
635.726	13945.64
635.92	13839.15
636.114	14029.61
636.308	13746.99
636.501	13814.57
636.695	13605.68
636.889	13687.6
637.083	13605.68
637.276	13630.26
637.47	13574.96
637.664	13191.99
637.857	13378.36
638.051	13429.56
638.244	13179.7
638.438	13155.13
638.632	13161.27
638.825	12798.78
639.019	12890.94
639.212	12723.01
639.406	12907.32
639.599	12735.29
639.793	12626.75
639.986	12602.18
640.18	12561.22
640.373	12256.07
640.567	12403.52
640.76	12235.59
640.954	12292.93
641.147	12059.46
641.34	11961.16
641.534	12157.77
641.727	12092.23
641.92	11860.81
642.114	11813.71
642.307	11676.49
642.5	11805.52
642.694	11545.42
642.887	11621.2
643.08	11563.86
643.273	11488.08
643.467	11563.86
643.66	11400.02
643.853	11408.21
644.046	11281.24
644.239	10990.42
644.432	11135.83
644.626	11094.87
644.819	10851.16
645.012	11015
645.205	10910.55
645.398	10830.68
645.591	10746.72
645.784	10625.89
645.977	10517.34
646.17	10718.04
646.363	10482.53
646.556	10453.86
646.749	10584.93
646.942	10382.18
647.135	10402.66
647.328	10244.96
647.521	10232.68
647.714	10021.74
647.907	10128.23
648.099	10134.37
648.292	10152.81
648.485	10158.95
648.678	9866.09
648.871	9796.46
649.064	9767.79
649.256	9665.39
649.449	9937.77
649.642	9397.1
649.835	9677.68
650.027	9614.19
650.22	9753.45
650.413	9536.37
650.605	9403.25
650.798	9311.09
650.991	9354.1
651.183	9321.33
651.376	9134.96
651.568	9313.14
651.761	9182.07
651.954	9120.63
652.146	8915.83
652.339	8973.18
652.531	9134.96
652.724	8858.49
652.916	8797.05
653.109	8952.7
653.301	8678.27
653.494	8858.49
653.686	8625.02
653.879	8749.95
654.071	8561.53
654.263	8629.12
654.456	8520.57
654.648	8500.09
654.84	8426.37
655.033	8471.42
655.225	8534.91
655.417	8231.81
655.61	8342.4
655.802	8348.54
655.994	8162.18
656.186	8072.07
656.379	8129.41
656.571	8076.16
656.763	7934.85
656.955	7951.24
657.148	8067.97
657.34	8012.68
657.532	7883.66
657.724	7766.92
657.916	7574.41
658.108	7932.81
658.3	7558.03
658.492	7674.76
658.684	7412.62
658.876	7617.42
659.068	7672.71
659.26	7592.84
659.452	7691.15
659.644	7584.65
659.836	7295.89
660.028	7332.75
660.22	7205.78
660.412	7381.9
660.604	7156.63
660.796	7371.66
660.988	7365.52
661.18	6894.49
661.372	6974.36
661.563	7078.8
661.755	7152.53
661.947	6978.45
662.139	6878.1
662.331	6964.12
662.522	6839.19
662.714	6943.64
662.906	6802.33
663.097	6751.13
663.289	6849.43
663.481	6814.62
663.673	6683.55
663.864	6695.83
664.056	6802.33
664.247	6728.6
664.439	6650.78
664.631	6511.52
664.822	6730.65
665.014	6525.85
665.205	6480.8
665.397	6538.14
665.588	6464.41
665.78	6431.65
665.971	6450.08
666.163	6437.79
666.354	6362.01
666.546	6384.54
666.737	6388.64
666.929	6319.01
667.12	6101.92
667.311	6112.16
667.503	6278.05
667.694	6284.19
667.885	6220.71
668.077	6282.14
668.268	6073.25
668.459	6024.1
668.651	5942.18
668.842	6052.77
669.033	5946.28
669.224	5960.61
669.416	5927.85
669.607	5956.52
669.798	5966.76
669.989	6177.7
670.18	5880.74
670.371	5968.8
670.563	5942.18
670.754	5948.33
670.945	5591.98
671.136	5780.39
671.327	5852.07
671.518	5780.39
671.709	5739.43
671.9	5880.74
672.091	5884.84
672.282	5860.26
672.473	5714.86
672.664	5733.29
672.855	5673.9
673.046	5634.99
673.237	5587.88
673.428	5698.47
673.619	5663.66
673.809	5483.44
674	5555.12
674.191	5489.58
674.382	5565.36
674.573	5473.2
674.764	5587.88
674.954	5667.75
675.145	5624.75
675.336	5501.87
675.527	5393.33
675.717	5428.14
675.908	5368.75
676.099	5569.45
676.289	5489.58
676.48	5489.58
676.671	5424.05
676.861	5352.37
677.052	5362.61
677.243	5352.37
677.433	5303.22
677.624	5514.16
677.814	5360.56
678.005	5460.91
678.195	5432.24
678.386	5393.33
678.576	5198.77
678.767	5352.37
678.957	5452.72
679.148	5505.96
679.338	5413.81
679.529	5415.85
679.719	5168.05
679.909	5256.11
680.1	5127.09
680.29	5262.26
680.481	5135.28
680.671	5327.79
680.861	5258.16
681.052	5315.5
681.242	5196.72
681.432	5252.02
681.622	5241.78
681.813	5340.08
682.003	5399.47
682.193	5174.19
682.383	5247.92
682.573	5243.82
682.764	5223.34
682.954	5188.53
683.144	5315.5
683.334	5249.97
683.524	5213.1
683.714	5194.67
683.904	5227.44
684.094	5139.38
684.284	5235.63
684.474	5231.54
684.664	5100.47
684.854	5290.93
685.044	5190.58
685.234	4989.88
685.424	5118.9
685.614	4981.68
685.804	5166
685.994	5026.74
686.184	5131.19
686.374	5024.69
686.564	5002.16
686.753	4862.9
686.943	4869.05
687.133	5022.64
687.323	4869.05
687.513	4869.05
687.702	4785.08
687.892	4789.17
688.082	4783.03
688.272	4572.09
688.461	4848.57
688.651	4848.57
688.841	4785.08
689.03	4670.39
689.22	4737.98
689.41	4578.23
689.599	4658.1
689.789	4674.49
689.979	4598.71
690.168	4533.18
690.358	4533.18
690.547	4600.76
690.737	4594.62
690.926	4557.75
691.116	4426.68
691.305	4598.71
691.495	4414.4
691.684	4500.41
691.874	4391.87
692.063	4496.32
692.252	4418.49
692.442	4373.44
692.631	4371.39
692.82	4369.34
693.01	4289.47
693.199	4236.22
693.388	4254.66
693.578	4293.57
693.767	4205.5
693.956	4123.59
694.146	4158.4
694.335	4076.48
694.524	4197.31
694.713	4084.67
694.902	4131.78
695.092	4049.86
695.281	4082.63
695.47	4189.12
695.659	4033.47
695.848	4012.99
696.037	4066.24
696.226	4008.9
696.415	4043.71
696.604	4070.34
696.793	3996.61
696.982	4010.95
697.171	4017.09
697.36	3969.99
697.549	3969.99
697.738	3890.12
697.927	3873.73
698.116	3843.01
698.305	3992.52
698.494	3951.56
698.683	3949.51
698.872	3851.21
699.061	3853.25
699.25	3922.88
699.438	3894.21
699.627	3871.68
699.816	3990.47
700.005	3793.86
700.193	3877.83
700.382	3861.45
700.571	3883.97
700.76	3728.33
700.948	3804.1
701.137	3926.98
701.326	3998.66
701.514	3902.4
701.703	3783.62
701.892	3822.53
702.08	3818.44
702.269	3902.4
702.457	3777.48
702.646	3845.06
702.834	3888.07
703.023	3791.81
703.212	3875.78
703.4	3795.91
703.589	3720.14
703.777	3861.45
703.965	3767.24
704.154	3673.03
704.342	3754.95
704.531	3843.01
704.719	3738.57
704.907	3832.77
705.096	3693.51
705.284	3926.98
705.472	3857.35
705.661	3765.19
705.849	3861.45
706.037	3662.79
706.226	3838.92
706.414	3716.04
706.602	3789.77
706.79	3800.01
706.979	3855.3
707.167	3873.73
707.355	3816.39
707.543	3877.83
707.731	3816.39
707.919	3865.54
708.107	3828.68
708.296	3935.17
708.484	3654.6
708.672	3881.92
708.86	3742.66
709.048	3939.27
709.236	3853.25
709.424	3933.12
709.612	3816.39
709.8	3738.57
709.988	3826.63
710.176	3824.58
710.364	3955.65
710.551	3822.53
710.739	3785.67
710.927	3677.13
711.115	3750.85
711.303	3797.96
711.491	3812.29
711.679	3718.09
711.866	3886.02
712.054	3879.88
712.242	3935.17
712.43	3978.18
712.617	3935.17
712.805	4066.24
712.993	3947.46
713.181	3873.73
713.368	3877.83
713.556	3957.7
713.744	3867.59
713.931	4060.1
714.119	3935.17
714.306	3996.61
714.494	3937.22
714.682	3996.61
714.869	3867.59
715.057	3902.4
715.244	3912.64
715.432	3963.84
715.619	3961.8
715.807	3959.75
715.994	4043.71
716.182	4185.02
716.369	4123.59
716.556	4160.45
716.744	4078.53
716.931	3988.42
717.119	4074.43
717.306	4033.47
717.493	4144.06
717.681	3877.83
717.868	3906.5
718.055	4019.14
718.242	3996.61
718.43	4152.26
718.617	3980.23
718.804	4086.72
718.991	4010.95
719.179	3976.13
719.366	4142.02
719.553	3978.18
719.74	3994.56
719.927	4205.5
720.114	4099.01
720.301	4125.63
720.488	4205.5
720.676	3943.36
720.863	4090.82
721.05	4127.68
721.237	4156.35
721.424	4029.38
721.611	4203.46
721.798	4074.43
721.985	4096.96
722.172	4099.01
722.358	4068.29
722.545	4131.78
722.732	4090.82
722.919	4166.59
723.106	4150.21
723.293	4152.26
723.48	4197.31
723.667	4232.13
723.853	4148.16
724.04	4111.3
724.227	4166.59
724.414	4217.79
724.6	4115.39
724.787	4168.64
724.974	4172.74
725.161	4176.83
725.347	4004.8
725.534	4111.3
725.72	4234.18
725.907	4225.98
726.094	4264.89
726.28	4127.68
726.467	4180.93
726.653	4193.22
726.84	4123.59
727.027	4281.28
727.213	4090.82
727.4	4223.94
727.586	4191.17
727.773	4201.41
727.959	4281.28
728.145	4295.61
728.332	4350.91
728.518	4099.01
728.705	4367.29
728.891	4176.83
729.077	4232.13
729.264	4312
729.45	4074.43
729.636	4301.76
729.823	4150.21
730.009	4436.92
730.195	4326.33
730.382	4275.13
730.568	4297.66
730.754	4170.69
730.94	4303.81
731.126	4258.75
731.313	4264.89
731.499	4336.57
731.685	4262.85
731.871	4195.26
732.057	4279.23
732.243	4225.98
732.429	4328.38
732.615	4330.43
732.801	4338.62
732.987	4187.07
733.173	4303.81
733.359	4305.85
733.545	4342.72
733.731	4258.75
733.917	4238.27
734.103	4295.61
734.289	4285.37
734.475	4266.94
734.661	4309.95
734.847	4389.82
735.033	4101.06
735.219	4352.96
735.404	4209.6
735.59	4264.89
735.776	4264.89
735.962	4365.25
736.148	4330.43
736.333	4201.41
736.519	4203.46
736.705	4303.81
736.89	4254.66
737.076	4303.81
737.262	4209.6
737.447	4262.85
737.633	4103.11
737.819	4500.41
738.004	4082.63
738.19	4279.23
738.375	4158.4
738.561	4340.67
738.747	4205.5
738.932	4256.7
739.118	4139.97
739.303	4246.46
739.489	4285.37
739.674	4178.88
739.859	4131.78
740.045	4058.05
740.23	4062.15
740.416	4062.15
740.601	4146.11
740.786	4002.75
740.972	4053.95
741.157	4123.59
741.342	3961.8
741.528	3861.45
741.713	4160.45
741.898	4056
742.084	4033.47
742.269	4115.39
742.454	4037.57
742.639	4027.33
742.824	3826.63
743.01	4041.67
743.195	3953.6
743.38	3883.97
743.565	3931.08
743.75	3912.64
743.935	3863.49
744.12	3922.88
744.305	3722.18
744.49	3832.77
744.675	3859.4
744.86	3724.23
745.045	3834.82
745.23	3787.72
745.415	3703.75
745.6	3816.39
745.785	3662.79
745.97	3603.4
746.155	3699.66
746.34	3822.53
746.525	3656.65
746.71	3636.17
746.895	3634.12
747.079	3462.09
747.264	3664.84
747.449	3582.92
747.634	3517.39
747.819	3484.62
748.003	3447.76
748.188	3505.1
748.373	3455.95
748.557	3410.89
748.742	3361.74
748.927	3396.56
749.111	3308.49
749.296	3251.15
749.481	3331.02
749.665	3306.45
749.85	3259.34
750.034	3257.29
750.219	3269.58
750.404	3257.29
750.588	3115.98
750.773	3150.8
750.957	3115.98
751.141	3105.74
751.326	3148.75
751.51	3042.26
751.695	3019.73
751.879	2984.91
752.064	3044.31
752.248	3054.55
752.432	3083.22
752.617	2984.91
752.801	3001.3
752.985	2927.57
753.17	2941.91
753.354	2874.32
753.538	3066.83
753.722	2722.77
753.907	2677.72
754.091	2780.12
754.275	2702.29
754.459	2677.72
754.643	2630.62
754.828	2665.43
755.012	2683.86
755.196	2595.8
755.38	2716.63
755.564	2593.75
755.748	2544.6
755.932	2716.63
756.116	2649.05
756.3	2517.98
756.484	2563.03
756.668	2542.55
756.852	2477.02
757.036	2411.48
757.22	2427.87
757.404	2495.45
757.588	2481.11
757.772	2495.45
757.956	2370.52
758.14	2442.2
758.323	2378.72
758.507	2358.24
758.691	2348
758.875	2366.43
759.059	2276.32
759.242	2253.79
759.426	2362.33
759.61	2261.98
759.794	2270.17
759.977	2362.33
760.161	2212.83
760.345	2313.18
760.528	2044.9
760.712	2180.06
760.895	2216.93
761.079	2124.77
761.263	2165.73
761.446	2124.77
761.63	2055.14
761.813	2149.34
761.997	2053.09
762.18	2085.86
762.364	2114.53
762.547	2022.37
762.731	2075.62
762.914	1995.75
763.098	2014.18
763.281	1977.31
763.464	2096.1
763.648	1997.79
763.831	1977.31
764.015	2040.8
764.198	1983.46
764.381	1903.59
764.564	1924.07
764.748	1958.88
764.931	1936.35
765.114	2028.51
765.297	1928.16
765.481	1881.06
765.664	1854.44
765.847	1889.25
766.03	2008.03
766.213	1819.62
766.397	1858.53
766.58	1833.96
766.763	1856.48
766.946	1784.8
767.129	1799.14
767.312	1793
767.495	1805.28
767.678	1772.52
767.861	1793
768.044	1772.52
768.227	1696.74
768.41	1782.76
768.593	1772.52
768.776	1700.84
768.959	1674.21
769.142	1715.17
769.324	1688.55
769.507	1786.85
769.69	1686.5
769.873	1709.03
770.056	1756.13
770.239	1672.17
770.421	1838.05
770.604	1717.22
770.787	1700.84
770.97	1526.76
771.152	1504.23
771.335	1547.24
771.518	1584.1
771.7	1653.73
771.883	1612.78
772.066	1493.99
772.248	1580.01
772.431	1588.2
772.613	1541.1
772.796	1461.23
772.978	1534.95
773.161	1668.07
773.343	1469.42
773.526	1373.16
773.708	1496.04
773.891	1389.55
774.073	1457.13
774.256	1534.95
774.438	1489.9
774.621	1455.08
774.803	1506.28
774.985	1381.35
775.168	1416.17
775.35	1403.88
775.532	1416.17
775.715	1324.01
775.897	1248.24
776.079	1297.39
776.261	1348.59
776.444	1321.96
776.626	1309.68
776.808	1274.86
776.99	1201.13
777.173	1287.15
777.355	1301.48
777.537	1262.57
777.719	1264.62
777.901	1276.91
778.083	1203.18
778.265	1194.99
778.447	1211.37
778.629	1151.98
778.811	1205.23
778.993	1209.33
779.175	1225.71
779.357	1190.89
779.539	1074.16
779.721	1149.93
779.903	1168.37
780.085	1100.78
780.267	1063.92
780.449	1063.92
780.631	1057.78
780.812	1043.44
780.994	1053.68
781.176	1063.92
781.358	1121.26
781.54	990.19
781.721	1082.35
781.903	1002.48
782.085	1012.72
782.267	959.47
782.448	904.18
782.63	963.57
782.812	920.56
782.993	988.14
783.175	1008.62
783.357	938.99
783.538	951.28
783.72	920.56
783.901	996.34
784.083	871.41
784.264	902.13
784.446	924.66
784.627	914.42
784.809	883.7
784.99	830.45
785.172	924.66
785.353	855.03
785.535	830.45
785.716	842.74
785.897	879.6
786.079	879.6
786.26	764.92
786.441	828.4
786.623	781.3
786.804	848.88
786.985	877.55
787.167	834.55
787.348	773.11
787.529	855.03
787.71	799.73
787.891	795.64
788.073	758.77
788.254	736.24
788.435	842.74
788.616	783.35
788.797	736.24
788.978	752.63
789.159	633.85
789.34	738.29
789.522	789.49
789.703	701.43
789.884	715.77
790.065	683
790.246	746.48
790.427	685.05
790.607	609.27
790.788	683
790.969	609.27
791.15	691.19
791.331	660.47
791.512	644.09
791.693	566.26
791.874	711.67
792.054	719.86
792.235	646.13
792.416	515.06
792.597	576.5
792.778	584.7
792.958	625.65
793.139	621.56
793.32	547.83
793.5	578.55
793.681	664.57
793.862	639.99
794.042	617.46
794.223	535.54
794.404	629.75
794.584	513.02
794.765	596.98
794.945	545.78
795.126	482.3
795.306	572.41
795.487	494.58
795.667	603.13
795.848	560.12
796.028	502.78
796.209	611.32
796.389	611.32
796.57	488.44
796.75	527.35
796.93	500.73
797.111	453.63
797.291	556.02
797.471	590.84
797.652	449.53
797.832	488.44
798.012	519.16
798.192	490.49
798.373	422.91
798.553	457.72
798.733	470.01
798.913	478.2
799.093	502.78
799.274	525.3
799.454	502.78
799.634	451.58
799.814	502.78
799.994	431.1
800.174	459.77
800.354	549.88
800.534	439.29
800.714	498.68
800.894	465.91
801.074	402.43
801.254	412.67
801.434	447.48
801.614	484.34
801.794	445.43
801.974	1319.92
802.154	316.41
802.334	431.1
802.514	371.71
802.693	400.38
802.873	359.42
803.053	486.39
803.233	478.2
803.413	351.23
803.592	345.08
803.772	429.05
803.952	386.04
804.131	390.14
804.311	427
804.491	445.43
804.67	297.98
804.85	373.75
805.03	396.28
805.209	435.19
805.389	381.95
805.568	379.9
805.748	361.47
805.928	359.42
806.107	435.19
806.287	357.37
806.466	355.32
806.646	437.24
806.825	383.99
807.004	275.45
807.184	314.36
807.363	420.86
807.543	402.43
807.722	261.12
807.901	330.75
808.081	381.95
808.26	265.21
808.439	300.03
808.619	379.9
808.798	330.75
808.977	293.88
809.156	369.66
809.336	363.51
809.515	383.99
809.694	343.03
809.873	250.88
810.052	373.75
810.231	424.95
810.411	293.88
810.59	398.33
810.769	396.28
810.948	420.86
811.127	195.58
811.306	273.4
811.485	277.5
811.664	328.7
811.843	345.08
812.022	322.56
812.201	281.6
812.38	396.28
812.559	371.71
812.737	261.12
812.916	232.44
813.095	310.27
813.274	322.56
813.453	236.54
813.632	308.22
813.811	322.56
813.989	281.6
814.168	261.12
814.347	287.74
814.526	244.73
814.704	326.65
814.883	261.12
815.062	283.64
815.24	365.56
815.419	173.05
815.598	283.64
815.776	171.01
815.955	248.83
816.133	230.4
816.312	316.41
816.49	271.36
816.669	275.45
816.847	226.3
817.026	248.83
817.204	203.77
817.383	324.6
817.561	238.59
817.74	209.92
817.918	216.06
818.097	236.54
818.275	228.35
818.453	312.32
818.632	326.65
818.81	207.87
818.988	230.4
819.167	214.01
819.345	197.63
819.523	191.49
819.701	224.25
819.879	238.59
820.058	214.01
820.236	238.59
820.414	199.68
820.592	203.77
820.77	257.02
820.948	263.16
821.127	111.61
821.305	234.49
821.483	142.33
821.661	201.72
821.839	244.73
822.017	199.68
822.195	125.95
822.373	248.83
822.551	103.42
822.729	201.72
822.907	168.96
823.085	263.16
823.262	246.78
823.44	207.87
823.618	193.53
823.796	150.53
823.974	259.07
824.152	201.72
824.329	128
824.507	175.1
824.685	211.96
824.863	269.31
825.04	187.39
825.218	197.63
825.396	150.53
825.574	179.2
825.751	156.67
825.929	297.98
826.107	150.53
826.284	128
826.462	158.72
826.639	203.77
826.817	175.1
826.994	193.53
827.172	160.77
827.349	197.63
827.527	259.07
827.704	183.29
827.882	173.05
828.059	136.19
828.237	168.96
828.414	226.3
828.591	56.32
828.769	162.81
828.946	125.95
829.124	293.88
829.301	216.06
829.478	113.66
829.655	138.24
829.833	187.39
830.01	138.24
830.187	175.1
830.364	121.85
830.542	216.06
830.719	244.73
830.896	203.77
831.073	181.25
831.25	136.19
831.427	123.9
831.604	171.01
831.782	160.77
831.959	162.81
832.136	199.68
832.313	187.39
832.49	82.94
832.667	84.99
832.844	101.37
833.021	195.58
833.198	113.66
833.374	70.65
833.551	84.99
833.728	70.65
833.905	199.68
834.082	44.03
834.259	195.58
834.436	166.91
834.612	121.85
834.789	84.99
834.966	148.48
835.143	132.09
835.319	41.98
835.496	183.29
835.673	148.48
835.85	164.86
836.026	146.43
836.203	130.05
836.38	160.77
836.556	138.24
836.733	121.85
836.909	199.68
837.086	76.8
837.262	60.42
837.439	144.38
837.616	95.23
837.792	68.61
837.968	91.13
838.145	37.89
838.321	134.14
838.498	64.51
838.674	150.53
838.851	56.32
839.027	44.03
839.203	146.43
839.38	123.9
839.556	78.85
839.732	152.57
839.909	48.13
840.085	121.85
840.261	68.61
840.437	121.85
840.614	103.42
840.79	140.29
840.966	99.33
841.142	97.28
841.318	125.95
841.494	101.37
841.671	156.67
841.847	35.84
842.023	64.51
842.199	111.61
842.375	103.42
842.551	76.8
842.727	62.46
842.903	146.43
843.079	21.5
843.255	177.15
843.431	101.37
843.607	89.09
843.783	-7.17
843.959	164.86
844.134	56.32
844.31	144.38
844.486	60.42
844.662	-3.07
844.838	125.95
845.013	93.18
845.189	136.19
845.365	166.91
845.541	-41.98
845.716	142.33
845.892	150.53
846.068	19.46
846.244	80.89
846.419	78.85
846.595	31.74
846.77	41.98
846.946	66.56
847.122	60.42
847.297	25.6
847.473	164.86
847.648	46.08
847.824	68.61
847.999	-29.7
848.175	5.12
848.35	105.47
848.526	119.81
848.701	89.09
848.876	152.57
849.052	97.28
849.227	97.28
849.403	107.52
849.578	97.28
849.753	54.27
849.929	134.14
850.104	-97.28
850.279	132.09
850.454	76.8
850.63	142.33
850.805	35.84
850.98	105.47
851.155	29.7
851.33	103.42
851.505	50.18
851.681	113.66
851.856	31.74
852.031	56.32
852.206	80.89
852.381	27.65
852.556	21.5
852.731	31.74
852.906	97.28
853.081	58.37
853.256	1.02
853.431	93.18
853.606	103.42
853.781	-46.08
853.956	13.31
854.131	44.03
854.305	72.7
854.48	41.98
854.655	33.79
854.83	37.89
855.005	-1.02
855.18	80.89
855.354	-1.02
855.529	121.85
855.704	84.99
855.879	72.7
856.053	54.27
856.228	58.37
856.403	-33.79
856.577	72.7
856.752	62.46
856.926	60.42
857.101	-7.17
857.276	23.55
857.45	103.42
857.625	76.8
857.799	72.7
857.974	60.42
858.148	15.36
858.323	52.22
858.497	58.37
858.672	44.03
858.846	3.07
859.02	80.89
859.195	66.56
859.369	62.46
859.543	54.27
859.718	193.53
859.892	-11.26
860.066	19.46
860.241	37.89
860.415	9.22
860.589	60.42
860.763	5.12
860.938	44.03
861.112	66.56
861.286	80.89
861.46	21.5
861.634	-17.41
861.808	50.18
861.982	1.02
862.157	101.37
862.331	19.46
862.505	15.36
862.679	-13.31
862.853	11.26
863.027	97.28
863.201	113.66
863.375	21.5
863.549	17.41
863.722	41.98
863.896	82.94
864.07	-19.46
864.244	35.84
864.418	103.42
864.592	76.8
864.766	-58.37
864.939	72.7
865.113	27.65
865.287	54.27
865.461	39.94
865.634	62.46
865.808	-46.08
865.982	27.65
866.156	-3.07
866.329	60.42
866.503	101.37
866.676	46.08
866.85	46.08
867.024	21.5
867.197	48.13
867.371	37.89
867.544	78.85
867.718	-46.08
867.891	72.7
868.065	-15.36
868.238	-3.07
868.412	33.79
868.585	-11.26
868.759	-9.22
868.932	-15.36
869.105	5.12
869.279	35.84
869.452	-17.41
869.625	39.94
869.799	46.08
869.972	13.31
870.145	52.22
870.319	60.42
870.492	50.18
870.665	-13.31
870.838	87.04
871.011	5.12
871.185	-3.07
871.358	-29.7
871.531	-33.79
871.704	21.5
871.877	52.22
872.05	-35.84
872.223	54.27
872.396	44.03
872.569	66.56
872.742	13.31
872.915	13.31
873.088	-3.07
873.261	33.79
873.434	-1.02
873.607	-62.46
873.78	37.89
873.953	-44.03
874.126	-23.55
874.299	132.09
874.471	-5.12
874.644	-5.12
874.817	76.8
874.99	91.13
875.163	1.02
875.335	74.75
875.508	-29.7
875.681	154.62
875.853	-13.31
876.026	7.17
876.199	31.74
876.371	1.02
876.544	-29.7
876.717	37.89
876.889	37.89
877.062	29.7
877.234	21.5
877.407	3.07
877.579	136.19
877.752	-74.75
877.924	125.95
878.097	23.55
878.269	-9.22
878.442	64.51
878.614	62.46
878.786	93.18
878.959	-39.94
879.131	46.08
879.303	1.02
879.476	29.7
879.648	21.5
879.82	56.32
879.993	-27.65
880.165	56.32
880.337	5.12
880.509	41.98
880.681	-15.36
880.854	-13.31
881.026	46.08
881.198	111.61
881.37	-21.5
881.542	70.65
881.714	23.55
881.886	23.55
882.058	-1.02
882.23	44.03
882.402	46.08
882.574	-11.26
882.746	35.84
882.918	11.26
883.09	27.65
883.262	48.13
883.434	82.94
883.606	44.03
883.778	-31.74
883.95	62.46
884.122	23.55
884.293	130.05
884.465	13.31
884.637	68.61
884.809	27.65
884.98	76.8
885.152	31.74
885.324	84.99
885.496	-13.31
885.667	60.42
885.839	11.26
886.011	72.7
886.182	35.84
886.354	95.23
886.525	-21.5
886.697	29.7
886.869	13.31
887.04	62.46
887.212	46.08
887.383	121.85
887.555	56.32
887.726	46.08
887.897	11.26
888.069	23.55
888.24	23.55
888.412	103.42
888.583	31.74
888.754	-27.65
888.926	-44.03
889.097	-5.12
889.268	-17.41
889.44	-29.7
889.611	-25.6
889.782	3.07
889.953	-60.42
890.125	97.28
890.296	-29.7
890.467	74.75
890.638	-41.98
890.809	-9.22
890.98	-15.36
891.151	58.37
891.323	97.28
891.494	35.84
891.665	48.13
891.836	27.65
892.007	11.26
892.178	15.36
892.349	21.5
892.52	-15.36
892.691	-35.84
892.862	-9.22
893.032	-107.52
893.203	-17.41
893.374	-13.31
893.545	1.02
893.716	76.8
893.887	31.74
894.057	19.46
894.228	15.36
894.399	-58.37
894.57	-5.12
894.74	-35.84
894.911	44.03
895.082	1.02
895.253	-9.22
895.423	17.41
895.594	29.7
895.764	37.89
895.935	-39.94
896.106	-21.5
896.276	89.09
896.447	-25.6
896.617	-3.07
896.788	-15.36
896.958	-58.37
897.129	19.46
897.299	3.07
897.47	64.51
897.64	64.51
897.81	41.98
897.981	95.23
898.151	-17.41
898.322	60.42
898.492	80.89
898.662	-1.02
898.832	-11.26
899.003	29.7
899.173	15.36
899.343	-7.17
899.513	-15.36
