Data from USB4F104151__75__13-06-02-800.txt Node

Date: Fri Mar 14 13:06:02 EDT 2025
User: louis
Spectrometer: USB4F10415
Trigger mode: 4
Integration Time (sec): 4.000000E-2
Scans to average: 1
Electric dark correction enabled: true
Nonlinearity correction enabled: false
Boxcar width: 0
XAxis mode: Wavelengths
Number of Pixels in Spectrum: 3648
>>>>>Begin Spectral Data<<<<<
178.204	-150.01
178.424	-150.01
178.644	-150.01
178.864	-256.51
179.084	-207.36
179.304	11.78
179.524	-10.75
179.744	-51.71
179.964	-8.7
180.184	1.54
180.404	69.12
180.624	-10.75
180.844	-10.75
181.064	-27.14
181.283	15.87
181.503	-51.71
181.723	73.21
181.943	-4.61
182.163	97.79
182.383	-29.18
182.602	46.59
182.822	-33.28
183.042	7.68
183.262	-66.05
183.482	-6.66
183.701	-4.61
183.921	97.79
184.141	-14.85
184.361	50.69
184.58	56.83
184.8	58.88
185.02	40.45
185.239	130.56
185.459	15.87
185.679	60.93
185.898	-100.86
186.118	7.68
186.338	99.84
186.557	30.21
186.777	24.06
186.997	-14.85
187.216	17.92
187.436	146.94
187.655	101.89
187.875	97.79
188.095	19.97
188.314	58.88
188.534	60.93
188.753	11.78
188.973	151.04
189.192	44.54
189.412	65.02
189.631	60.93
189.851	7.68
190.07	60.93
190.29	26.11
190.509	44.54
190.729	52.74
190.948	58.88
191.168	130.56
191.387	77.31
191.607	34.3
191.826	75.26
192.045	28.16
192.265	46.59
192.484	50.69
192.704	5.63
192.923	-47.62
193.142	101.89
193.362	56.83
193.581	93.69
193.8	112.13
194.02	128.51
194.239	17.92
194.458	-10.75
194.678	32.26
194.897	-20.99
195.116	73.21
195.335	11.78
195.555	11.78
195.774	46.59
195.993	58.88
196.212	38.4
196.432	79.36
196.651	46.59
196.87	30.21
197.089	91.65
197.308	36.35
197.528	19.97
197.747	48.64
197.966	60.93
198.185	48.64
198.404	44.54
198.623	60.93
198.842	69.12
199.062	118.27
199.281	75.26
199.5	65.02
199.719	-0.51
199.938	34.3
200.157	120.32
200.376	34.3
200.595	71.17
200.814	48.64
201.033	34.3
201.252	79.36
201.471	50.69
201.69	85.5
201.909	89.6
202.128	-14.85
202.347	13.82
202.566	46.59
202.785	-61.95
203.004	65.02
203.223	153.09
203.442	1.54
203.661	-10.75
203.879	99.84
204.098	67.07
204.317	1.54
204.536	52.74
204.755	128.51
204.974	38.4
205.193	67.07
205.411	75.26
205.63	65.02
205.849	95.74
206.068	99.84
206.287	24.06
206.505	142.85
206.724	42.5
206.943	44.54
207.162	79.36
207.381	50.69
207.599	11.78
207.818	17.92
208.037	17.92
208.255	79.36
208.474	30.21
208.693	48.64
208.911	-43.52
209.13	44.54
209.349	81.41
209.567	22.02
209.786	65.02
210.005	34.3
210.223	17.92
210.442	-10.75
210.661	95.74
210.879	13.82
211.098	24.06
211.316	81.41
211.535	101.89
211.753	15.87
211.972	42.5
212.191	-84.48
212.409	7.68
212.628	91.65
212.846	-4.61
213.065	38.4
213.283	110.08
213.502	120.32
213.72	38.4
213.938	83.45
214.157	122.37
214.375	79.36
214.594	-29.18
214.812	-16.9
215.031	97.79
215.249	-39.42
215.467	95.74
215.686	-20.99
215.904	126.46
216.122	67.07
216.341	142.85
216.559	65.02
216.778	134.65
216.996	181.76
217.214	-25.09
217.432	-4.61
217.651	-10.75
217.869	42.5
218.087	-14.85
218.306	38.4
218.524	85.5
218.742	17.92
218.96	79.36
219.179	56.83
219.397	34.3
219.615	65.02
219.833	110.08
220.051	-8.7
220.27	118.27
220.488	69.12
220.706	42.5
220.924	32.26
221.142	42.5
221.36	-4.61
221.578	93.69
221.796	13.82
222.015	48.64
222.233	17.92
222.451	171.52
222.669	-84.48
222.887	110.08
223.105	44.54
223.323	44.54
223.541	19.97
223.759	50.69
223.977	40.45
224.195	50.69
224.413	108.03
224.631	54.78
224.849	52.74
225.067	99.84
225.285	-23.04
225.503	50.69
225.721	32.26
225.939	62.98
226.157	140.8
226.375	73.21
226.592	-12.8
226.81	108.03
227.028	101.89
227.246	136.7
227.464	40.45
227.682	81.41
227.9	52.74
228.117	87.55
228.335	-0.51
228.553	17.92
228.771	40.45
228.989	19.97
229.206	71.17
229.424	1.54
229.642	-12.8
229.86	85.5
230.077	87.55
230.295	48.64
230.513	17.92
230.731	46.59
230.948	167.42
231.166	97.79
231.384	22.02
231.601	36.35
231.819	146.94
232.037	36.35
232.254	118.27
232.472	48.64
232.689	-0.51
232.907	48.64
233.125	19.97
233.342	-14.85
233.56	22.02
233.777	-20.99
233.995	52.74
234.213	103.93
234.43	67.07
234.648	105.98
234.865	46.59
235.083	-4.61
235.3	7.68
235.518	134.65
235.735	130.56
235.953	87.55
236.17	13.82
236.388	44.54
236.605	48.64
236.822	87.55
237.04	60.93
237.257	30.21
237.475	22.02
237.692	30.21
237.909	73.21
238.127	126.46
238.344	7.68
238.562	46.59
238.779	-33.28
238.996	15.87
239.214	46.59
239.431	105.98
239.648	3.58
239.865	38.4
240.083	30.21
240.3	-0.51
240.517	32.26
240.735	22.02
240.952	101.89
241.169	142.85
241.386	60.93
241.603	28.16
241.821	50.69
242.038	36.35
242.255	108.03
242.472	22.02
242.689	65.02
242.907	46.59
243.124	108.03
243.341	11.78
243.558	5.63
243.775	-45.57
243.992	1.54
244.209	134.65
244.426	46.59
244.643	71.17
244.86	28.16
245.078	7.68
245.295	75.26
245.512	85.5
245.729	7.68
245.946	28.16
246.163	56.83
246.38	77.31
246.597	13.82
246.814	54.78
247.031	44.54
247.248	44.54
247.464	42.5
247.681	65.02
247.898	60.93
248.115	38.4
248.332	5.63
248.549	112.13
248.766	99.84
248.983	52.74
249.2	34.3
249.417	42.5
249.633	-10.75
249.85	65.02
250.067	97.79
250.284	1.54
250.501	69.12
250.717	177.66
250.934	-43.52
251.151	56.83
251.368	103.93
251.585	140.8
251.801	32.26
252.018	99.84
252.235	79.36
252.451	83.45
252.668	-31.23
252.885	54.78
253.102	60.93
253.318	62.98
253.535	11.78
253.752	-49.66
253.968	77.31
254.185	15.87
254.401	26.11
254.618	46.59
254.835	5.63
255.051	114.17
255.268	77.31
255.484	42.5
255.701	48.64
255.917	97.79
256.134	32.26
256.351	81.41
256.567	65.02
256.784	89.6
257	56.83
257.217	-6.66
257.433	60.93
257.65	40.45
257.866	87.55
258.082	-18.94
258.299	-35.33
258.515	77.31
258.732	-12.8
258.948	-39.42
259.165	44.54
259.381	11.78
259.597	32.26
259.814	46.59
260.03	7.68
260.246	24.06
260.463	81.41
260.679	22.02
260.895	69.12
261.112	13.82
261.328	48.64
261.544	5.63
261.761	157.18
261.977	-4.61
262.193	-27.14
262.409	58.88
262.626	38.4
262.842	77.31
263.058	11.78
263.274	108.03
263.49	83.45
263.707	69.12
263.923	-0.51
264.139	-41.47
264.355	79.36
264.571	116.22
264.787	85.5
265.004	134.65
265.22	-25.09
265.436	30.21
265.652	9.73
265.868	71.17
266.084	24.06
266.3	91.65
266.516	83.45
266.732	52.74
266.948	48.64
267.164	69.12
267.38	101.89
267.596	40.45
267.812	124.41
268.028	85.5
268.244	-18.94
268.46	81.41
268.676	15.87
268.892	85.5
269.108	44.54
269.324	-86.53
269.54	-18.94
269.756	101.89
269.972	9.73
270.188	36.35
270.403	-8.7
270.619	34.3
270.835	91.65
271.051	28.16
271.267	-98.81
271.483	75.26
271.698	32.26
271.914	79.36
272.13	42.5
272.346	108.03
272.562	32.26
272.777	112.13
272.993	40.45
273.209	9.73
273.425	-2.56
273.64	7.68
273.856	79.36
274.072	110.08
274.287	7.68
274.503	54.78
274.719	-2.56
274.934	40.45
275.15	-12.8
275.366	50.69
275.581	-78.33
275.797	67.07
276.012	13.82
276.228	95.74
276.444	-37.38
276.659	134.65
276.875	28.16
277.09	95.74
277.306	52.74
277.521	101.89
277.737	54.78
277.952	93.69
278.168	142.85
278.383	32.26
278.599	32.26
278.814	95.74
279.03	46.59
279.245	85.5
279.461	42.5
279.676	93.69
279.892	-12.8
280.107	38.4
280.322	-8.7
280.538	24.06
280.753	-16.9
280.969	-14.85
281.184	52.74
281.399	148.99
281.615	13.82
281.83	36.35
282.045	-31.23
282.26	17.92
282.476	58.88
282.691	142.85
282.906	103.93
283.122	67.07
283.337	67.07
283.552	-16.9
283.767	-12.8
283.983	67.07
284.198	62.98
284.413	54.78
284.628	67.07
284.843	38.4
285.058	85.5
285.274	108.03
285.489	52.74
285.704	69.12
285.919	15.87
286.134	60.93
286.349	60.93
286.564	56.83
286.779	91.65
286.995	77.31
287.21	-41.47
287.425	22.02
287.64	11.78
287.855	30.21
288.07	-12.8
288.285	-4.61
288.5	36.35
288.715	62.98
288.93	1.54
289.145	52.74
289.36	93.69
289.575	11.78
289.79	85.5
290.004	17.92
290.219	44.54
290.434	38.4
290.649	36.35
290.864	65.02
291.079	13.82
291.294	62.98
291.509	50.69
291.724	38.4
291.938	85.5
292.153	79.36
292.368	9.73
292.583	85.5
292.798	40.45
293.012	32.26
293.227	1.54
293.442	73.21
293.657	52.74
293.871	93.69
294.086	-53.76
294.301	151.04
294.516	77.31
294.73	77.31
294.945	65.02
295.16	-6.66
295.374	40.45
295.589	118.27
295.804	1.54
296.018	40.45
296.233	169.47
296.447	11.78
296.662	40.45
296.877	19.97
297.091	69.12
297.306	73.21
297.52	3.58
297.735	15.87
297.949	34.3
298.164	75.26
298.378	54.78
298.593	5.63
298.807	9.73
299.022	-4.61
299.236	-18.94
299.451	60.93
299.665	22.02
299.88	38.4
300.094	52.74
300.309	130.56
300.523	77.31
300.737	54.78
300.952	26.11
301.166	44.54
301.381	40.45
301.595	60.93
301.809	1.54
302.024	69.12
302.238	52.74
302.452	136.7
302.667	40.45
302.881	110.08
303.095	108.03
303.309	81.41
303.524	22.02
303.738	28.16
303.952	-20.99
304.166	71.17
304.381	40.45
304.595	71.17
304.809	69.12
305.023	87.55
305.237	69.12
305.452	-16.9
305.666	110.08
305.88	36.35
306.094	105.98
306.308	77.31
306.522	99.84
306.736	60.93
306.95	40.45
307.164	151.04
307.379	3.58
307.593	48.64
307.807	144.89
308.021	97.79
308.235	-4.61
308.449	46.59
308.663	50.69
308.877	153.09
309.091	46.59
309.305	69.12
309.519	5.63
309.733	118.27
309.947	11.78
310.161	75.26
310.374	26.11
310.588	187.9
310.802	30.21
311.016	30.21
311.23	101.89
311.444	40.45
311.658	19.97
311.872	38.4
312.085	136.7
312.299	108.03
312.513	93.69
312.727	79.36
312.941	19.97
313.154	93.69
313.368	83.45
313.582	56.83
313.796	7.68
314.009	34.3
314.223	3.58
314.437	69.12
314.651	7.68
314.864	5.63
315.078	73.21
315.292	-6.66
315.505	34.3
315.719	-2.56
315.933	32.26
316.146	17.92
316.36	9.73
316.573	167.42
316.787	30.21
317.001	-0.51
317.214	32.26
317.428	79.36
317.641	-55.81
317.855	-2.56
318.068	-0.51
318.282	28.16
318.495	89.6
318.709	38.4
318.922	13.82
319.136	56.83
319.349	151.04
319.563	71.17
319.776	105.98
319.99	-43.52
320.203	30.21
320.417	36.35
320.63	48.64
320.843	144.89
321.057	99.84
321.27	101.89
321.483	-12.8
321.697	95.74
321.91	65.02
322.124	85.5
322.337	52.74
322.55	34.3
322.763	118.27
322.977	17.92
323.19	30.21
323.403	105.98
323.617	17.92
323.83	52.74
324.043	28.16
324.256	-18.94
324.469	91.65
324.683	81.41
324.896	71.17
325.109	60.93
325.322	97.79
325.535	93.69
325.748	118.27
325.962	32.26
326.175	-27.14
326.388	50.69
326.601	87.55
326.814	110.08
327.027	91.65
327.24	79.36
327.453	-18.94
327.666	36.35
327.879	81.41
328.092	85.5
328.305	95.74
328.518	79.36
328.731	105.98
328.944	62.98
329.157	7.68
329.37	24.06
329.583	108.03
329.796	95.74
330.009	46.59
330.222	144.89
330.435	83.45
330.648	62.98
330.861	85.5
331.073	36.35
331.286	146.94
331.499	87.55
331.712	-16.9
331.925	-0.51
332.138	140.8
332.35	138.75
332.563	-27.14
332.776	87.55
332.989	44.54
333.202	3.58
333.414	34.3
333.627	83.45
333.84	77.31
334.053	112.13
334.265	22.02
334.478	28.16
334.691	46.59
334.903	144.89
335.116	15.87
335.329	19.97
335.541	50.69
335.754	194.05
335.966	1.54
336.179	95.74
336.392	40.45
336.604	62.98
336.817	24.06
337.029	138.75
337.242	34.3
337.454	36.35
337.667	93.69
337.88	116.22
338.092	48.64
338.305	105.98
338.517	46.59
338.729	44.54
338.942	124.41
339.154	81.41
339.367	11.78
339.579	22.02
339.792	26.11
340.004	50.69
340.217	85.5
340.429	58.88
340.641	1.54
340.854	5.63
341.066	62.98
341.278	116.22
341.491	85.5
341.703	38.4
341.915	7.68
342.128	71.17
342.34	126.46
342.552	11.78
342.764	60.93
342.977	11.78
343.189	65.02
343.401	71.17
343.613	-16.9
343.826	26.11
344.038	58.88
344.25	101.89
344.462	19.97
344.674	44.54
344.886	11.78
345.099	26.11
345.311	126.46
345.523	85.5
345.735	65.02
345.947	-2.56
346.159	81.41
346.371	89.6
346.583	48.64
346.795	177.66
347.007	22.02
347.219	101.89
347.431	62.98
347.643	134.65
347.855	46.59
348.067	116.22
348.279	-43.52
348.491	87.55
348.703	28.16
348.915	32.26
349.127	-2.56
349.339	46.59
349.551	44.54
349.763	151.04
349.975	40.45
350.187	93.69
350.399	89.6
350.61	58.88
350.822	77.31
351.034	30.21
351.246	38.4
351.458	81.41
351.669	44.54
351.881	36.35
352.093	75.26
352.305	50.69
352.517	69.12
352.728	142.85
352.94	22.02
353.152	79.36
353.363	87.55
353.575	120.32
353.787	116.22
353.999	7.68
354.21	165.37
354.422	60.93
354.633	22.02
354.845	118.27
355.057	48.64
355.268	48.64
355.48	75.26
355.692	-12.8
355.903	13.82
356.115	11.78
356.326	-12.8
356.538	81.41
356.749	155.13
356.961	146.94
357.172	60.93
357.384	54.78
357.595	89.6
357.807	85.5
358.018	11.78
358.23	159.23
358.441	169.47
358.653	97.79
358.864	75.26
359.075	-12.8
359.287	24.06
359.498	62.98
359.709	93.69
359.921	28.16
360.132	89.6
360.344	11.78
360.555	116.22
360.766	67.07
360.977	103.93
361.189	151.04
361.4	28.16
361.611	118.27
361.823	65.02
362.034	132.61
362.245	-35.33
362.456	28.16
362.667	142.85
362.879	81.41
363.09	38.4
363.301	26.11
363.512	-0.51
363.723	79.36
363.935	13.82
364.146	85.5
364.357	1.54
364.568	83.45
364.779	15.87
364.99	140.8
365.201	36.35
365.412	146.94
365.623	46.59
365.834	40.45
366.045	46.59
366.256	208.38
366.467	77.31
366.678	87.55
366.889	85.5
367.1	52.74
367.311	136.7
367.522	44.54
367.733	122.37
367.944	144.89
368.155	52.74
368.366	52.74
368.577	79.36
368.788	138.75
368.999	38.4
369.209	122.37
369.42	136.7
369.631	202.24
369.842	124.41
370.053	30.21
370.264	140.8
370.474	52.74
370.685	50.69
370.896	105.98
371.107	130.56
371.317	95.74
371.528	19.97
371.739	192
371.95	65.02
372.16	118.27
372.371	56.83
372.582	58.88
372.792	112.13
373.003	85.5
373.214	75.26
373.424	89.6
373.635	46.59
373.846	89.6
374.056	46.59
374.267	130.56
374.477	62.98
374.688	105.98
374.898	81.41
375.109	32.26
375.319	89.6
375.53	81.41
375.74	144.89
375.951	87.55
376.161	93.69
376.372	114.17
376.582	42.5
376.793	110.08
377.003	83.45
377.214	56.83
377.424	71.17
377.635	50.69
377.845	30.21
378.055	118.27
378.266	38.4
378.476	7.68
378.686	77.31
378.897	28.16
379.107	169.47
379.317	116.22
379.528	73.21
379.738	118.27
379.948	34.3
380.158	69.12
380.369	108.03
380.579	118.27
380.789	38.4
380.999	132.61
381.21	79.36
381.42	136.7
381.63	75.26
381.84	101.89
382.05	126.46
382.261	134.65
382.471	87.55
382.681	124.41
382.891	60.93
383.101	67.07
383.311	3.58
383.521	95.74
383.731	54.78
383.941	122.37
384.151	79.36
384.361	67.07
384.571	103.93
384.781	28.16
384.991	155.13
385.201	105.98
385.411	103.93
385.621	77.31
385.831	26.11
386.041	95.74
386.251	138.75
386.461	171.52
386.671	46.59
386.881	142.85
387.091	5.63
387.301	46.59
387.511	163.33
387.72	91.65
387.93	105.98
388.14	-45.57
388.35	32.26
388.56	120.32
388.769	97.79
388.979	116.22
389.189	69.12
389.399	30.21
389.609	198.14
389.818	77.31
390.028	142.85
390.238	62.98
390.447	11.78
390.657	130.56
390.867	105.98
391.076	62.98
391.286	136.7
391.496	132.61
391.705	132.61
391.915	69.12
392.125	175.61
392.334	56.83
392.544	110.08
392.753	42.5
392.963	65.02
393.172	112.13
393.382	38.4
393.591	157.18
393.801	97.79
394.01	140.8
394.22	120.32
394.429	46.59
394.639	32.26
394.848	165.37
395.058	101.89
395.267	95.74
395.477	110.08
395.686	103.93
395.895	101.89
396.105	235
396.314	126.46
396.524	112.13
396.733	79.36
396.942	146.94
397.152	126.46
397.361	130.56
397.57	138.75
397.78	148.99
397.989	118.27
398.198	208.38
398.407	161.28
398.617	153.09
398.826	130.56
399.035	87.55
399.244	151.04
399.453	144.89
399.663	159.23
399.872	128.51
400.081	114.17
400.29	216.57
400.499	77.31
400.708	93.69
400.917	192
401.127	99.84
401.336	103.93
401.545	230.91
401.754	144.89
401.963	235
402.172	216.57
402.381	144.89
402.59	114.17
402.799	208.38
403.008	249.34
403.217	142.85
403.426	173.57
403.635	83.45
403.844	192
404.053	161.28
404.262	228.86
404.471	290.3
404.68	142.85
404.888	175.61
405.097	208.38
405.306	161.28
405.515	175.61
405.724	134.65
405.933	183.81
406.142	275.96
406.35	292.35
406.559	280.06
406.768	286.2
406.977	415.23
407.185	275.96
407.394	202.24
407.603	212.48
407.812	314.88
408.02	300.54
408.229	304.64
408.438	325.12
408.646	298.49
408.855	298.49
409.064	380.41
409.272	368.12
409.481	443.9
409.69	302.59
409.898	359.93
410.107	433.66
410.315	462.33
410.524	409.08
410.733	429.56
410.941	431.61
411.15	478.71
411.358	497.14
411.567	544.25
411.775	423.42
411.984	529.91
412.192	585.21
412.401	538.1
412.609	691.7
412.818	626.17
413.026	673.27
413.234	597.49
413.443	783.86
413.651	626.17
413.86	796.15
414.068	738.8
414.276	824.82
414.485	841.2
414.693	894.45
414.901	906.74
415.11	867.83
415.318	982.51
415.526	962.03
415.734	1002.99
415.943	990.7
416.151	1035.76
416.359	1129.97
416.567	1082.86
416.776	1195.5
416.984	1191.41
417.192	1289.71
417.4	1283.56
417.608	1308.14
417.817	1431.02
418.025	1455.59
418.233	1506.79
418.441	1471.98
418.649	1519.08
418.857	1601
419.065	1611.24
419.273	1641.96
419.481	1789.41
419.689	1732.07
419.897	1770.98
420.105	2018.79
420.313	1983.97
420.521	2018.79
420.729	2160.1
420.937	2106.85
421.145	2266.59
421.353	2354.65
421.561	2489.82
421.769	2614.74
421.977	2749.91
422.185	2751.96
422.393	2846.16
422.601	2895.32
422.809	2860.5
423.017	2960.85
423.224	3139.02
423.432	3161.55
423.64	3266
423.848	3509.71
424.056	3442.12
424.263	3585.48
424.471	3644.87
424.679	3802.57
424.887	3888.58
425.094	4150.72
425.302	4111.81
425.51	4324.8
425.718	4435.39
425.925	4531.64
426.133	4496.83
426.341	4871.61
426.548	5293.49
426.756	5127.6
426.964	5017.01
427.171	5610.92
427.379	5473.71
427.586	5625.26
427.794	5729.7
428.001	6008.23
428.209	6380.96
428.417	6256.03
428.624	6641.05
428.832	6534.56
429.039	6614.43
429.247	6725.02
429.454	7318.93
429.662	7808.39
429.869	7347.6
430.076	7841.16
430.284	7662.99
430.491	7857.54
430.699	8355.2
430.906	8426.88
431.114	8392.06
431.321	8912.25
431.528	9135.48
431.736	9661.8
431.943	9905.51
432.15	9737.58
432.358	9678.19
432.565	10268
432.772	10202.47
432.979	10845.53
433.187	10980.7
433.394	10917.21
433.601	11720.01
433.808	11849.04
434.016	11707.73
434.223	12369.22
434.43	13126.97
434.637	12725.57
434.844	13471.03
435.052	13602.1
435.259	13624.62
435.466	13802.8
435.673	13774.13
435.88	14767.39
436.087	15281.43
436.294	15373.59
436.501	15174.94
436.708	15279.38
436.915	15854.86
437.122	16479.49
437.329	16442.63
437.537	17198.33
437.743	17181.95
437.95	17212.67
438.157	18105.58
438.364	18826.46
438.571	18748.64
438.778	19113.18
438.985	20626.63
439.192	19578.07
439.399	20421.83
439.606	19969.23
439.813	21173.44
440.02	22355.11
440.227	21679.29
440.433	21673.14
440.64	22359.21
440.847	22357.16
441.054	23143.58
441.261	24292.49
441.467	24249.49
441.674	24607.88
441.881	25519.23
442.088	25576.57
442.294	25021.57
442.501	25914.48
442.708	26518.64
442.914	27563.1
443.121	28742.73
443.328	27956.31
443.534	29957.17
443.741	29047.88
443.948	28587.08
444.154	30762.03
444.361	30364.72
444.568	30876.71
444.774	30641.2
444.981	31228.96
445.187	32091.16
445.394	33373.19
445.6	33231.88
445.807	36201.43
446.013	34532.34
446.22	35255.27
446.426	36508.63
446.633	36627.41
446.839	38204.35
447.046	36514.77
447.252	38677.43
447.459	38552.5
447.665	38450.1
447.871	40272.79
448.078	41790.34
448.284	40065.95
448.491	41061.26
448.697	42564.47
448.903	43697
449.11	43588.45
449.316	42912.63
449.522	43660.13
449.728	44782.42
449.935	45456.2
450.141	45507.4
450.347	46144.32
450.553	44936.02
450.76	45482.83
450.966	46996.27
451.172	46265.15
451.378	47782.69
451.584	46768.95
451.791	47762.22
451.997	48032.55
452.203	48468.76
452.409	48612.12
452.615	48323.36
452.821	46615.35
453.027	46400.32
453.233	48855.83
453.44	47020.85
453.646	47487.79
453.852	47620.91
454.058	48515.87
454.264	46807.86
454.47	48069.41
454.676	46869.3
454.882	48571.16
455.088	44319.58
455.294	45386.57
455.5	45638.47
455.705	46068.55
455.911	43983.71
456.117	43430.76
456.323	42632.05
456.529	40878.99
456.735	42707.83
456.941	41743.24
457.147	41100.17
457.352	40145.82
457.558	38648.75
457.764	39226.28
457.97	38411.19
458.176	37465.03
458.381	37776.32
458.587	35607.52
458.793	36127.7
458.999	33764.35
459.204	36506.58
459.41	35503.07
459.616	33268.74
459.821	33244.16
460.027	33098.76
460.233	32261.14
460.438	30852.14
460.644	30794.79
460.85	29527.1
461.055	29344.83
461.261	29051.97
461.466	26999.91
461.672	26176.62
461.878	27935.83
462.083	26565.74
462.289	25875.57
462.494	25336.96
462.7	24401.04
462.905	23817.36
463.111	24519.82
463.316	24575.11
463.522	23811.22
463.727	24063.12
463.932	23706.77
464.138	24005.78
464.343	23520.41
464.549	23196.83
464.754	23889.04
464.959	23540.89
465.165	23614.62
465.37	22541.48
465.575	22086.83
465.781	22723.75
465.986	23096.48
466.191	22099.12
466.397	21601.46
466.602	20442.31
466.807	21673.14
467.012	21550.26
467.218	21501.11
467.423	20929.73
467.628	21251.26
467.833	21687.48
468.038	21048.51
468.244	20614.34
468.449	21406.91
468.654	20880.58
468.859	20583.62
469.064	20491.46
469.269	19934.42
469.474	19418.33
469.679	20438.22
469.885	19659.99
470.09	20153.55
470.295	19707.09
470.5	19158.24
470.705	19535.06
470.91	19207.39
471.115	18816.22
471.32	19135.71
471.525	19096.8
471.73	18482.41
471.935	18552.04
472.139	17825.01
472.344	18093.29
472.549	18050.28
472.754	17839.34
472.959	17343.74
473.164	17089.79
473.369	16813.31
473.574	17659.12
473.778	17245.43
473.983	17290.49
474.188	17143.03
474.393	16385.29
474.598	16274.7
474.802	16413.96
475.007	16026.89
475.212	16166.15
475.417	15398.17
475.621	15635.73
475.826	15426.84
476.031	15371.54
476.235	15168.79
476.44	15150.36
476.645	14843.17
476.849	15082.78
477.054	14812.45
477.259	14642.46
477.463	14564.64
477.668	14169.38
477.872	14247.21
478.077	13837.61
478.282	13788.46
478.486	13798.7
478.691	13544.75
478.895	13370.68
479.1	13397.3
479.304	13577.52
479.509	13079.86
479.713	13188.41
479.918	12952.89
480.122	12776.77
480.326	12758.33
480.531	13135.16
480.735	12811.58
480.94	12694.85
481.144	13040.95
481.348	12438.85
481.553	12700.99
481.757	12438.85
481.961	12647.74
482.166	12647.74
482.37	12549.44
482.574	12455.23
482.778	12399.94
482.983	12637.5
483.187	12479.81
483.391	12514.63
483.595	12401.99
483.8	12330.31
484.004	12354.88
484.208	12631.36
484.412	12488
484.616	12520.77
484.821	12348.74
485.025	11945.29
485.229	12385.6
485.433	12350.79
485.637	12516.67
485.841	12299.59
486.045	12334.4
486.249	12483.91
486.453	12354.88
486.657	12299.59
486.861	12430.66
487.065	12160.33
487.269	12250.44
487.473	12070.22
487.677	12461.38
487.881	12432.71
488.085	12315.97
488.289	12389.7
488.493	12283.2
488.697	12473.67
488.901	12424.51
489.105	12731.71
489.309	12477.76
489.512	12496.19
489.716	12627.26
489.92	12545.34
490.124	12430.66
490.328	12879.16
490.531	12664.13
490.735	12813.63
490.939	12735.81
491.143	12852.54
491.346	12928.31
491.55	12856.64
491.754	12995.9
491.958	13194.55
492.161	12768.57
492.365	13024.57
492.569	12907.84
492.772	12938.55
492.976	13079.86
493.18	13192.5
493.383	13307.19
493.587	13049.14
493.79	13520.18
493.994	13378.87
494.197	13514.03
494.401	13684.02
494.605	13628.72
494.808	14017.83
495.012	14044.46
495.215	13937.96
495.419	14185.77
495.622	14042.41
495.825	14142.76
496.029	14136.62
496.232	14542.11
496.436	14404.9
496.639	15033.63
496.843	14589.22
497.046	15332.63
497.249	15279.38
497.453	15404.31
497.656	15394.07
497.859	15226.14
498.063	15650.07
498.266	16149.77
498.469	15680.78
498.673	16049.42
498.876	16274.7
499.079	16323.85
499.282	16571.65
499.485	16762.11
499.689	16858.37
499.892	17183.99
500.095	17329.4
500.298	17868.02
500.501	17405.17
500.705	17972.46
500.908	17865.97
501.111	18246.89
501.314	18492.65
501.517	18328.81
501.72	18750.69
501.923	18707.68
502.126	19612.88
502.329	19655.89
502.532	19715.28
502.735	19657.94
502.938	20317.39
503.141	20096.21
503.344	20393.16
503.547	20616.39
503.75	20765.89
503.953	21271.74
504.156	21314.75
504.359	21806.26
504.562	21763.25
504.765	22170.8
504.968	22258.86
505.17	22627.49
505.373	22619.3
505.576	22725.8
505.779	22955.17
505.982	23362.72
506.185	23512.22
506.387	23735.45
506.59	23964.82
506.793	24437.9
506.996	24437.9
507.198	25216.13
507.401	24988.8
507.604	25132.16
507.807	25660.54
508.009	26125.43
508.212	25760.89
508.415	26346.61
508.617	26287.21
508.82	26655.85
509.022	26846.31
509.225	27470.94
509.428	27329.63
509.63	27843.67
509.833	27892.82
510.035	28933.19
510.238	28263.5
510.44	28896.33
510.643	29402.18
510.845	29318.21
511.048	29172.8
511.25	29555.77
511.453	29631.55
511.655	30884.9
511.858	30561.33
512.06	30921.77
512.262	30798.89
512.465	31284.26
512.667	31620.13
512.87	32042.01
513.072	32250.9
513.274	32248.85
513.477	32748.56
513.679	32943.11
513.881	33393.67
514.084	33422.34
514.286	33694.72
514.488	34061.3
514.69	34886.64
514.893	34581.49
515.095	34872.3
515.297	35589.09
515.499	35638.24
515.701	35916.76
515.904	36367.32
516.106	36461.52
516.308	36580.31
516.51	36940.75
516.712	37174.22
516.914	37546.95
517.116	38085.56
517.318	37919.68
517.52	38548.4
517.722	38323.13
517.925	39347.11
518.127	39541.67
518.329	39613.35
518.531	39652.26
518.733	40369.05
518.935	40981.39
519.136	40561.56
519.338	41184.14
519.54	40956.82
519.742	41733
519.944	41968.51
520.146	42673.01
520.348	42986.35
520.55	43033.46
520.752	42951.54
520.954	43875.17
521.155	43459.43
521.357	44202.85
521.559	44286.81
521.761	44659.54
521.963	44856.15
522.164	44751.7
522.366	45116.24
522.568	45435.72
522.77	45992.77
522.971	46070.59
523.173	46058.31
523.375	46611.26
523.576	46365.5
523.778	46437.18
523.98	47258.41
524.181	47749.93
524.383	47440.68
524.584	48046.88
524.786	47899.43
524.988	48069.41
525.189	48427.81
525.391	48659.23
525.592	49242.9
525.794	48937.75
525.995	48927.51
526.197	48937.75
526.398	49550.09
526.6	50051.84
526.801	49511.18
527.003	49945.35
527.204	49838.86
527.406	50381.57
527.607	50324.22
527.808	50608.89
528.01	49711.88
528.211	50291.46
528.412	51350.26
528.614	50914.04
528.815	51387.12
529.016	51763.95
529.218	51149.56
529.419	51276.53
529.62	51616.49
529.822	51380.98
530.023	51354.35
530.224	51575.53
530.425	51618.54
530.626	51395.31
530.828	51413.74
531.029	52593.37
531.23	51958.5
531.431	51735.27
531.632	52089.57
531.833	52562.65
532.035	52120.29
532.236	52579.04
532.437	52501.21
532.638	51987.17
532.839	52706.01
533.04	52687.58
533.241	52259.55
533.442	53195.48
533.643	52364
533.844	52536.03
534.045	52509.41
534.246	52161.25
534.447	52740.83
534.648	52765.4
534.849	52826.84
535.05	52079.33
535.251	52472.54
535.451	52650.72
535.652	52927.19
535.853	52478.69
536.054	52781.79
536.255	53066.45
536.456	52056.81
536.657	52650.72
536.857	52663
537.058	52361.95
537.259	53111.51
537.46	52558.56
537.66	52421.34
537.861	52677.34
538.062	52777.69
538.263	52769.5
538.463	52349.67
538.664	52400.86
538.865	52812.51
539.065	52804.31
539.266	52339.43
539.466	52615.9
539.667	52517.6
539.868	52814.55
540.068	52409.06
540.269	52394.72
540.469	53140.18
540.67	52507.36
540.87	52499.17
541.071	52691.68
541.271	52583.13
541.472	52505.31
541.672	52454.11
541.873	52421.34
542.073	51399.41
542.274	52337.38
542.474	52581.09
542.675	51935.98
542.875	52560.61
543.075	52060.9
543.276	51868.39
543.476	52343.52
543.676	52437.73
543.877	52071.14
544.077	52230.88
544.277	52157.16
544.478	51978.98
544.678	52558.56
544.878	52452.06
545.078	52669.15
545.279	52013.8
545.479	52019.94
545.679	52390.62
545.879	52300.51
546.079	52251.36
546.28	52288.23
546.48	51905.26
546.68	52163.3
546.88	51815.15
547.08	51749.61
547.28	52144.87
547.48	51288.82
547.68	51653.36
547.88	51667.69
548.081	52087.53
548.281	51919.59
548.481	51655.4
548.681	52177.64
548.881	51477.23
549.081	51702.51
549.28	51657.45
549.48	51933.93
549.68	51473.13
549.88	52296.42
550.08	51237.62
550.28	51503.85
550.48	51800.81
550.68	52161.25
550.88	51327.73
551.08	51331.82
551.279	51700.46
551.479	51217.14
551.679	51743.47
551.879	50940.66
552.079	51970.79
552.278	51610.35
552.478	51682.03
552.678	51264.24
552.878	51872.49
553.077	51446.51
553.277	51157.75
553.477	51759.85
553.676	50981.62
553.876	51204.85
554.076	51045.11
554.275	51067.64
554.475	50547.45
554.674	50848.5
554.874	51028.73
555.074	51065.59
555.273	51112.69
555.473	51213.04
555.672	51032.82
555.872	50780.92
556.071	51184.37
556.271	51421.94
556.47	50739.96
556.67	50219.78
556.869	50903.8
557.068	50969.33
557.268	50615.04
557.467	50182.91
557.667	50526.97
557.866	50502.4
558.065	50252.55
558.265	50141.95
558.464	50070.28
558.663	50645.76
558.863	49967.88
559.062	50412.29
559.261	49748.74
559.461	50178.82
559.66	49521.42
559.859	49908.49
560.058	49849.1
560.258	49773.32
560.457	49664.78
560.656	49949.45
560.855	49439.5
561.054	49687.31
561.253	49056.53
561.453	49478.41
561.652	49453.84
561.851	49527.56
562.05	48698.14
562.249	48833.3
562.448	49601.29
562.647	48984.85
562.846	49054.48
563.045	49040.15
563.244	48360.22
563.443	49156.88
563.642	48237.34
563.841	48661.27
564.04	48270.11
564.239	48982.8
564.438	48057.12
564.637	48638.75
564.836	48384.8
565.035	48010.02
565.234	48507.68
565.432	48208.67
565.631	47588.14
565.83	48061.22
566.029	47217.46
566.228	47676.2
566.427	47528.75
566.625	47293.23
566.824	47088.43
567.023	47960.87
567.222	46666.55
567.42	47391.53
567.619	47123.25
567.818	47194.93
568.016	46998.32
568.215	46910.26
568.414	46797.62
568.612	47330.09
568.811	46863.16
569.01	46852.92
569.208	46242.62
569.407	46523.19
569.605	45876.04
569.804	46336.83
570.002	45929.28
570.201	46003.01
570.4	45505.35
570.598	45509.45
570.797	45806.41
570.995	46138.18
571.193	45445.96
571.392	45456.2
571.59	45243.21
571.789	45386.57
571.987	45097.81
572.186	45079.38
572.384	44860.24
572.582	45261.65
572.781	45136.72
572.979	44579.67
573.177	44757.85
573.376	45108.05
573.574	44497.75
573.772	45106
573.971	44151.65
574.169	44477.27
574.367	44350.3
574.565	44634.97
574.763	43987.81
574.962	44051.3
575.16	43547.5
575.358	44127.07
575.556	43303.79
575.754	43977.57
575.952	43180.91
576.151	43862.88
576.349	43189.1
576.547	43035.5
576.745	42875.76
576.943	43357.03
577.141	42906.48
577.339	43092.85
577.537	42689.4
577.735	42832.75
577.933	42486.65
578.131	42621.81
578.329	42484.6
578.527	41997.18
578.725	41745.28
578.923	42169.21
579.121	41683.84
579.319	41714.56
579.516	41663.36
579.714	41741.19
579.912	41350.03
580.11	41456.52
580.308	41444.23
580.506	41186.19
580.704	40788.88
580.901	40983.44
581.099	41608.07
581.297	40962.96
581.495	40553.37
581.692	41106.32
581.89	40469.4
582.088	40631.19
582.285	40704.91
582.483	40434.58
582.681	40571.8
582.878	40039.33
583.076	39881.63
583.274	40207.26
583.471	39693.22
583.669	39781.28
583.866	39406.5
584.064	39805.86
584.262	39533.48
584.459	39594.92
584.657	39125.93
584.854	39834.53
585.052	38876.08
585.249	39318.44
585.447	39404.45
585.644	38566.84
585.841	39261.1
586.039	39142.31
586.236	38435.77
586.434	38466.49
586.631	38529.97
586.828	38542.26
587.026	38157.24
587.223	38007.74
587.42	38065.08
587.618	37886.91
587.815	37477.32
588.012	37655.49
588.21	38067.13
588.407	37784.51
588.604	37241.8
588.801	37428.16
588.999	37182.41
589.196	37194.7
589.393	37133.26
589.59	37000.14
589.787	36879.31
589.984	36549.59
590.182	36367.32
590.379	36834.25
590.576	36367.32
590.773	36291.54
590.97	35955.68
591.167	36410.32
591.364	35855.32
591.561	35685.34
591.758	35701.73
591.955	36252.63
592.152	35949.53
592.349	35496.93
592.546	35599.33
592.743	35607.52
592.94	34663.41
593.137	35046.38
593.334	35464.16
593.531	34712.56
593.727	34845.68
593.924	34817
594.121	34509.81
594.318	34806.76
594.515	34405.36
594.712	34522.1
594.908	34079.74
595.105	34511.86
595.302	33862.65
595.499	33893.37
595.696	33893.37
595.892	33577.98
596.089	33946.62
596.286	33661.95
596.482	33379.33
596.679	33674.24
596.876	33285.12
597.072	33291.27
597.269	33645.57
597.466	32828.43
597.662	32814.09
597.859	32930.83
598.055	32887.82
598.252	32992.26
598.448	32640.01
598.645	32850.95
598.841	32154.65
599.038	32568.34
599.234	32551.95
599.431	32033.82
599.627	32255
599.824	32033.82
600.02	31859.74
600.217	32017.43
600.413	31632.41
600.609	31568.93
600.806	31470.62
601.002	31683.61
601.198	31159.33
601.395	30854.19
601.591	30975.02
601.787	31083.56
601.984	31075.37
602.18	31196.2
602.376	31028.26
602.572	30864.43
602.769	30438.45
602.965	30413.87
603.161	30407.73
603.357	30450.74
603.553	30139.44
603.75	30366.77
603.946	30006.33
604.142	30166.07
604.338	29824.06
604.534	29838.39
604.73	29697.08
604.926	29805.63
605.122	29604.92
605.318	29738.04
605.514	29166.66
605.71	29180.99
605.906	29242.43
606.102	28988.49
606.298	29045.83
606.494	29269.06
606.69	29092.93
606.886	29144.13
607.082	28302.42
607.278	28687.43
607.474	28370
607.67	28556.36
607.866	28370
608.062	28847.18
608.257	28349.52
608.453	28474.45
608.649	28210.26
608.845	28081.24
609.041	28107.86
609.236	28027.99
609.432	28021.84
609.628	28413.01
609.824	27974.74
610.019	27718.75
610.215	27751.51
610.411	27731.03
610.606	27839.58
610.802	27708.51
610.998	27559
611.193	27774.04
611.389	27747.42
611.584	27442.27
611.78	27024.48
611.976	27251.81
612.171	27360.35
612.367	27411.55
612.562	26985.57
612.758	26745.96
612.953	26520.68
613.149	27161.7
613.344	26698.86
613.539	27075.68
613.735	27040.87
613.93	26932.33
614.126	26803.3
614.321	26829.93
614.517	26553.45
614.712	26530.92
614.907	26106.99
615.103	26821.73
615.298	26365.04
615.493	26760.3
615.688	26156.14
615.884	26696.81
616.079	26180.72
616.274	26397.81
616.47	26012.79
616.665	26219.63
616.86	25771.13
617.055	25977.97
617.25	25613.43
617.445	25908.34
617.641	25390.2
617.836	25889.91
618.031	25234.56
618.226	25728.12
618.421	25672.82
618.616	25687.16
618.811	25138.3
619.006	25519.23
619.201	24929.41
619.396	25228.42
619.591	24702.09
619.786	24722.57
619.981	24560.78
620.176	25134.21
620.371	24497.29
620.566	24886.4
620.761	24253.58
620.956	24665.22
621.151	24099.98
621.346	24167.57
621.541	23876.76
621.735	24347.79
621.93	23544.98
622.125	23661.72
622.32	23268.51
622.515	23694.49
622.709	23372.96
622.904	23342.24
623.099	23043.23
623.294	23530.65
623.488	22838.44
623.683	23014.56
623.878	22594.73
624.072	22883.49
624.267	22551.72
624.462	22348.97
624.656	22371.5
624.851	22279.34
625.046	21871.79
625.24	21966
625.435	21804.21
625.629	21841.07
625.824	21517.5
626.018	21640.37
626.213	21615.8
626.407	21388.47
626.602	20833.47
626.796	21068.99
626.991	20782.27
627.185	20597.96
627.38	20712.64
627.574	20747.46
627.768	20640.97
627.963	20081.87
628.157	20360.39
628.352	20198.6
628.546	19934.42
628.74	20126.92
628.935	19772.63
629.129	19776.72
629.323	19569.88
629.517	19522.77
629.712	19590.36
629.906	19338.46
630.1	19266.78
630.294	19045.6
630.489	18928.86
630.683	18918.62
630.877	18574.56
631.071	18672.87
631.265	18689.25
631.459	18679.01
631.653	18386.15
631.848	18097.39
632.042	18289.9
632.236	18218.22
632.43	18074.86
632.624	17968.37
632.818	17937.65
633.012	17802.48
633.206	17626.36
633.4	17515.76
633.594	17374.45
633.788	17573.11
633.982	17396.98
634.176	17347.83
634.369	16950.53
634.563	16958.72
634.757	17063.16
634.951	16776.45
635.145	16723.2
635.339	17059.07
635.533	16809.22
635.726	16622.85
635.92	16516.36
636.114	16270.6
636.308	16506.12
636.501	16289.03
636.695	16139.53
636.889	15840.53
637.083	15977.74
637.276	15936.78
637.47	15867.15
637.664	15906.06
637.857	15691.02
638.051	15842.57
638.244	15631.63
638.438	15416.6
638.632	15496.47
638.825	15228.18
639.019	15228.18
639.212	15176.98
639.406	15156.5
639.599	15000.86
639.793	14716.19
639.986	14669.09
640.18	14736.67
640.373	14703.9
640.567	14384.42
640.76	14327.08
640.954	14202.15
641.147	14279.97
641.34	14079.27
641.534	14296.36
641.727	14167.34
641.92	14236.97
642.114	14062.89
642.307	13901.1
642.5	13747.5
642.694	13565.23
642.887	13497.65
643.08	13714.73
643.273	13667.63
643.467	13448.5
643.66	13464.88
643.853	13325.62
644.046	13143.35
644.239	13374.77
644.432	13184.31
644.626	13137.21
644.819	13241.65
645.012	12905.79
645.205	12733.76
645.398	13100.34
645.591	12641.6
645.784	12789.05
645.977	12567.87
646.17	12574.02
646.363	12569.92
646.556	12244.29
646.749	12213.57
646.942	12410.18
647.135	12262.72
647.328	12201.29
647.521	12082.5
647.714	11920.71
647.907	11992.39
648.099	11844.94
648.292	11980.11
648.485	11949.39
648.678	11728.21
648.871	11621.71
649.064	11363.67
649.256	11693.39
649.449	11464.02
649.642	11599.18
649.835	11312.47
650.027	11349.33
650.22	11226.45
650.413	11345.23
650.605	11169.11
650.798	11066.71
650.991	10810.72
651.183	11085.14
651.376	10984.79
651.568	11038.04
651.761	10866.01
651.954	10941.79
652.146	10579.29
652.339	10790.24
652.531	10722.65
652.724	10485.09
652.916	10382.69
653.109	10333.54
653.301	10491.23
653.494	10411.36
653.686	10327.39
653.879	10337.63
654.071	10235.24
654.263	10169.7
654.456	10200.42
654.648	10087.78
654.84	9844.07
655.033	9966.95
655.225	9702.76
655.417	9837.93
655.61	9780.59
655.802	9727.34
655.994	9663.85
656.186	9618.8
656.379	9551.21
656.571	9549.17
656.763	9747.82
656.955	9489.78
657.148	9706.86
657.34	9454.96
657.532	9178.48
657.724	9145.72
657.916	9198.96
658.108	9127.28
658.3	9127.28
658.492	9051.51
658.684	8928.63
658.876	8975.74
659.068	8744.31
659.26	8951.16
659.452	8815.99
659.644	8760.7
659.836	8748.41
660.028	8805.75
660.22	8689.02
660.412	8668.54
660.604	8449.41
660.796	8545.66
660.988	8519.04
661.18	8572.29
661.372	8492.41
661.563	8508.8
661.755	8306.05
661.947	8240.51
662.139	8377.73
662.331	8193.41
662.522	8246.66
662.714	8111.49
662.906	8086.92
663.097	8082.82
663.289	8125.83
663.481	7980.42
663.673	8009.09
663.864	7861.64
664.056	7816.58
664.247	7880.07
664.439	7906.7
664.631	7779.72
664.822	7853.45
665.014	7865.74
665.205	7583.12
665.397	7660.94
665.588	7687.56
665.78	7570.83
665.971	7650.7
666.163	7599.5
666.354	7613.84
666.546	7470.48
666.737	7536.01
666.929	7282.06
667.12	7286.16
667.311	7462.29
667.503	7116.18
667.694	7327.12
667.885	7214.48
668.077	7310.74
668.268	7206.29
668.459	7226.77
668.651	7062.93
668.842	7255.44
669.033	6970.77
669.224	7101.84
669.416	7126.42
669.607	6831.51
669.798	7073.17
669.989	7067.03
670.18	6899.09
670.371	7001.49
670.563	6763.93
670.754	6745.5
670.945	6878.62
671.136	7009.69
671.327	6698.39
671.518	6622.62
671.709	6792.6
671.9	6786.46
672.091	6917.53
672.282	6768.02
672.473	6739.35
672.664	6655.39
672.855	6606.24
673.046	6741.4
673.237	6540.7
673.428	6542.75
673.619	6598.04
673.809	6499.74
674	6524.32
674.191	6518.17
674.382	6507.93
674.573	6612.38
674.764	6411.68
674.954	6434.21
675.145	6567.32
675.336	6581.66
675.527	6301.09
675.717	6499.74
675.908	6370.72
676.099	6321.57
676.289	6231.46
676.48	6317.47
676.671	6327.71
676.861	6253.98
677.052	6454.69
677.243	6282.66
677.433	6270.37
677.624	6319.52
677.814	6430.11
678.005	6309.28
678.195	6253.98
678.386	6282.66
678.576	6129.06
678.767	6210.98
678.957	6272.42
679.148	6149.54
679.338	6280.61
679.529	6159.78
679.719	6180.26
679.909	6253.98
680.1	6182.31
680.29	6096.29
680.481	5844.39
680.671	6127.01
680.861	6012.32
681.052	6118.82
681.242	5977.51
681.432	6198.69
681.622	5995.94
681.813	6073.76
682.003	6084
682.193	5981.6
682.383	5881.25
682.573	6061.48
682.764	5993.89
682.954	6043.04
683.144	5963.17
683.334	5969.32
683.524	6022.56
683.714	5952.93
683.904	5969.32
684.094	6018.47
684.284	6038.95
684.474	6131.11
684.664	5680.55
684.854	5856.68
685.044	5883.3
685.234	5911.97
685.424	5723.56
685.614	5807.53
685.804	5791.14
685.994	5598.63
686.184	5731.75
686.374	5868.97
686.564	5617.07
686.753	5625.26
686.943	5649.83
687.133	5539.24
687.323	5625.26
687.513	5520.81
687.702	5504.43
687.892	5424.56
688.082	5471.66
688.272	5479.85
688.461	5399.98
688.651	5559.72
688.841	5508.52
689.03	5385.65
689.22	5283.25
689.41	5086.64
689.599	5221.81
689.789	5199.28
689.979	5299.63
690.168	5230
690.358	5248.43
690.547	5172.66
690.737	5109.17
690.926	4976.05
691.116	5017.01
691.305	5066.16
691.495	4969.91
691.684	4885.94
691.874	4961.72
692.063	4926.9
692.252	4943.28
692.442	4763.06
692.631	4748.73
692.82	4801.97
693.01	4894.13
693.199	4754.87
693.388	4724.15
693.578	4668.86
693.767	4599.23
693.956	4660.66
694.146	4593.08
694.335	4597.18
694.524	4484.54
694.713	4621.75
694.902	4517.31
695.092	4523.45
695.281	4517.31
695.47	4570.55
695.659	4447.68
695.848	4451.77
696.037	4488.64
696.226	4349.37
696.415	4312.51
696.604	4367.81
696.793	4429.24
696.982	4398.52
697.171	4435.39
697.36	4482.49
697.549	4308.41
697.738	4285.89
697.927	4328.89
698.116	4320.7
698.305	4392.38
698.494	4289.98
698.683	4181.44
698.872	4373.95
699.061	4304.32
699.25	4226.5
699.438	4279.74
699.627	4185.54
699.816	4177.34
700.005	4175.3
700.193	4025.79
700.382	4046.27
700.571	4056.51
700.76	4142.53
700.948	4238.78
701.137	4230.59
701.326	4023.75
701.514	4074.95
701.703	4136.38
701.892	3950.02
702.08	4169.15
702.269	4052.42
702.457	4033.99
702.646	4038.08
702.834	3978.69
703.023	4025.79
703.212	4136.38
703.4	4050.37
703.589	3956.16
703.777	4064.71
703.965	3974.6
704.154	4025.79
704.342	4052.42
704.531	4003.27
704.719	3943.88
704.907	4099.52
705.096	3952.07
705.284	4115.91
705.472	4005.31
705.661	3872.2
705.849	3958.21
706.037	4093.38
706.226	3999.17
706.414	4031.94
706.602	3954.12
706.79	4040.13
706.979	4042.18
707.167	4079.04
707.355	3974.6
707.543	3898.82
707.731	4042.18
707.919	3982.79
708.107	3972.55
708.296	3919.3
708.484	3978.69
708.672	3943.88
708.86	3931.59
709.048	4036.03
709.236	3839.43
709.424	4015.55
709.612	3927.49
709.8	3972.55
709.988	3980.74
710.176	4068.8
710.364	4160.96
710.551	3927.49
710.739	3902.92
710.927	4068.8
711.115	3972.55
711.303	3984.84
711.491	4068.8
711.679	4019.65
711.866	4009.41
712.054	4058.56
712.242	3919.3
712.43	4038.08
712.617	3939.78
712.805	3993.03
712.993	3952.07
713.181	3878.34
713.368	4099.52
713.556	4040.13
713.744	3882.44
713.931	4074.95
714.119	4046.27
714.306	3968.45
714.494	4011.46
714.682	3984.84
714.869	3902.92
715.057	3984.84
715.244	3921.35
715.432	4042.18
715.619	4060.61
715.807	4052.42
715.994	4068.8
716.182	4033.99
716.369	4111.81
716.556	3984.84
716.744	4031.94
716.931	4038.08
717.119	4216.26
717.306	4154.82
717.493	4107.71
717.681	4107.71
717.868	4050.37
718.055	4113.86
718.242	4138.43
718.43	4177.34
718.617	4144.58
718.804	4017.6
718.991	4158.91
719.179	4160.96
719.366	4095.43
719.553	4150.72
719.74	4253.12
719.927	4128.19
720.114	4142.53
720.301	4189.63
720.488	4183.49
720.676	4134.34
720.863	4189.63
721.05	4120
721.237	4195.78
721.424	4226.5
721.611	4015.55
721.798	4107.71
721.985	4214.21
722.172	4142.53
722.358	4249.02
722.545	4167.1
722.732	4117.95
722.919	4361.66
723.106	4236.74
723.293	4394.43
723.48	4156.86
723.667	4183.49
723.853	4103.62
724.04	4226.5
724.227	4259.26
724.414	4181.44
724.6	4314.56
724.787	4148.67
724.974	4201.92
725.161	4054.47
725.347	4144.58
725.534	4169.15
725.72	4328.89
725.907	4177.34
726.094	4259.26
726.28	4263.36
726.467	4156.86
726.653	4296.13
726.84	4306.37
727.027	4498.88
727.213	4318.65
727.4	4277.69
727.586	4212.16
727.773	4357.57
727.959	4199.87
728.145	4226.5
728.332	4326.85
728.518	4183.49
728.705	4443.58
728.891	4312.51
729.077	4343.23
729.264	4347.33
729.45	4300.22
729.636	4523.45
729.823	4294.08
730.009	4269.5
730.195	4216.26
730.382	4328.89
730.568	4310.46
730.754	4275.65
730.94	4197.82
731.126	4455.87
731.313	4341.18
731.499	4326.85
731.685	4511.16
731.871	4316.61
732.057	4437.44
732.243	4273.6
732.429	4455.87
732.615	4404.67
732.801	4324.8
732.987	4240.83
733.173	4396.48
733.359	4433.34
733.545	4328.89
733.731	4244.93
733.917	4380.09
734.103	4371.9
734.289	4292.03
734.475	4369.85
734.661	4513.21
734.847	4308.41
735.033	4378.05
735.219	4406.72
735.404	4296.13
735.59	4339.13
735.776	4275.65
735.962	4537.79
736.148	4365.76
736.333	4400.57
736.519	4263.36
736.705	4312.51
736.89	4363.71
737.076	4396.48
737.262	4201.92
737.447	4193.73
737.633	4191.68
737.819	4269.5
738.004	4109.76
738.19	4218.3
738.375	4300.22
738.561	4511.16
738.747	4197.82
738.932	4105.67
739.118	4345.28
739.303	4265.41
739.489	4298.17
739.674	4240.83
739.859	4158.91
740.045	4255.17
740.23	4365.76
740.416	4154.82
740.601	4191.68
740.786	4197.82
740.972	4263.36
741.157	4101.57
741.342	4117.95
741.528	4140.48
741.713	4093.38
741.898	4156.86
742.084	4222.4
742.269	4181.44
742.454	3986.88
742.639	4148.67
742.824	3882.44
743.01	4156.86
743.195	4076.99
743.38	4097.47
743.565	4031.94
743.75	3986.88
743.935	3931.59
744.12	3988.93
744.305	3737.03
744.49	3859.91
744.675	3925.44
744.86	3839.43
745.045	3904.96
745.23	3788.23
745.415	3769.8
745.6	3777.99
745.785	3788.23
745.97	3909.06
746.155	3821
746.34	3837.38
746.525	3632.58
746.71	3755.46
746.895	3624.39
747.079	3683.78
747.264	3546.57
747.449	3581.39
747.634	3505.61
747.819	3452.36
748.003	3599.82
748.188	3599.82
748.373	3511.75
748.557	3573.19
748.742	3505.61
748.927	3370.44
749.111	3462.6
749.296	3546.57
749.481	3364.3
749.665	3407.31
749.85	3360.2
750.034	3292.62
750.219	3245.52
750.404	3257.81
750.588	3309.01
750.773	3196.37
750.957	3173.84
751.141	3077.59
751.326	3225.04
751.51	3222.99
751.695	3003.86
751.879	3003.86
752.064	3218.89
752.248	3161.55
752.432	3179.98
752.617	3216.85
752.801	2995.67
752.985	2956.75
753.17	2987.47
753.354	3108.3
753.538	2911.7
753.722	3012.05
753.907	2842.07
754.091	2903.51
754.275	2858.45
754.459	2921.94
754.643	2727.38
754.828	2913.75
755.012	2792.92
755.196	2784.73
755.38	2702.81
755.564	2596.31
755.748	2651.61
755.932	2663.9
756.116	2624.98
756.3	2700.76
756.484	2551.26
756.668	2659.8
756.852	2547.16
757.036	2645.46
757.22	2469.34
757.404	2500.06
757.588	2608.6
757.772	2495.96
757.956	2455
758.14	2606.55
758.323	2465.24
758.507	2438.62
758.691	2473.43
758.875	2420.19
759.059	2395.61
759.242	2399.71
759.426	2289.12
759.61	2448.86
759.794	2297.31
759.977	2332.12
760.161	2426.33
760.345	2242.01
760.528	2285.02
760.712	2235.87
760.895	2162.14
761.079	2239.97
761.263	2176.48
761.446	2117.09
761.63	2133.47
761.813	2229.73
761.997	2141.66
762.18	2123.23
762.364	2147.81
762.547	2069.98
762.731	2037.22
762.914	2131.42
763.098	2012.64
763.281	2063.84
763.464	2110.94
763.648	2002.4
763.831	2092.51
764.015	2074.08
764.198	2047.46
764.381	1969.63
764.564	1996.26
764.748	2039.26
764.931	1992.16
765.114	1881.57
765.297	2055.65
765.481	1963.49
765.664	1875.43
765.847	1979.87
766.03	1879.52
766.213	1803.75
766.397	1969.63
766.58	1891.81
766.763	1973.73
766.946	1850.85
767.129	1842.66
767.312	1826.28
767.495	1852.9
767.678	1828.32
767.861	1850.85
768.044	1838.56
768.227	1857
768.41	1775.08
768.593	1834.47
768.776	1779.17
768.959	1711.59
769.142	1820.13
769.324	1707.49
769.507	1709.54
769.69	1684.97
769.873	1727.97
770.056	1828.32
770.239	1805.8
770.421	1725.93
770.604	1723.88
770.787	1687.01
770.97	1699.3
771.152	1641.96
771.335	1707.49
771.518	1576.42
771.7	1746.41
771.883	1740.26
772.066	1598.95
772.248	1666.53
772.431	1717.73
772.613	1584.62
772.796	1623.53
772.978	1611.24
773.161	1523.18
773.343	1584.62
773.526	1512.94
773.708	1474.03
773.891	1447.4
774.073	1525.22
774.256	1451.5
774.438	1529.32
774.621	1445.35
774.803	1439.21
774.985	1400.3
775.168	1449.45
775.35	1435.11
775.532	1412.59
775.715	1465.83
775.897	1379.82
776.079	1390.06
776.261	1379.82
776.444	1449.45
776.626	1279.47
776.808	1304.04
776.99	1332.72
777.173	1269.23
777.355	1324.52
777.537	1304.04
777.719	1218.03
777.901	1277.42
778.083	1242.61
778.265	1158.64
778.447	1258.99
778.629	1215.98
778.811	1132.01
778.993	1218.03
779.175	1236.46
779.357	1240.56
779.539	1111.54
779.721	1043.95
779.903	1211.89
780.085	1140.21
780.267	1142.25
780.449	1218.03
780.631	1060.34
780.812	1089.01
780.994	1097.2
781.176	1168.88
781.358	1117.68
781.54	1080.82
781.721	1052.14
781.903	1005.04
782.085	1043.95
782.267	1101.3
782.448	1048.05
782.63	1068.53
782.812	990.7
782.993	1091.06
783.175	1009.14
783.357	941.55
783.538	1009.14
783.72	966.13
783.901	972.27
784.083	949.75
784.264	898.55
784.446	900.59
784.627	812.53
784.809	908.79
784.99	919.03
785.172	888.31
785.353	884.21
785.535	833.01
785.716	847.35
785.897	790
786.079	824.82
786.26	890.35
786.441	835.06
786.623	761.33
786.804	863.73
786.985	863.73
787.167	751.09
787.348	822.77
787.529	833.01
787.71	863.73
787.891	812.53
788.073	749.04
788.254	828.92
788.435	847.35
788.616	783.86
788.797	744.95
788.978	740.85
789.159	718.33
789.34	765.43
789.522	720.37
789.703	685.56
789.884	767.48
790.065	712.18
790.246	691.7
790.427	667.13
790.607	716.28
790.788	689.65
790.969	687.61
791.15	740.85
791.331	695.8
791.512	667.13
791.693	697.85
791.874	642.55
792.054	744.95
792.235	663.03
792.416	632.31
792.597	581.11
792.778	720.37
792.958	675.32
793.139	642.55
793.32	601.59
793.5	544.25
793.681	617.97
793.862	609.78
794.042	634.36
794.223	482.81
794.404	658.93
794.584	601.59
794.765	570.87
794.945	546.3
795.126	650.74
795.306	605.69
795.487	562.68
795.667	556.54
795.848	468.47
796.028	587.26
796.209	550.39
796.389	544.25
796.57	579.06
796.75	497.14
796.93	579.06
797.111	517.62
797.291	570.87
797.471	523.77
797.652	486.9
797.832	546.3
798.012	536.06
798.192	458.23
798.373	482.81
798.553	476.66
798.733	585.21
798.913	458.23
799.093	566.78
799.274	450.04
799.454	497.14
799.634	480.76
799.814	593.4
799.994	462.33
800.174	544.25
800.354	583.16
800.534	450.04
800.714	491
800.894	417.27
801.074	390.65
801.254	472.57
801.434	515.58
801.614	396.79
801.794	458.23
801.974	1437.16
802.154	423.42
802.334	443.9
802.514	415.23
802.693	447.99
802.873	433.66
803.053	527.86
803.233	486.9
803.413	429.56
803.592	386.55
803.772	364.03
803.952	364.03
804.131	335.35
804.311	388.6
804.491	460.28
804.67	341.5
804.85	339.45
805.03	372.22
805.209	400.89
805.389	429.56
805.568	355.83
805.748	343.55
805.928	339.45
806.107	312.83
806.287	441.85
806.466	366.07
806.646	364.03
806.825	347.64
807.004	370.17
807.184	355.83
807.363	404.99
807.543	306.68
807.722	382.46
807.901	413.18
808.081	480.76
808.26	218.62
808.439	245.24
808.619	314.88
808.798	339.45
808.977	253.44
809.156	374.27
809.336	359.93
809.515	409.08
809.694	282.11
809.873	351.74
810.052	439.8
810.231	333.31
810.411	349.69
810.59	314.88
810.769	310.78
810.948	253.44
811.127	210.43
811.306	308.73
811.485	198.14
811.664	441.85
811.843	355.83
812.022	300.54
812.201	286.2
812.38	333.31
812.559	237.05
812.737	237.05
812.916	230.91
813.095	278.01
813.274	337.4
813.453	245.24
813.632	290.3
813.811	353.79
813.989	314.88
814.168	306.68
814.347	304.64
814.526	212.48
814.704	366.07
814.883	339.45
815.062	284.16
815.24	331.26
815.419	294.4
815.598	290.3
815.776	294.4
815.955	265.72
816.133	241.15
816.312	290.3
816.49	257.53
816.669	261.63
816.847	245.24
817.026	302.59
817.204	292.35
817.383	249.34
817.561	267.77
817.74	298.49
817.918	237.05
818.097	263.68
818.275	267.77
818.453	347.64
818.632	296.44
818.81	228.86
818.988	224.76
819.167	118.27
819.345	241.15
819.523	275.96
819.701	261.63
819.879	275.96
820.058	284.16
820.236	292.35
820.414	255.48
820.592	218.62
820.77	167.42
820.948	206.33
821.127	232.96
821.305	232.96
821.483	155.13
821.661	253.44
821.839	255.48
822.017	144.89
822.195	224.76
822.373	294.4
822.551	312.83
822.729	257.53
822.907	189.95
823.085	241.15
823.262	243.2
823.44	185.85
823.618	163.33
823.796	87.55
823.974	241.15
824.152	151.04
824.329	237.05
824.507	232.96
824.685	179.71
824.863	183.81
825.04	185.85
825.218	185.85
825.396	185.85
825.574	226.81
825.751	216.57
825.929	187.9
826.107	126.46
826.284	251.39
826.462	155.13
826.639	214.52
826.817	192
826.994	216.57
827.172	56.83
827.349	273.92
827.527	183.81
827.704	144.89
827.882	220.67
828.059	99.84
828.237	175.61
828.414	167.42
828.591	85.5
828.769	208.38
828.946	138.75
829.124	208.38
829.301	237.05
829.478	146.94
829.655	232.96
829.833	175.61
830.01	134.65
830.187	226.81
830.364	163.33
830.542	126.46
830.719	185.85
830.896	151.04
831.073	126.46
831.25	263.68
831.427	146.94
831.604	179.71
831.782	157.18
831.959	126.46
832.136	148.99
832.313	130.56
832.49	192
832.667	167.42
832.844	120.32
833.021	202.24
833.198	230.91
833.374	187.9
833.551	110.08
833.728	87.55
833.905	228.86
834.082	65.02
834.259	183.81
834.436	273.92
834.612	75.26
834.789	136.7
834.966	81.41
835.143	192
835.319	77.31
835.496	122.37
835.673	220.67
835.85	159.23
836.026	151.04
836.203	183.81
836.38	42.5
836.556	71.17
836.733	157.18
836.909	198.14
837.086	32.26
837.262	71.17
837.439	91.65
837.616	110.08
837.792	60.93
837.968	118.27
838.145	114.17
838.321	118.27
838.498	97.79
838.674	167.42
838.851	124.41
839.027	151.04
839.203	171.52
839.38	142.85
839.556	58.88
839.732	185.85
839.909	52.74
840.085	134.65
840.261	89.6
840.437	148.99
840.614	177.66
840.79	140.8
840.966	122.37
841.142	89.6
841.318	44.54
841.494	60.93
841.671	132.61
841.847	103.93
842.023	36.35
842.199	142.85
842.375	140.8
842.551	52.74
842.727	101.89
842.903	142.85
843.079	108.03
843.255	97.79
843.431	101.89
843.607	136.7
843.783	52.74
843.959	81.41
844.134	28.16
844.31	101.89
844.486	99.84
844.662	22.02
844.838	42.5
845.013	97.79
845.189	148.99
845.365	73.21
845.541	83.45
845.716	95.74
845.892	108.03
846.068	83.45
846.244	122.37
846.419	122.37
846.595	99.84
846.77	105.98
846.946	73.21
847.122	77.31
847.297	146.94
847.473	155.13
847.648	110.08
847.824	116.22
847.999	60.93
848.175	56.83
848.35	69.12
848.526	105.98
848.701	77.31
848.876	148.99
849.052	155.13
849.227	30.21
849.403	30.21
849.578	30.21
849.753	26.11
849.929	126.46
850.104	75.26
850.279	42.5
850.454	77.31
850.63	130.56
850.805	120.32
850.98	34.3
851.155	-33.28
851.33	87.55
851.505	-4.61
851.681	60.93
851.856	56.83
852.031	69.12
852.206	136.7
852.381	13.82
852.556	60.93
852.731	97.79
852.906	75.26
853.081	161.28
853.256	151.04
853.431	77.31
853.606	95.74
853.781	77.31
853.956	-16.9
854.131	91.65
854.305	110.08
854.48	15.87
854.655	101.89
854.83	36.35
855.005	-8.7
855.18	38.4
855.354	5.63
855.529	56.83
855.704	50.69
855.879	52.74
856.053	-14.85
856.228	118.27
856.403	32.26
856.577	87.55
856.752	-16.9
856.926	91.65
857.101	44.54
857.276	48.64
857.45	58.88
857.625	52.74
857.799	1.54
857.974	71.17
858.148	65.02
858.323	50.69
858.497	44.54
858.672	52.74
858.846	-12.8
859.02	75.26
859.195	-23.04
859.369	116.22
859.543	69.12
859.718	108.03
859.892	34.3
860.066	36.35
860.241	65.02
860.415	24.06
860.589	67.07
860.763	40.45
860.938	71.17
861.112	38.4
861.286	-33.28
861.46	-31.23
861.634	13.82
861.808	116.22
861.982	60.93
862.157	36.35
862.331	-43.52
862.505	38.4
862.679	40.45
862.853	46.59
863.027	-27.14
863.201	58.88
863.375	24.06
863.549	58.88
863.722	11.78
863.896	48.64
864.07	71.17
864.244	13.82
864.418	87.55
864.592	110.08
864.766	134.65
864.939	48.64
865.113	-45.57
865.287	159.23
865.461	87.55
865.634	38.4
865.808	58.88
865.982	83.45
866.156	-4.61
866.329	-10.75
866.503	79.36
866.676	142.85
866.85	79.36
867.024	13.82
867.197	11.78
867.371	36.35
867.544	93.69
867.718	36.35
867.891	28.16
868.065	28.16
868.238	95.74
868.412	30.21
868.585	40.45
868.759	48.64
868.932	-12.8
869.105	5.63
869.279	-29.18
869.452	71.17
869.625	38.4
869.799	15.87
869.972	24.06
870.145	36.35
870.319	56.83
870.492	-2.56
870.665	34.3
870.838	-49.66
871.011	-96.77
871.185	38.4
871.358	-2.56
871.531	52.74
871.704	7.68
871.877	-0.51
872.05	60.93
872.223	-27.14
872.396	91.65
872.569	75.26
872.742	-86.53
872.915	67.07
873.088	32.26
873.261	65.02
873.434	54.78
873.607	9.73
873.78	71.17
873.953	-16.9
874.126	40.45
874.299	44.54
874.471	36.35
874.644	42.5
874.817	48.64
874.99	3.58
875.163	11.78
875.335	56.83
875.508	40.45
875.681	122.37
875.853	60.93
876.026	-82.43
876.199	85.5
876.371	-29.18
876.544	46.59
876.717	77.31
876.889	36.35
877.062	38.4
877.234	-4.61
877.407	67.07
877.579	13.82
877.752	42.5
877.924	54.78
878.097	81.41
878.269	48.64
878.442	36.35
878.614	28.16
878.786	44.54
878.959	11.78
879.131	56.83
879.303	-41.47
879.476	38.4
879.648	54.78
879.82	19.97
879.993	54.78
880.165	-0.51
880.337	19.97
880.509	-20.99
880.681	-20.99
880.854	7.68
881.026	-55.81
881.198	-20.99
881.37	38.4
881.542	67.07
881.714	-59.9
881.886	3.58
882.058	-35.33
882.23	-18.94
882.402	44.54
882.574	65.02
882.746	60.93
882.918	136.7
883.09	9.73
883.262	-0.51
883.434	65.02
883.606	-74.24
883.778	48.64
883.95	62.98
884.122	-10.75
884.293	71.17
884.465	36.35
884.637	36.35
884.809	1.54
884.98	62.98
885.152	42.5
885.324	40.45
885.496	9.73
885.667	22.02
885.839	-4.61
886.011	101.89
886.182	44.54
886.354	15.87
886.525	-2.56
886.697	24.06
886.869	-102.91
887.04	3.58
887.212	48.64
887.383	46.59
887.555	-49.66
887.726	-51.71
887.897	48.64
888.069	3.58
888.24	48.64
888.412	11.78
888.583	-12.8
888.754	11.78
888.926	-61.95
889.097	-76.29
889.268	-0.51
889.44	26.11
889.611	-68.09
889.782	-35.33
889.953	-6.66
890.125	91.65
890.296	36.35
890.467	-113.15
890.638	56.83
890.809	15.87
890.98	-59.9
891.151	56.83
891.323	73.21
891.494	44.54
891.665	22.02
891.836	87.55
892.007	-59.9
892.178	77.31
892.349	11.78
892.52	-35.33
892.691	15.87
892.862	5.63
893.032	7.68
893.203	-10.75
893.374	-4.61
893.545	77.31
893.716	-51.71
893.887	-6.66
894.057	1.54
894.228	11.78
894.399	52.74
894.57	-4.61
894.74	3.58
894.911	65.02
895.082	-16.9
895.253	36.35
895.423	-18.94
895.594	65.02
895.764	7.68
895.935	-51.71
896.106	36.35
896.276	3.58
896.447	95.74
896.617	-37.38
896.788	-20.99
896.958	-31.23
897.129	-78.33
897.299	54.78
897.47	71.17
897.64	11.78
897.81	-70.14
897.981	60.93
898.151	-2.56
898.322	87.55
898.492	34.3
898.662	-27.14
898.832	17.92
899.003	85.5
899.173	42.5
899.343	-45.57
899.513	-39.42
