Data from USB4F104151__42__13-05-16-005.txt Node

Date: Fri Mar 14 13:05:16 EDT 2025
User: louis
Spectrometer: USB4F10415
Trigger mode: 4
Integration Time (sec): 4.000000E-2
Scans to average: 1
Electric dark correction enabled: true
Nonlinearity correction enabled: false
Boxcar width: 0
XAxis mode: Wavelengths
Number of Pixels in Spectrum: 3648
>>>>>Begin Spectral Data<<<<<
178.204	-164.52
178.424	-164.52
178.644	-164.52
178.864	-150.18
179.084	-187.05
179.304	15.7
179.524	-4.78
179.744	-27.31
179.964	7.51
180.184	23.89
180.404	-8.87
180.624	-19.11
180.844	7.51
181.064	5.46
181.283	34.13
181.503	-12.97
181.723	-21.16
181.943	-51.88
182.163	136.53
182.383	17.75
182.602	-10.92
182.822	-15.02
183.042	30.04
183.262	-25.26
183.482	68.95
183.701	-23.21
183.921	11.61
184.141	-21.16
184.361	15.7
184.58	32.08
184.8	13.65
185.02	-47.79
185.239	9.56
185.459	-8.87
185.679	85.33
185.898	-41.64
186.118	89.43
186.338	1.37
186.557	62.8
186.777	15.7
186.997	11.61
187.216	32.08
187.436	56.66
187.655	71
187.875	71
188.095	27.99
188.314	79.19
188.534	5.46
188.753	-12.97
188.973	48.47
189.192	103.76
189.412	-17.07
189.631	38.23
189.851	44.37
190.07	21.85
190.29	25.94
190.509	-10.92
190.729	17.75
190.948	62.8
191.168	191.83
191.387	54.61
191.607	25.94
191.826	25.94
192.045	46.42
192.265	52.56
192.484	30.04
192.704	54.61
192.923	-0.68
193.142	62.8
193.362	114
193.581	-27.31
193.8	62.8
194.02	81.24
194.239	15.7
194.458	64.85
194.678	3.41
194.897	38.23
195.116	-33.45
195.335	21.85
195.555	46.42
195.774	62.8
195.993	83.28
196.212	1.37
196.432	-31.4
196.651	-15.02
196.87	120.15
197.089	109.91
197.308	13.65
197.528	62.8
197.747	7.51
197.966	11.61
198.185	91.48
198.404	42.32
198.623	34.13
198.842	40.28
199.062	93.52
199.281	54.61
199.5	21.85
199.719	48.47
199.938	66.9
200.157	-4.78
200.376	40.28
200.595	56.66
200.814	42.32
201.033	81.24
201.252	93.52
201.471	34.13
201.69	146.77
201.909	73.04
202.128	54.61
202.347	38.23
202.566	7.51
202.785	103.76
203.004	5.46
203.223	146.77
203.442	-15.02
203.661	-10.92
203.879	87.38
204.098	89.43
204.317	-17.07
204.536	38.23
204.755	52.56
204.974	89.43
205.193	-15.02
205.411	99.67
205.63	81.24
205.849	54.61
206.068	46.42
206.287	21.85
206.505	48.47
206.724	105.81
206.943	13.65
207.162	64.85
207.381	54.61
207.599	56.66
207.818	3.41
208.037	36.18
208.255	13.65
208.474	19.8
208.693	19.8
208.911	34.13
209.13	42.32
209.349	56.66
209.567	34.13
209.786	79.19
210.005	27.99
210.223	60.76
210.442	-12.97
210.661	36.18
210.879	71
211.098	81.24
211.316	-4.78
211.535	87.38
211.753	42.32
211.972	21.85
212.191	52.56
212.409	44.37
212.628	73.04
212.846	13.65
213.065	85.33
213.283	40.28
213.502	42.32
213.72	44.37
213.938	38.23
214.157	17.75
214.375	44.37
214.594	7.51
214.812	13.65
215.031	19.8
215.249	11.61
215.467	68.95
215.686	-37.55
215.904	38.23
216.122	9.56
216.341	50.52
216.559	66.9
216.778	50.52
216.996	107.86
217.214	38.23
217.432	-0.68
217.651	36.18
217.869	15.7
218.087	87.38
218.306	30.04
218.524	89.43
218.742	-33.45
218.96	32.08
219.179	27.99
219.397	68.95
219.615	81.24
219.833	-25.26
220.051	-33.45
220.27	-0.68
220.488	71
220.706	17.75
220.924	9.56
221.142	34.13
221.36	62.8
221.578	50.52
221.796	-10.92
222.015	-6.83
222.233	83.28
222.451	91.48
222.669	68.95
222.887	64.85
223.105	21.85
223.323	30.04
223.541	-25.26
223.759	-8.87
223.977	-4.78
224.195	73.04
224.413	32.08
224.631	93.52
224.849	62.8
225.067	99.67
225.285	-19.11
225.503	-33.45
225.721	-47.79
225.939	38.23
226.157	38.23
226.375	134.48
226.592	-8.87
226.81	-0.68
227.028	-4.78
227.246	124.24
227.464	-27.31
227.682	91.48
227.9	30.04
228.117	87.38
228.335	13.65
228.553	11.61
228.771	56.66
228.989	71
229.206	-19.11
229.424	-6.83
229.642	58.71
229.86	-4.78
230.077	66.9
230.295	-6.83
230.513	107.86
230.731	73.04
230.948	120.15
231.166	173.39
231.384	27.99
231.601	7.51
231.819	19.8
232.037	19.8
232.254	-51.88
232.472	5.46
232.689	52.56
232.907	87.38
233.125	46.42
233.342	-8.87
233.56	64.85
233.777	46.42
233.995	77.14
234.213	64.85
234.43	-6.83
234.648	15.7
234.865	48.47
235.083	54.61
235.3	42.32
235.518	64.85
235.735	132.44
235.953	111.96
236.17	5.46
236.388	38.23
236.605	-49.83
236.822	107.86
237.04	91.48
237.257	71
237.475	32.08
237.692	58.71
237.909	77.14
238.127	-15.02
238.344	-4.78
238.562	1.37
238.779	58.71
238.996	-35.5
239.214	30.04
239.431	58.71
239.648	-60.07
239.865	48.47
240.083	81.24
240.3	-6.83
240.517	40.28
240.735	-4.78
240.952	71
241.169	111.96
241.386	50.52
241.603	36.18
241.821	-23.21
242.038	71
242.255	83.28
242.472	-43.69
242.689	95.57
242.907	48.47
243.124	93.52
243.341	-6.83
243.558	-45.74
243.775	38.23
243.992	-82.6
244.209	99.67
244.426	83.28
244.643	15.7
244.86	46.42
245.078	68.95
245.295	103.76
245.512	62.8
245.729	-66.22
245.946	7.51
246.163	30.04
246.38	50.52
246.597	71
246.814	56.66
247.031	7.51
247.248	62.8
247.464	17.75
247.681	40.28
247.898	-8.87
248.115	36.18
248.332	-15.02
248.549	73.04
248.766	126.29
248.983	11.61
249.2	56.66
249.417	105.81
249.633	-105.13
249.85	27.99
250.067	15.7
250.284	25.94
250.501	75.09
250.717	32.08
250.934	30.04
251.151	52.56
251.368	9.56
251.585	17.75
251.801	25.94
252.018	-41.64
252.235	32.08
252.451	-33.45
252.668	-25.26
252.885	114
253.102	62.8
253.318	30.04
253.535	-23.21
253.752	17.75
253.968	54.61
254.185	-35.5
254.401	-47.79
254.618	25.94
254.835	-0.68
255.051	87.38
255.268	83.28
255.484	79.19
255.701	42.32
255.917	144.72
256.134	21.85
256.351	38.23
256.567	3.41
256.784	140.63
257	-70.31
257.217	89.43
257.433	97.62
257.65	105.81
257.866	91.48
258.082	-55.98
258.299	-12.97
258.515	46.42
258.732	42.32
258.948	25.94
259.165	30.04
259.381	-19.11
259.597	5.46
259.814	124.24
260.03	64.85
260.246	25.94
260.463	79.19
260.679	48.47
260.895	40.28
261.112	38.23
261.328	7.51
261.544	-43.69
261.761	150.87
261.977	38.23
262.193	-78.51
262.409	-2.73
262.626	46.42
262.842	95.57
263.058	40.28
263.274	66.9
263.49	77.14
263.707	91.48
263.923	81.24
264.139	-55.98
264.355	79.19
264.571	95.57
264.787	38.23
265.004	23.89
265.22	52.56
265.436	-37.55
265.652	62.8
265.868	62.8
266.084	-25.26
266.3	64.85
266.516	-0.68
266.732	52.56
266.948	40.28
267.164	32.08
267.38	56.66
267.596	81.24
267.812	73.04
268.028	-10.92
268.244	-33.45
268.46	27.99
268.676	-76.46
268.892	30.04
269.108	-60.07
269.324	-17.07
269.54	-8.87
269.756	83.28
269.972	-23.21
270.188	68.95
270.403	-51.88
270.619	128.34
270.835	25.94
271.051	83.28
271.267	21.85
271.483	75.09
271.698	81.24
271.914	-17.07
272.13	126.29
272.346	-10.92
272.562	5.46
272.777	66.9
272.993	46.42
273.209	79.19
273.425	79.19
273.64	-23.21
273.856	99.67
274.072	71
274.287	25.94
274.503	95.57
274.719	56.66
274.934	-29.35
275.15	-2.73
275.366	-2.73
275.581	7.51
275.797	81.24
276.012	13.65
276.228	27.99
276.444	34.13
276.659	77.14
276.875	15.7
277.09	-2.73
277.306	38.23
277.521	40.28
277.737	40.28
277.952	85.33
278.168	38.23
278.383	103.76
278.599	116.05
278.814	54.61
279.03	60.76
279.245	83.28
279.461	32.08
279.676	11.61
279.892	30.04
280.107	-6.83
280.322	19.8
280.538	40.28
280.753	-4.78
280.969	50.52
281.184	-15.02
281.399	95.57
281.615	32.08
281.83	77.14
282.045	-8.87
282.26	-19.11
282.476	3.41
282.691	46.42
282.906	9.56
283.122	81.24
283.337	9.56
283.552	62.8
283.767	9.56
283.983	66.9
284.198	71
284.413	46.42
284.628	-6.83
284.843	38.23
285.058	58.71
285.274	68.95
285.489	-19.11
285.704	62.8
285.919	-35.5
286.134	9.56
286.349	42.32
286.564	-10.92
286.779	77.14
286.995	48.47
287.21	44.37
287.425	136.53
287.64	-12.97
287.855	-23.21
288.07	-25.26
288.285	3.41
288.5	13.65
288.715	48.47
288.93	21.85
289.145	9.56
289.36	77.14
289.575	-74.41
289.79	60.76
290.004	32.08
290.219	54.61
290.434	15.7
290.649	-41.64
290.864	9.56
291.079	-33.45
291.294	73.04
291.509	44.37
291.724	9.56
291.938	77.14
292.153	-0.68
292.368	107.86
292.583	34.13
292.798	25.94
293.012	-0.68
293.227	-6.83
293.442	38.23
293.657	91.48
293.871	85.33
294.086	-31.4
294.301	114
294.516	-2.73
294.73	32.08
294.945	9.56
295.16	-35.5
295.374	97.62
295.589	7.51
295.804	38.23
296.018	23.89
296.233	107.86
296.447	109.91
296.662	19.8
296.877	101.72
297.091	30.04
297.306	25.94
297.52	38.23
297.735	103.76
297.949	46.42
298.164	83.28
298.378	48.47
298.593	9.56
298.807	-47.79
299.022	54.61
299.236	62.8
299.451	48.47
299.665	13.65
299.88	-15.02
300.094	40.28
300.309	11.61
300.523	114
300.737	46.42
300.952	79.19
301.166	66.9
301.381	19.8
301.595	21.85
301.809	9.56
302.024	32.08
302.238	56.66
302.452	105.81
302.667	25.94
302.881	38.23
303.095	89.43
303.309	105.81
303.524	-21.16
303.738	5.46
303.952	19.8
304.166	77.14
304.381	-109.22
304.595	66.9
304.809	27.99
305.023	-27.31
305.237	-8.87
305.452	79.19
305.666	144.72
305.88	107.86
306.094	87.38
306.308	62.8
306.522	56.66
306.736	97.62
306.95	40.28
307.164	13.65
307.379	126.29
307.593	71
307.807	144.72
308.021	38.23
308.235	-6.83
308.449	5.46
308.663	46.42
308.877	48.47
309.091	36.18
309.305	60.76
309.519	-21.16
309.733	83.28
309.947	-17.07
310.161	109.91
310.374	73.04
310.588	87.38
310.802	-8.87
311.016	-58.03
311.23	3.41
311.444	-64.17
311.658	30.04
311.872	46.42
312.085	48.47
312.299	32.08
312.513	62.8
312.727	7.51
312.941	5.46
313.154	89.43
313.368	-15.02
313.582	85.33
313.796	-12.97
314.009	73.04
314.223	27.99
314.437	1.37
314.651	128.34
314.864	-53.93
315.078	-0.68
315.292	-29.35
315.505	-31.4
315.719	34.13
315.933	120.15
316.146	9.56
316.36	7.51
316.573	54.61
316.787	1.37
317.001	79.19
317.214	-12.97
317.428	42.32
317.641	-0.68
317.855	60.76
318.068	36.18
318.282	-35.5
318.495	81.24
318.709	-0.68
318.922	54.61
319.136	66.9
319.349	64.85
319.563	-55.98
319.776	38.23
319.99	32.08
320.203	42.32
320.417	30.04
320.63	79.19
320.843	79.19
321.057	122.2
321.27	40.28
321.483	34.13
321.697	34.13
321.91	109.91
322.124	66.9
322.337	21.85
322.55	-17.07
322.763	95.57
322.977	-35.5
323.19	-4.78
323.403	34.13
323.617	46.42
323.83	30.04
324.043	5.46
324.256	9.56
324.469	58.71
324.683	79.19
324.896	21.85
325.109	-4.78
325.322	-27.31
325.535	38.23
325.748	58.71
325.962	71
326.175	48.47
326.388	-0.68
326.601	87.38
326.814	44.37
327.027	50.52
327.24	167.25
327.453	-23.21
327.666	32.08
327.879	75.09
328.092	91.48
328.305	-8.87
328.518	64.85
328.731	56.66
328.944	5.46
329.157	58.71
329.37	23.89
329.583	120.15
329.796	89.43
330.009	27.99
330.222	83.28
330.435	101.72
330.648	89.43
330.861	64.85
331.073	48.47
331.286	71
331.499	83.28
331.712	17.75
331.925	23.89
332.138	34.13
332.35	85.33
332.563	-27.31
332.776	15.7
332.989	60.76
333.202	5.46
333.414	25.94
333.627	-0.68
333.84	3.41
334.053	7.51
334.265	34.13
334.478	11.61
334.691	-0.68
334.903	42.32
335.116	-19.11
335.329	44.37
335.541	21.85
335.754	152.91
335.966	54.61
336.179	71
336.392	50.52
336.604	32.08
336.817	34.13
337.029	60.76
337.242	116.05
337.454	48.47
337.667	19.8
337.88	161.11
338.092	-6.83
338.305	62.8
338.517	62.8
338.729	138.58
338.942	181.59
339.154	-35.5
339.367	-47.79
339.579	-0.68
339.792	-6.83
340.004	85.33
340.217	48.47
340.429	107.86
340.641	42.32
340.854	-12.97
341.066	105.81
341.278	52.56
341.491	103.76
341.703	30.04
341.915	34.13
342.128	40.28
342.34	60.76
342.552	-2.73
342.764	83.28
342.977	58.71
343.189	19.8
343.401	11.61
343.613	15.7
343.826	36.18
344.038	7.51
344.25	32.08
344.462	77.14
344.674	27.99
344.886	83.28
345.099	58.71
345.311	85.33
345.523	9.56
345.735	-64.17
345.947	27.99
346.159	17.75
346.371	60.76
346.583	15.7
346.795	130.39
347.007	-10.92
347.219	83.28
347.431	77.14
347.643	46.42
347.855	15.7
348.067	73.04
348.279	19.8
348.491	19.8
348.703	146.77
348.915	-37.55
349.127	15.7
349.339	21.85
349.551	-0.68
349.763	116.05
349.975	46.42
350.187	34.13
350.399	-25.26
350.61	34.13
350.822	5.46
351.034	21.85
351.246	46.42
351.458	23.89
351.669	38.23
351.881	62.8
352.093	54.61
352.305	81.24
352.517	30.04
352.728	75.09
352.94	48.47
353.152	93.52
353.363	19.8
353.575	21.85
353.787	93.52
353.999	54.61
354.21	111.96
354.422	-2.73
354.633	-39.59
354.845	91.48
355.057	105.81
355.268	-4.78
355.48	44.37
355.692	-19.11
355.903	116.05
356.115	-21.16
356.326	-68.27
356.538	58.71
356.749	27.99
356.961	144.72
357.172	38.23
357.384	-2.73
357.595	124.24
357.807	99.67
358.018	-25.26
358.23	-10.92
358.441	54.61
358.653	148.82
358.864	95.57
359.075	-27.31
359.287	73.04
359.498	120.15
359.709	122.2
359.921	19.8
360.132	-31.4
360.344	54.61
360.555	7.51
360.766	68.95
360.977	64.85
361.189	44.37
361.4	15.7
361.611	99.67
361.823	95.57
362.034	107.86
362.245	30.04
362.456	3.41
362.667	58.71
362.879	21.85
363.09	95.57
363.301	48.47
363.512	40.28
363.723	-19.11
363.935	46.42
364.146	64.85
364.357	81.24
364.568	-6.83
364.779	-8.87
364.99	15.7
365.201	1.37
365.412	-4.78
365.623	-8.87
365.834	75.09
366.045	40.28
366.256	-10.92
366.467	107.86
366.678	71
366.889	40.28
367.1	-15.02
367.311	138.58
367.522	68.95
367.733	87.38
367.944	46.42
368.155	38.23
368.366	75.09
368.577	138.58
368.788	81.24
368.999	30.04
369.209	9.56
369.42	161.11
369.631	105.81
369.842	23.89
370.053	19.8
370.264	42.32
370.474	66.9
370.685	32.08
370.896	34.13
371.107	91.48
371.317	83.28
371.528	-19.11
371.739	175.44
371.95	97.62
372.16	54.61
372.371	-60.07
372.582	62.8
372.792	79.19
373.003	56.66
373.214	-4.78
373.424	68.95
373.635	48.47
373.846	87.38
374.056	71
374.267	13.65
374.477	83.28
374.688	44.37
374.898	52.56
375.109	71
375.319	75.09
375.53	132.44
375.74	-21.16
375.951	46.42
376.161	97.62
376.372	116.05
376.582	27.99
376.793	87.38
377.003	-21.16
377.214	46.42
377.424	66.9
377.635	-4.78
377.845	75.09
378.055	79.19
378.266	13.65
378.476	40.28
378.686	7.51
378.897	50.52
379.107	38.23
379.317	85.33
379.528	19.8
379.738	126.29
379.948	-2.73
380.158	101.72
380.369	101.72
380.579	79.19
380.789	38.23
380.999	73.04
381.21	154.96
381.42	132.44
381.63	60.76
381.84	101.72
382.05	40.28
382.261	30.04
382.471	81.24
382.681	21.85
382.891	97.62
383.101	56.66
383.311	83.28
383.521	42.32
383.731	81.24
383.941	48.47
384.151	25.94
384.361	79.19
384.571	48.47
384.781	30.04
384.991	97.62
385.201	189.78
385.411	83.28
385.621	91.48
385.831	68.95
386.041	19.8
386.251	19.8
386.461	111.96
386.671	-6.83
386.881	118.1
387.091	9.56
387.301	89.43
387.511	87.38
387.72	116.05
387.93	116.05
388.14	5.46
388.35	73.04
388.56	68.95
388.769	38.23
388.979	75.09
389.189	62.8
389.399	91.48
389.609	50.52
389.818	66.9
390.028	103.76
390.238	48.47
390.447	54.61
390.657	46.42
390.867	27.99
391.076	64.85
391.286	50.52
391.496	30.04
391.705	79.19
391.915	132.44
392.125	120.15
392.334	171.35
392.544	136.53
392.753	44.37
392.963	36.18
393.172	122.2
393.382	64.85
393.591	173.39
393.801	5.46
394.01	81.24
394.22	122.2
394.429	68.95
394.639	83.28
394.848	128.34
395.058	83.28
395.267	19.8
395.477	56.66
395.686	66.9
395.895	95.57
396.105	140.63
396.314	138.58
396.524	40.28
396.733	-31.4
396.942	171.35
397.152	85.33
397.361	75.09
397.57	15.7
397.78	140.63
397.989	167.25
398.198	128.34
398.407	101.72
398.617	54.61
398.826	140.63
399.035	152.91
399.244	150.87
399.453	183.63
399.663	97.62
399.872	144.72
400.081	-8.87
400.29	177.49
400.499	66.9
400.708	197.97
400.917	99.67
401.127	146.77
401.336	91.48
401.545	165.2
401.754	193.87
401.963	197.97
402.172	136.53
402.381	118.1
402.59	42.32
402.799	177.49
403.008	124.24
403.217	138.58
403.426	146.77
403.635	99.67
403.844	132.44
404.053	120.15
404.262	148.82
404.471	204.11
404.68	126.29
404.888	169.3
405.097	105.81
405.306	154.96
405.515	183.63
405.724	185.68
405.933	175.44
406.142	144.72
406.35	187.73
406.559	140.63
406.768	120.15
406.977	257.36
407.185	212.31
407.394	165.2
407.603	179.54
407.812	222.55
408.02	275.79
408.229	265.55
408.438	173.39
408.646	202.07
408.855	222.55
409.064	259.41
409.272	249.17
409.481	318.8
409.69	263.51
409.898	333.14
410.107	283.98
410.315	370
410.524	259.41
410.733	374.1
410.941	292.18
411.15	398.67
411.358	376.14
411.567	466.25
411.775	324.94
411.984	431.44
412.192	423.25
412.401	427.34
412.609	480.59
412.818	509.26
413.026	476.49
413.234	439.63
413.443	521.55
413.651	462.16
413.86	521.55
414.068	523.6
414.276	623.95
414.485	513.36
414.693	681.29
414.901	722.25
415.11	662.86
415.318	646.48
415.526	720.2
415.734	714.06
415.943	740.68
416.151	812.36
416.359	728.39
416.567	824.65
416.776	927.05
416.984	814.41
417.192	963.91
417.4	1006.92
417.608	865.61
417.817	1037.64
418.025	992.58
418.233	1037.64
418.441	1045.83
418.649	1176.9
418.857	1226.05
419.065	1367.36
419.273	1187.14
419.481	1310.02
419.689	1359.17
419.897	1422.66
420.105	1520.96
420.313	1520.96
420.521	1596.73
420.729	1570.11
420.937	1570.11
421.145	1746.23
421.353	1846.59
421.561	1930.55
421.769	1918.26
421.977	1963.32
422.185	1887.54
422.393	2055.48
422.601	2219.32
422.809	2080.05
423.017	2239.8
423.224	2315.57
423.432	2383.15
423.64	2374.96
423.848	2610.48
424.056	2581.81
424.263	2809.13
424.471	2716.97
424.679	2852.14
424.887	3061.03
425.094	3073.32
425.302	3142.95
425.51	3073.32
425.718	3226.92
425.925	3335.46
426.133	3335.46
426.341	3677.47
426.548	3708.19
426.756	3966.23
426.964	3927.32
427.171	3982.62
427.379	4109.59
427.586	4037.91
427.794	4373.78
428.001	4562.19
428.209	4742.41
428.417	4658.45
428.624	4947.21
428.832	4973.83
429.039	4918.54
429.247	4881.67
429.454	5473.54
429.662	5862.65
429.869	5463.3
430.076	5856.51
430.284	5823.74
430.491	5799.16
430.699	6192.37
430.906	6231.29
431.114	6317.3
431.321	6526.19
431.528	6663.41
431.736	7122.15
431.943	7378.15
432.15	7204.07
432.358	7374.05
432.565	7861.47
432.772	7709.92
432.979	8058.07
433.187	8158.42
433.394	8226.01
433.601	8783.06
433.808	8844.49
434.016	8666.32
434.223	9192.65
434.43	9706.69
434.637	9606.34
434.844	10212.54
435.052	10335.42
435.259	10364.09
435.466	10302.65
435.673	10273.98
435.88	10859.7
436.087	11529.38
436.294	11439.27
436.501	11433.13
436.708	11402.41
436.915	11703.46
437.122	12311.71
437.329	12358.81
437.537	12881.04
437.743	12833.94
437.95	12874.9
438.157	13360.27
438.364	14224.51
438.571	13853.83
438.778	14005.38
438.985	15320.17
439.192	14910.58
439.399	15008.88
439.606	14943.35
439.813	15504.49
440.02	16794.71
440.227	16471.13
440.433	16241.76
440.64	16751.7
440.847	16796.76
441.054	17149.01
441.261	18234.43
441.467	17984.58
441.674	18410.56
441.881	18998.32
442.088	18973.75
442.294	18805.81
442.501	19348.53
442.708	19696.68
442.914	20399.13
443.121	21388.3
443.328	20685.85
443.534	22326.27
443.741	21412.88
443.948	21554.19
444.154	22985.72
444.361	23047.16
444.568	22881.27
444.774	23045.11
444.981	23333.87
445.187	24036.33
445.394	24800.22
445.6	24706.01
445.807	27059.13
446.013	25822.16
446.22	26299.33
446.426	27235.25
446.633	27466.67
446.839	28885.92
447.046	27343.8
447.252	29162.39
447.459	28957.6
447.665	28967.84
447.871	30221.19
448.078	31572.85
448.284	29619.09
448.491	30874.49
448.697	31869.81
448.903	32551.78
449.11	32594.79
449.316	32338.79
449.522	32699.23
449.728	33557.33
449.935	33940.3
450.141	33872.72
450.347	35040.06
450.553	33825.62
450.76	34212.68
450.966	35476.28
451.172	34849.6
451.378	35717.94
451.584	34980.67
451.791	36156.21
451.997	35971.89
452.203	36551.46
452.409	36768.55
452.615	36827.94
452.821	35203.9
453.027	34724.68
453.233	36594.47
453.44	35070.78
453.646	35699.51
453.852	35642.17
454.058	36530.98
454.264	35023.68
454.47	35937.07
454.676	34886.46
454.882	36295.47
455.088	32842.59
455.294	33444.69
455.5	34165.58
455.705	34552.65
455.911	32750.43
456.117	32893.79
456.323	31945.58
456.529	30217.1
456.735	31845.23
456.941	31124.35
457.147	30471.04
457.352	29666.19
457.558	29275.03
457.764	29641.62
457.97	28990.36
458.176	28031.91
458.381	28208.04
458.587	27034.55
458.793	26833.85
458.999	25486.29
459.204	27597.74
459.41	26405.83
459.616	24548.32
459.821	24873.95
460.027	24949.72
460.233	24159.2
460.438	22967.29
460.644	23358.45
460.85	22121.48
461.055	22078.47
461.261	21713.93
461.466	20188.19
461.672	19696.68
461.878	21005.33
462.083	19412.01
462.289	19227.7
462.494	18947.12
462.7	18158.66
462.905	17857.6
463.111	18361.41
463.316	18445.37
463.522	18138.18
463.727	17972.29
463.932	17888.32
464.138	17667.14
464.343	17796.17
464.549	17376.33
464.754	18140.22
464.959	17736.77
465.165	17269.84
465.37	17013.84
465.575	16321.63
465.781	16970.83
465.986	17009.75
466.191	16378.97
466.397	16098.4
466.602	15236.2
466.807	15965.28
467.012	16014.43
467.218	15846.5
467.423	15793.25
467.628	15881.31
467.833	16213.09
468.038	15946.85
468.244	15422.57
468.449	16188.51
468.654	15541.35
468.859	15400.04
469.064	15217.77
469.269	14795.89
469.474	14986.35
469.679	15025.26
469.885	14734.45
470.09	14660.73
470.295	14582.9
470.5	14206.08
470.705	14578.81
470.91	14388.35
471.115	14095.49
471.32	14290.04
471.525	14302.33
471.73	13853.83
471.935	13917.31
472.139	13460.62
472.344	13409.42
472.549	13296.78
472.754	13425.8
472.959	12977.3
473.164	12534.93
473.369	12477.59
473.574	13028.49
473.778	13102.22
473.983	12858.51
474.188	12588.18
474.393	12217.5
474.598	12395.67
474.802	12024.99
475.007	11873.44
475.212	12149.92
475.417	11672.74
475.621	11762.85
475.826	11576.48
476.031	11568.29
476.235	11132.08
476.44	11517.09
476.645	11119.79
476.849	10992.81
477.054	11033.77
477.259	10704.05
477.463	10880.18
477.668	10671.28
477.872	10697.91
478.077	10513.59
478.282	10128.57
478.486	10280.12
478.691	10020.03
478.895	10058.94
479.1	9872.57
479.304	9979.07
479.509	9616.58
479.713	10056.89
479.918	9544.9
480.122	9663.68
480.326	9688.26
480.531	9845.95
480.735	9620.67
480.94	9520.32
481.144	9649.35
481.348	9434.31
481.553	9209.03
481.757	9129.16
481.961	9188.55
482.166	9344.2
482.37	9417.93
482.574	9295.05
482.778	9256.14
482.983	9469.12
483.187	9200.84
483.391	9358.53
483.595	9270.47
483.8	9139.4
484.004	9333.96
484.208	9338.05
484.412	9284.81
484.616	9352.39
484.821	9209.03
485.025	9276.62
485.229	9266.38
485.433	9204.94
485.637	9235.66
485.841	9090.25
486.045	9157.83
486.249	9010.38
486.453	9059.53
486.657	9276.62
486.861	9178.31
487.065	9108.68
487.269	9039.05
487.473	8916.17
487.677	9413.83
487.881	9528.52
488.085	9284.81
488.289	9245.9
488.493	9323.72
488.697	9280.71
488.901	9311.43
489.105	9272.52
489.309	9198.79
489.512	9329.86
489.716	9170.12
489.92	9190.6
490.124	9520.32
490.328	9514.18
490.531	9407.69
490.735	9483.46
490.939	9428.17
491.143	9434.31
491.346	9673.92
491.55	9757.89
491.754	9415.88
491.958	9665.73
492.161	9446.6
492.365	9538.76
492.569	9706.69
492.772	9608.39
492.976	9983.17
493.18	9831.62
493.383	10054.84
493.587	10001.6
493.79	10216.63
493.994	9878.72
494.197	10310.84
494.401	10235.07
494.605	10122.43
494.808	10450.1
495.012	10353.85
495.215	10489.01
495.419	10472.63
495.622	10425.53
495.825	10511.54
496.029	10476.73
496.232	10992.81
496.436	10720.43
496.639	11240.62
496.843	11025.58
497.046	11402.41
497.249	11525.29
497.453	11422.89
497.656	11762.85
497.859	11494.57
498.063	11670.69
498.266	12061.85
498.469	11844.77
498.673	12100.76
498.876	12117.15
499.079	12432.54
499.282	12311.71
499.485	12577.94
499.689	12647.57
499.892	12895.38
500.095	12752.02
500.298	13278.35
500.501	12979.34
500.705	13489.29
500.908	13499.53
501.111	13741.19
501.314	13493.38
501.517	13964.42
501.72	14060.67
501.923	13993.09
502.126	14437.5
502.329	14597.24
502.532	14939.25
502.735	14775.41
502.938	15076.46
503.141	15123.57
503.344	15330.41
503.547	15455.34
503.75	15496.3
503.953	15834.21
504.156	15985.76
504.359	16084.06
504.562	16000.1
504.765	16622.68
504.968	16692.31
505.17	16698.45
505.373	17073.23
505.576	17331.28
505.779	17329.23
505.982	17316.94
506.185	17988.67
506.387	17802.31
506.59	17968.2
506.793	18195.52
506.996	18189.38
507.198	18779.19
507.401	18613.31
507.604	18902.07
507.807	19338.29
508.009	19186.74
508.212	19536.94
508.415	19782.7
508.617	19993.64
508.82	19907.62
509.022	20194.34
509.225	20501.53
509.428	20657.18
509.63	20706.33
509.833	21003.28
510.035	21681.16
510.238	21224.47
510.44	21695.5
510.643	21902.34
510.845	22250.5
511.048	21990.41
511.25	22221.83
511.453	22582.27
511.655	23094.26
511.858	22971.38
512.06	23395.31
512.262	23587.82
512.465	23428.08
512.667	23907.3
512.87	24298.47
513.072	24277.99
513.274	24488.93
513.477	24908.76
513.679	25197.52
513.881	25383.89
514.084	25504.72
514.286	25660.37
514.488	26059.72
514.69	26692.54
514.893	26571.71
515.095	26627.01
515.297	26883
515.499	26862.52
515.701	27321.27
515.904	27554.74
516.106	27804.59
516.308	28289.96
516.51	28730.27
516.712	28339.11
516.914	28791.71
517.116	29078.43
517.318	29391.76
517.52	29475.73
517.722	29588.37
517.925	30073.74
518.127	30030.73
518.329	30706.56
518.531	30133.13
518.733	30727.04
518.935	31191.93
519.136	31236.98
519.338	31734.64
519.54	31581.04
519.742	31900.53
519.944	32076.65
520.146	32940.89
520.348	32924.51
520.55	32662.37
520.752	33399.64
520.954	34005.84
521.155	33450.84
521.357	34304.84
521.559	34349.9
521.761	34839.36
521.963	34495.3
522.164	34775.87
522.366	35023.68
522.568	35062.59
522.77	35490.62
522.971	36168.49
523.173	36197.16
523.375	36266.8
523.576	36315.95
523.778	36184.88
523.98	36965.15
524.181	37319.45
524.383	37038.88
524.584	37487.39
524.786	38150.93
524.988	37856.02
525.189	37966.61
525.391	38216.46
525.592	38411.02
525.794	38419.21
525.995	38753.03
526.197	39009.03
526.398	38720.26
526.6	39346.94
526.801	39248.64
527.003	39449.34
527.204	39480.06
527.406	39897.84
527.607	39758.58
527.808	40270.57
528.01	39746.29
528.211	40139.5
528.412	40741.61
528.614	40725.22
528.815	40434.41
529.016	41153.25
529.218	40504.04
529.419	40588.01
529.62	40813.29
529.822	40964.84
530.023	41157.35
530.224	41339.61
530.425	41274.08
530.626	40993.51
530.828	41063.14
531.029	41908.95
531.23	40889.06
531.431	41640.67
531.632	42017.49
531.833	41775.83
532.035	41568.99
532.236	41894.61
532.437	42314.45
532.638	41370.33
532.839	41980.63
533.04	41992.92
533.241	41728.73
533.442	42803.91
533.643	42001.11
533.844	42070.74
534.045	41904.85
534.246	41802.46
534.447	42173.14
534.648	42156.75
534.849	42150.61
535.05	42277.58
535.251	42445.52
535.451	42050.26
535.652	42334.93
535.853	42234.58
536.054	42187.47
536.255	42502.86
536.456	42320.59
536.657	42316.5
536.857	42642.12
537.058	42115.79
537.259	42814.15
537.46	42552.01
537.66	42195.67
537.861	42447.57
538.062	42189.52
538.263	42238.67
538.463	42312.4
538.664	42511.05
538.865	42592.97
539.065	42492.62
539.266	42136.27
539.466	42422.99
539.667	41890.52
539.868	42883.78
540.068	42681.03
540.269	42191.57
540.469	42603.21
540.67	42093.27
540.87	42318.54
541.071	42205.91
541.271	42580.68
541.472	42197.71
541.672	42162.9
541.873	42025.68
542.073	41411.29
542.274	42418.89
542.474	42291.92
542.675	42048.21
542.875	42576.59
543.075	42142.42
543.276	41908.95
543.476	42390.22
543.676	41820.89
543.877	42644.17
544.077	42193.62
544.277	41931.48
544.478	41999.06
544.678	42541.77
544.878	42058.45
545.078	42351.31
545.279	41659.1
545.479	41638.62
545.679	42261.2
545.879	41788.12
546.079	42234.58
546.28	42242.77
546.48	41650.91
546.68	42330.83
546.88	42234.58
547.08	41896.66
547.28	42197.71
547.48	41558.75
547.68	41876.18
547.88	41411.29
548.081	42171.09
548.281	41732.82
548.481	41997.01
548.681	42232.53
548.881	41859.8
549.081	41890.52
549.28	41814.74
549.48	42095.31
549.68	41837.27
549.88	41988.82
550.08	41814.74
550.28	41947.86
550.48	41640.67
550.68	42250.96
550.88	41579.23
551.08	41790.17
551.279	41788.12
551.479	41235.17
551.679	41990.87
551.879	41853.65
552.079	41933.53
552.278	41564.89
552.478	41482.97
552.678	41542.36
552.878	41876.18
553.077	41560.8
553.277	41034.47
553.477	41882.33
553.676	41286.37
553.876	41403.1
554.076	41265.89
554.275	41356
554.475	40862.44
554.674	41421.53
554.874	41507.55
555.074	41030.37
555.273	41120.48
555.473	41521.88
555.672	40669.93
555.872	40749.8
556.071	41202.4
556.271	41286.37
556.47	40798.95
556.67	40561.39
556.869	40708.84
557.068	41229.02
557.268	40911.59
557.467	40600.3
557.667	40755.94
557.866	40700.65
558.065	40569.58
558.265	40350.45
558.464	40366.83
558.663	40907.49
558.863	40127.22
559.062	40837.86
559.261	40073.97
559.461	40870.63
559.66	39652.09
559.859	40049.39
560.058	39715.58
560.258	40110.83
560.457	39873.27
560.656	40151.79
560.855	39834.36
561.054	40133.36
561.253	39668.47
561.453	39469.82
561.652	39566.07
561.851	39590.65
562.05	39715.58
562.249	39174.91
562.448	39592.7
562.647	39262.97
562.846	39242.49
563.045	39199.49
563.244	38849.28
563.443	39228.16
563.642	38351.63
563.841	38593.29
564.04	38591.24
564.239	39291.65
564.438	38525.71
564.637	38542.09
564.836	38566.66
565.035	38230.8
565.234	38292.24
565.432	38126.35
565.631	38116.11
565.83	38069.01
566.029	37970.71
566.228	37937.94
566.427	37647.13
566.625	37622.55
566.824	37104.42
567.023	38079.25
567.222	36850.47
567.42	37653.27
567.619	37319.45
567.818	37016.35
568.016	37188.38
568.215	37278.49
568.414	36920.1
568.612	37071.65
568.811	36860.71
569.01	37116.7
569.208	36432.68
569.407	37006.11
569.605	36518.7
569.804	36612.9
570.002	36115.25
570.201	36231.98
570.4	36053.81
570.598	36256.56
570.797	35547.96
570.995	35849.01
571.193	35636.02
571.392	36236.08
571.59	35730.23
571.789	35570.49
571.987	35269.44
572.186	35324.73
572.384	35314.49
572.582	35427.13
572.781	35461.94
572.979	35081.02
573.177	35304.25
573.376	35066.69
573.574	34861.89
573.772	34954.05
573.971	34849.6
574.169	34478.92
574.367	34206.54
574.565	34868.03
574.763	34507.59
574.962	34196.3
575.16	34067.28
575.358	33985.36
575.556	33459.03
575.754	33901.39
575.952	33583.96
576.151	33925.97
576.349	33205.08
576.547	33772.37
576.745	33604.44
576.943	33848.14
577.141	33471.32
577.339	33608.53
577.537	32895.84
577.735	32852.83
577.933	32820.06
578.131	33194.84
578.329	33037.15
578.527	32949.09
578.725	32930.65
578.923	32633.7
579.121	32547.68
579.319	32615.27
579.516	32093.04
579.714	32648.04
579.912	32027.5
580.11	31886.19
580.308	32340.84
580.506	31906.67
580.704	31470.45
580.901	31982.45
581.099	32353.13
581.297	31779.7
581.495	31675.25
581.692	31796.08
581.89	31097.72
582.088	31701.87
582.285	31304.57
582.483	31531.89
582.681	31325.05
582.878	30823.29
583.076	31142.78
583.274	31148.92
583.471	30663.55
583.669	30796.67
583.866	30759.81
584.064	30792.58
584.262	30630.79
584.459	30284.68
584.657	30337.93
584.854	30688.13
585.052	29455.25
585.249	30337.93
585.447	29950.86
585.644	29930.38
585.841	29879.18
586.039	29875.09
586.236	29928.33
586.434	29565.84
586.631	29739.92
586.828	29246.36
587.026	29502.36
587.223	29320.09
587.42	28945.31
587.618	29344.66
587.815	28760.99
588.012	28844.96
588.21	28951.45
588.407	29281.17
588.604	28844.96
588.801	28660.64
588.999	28257.19
589.196	28568.48
589.393	28595.1
589.59	28519.33
589.787	28500.9
589.984	28298.15
590.182	27896.75
590.379	28224.42
590.576	28130.22
590.773	28093.35
590.97	27505.59
591.167	27648.94
591.364	27554.74
591.561	27677.61
591.758	27208.63
591.955	27390.9
592.152	27519.92
592.349	27407.28
592.546	27216.82
592.743	27220.92
592.94	26719.17
593.137	26815.42
593.334	27333.56
593.531	26598.34
593.727	26876.86
593.924	26545.09
594.121	26424.26
594.318	26579.9
594.515	26166.21
594.712	26432.45
594.908	26026.95
595.105	26049.48
595.302	25885.64
595.499	26198.98
595.696	25703.37
595.892	25811.92
596.089	26022.86
596.286	26029
596.482	25261.01
596.679	25430.99
596.876	25430.99
597.072	25256.92
597.269	25590.73
597.466	25084.89
597.662	24914.91
597.859	25111.51
598.055	25271.25
598.252	24914.91
598.448	24959.96
598.645	24716.25
598.841	24706.01
599.038	24800.22
599.234	24656.86
599.431	24800.22
599.627	24204.26
599.824	24667.1
600.02	24118.25
600.217	24118.25
600.413	24337.38
600.609	23938.02
600.806	24065
601.002	24171.49
601.198	24005.61
601.395	23753.71
601.591	23948.26
601.787	23749.61
601.984	23497.71
602.18	23602.16
602.376	23532.53
602.572	23333.87
602.769	23464.94
602.965	23073.78
603.161	23288.82
603.357	23342.07
603.553	23178.23
603.75	23084.02
603.946	22709.24
604.142	22950.9
604.338	22582.27
604.534	22885.37
604.73	22653.95
604.926	22502.4
605.122	22715.39
605.318	22545.41
605.514	22547.45
605.71	22289.41
605.906	22101
606.102	22256.64
606.298	22002.69
606.494	22311.94
606.69	22420.48
606.886	21869.58
607.082	21507.09
607.278	22031.37
607.474	21472.27
607.67	21877.77
607.866	21445.65
608.062	21808.14
608.257	21308.43
608.453	21421.07
608.649	21806.09
608.845	21324.82
609.041	21541.9
609.236	21507.09
609.432	21181.46
609.628	21191.7
609.824	21306.38
610.019	21074.96
610.215	21040.15
610.411	21333.01
610.606	20945.94
610.802	21083.16
610.998	20993.04
611.193	20864.02
611.389	20780.06
611.584	20634.65
611.78	20554.78
611.976	20392.99
612.171	20706.33
612.367	20585.5
612.562	20438.05
612.758	20409.37
612.953	20313.12
613.149	20653.08
613.344	20399.13
613.539	20845.59
613.735	20495.39
613.93	20306.98
614.126	20198.43
614.321	20458.53
614.517	20401.18
614.712	20030.5
614.907	20175.91
615.103	20190.24
615.298	19903.53
615.493	20284.45
615.688	19770.41
615.884	20241.44
616.079	19819.56
616.274	20016.16
616.47	19944.49
616.665	19731.5
616.86	19655.72
617.055	19688.49
617.25	19399.73
617.445	19850.28
617.641	19315.76
617.836	19571.75
618.031	19362.86
618.226	19633.19
618.421	19248.18
618.616	19487.79
618.811	18949.17
619.006	19608.62
619.201	18797.62
619.396	18938.93
619.591	18787.38
619.786	18936.88
619.981	18572.35
620.176	19026.99
620.371	18826.29
620.566	18961.46
620.761	18371.65
620.956	18586.68
621.151	18562.11
621.346	18275.39
621.541	18021.44
621.735	18496.57
621.93	17976.39
622.125	18154.56
622.32	17419.34
622.515	17890.37
622.709	17830.98
622.904	17867.84
623.099	17632.33
623.294	17661
623.488	17347.66
623.683	17691.72
623.878	17110.1
624.072	17204.3
624.267	17142.86
624.462	16911.44
624.656	16618.58
624.851	16823.38
625.046	16647.26
625.24	16487.51
625.435	16442.46
625.629	16585.82
625.824	16249.95
626.018	16434.27
626.213	15989.86
626.407	16260.19
626.602	15815.78
626.796	16071.78
626.991	15733.86
627.185	15897.7
627.38	15750.24
627.574	15553.64
627.768	15502.44
627.963	15293.55
628.157	15072.37
628.352	15189.1
628.546	15105.13
628.74	15248.49
628.935	14859.38
629.129	14955.63
629.323	14707.83
629.517	14675.06
629.712	14916.72
629.906	14648.44
630.1	14529.66
630.294	14724.21
630.489	14533.75
630.683	14443.64
630.877	14193.79
631.071	14142.59
631.265	14152.83
631.459	14085.25
631.653	13939.84
631.848	13636.74
632.042	13679.75
632.236	13657.22
632.43	13554.82
632.624	13517.96
632.818	13544.58
633.012	13347.98
633.206	13257.87
633.4	13304.97
633.594	13243.53
633.788	13161.61
633.982	13264.01
634.176	13132.94
634.369	12907.66
634.563	12878.99
634.757	12741.78
634.951	12833.94
635.145	12825.75
635.339	12633.24
635.533	12596.37
635.726	12670.1
635.92	12401.82
636.114	12244.12
636.308	12235.93
636.501	12338.33
636.695	12145.82
636.889	12047.52
637.083	11898.02
637.276	11975.84
637.47	11981.98
637.664	11885.73
637.857	11822.24
638.051	11812
638.244	11709.6
638.438	11525.29
638.632	11574.44
638.825	11523.24
639.019	11314.34
639.212	11498.66
639.406	11637.92
639.599	11355.3
639.793	11228.33
639.986	11111.6
640.18	10976.43
640.373	11039.92
640.567	11236.52
640.76	11132.08
640.954	10687.67
641.147	10865.84
641.34	10693.81
641.534	10658.99
641.727	10562.74
641.92	10706.1
642.114	10540.21
642.307	10581.17
642.5	10474.68
642.694	10288.31
642.887	10120.38
643.08	10503.35
643.273	10441.91
643.467	10282.17
643.66	10069.18
643.853	9991.36
644.046	9860.29
644.239	10081.47
644.432	9897.15
644.626	9929.92
644.819	9786.56
645.012	9651.39
645.205	9866.43
645.398	9704.64
645.591	9628.87
645.784	9602.24
645.977	9397.45
646.17	9489.6
646.363	9233.61
646.556	9331.91
646.749	9268.42
646.942	9249.99
647.135	9190.6
647.328	9118.92
647.521	9274.57
647.714	8772.82
647.907	9065.67
648.099	8973.52
648.292	9131.21
648.485	8926.41
648.678	8733.9
648.871	8699.09
649.064	8604.88
649.256	8580.31
649.449	8776.91
649.642	8555.73
649.835	8635.6
650.027	8574.16
650.22	8496.34
650.413	8434.9
650.605	8389.85
650.798	8217.82
650.991	8305.88
651.183	8260.82
651.376	8316.12
651.568	8070.36
651.761	8127.71
651.954	8125.66
652.146	8209.62
652.339	8262.87
652.531	7972.06
652.724	8017.11
652.916	7779.55
653.109	7849.18
653.301	7886.04
653.494	7914.72
653.686	7472.36
653.879	7607.52
654.071	7634.14
654.263	7623.9
654.456	7650.53
654.648	7531.75
654.84	7406.82
655.033	7402.72
655.225	7322.85
655.417	7455.97
655.61	7558.37
655.802	7318.76
655.994	7460.07
656.186	7308.52
656.379	7238.89
656.571	7058.67
656.763	6995.18
656.955	7144.68
657.148	7128.3
657.34	7177.45
657.532	6956.27
657.724	6952.17
657.916	6890.73
658.108	6933.74
658.3	6882.54
658.492	6886.64
658.684	6587.63
658.876	6751.47
659.068	6796.53
659.26	6661.36
659.452	6675.7
659.644	6657.26
659.836	6597.87
660.028	6620.4
660.22	6464.75
660.412	6470.9
660.604	6583.54
660.796	6438.13
660.988	6511.86
661.18	6442.23
661.372	6356.21
661.563	6321.4
661.755	6253.81
661.947	6216.95
662.139	6192.37
662.331	6049.02
662.522	6092.02
662.714	6204.66
662.906	6132.98
663.097	6022.39
663.289	6163.7
663.481	6036.73
663.673	6118.65
663.864	6014.2
664.056	6028.54
664.247	6022.39
664.439	5688.57
664.631	5885.18
664.822	5879.04
665.014	5948.67
665.205	5831.93
665.397	5723.39
665.588	5793.02
665.78	5768.45
665.971	5823.74
666.163	5649.66
666.354	5670.14
666.546	5584.13
666.737	5541.12
666.929	5528.83
667.12	5496.07
667.311	5516.55
667.503	5674.24
667.694	5489.92
667.885	5629.18
668.077	5494.02
668.268	5350.66
668.459	5489.92
668.651	5283.08
668.842	5367.04
669.033	5209.35
669.224	5307.65
669.416	5514.5
669.607	5244.17
669.798	5301.51
669.989	5330.18
670.18	5258.5
670.371	5231.88
670.563	5213.45
670.754	5321.99
670.945	5113.1
671.136	5317.89
671.327	5090.57
671.518	5149.96
671.709	5123.34
671.9	5172.49
672.091	5055.75
672.282	4936.97
672.473	4957.45
672.664	5178.63
672.855	4973.83
673.046	4941.07
673.237	5080.33
673.428	4967.69
673.619	5053.7
673.809	4988.17
674	5102.86
674.191	4971.79
674.382	4912.39
674.573	4975.88
674.764	4979.98
674.954	5117.19
675.145	4834.57
675.336	4842.76
675.527	4891.91
675.717	4830.48
675.908	4871.43
676.099	4838.67
676.289	4740.36
676.48	4918.54
676.671	4701.45
676.861	4797.71
677.052	4797.71
677.243	4734.22
677.433	4844.81
677.624	4863.24
677.814	4646.16
678.005	4850.96
678.195	4650.25
678.386	4855.05
678.576	4719.89
678.767	4693.26
678.957	4676.88
679.148	4879.63
679.338	4615.44
679.529	4756.75
679.719	4861.2
679.909	4846.86
680.1	4707.6
680.29	4660.49
680.481	4609.3
680.671	4723.98
680.861	4703.5
681.052	4709.65
681.242	4588.82
681.432	4732.17
681.622	4689.17
681.813	4588.82
682.003	4713.74
682.193	4558.1
682.383	4721.93
682.573	4752.65
682.764	4476.18
682.954	4746.51
683.144	4693.26
683.334	4703.5
683.524	4640.01
683.714	4564.24
683.904	4570.38
684.094	4500.75
684.284	4635.92
684.474	4510.99
684.664	4560.14
684.854	4582.67
685.044	4558.1
685.234	4543.76
685.424	4390.16
685.614	4504.85
685.804	4443.41
685.994	4441.36
686.184	4437.27
686.374	4472.08
686.564	4470.03
686.753	4474.13
686.943	4271.38
687.133	4455.7
687.323	4226.32
687.513	4355.35
687.702	4211.99
687.892	4250.9
688.082	4369.68
688.272	4287.76
688.461	4244.76
688.651	4191.51
688.841	4183.32
689.03	4025.62
689.22	4109.59
689.41	4062.49
689.599	4142.36
689.789	4142.36
689.979	4255
690.168	4023.58
690.358	4060.44
690.547	4054.3
690.737	3999
690.926	4117.78
691.116	3822.88
691.305	4105.49
691.495	4044.06
691.684	3902.75
691.874	3820.83
692.063	3882.27
692.252	3929.37
692.442	3845.4
692.631	3822.88
692.82	3773.72
693.01	3794.2
693.199	3829.02
693.388	3747.1
693.578	3708.19
693.767	3763.48
693.956	3743
694.146	3632.41
694.335	3843.35
694.524	3663.13
694.713	3613.98
694.902	3538.21
695.092	3581.21
695.281	3562.78
695.47	3573.02
695.659	3609.89
695.848	3632.41
696.037	3478.82
696.226	3472.67
696.415	3546.4
696.604	3601.69
696.793	3509.54
696.982	3609.89
697.171	3501.34
697.36	3566.88
697.549	3437.86
697.738	3468.58
697.927	3400.99
698.116	3388.71
698.305	3435.81
698.494	3532.06
698.683	3378.47
698.872	3573.02
699.061	3538.21
699.25	3423.52
699.438	3527.97
699.627	3286.31
699.816	3556.64
700.005	3339.55
700.193	3509.54
700.382	3487.01
700.571	3374.37
700.76	3480.86
700.948	3523.87
701.137	3382.56
701.326	3472.67
701.514	3417.38
701.703	3534.11
701.892	3380.51
702.08	3552.54
702.269	3441.95
702.457	3372.32
702.646	3396.9
702.834	3380.51
703.023	3282.21
703.212	3407.14
703.4	3372.32
703.589	3306.79
703.777	3331.36
703.965	3388.71
704.154	3419.43
704.342	3421.47
704.531	3507.49
704.719	3312.93
704.907	3429.66
705.096	3409.19
705.284	3339.55
705.472	3390.75
705.661	3503.39
705.849	3353.89
706.037	3433.76
706.226	3501.34
706.414	3355.94
706.602	3517.73
706.79	3480.86
706.979	3515.68
707.167	3394.85
707.355	3314.98
707.543	3333.41
707.731	3396.9
707.919	3585.31
708.107	3415.33
708.296	3417.38
708.484	3407.14
708.672	3534.11
708.86	3472.67
709.048	3417.38
709.236	3501.34
709.424	3491.1
709.612	3450.14
709.8	3466.53
709.988	3499.3
710.176	3462.43
710.364	3452.19
710.551	3546.4
710.739	3441.95
710.927	3429.66
711.115	3405.09
711.303	3431.71
711.491	3470.62
711.679	3439.9
711.866	3491.1
712.054	3534.11
712.242	3499.3
712.43	3599.65
712.617	3466.53
712.805	3364.13
712.993	3536.16
713.181	3536.16
713.368	3540.26
713.556	3579.17
713.744	3355.94
713.931	3587.36
714.119	3659.04
714.306	3468.58
714.494	3423.52
714.682	3601.69
714.869	3530.02
715.057	3552.54
715.244	3474.72
715.432	3599.65
715.619	3540.26
715.807	3640.61
715.994	3429.66
716.182	3554.59
716.369	3708.19
716.556	3700
716.744	3495.2
716.931	3546.4
717.119	3687.71
717.306	3603.74
717.493	3648.8
717.681	3609.89
717.868	3579.17
718.055	3613.98
718.242	3704.09
718.43	3548.45
718.617	3566.88
718.804	3624.22
718.991	3585.31
719.179	3710.24
719.366	3691.8
719.553	3570.97
719.74	3646.75
719.927	3589.41
720.114	3700
720.301	3654.94
720.488	3622.17
720.676	3704.09
720.863	3671.33
721.05	3761.44
721.237	3689.76
721.424	3691.8
721.611	3685.66
721.798	3675.42
721.985	3634.46
722.172	3716.38
722.358	3581.21
722.545	3665.18
722.732	3605.79
722.919	3634.46
723.106	3597.6
723.293	3681.57
723.48	3677.47
723.667	3706.14
723.853	3636.51
724.04	3681.57
724.227	3681.57
724.414	3786.01
724.6	3753.24
724.787	3656.99
724.974	3745.05
725.161	3697.95
725.347	3700
725.534	3761.44
725.72	3681.57
725.907	3915.03
726.094	3624.22
726.28	3740.96
726.467	3824.92
726.653	3761.44
726.84	3855.64
727.027	3786.01
727.213	3749.15
727.4	3745.05
727.586	3824.92
727.773	3794.2
727.959	3609.89
728.145	3849.5
728.332	3667.23
728.518	3671.33
728.705	3661.09
728.891	3839.26
729.077	3781.92
729.264	3759.39
729.45	3777.82
729.636	3960.09
729.823	3642.65
730.009	3861.79
730.195	3818.78
730.382	3661.09
730.568	3800.35
730.754	3714.33
730.94	3716.38
731.126	3808.54
731.313	3745.05
731.499	3812.64
731.685	3745.05
731.871	3874.07
732.057	3888.41
732.243	3781.92
732.429	3929.37
732.615	3859.74
732.801	3843.35
732.987	3722.52
733.173	3851.55
733.359	3771.68
733.545	3790.11
733.731	3706.14
733.917	3738.91
734.103	3763.48
734.289	3880.22
734.475	3753.24
734.661	3816.73
734.847	3777.82
735.033	3720.48
735.219	3788.06
735.404	3636.51
735.59	3734.81
735.776	3689.76
735.962	3753.24
736.148	3829.02
736.333	3714.33
736.519	3740.96
736.705	3755.29
736.89	3798.3
737.076	3779.87
737.262	3611.93
737.447	3603.74
737.633	3661.09
737.819	3790.11
738.004	3644.7
738.19	3761.44
738.375	3679.52
738.561	3726.62
738.747	3683.61
738.932	3728.67
739.118	3806.49
739.303	3593.5
739.489	3708.19
739.674	3638.56
739.859	3550.5
740.045	3642.65
740.23	3732.76
740.416	3532.06
740.601	3546.4
740.786	3667.23
740.972	3513.63
741.157	3618.08
741.342	3431.71
741.528	3585.31
741.713	3493.15
741.898	3425.57
742.084	3695.9
742.269	3536.16
742.454	3470.62
742.639	3509.54
742.824	3474.72
743.01	3616.03
743.195	3501.34
743.38	3480.86
743.565	3398.95
743.75	3456.29
743.935	3398.95
744.12	3468.58
744.305	3267.88
744.49	3288.36
744.675	3337.51
744.86	3306.79
745.045	3335.46
745.23	3274.02
745.415	3210.53
745.6	3269.92
745.785	3120.42
745.97	3183.91
746.155	3286.31
746.34	3190.05
746.525	3179.81
746.71	3321.12
746.895	3163.43
747.079	3056.93
747.264	3155.24
747.449	3228.96
747.634	3175.72
747.819	3024.17
748.003	2915.62
748.188	3011.88
748.373	3036.45
748.557	2907.43
748.742	3075.37
748.927	2901.29
749.111	2856.23
749.296	3040.55
749.481	3069.22
749.665	2884.91
749.85	2874.67
750.034	2862.38
750.219	2800.94
750.404	2823.47
750.588	2796.84
750.773	2682.16
750.957	2725.16
751.141	2692.4
751.326	2620.72
751.51	2700.59
751.695	2620.72
751.879	2573.61
752.064	2768.17
752.248	2573.61
752.432	2587.95
752.617	2569.52
752.801	2532.65
752.985	2483.5
753.17	2506.03
753.354	2520.37
753.538	2463.02
753.722	2411.82
753.907	2473.26
754.091	2428.21
754.275	2399.54
754.459	2379.06
754.643	2387.25
754.828	2360.63
755.012	2377.01
755.196	2366.77
755.38	2344.24
755.564	2368.82
755.748	2252.08
755.932	2389.3
756.116	2219.32
756.3	2243.89
756.484	2311.47
756.668	2209.08
756.852	2174.26
757.036	2184.5
757.22	2153.78
757.404	2020.66
757.588	2168.12
757.772	2168.12
757.956	2121.01
758.14	2006.33
758.323	2032.95
758.507	2118.96
758.691	2059.57
758.875	2098.49
759.059	2008.37
759.242	1920.31
759.426	2016.57
759.61	1996.09
759.794	2004.28
759.977	2080.05
760.161	2016.57
760.345	1908.02
760.528	1951.03
760.712	1946.94
760.895	1922.36
761.079	1905.98
761.263	1852.73
761.446	1869.11
761.63	1805.63
761.813	1856.82
761.997	1764.67
762.18	1807.67
762.364	1779
762.547	1682.75
762.731	1905.98
762.914	1824.06
763.098	1742.14
763.281	1748.28
763.464	1783.1
763.648	1811.77
763.831	1707.32
764.015	1735.99
764.198	1733.95
764.381	1695.04
764.564	1641.79
764.748	1709.37
764.931	1754.43
765.114	1750.33
765.297	1711.42
765.481	1623.36
765.664	1602.88
765.847	1576.25
766.03	1682.75
766.213	1621.31
766.397	1649.98
766.58	1504.57
766.763	1670.46
766.946	1529.15
767.129	1611.07
767.312	1498.43
767.495	1525.05
767.678	1496.38
767.861	1510.72
768.044	1455.42
768.227	1609.02
768.41	1477.95
768.593	1594.68
768.776	1553.73
768.959	1422.66
769.142	1545.53
769.324	1467.71
769.507	1473.85
769.69	1512.77
769.873	1447.23
770.056	1580.35
770.239	1488.19
770.421	1457.47
770.604	1414.46
770.787	1451.33
770.97	1408.32
771.152	1340.74
771.335	1375.55
771.518	1330.5
771.7	1373.5
771.883	1420.61
772.066	1391.94
772.248	1348.93
772.431	1303.87
772.613	1322.31
772.796	1256.77
772.978	1381.7
773.161	1412.42
773.343	1287.49
773.526	1322.31
773.708	1310.02
773.891	1236.29
774.073	1299.78
774.256	1250.63
774.438	1348.93
774.621	1228.1
774.803	1240.39
774.985	1236.29
775.168	1283.39
775.35	1217.86
775.532	1246.53
775.715	1148.23
775.897	1332.55
776.079	1119.56
776.261	1150.28
776.444	1047.88
776.626	1076.55
776.808	1060.17
776.99	1056.07
777.173	1107.27
777.355	1137.99
777.537	1037.64
777.719	1140.04
777.901	1041.73
778.083	1054.02
778.265	1058.12
778.447	1103.17
778.629	931.14
778.811	1054.02
778.993	980.29
779.175	1062.21
779.357	1045.83
779.539	994.63
779.721	1043.78
779.903	1029.45
780.085	892.23
780.267	1006.92
780.449	1015.11
780.631	935.24
780.812	980.29
780.994	1023.3
781.176	902.47
781.358	916.81
781.54	851.27
781.721	902.47
781.903	937.29
782.085	857.42
782.267	859.46
782.448	791.88
782.63	800.07
782.812	855.37
782.993	873.8
783.175	933.19
783.357	875.85
783.538	804.17
783.72	773.45
783.901	832.84
784.083	814.41
784.264	785.74
784.446	769.35
784.627	744.78
784.809	824.65
784.99	777.55
785.172	755.02
785.353	703.82
785.535	771.4
785.716	693.58
785.897	714.06
786.079	742.73
786.26	757.07
786.441	746.83
786.623	691.53
786.804	669
786.985	693.58
787.167	761.16
787.348	740.68
787.529	679.24
787.71	703.82
787.891	623.95
788.073	623.95
788.254	572.75
788.435	650.57
788.616	679.24
788.797	685.39
788.978	636.24
789.159	552.27
789.34	591.18
789.522	525.65
789.703	562.51
789.884	607.56
790.065	605.52
790.246	593.23
790.427	632.14
790.607	650.57
790.788	603.47
790.969	521.55
791.15	671.05
791.331	433.49
791.512	472.4
791.693	433.49
791.874	507.21
792.054	640.33
792.235	550.22
792.416	499.02
792.597	546.12
792.778	574.8
792.958	513.36
793.139	484.69
793.32	529.74
793.5	460.11
793.681	488.78
793.862	517.45
794.042	439.63
794.223	462.16
794.404	486.73
794.584	488.78
794.765	466.25
794.945	460.11
795.126	537.93
795.306	525.65
795.487	513.36
795.667	499.02
795.848	478.54
796.028	499.02
796.209	496.97
796.389	443.73
796.57	441.68
796.75	415.05
796.93	484.69
797.111	394.58
797.291	488.78
797.471	425.29
797.652	445.77
797.832	462.16
798.012	464.21
798.192	441.68
798.373	279.89
798.553	402.77
798.733	462.16
798.913	365.9
799.093	408.91
799.274	370
799.454	456.01
799.634	511.31
799.814	456.01
799.994	464.21
800.174	374.1
800.354	349.52
800.534	324.94
800.714	382.29
800.894	386.38
801.074	380.24
801.254	408.91
801.434	433.49
801.614	322.9
801.794	349.52
801.974	1291.59
802.154	281.94
802.334	347.47
802.514	312.66
802.693	425.29
802.873	408.91
803.053	398.67
803.233	415.05
803.413	326.99
803.592	294.22
803.772	390.48
803.952	314.7
804.131	308.56
804.311	367.95
804.491	339.28
804.67	345.42
804.85	343.38
805.03	310.61
805.209	376.14
805.389	302.42
805.568	302.42
805.748	310.61
805.928	288.08
806.107	324.94
806.287	275.79
806.466	345.42
806.646	259.41
806.825	298.32
807.004	275.79
807.184	400.72
807.363	357.71
807.543	341.33
807.722	286.03
807.901	324.94
808.081	345.42
808.26	154.96
808.439	286.03
808.619	300.37
808.798	292.18
808.977	339.28
809.156	333.14
809.336	243.03
809.515	326.99
809.694	230.74
809.873	249.17
810.052	230.74
810.231	384.34
810.411	333.14
810.59	314.7
810.769	228.69
810.948	398.67
811.127	243.03
811.306	220.5
811.485	177.49
811.664	259.41
811.843	308.56
812.022	326.99
812.201	222.55
812.38	255.31
812.559	286.03
812.737	277.84
812.916	206.16
813.095	197.97
813.274	218.45
813.453	251.22
813.632	193.87
813.811	269.65
813.989	236.88
814.168	326.99
814.347	206.16
814.526	249.17
814.704	300.37
814.883	277.84
815.062	195.92
815.24	283.98
815.419	128.34
815.598	265.55
815.776	243.03
815.955	210.26
816.133	189.78
816.312	245.07
816.49	249.17
816.669	185.68
816.847	304.46
817.026	263.51
817.204	259.41
817.383	173.39
817.561	220.5
817.74	154.96
817.918	249.17
818.097	171.35
818.275	253.27
818.453	200.02
818.632	210.26
818.81	150.87
818.988	159.06
819.167	206.16
819.345	195.92
819.523	183.63
819.701	243.03
819.879	195.92
820.058	251.22
820.236	152.91
820.414	204.11
820.592	202.07
820.77	214.35
820.948	286.03
821.127	154.96
821.305	216.4
821.483	165.2
821.661	238.93
821.839	163.15
822.017	240.98
822.195	234.83
822.373	232.79
822.551	152.91
822.729	202.07
822.907	187.73
823.085	171.35
823.262	177.49
823.44	140.63
823.618	132.44
823.796	161.11
823.974	132.44
824.152	210.26
824.329	161.11
824.507	185.68
824.685	232.79
824.863	111.96
825.04	189.78
825.218	195.92
825.396	161.11
825.574	124.24
825.751	161.11
825.929	140.63
826.107	99.67
826.284	146.77
826.462	193.87
826.639	93.52
826.817	64.85
826.994	134.48
827.172	75.09
827.349	210.26
827.527	157.01
827.704	253.27
827.882	95.57
828.059	109.91
828.237	81.24
828.414	193.87
828.591	13.65
828.769	136.53
828.946	23.89
829.124	179.54
829.301	161.11
829.478	111.96
829.655	152.91
829.833	163.15
830.01	21.85
830.187	152.91
830.364	148.82
830.542	255.31
830.719	195.92
830.896	161.11
831.073	148.82
831.25	126.29
831.427	148.82
831.604	120.15
831.782	157.01
831.959	132.44
832.136	152.91
832.313	165.2
832.49	159.06
832.667	208.21
832.844	124.24
833.021	185.68
833.198	75.09
833.374	189.78
833.551	124.24
833.728	75.09
833.905	204.11
834.082	44.37
834.259	206.16
834.436	116.05
834.612	105.81
834.789	169.3
834.966	32.08
835.143	54.61
835.319	66.9
835.496	75.09
835.673	71
835.85	144.72
836.026	200.02
836.203	146.77
836.38	27.99
836.556	58.71
836.733	71
836.909	79.19
837.086	64.85
837.262	73.04
837.439	83.28
837.616	9.56
837.792	130.39
837.968	58.71
838.145	46.42
838.321	44.37
838.498	159.06
838.674	118.1
838.851	81.24
839.027	81.24
839.203	85.33
839.38	148.82
839.556	116.05
839.732	109.91
839.909	101.72
840.085	99.67
840.261	89.43
840.437	-8.87
840.614	64.85
840.79	105.81
840.966	79.19
841.142	73.04
841.318	48.47
841.494	118.1
841.671	122.2
841.847	75.09
842.023	56.66
842.199	32.08
842.375	165.2
842.551	34.13
842.727	103.76
842.903	161.11
843.079	81.24
843.255	79.19
843.431	15.7
843.607	52.56
843.783	13.65
843.959	50.52
844.134	40.28
844.31	105.81
844.486	32.08
844.662	17.75
844.838	32.08
845.013	138.58
845.189	144.72
845.365	128.34
845.541	40.28
845.716	75.09
845.892	114
846.068	97.62
846.244	25.94
846.419	58.71
846.595	-27.31
846.77	21.85
846.946	120.15
847.122	42.32
847.297	77.14
847.473	91.48
847.648	60.76
847.824	136.53
847.999	87.38
848.175	79.19
848.35	85.33
848.526	105.81
848.701	68.95
848.876	130.39
849.052	111.96
849.227	40.28
849.403	68.95
849.578	42.32
849.753	75.09
849.929	120.15
850.104	17.75
850.279	48.47
850.454	71
850.63	87.38
850.805	87.38
850.98	89.43
851.155	64.85
851.33	64.85
851.505	46.42
851.681	75.09
851.856	64.85
852.031	87.38
852.206	-2.73
852.381	95.57
852.556	19.8
852.731	187.73
852.906	83.28
853.081	27.99
853.256	120.15
853.431	-15.02
853.606	46.42
853.781	7.51
853.956	15.7
854.131	42.32
854.305	-17.07
854.48	44.37
854.655	1.37
854.83	-2.73
855.005	58.71
855.18	89.43
855.354	79.19
855.529	60.76
855.704	-2.73
855.879	32.08
856.053	21.85
856.228	17.75
856.403	-8.87
856.577	77.14
856.752	9.56
856.926	-29.35
857.101	36.18
857.276	38.23
857.45	66.9
857.625	146.77
857.799	103.76
857.974	99.67
858.148	-37.55
858.323	19.8
858.497	27.99
858.672	-39.59
858.846	-2.73
859.02	75.09
859.195	81.24
859.369	71
859.543	56.66
859.718	48.47
859.892	89.43
860.066	79.19
860.241	38.23
860.415	1.37
860.589	-43.69
860.763	50.52
860.938	27.99
861.112	40.28
861.286	1.37
861.46	13.65
861.634	-76.46
861.808	42.32
861.982	-47.79
862.157	3.41
862.331	15.7
862.505	21.85
862.679	-19.11
862.853	-15.02
863.027	-47.79
863.201	114
863.375	38.23
863.549	79.19
863.722	25.94
863.896	56.66
864.07	30.04
864.244	5.46
864.418	52.56
864.592	44.37
864.766	109.91
864.939	71
865.113	7.51
865.287	56.66
865.461	-64.17
865.634	42.32
865.808	5.46
865.982	48.47
866.156	13.65
866.329	27.99
866.503	79.19
866.676	5.46
866.85	-19.11
867.024	50.52
867.197	34.13
867.371	99.67
867.544	15.7
867.718	54.61
867.891	30.04
868.065	21.85
868.238	-2.73
868.412	27.99
868.585	21.85
868.759	-41.64
868.932	7.51
869.105	9.56
869.279	38.23
869.452	46.42
869.625	-27.31
869.799	32.08
869.972	58.71
870.145	-15.02
870.319	-0.68
870.492	36.18
870.665	-84.65
870.838	-4.78
871.011	-21.16
871.185	38.23
871.358	52.56
871.531	19.8
871.704	62.8
871.877	-33.45
872.05	9.56
872.223	-21.16
872.396	68.95
872.569	30.04
872.742	17.75
872.915	5.46
873.088	99.67
873.261	5.46
873.434	109.91
873.607	23.89
873.78	54.61
873.953	-39.59
874.126	58.71
874.299	-31.4
874.471	-8.87
874.644	-19.11
874.817	58.71
874.99	132.44
875.163	21.85
875.335	-29.35
875.508	-23.21
875.681	79.19
875.853	-4.78
876.026	5.46
876.199	11.61
876.371	-8.87
876.544	-35.5
876.717	50.52
876.889	40.28
877.062	103.76
877.234	17.75
877.407	19.8
877.579	19.8
877.752	91.48
877.924	5.46
878.097	-10.92
878.269	36.18
878.442	42.32
878.614	32.08
878.786	-17.07
878.959	66.9
879.131	27.99
879.303	-39.59
879.476	-2.73
879.648	40.28
879.82	64.85
879.993	17.75
880.165	-8.87
880.337	13.65
880.509	-23.21
880.681	-23.21
880.854	-29.35
881.026	58.71
881.198	52.56
881.37	95.57
881.542	-21.16
881.714	62.8
881.886	-82.6
882.058	-39.59
882.23	36.18
882.402	-49.83
882.574	64.85
882.746	38.23
882.918	54.61
883.09	83.28
883.262	17.75
883.434	-6.83
883.606	-25.26
883.778	1.37
883.95	68.95
884.122	-80.55
884.293	111.96
884.465	83.28
884.637	64.85
884.809	-37.55
884.98	-45.74
885.152	-12.97
885.324	32.08
885.496	27.99
885.667	-17.07
885.839	-10.92
886.011	38.23
886.182	5.46
886.354	75.09
886.525	36.18
886.697	23.89
886.869	-8.87
887.04	-27.31
887.212	77.14
887.383	120.15
887.555	30.04
887.726	-76.46
887.897	34.13
888.069	36.18
888.24	19.8
888.412	-23.21
888.583	3.41
888.754	-8.87
888.926	1.37
889.097	-66.22
889.268	-6.83
889.44	-2.73
889.611	-68.27
889.782	54.61
889.953	-23.21
890.125	122.2
890.296	-72.36
890.467	-8.87
890.638	-15.02
890.809	-47.79
890.98	-25.26
891.151	68.95
891.323	50.52
891.494	48.47
891.665	46.42
891.836	-2.73
892.007	40.28
892.178	-2.73
892.349	-0.68
892.52	-39.59
892.691	15.7
892.862	25.94
893.032	-21.16
893.203	-4.78
893.374	-43.69
893.545	-10.92
893.716	38.23
893.887	89.43
894.057	-31.4
894.228	-64.17
894.399	-43.69
894.57	-17.07
894.74	44.37
894.911	-8.87
895.082	11.61
895.253	-107.18
895.423	1.37
895.594	91.48
895.764	48.47
895.935	-58.03
896.106	-66.22
896.276	-27.31
896.447	5.46
896.617	-37.55
896.788	-25.26
896.958	-78.51
897.129	-19.11
897.299	-35.5
897.47	77.14
897.64	-51.88
897.81	30.04
897.981	73.04
898.151	-68.27
898.322	46.42
898.492	-35.5
898.662	-17.07
898.832	1.37
899.003	-25.26
899.173	25.94
899.343	11.61
899.513	15.7
