Data from USB4F104151__91__13-06-25-157.txt Node

Date: Fri Mar 14 13:06:25 EDT 2025
User: louis
Spectrometer: USB4F10415
Trigger mode: 4
Integration Time (sec): 4.000000E-2
Scans to average: 1
Electric dark correction enabled: true
Nonlinearity correction enabled: false
Boxcar width: 0
XAxis mode: Wavelengths
Number of Pixels in Spectrum: 3648
>>>>>Begin Spectral Data<<<<<
178.204	-161.79
178.424	-161.79
178.644	-161.79
178.864	-129.02
179.084	-194.56
179.304	-24.58
179.524	12.29
179.744	-0
179.964	51.2
180.184	53.25
180.404	-40.96
180.624	-43.01
180.844	-18.43
181.064	-30.72
181.283	-4.1
181.503	-10.24
181.723	55.3
181.943	-26.62
182.163	88.06
182.383	-16.38
182.602	-0
182.822	36.86
183.042	53.25
183.262	-0
183.482	40.96
183.701	-10.24
183.921	32.77
184.141	34.82
184.361	88.06
184.58	102.4
184.8	129.02
185.02	6.14
185.239	53.25
185.459	61.44
185.679	106.49
185.898	-24.58
186.118	100.35
186.338	61.44
186.557	49.15
186.777	36.86
186.997	53.25
187.216	-30.72
187.436	131.07
187.655	104.45
187.875	59.39
188.095	43.01
188.314	79.87
188.534	20.48
188.753	-10.24
188.973	94.21
189.192	47.1
189.412	47.1
189.631	43.01
189.851	38.91
190.07	133.12
190.29	67.58
190.509	-8.19
190.729	2.05
190.948	47.1
191.168	196.6
191.387	47.1
191.607	14.34
191.826	61.44
192.045	53.25
192.265	30.72
192.484	71.68
192.704	-10.24
192.923	-0
193.142	86.01
193.362	24.58
193.581	167.93
193.8	114.69
194.02	83.97
194.239	67.58
194.458	36.86
194.678	81.92
194.897	10.24
195.116	40.96
195.335	32.77
195.555	79.87
195.774	38.91
195.993	20.48
196.212	6.14
196.432	-12.29
196.651	24.58
196.87	49.15
197.089	114.69
197.308	147.45
197.528	129.02
197.747	-57.34
197.966	4.1
198.185	90.11
198.404	-6.14
198.623	51.2
198.842	96.25
199.062	120.83
199.281	100.35
199.5	65.53
199.719	57.34
199.938	69.63
200.157	106.49
200.376	40.96
200.595	63.49
200.814	14.34
201.033	98.3
201.252	59.39
201.471	34.82
201.69	100.35
201.909	83.97
202.128	53.25
202.347	65.53
202.566	51.2
202.785	71.68
203.004	34.82
203.223	106.49
203.442	30.72
203.661	-43.01
203.879	65.53
204.098	8.19
204.317	12.29
204.536	104.45
204.755	90.11
204.974	34.82
205.193	8.19
205.411	153.6
205.63	43.01
205.849	-0
206.068	38.91
206.287	71.68
206.505	139.26
206.724	53.25
206.943	79.87
207.162	22.53
207.381	90.11
207.599	106.49
207.818	77.82
208.037	38.91
208.255	90.11
208.474	133.12
208.693	-30.72
208.911	40.96
209.13	106.49
209.349	51.2
209.567	139.26
209.786	61.44
210.005	79.87
210.223	8.19
210.442	-61.44
210.661	86.01
210.879	-34.82
211.098	26.62
211.316	-2.05
211.535	59.39
211.753	63.49
211.972	153.6
212.191	-40.96
212.409	69.63
212.628	22.53
212.846	-18.43
213.065	8.19
213.283	126.97
213.502	40.96
213.72	-43.01
213.938	2.05
214.157	-18.43
214.375	92.16
214.594	71.68
214.812	88.06
215.031	79.87
215.249	100.35
215.467	79.87
215.686	14.34
215.904	65.53
216.122	51.2
216.341	114.69
216.559	43.01
216.778	94.21
216.996	55.3
217.214	55.3
217.432	65.53
217.651	10.24
217.869	-10.24
218.087	14.34
218.306	14.34
218.524	40.96
218.742	40.96
218.96	110.59
219.179	14.34
219.397	38.91
219.615	141.31
219.833	-32.77
220.051	-16.38
220.27	112.64
220.488	112.64
220.706	40.96
220.924	-10.24
221.142	79.87
221.36	98.3
221.578	53.25
221.796	71.68
222.015	55.3
222.233	24.58
222.451	110.59
222.669	47.1
222.887	120.83
223.105	20.48
223.323	4.1
223.541	63.49
223.759	90.11
223.977	79.87
224.195	124.93
224.413	61.44
224.631	20.48
224.849	51.2
225.067	206.84
225.285	-40.96
225.503	30.72
225.721	-55.3
225.939	38.91
226.157	-4.1
226.375	122.88
226.592	-24.58
226.81	30.72
227.028	55.3
227.246	38.91
227.464	-0
227.682	129.02
227.9	53.25
228.117	98.3
228.335	38.91
228.553	51.2
228.771	49.15
228.989	36.86
229.206	36.86
229.424	114.69
229.642	45.06
229.86	94.21
230.077	53.25
230.295	-34.82
230.513	32.77
230.731	16.38
230.948	28.67
231.166	102.4
231.384	16.38
231.601	75.77
231.819	149.5
232.037	96.25
232.254	-0
232.472	83.97
232.689	71.68
232.907	79.87
233.125	86.01
233.342	53.25
233.56	-34.82
233.777	-32.77
233.995	4.1
234.213	61.44
234.43	57.34
234.648	47.1
234.865	45.06
235.083	104.45
235.3	59.39
235.518	104.45
235.735	120.83
235.953	-38.91
236.17	-4.1
236.388	-4.1
236.605	4.1
236.822	133.12
237.04	90.11
237.257	71.68
237.475	49.15
237.692	14.34
237.909	57.34
238.127	2.05
238.344	10.24
238.562	122.88
238.779	-34.82
238.996	49.15
239.214	57.34
239.431	88.06
239.648	6.14
239.865	18.43
240.083	86.01
240.3	34.82
240.517	-40.96
240.735	86.01
240.952	43.01
241.169	-2.05
241.386	18.43
241.603	18.43
241.821	4.1
242.038	96.25
242.255	59.39
242.472	43.01
242.689	71.68
242.907	75.77
243.124	57.34
243.341	108.54
243.558	36.86
243.775	2.05
243.992	-51.2
244.209	73.73
244.426	98.3
244.643	122.88
244.86	63.49
245.078	47.1
245.295	14.34
245.512	-8.19
245.729	55.3
245.946	28.67
246.163	4.1
246.38	75.77
246.597	-53.25
246.814	81.92
247.031	88.06
247.248	55.3
247.464	34.82
247.681	55.3
247.898	112.64
248.115	88.06
248.332	-28.67
248.549	71.68
248.766	38.91
248.983	100.35
249.2	106.49
249.417	51.2
249.633	40.96
249.85	69.63
250.067	6.14
250.284	122.88
250.501	40.96
250.717	98.3
250.934	22.53
251.151	83.97
251.368	16.38
251.585	55.3
251.801	20.48
252.018	-36.86
252.235	145.41
252.451	20.48
252.668	-6.14
252.885	122.88
253.102	112.64
253.318	47.1
253.535	73.73
253.752	112.64
253.968	49.15
254.185	-26.62
254.401	-10.24
254.618	90.11
254.835	28.67
255.051	94.21
255.268	36.86
255.484	79.87
255.701	14.34
255.917	129.02
256.134	53.25
256.351	40.96
256.567	-102.4
256.784	49.15
257	-16.38
257.217	129.02
257.433	81.92
257.65	36.86
257.866	30.72
258.082	47.1
258.299	69.63
258.515	110.59
258.732	38.91
258.948	4.1
259.165	57.34
259.381	14.34
259.597	12.29
259.814	59.39
260.03	43.01
260.246	4.1
260.463	47.1
260.679	36.86
260.895	45.06
261.112	114.69
261.328	90.11
261.544	6.14
261.761	92.16
261.977	18.43
262.193	2.05
262.409	65.53
262.626	59.39
262.842	49.15
263.058	24.58
263.274	102.4
263.49	100.35
263.707	30.72
263.923	77.82
264.139	-16.38
264.355	22.53
264.571	71.68
264.787	18.43
265.004	106.49
265.22	83.97
265.436	69.63
265.652	59.39
265.868	98.3
266.084	-28.67
266.3	40.96
266.516	-14.34
266.732	28.67
266.948	86.01
267.164	47.1
267.38	12.29
267.596	-10.24
267.812	18.43
268.028	38.91
268.244	-16.38
268.46	55.3
268.676	-43.01
268.892	135.17
269.108	77.82
269.324	57.34
269.54	-53.25
269.756	18.43
269.972	34.82
270.188	69.63
270.403	61.44
270.619	10.24
270.835	-12.29
271.051	124.93
271.267	-16.38
271.483	53.25
271.698	24.58
271.914	18.43
272.13	137.21
272.346	98.3
272.562	178.17
272.777	114.69
272.993	-10.24
273.209	28.67
273.425	49.15
273.64	47.1
273.856	55.3
274.072	73.73
274.287	-92.16
274.503	90.11
274.719	172.03
274.934	67.58
275.15	20.48
275.366	36.86
275.581	30.72
275.797	16.38
276.012	83.97
276.228	36.86
276.444	143.36
276.659	126.97
276.875	32.77
277.09	98.3
277.306	59.39
277.521	73.73
277.737	122.88
277.952	30.72
278.168	92.16
278.383	22.53
278.599	55.3
278.814	-8.19
279.03	24.58
279.245	24.58
279.461	69.63
279.676	149.5
279.892	-12.29
280.107	-43.01
280.322	8.19
280.538	98.3
280.753	-4.1
280.969	110.59
281.184	45.06
281.399	53.25
281.615	73.73
281.83	59.39
282.045	20.48
282.26	18.43
282.476	75.77
282.691	67.58
282.906	143.36
283.122	57.34
283.337	51.2
283.552	-2.05
283.767	51.2
283.983	100.35
284.198	-6.14
284.413	22.53
284.628	47.1
284.843	36.86
285.058	116.73
285.274	51.2
285.489	12.29
285.704	90.11
285.919	6.14
286.134	32.77
286.349	10.24
286.564	36.86
286.779	77.82
286.995	6.14
287.21	-16.38
287.425	47.1
287.64	55.3
287.855	49.15
288.07	14.34
288.285	49.15
288.5	67.58
288.715	63.49
288.93	-14.34
289.145	47.1
289.36	139.26
289.575	-38.91
289.79	24.58
290.004	61.44
290.219	114.69
290.434	24.58
290.649	-2.05
290.864	38.91
291.079	104.45
291.294	96.25
291.509	98.3
291.724	106.49
291.938	30.72
292.153	10.24
292.368	2.05
292.583	83.97
292.798	100.35
293.012	14.34
293.227	28.67
293.442	69.63
293.657	24.58
293.871	90.11
294.086	104.45
294.301	163.84
294.516	88.06
294.73	83.97
294.945	40.96
295.16	79.87
295.374	77.82
295.589	12.29
295.804	20.48
296.018	38.91
296.233	79.87
296.447	65.53
296.662	20.48
296.877	59.39
297.091	40.96
297.306	20.48
297.52	65.53
297.735	79.87
297.949	14.34
298.164	43.01
298.378	43.01
298.593	55.3
298.807	79.87
299.022	83.97
299.236	106.49
299.451	45.06
299.665	2.05
299.88	32.77
300.094	79.87
300.309	12.29
300.523	6.14
300.737	-20.48
300.952	47.1
301.166	124.93
301.381	59.39
301.595	22.53
301.809	22.53
302.024	40.96
302.238	26.62
302.452	47.1
302.667	-67.58
302.881	124.93
303.095	79.87
303.309	24.58
303.524	-0
303.738	38.91
303.952	-43.01
304.166	108.54
304.381	-26.62
304.595	100.35
304.809	94.21
305.023	73.73
305.237	73.73
305.452	8.19
305.666	106.49
305.88	71.68
306.094	100.35
306.308	65.53
306.522	92.16
306.736	90.11
306.95	63.49
307.164	71.68
307.379	71.68
307.593	65.53
307.807	92.16
308.021	108.54
308.235	120.83
308.449	43.01
308.663	69.63
308.877	124.93
309.091	36.86
309.305	122.88
309.519	-53.25
309.733	141.31
309.947	45.06
310.161	65.53
310.374	71.68
310.588	178.17
310.802	43.01
311.016	24.58
311.23	61.44
311.444	-8.19
311.658	18.43
311.872	79.87
312.085	63.49
312.299	77.82
312.513	77.82
312.727	-26.62
312.941	55.3
313.154	51.2
313.368	24.58
313.582	73.73
313.796	55.3
314.009	22.53
314.223	71.68
314.437	61.44
314.651	49.15
314.864	57.34
315.078	71.68
315.292	49.15
315.505	8.19
315.719	83.97
315.933	-14.34
316.146	65.53
316.36	36.86
316.573	81.92
316.787	53.25
317.001	106.49
317.214	-8.19
317.428	71.68
317.641	79.87
317.855	49.15
318.068	151.55
318.282	45.06
318.495	65.53
318.709	43.01
318.922	8.19
319.136	88.06
319.349	118.78
319.563	30.72
319.776	86.01
319.99	-26.62
320.203	106.49
320.417	114.69
320.63	65.53
320.843	122.88
321.057	81.92
321.27	63.49
321.483	67.58
321.697	116.73
321.91	51.2
322.124	43.01
322.337	63.49
322.55	34.82
322.763	92.16
322.977	4.1
323.19	-6.14
323.403	51.2
323.617	49.15
323.83	57.34
324.043	106.49
324.256	4.1
324.469	-2.05
324.683	145.41
324.896	45.06
325.109	65.53
325.322	14.34
325.535	102.4
325.748	110.59
325.962	57.34
326.175	22.53
326.388	73.73
326.601	96.25
326.814	14.34
327.027	75.77
327.24	153.6
327.453	40.96
327.666	90.11
327.879	83.97
328.092	32.77
328.305	20.48
328.518	49.15
328.731	30.72
328.944	14.34
329.157	34.82
329.37	45.06
329.583	28.67
329.796	155.65
330.009	67.58
330.222	120.83
330.435	114.69
330.648	86.01
330.861	47.1
331.073	16.38
331.286	22.53
331.499	49.15
331.712	-10.24
331.925	47.1
332.138	104.45
332.35	106.49
332.563	-59.39
332.776	120.83
332.989	24.58
333.202	116.73
333.414	94.21
333.627	88.06
333.84	43.01
334.053	57.34
334.265	71.68
334.478	-6.14
334.691	51.2
334.903	55.3
335.116	40.96
335.329	20.48
335.541	57.34
335.754	163.84
335.966	49.15
336.179	22.53
336.392	86.01
336.604	81.92
336.817	-14.34
337.029	49.15
337.242	49.15
337.454	81.92
337.667	53.25
337.88	190.46
338.092	40.96
338.305	129.02
338.517	69.63
338.729	51.2
338.942	30.72
339.154	69.63
339.367	-18.43
339.579	83.97
339.792	-14.34
340.004	114.69
340.217	34.82
340.429	90.11
340.641	-16.38
340.854	16.38
341.066	-16.38
341.278	47.1
341.491	135.17
341.703	30.72
341.915	-20.48
342.128	47.1
342.34	137.21
342.552	98.3
342.764	108.54
342.977	22.53
343.189	38.91
343.401	8.19
343.613	-32.77
343.826	139.26
344.038	-22.53
344.25	38.91
344.462	106.49
344.674	32.77
344.886	-18.43
345.099	47.1
345.311	67.58
345.523	96.25
345.735	-24.58
345.947	-0
346.159	83.97
346.371	65.53
346.583	-10.24
346.795	153.6
347.007	22.53
347.219	108.54
347.431	81.92
347.643	110.59
347.855	10.24
348.067	79.87
348.279	22.53
348.491	49.15
348.703	151.55
348.915	34.82
349.127	36.86
349.339	10.24
349.551	73.73
349.763	92.16
349.975	51.2
350.187	102.4
350.399	104.45
350.61	69.63
350.822	-2.05
351.034	47.1
351.246	63.49
351.458	122.88
351.669	55.3
351.881	129.02
352.093	73.73
352.305	139.26
352.517	43.01
352.728	116.73
352.94	100.35
353.152	104.45
353.363	-24.58
353.575	51.2
353.787	79.87
353.999	51.2
354.21	159.74
354.422	26.62
354.633	67.58
354.845	135.17
355.057	133.12
355.268	45.06
355.48	100.35
355.692	51.2
355.903	55.3
356.115	8.19
356.326	-32.77
356.538	120.83
356.749	120.83
356.961	137.21
357.172	120.83
357.384	65.53
357.595	120.83
357.807	71.68
358.018	96.25
358.23	67.58
358.441	96.25
358.653	98.3
358.864	116.73
359.075	26.62
359.287	57.34
359.498	120.83
359.709	67.58
359.921	-0
360.132	57.34
360.344	86.01
360.555	12.29
360.766	55.3
360.977	40.96
361.189	131.07
361.4	63.49
361.611	83.97
361.823	96.25
362.034	47.1
362.245	69.63
362.456	49.15
362.667	55.3
362.879	-38.91
363.09	-22.53
363.301	98.3
363.512	67.58
363.723	8.19
363.935	38.91
364.146	16.38
364.357	-4.1
364.568	63.49
364.779	8.19
364.99	53.25
365.201	55.3
365.412	65.53
365.623	-30.72
365.834	83.97
366.045	61.44
366.256	137.21
366.467	88.06
366.678	67.58
366.889	73.73
367.1	79.87
367.311	90.11
367.522	30.72
367.733	137.21
367.944	69.63
368.155	12.29
368.366	96.25
368.577	116.73
368.788	22.53
368.999	24.58
369.209	86.01
369.42	106.49
369.631	188.41
369.842	124.93
370.053	36.86
370.264	57.34
370.474	-43.01
370.685	45.06
370.896	83.97
371.107	129.02
371.317	106.49
371.528	104.45
371.739	98.3
371.95	96.25
372.16	71.68
372.371	81.92
372.582	14.34
372.792	92.16
373.003	108.54
373.214	96.25
373.424	63.49
373.635	30.72
373.846	90.11
374.056	88.06
374.267	57.34
374.477	65.53
374.688	55.3
374.898	112.64
375.109	106.49
375.319	79.87
375.53	129.02
375.74	55.3
375.951	83.97
376.161	34.82
376.372	108.54
376.582	86.01
376.793	167.93
377.003	51.2
377.214	47.1
377.424	51.2
377.635	98.3
377.845	53.25
378.055	155.65
378.266	18.43
378.476	75.77
378.686	38.91
378.897	59.39
379.107	67.58
379.317	69.63
379.528	49.15
379.738	51.2
379.948	59.39
380.158	53.25
380.369	69.63
380.579	43.01
380.789	161.79
380.999	6.14
381.21	104.45
381.42	55.3
381.63	102.4
381.84	104.45
382.05	116.73
382.261	73.73
382.471	114.69
382.681	63.49
382.891	83.97
383.101	65.53
383.311	75.77
383.521	145.41
383.731	34.82
383.941	133.12
384.151	51.2
384.361	36.86
384.571	63.49
384.781	63.49
384.991	63.49
385.201	137.21
385.411	112.64
385.621	129.02
385.831	116.73
386.041	55.3
386.251	28.67
386.461	126.97
386.671	47.1
386.881	98.3
387.091	59.39
387.301	65.53
387.511	55.3
387.72	92.16
387.93	124.93
388.14	69.63
388.35	26.62
388.56	88.06
388.769	145.41
388.979	106.49
389.189	57.34
389.399	112.64
389.609	96.25
389.818	65.53
390.028	53.25
390.238	77.82
390.447	86.01
390.657	6.14
390.867	63.49
391.076	53.25
391.286	129.02
391.496	96.25
391.705	73.73
391.915	83.97
392.125	206.84
392.334	-2.05
392.544	137.21
392.753	10.24
392.963	18.43
393.172	100.35
393.382	102.4
393.591	188.41
393.801	24.58
394.01	118.78
394.22	169.98
394.429	92.16
394.639	22.53
394.848	163.84
395.058	106.49
395.267	32.77
395.477	71.68
395.686	45.06
395.895	186.37
396.105	161.79
396.314	116.73
396.524	110.59
396.733	47.1
396.942	180.22
397.152	155.65
397.361	188.41
397.57	129.02
397.78	106.49
397.989	96.25
398.198	219.13
398.407	90.11
398.617	96.25
398.826	79.87
399.035	172.03
399.244	114.69
399.453	92.16
399.663	120.83
399.872	135.17
400.081	135.17
400.29	198.65
400.499	65.53
400.708	143.36
400.917	157.69
401.127	90.11
401.336	126.97
401.545	157.69
401.754	165.89
401.963	153.6
402.172	149.5
402.381	120.83
402.59	167.93
402.799	137.21
403.008	182.27
403.217	227.32
403.426	200.7
403.635	100.35
403.844	157.69
404.053	202.75
404.262	194.56
404.471	227.32
404.68	247.8
404.888	155.65
405.097	137.21
405.306	153.6
405.515	145.41
405.724	165.89
405.933	198.65
406.142	202.75
406.35	210.94
406.559	165.89
406.768	149.5
406.977	290.81
407.185	223.23
407.394	245.76
407.603	141.31
407.812	237.56
408.02	288.76
408.229	282.62
408.438	227.32
408.646	198.65
408.855	264.19
409.064	274.43
409.272	292.86
409.481	368.63
409.69	256
409.898	317.44
410.107	493.56
410.315	378.87
410.524	397.31
410.733	366.59
410.941	452.6
411.15	407.55
411.358	485.37
411.567	450.55
411.775	428.03
411.984	477.18
412.192	548.86
412.401	456.7
412.609	600.05
412.818	598.01
413.026	610.29
413.234	587.77
413.443	559.1
413.651	542.71
413.86	628.73
414.068	784.37
414.276	827.38
414.485	604.15
414.693	761.84
414.901	804.85
415.11	862.19
415.318	815.09
415.526	876.53
415.734	847.86
415.943	772.08
416.151	1017.84
416.359	890.87
416.567	1083.38
416.776	1015.79
416.984	1083.38
417.192	1126.38
417.4	1169.39
417.608	1083.38
417.817	993.26
418.025	1206.25
418.233	1302.51
418.441	1255.4
418.649	1292.27
418.857	1476.59
419.065	1497.07
419.273	1372.14
419.481	1548.26
419.689	1554.41
419.897	1689.57
420.105	1652.71
420.313	1755.11
420.521	1841.12
420.729	1742.82
420.937	1892.32
421.145	1929.19
421.353	2029.54
421.561	2164.7
421.769	2111.46
421.977	2246.62
422.185	2312.16
422.393	2420.7
422.601	2535.39
422.809	2514.91
423.017	2699.22
423.224	2672.6
423.432	2760.66
423.64	2717.65
423.848	2961.36
424.056	3080.14
424.263	3155.92
424.471	3190.74
424.679	3184.59
424.887	3446.73
425.094	3495.88
425.302	3373
425.51	3733.45
425.718	3774.41
425.925	3745.73
426.133	3852.23
426.341	4243.39
426.548	4300.73
426.756	4284.35
426.964	4454.33
427.171	4636.6
427.379	4722.62
427.586	4767.67
427.794	5033.91
428.001	5199.79
428.209	5408.69
428.417	5375.92
428.624	5777.32
428.832	5818.28
429.039	5805.99
429.247	5664.68
429.454	6305.7
429.662	6614.94
429.869	6238.11
430.076	6887.32
430.284	6512.54
430.491	6758.3
430.699	7126.93
430.906	7255.95
431.114	7305.1
431.321	7571.34
431.528	7772.04
431.736	8036.23
431.943	8429.44
432.15	8222.59
432.358	8435.58
432.565	8888.18
432.772	8853.37
432.979	9215.86
433.187	9475.95
433.394	9355.12
433.601	10129.25
433.808	10319.71
434.016	10143.59
434.223	10606.43
434.43	11302.74
434.637	11220.82
434.844	11564.88
435.052	11978.57
435.259	11724.62
435.466	12089.16
435.673	11677.52
435.88	12676.93
436.087	13383.48
436.294	13301.56
436.501	13051.7
436.708	13524.79
436.915	13645.62
437.122	14260.01
437.329	14524.19
437.537	14786.33
437.743	14997.28
437.95	14866.21
438.157	15499.03
438.364	16178.95
438.571	16213.77
438.778	16170.76
438.985	17782.51
439.192	17055.48
439.399	17608.44
439.606	17256.18
439.813	18245.35
440.02	19398.36
440.227	18951.9
440.433	18685.67
440.64	19310.3
440.847	19392.22
441.054	19672.79
441.261	21288.64
441.467	20883.14
441.674	20989.63
441.881	21929.65
442.088	21794.48
442.294	21847.73
442.501	22124.21
442.708	22961.83
442.914	23586.46
443.121	24626.82
443.328	24233.61
443.534	25882.23
443.741	25106.05
443.948	24784.52
444.154	26482.28
444.361	26494.57
444.568	26472.04
444.774	26365.55
444.981	26822.25
445.187	27549.28
445.394	28964.42
445.6	28352.08
445.807	31378.98
446.013	29851.19
446.22	30111.28
446.426	31483.42
446.633	31962.65
446.839	33050.12
447.046	31460.9
447.252	33261.06
447.459	33482.24
447.665	33318.4
447.871	34692.59
448.078	36347.35
448.284	34541.04
448.491	35366.37
448.697	37148.11
448.903	37670.34
449.11	37811.65
449.316	37111.24
449.522	37563.84
449.728	38706.61
449.935	39079.34
450.141	39390.63
450.347	40332.7
450.553	38864.3
450.76	39644.58
450.966	40691.09
451.172	40398.23
451.378	41086.35
451.584	40705.43
451.791	41457.03
451.997	41510.28
452.203	41969.02
452.409	41942.4
452.615	41821.57
452.821	40091.04
453.027	40119.71
453.233	42577.27
453.44	40611.22
453.646	41221.51
453.852	41557.38
454.058	42132.86
454.264	40289.69
454.47	41469.32
454.676	40674.71
454.882	42038.65
455.088	38563.25
455.294	39204.27
455.5	39437.73
455.705	40285.59
455.911	38661.55
456.117	37752.26
456.323	37131.72
456.529	35427.81
456.735	36941.26
456.941	35913.18
457.147	35597.79
457.352	34555.38
457.558	34235.89
457.764	34067.96
457.97	33457.67
458.176	32716.3
458.381	32921.1
458.587	31409.7
458.793	31303.2
458.999	29781.56
459.204	31796.76
459.41	30807.59
459.616	29023.81
459.821	29038.15
460.027	28733
460.233	28143.19
460.438	26918.5
460.644	27051.62
460.85	25652.86
461.055	25575.03
461.261	25257.6
461.466	23262.88
461.672	22787.75
461.878	24370.83
462.083	22847.14
462.289	22357.67
462.494	22304.43
462.7	21266.11
462.905	20864.71
463.111	21249.72
463.316	21391.03
463.522	21073.6
463.727	20954.82
463.932	20897.47
464.138	20405.96
464.343	20807.36
464.549	20221.64
464.754	20823.75
464.959	20668.1
465.165	20422.34
465.37	19721.94
465.575	19146.46
465.781	19730.13
465.986	19863.25
466.191	19248.86
466.397	18880.22
466.602	17954.54
466.807	18736.87
467.012	18749.15
467.218	18446.05
467.423	18392.81
467.628	18243.31
467.833	19078.88
468.038	18228.97
468.244	17921.77
468.449	18693.86
468.654	17899.25
468.859	17768.18
469.064	17594.1
469.269	17114.87
469.474	17524.47
469.679	17551.09
469.885	17178.36
470.09	17323.77
470.295	17399.54
470.5	16731.9
470.705	16932.61
470.91	16525.06
471.115	16492.29
471.32	16969.47
471.525	16596.74
471.73	16250.63
471.935	16072.46
472.139	15486.74
472.344	15736.59
472.549	15853.33
472.754	15195.93
472.959	15109.91
473.164	14626.59
473.369	14880.54
473.574	15142.68
473.778	14939.93
473.983	14796.57
474.188	14827.29
474.393	14141.22
474.598	14317.35
474.802	14149.42
475.007	13899.56
475.212	13977.39
475.417	13514.55
475.621	13444.91
475.826	13596.46
476.031	13246.26
476.235	12943.16
476.44	13236.02
476.645	12945.21
476.849	13184.82
477.054	12879.68
477.259	12701.5
477.463	12465.99
477.668	12437.31
477.872	12289.86
478.077	12164.93
478.282	11921.23
478.486	11720.53
478.691	11847.5
478.895	11741
479.1	11675.47
479.304	11724.62
479.509	11419.47
479.713	11540.3
479.918	11452.24
480.122	11153.24
480.326	11431.76
480.531	11308.88
480.735	11122.52
480.94	11165.53
481.144	11298.64
481.348	10872.67
481.553	10807.13
481.757	10592.09
481.961	10880.86
482.166	11120.47
482.37	10968.92
482.574	10854.23
482.778	10817.37
482.983	11175.77
483.187	10696.54
483.391	10901.34
483.595	10950.49
483.8	10588
484.004	10821.47
484.208	10813.27
484.412	10663.77
484.616	10837.85
484.821	10841.95
485.025	10665.82
485.229	10579.81
485.433	10616.67
485.637	10809.18
485.841	10848.09
486.045	10733.4
486.249	10731.36
486.453	10614.62
486.657	10934.11
486.861	10778.46
487.065	10497.89
487.269	10788.7
487.473	10573.66
487.677	10770.27
487.881	10766.17
488.085	10626.91
488.289	10747.74
488.493	10755.93
488.697	10878.81
488.901	10700.64
489.105	10827.61
489.309	10833.75
489.512	10975.06
489.716	11026.26
489.92	10733.4
490.124	10925.91
490.328	11124.57
490.531	11077.46
490.735	11147.09
490.939	11095.89
491.143	11147.09
491.346	11110.23
491.55	11165.53
491.754	11261.78
491.958	11040.6
492.161	11319.12
492.365	11257.68
492.569	11220.82
492.772	11300.69
492.976	11517.78
493.18	11347.79
493.383	11571.02
493.587	11472.72
493.79	11775.82
493.994	11540.3
494.197	11618.13
494.401	11781.96
494.605	11761.48
494.808	11910.99
495.012	11949.9
495.215	12105.54
495.419	12267.33
495.622	12126.02
495.825	12447.55
496.029	12324.68
496.232	12683.07
496.436	12693.31
496.639	13029.18
496.843	12920.63
497.046	13074.23
497.249	13358.9
497.453	13168.44
497.656	13336.37
497.859	13297.46
498.063	13653.81
498.266	14110.5
498.469	13639.47
498.673	13913.9
498.876	14108.46
499.079	14163.75
499.282	14106.41
499.485	14661.41
499.689	14565.15
499.892	14935.84
500.095	14944.03
500.298	15232.79
500.501	14849.82
500.705	15335.19
500.908	15912.72
501.111	15947.53
501.314	15990.54
501.517	16033.55
501.72	16244.49
501.923	16242.44
502.126	16742.14
502.329	17026.81
502.532	16852.73
502.735	17184.51
502.938	17528.56
503.141	17551.09
503.344	17678.07
503.547	17708.79
503.75	18061.04
503.953	18206.44
504.156	18327.27
504.359	18667.24
504.562	18921.18
504.765	19199.71
504.968	19205.85
505.17	19607.25
505.373	19689.17
505.576	20080.33
505.779	20231.88
505.982	20252.36
506.185	20776.64
506.387	20745.92
506.59	20840.13
506.793	21352.12
506.996	21229.24
507.198	21649.08
507.401	21784.24
507.604	21735.09
507.807	22218.41
508.009	22558.38
508.212	22650.53
508.415	22951.59
508.617	23289.5
508.82	23271.07
509.022	23039.65
509.225	24022.67
509.428	24178.32
509.63	24104.59
509.833	24549
510.035	25128.58
510.238	24829.57
510.44	25142.91
510.643	25259.65
510.845	25708.15
511.048	25433.72
511.25	25906.8
511.453	26080.88
511.655	27158.11
511.858	26830.44
512.06	26938.98
512.262	27121.25
512.465	27328.09
512.667	27915.86
512.87	27799.13
513.072	27911.77
513.274	28890.7
513.477	28925.51
513.679	28886.6
513.881	29736.51
514.084	29544
514.286	29472.32
514.488	29658.68
514.69	30967.34
514.893	30996.01
515.095	30871.08
515.297	31065.64
515.499	31018.53
515.701	31577.63
515.904	31829.53
516.106	32069.14
516.308	32343.57
516.51	32740.88
516.712	32564.75
516.914	33209.86
517.116	33840.64
517.318	33854.97
517.52	33904.12
517.722	33877.5
517.925	34754.03
518.127	34932.2
518.329	35446.24
518.531	35057.13
518.733	35624.42
518.935	36451.8
519.136	35802.59
519.338	36589.01
519.54	36957.64
519.742	37344.71
519.944	37082.57
520.146	37572.03
520.348	37746.11
520.55	38151.61
520.752	38026.68
520.954	38952.37
521.155	38520.24
521.357	39030.19
521.559	39269.8
521.761	39695.78
521.963	39810.46
522.164	40088.99
522.366	40158.62
522.568	40390.04
522.77	41155.98
522.971	41403.78
523.173	40764.82
523.375	41491.85
523.576	41567.62
523.778	41684.36
523.98	42509.69
524.181	42536.31
524.383	42200.44
524.584	42902.9
524.786	43230.57
524.988	42966.38
525.189	43445.61
525.391	43574.63
525.592	43912.55
525.794	44043.62
525.995	43912.55
526.197	43937.12
526.398	44469.59
526.6	44827.99
526.801	44840.28
527.003	45055.31
527.204	45264.21
527.406	45452.62
527.607	45563.21
527.808	45843.78
528.01	45251.92
528.211	45792.58
528.412	46161.22
528.614	45993.28
528.815	46140.74
529.016	46550.33
529.218	46081.34
529.419	46599.48
529.62	46628.15
529.822	46417.21
530.023	47060.27
530.224	46855.48
530.425	46933.3
530.626	46855.48
530.828	46644.54
531.029	47664.42
531.23	46744.89
531.431	46894.39
531.632	47260.97
531.833	47748.39
532.035	47215.92
532.236	47295.79
532.437	47689
532.638	47281.45
532.839	47936.8
533.04	47922.47
533.241	47226.16
533.442	48237.86
533.643	47504.68
533.844	47394.09
534.045	48031.01
534.246	47105.33
534.447	47764.78
534.648	47435.05
534.849	48016.68
535.05	47934.76
535.251	48106.79
535.451	47852.84
535.652	47975.72
535.853	47848.74
536.054	47854.89
536.255	48074.02
536.456	47402.28
536.657	48325.92
536.857	47803.69
537.058	47752.49
537.259	47938.85
537.46	48166.18
537.66	48629.02
537.861	48121.12
538.062	47807.78
538.263	47959.33
538.463	47531.31
538.664	48327.97
538.865	48145.7
539.065	48311.58
539.266	47607.08
539.466	48297.25
539.667	47650.09
539.868	48430.36
540.068	48074.02
540.269	47775.01
540.469	48018.72
540.67	47818.02
540.87	47852.84
541.071	47840.55
541.271	48020.77
541.472	48135.46
541.672	47734.06
541.873	47713.58
542.073	47174.96
542.274	48553.24
542.474	47752.49
542.675	47568.17
542.875	47914.28
543.075	47756.58
543.276	47359.28
543.476	48033.06
543.676	47537.45
543.877	47611.18
544.077	47738.15
544.277	47590.7
544.478	47785.25
544.678	47543.59
544.878	47648.04
545.078	47801.64
545.279	47369.52
545.479	47281.45
545.679	47901.99
545.879	47252.78
546.079	47762.73
546.28	47727.91
546.48	47056.18
546.68	47840.55
546.88	47871.27
547.08	47756.58
547.28	47527.21
547.48	46900.53
547.68	47678.76
547.88	46796.09
548.081	47648.04
548.281	47244.59
548.481	47306.03
548.681	47498.54
548.881	47471.92
549.081	47727.91
549.28	47359.28
549.48	47052.08
549.68	47322.41
549.88	47934.76
550.08	47179.06
550.28	47764.78
550.48	47279.41
550.68	48053.54
550.88	46771.51
551.08	47117.62
551.279	47459.63
551.479	46839.09
551.679	47410.48
551.879	46908.72
552.079	47484.2
552.278	46867.76
552.478	47398.19
552.678	46832.95
552.878	47326.51
553.077	46894.39
553.277	46597.43
553.477	47574.31
553.676	47002.93
553.876	47086.9
554.076	46718.26
554.275	47250.74
554.475	46363.96
554.674	46968.12
554.874	46673.21
555.074	46794.04
555.273	46732.6
555.473	47258.93
555.672	46744.89
555.872	46345.53
556.071	46828.85
556.271	47095.09
556.47	46605.62
556.67	46003.52
556.869	46206.27
557.068	46673.21
557.268	46271.81
557.467	46253.37
557.667	46218.56
557.866	46071.1
558.065	45983.04
558.265	46079.3
558.464	45993.28
558.663	46368.06
558.863	45845.83
559.062	46415.16
559.261	45469
559.461	46509.37
559.66	45399.37
559.859	45796.68
560.058	45518.15
560.258	45454.67
560.457	45352.27
560.656	45612.36
560.855	45280.59
561.054	45221.2
561.253	44737.88
561.453	45170
561.652	45135.18
561.851	45190.48
562.05	44768.6
562.249	44483.93
562.448	45040.98
562.647	44838.23
562.846	45114.7
563.045	44871
563.244	44166.49
563.443	44823.89
563.642	44090.72
563.841	44385.63
564.04	44072.29
564.239	44404.06
564.438	43988.32
564.637	44180.83
564.836	44451.16
565.035	43738.47
565.234	43873.63
565.432	43771.24
565.631	43605.35
565.83	43593.06
566.029	43619.69
566.228	43414.89
566.427	43365.74
566.625	42870.13
566.824	42476.92
567.023	43238.76
567.222	42550.65
567.42	43312.49
567.619	43091.31
567.818	42337.66
568.016	42605.94
568.215	42833.27
568.414	42440.06
568.612	42614.13
568.811	42227.07
569.01	42440.06
569.208	42112.38
569.407	42509.69
569.605	41741.7
569.804	42202.49
570.002	41854.34
570.201	41905.54
570.4	41481.61
570.598	41205.13
570.797	41278.86
570.995	41268.62
571.193	40811.92
571.392	41377.16
571.59	41092.49
571.789	40781.2
571.987	40953.23
572.186	40777.11
572.384	40719.76
572.582	40777.11
572.781	40816.02
572.979	40070.56
573.177	40242.59
573.376	40201.63
573.574	39787.94
573.772	40261.02
573.971	39732.64
574.169	40002.97
574.367	39521.7
574.565	39857.57
574.763	39519.65
574.962	39325.1
575.16	39183.79
575.358	39359.91
575.556	38665.65
575.754	39509.41
575.952	38923.69
576.151	39159.21
576.349	38682.03
576.547	38593.97
576.745	38772.14
576.943	39026.09
577.141	38434.23
577.339	38923.69
577.537	38231.48
577.735	38317.5
577.933	38137.27
578.131	37873.09
578.329	38090.17
578.527	37653.95
578.725	37969.34
578.923	38102.46
579.121	37463.49
579.319	37277.13
579.516	37580.23
579.714	37273.03
579.912	37174.73
580.11	37133.77
580.308	37168.58
580.506	37123.53
580.704	36464.08
580.901	36623.83
581.099	37262.79
581.297	36507.09
581.495	36451.8
581.692	36711.89
581.89	36150.74
582.088	36615.63
582.285	36019.67
582.483	36283.86
582.681	36120.02
582.878	36214.23
583.076	35775.97
583.274	36007.39
583.471	35401.19
583.669	35786.21
583.866	35376.61
584.064	35636.7
584.262	35476.96
584.459	35216.87
584.657	35182.06
584.854	35374.56
585.052	34436.59
585.249	35177.96
585.447	34790.89
585.644	34518.51
585.841	34657.78
586.039	34829.8
586.236	34313.72
586.434	34072.06
586.631	34426.35
586.828	34551.28
587.026	33910.27
587.223	33912.31
587.42	33396.23
587.618	33887.74
587.815	33594.88
588.012	33271.3
588.21	33224.2
588.407	33777.15
588.604	32970.25
588.801	33064.46
588.999	33076.74
589.196	33127.94
589.393	33127.94
589.59	32675.34
589.787	32716.3
589.984	32685.58
590.182	32306.71
590.379	33009.16
590.576	32425.49
590.773	32364.05
590.97	32288.28
591.167	32394.77
591.364	31839.77
591.561	32400.91
591.758	31725.08
591.955	32048.66
592.152	32071.19
592.349	31405.6
592.546	31821.34
592.743	31591.97
592.94	31133.22
593.137	31444.51
593.334	31450.66
593.531	30631.47
593.727	31196.71
593.924	30967.34
594.121	30537.26
594.318	30932.52
594.515	30610.99
594.712	31020.58
594.908	30502.45
595.105	30361.14
595.302	30426.67
595.499	30539.31
595.696	30275.12
595.892	30103.09
596.089	30148.15
596.286	29830.71
596.482	29906.49
596.679	29904.44
596.876	29699.64
597.072	29404.74
597.269	29777.47
597.466	29333.06
597.662	29285.95
597.859	29230.66
598.055	29300.29
598.252	29077.06
598.448	28661.32
598.645	28628.56
598.841	28773.96
599.038	28995.14
599.234	28782.15
599.431	28474.96
599.627	28362.32
599.824	28403.28
600.02	28280.4
600.217	28354.13
600.413	28255.82
600.609	28018.26
600.806	27752.02
601.002	28014.16
601.198	27596.38
601.395	27850.33
601.591	27518.56
601.787	27670.11
601.984	27324
602.18	27823.7
602.376	27223.65
602.572	27141.73
602.769	27008.61
602.965	26846.82
603.161	27225.7
603.357	27158.11
603.553	26668.65
603.75	26961.51
603.946	26457.71
604.142	26953.32
604.338	26334.83
604.534	26453.61
604.73	25824.89
604.926	26367.6
605.122	26117.75
605.318	25896.56
605.514	26224.24
605.71	26007.16
605.906	25714.3
606.102	25554.55
606.298	25714.3
606.494	25720.44
606.69	25951.86
606.886	25630.33
607.082	25200.26
607.278	25796.21
607.474	25255.55
607.67	25394.81
607.866	25079.43
608.062	25446.01
608.257	25093.76
608.453	25269.89
608.649	25243.26
608.845	24968.83
609.041	24751.75
609.236	25056.9
609.432	24682.12
609.628	24553.1
609.824	24852.1
610.019	24549
610.215	24614.54
610.411	24512.14
610.606	24454.79
610.802	24299.15
610.998	24350.35
611.193	24401.55
611.389	23912.08
611.584	24217.23
611.78	24145.55
611.976	24184.46
612.171	24153.74
612.367	24057.49
612.562	23803.54
612.758	23811.73
612.953	23635.61
613.149	23723.67
613.344	23617.18
613.539	23795.35
613.735	23475.87
613.93	23613.08
614.126	23416.47
614.321	23910.04
614.517	23473.82
614.712	23410.33
614.907	23189.15
615.103	23668.37
615.298	23158.43
615.493	23219.87
615.688	22754.98
615.884	23346.84
616.079	22707.88
616.274	23525.02
616.47	23074.46
616.665	23080.61
616.86	22828.71
617.055	22623.91
617.25	22619.81
617.445	22738.6
617.641	22380.2
617.836	22802.08
618.031	22312.62
618.226	22658.73
618.421	22273.71
618.616	22709.93
618.811	22146.73
619.006	22494.89
619.201	21923.51
619.396	21921.46
619.591	21718.71
619.786	21812.92
619.981	21438.14
620.176	21776.05
620.371	21550.78
620.566	21331.64
620.761	21108.41
620.956	21448.38
621.151	20879.04
621.346	21366.46
621.541	20870.85
621.735	21331.64
621.93	20797.12
622.125	20852.42
622.32	20573.89
622.515	20250.31
622.709	20539.08
622.904	20334.28
623.099	20324.04
623.294	20328.14
623.488	19977.94
623.683	20307.66
623.878	19599.06
624.072	20006.61
624.267	19871.44
624.462	19711.7
624.656	19396.31
624.851	19527.38
625.046	19404.5
625.24	19062.49
625.435	19048.16
625.629	19130.08
625.824	18929.38
626.018	18831.07
626.213	18519.78
626.407	18706.15
626.602	18446.05
626.796	18607.84
626.991	18554.6
627.185	18396.9
627.38	17977.07
627.574	17790.7
627.768	17835.76
627.963	17602.29
628.157	17905.39
628.352	17876.72
628.546	17362.68
628.74	17651.44
628.935	17301.24
629.129	17325.82
629.323	17143.55
629.517	17047.29
629.712	16946.94
629.906	17116.92
630.1	16668.42
630.294	16684.8
630.489	16826.11
630.683	16922.37
630.877	16389.89
631.071	16148.23
631.265	16721.66
631.459	16338.69
631.653	15976.2
631.848	16203.53
632.042	15972.11
632.236	15886.09
632.43	15601.43
632.624	15824.65
632.818	15638.29
633.012	15386.39
633.206	15515.41
633.4	15370.01
633.594	15380.25
633.788	15345.43
633.982	15605.52
634.176	15222.55
634.369	15179.54
634.563	15071
634.757	14817.05
634.951	14989.08
635.145	14751.52
635.339	14769.95
635.533	14604.07
635.726	14595.87
635.92	14468.9
636.114	14436.13
636.308	14225.19
636.501	14247.72
636.695	13958.95
636.889	13774.64
637.083	13985.58
637.276	13895.47
637.47	13985.58
637.664	13729.58
637.857	13676.34
638.051	13770.54
638.244	13338.42
638.438	13645.62
638.632	13436.72
638.825	13209.4
639.019	13256.5
639.212	13156.15
639.406	13047.61
639.599	13031.23
639.793	13066.04
639.986	12943.16
640.18	13072.18
640.373	12990.27
640.567	12717.89
640.76	12592.96
640.954	12535.62
641.147	12527.42
641.34	12261.19
641.534	12547.9
641.727	12435.27
641.92	12279.62
642.114	12089.16
642.307	12209.99
642.5	12164.93
642.694	11902.79
642.887	12031.82
643.08	12060.49
643.273	11880.27
643.467	11712.33
643.66	11771.72
643.853	11671.37
644.046	11337.56
644.239	11466.58
644.432	11540.3
644.626	11247.44
644.819	11216.72
645.012	11255.64
645.205	11437.91
645.398	11251.54
645.591	10882.91
645.784	11075.41
645.977	11145.05
646.17	10913.63
646.363	10887
646.556	10461.02
646.749	10688.35
646.942	10968.92
647.135	10655.58
647.328	10743.64
647.521	10544.99
647.714	10346.34
647.907	10637.15
648.099	10405.73
648.292	10270.56
648.485	10278.76
648.678	10147.69
648.871	10078.05
649.064	10086.25
649.256	10170.21
649.449	10028.9
649.642	10022.76
649.835	9676.65
650.027	9822.06
650.22	9846.63
650.413	9774.95
650.605	9682.8
650.798	9680.75
650.991	9803.63
651.183	9617.26
651.376	9369.46
651.568	9453.42
651.761	9494.38
651.954	9451.38
652.146	9381.74
652.339	9142.13
652.531	9287.54
652.724	9322.35
652.916	8849.27
653.109	8961.91
653.301	8968.06
653.494	8947.58
653.686	8912.76
653.879	8877.94
654.071	8775.55
654.263	8892.28
654.456	8867.7
654.648	8806.27
654.84	8587.13
655.033	8716.15
655.225	8566.65
655.417	8322.94
655.61	8513.41
655.802	8503.17
655.994	8531.84
656.186	8449.92
656.379	8437.63
656.571	8394.62
656.763	8271.75
656.955	8329.09
657.148	8261.51
657.34	8150.92
657.532	8138.63
657.724	7997.32
657.916	8284.03
658.108	7997.32
658.3	8046.47
658.492	7806.86
658.684	7886.73
658.876	7827.34
659.068	7841.67
659.26	7604.11
659.452	7767.95
659.644	7675.79
659.836	7659.4
660.028	7655.31
660.22	7550.86
660.412	7626.64
660.604	7315.34
660.796	7362.45
660.988	7446.41
661.18	7360.4
661.372	7214.99
661.563	7444.37
661.755	7167.89
661.947	7186.32
662.139	7090.07
662.331	7178.13
662.522	7167.89
662.714	7059.35
662.906	6942.61
663.097	7114.64
663.289	6989.72
663.481	6848.41
663.673	6809.5
663.864	6823.83
664.056	6801.3
664.247	6655.9
664.439	6655.9
664.631	6764.44
664.822	6729.63
665.014	6825.88
665.205	6606.75
665.397	6741.91
665.588	6545.31
665.78	6481.82
665.971	6645.66
666.163	6420.38
666.354	6541.21
666.546	6596.51
666.737	6442.91
666.929	6373.28
667.12	6256.54
667.311	6313.89
667.503	6203.3
667.694	6313.89
667.885	6188.96
668.077	6209.44
668.268	6066.08
668.459	6166.43
668.651	6107.04
668.842	6252.45
669.033	6223.78
669.224	6078.37
669.416	6152.1
669.607	6150.05
669.798	5971.88
669.989	6137.76
670.18	6172.58
670.371	6049.7
670.563	5855.14
670.754	5982.12
670.945	5834.66
671.136	5883.81
671.327	5822.38
671.518	5945.25
671.709	5883.81
671.9	5908.39
672.091	5812.14
672.282	5791.66
672.473	5724.07
672.664	5877.67
672.855	5846.95
673.046	5713.83
673.237	5773.22
673.428	5676.97
673.619	5707.69
673.809	5633.96
674	5623.72
674.191	5570.47
674.382	5439.4
674.573	5515.18
674.764	5676.97
674.954	5572.52
675.145	5498.8
675.336	5384.11
675.527	5580.71
675.717	5547.95
675.908	5195.7
676.099	5355.44
676.289	5294
676.48	5345.2
676.671	5476.27
676.861	5468.08
677.052	5388.21
677.243	5375.92
677.433	5279.66
677.624	5322.67
677.814	5357.49
678.005	5433.26
678.195	5494.7
678.386	5373.87
678.576	5248.94
678.767	5310.38
678.957	5412.78
679.148	5207.98
679.338	5373.87
679.529	5294
679.719	5193.65
679.909	5306.29
680.1	5107.63
680.29	5310.38
680.481	5332.91
680.671	5289.9
680.861	5322.67
681.052	5193.65
681.242	5085.11
681.432	5203.89
681.622	5304.24
681.813	5003.19
682.003	5078.96
682.193	4995
682.383	5349.29
682.573	5250.99
682.764	5126.07
682.954	5119.92
683.144	5171.12
683.334	5128.11
683.524	5015.48
683.714	5304.24
683.904	5054.39
684.094	5218.22
684.284	5076.91
684.474	5210.03
684.664	5003.19
684.854	5150.64
685.044	5027.76
685.234	5056.43
685.424	4992.95
685.614	5040.05
685.804	5060.53
685.994	4908.98
686.184	5027.76
686.374	5023.67
686.564	4896.69
686.753	4798.39
686.943	4708.28
687.133	4859.83
687.323	4960.18
687.513	4822.97
687.702	4818.87
687.892	4681.66
688.082	4677.56
688.272	4732.86
688.461	4634.55
688.651	4681.66
688.841	4571.07
689.03	4665.27
689.22	4497.34
689.41	4491.2
689.599	4558.78
689.789	4554.68
689.979	4558.78
690.168	4384.7
690.358	4497.34
690.547	4446.14
690.737	4495.29
690.926	4456.38
691.116	4331.45
691.305	4462.52
691.495	4267.97
691.684	4310.97
691.874	4372.41
692.063	4278.21
692.252	4362.17
692.442	4251.58
692.631	4132.8
692.82	4186.05
693.01	3930.05
693.199	4151.23
693.388	4112.32
693.578	4097.99
693.767	4134.85
693.956	3923.91
694.146	3973.06
694.335	4095.94
694.524	4014.02
694.713	3938.24
694.902	3954.63
695.092	3975.11
695.281	3983.3
695.47	4059.07
695.659	3831.75
695.848	3880.9
696.037	3831.75
696.226	3872.71
696.415	3893.19
696.604	3905.48
696.793	3930.05
696.982	3809.22
697.171	3940.29
697.36	4016.07
697.549	3874.76
697.738	3889.09
697.927	3760.07
698.116	3739.59
698.305	3815.37
698.494	3885
698.683	3807.17
698.872	3811.27
699.061	3768.26
699.25	3768.26
699.438	3749.83
699.627	3678.15
699.816	3725.26
700.005	3686.34
700.193	3758.02
700.382	3794.89
700.571	3753.93
700.76	3792.84
700.948	3819.46
701.137	3782.6
701.326	3637.19
701.514	3733.45
701.703	3688.39
701.892	3692.49
702.08	3743.69
702.269	3686.34
702.457	3672.01
702.646	3762.12
702.834	3530.7
703.023	3739.59
703.212	3663.82
703.4	3729.35
703.589	3663.82
703.777	3727.3
703.965	3747.78
704.154	3659.72
704.342	3637.19
704.531	3678.15
704.719	3553.23
704.907	3794.89
705.096	3635.14
705.284	3506.12
705.472	3661.77
705.661	3710.92
705.849	3626.95
706.037	3629
706.226	3702.73
706.414	3743.69
706.602	3866.56
706.79	3637.19
706.979	3655.62
707.167	3676.1
707.355	3614.66
707.543	3649.48
707.731	3661.77
707.919	3647.43
708.107	3579.85
708.296	3678.15
708.484	3629
708.672	3770.31
708.86	3676.1
709.048	3706.82
709.236	3585.99
709.424	3715.02
709.612	3684.3
709.8	3749.83
709.988	3653.58
710.176	3678.15
710.364	3577.8
710.551	3801.03
710.739	3602.38
710.927	3817.41
711.115	3655.62
711.303	3616.71
711.491	3612.62
711.679	3518.41
711.866	3694.54
712.054	3715.02
712.242	3606.47
712.43	3778.5
712.617	3651.53
712.805	3651.53
712.993	3624.9
713.181	3708.87
713.368	3739.59
713.556	3819.46
713.744	3520.46
713.931	3755.97
714.119	3958.72
714.306	3696.58
714.494	3741.64
714.682	3688.39
714.869	3676.1
715.057	3651.53
715.244	3618.76
715.432	3684.3
715.619	3856.33
715.807	3725.26
715.994	3839.94
716.182	3674.06
716.369	3807.17
716.556	3790.79
716.744	3696.58
716.931	3735.49
717.119	3764.17
717.306	3721.16
717.493	3717.06
717.681	3841.99
717.868	3790.79
718.055	3829.7
718.242	3794.89
718.43	3766.21
718.617	3710.92
718.804	3835.85
718.991	3868.61
719.179	3921.86
719.366	3827.65
719.553	3753.93
719.74	3753.93
719.927	3649.48
720.114	3809.22
720.301	3878.85
720.488	3665.86
720.676	3878.85
720.863	3743.69
721.05	3930.05
721.237	3841.99
721.424	3739.59
721.611	3690.44
721.798	3792.84
721.985	3737.54
722.172	3792.84
722.358	3856.33
722.545	3844.04
722.732	3784.65
722.919	3872.71
723.106	3866.56
723.293	3813.32
723.48	3909.57
723.667	3823.56
723.853	3762.12
724.04	3770.31
724.227	3962.82
724.414	3803.08
724.6	3958.72
724.787	3874.76
724.974	3956.68
725.161	3880.9
725.347	3645.38
725.534	3981.25
725.72	3954.63
725.907	3835.85
726.094	3897.28
726.28	3798.98
726.467	3688.39
726.653	3954.63
726.84	3768.26
727.027	4016.07
727.213	3864.52
727.4	3915.72
727.586	3913.67
727.773	3831.75
727.959	3717.06
728.145	3844.04
728.332	3768.26
728.518	3809.22
728.705	3817.41
728.891	3778.5
729.077	3772.36
729.264	4001.73
729.45	3790.79
729.636	3938.24
729.823	3829.7
730.009	3880.9
730.195	4044.74
730.382	4001.73
730.568	3874.76
730.754	3887.04
730.94	3766.21
731.126	3882.95
731.313	3893.19
731.499	3782.6
731.685	3997.63
731.871	3913.67
732.057	3989.44
732.243	3856.33
732.429	3839.94
732.615	3954.63
732.801	3991.49
732.987	3839.94
733.173	3893.19
733.359	3821.51
733.545	3899.33
733.731	3801.03
733.917	3997.63
734.103	3776.45
734.289	3807.17
734.475	3788.74
734.661	4011.97
734.847	3747.78
735.033	3979.2
735.219	3891.14
735.404	3882.95
735.59	3909.57
735.776	3844.04
735.962	3936.2
736.148	3938.24
736.333	3946.44
736.519	3733.45
736.705	3901.38
736.89	3880.9
737.076	3717.06
737.262	3823.56
737.447	3811.27
737.633	3667.91
737.819	3868.61
738.004	3856.33
738.19	3741.64
738.375	3811.27
738.561	3858.37
738.747	3743.69
738.932	3561.42
739.118	3778.5
739.303	3655.62
739.489	3813.32
739.674	3864.52
739.859	3715.02
740.045	3774.41
740.23	3696.58
740.416	3600.33
740.601	3659.72
740.786	3467.21
740.972	3532.75
741.157	3647.43
741.342	3569.61
741.528	3645.38
741.713	3727.3
741.898	3680.2
742.084	3481.55
742.269	3661.77
742.454	3483.59
742.639	3588.04
742.824	3557.32
743.01	3596.23
743.195	3614.66
743.38	3432.4
743.565	3530.7
743.75	3420.11
743.935	3547.08
744.12	3516.36
744.305	3436.49
744.49	3416.01
744.675	3475.4
744.86	3463.12
745.045	3321.81
745.23	3387.34
745.415	3338.19
745.6	3401.68
745.785	3332.05
745.97	3334.09
746.155	3403.72
746.34	3266.51
746.525	3215.31
746.71	3284.94
746.895	3190.74
747.079	3313.61
747.264	3178.45
747.449	3123.15
747.634	3219.41
747.819	3078.1
748.003	3168.21
748.188	3014.61
748.373	3147.73
748.557	3106.77
748.742	3028.95
748.927	2987.99
749.111	2953.17
749.296	3028.95
749.481	2990.03
749.665	2861.01
749.85	2887.64
750.034	2852.82
750.219	2942.93
750.404	2805.72
750.588	2828.24
750.773	2836.44
750.957	2840.53
751.141	2711.51
751.326	2750.42
751.51	2701.27
751.695	2832.34
751.879	2715.61
752.064	2680.79
752.248	2723.8
752.432	2820.05
752.617	2678.74
752.801	2719.7
752.985	2594.78
753.17	2672.6
753.354	2557.91
753.538	2519
753.722	2533.34
753.907	2490.33
754.091	2467.8
754.275	2443.23
754.459	2439.13
754.643	2486.23
754.828	2424.79
755.012	2428.89
755.196	2416.6
755.38	2414.56
755.564	2330.59
755.748	2170.85
755.932	2326.49
756.116	2308.06
756.3	2340.83
756.484	2244.57
756.668	2152.42
756.852	2213.85
757.036	2185.18
757.22	2176.99
757.404	2234.33
757.588	2189.28
757.772	2248.67
757.956	2050.02
758.14	2209.76
758.323	2037.73
758.507	2211.81
758.691	2168.8
758.875	2166.75
759.059	2068.45
759.242	1986.53
759.426	2115.55
759.61	2138.08
759.794	2088.93
759.977	2056.16
760.161	2185.18
760.345	2056.16
760.528	2029.54
760.712	1966.05
760.895	1953.76
761.079	2017.25
761.263	1845.22
761.446	1873.89
761.63	1980.39
761.813	1920.99
761.997	1822.69
762.18	1859.56
762.364	1955.81
762.547	1738.73
762.731	1882.08
762.914	1857.51
763.098	1695.72
763.281	1837.03
763.464	1728.49
763.648	1834.98
763.831	1691.62
764.015	1712.1
764.198	1767.4
764.381	1728.49
764.564	1794.02
764.748	1824.74
764.931	1638.37
765.114	1740.77
765.297	1783.78
765.481	1652.71
765.664	1673.19
765.847	1681.38
766.03	1705.96
766.213	1699.81
766.397	1677.29
766.58	1574.89
766.763	1665
766.946	1652.71
767.129	1581.03
767.312	1583.08
767.495	1607.66
767.678	1593.32
767.861	1628.14
768.044	1554.41
768.227	1458.15
768.41	1566.7
768.593	1531.88
768.776	1550.31
768.959	1552.36
769.142	1613.8
769.324	1466.35
769.507	1550.31
769.69	1472.49
769.873	1554.41
770.056	1570.79
770.239	1490.92
770.421	1449.96
770.604	1517.54
770.787	1454.06
770.97	1411.05
771.152	1400.81
771.335	1464.3
771.518	1449.96
771.7	1447.91
771.883	1406.95
772.066	1443.82
772.248	1394.67
772.431	1460.2
772.613	1382.38
772.796	1398.76
772.978	1286.12
773.161	1335.28
773.343	1341.42
773.526	1320.94
773.708	1279.98
773.891	1193.97
774.073	1329.13
774.256	1310.7
774.438	1425.39
774.621	1249.26
774.803	1275.88
774.985	1318.89
775.168	1325.04
775.35	1142.77
775.532	1140.72
775.715	1198.06
775.897	1222.64
776.079	1236.97
776.261	1142.77
776.444	1126.38
776.626	1153.01
776.808	1200.11
776.99	1097.71
777.173	1095.66
777.355	1136.62
777.537	1093.62
777.719	1189.87
777.901	1183.73
778.083	1093.62
778.265	1015.79
778.447	1146.86
778.629	1056.75
778.811	1003.5
778.993	1142.77
779.175	1093.62
779.357	940.02
779.539	940.02
779.721	1023.98
779.903	1079.28
780.085	1077.23
780.267	958.45
780.449	948.21
780.631	1001.46
780.812	1032.18
780.994	948.21
781.176	886.77
781.358	833.52
781.54	937.97
781.721	931.83
781.903	978.93
782.085	894.96
782.267	919.54
782.448	882.67
782.63	942.07
782.812	866.29
782.993	849.91
783.175	856.05
783.357	870.39
783.538	786.42
783.72	833.52
783.901	759.8
784.083	788.47
784.264	907.25
784.446	817.14
784.627	714.74
784.809	790.52
784.99	819.19
785.172	729.08
785.353	677.88
785.535	839.67
785.716	761.84
785.897	634.87
786.079	729.08
786.26	780.28
786.441	761.84
786.623	669.69
786.804	620.53
786.985	784.37
787.167	851.95
787.348	604.15
787.529	706.55
787.71	796.66
787.891	718.84
788.073	636.92
788.254	651.25
788.435	686.07
788.616	696.31
788.797	688.12
788.978	620.53
789.159	647.16
789.34	665.59
789.522	542.71
789.703	641.01
789.884	583.67
790.065	647.16
790.246	645.11
790.427	587.77
790.607	657.4
790.788	708.6
790.969	598.01
791.15	657.4
791.331	464.89
791.512	522.23
791.693	577.53
791.874	514.04
792.054	704.5
792.235	555
792.416	618.49
792.597	544.76
792.778	604.15
792.958	540.66
793.139	638.97
793.32	491.51
793.5	538.62
793.681	559.1
793.862	505.85
794.042	503.8
794.223	464.89
794.404	534.52
794.584	536.57
794.765	481.27
794.945	460.79
795.126	600.05
795.306	514.04
795.487	481.27
795.667	415.74
795.848	430.07
796.028	444.41
796.209	505.85
796.389	485.37
796.57	411.64
796.75	452.6
796.93	524.28
797.111	489.46
797.291	462.84
797.471	454.65
797.652	403.45
797.832	419.83
798.012	432.12
798.192	415.74
798.373	401.4
798.553	466.94
798.733	440.31
798.913	399.35
799.093	346.11
799.274	475.13
799.454	450.55
799.634	477.18
799.814	454.65
799.994	491.51
800.174	466.94
800.354	331.77
800.534	444.41
800.714	395.26
800.894	395.26
801.074	366.59
801.254	346.11
801.434	415.74
801.614	374.78
801.794	350.2
801.974	1294.32
802.154	382.97
802.334	399.35
802.514	405.5
802.693	374.78
802.873	374.78
803.053	423.93
803.233	360.44
803.413	294.91
803.592	342.01
803.772	358.39
803.952	317.44
804.131	317.44
804.311	331.77
804.491	333.82
804.67	286.72
804.85	290.81
805.03	395.26
805.209	456.7
805.389	348.15
805.568	278.52
805.748	405.5
805.928	354.3
806.107	286.72
806.287	354.3
806.466	331.77
806.646	382.97
806.825	296.96
807.004	360.44
807.184	362.49
807.363	399.35
807.543	333.82
807.722	262.14
807.901	350.2
808.081	290.81
808.26	186.37
808.439	350.2
808.619	315.39
808.798	296.96
808.977	313.34
809.156	315.39
809.336	307.2
809.515	342.01
809.694	249.85
809.873	251.9
810.052	321.53
810.231	260.09
810.411	215.04
810.59	256
810.769	303.1
810.948	290.81
811.127	212.99
811.306	237.56
811.485	229.37
811.664	335.87
811.843	286.72
812.022	327.67
812.201	296.96
812.38	317.44
812.559	155.65
812.737	294.91
812.916	268.28
813.095	235.52
813.274	237.56
813.453	251.9
813.632	276.48
813.811	294.91
813.989	247.8
814.168	251.9
814.347	282.62
814.526	311.29
814.704	325.63
814.883	235.52
815.062	159.74
815.24	290.81
815.419	212.99
815.598	229.37
815.776	104.45
815.955	196.6
816.133	145.41
816.312	274.43
816.49	188.41
816.669	186.37
816.847	149.5
817.026	235.52
817.204	227.32
817.383	176.13
817.561	200.7
817.74	210.94
817.918	251.9
818.097	190.46
818.275	200.7
818.453	204.8
818.632	313.34
818.81	169.98
818.988	227.32
819.167	192.51
819.345	188.41
819.523	243.71
819.701	249.85
819.879	215.04
820.058	227.32
820.236	194.56
820.414	294.91
820.592	268.28
820.77	124.93
820.948	219.13
821.127	253.95
821.305	239.61
821.483	94.21
821.661	253.95
821.839	174.08
822.017	182.27
822.195	145.41
822.373	219.13
822.551	141.31
822.729	174.08
822.907	215.04
823.085	206.84
823.262	237.56
823.44	135.17
823.618	212.99
823.796	194.56
823.974	212.99
824.152	178.17
824.329	188.41
824.507	272.38
824.685	100.35
824.863	126.97
825.04	194.56
825.218	172.03
825.396	155.65
825.574	196.6
825.751	141.31
825.929	206.84
826.107	114.69
826.284	153.6
826.462	129.02
826.639	96.25
826.817	180.22
826.994	190.46
827.172	28.67
827.349	229.37
827.527	141.31
827.704	116.73
827.882	190.46
828.059	196.6
828.237	71.68
828.414	221.18
828.591	36.86
828.769	227.32
828.946	120.83
829.124	212.99
829.301	221.18
829.478	178.17
829.655	126.97
829.833	57.34
830.01	169.98
830.187	112.64
830.364	186.37
830.542	159.74
830.719	188.41
830.896	159.74
831.073	155.65
831.25	102.4
831.427	194.56
831.604	145.41
831.782	110.59
831.959	215.04
832.136	104.45
832.313	90.11
832.49	83.97
832.667	110.59
832.844	135.17
833.021	131.07
833.198	67.58
833.374	159.74
833.551	145.41
833.728	188.41
833.905	186.37
834.082	81.92
834.259	145.41
834.436	161.79
834.612	59.39
834.789	102.4
834.966	122.88
835.143	155.65
835.319	83.97
835.496	118.78
835.673	131.07
835.85	65.53
836.026	59.39
836.203	137.21
836.38	47.1
836.556	118.78
836.733	96.25
836.909	139.26
837.086	92.16
837.262	120.83
837.439	96.25
837.616	73.73
837.792	104.45
837.968	55.3
838.145	98.3
838.321	178.17
838.498	126.97
838.674	182.27
838.851	77.82
839.027	100.35
839.203	67.58
839.38	63.49
839.556	88.06
839.732	98.3
839.909	184.32
840.085	110.59
840.261	57.34
840.437	92.16
840.614	90.11
840.79	172.03
840.966	59.39
841.142	94.21
841.318	79.87
841.494	137.21
841.671	131.07
841.847	106.49
842.023	96.25
842.199	73.73
842.375	122.88
842.551	67.58
842.727	63.49
842.903	112.64
843.079	137.21
843.255	79.87
843.431	133.12
843.607	169.98
843.783	-0
843.959	106.49
844.134	114.69
844.31	67.58
844.486	55.3
844.662	88.06
844.838	131.07
845.013	67.58
845.189	169.98
845.365	106.49
845.541	38.91
845.716	67.58
845.892	106.49
846.068	94.21
846.244	81.92
846.419	200.7
846.595	-2.05
846.77	30.72
846.946	126.97
847.122	26.62
847.297	-2.05
847.473	147.45
847.648	88.06
847.824	55.3
847.999	-2.05
848.175	100.35
848.35	47.1
848.526	120.83
848.701	86.01
848.876	137.21
849.052	92.16
849.227	16.38
849.403	45.06
849.578	75.77
849.753	145.41
849.929	100.35
850.104	73.73
850.279	106.49
850.454	57.34
850.63	137.21
850.805	8.19
850.98	57.34
851.155	51.2
851.33	47.1
851.505	49.15
851.681	159.74
851.856	61.44
852.031	98.3
852.206	16.38
852.381	-14.34
852.556	14.34
852.731	96.25
852.906	86.01
853.081	120.83
853.256	73.73
853.431	16.38
853.606	92.16
853.781	67.58
853.956	10.24
854.131	114.69
854.305	71.68
854.48	-18.43
854.655	-20.48
854.83	40.96
855.005	-36.86
855.18	49.15
855.354	8.19
855.529	120.83
855.704	-18.43
855.879	131.07
856.053	-8.19
856.228	122.88
856.403	51.2
856.577	120.83
856.752	2.05
856.926	53.25
857.101	137.21
857.276	10.24
857.45	12.29
857.625	77.82
857.799	69.63
857.974	92.16
858.148	24.58
858.323	55.3
858.497	63.49
858.672	63.49
858.846	43.01
859.02	53.25
859.195	-0
859.369	30.72
859.543	59.39
859.718	14.34
859.892	38.91
860.066	-12.29
860.241	24.58
860.415	-24.58
860.589	40.96
860.763	90.11
860.938	26.62
861.112	43.01
861.286	-49.15
861.46	129.02
861.634	67.58
861.808	178.17
861.982	47.1
862.157	-18.43
862.331	26.62
862.505	43.01
862.679	-34.82
862.853	12.29
863.027	-38.91
863.201	6.14
863.375	-47.1
863.549	81.92
863.722	59.39
863.896	167.93
864.07	47.1
864.244	30.72
864.418	90.11
864.592	-16.38
864.766	-26.62
864.939	34.82
865.113	49.15
865.287	112.64
865.461	32.77
865.634	63.49
865.808	49.15
865.982	53.25
866.156	-40.96
866.329	6.14
866.503	38.91
866.676	98.3
866.85	28.67
867.024	-0
867.197	92.16
867.371	18.43
867.544	63.49
867.718	24.58
867.891	153.6
868.065	-61.44
868.238	16.38
868.412	110.59
868.585	59.39
868.759	-40.96
868.932	38.91
869.105	26.62
869.279	-0
869.452	51.2
869.625	38.91
869.799	51.2
869.972	57.34
870.145	69.63
870.319	104.45
870.492	49.15
870.665	38.91
870.838	8.19
871.011	-36.86
871.185	6.14
871.358	30.72
871.531	18.43
871.704	43.01
871.877	-18.43
872.05	26.62
872.223	-0
872.396	73.73
872.569	96.25
872.742	-0
872.915	20.48
873.088	22.53
873.261	-32.77
873.434	38.91
873.607	-30.72
873.78	38.91
873.953	2.05
874.126	24.58
874.299	30.72
874.471	24.58
874.644	43.01
874.817	-2.05
874.99	86.01
875.163	-2.05
875.335	92.16
875.508	53.25
875.681	55.3
875.853	6.14
876.026	-75.77
876.199	98.3
876.371	67.58
876.544	-14.34
876.717	47.1
876.889	-67.58
877.062	22.53
877.234	18.43
877.407	14.34
877.579	67.58
877.752	77.82
877.924	38.91
878.097	73.73
878.269	34.82
878.442	55.3
878.614	20.48
878.786	73.73
878.959	79.87
879.131	22.53
879.303	-126.97
879.476	47.1
879.648	96.25
879.82	30.72
879.993	43.01
880.165	-45.06
880.337	-86.01
880.509	88.06
880.681	-12.29
880.854	-4.1
881.026	81.92
881.198	96.25
881.37	-18.43
881.542	22.53
881.714	20.48
881.886	32.77
882.058	-4.1
882.23	65.53
882.402	-43.01
882.574	47.1
882.746	16.38
882.918	98.3
883.09	43.01
883.262	-14.34
883.434	40.96
883.606	-8.19
883.778	77.82
883.95	79.87
884.122	14.34
884.293	-12.29
884.465	49.15
884.637	16.38
884.809	18.43
884.98	8.19
885.152	-14.34
885.324	67.58
885.496	24.58
885.667	24.58
885.839	-43.01
886.011	53.25
886.182	28.67
886.354	38.91
886.525	49.15
886.697	34.82
886.869	59.39
887.04	-24.58
887.212	133.12
887.383	198.65
887.555	18.43
887.726	-38.91
887.897	-0
888.069	-8.19
888.24	73.73
888.412	8.19
888.583	30.72
888.754	32.77
888.926	-45.06
889.097	10.24
889.268	14.34
889.44	24.58
889.611	-104.45
889.782	-38.91
889.953	38.91
890.125	81.92
890.296	4.1
890.467	-8.19
890.638	24.58
890.809	-32.77
890.98	-18.43
891.151	45.06
891.323	16.38
891.494	63.49
891.665	20.48
891.836	32.77
892.007	6.14
892.178	-2.05
892.349	51.2
892.52	-51.2
892.691	-40.96
892.862	2.05
893.032	-18.43
893.203	55.3
893.374	24.58
893.545	104.45
893.716	4.1
893.887	49.15
894.057	24.58
894.228	77.82
894.399	-14.34
894.57	71.68
894.74	30.72
894.911	6.14
895.082	34.82
895.253	-18.43
895.423	-63.49
895.594	69.63
895.764	8.19
895.935	32.77
896.106	4.1
896.276	10.24
896.447	14.34
896.617	-6.14
896.788	-8.19
896.958	18.43
897.129	16.38
897.299	-65.54
897.47	67.58
897.64	38.91
897.81	-8.19
897.981	40.96
898.151	-47.1
898.322	6.14
898.492	34.82
898.662	-34.82
898.832	59.39
899.003	10.24
899.173	-2.05
899.343	-0
899.513	-53.25
