Data from USB4F104151__64__13-05-52-160.txt Node

Date: Fri Mar 14 13:05:52 EDT 2025
User: louis
Spectrometer: USB4F10415
Trigger mode: 4
Integration Time (sec): 4.000000E-2
Scans to average: 1
Electric dark correction enabled: true
Nonlinearity correction enabled: false
Boxcar width: 0
XAxis mode: Wavelengths
Number of Pixels in Spectrum: 3648
>>>>>Begin Spectral Data<<<<<
178.204	-261.12
178.424	-261.12
178.644	-261.12
178.864	-162.81
179.084	-156.67
179.304	-35.84
179.524	-25.6
179.744	1.02
179.964	23.55
180.184	-33.79
180.404	-1.02
180.624	68.61
180.844	-11.26
181.064	5.12
181.283	15.36
181.503	-3.07
181.723	-3.07
181.943	-44.03
182.163	91.13
182.383	-41.98
182.602	33.79
182.822	60.42
183.042	-33.79
183.262	-35.84
183.482	-27.65
183.701	29.7
183.921	35.84
184.141	-31.74
184.361	97.28
184.58	-9.22
184.8	48.13
185.02	-9.22
185.239	37.89
185.459	15.36
185.679	97.28
185.898	-33.79
186.118	23.55
186.338	91.13
186.557	35.84
186.777	9.22
186.997	25.6
187.216	-15.36
187.436	41.98
187.655	27.65
187.875	99.33
188.095	-29.7
188.314	76.8
188.534	128
188.753	33.79
188.973	7.17
189.192	95.23
189.412	-13.31
189.631	11.26
189.851	105.47
190.07	99.33
190.29	-46.08
190.509	21.5
190.729	-29.7
190.948	66.56
191.168	238.59
191.387	17.41
191.607	-48.13
191.826	7.17
192.045	95.23
192.265	-33.79
192.484	68.61
192.704	58.37
192.923	1.02
193.142	148.48
193.362	7.17
193.581	97.28
193.8	148.48
194.02	52.22
194.239	52.22
194.458	31.74
194.678	15.36
194.897	44.03
195.116	44.03
195.335	48.13
195.555	101.37
195.774	9.22
195.993	-5.12
196.212	-29.7
196.432	3.07
196.651	19.46
196.87	56.32
197.089	107.52
197.308	-33.79
197.528	80.89
197.747	-89.09
197.966	21.5
198.185	80.89
198.404	-39.94
198.623	44.03
198.842	82.94
199.062	17.41
199.281	166.91
199.5	31.74
199.719	-9.22
199.938	105.47
200.157	125.95
200.376	89.09
200.595	27.65
200.814	44.03
201.033	-37.89
201.252	101.37
201.471	64.51
201.69	82.94
201.909	50.18
202.128	46.08
202.347	142.33
202.566	33.79
202.785	35.84
203.004	35.84
203.223	103.42
203.442	15.36
203.661	1.02
203.879	7.17
204.098	78.85
204.317	7.17
204.536	62.46
204.755	107.52
204.974	113.66
205.193	66.56
205.411	113.66
205.63	27.65
205.849	-25.6
206.068	31.74
206.287	44.03
206.505	41.98
206.724	56.32
206.943	23.55
207.162	-15.36
207.381	19.46
207.599	25.6
207.818	37.89
208.037	33.79
208.255	60.42
208.474	97.28
208.693	64.51
208.911	46.08
209.13	48.13
209.349	11.26
209.567	31.74
209.786	33.79
210.005	123.9
210.223	46.08
210.442	-89.09
210.661	84.99
210.879	3.07
211.098	101.37
211.316	52.22
211.535	72.7
211.753	21.5
211.972	68.61
212.191	48.13
212.409	41.98
212.628	58.37
212.846	-3.07
213.065	48.13
213.283	97.28
213.502	64.51
213.72	19.46
213.938	54.27
214.157	31.74
214.375	9.22
214.594	25.6
214.812	41.98
215.031	-29.7
215.249	33.79
215.467	-25.6
215.686	56.32
215.904	46.08
216.122	48.13
216.341	123.9
216.559	60.42
216.778	181.25
216.996	132.09
217.214	17.41
217.432	23.55
217.651	21.5
217.869	17.41
218.087	101.37
218.306	-35.84
218.524	46.08
218.742	-1.02
218.96	68.61
219.179	-15.36
219.397	66.56
219.615	146.43
219.833	119.81
220.051	27.65
220.27	56.32
220.488	101.37
220.706	103.42
220.924	91.13
221.142	17.41
221.36	58.37
221.578	7.17
221.796	1.02
222.015	9.22
222.233	-3.07
222.451	175.1
222.669	-44.03
222.887	68.61
223.105	27.65
223.323	46.08
223.541	-23.55
223.759	-41.98
223.977	44.03
224.195	78.85
224.413	48.13
224.631	25.6
224.849	76.8
225.067	115.71
225.285	-76.8
225.503	50.18
225.721	-46.08
225.939	-1.02
226.157	44.03
226.375	154.62
226.592	-31.74
226.81	17.41
227.028	72.7
227.246	146.43
227.464	-9.22
227.682	175.1
227.9	27.65
228.117	113.66
228.335	-15.36
228.553	66.56
228.771	37.89
228.989	58.37
229.206	33.79
229.424	1.02
229.642	66.56
229.86	-9.22
230.077	128
230.295	-17.41
230.513	134.14
230.731	68.61
230.948	105.47
231.166	119.81
231.384	-5.12
231.601	50.18
231.819	125.95
232.037	80.89
232.254	1.02
232.472	25.6
232.689	-70.65
232.907	11.26
233.125	-5.12
233.342	87.04
233.56	68.61
233.777	62.46
233.995	68.61
234.213	95.23
234.43	17.41
234.648	64.51
234.865	31.74
235.083	64.51
235.3	95.23
235.518	39.94
235.735	84.99
235.953	-9.22
236.17	60.42
236.388	1.02
236.605	21.5
236.822	84.99
237.04	50.18
237.257	19.46
237.475	-78.85
237.692	-9.22
237.909	39.94
238.127	50.18
238.344	117.76
238.562	9.22
238.779	-68.61
238.996	21.5
239.214	9.22
239.431	35.84
239.648	-13.31
239.865	107.52
240.083	72.7
240.3	9.22
240.517	21.5
240.735	107.52
240.952	41.98
241.169	23.55
241.386	27.65
241.603	-23.55
241.821	9.22
242.038	66.56
242.255	7.17
242.472	27.65
242.689	21.5
242.907	66.56
243.124	89.09
243.341	41.98
243.558	5.12
243.775	41.98
243.992	58.37
244.209	33.79
244.426	171.01
244.643	113.66
244.86	7.17
245.078	17.41
245.295	44.03
245.512	41.98
245.729	-27.65
245.946	48.13
246.163	56.32
246.38	9.22
246.597	-13.31
246.814	-7.17
247.031	-52.22
247.248	80.89
247.464	-3.07
247.681	-17.41
247.898	41.98
248.115	74.75
248.332	-17.41
248.549	91.13
248.766	158.72
248.983	95.23
249.2	39.94
249.417	66.56
249.633	52.22
249.85	134.14
250.067	37.89
250.284	39.94
250.501	33.79
250.717	76.8
250.934	-21.5
251.151	-5.12
251.368	-19.46
251.585	64.51
251.801	19.46
252.018	-41.98
252.235	105.47
252.451	-29.7
252.668	31.74
252.885	97.28
253.102	62.46
253.318	-3.07
253.535	13.31
253.752	58.37
253.968	121.85
254.185	19.46
254.401	7.17
254.618	82.94
254.835	9.22
255.051	62.46
255.268	60.42
255.484	23.55
255.701	31.74
255.917	48.13
256.134	84.99
256.351	48.13
256.567	39.94
256.784	72.7
257	76.8
257.217	66.56
257.433	23.55
257.65	19.46
257.866	74.75
258.082	7.17
258.299	87.04
258.515	60.42
258.732	58.37
258.948	-9.22
259.165	70.65
259.381	-5.12
259.597	44.03
259.814	72.7
260.03	39.94
260.246	21.5
260.463	107.52
260.679	80.89
260.895	72.7
261.112	13.31
261.328	-1.02
261.544	-3.07
261.761	201.72
261.977	7.17
262.193	-1.02
262.409	27.65
262.626	29.7
262.842	48.13
263.058	-25.6
263.274	23.55
263.49	19.46
263.707	89.09
263.923	13.31
264.139	-50.18
264.355	7.17
264.571	-21.5
264.787	121.85
265.004	130.05
265.22	15.36
265.436	82.94
265.652	29.7
265.868	48.13
266.084	64.51
266.3	13.31
266.516	7.17
266.732	105.47
266.948	44.03
267.164	72.7
267.38	-1.02
267.596	23.55
267.812	107.52
268.028	33.79
268.244	-58.37
268.46	-58.37
268.676	78.85
268.892	72.7
269.108	7.17
269.324	37.89
269.54	13.31
269.756	117.76
269.972	-64.51
270.188	11.26
270.403	-31.74
270.619	58.37
270.835	46.08
271.051	48.13
271.267	-17.41
271.483	15.36
271.698	52.22
271.914	50.18
272.13	-3.07
272.346	39.94
272.562	70.65
272.777	82.94
272.993	21.5
273.209	-46.08
273.425	109.57
273.64	-7.17
273.856	121.85
274.072	35.84
274.287	33.79
274.503	97.28
274.719	78.85
274.934	52.22
275.15	-11.26
275.366	7.17
275.581	-13.31
275.797	25.6
276.012	9.22
276.228	17.41
276.444	15.36
276.659	17.41
276.875	48.13
277.09	27.65
277.306	21.5
277.521	152.57
277.737	21.5
277.952	64.51
278.168	23.55
278.383	68.61
278.599	66.56
278.814	-25.6
279.03	68.61
279.245	95.23
279.461	105.47
279.676	23.55
279.892	84.99
280.107	-9.22
280.322	3.07
280.538	31.74
280.753	27.65
280.969	80.89
281.184	15.36
281.399	41.98
281.615	89.09
281.83	39.94
282.045	-70.65
282.26	64.51
282.476	19.46
282.691	13.31
282.906	56.32
283.122	-3.07
283.337	62.46
283.552	39.94
283.767	54.27
283.983	128
284.198	9.22
284.413	89.09
284.628	-13.31
284.843	46.08
285.058	48.13
285.274	39.94
285.489	-31.74
285.704	50.18
285.919	17.41
286.134	64.51
286.349	39.94
286.564	25.6
286.779	93.18
286.995	-48.13
287.21	41.98
287.425	93.18
287.64	-11.26
287.855	41.98
288.07	11.26
288.285	89.09
288.5	97.28
288.715	37.89
288.93	48.13
289.145	-46.08
289.36	44.03
289.575	115.71
289.79	7.17
290.004	72.7
290.219	130.05
290.434	-9.22
290.649	62.46
290.864	17.41
291.079	52.22
291.294	74.75
291.509	74.75
291.724	60.42
291.938	13.31
292.153	72.7
292.368	101.37
292.583	91.13
292.798	95.23
293.012	80.89
293.227	5.12
293.442	25.6
293.657	25.6
293.871	95.23
294.086	84.99
294.301	146.43
294.516	33.79
294.73	-23.55
294.945	62.46
295.16	56.32
295.374	97.28
295.589	89.09
295.804	39.94
296.018	3.07
296.233	66.56
296.447	27.65
296.662	60.42
296.877	89.09
297.091	87.04
297.306	15.36
297.52	33.79
297.735	101.37
297.949	99.33
298.164	56.32
298.378	89.09
298.593	3.07
298.807	60.42
299.022	66.56
299.236	-11.26
299.451	1.02
299.665	-27.65
299.88	11.26
300.094	80.89
300.309	15.36
300.523	41.98
300.737	27.65
300.952	-5.12
301.166	99.33
301.381	-46.08
301.595	72.7
301.809	58.37
302.024	31.74
302.238	50.18
302.452	50.18
302.667	70.65
302.881	87.04
303.095	13.31
303.309	17.41
303.524	89.09
303.738	-1.02
303.952	-35.84
304.166	48.13
304.381	-58.37
304.595	76.8
304.809	44.03
305.023	64.51
305.237	-52.22
305.452	-11.26
305.666	35.84
305.88	19.46
306.094	76.8
306.308	54.27
306.522	132.09
306.736	54.27
306.95	46.08
307.164	-41.98
307.379	44.03
307.593	101.37
307.807	64.51
308.021	5.12
308.235	52.22
308.449	21.5
308.663	91.13
308.877	125.95
309.091	46.08
309.305	19.46
309.519	41.98
309.733	29.7
309.947	48.13
310.161	146.43
310.374	48.13
310.588	117.76
310.802	109.57
311.016	17.41
311.23	54.27
311.444	111.61
311.658	56.32
311.872	33.79
312.085	93.18
312.299	128
312.513	103.42
312.727	44.03
312.941	-25.6
313.154	13.31
313.368	31.74
313.582	27.65
313.796	31.74
314.009	-58.37
314.223	46.08
314.437	115.71
314.651	105.47
314.864	76.8
315.078	17.41
315.292	-37.89
315.505	52.22
315.719	150.53
315.933	15.36
316.146	-35.84
316.36	-17.41
316.573	132.09
316.787	72.7
317.001	41.98
317.214	54.27
317.428	-35.84
317.641	-58.37
317.855	64.51
318.068	54.27
318.282	89.09
318.495	154.62
318.709	64.51
318.922	93.18
319.136	113.66
319.349	64.51
319.563	99.33
319.776	35.84
319.99	-27.65
320.203	68.61
320.417	11.26
320.63	115.71
320.843	128
321.057	84.99
321.27	-1.02
321.483	39.94
321.697	95.23
321.91	70.65
322.124	72.7
322.337	130.05
322.55	21.5
322.763	-5.12
322.977	41.98
323.19	3.07
323.403	7.17
323.617	68.61
323.83	21.5
324.043	23.55
324.256	113.66
324.469	17.41
324.683	80.89
324.896	-23.55
325.109	54.27
325.322	-19.46
325.535	107.52
325.748	56.32
325.962	19.46
326.175	91.13
326.388	93.18
326.601	72.7
326.814	1.02
327.027	99.33
327.24	21.5
327.453	31.74
327.666	125.95
327.879	39.94
328.092	60.42
328.305	41.98
328.518	23.55
328.731	29.7
328.944	62.46
329.157	33.79
329.37	31.74
329.583	103.42
329.796	72.7
330.009	39.94
330.222	39.94
330.435	103.42
330.648	50.18
330.861	48.13
331.073	66.56
331.286	50.18
331.499	9.22
331.712	-3.07
331.925	66.56
332.138	72.7
332.35	80.89
332.563	-15.36
332.776	82.94
332.989	39.94
333.202	95.23
333.414	25.6
333.627	87.04
333.84	17.41
334.053	82.94
334.265	9.22
334.478	-7.17
334.691	74.75
334.903	39.94
335.116	9.22
335.329	82.94
335.541	35.84
335.754	62.46
335.966	19.46
336.179	44.03
336.392	1.02
336.604	19.46
336.817	109.57
337.029	93.18
337.242	29.7
337.454	105.47
337.667	54.27
337.88	162.81
338.092	80.89
338.305	74.75
338.517	13.31
338.729	35.84
338.942	87.04
339.154	15.36
339.367	44.03
339.579	-9.22
339.792	11.26
340.004	101.37
340.217	11.26
340.429	82.94
340.641	27.65
340.854	-17.41
341.066	76.8
341.278	35.84
341.491	48.13
341.703	52.22
341.915	70.65
342.128	44.03
342.34	25.6
342.552	50.18
342.764	52.22
342.977	27.65
343.189	93.18
343.401	109.57
343.613	-56.32
343.826	76.8
344.038	31.74
344.25	52.22
344.462	-13.31
344.674	105.47
344.886	1.02
345.099	23.55
345.311	113.66
345.523	1.02
345.735	11.26
345.947	19.46
346.159	41.98
346.371	66.56
346.583	48.13
346.795	15.36
347.007	31.74
347.219	66.56
347.431	44.03
347.643	15.36
347.855	-27.65
348.067	72.7
348.279	-7.17
348.491	27.65
348.703	52.22
348.915	107.52
349.127	-80.89
349.339	48.13
349.551	3.07
349.763	130.05
349.975	-25.6
350.187	97.28
350.399	64.51
350.61	74.75
350.822	39.94
351.034	41.98
351.246	72.7
351.458	19.46
351.669	78.85
351.881	99.33
352.093	93.18
352.305	99.33
352.517	48.13
352.728	68.61
352.94	72.7
353.152	56.32
353.363	-9.22
353.575	103.42
353.787	154.62
353.999	91.13
354.21	117.76
354.422	9.22
354.633	44.03
354.845	27.65
355.057	107.52
355.268	144.38
355.48	107.52
355.692	-15.36
355.903	54.27
356.115	64.51
356.326	13.31
356.538	140.29
356.749	99.33
356.961	111.61
357.172	95.23
357.384	105.47
357.595	211.96
357.807	97.28
358.018	9.22
358.23	21.5
358.441	111.61
358.653	1.02
358.864	19.46
359.075	76.8
359.287	-7.17
359.498	107.52
359.709	93.18
359.921	72.7
360.132	80.89
360.344	27.65
360.555	39.94
360.766	72.7
360.977	-46.08
361.189	158.72
361.4	33.79
361.611	80.89
361.823	130.05
362.034	41.98
362.245	-74.75
362.456	76.8
362.667	105.47
362.879	44.03
363.09	31.74
363.301	44.03
363.512	97.28
363.723	66.56
363.935	33.79
364.146	-33.79
364.357	56.32
364.568	146.43
364.779	9.22
364.99	130.05
365.201	31.74
365.412	7.17
365.623	15.36
365.834	35.84
366.045	84.99
366.256	177.15
366.467	-9.22
366.678	72.7
366.889	52.22
367.1	-9.22
367.311	64.51
367.522	70.65
367.733	54.27
367.944	109.57
368.155	27.65
368.366	89.09
368.577	35.84
368.788	97.28
368.999	-3.07
369.209	46.08
369.42	177.15
369.631	99.33
369.842	97.28
370.053	80.89
370.264	138.24
370.474	-13.31
370.685	97.28
370.896	27.65
371.107	70.65
371.317	66.56
371.528	41.98
371.739	125.95
371.95	68.61
372.16	72.7
372.371	-9.22
372.582	76.8
372.792	109.57
373.003	105.47
373.214	72.7
373.424	103.42
373.635	-44.03
373.846	78.85
374.056	78.85
374.267	134.14
374.477	109.57
374.688	136.19
374.898	80.89
375.109	109.57
375.319	39.94
375.53	23.55
375.74	177.15
375.951	31.74
376.161	27.65
376.372	91.13
376.582	-21.5
376.793	121.85
377.003	1.02
377.214	31.74
377.424	56.32
377.635	80.89
377.845	-48.13
378.055	84.99
378.266	1.02
378.476	93.18
378.686	89.09
378.897	99.33
379.107	144.38
379.317	37.89
379.528	25.6
379.738	82.94
379.948	-7.17
380.158	52.22
380.369	56.32
380.579	113.66
380.789	80.89
380.999	156.67
381.21	109.57
381.42	148.48
381.63	80.89
381.84	41.98
382.05	33.79
382.261	82.94
382.471	103.42
382.681	7.17
382.891	158.72
383.101	74.75
383.311	62.46
383.521	56.32
383.731	82.94
383.941	111.61
384.151	146.43
384.361	44.03
384.571	72.7
384.781	99.33
384.991	164.86
385.201	123.9
385.411	15.36
385.621	39.94
385.831	58.37
386.041	113.66
386.251	64.51
386.461	125.95
386.671	60.42
386.881	80.89
387.091	46.08
387.301	56.32
387.511	136.19
387.72	101.37
387.93	162.81
388.14	25.6
388.35	74.75
388.56	113.66
388.769	121.85
388.979	52.22
389.189	-9.22
389.399	9.22
389.609	148.48
389.818	123.9
390.028	62.46
390.238	66.56
390.447	62.46
390.657	125.95
390.867	33.79
391.076	37.89
391.286	70.65
391.496	119.81
391.705	87.04
391.915	60.42
392.125	103.42
392.334	48.13
392.544	134.14
392.753	93.18
392.963	76.8
393.172	107.52
393.382	46.08
393.591	187.39
393.801	99.33
394.01	138.24
394.22	160.77
394.429	156.67
394.639	111.61
394.848	103.42
395.058	156.67
395.267	91.13
395.477	97.28
395.686	130.05
395.895	148.48
396.105	154.62
396.314	105.47
396.524	89.09
396.733	113.66
396.942	152.57
397.152	254.97
397.361	187.39
397.57	99.33
397.78	35.84
397.989	82.94
398.198	185.34
398.407	101.37
398.617	74.75
398.826	132.09
399.035	105.47
399.244	173.05
399.453	203.77
399.663	146.43
399.872	101.37
400.081	99.33
400.29	179.2
400.499	89.09
400.708	119.81
400.917	27.65
401.127	173.05
401.336	78.85
401.545	134.14
401.754	166.91
401.963	173.05
402.172	41.98
402.381	121.85
402.59	97.28
402.799	123.9
403.008	173.05
403.217	101.37
403.426	187.39
403.635	164.86
403.844	187.39
404.053	76.8
404.262	138.24
404.471	261.12
404.68	181.25
404.888	168.96
405.097	68.61
405.306	166.91
405.515	173.05
405.724	121.85
405.933	220.16
406.142	222.2
406.35	193.53
406.559	195.58
406.768	201.72
406.977	254.97
407.185	246.78
407.394	334.84
407.603	228.35
407.812	207.87
408.02	244.73
408.229	254.97
408.438	230.4
408.646	271.36
408.855	383.99
409.064	359.42
409.272	351.23
409.481	347.13
409.69	265.21
409.898	322.56
410.107	314.36
410.315	404.47
410.524	343.03
410.733	453.63
410.941	400.38
411.15	459.77
411.358	474.1
411.567	556.02
411.775	445.43
411.984	533.5
412.192	433.15
412.401	515.06
412.609	627.7
412.818	637.94
413.026	635.89
413.234	574.46
413.443	570.36
413.651	568.31
413.86	629.75
414.068	830.45
414.276	754.68
414.485	728.05
414.693	914.42
414.901	908.27
415.11	807.92
415.318	840.69
415.526	969.71
415.734	904.18
415.943	855.03
416.151	1002.48
416.359	945.14
416.567	1080.3
416.776	1117.17
416.984	1192.94
417.192	1207.28
417.4	1123.31
417.608	1131.5
417.817	1221.61
418.025	1305.58
418.233	1442.79
418.441	1350.64
418.649	1375.21
418.857	1512.42
419.065	1610.73
419.273	1545.19
419.481	1612.78
419.689	1807.33
419.897	1819.62
420.105	1743.85
420.313	1846.24
420.521	1979.36
420.729	1967.07
420.937	2003.94
421.145	2071.52
421.353	2270.17
421.561	2333.66
421.769	2325.47
421.977	2415.58
422.185	2462.68
422.393	2558.94
422.601	2728.92
422.809	2685.91
423.017	2683.86
423.224	2814.93
423.432	2968.53
423.64	2929.62
423.848	3275.73
424.056	3245.01
424.263	3447.76
424.471	3431.37
424.679	3460.04
424.887	3711.94
425.094	3808.2
425.302	3804.1
425.51	4096.96
425.718	4058.05
425.925	4092.87
426.133	4223.94
426.341	4537.27
426.548	4791.22
426.756	4719.54
426.964	4727.74
427.171	4922.29
427.379	5182.38
427.586	5266.35
427.794	5434.29
428.001	5622.7
428.209	5899.17
428.417	5888.93
428.624	6249.38
428.832	6169.51
429.039	6310.82
429.247	6228.9
429.454	6802.33
429.662	7285.65
429.869	6906.77
430.076	7136.15
430.284	7000.98
430.491	7365.52
430.699	7695.24
430.906	7814.02
431.114	7873.42
431.321	8143.75
431.528	8293.25
431.736	8760.19
431.943	9266.03
432.15	9067.38
432.358	9165.68
432.565	9646.96
432.772	9517.93
432.979	10023.78
433.187	10247.01
433.394	10146.66
433.601	11035.48
433.808	10959.7
434.016	10935.13
434.223	11479.89
434.43	12073.8
434.637	11826
434.844	12518.21
435.052	12813.12
435.259	12753.73
435.466	13042.49
435.673	12933.95
435.88	13652.78
436.087	14400.29
436.294	14394.15
436.501	14140.2
436.708	14197.54
436.915	14725.92
437.122	15651.6
437.329	15317.78
437.537	15760.14
437.743	16096.01
437.95	15850.25
438.157	16857.85
438.364	17552.12
438.571	17357.56
438.778	17711.86
438.985	19247.83
439.192	18475.75
439.399	19008.22
439.606	18467.56
439.813	19634.9
440.02	20769.48
440.227	20257.48
440.433	20472.52
440.64	20918.98
440.847	20587.21
441.054	21123.77
441.261	22772.39
441.467	22385.32
441.674	23007.9
441.881	23911.06
442.088	23542.42
442.294	23204.51
442.501	23706.26
442.708	24855.17
442.914	25242.24
443.121	26774.12
443.328	25586.3
443.534	27777.62
443.741	26958.44
443.948	26296.94
444.154	28578.38
444.361	28363.34
444.568	28904.01
444.774	28484.17
444.981	28777.03
445.187	29868.6
445.394	30804.52
445.6	30503.47
445.807	33692.16
446.013	32016.92
446.22	32762.38
446.426	33950.2
446.633	34216.44
446.839	35791.33
447.046	33614.34
447.252	35979.74
447.459	35828.19
447.665	35967.45
447.871	37183.94
448.078	38922.67
448.284	37007.82
448.491	38085.05
448.697	39643.56
448.903	40278.43
449.11	40837.52
449.316	39883.17
449.522	40446.36
449.728	41902.46
449.935	42301.82
450.141	42076.54
450.347	42588.53
450.553	41615.75
450.76	42594.68
450.966	43598.18
451.172	43008.37
451.378	44384.6
451.584	43676.01
451.791	44663.13
451.997	44210.53
452.203	44949.84
452.409	45152.59
452.615	45138.26
452.821	42908.02
453.027	42891.63
453.233	44951.89
453.44	43327.85
453.646	43575.66
453.852	44106.08
454.058	44841.3
454.264	43678.05
454.47	44609.88
454.676	43606.37
454.882	44374.36
455.088	40933.78
455.294	41570.69
455.5	42348.92
455.705	42772.85
455.911	41005.45
456.117	39954.85
456.323	39848.35
456.529	37738.94
456.735	39569.83
456.941	38517.17
457.147	37913.02
457.352	36469.2
457.558	36198.87
457.764	36153.82
457.97	35715.55
458.176	34965.99
458.381	34812.4
458.587	32944.65
458.793	33296.9
458.999	31566.37
459.204	33743.36
459.41	32451.09
459.616	30542.38
459.821	30812.71
460.027	30544.43
460.233	30153.27
460.438	28371.54
460.644	28854.86
460.85	27513.44
461.055	27038.31
461.261	27101.79
461.466	24947.33
461.672	24140.43
461.878	26346.09
462.083	24369.8
462.289	23536.28
462.494	23294.62
462.7	22192.81
462.905	21867.19
463.111	22768.29
463.316	22487.72
463.522	22524.58
463.727	22149.81
463.932	22133.42
464.138	21764.79
464.343	22327.98
464.549	21144.25
464.754	22256.3
464.959	22145.71
465.165	21699.25
465.37	20710.08
465.575	20308.68
465.781	20982.46
465.986	21101.25
466.191	20464.33
466.397	19665.62
466.602	18856.67
466.807	19614.42
467.012	19808.98
467.218	19997.39
467.423	19583.7
467.628	19696.34
467.833	20290.25
468.038	19735.25
468.244	19106.52
468.449	19919.57
468.654	19286.75
468.859	18954.97
469.064	19055.33
469.269	18143.98
469.474	18176.75
469.679	18731.75
469.885	17974
470.09	18520.81
470.295	18406.12
470.5	18010.86
470.705	18070.25
470.91	17357.56
471.115	17576.69
471.32	17550.07
471.525	17294.07
471.73	17390.33
471.935	16993.02
472.139	16558.85
472.344	16591.62
472.549	16554.76
472.754	16513.8
472.959	16198.41
473.164	15487.76
473.369	15575.83
473.574	15997.71
473.778	15751.95
473.983	15829.77
474.188	15692.56
474.393	15067.93
474.598	15315.73
474.802	14940.96
475.007	15160.09
475.212	14885.66
475.417	14502.69
475.621	14373.67
475.826	14383.91
476.031	14123.82
476.235	14052.14
476.44	14037.8
476.645	13802.29
476.849	13830.96
477.054	13642.54
477.259	13458.23
477.463	13531.95
477.668	13189.94
477.872	13230.9
478.077	13110.07
478.282	12821.31
478.486	12481.35
478.691	12514.11
478.895	12577.6
479.1	12270.4
479.304	12401.47
479.509	12159.81
479.713	12262.21
479.918	11809.61
480.122	11664.21
480.326	12094.28
480.531	11852.62
480.735	11744.08
480.94	11787.08
481.144	12141.38
481.348	11496.27
481.553	11760.46
481.757	11610.96
481.961	11557.71
482.166	11778.89
482.37	11666.25
482.574	11490.13
482.778	11281.24
482.983	11520.85
483.187	11375.44
483.391	11535.18
483.595	11268.95
483.8	11277.14
484.004	11520.85
484.208	11821.9
484.412	11643.73
484.616	11588.43
484.821	11412.31
485.025	11119.45
485.229	11375.44
485.433	11340.63
485.637	11377.49
485.841	11340.63
486.045	11541.33
486.249	11463.51
486.453	11234.13
486.657	11373.39
486.861	11498.32
487.065	11369.3
487.269	11387.73
487.473	11221.84
487.677	11486.03
487.881	11635.53
488.085	11434.83
488.289	11481.94
488.493	11610.96
488.697	11606.86
488.901	11565.9
489.105	11479.89
489.309	11625.29
489.512	11443.03
489.716	11559.76
489.92	11711.31
490.124	11608.91
490.328	11823.95
490.531	11477.84
490.735	11641.68
490.939	11770.7
491.143	11692.88
491.346	11860.81
491.55	11928.39
491.754	12016.46
491.958	12096.33
492.161	11809.61
492.365	11985.74
492.569	12043.08
492.772	11944.78
492.976	12233.54
493.18	12114.76
493.383	12311.36
493.587	12262.21
493.79	12456.77
493.994	12424
494.197	12368.71
494.401	12727.1
494.605	12413.76
494.808	12847.93
495.012	12716.86
495.215	13079.35
495.419	13005.63
495.622	13138.74
495.825	13099.83
496.029	13292.34
496.232	13665.07
496.436	13339.44
496.639	13943.6
496.843	13658.93
497.046	13900.59
497.249	14045.99
497.453	14035.75
497.656	14322.47
497.859	14332.71
498.063	14426.92
498.266	14910.24
498.469	14711.58
498.673	14697.25
498.876	14787.36
499.079	15176.47
499.282	15244.06
499.485	15592.21
499.689	15772.43
499.892	15913.74
500.095	16022.28
500.298	16368.39
500.501	16343.81
500.705	16591.62
500.908	16657.15
501.111	17330.94
501.314	17201.91
501.517	17324.79
501.72	17443.57
501.923	17720.05
502.126	17838.83
502.329	18164.46
502.532	18109.16
502.735	18285.29
502.938	18588.39
503.141	18635.49
503.344	19213.02
503.547	18909.92
503.75	19383
503.953	19423.96
504.156	19813.07
504.359	20021.97
504.562	20333.26
504.765	20339.4
504.968	20493
505.17	20873.92
505.373	20904.64
505.576	21498.55
505.779	21435.06
505.982	21705.4
506.185	22201.01
506.387	22088.37
506.59	22100.65
506.793	22495.91
506.996	22778.53
507.198	23472.79
507.401	23147.17
507.604	23519.9
507.807	23952.02
508.009	24029.84
508.212	24253.07
508.415	24570.51
508.617	24687.24
508.82	24978.05
509.022	24720.01
509.225	25498.23
509.428	25635.45
509.63	25954.93
509.833	25952.88
510.035	26356.33
510.238	26673.77
510.44	26770.02
510.643	26874.47
510.845	27152.99
511.048	26806.89
511.25	27763.29
511.453	27605.59
511.655	28758.6
511.858	28269.14
512.06	28781.13
512.262	28973.64
512.465	29047.36
512.667	29471.29
512.87	29622.84
513.072	29805.11
513.274	30341.68
513.477	30585.39
513.679	30736.94
513.881	31171.11
514.084	31562.27
514.286	31382.05
514.488	31443.49
514.69	32623.12
514.893	32430.61
515.095	32838.15
515.297	33274.37
515.499	33139.21
515.701	33507.84
515.904	34007.55
516.106	34372.08
516.308	34724.33
516.51	34617.84
516.712	34865.64
516.914	35297.77
517.116	35496.42
517.318	36139.48
517.52	36116.95
517.722	35881.44
517.925	36678.1
518.127	36866.51
518.329	37237.19
518.531	36997.58
518.733	38078.91
518.935	38275.51
519.136	37577.15
519.338	38648.24
519.54	38726.07
519.742	38816.18
519.944	39178.67
520.146	39678.37
520.348	40069.53
520.55	40513.94
520.752	40458.65
520.954	41091.47
521.155	40651.16
521.357	41234.83
521.559	41642.37
521.761	42070.4
521.963	42162.56
522.164	42234.24
522.366	42305.91
522.568	42353.02
522.77	43114.86
522.971	43700.58
523.173	43473.26
523.375	43630.95
523.576	43997.54
523.778	43905.38
523.98	44902.74
524.181	44585.3
524.383	44683.61
524.584	45246.8
524.786	45312.33
524.988	44743
525.189	45877.57
525.391	46006.59
525.592	46045.51
525.794	46553.4
525.995	46084.42
526.197	46356.8
526.398	46569.79
526.6	46809.4
526.801	46713.14
527.003	47110.45
527.204	47235.38
527.406	47524.14
527.607	47247.66
527.808	47763.75
528.01	46919.99
528.211	47499.56
528.412	48494.88
528.614	48085.28
528.815	48376.09
529.016	48908.57
529.218	48650.52
529.419	48587.03
529.62	48802.07
529.822	48636.19
530.023	48451.87
530.224	48550.17
530.425	49080.6
530.626	48607.51
530.828	48924.95
531.029	49334.54
531.23	48851.22
531.431	49467.66
531.632	49193.23
531.833	49776.9
532.035	49506.57
532.236	49518.86
532.437	49885.45
532.638	49283.34
532.839	49778.95
533.04	50061.57
533.241	49500.43
533.442	50485.5
533.643	49842.44
533.844	49912.07
534.045	50049.28
534.246	49301.78
534.447	50245.89
534.648	49975.56
534.849	50067.72
535.05	49733.9
535.251	49897.73
535.451	49645.83
535.652	49948.93
535.853	50069.76
536.054	49791.24
536.255	50051.33
536.456	49799.43
536.657	50688.25
536.857	49862.92
537.058	49778.95
537.259	49903.88
537.46	50342.14
537.66	49893.64
537.861	50053.38
538.062	49881.35
538.263	50039.04
538.463	49719.56
538.664	49983.75
538.865	49797.38
539.065	50364.67
539.266	49506.57
539.466	50190.59
539.667	49948.93
539.868	50202.88
540.068	50086.15
540.269	49686.79
540.469	50395.39
540.67	49778.95
540.87	49828.1
541.071	49801.48
541.271	50366.72
541.472	49432.85
541.672	49785.1
541.873	49594.64
542.073	48892.18
542.274	50374.91
542.474	49211.67
542.675	49602.83
542.875	49795.34
543.075	49932.55
543.276	49017.11
543.476	49799.43
543.676	49264.91
543.877	49821.96
544.077	49404.17
544.277	49297.68
544.478	49613.07
544.678	49717.51
544.878	49422.61
545.078	49674.51
545.279	49348.88
545.479	49381.65
545.679	49781
545.879	49510.67
546.079	49199.38
546.28	49029.4
546.48	49092.88
546.68	50049.28
546.88	49398.03
547.08	49742.09
547.28	49273.1
547.48	49174.8
547.68	49412.37
547.88	48734.49
548.081	49424.65
548.281	49367.31
548.481	49371.41
548.681	49688.84
548.881	49213.71
549.081	49211.67
549.28	48883.99
549.48	49565.96
549.68	49289.49
549.88	49623.31
550.08	49131.79
550.28	49318.16
550.48	49244.43
550.68	49518.86
550.88	49262.86
551.08	49154.32
551.279	49269.01
551.479	48781.59
551.679	49383.69
551.879	49027.35
552.079	48924.95
552.278	48853.27
552.478	48730.39
552.678	48507.16
552.878	49109.27
553.077	48558.36
553.277	48220.45
553.477	49111.31
553.676	48722.2
553.876	48279.84
554.076	48474.4
554.275	48443.68
554.475	48439.58
554.674	48621.85
554.874	48521.5
555.074	48347.42
555.273	48523.55
555.473	48337.18
555.672	48283.94
555.872	48195.87
556.071	48488.73
556.271	48824.6
556.47	47853.86
556.67	47763.75
556.869	48425.25
557.068	48312.61
557.268	47737.13
557.467	48271.65
557.667	48093.47
557.866	47886.63
558.065	47610.15
558.265	47939.88
558.464	47913.25
558.663	48089.38
558.863	47315.25
559.062	47919.4
559.261	47110.45
559.461	47696.17
559.66	47024.43
559.859	47436.08
560.058	47415.6
560.258	47712.55
560.457	46881.08
560.656	47401.26
560.855	46846.26
561.054	47114.55
561.253	46983.48
561.453	47300.91
561.652	46764.34
561.851	47124.78
562.05	46760.25
562.249	46043.46
562.448	46862.64
562.647	46657.85
562.846	46672.18
563.045	46219.58
563.244	46043.46
563.443	46723.38
563.642	45840.71
563.841	46528.83
564.04	45521.23
564.239	46567.74
564.438	45250.89
564.637	45914.44
564.836	46102.85
565.035	45222.22
565.234	45988.16
565.432	45199.69
565.631	45701.45
565.83	45502.79
566.029	45408.59
566.228	45001.04
566.427	45257.04
566.625	44927.31
566.824	44495.19
567.023	45336.91
567.222	44161.37
567.42	45082.96
567.619	44274.01
567.818	44556.63
568.016	44702.04
568.215	44663.13
568.414	44282.2
568.612	44595.54
568.811	44235.1
569.01	44188
569.208	44069.22
569.407	44075.36
569.605	43159.92
569.804	43790.69
570.002	43637.09
570.201	43641.19
570.4	43125.1
570.598	43219.31
570.797	43139.44
570.995	43471.21
571.193	42553.72
571.392	43274.6
571.59	42586.49
571.789	42682.74
571.987	42916.21
572.186	42854.77
572.384	42633.59
572.582	42662.26
572.781	42555.77
572.979	42002.82
573.177	42484.09
573.376	42072.45
573.574	41888.13
573.772	42162.56
573.971	41417.1
574.169	41392.52
574.367	41517.45
574.565	41939.33
574.763	41585.03
574.962	41615.75
575.16	40761.75
575.358	41474.44
575.556	40827.28
575.754	41398.66
575.952	40827.28
576.151	40647.06
576.349	40573.33
576.547	40583.57
576.745	40739.22
576.943	40749.46
577.141	40464.79
577.339	40726.93
577.537	40032.67
577.735	40300.95
577.933	39973.28
578.131	40634.77
578.329	39506.34
578.527	39719.33
578.725	39874.98
578.923	39741.86
579.121	39369.13
579.319	39301.54
579.516	39745.95
579.714	39524.77
579.912	39195.05
580.11	38973.87
580.308	39035.31
580.506	38791.6
580.704	38361.53
580.901	38539.7
581.099	38511.03
581.297	38236.6
581.495	38484.4
581.692	38691.25
581.89	38195.64
582.088	38629.81
582.285	37718.46
582.483	38488.5
582.681	38011.32
582.878	38185.4
583.076	37749.18
583.274	37751.23
583.471	37411.27
583.669	37591.49
583.866	37149.13
584.064	37265.86
584.262	36770.25
584.459	37106.12
584.657	37433.8
584.854	37398.98
585.052	36422.1
585.249	36667.86
585.447	36377.04
585.644	36164.06
585.841	36442.58
586.039	36381.14
586.236	36080.09
586.434	36100.57
586.631	35992.03
586.828	36000.22
587.026	36119
587.223	35822.05
587.42	35439.08
587.618	35654.11
587.815	35318.25
588.012	35246.57
588.21	35095.02
588.407	35572.19
588.604	34920.94
588.801	34699.76
588.999	34791.92
589.196	34771.44
589.393	34845.16
589.59	34484.72
589.787	34281.97
589.984	34515.44
590.182	34204.15
590.379	34542.06
590.576	33864.19
590.773	33999.35
590.97	33880.57
591.167	33925.63
591.364	33434.11
591.561	34060.79
591.758	33460.74
591.955	33501.7
592.152	33780.22
592.349	33188.36
592.546	33327.62
592.743	33169.93
592.94	32702.99
593.137	33214.98
593.334	33407.49
593.531	32545.3
593.727	32854.54
593.924	32784.91
594.121	32643.6
594.318	32752.14
594.515	31949.34
594.712	32287.25
594.908	32291.35
595.105	32084.5
595.302	31658.52
595.499	32100.89
595.696	32168.47
595.892	31496.74
596.089	31509.02
596.286	31894.04
596.482	31420.96
596.679	31775.26
596.876	31496.74
597.072	31304.23
597.269	30980.65
597.466	30849.58
597.662	30710.32
597.859	30612.01
598.055	31128.1
598.252	30874.15
598.448	30755.37
598.645	30347.82
598.841	30306.87
599.038	30173.75
599.234	30351.92
599.431	30265.91
599.627	29643.32
599.824	29725.24
600.02	29934.14
600.217	29971
600.413	29674.04
600.609	29471.29
600.806	29669.95
601.002	29661.76
601.198	29104.71
601.395	29332.03
601.591	29211.2
601.787	29213.25
601.984	29307.46
602.18	28987.97
602.376	28848.71
602.572	28654.15
602.769	28854.86
602.965	28152.4
603.161	28594.76
603.357	28398.16
603.553	28154.45
603.75	28365.39
603.946	28121.68
604.142	27984.47
604.338	27789.91
604.534	27898.45
604.73	27773.53
604.926	27540.06
605.122	28033.62
605.318	27497.05
605.514	27439.71
605.71	27284.06
605.906	27226.72
606.102	27472.48
606.298	27417.18
606.494	27183.71
606.69	27357.79
606.886	27155.04
607.082	27165.28
607.278	26638.95
607.474	26239.6
607.67	26649.19
607.866	26518.12
608.062	26747.5
608.257	26597.99
608.453	26311.28
608.649	26585.71
608.845	26163.82
609.041	26522.22
609.236	26395.25
609.432	26253.94
609.628	26524.27
609.824	25993.84
610.019	25991.8
610.215	25864.82
610.411	26221.17
610.606	25815.67
610.802	25922.16
610.998	25565.82
611.193	25844.34
611.389	25395.84
611.584	25365.12
611.78	25295.49
611.976	25393.79
612.171	25608.83
612.367	25459.32
612.562	25287.29
612.758	25037.44
612.953	25062.02
613.149	25621.11
613.344	24951.43
613.539	25332.35
613.735	25256.57
613.93	25371.26
614.126	25127.55
614.321	25178.75
614.517	24916.61
614.712	25076.35
614.907	24957.57
615.103	24871.56
615.298	24474.25
615.493	24558.22
615.688	24074.9
615.884	25002.63
616.079	24228.49
616.274	24453.77
616.47	24429.2
616.665	24715.91
616.86	24461.96
617.055	24212.11
617.25	24232.59
617.445	24597.13
617.641	23691.93
617.836	24324.75
618.031	23775.89
618.226	23876.24
618.421	23763.61
618.616	23855.76
618.811	23702.17
619.006	24046.23
619.201	23216.8
619.396	23419.55
619.591	23028.38
619.786	23517.85
619.981	23118.5
620.176	23231.13
620.371	22958.75
620.566	22993.57
620.761	23007.9
620.956	22778.53
621.151	22407.85
621.346	22891.17
621.541	22182.57
621.735	22741.67
621.93	22028.98
622.125	21996.21
622.32	21893.81
622.515	21652.15
622.709	21482.17
622.904	21854.9
623.099	21551.8
623.294	21596.85
623.488	21406.39
623.683	21494.46
623.878	20896.45
624.072	21312.19
624.267	20992.7
624.462	21138.11
624.656	20890.31
624.851	21023.42
625.046	20691.65
625.24	20306.63
625.435	20284.11
625.629	20230.86
625.824	20251.34
626.018	20128.46
626.213	19749.59
626.407	19858.13
626.602	19571.41
626.796	19997.39
626.991	19641.04
627.185	19235.55
627.38	19401.43
627.574	19149.53
627.768	19071.71
627.963	19104.48
628.157	18793.19
628.352	19127
628.546	18426.6
628.74	18619.11
628.935	18563.81
629.129	18584.29
629.323	18340.58
629.517	18348.78
629.712	18006.77
629.906	18021.1
630.1	17900.27
630.294	17990.38
630.489	17625.84
630.683	17578.74
630.877	17615.6
631.071	17369.85
631.265	17830.64
631.459	17193.72
631.653	17273.59
631.848	17431.29
632.042	17117.95
632.236	16997.12
632.43	16831.23
632.624	16716.54
632.818	16677.63
633.012	16747.26
633.206	16481.03
633.4	16771.84
633.594	16225.03
633.788	16608
633.982	16349.96
634.176	16292.62
634.369	16349.96
634.563	15897.36
634.757	15731.47
634.951	15727.38
635.145	15950.6
635.339	15571.73
635.533	15422.23
635.726	15657.75
635.92	15207.19
636.114	15471.38
636.308	15541.01
636.501	15442.71
636.695	15082.27
636.889	14818.08
637.083	14908.19
637.276	14674.72
637.47	14836.51
637.664	14504.74
637.857	14664.48
638.051	14529.31
638.244	14476.07
638.438	14437.16
638.632	14273.32
638.825	14379.81
639.019	14080.81
639.212	13939.5
639.406	13949.74
639.599	13945.64
639.793	14058.28
639.986	13462.32
640.18	13884.2
640.373	13929.26
640.567	13589.3
640.76	13669.17
640.954	13435.7
641.147	13366.07
641.34	13470.51
641.534	13257.53
641.727	13142.84
641.92	13454.13
642.114	12985.15
642.307	13167.42
642.5	13118.26
642.694	12688.19
642.887	12817.21
643.08	12940.09
643.273	12618.56
643.467	12516.16
643.66	12313.41
643.853	12665.66
644.046	12297.03
644.239	12247.88
644.432	12348.23
644.626	12098.38
644.819	12137.29
645.012	11979.59
645.205	12075.85
645.398	12104.52
645.591	11848.52
645.784	11686.73
645.977	11613.01
646.17	11739.98
646.363	11688.78
646.556	11293.52
646.749	11406.16
646.942	11668.3
647.135	11445.07
647.328	11230.04
647.521	11217.75
647.714	11207.51
647.907	11244.37
648.099	11199.32
648.292	11027.29
648.485	11154.26
648.678	11041.62
648.871	11037.53
649.064	10931.03
649.256	10877.79
649.449	10885.98
649.642	10539.87
649.835	10640.22
650.027	10505.06
650.22	10427.23
650.413	10441.57
650.605	10378.08
650.798	10333.03
650.991	10181.48
651.183	10290.02
651.376	10208.1
651.568	10148.71
651.761	10257.25
651.954	10023.78
652.146	10005.35
652.339	9993.06
652.531	10025.83
652.724	9823.08
652.916	9788.27
653.109	9634.67
653.301	9677.68
653.494	9689.96
653.686	9708.4
653.879	9655.15
654.071	9466.74
654.263	9589.61
654.456	9452.4
654.648	9530.22
654.84	8971.13
655.033	9038.71
655.225	9233.27
655.417	9141.11
655.61	9165.68
655.802	9083.77
655.994	8854.39
656.186	9106.29
656.379	8913.78
656.571	8907.64
656.763	9065.33
656.955	8842.11
657.148	8985.46
657.34	8739.71
657.532	8612.73
657.724	8586.11
657.916	8536.96
658.108	8465.28
658.3	8498.05
658.492	8489.85
658.684	8422.27
658.876	8250.24
659.068	8407.94
659.26	8229.76
659.452	8180.61
659.644	8215.43
659.836	8096.64
660.028	8219.52
660.22	8006.53
660.412	8244.1
660.604	7965.57
660.796	8024.97
660.988	7820.17
661.18	7768.97
661.372	7883.66
661.563	7965.57
661.755	7754.63
661.947	7848.84
662.139	7736.2
662.331	7754.63
662.522	7623.56
662.714	7723.91
662.906	7535.5
663.097	7521.17
663.289	7496.59
663.481	7459.73
663.673	7494.54
663.864	7375.76
664.056	7326.61
664.247	7281.55
664.439	7201.68
664.631	7365.52
664.822	7406.48
665.014	7150.48
665.205	7107.48
665.397	7228.31
665.588	7201.68
665.78	6982.55
665.971	7068.56
666.163	7230.35
666.354	6964.12
666.546	6931.35
666.737	6919.06
666.929	7220.11
667.12	6939.54
667.311	6857.62
667.503	6806.42
667.694	6835.1
667.885	6779.8
668.077	6802.33
668.268	6695.83
668.459	6738.84
668.651	6693.79
668.842	6785.94
669.033	6663.07
669.224	6634.39
669.416	6652.83
669.607	6599.58
669.798	6495.13
669.989	6568.86
670.18	6579.1
670.371	6394.78
670.563	6382.49
670.754	6470.56
670.945	6505.37
671.136	6392.73
671.327	6509.47
671.518	6450.08
671.709	6409.12
671.9	6431.65
672.091	6306.72
672.282	6347.68
672.473	6382.49
672.664	6386.59
672.855	6327.2
673.046	6161.31
673.237	6312.86
673.428	6269.86
673.619	6128.55
673.809	6161.31
674	6218.66
674.191	6044.58
674.382	5940.13
674.573	6149.03
674.764	5995.43
674.954	6269.86
675.145	5901.22
675.336	6009.76
675.527	6118.31
675.717	6030.24
675.908	6093.73
676.099	6065.06
676.289	6036.39
676.48	5776.3
676.671	6089.64
676.861	6034.34
677.052	6001.57
677.243	5809.06
677.433	5974.95
677.624	5972.9
677.814	5929.89
678.005	5831.59
678.195	6005.67
678.386	5845.93
678.576	5952.42
678.767	5839.78
678.957	5915.56
679.148	5940.13
679.338	6036.39
679.529	5915.56
679.719	5796.78
679.909	5946.28
680.1	5888.93
680.29	5829.54
680.481	5774.25
680.671	5843.88
680.861	5786.54
681.052	5852.07
681.242	5854.12
681.432	5721
681.622	5929.89
681.813	5858.21
682.003	5901.22
682.193	5727.14
682.383	5880.74
682.573	5929.89
682.764	5712.81
682.954	5770.15
683.144	5981.09
683.334	5747.62
683.524	5776.3
683.714	5716.9
683.904	5614.51
684.094	5663.66
684.284	5559.21
684.474	5702.57
684.664	5684.14
684.854	5698.47
685.044	5534.64
685.234	5544.88
685.424	5602.22
685.614	5575.59
685.804	5405.61
685.994	5495.72
686.184	5354.41
686.374	5497.77
686.564	5432.24
686.753	5503.92
686.943	5354.41
687.133	5338.03
687.323	5491.63
687.513	5358.51
687.702	5235.63
687.892	5221.3
688.082	5303.22
688.272	5295.02
688.461	5268.4
688.651	5235.63
688.841	5045.17
689.03	5233.58
689.22	4953.01
689.41	5176.24
689.599	5065.65
689.789	4834.23
689.979	4948.92
690.168	4930.48
690.358	5004.21
690.547	5026.74
690.737	4914.1
690.926	4893.62
691.116	4850.61
691.305	4826.04
691.495	4856.76
691.684	4711.35
691.874	4660.15
692.063	4774.84
692.252	4635.58
692.442	4723.64
692.631	4627.39
692.82	4717.5
693.01	4522.94
693.199	4537.27
693.388	4539.32
693.578	4381.63
693.767	4303.81
693.956	4549.56
694.146	4611
694.335	4387.77
694.524	4398.01
694.713	4524.99
694.902	4236.22
695.092	4434.88
695.281	4291.52
695.47	4312
695.659	4273.09
695.848	4305.85
696.037	4303.81
696.226	4248.51
696.415	4152.26
696.604	4316.09
696.793	4340.67
696.982	4252.61
697.171	4213.7
697.36	4273.09
697.549	4178.88
697.738	4162.5
697.927	4076.48
698.116	4103.11
698.305	4127.68
698.494	4189.12
698.683	4004.8
698.872	4129.73
699.061	4156.35
699.25	3945.41
699.438	4010.95
699.627	4105.15
699.816	4049.86
700.005	3920.84
700.193	3996.61
700.382	4088.77
700.571	4088.77
700.76	4062.15
700.948	4023.23
701.137	4023.23
701.326	3931.08
701.514	3886.02
701.703	3898.31
701.892	3757
702.08	3906.5
702.269	3910.6
702.457	3851.21
702.646	3982.28
702.834	3937.22
703.023	3963.84
703.212	3904.45
703.4	3873.73
703.589	3969.99
703.777	3851.21
703.965	3898.31
704.154	3883.97
704.342	3838.92
704.531	3748.81
704.719	3918.79
704.907	3840.97
705.096	3865.54
705.284	3859.4
705.472	3767.24
705.661	3855.3
705.849	3754.95
706.037	3990.47
706.226	3742.66
706.414	3867.59
706.602	3933.12
706.79	3890.12
706.979	3810.25
707.167	3992.52
707.355	3722.18
707.543	3843.01
707.731	4078.53
707.919	3769.29
708.107	3765.19
708.296	3931.08
708.484	3761.09
708.672	3943.36
708.86	3910.6
709.048	4023.23
709.236	3886.02
709.424	3785.67
709.612	3732.42
709.8	3904.45
709.988	3830.73
710.176	3808.2
710.364	3865.54
710.551	3781.57
710.739	3916.74
710.927	3738.57
711.115	3832.77
711.303	3926.98
711.491	3947.46
711.679	3804.1
711.866	3808.2
712.054	3939.27
712.242	3779.53
712.43	3945.41
712.617	3828.68
712.805	3961.8
712.993	3933.12
713.181	3818.44
713.368	4000.71
713.556	3963.84
713.744	3888.07
713.931	4090.82
714.119	4012.99
714.306	4023.23
714.494	3888.07
714.682	3857.35
714.869	3871.68
715.057	4004.8
715.244	3945.41
715.432	4086.72
715.619	3978.18
715.807	3982.28
715.994	3838.92
716.182	3996.61
716.369	3982.28
716.556	3982.28
716.744	4035.52
716.931	3931.08
717.119	3939.27
717.306	4012.99
717.493	4139.97
717.681	3965.89
717.868	4002.75
718.055	4008.9
718.242	4115.39
718.43	4131.78
718.617	4137.92
718.804	4105.15
718.991	4045.76
719.179	4074.43
719.366	4090.82
719.553	4019.14
719.74	4105.15
719.927	4185.02
720.114	4035.52
720.301	4111.3
720.488	4139.97
720.676	4127.68
720.863	4178.88
721.05	4113.35
721.237	4201.41
721.424	4107.2
721.611	4187.07
721.798	4086.72
721.985	4209.6
722.172	4064.19
722.358	4123.59
722.545	4158.4
722.732	4176.83
722.919	4240.32
723.106	4150.21
723.293	4119.49
723.48	4164.54
723.667	4058.05
723.853	4113.35
724.04	4260.8
724.227	4139.97
724.414	4199.36
724.6	4117.44
724.787	4297.66
724.974	4160.45
725.161	4096.96
725.347	4107.2
725.534	4238.27
725.72	4320.19
725.907	4244.42
726.094	4154.3
726.28	4209.6
726.467	4176.83
726.653	4111.3
726.84	4273.09
727.027	4365.25
727.213	4201.41
727.4	4279.23
727.586	4303.81
727.773	4299.71
727.959	4312
728.145	4203.46
728.332	4312
728.518	4201.41
728.705	4242.37
728.891	4322.24
729.077	4225.98
729.264	4217.79
729.45	4271.04
729.636	4271.04
729.823	4373.44
730.009	4332.48
730.195	4254.66
730.382	4334.53
730.568	4352.96
730.754	4324.29
730.94	4428.73
731.126	4430.78
731.313	4287.42
731.499	4209.6
731.685	4324.29
731.871	4328.38
732.057	4371.39
732.243	4279.23
732.429	4268.99
732.615	4275.13
732.801	4408.25
732.987	4414.4
733.173	4512.7
733.359	4312
733.545	4289.47
733.731	4328.38
733.917	4422.59
734.103	4303.81
734.289	4463.55
734.475	4307.9
734.661	4420.54
734.847	4334.53
735.033	4256.7
735.219	4463.55
735.404	4291.52
735.59	4213.7
735.776	4189.12
735.962	4459.45
736.148	4316.09
736.333	4246.46
736.519	4332.48
736.705	4420.54
736.89	4178.88
737.076	4252.61
737.262	4303.81
737.447	4242.37
737.633	4199.36
737.819	4287.42
738.004	4187.07
738.19	4295.61
738.375	4242.37
738.561	4348.86
738.747	4119.49
738.932	4271.04
739.118	4250.56
739.303	4248.51
739.489	4129.73
739.674	4219.84
739.859	4193.22
740.045	4303.81
740.23	4217.79
740.416	4096.96
740.601	4277.18
740.786	4287.42
740.972	4191.17
741.157	4174.78
741.342	4144.06
741.528	4101.06
741.713	4135.87
741.898	4084.67
742.084	4066.24
742.269	4174.78
742.454	4070.34
742.639	4133.82
742.824	4021.19
743.01	3992.52
743.195	3949.51
743.38	4066.24
743.565	3924.93
743.75	3945.41
743.935	3974.08
744.12	4103.11
744.305	3877.83
744.49	3900.36
744.675	3943.36
744.86	3777.48
745.045	3828.68
745.23	3998.66
745.415	3769.29
745.6	3865.54
745.785	3791.81
745.97	3929.03
746.155	3752.9
746.34	3834.82
746.525	3621.83
746.71	3705.8
746.895	3609.54
747.079	3568.59
747.264	3607.5
747.449	3587.02
747.634	3595.21
747.819	3662.79
748.003	3554.25
748.188	3515.34
748.373	3527.63
748.557	3564.49
748.742	3384.27
748.927	3423.18
749.111	3558.35
749.296	3488.71
749.481	3337.17
749.665	3267.53
749.85	3218.38
750.034	3408.84
750.219	3294.16
750.404	3353.55
750.588	3236.81
750.773	3124.18
750.957	3195.86
751.141	3179.47
751.326	3122.13
751.51	3187.66
751.695	3085.26
751.879	3179.47
752.064	3083.22
752.248	3005.39
752.432	3177.42
752.617	2997.2
752.801	3054.55
752.985	2995.15
753.17	2989.01
753.354	3042.26
753.538	2954.19
753.722	2802.65
753.907	2874.32
754.091	2796.5
754.275	2964.43
754.459	2685.91
754.643	2882.52
754.828	2802.65
755.012	2753.49
755.196	2859.99
755.38	2794.45
755.564	2821.08
755.748	2665.43
755.932	2657.24
756.116	2819.03
756.3	2712.53
756.484	2485.21
756.668	2622.42
756.852	2450.39
757.036	2530.27
757.22	2462.68
757.404	2622.42
757.588	2477.02
757.772	2546.65
757.956	2597.85
758.14	2474.97
758.323	2335.71
758.507	2292.7
758.691	2436.06
758.875	2323.42
759.059	2483.16
759.242	2274.27
759.426	2302.94
759.61	2319.32
759.794	2327.52
759.977	2313.18
760.161	2358.24
760.345	2325.47
760.528	2331.61
760.712	2282.46
760.895	2319.32
761.079	2186.21
761.263	1997.79
761.446	2139.1
761.63	2204.64
761.813	2214.88
761.997	2196.45
762.18	2186.21
762.364	2098.14
762.547	2016.23
762.731	2157.54
762.914	2143.2
763.098	1979.36
763.281	2069.47
763.464	2030.56
763.648	2132.96
763.831	2065.38
764.015	2036.7
764.198	2003.94
764.381	2114.53
764.564	2112.48
764.748	1962.98
764.931	2067.42
765.114	1956.83
765.297	1899.49
765.481	1919.97
765.664	1827.81
765.847	1950.69
766.03	1901.54
766.213	1919.97
766.397	1831.91
766.58	1870.82
766.763	1872.87
766.946	1838.05
767.129	1897.44
767.312	1797.09
767.495	1817.57
767.678	1752.04
767.861	1747.94
768.044	1860.58
768.227	1698.79
768.41	1805.28
768.593	1786.85
768.776	1706.98
768.959	1672.17
769.142	1770.47
769.324	1674.21
769.507	1813.48
769.69	1711.08
769.873	1680.36
770.056	1733.61
770.239	1737.7
770.421	1772.52
770.604	1635.3
770.787	1575.91
770.97	1580.01
771.152	1637.35
771.335	1616.87
771.518	1534.95
771.7	1737.7
771.883	1659.88
772.066	1641.45
772.248	1514.47
772.431	1702.89
772.613	1680.36
772.796	1549.29
772.978	1614.82
773.161	1596.39
773.343	1491.95
773.526	1457.13
773.708	1469.42
773.891	1420.27
774.073	1479.66
774.256	1428.46
774.438	1565.67
774.621	1518.57
774.803	1500.14
774.985	1436.65
775.168	1393.64
775.35	1405.93
775.532	1541.1
775.715	1428.46
775.897	1465.32
776.079	1424.36
776.261	1317.87
776.444	1399.79
776.626	1248.24
776.808	1395.69
776.99	1203.18
777.173	1407.98
777.355	1184.75
777.537	1254.38
777.719	1305.58
777.901	1289.2
778.083	1287.15
778.265	1178.61
778.447	1223.66
778.629	1166.32
778.811	1182.7
778.993	1178.61
779.175	1246.19
779.357	1297.39
779.539	1057.78
779.721	1115.12
779.903	1174.51
780.085	1125.36
780.267	1166.32
780.449	1088.5
780.631	1186.8
780.812	1078.26
780.994	1156.08
781.176	1078.26
781.358	1092.59
781.54	1041.39
781.721	1029.1
781.903	1094.64
782.085	975.86
782.267	1082.35
782.448	949.23
782.63	1006.58
782.812	1027.06
782.993	1010.67
783.175	1000.43
783.357	943.09
783.538	990.19
783.72	883.7
783.901	914.42
784.083	1004.53
784.264	904.18
784.446	785.4
784.627	916.47
784.809	898.03
784.99	893.94
785.172	902.13
785.353	877.55
785.535	838.64
785.716	938.99
785.897	781.3
786.079	965.62
786.26	875.51
786.441	838.64
786.623	805.88
786.804	824.31
786.985	891.89
787.167	914.42
787.348	771.06
787.529	785.4
787.71	781.3
787.891	826.36
788.073	701.43
788.254	703.48
788.435	850.93
788.616	852.98
788.797	695.29
788.978	777.2
789.159	693.24
789.34	676.85
789.522	728.05
789.703	662.52
789.884	717.81
790.065	777.2
790.246	728.05
790.427	676.85
790.607	678.9
790.788	656.37
790.969	697.33
791.15	703.48
791.331	721.91
791.512	642.04
791.693	558.07
791.874	629.75
792.054	726
792.235	662.52
792.416	596.98
792.597	658.42
792.778	650.23
792.958	594.93
793.139	613.37
793.32	599.03
793.5	572.41
793.681	588.79
793.862	637.94
794.042	566.26
794.223	558.07
794.404	541.69
794.584	584.7
794.765	490.49
794.945	531.45
795.126	615.41
795.306	549.88
795.487	545.78
795.667	515.06
795.848	601.08
796.028	488.44
796.209	476.15
796.389	529.4
796.57	418.81
796.75	533.5
796.93	549.88
797.111	470.01
797.291	541.69
797.471	515.06
797.652	508.92
797.832	412.67
798.012	558.07
798.192	465.91
798.373	486.39
798.553	543.74
798.733	478.2
798.913	474.1
799.093	488.44
799.274	429.05
799.454	533.5
799.634	447.48
799.814	506.87
799.994	480.25
800.174	449.53
800.354	408.57
800.534	410.62
800.714	506.87
800.894	474.1
801.074	355.32
801.254	431.1
801.434	498.68
801.614	375.8
801.794	420.86
801.974	1352.68
802.154	357.37
802.334	521.21
802.514	443.39
802.693	386.04
802.873	375.8
803.053	453.63
803.233	443.39
803.413	429.05
803.592	386.04
803.772	367.61
803.952	392.19
804.131	289.79
804.311	467.96
804.491	457.72
804.67	396.28
804.85	408.57
805.03	400.38
805.209	408.57
805.389	388.09
805.568	363.51
805.748	474.1
805.928	416.76
806.107	435.19
806.287	310.27
806.466	406.52
806.646	287.74
806.825	334.84
807.004	394.23
807.184	375.8
807.363	392.19
807.543	383.99
807.722	271.36
807.901	367.61
808.081	424.95
808.26	297.98
808.439	422.91
808.619	314.36
808.798	285.69
808.977	410.62
809.156	457.72
809.336	367.61
809.515	377.85
809.694	297.98
809.873	236.54
810.052	359.42
810.231	328.7
810.411	414.71
810.59	361.47
810.769	383.99
810.948	326.65
811.127	340.99
811.306	261.12
811.485	349.18
811.664	416.76
811.843	291.84
812.022	328.7
812.201	248.83
812.38	310.27
812.559	336.89
812.737	291.84
812.916	279.55
813.095	263.16
813.274	277.5
813.453	304.12
813.632	197.63
813.811	277.5
813.989	273.4
814.168	349.18
814.347	304.12
814.526	263.16
814.704	283.64
814.883	281.6
815.062	234.49
815.24	320.51
815.419	179.2
815.598	314.36
815.776	226.3
815.955	283.64
816.133	234.49
816.312	261.12
816.49	238.59
816.669	236.54
816.847	277.5
817.026	230.4
817.204	191.49
817.383	238.59
817.561	244.73
817.74	238.59
817.918	171.01
818.097	277.5
818.275	224.25
818.453	263.16
818.632	308.22
818.81	197.63
818.988	191.49
819.167	211.96
819.345	287.74
819.523	195.58
819.701	214.01
819.879	189.44
820.058	134.14
820.236	277.5
820.414	148.48
820.592	203.77
820.77	285.69
820.948	109.57
821.127	214.01
821.305	177.15
821.483	214.01
821.661	310.27
821.839	279.55
822.017	191.49
822.195	201.72
822.373	199.68
822.551	203.77
822.729	269.31
822.907	164.86
823.085	226.3
823.262	236.54
823.44	142.33
823.618	207.87
823.796	222.2
823.974	140.29
824.152	205.82
824.329	144.38
824.507	175.1
824.685	238.59
824.863	121.85
825.04	218.11
825.218	238.59
825.396	168.96
825.574	175.1
825.751	191.49
825.929	254.97
826.107	105.47
826.284	134.14
826.462	250.88
826.639	197.63
826.817	187.39
826.994	240.64
827.172	115.71
827.349	207.87
827.527	248.83
827.704	177.15
827.882	115.71
828.059	175.1
828.237	138.24
828.414	166.91
828.591	109.57
828.769	189.44
828.946	150.53
829.124	148.48
829.301	138.24
829.478	222.2
829.655	220.16
829.833	115.71
830.01	39.94
830.187	181.25
830.364	164.86
830.542	130.05
830.719	222.2
830.896	173.05
831.073	205.82
831.25	281.6
831.427	195.58
831.604	109.57
831.782	132.09
831.959	224.25
832.136	125.95
832.313	201.72
832.49	150.53
832.667	181.25
832.844	138.24
833.021	195.58
833.198	146.43
833.374	211.96
833.551	179.2
833.728	173.05
833.905	230.4
834.082	60.42
834.259	154.62
834.436	156.67
834.612	140.29
834.789	158.72
834.966	105.47
835.143	195.58
835.319	33.79
835.496	105.47
835.673	179.2
835.85	150.53
836.026	144.38
836.203	162.81
836.38	142.33
836.556	123.9
836.733	84.99
836.909	195.58
837.086	171.01
837.262	50.18
837.439	166.91
837.616	107.52
837.792	132.09
837.968	105.47
838.145	56.32
838.321	66.56
838.498	74.75
838.674	99.33
838.851	95.23
839.027	103.42
839.203	66.56
839.38	156.67
839.556	132.09
839.732	111.61
839.909	162.81
840.085	166.91
840.261	115.71
840.437	152.57
840.614	56.32
840.79	234.49
840.966	130.05
841.142	111.61
841.318	35.84
841.494	109.57
841.671	89.09
841.847	99.33
842.023	41.98
842.199	138.24
842.375	115.71
842.551	97.28
842.727	97.28
842.903	211.96
843.079	91.13
843.255	171.01
843.431	35.84
843.607	89.09
843.783	31.74
843.959	125.95
844.134	101.37
844.31	183.29
844.486	136.19
844.662	105.47
844.838	25.6
845.013	95.23
845.189	152.57
845.365	80.89
845.541	33.79
845.716	156.67
845.892	154.62
846.068	105.47
846.244	29.7
846.419	89.09
846.595	93.18
846.77	25.6
846.946	76.8
847.122	89.09
847.297	82.94
847.473	121.85
847.648	117.76
847.824	148.48
847.999	-41.98
848.175	60.42
848.35	150.53
848.526	138.24
848.701	89.09
848.876	148.48
849.052	56.32
849.227	130.05
849.403	56.32
849.578	87.04
849.753	146.43
849.929	97.28
850.104	21.5
850.279	29.7
850.454	113.66
850.63	109.57
850.805	134.14
850.98	105.47
851.155	84.99
851.33	72.7
851.505	19.46
851.681	177.15
851.856	-13.31
852.031	68.61
852.206	-3.07
852.381	134.14
852.556	60.42
852.731	44.03
852.906	60.42
853.081	46.08
853.256	136.19
853.431	70.65
853.606	80.89
853.781	-11.26
853.956	56.32
854.131	76.8
854.305	11.26
854.48	-1.02
854.655	64.51
854.83	39.94
855.005	-9.22
855.18	113.66
855.354	154.62
855.529	5.12
855.704	-19.46
855.879	109.57
856.053	15.36
856.228	74.75
856.403	-9.22
856.577	17.41
856.752	-23.55
856.926	56.32
857.101	119.81
857.276	17.41
857.45	99.33
857.625	76.8
857.799	72.7
857.974	13.31
858.148	-44.03
858.323	64.51
858.497	15.36
858.672	33.79
858.846	-13.31
859.02	31.74
859.195	-27.65
859.369	-15.36
859.543	130.05
859.718	72.7
859.892	29.7
860.066	11.26
860.241	-21.5
860.415	7.17
860.589	23.55
860.763	3.07
860.938	41.98
861.112	93.18
861.286	64.51
861.46	97.28
861.634	9.22
861.808	95.23
861.982	-7.17
862.157	105.47
862.331	1.02
862.505	-1.02
862.679	3.07
862.853	56.32
863.027	19.46
863.201	128
863.375	-25.6
863.549	-29.7
863.722	91.13
863.896	50.18
864.07	52.22
864.244	74.75
864.418	89.09
864.592	52.22
864.766	101.37
864.939	29.7
865.113	-9.22
865.287	23.55
865.461	-41.98
865.634	39.94
865.808	84.99
865.982	-46.08
866.156	23.55
866.329	-11.26
866.503	11.26
866.676	105.47
866.85	13.31
867.024	7.17
867.197	84.99
867.371	80.89
867.544	7.17
867.718	-15.36
867.891	84.99
868.065	39.94
868.238	37.89
868.412	64.51
868.585	21.5
868.759	64.51
868.932	37.89
869.105	21.5
869.279	93.18
869.452	15.36
869.625	52.22
869.799	89.09
869.972	-33.79
870.145	56.32
870.319	-1.02
870.492	-9.22
870.665	7.17
870.838	74.75
871.011	7.17
871.185	74.75
871.358	-5.12
871.531	84.99
871.704	-5.12
871.877	82.94
872.05	48.13
872.223	25.6
872.396	60.42
872.569	84.99
872.742	-5.12
872.915	-37.89
873.088	-29.7
873.261	-99.33
873.434	54.27
873.607	31.74
873.78	-27.65
873.953	13.31
874.126	31.74
874.299	3.07
874.471	39.94
874.644	-9.22
874.817	-33.79
874.99	99.33
875.163	3.07
875.335	39.94
875.508	5.12
875.681	89.09
875.853	-27.65
876.026	50.18
876.199	1.02
876.371	35.84
876.544	9.22
876.717	-33.79
876.889	27.65
877.062	41.98
877.234	19.46
877.407	3.07
877.579	35.84
877.752	35.84
877.924	44.03
878.097	33.79
878.269	33.79
878.442	9.22
878.614	7.17
878.786	-1.02
878.959	58.37
879.131	82.94
879.303	-66.56
879.476	21.5
879.648	82.94
879.82	15.36
879.993	52.22
880.165	21.5
880.337	-3.07
880.509	80.89
880.681	-80.89
880.854	31.74
881.026	-25.6
881.198	87.04
881.37	-9.22
881.542	-5.12
881.714	-9.22
881.886	-17.41
882.058	46.08
882.23	19.46
882.402	56.32
882.574	72.7
882.746	27.65
882.918	111.61
883.09	60.42
883.262	-64.51
883.434	62.46
883.606	-39.94
883.778	3.07
883.95	23.55
884.122	48.13
884.293	107.52
884.465	25.6
884.637	44.03
884.809	13.31
884.98	56.32
885.152	15.36
885.324	-9.22
885.496	-33.79
885.667	31.74
885.839	29.7
886.011	41.98
886.182	7.17
886.354	78.85
886.525	13.31
886.697	13.31
886.869	-48.13
887.04	7.17
887.212	-17.41
887.383	54.27
887.555	-25.6
887.726	9.22
887.897	56.32
888.069	76.8
888.24	72.7
888.412	23.55
888.583	-13.31
888.754	44.03
888.926	-41.98
889.097	27.65
889.268	-33.79
889.44	9.22
889.611	-58.37
889.782	-23.55
889.953	-1.02
890.125	-3.07
890.296	-9.22
890.467	15.36
890.638	-13.31
890.809	25.6
890.98	-9.22
891.151	-50.18
891.323	3.07
891.494	72.7
891.665	35.84
891.836	15.36
892.007	29.7
892.178	72.7
892.349	11.26
892.52	31.74
892.691	-31.74
892.862	1.02
893.032	-68.61
893.203	58.37
893.374	-11.26
893.545	7.17
893.716	-13.31
893.887	60.42
894.057	13.31
894.228	31.74
894.399	-25.6
894.57	-21.5
894.74	-82.94
894.911	31.74
895.082	-25.6
895.253	9.22
895.423	-5.12
895.594	48.13
895.764	56.32
895.935	-13.31
896.106	52.22
896.276	48.13
896.447	25.6
896.617	25.6
896.788	23.55
896.958	-7.17
897.129	-9.22
897.299	29.7
897.47	-31.74
897.64	25.6
897.81	-35.84
897.981	-25.6
898.151	-5.12
898.322	31.74
898.492	-15.36
898.662	-52.22
898.832	-1.02
899.003	-15.36
899.173	46.08
899.343	-21.5
899.513	-3.07
