Data from USB4F104151__55__11-52-01-125.txt Node

Date: Fri Mar 14 11:52:01 EDT 2025
User: louis
Spectrometer: USB4F10415
Trigger mode: 4
Integration Time (sec): 2.000000E-2
Scans to average: 1
Electric dark correction enabled: true
Nonlinearity correction enabled: false
Boxcar width: 0
XAxis mode: Wavelengths
Number of Pixels in Spectrum: 3648
>>>>>Begin Spectral Data<<<<<
178.204	-43.69
178.424	-43.69
178.644	-43.69
178.864	-98.99
179.084	-45.74
179.304	13.65
179.524	15.7
179.744	-12.97
179.964	17.75
180.184	-23.21
180.404	71
180.624	19.8
180.844	21.85
181.064	-47.79
181.283	-41.64
181.503	-78.51
181.723	44.37
181.943	-21.16
182.163	17.75
182.383	30.04
182.602	9.56
182.822	25.94
183.042	-0.68
183.262	-6.83
183.482	1.37
183.701	-12.97
183.921	-12.97
184.141	52.56
184.361	103.76
184.58	-39.59
184.8	58.71
185.02	-29.35
185.239	1.37
185.459	-25.26
185.679	19.8
185.898	-8.87
186.118	9.56
186.338	3.41
186.557	15.7
186.777	-47.79
186.997	7.51
187.216	46.42
187.436	68.95
187.655	50.52
187.875	48.47
188.095	40.28
188.314	-6.83
188.534	7.51
188.753	3.41
188.973	-39.59
189.192	21.85
189.412	11.61
189.631	34.13
189.851	19.8
190.07	-4.78
190.29	-2.73
190.509	17.75
190.729	17.75
190.948	48.47
191.168	99.67
191.387	38.23
191.607	25.94
191.826	5.46
192.045	32.08
192.265	60.76
192.484	50.52
192.704	-37.55
192.923	1.37
193.142	109.91
193.362	23.89
193.581	-12.97
193.8	101.72
194.02	52.56
194.239	132.44
194.458	9.56
194.678	36.18
194.897	5.46
195.116	-17.07
195.335	1.37
195.555	58.71
195.774	40.28
195.993	11.61
196.212	9.56
196.432	5.46
196.651	42.32
196.87	-23.21
197.089	44.37
197.308	71
197.528	46.42
197.747	9.56
197.966	-19.11
198.185	50.52
198.404	23.89
198.623	38.23
198.842	68.95
199.062	15.7
199.281	73.04
199.5	-51.88
199.719	21.85
199.938	54.61
200.157	103.76
200.376	40.28
200.595	38.23
200.814	56.66
201.033	71
201.252	50.52
201.471	3.41
201.69	9.56
201.909	40.28
202.128	42.32
202.347	30.04
202.566	25.94
202.785	34.13
203.004	32.08
203.223	54.61
203.442	36.18
203.661	1.37
203.879	7.51
204.098	105.81
204.317	36.18
204.536	60.76
204.755	7.51
204.974	42.32
205.193	27.99
205.411	83.28
205.63	71
205.849	-8.87
206.068	46.42
206.287	85.33
206.505	56.66
206.724	54.61
206.943	42.32
207.162	60.76
207.381	-8.87
207.599	13.65
207.818	-2.73
208.037	-21.16
208.255	-39.59
208.474	44.37
208.693	34.13
208.911	66.9
209.13	-45.74
209.349	68.95
209.567	79.19
209.786	40.28
210.005	56.66
210.223	83.28
210.442	38.23
210.661	23.89
210.879	36.18
211.098	1.37
211.316	9.56
211.535	-17.07
211.753	-8.87
211.972	-25.26
212.191	-37.55
212.409	27.99
212.628	17.75
212.846	34.13
213.065	73.04
213.283	23.89
213.502	-4.78
213.72	-4.78
213.938	46.42
214.157	5.46
214.375	19.8
214.594	64.85
214.812	44.37
215.031	64.85
215.249	95.57
215.467	-17.07
215.686	-15.02
215.904	83.28
216.122	11.61
216.341	3.41
216.559	54.61
216.778	79.19
216.996	9.56
217.214	13.65
217.432	120.15
217.651	-47.79
217.869	-29.35
218.087	34.13
218.306	-15.02
218.524	1.37
218.742	-27.31
218.96	44.37
219.179	-37.55
219.397	66.9
219.615	-43.69
219.833	-37.55
220.051	5.46
220.27	46.42
220.488	-23.21
220.706	-35.5
220.924	60.76
221.142	-12.97
221.36	68.95
221.578	126.29
221.796	95.57
222.015	-4.78
222.233	11.61
222.451	93.52
222.669	9.56
222.887	11.61
223.105	-2.73
223.323	3.41
223.541	34.13
223.759	15.7
223.977	7.51
224.195	46.42
224.413	-41.64
224.631	-25.26
224.849	58.71
225.067	85.33
225.285	-10.92
225.503	56.66
225.721	-12.97
225.939	-47.79
226.157	-31.4
226.375	5.46
226.592	-70.31
226.81	1.37
227.028	44.37
227.246	38.23
227.464	58.71
227.682	5.46
227.9	89.43
228.117	40.28
228.335	89.43
228.553	-12.97
228.771	5.46
228.989	73.04
229.206	101.72
229.424	-6.83
229.642	5.46
229.86	1.37
230.077	3.41
230.295	-17.07
230.513	52.56
230.731	114
230.948	58.71
231.166	83.28
231.384	-2.73
231.601	5.46
231.819	48.47
232.037	50.52
232.254	64.85
232.472	44.37
232.689	-21.16
232.907	-21.16
233.125	40.28
233.342	19.8
233.56	-12.97
233.777	71
233.995	19.8
234.213	56.66
234.43	99.67
234.648	91.48
234.865	25.94
235.083	-2.73
235.3	15.7
235.518	56.66
235.735	-37.55
235.953	71
236.17	11.61
236.388	19.8
236.605	15.7
236.822	79.19
237.04	77.14
237.257	66.9
237.475	-43.69
237.692	-25.26
237.909	60.76
238.127	25.94
238.344	1.37
238.562	93.52
238.779	32.08
238.996	42.32
239.214	-0.68
239.431	42.32
239.648	-64.17
239.865	-37.55
240.083	66.9
240.3	15.7
240.517	-35.5
240.735	85.33
240.952	56.66
241.169	3.41
241.386	38.23
241.603	13.65
241.821	-2.73
242.038	27.99
242.255	44.37
242.472	-17.07
242.689	23.89
242.907	64.85
243.124	13.65
243.341	1.37
243.558	17.75
243.775	23.89
243.992	-8.87
244.209	17.75
244.426	44.37
244.643	99.67
244.86	15.7
245.078	21.85
245.295	46.42
245.512	13.65
245.729	-41.64
245.946	1.37
246.163	75.09
246.38	25.94
246.597	17.75
246.814	97.62
247.031	15.7
247.248	46.42
247.464	17.75
247.681	-25.26
247.898	44.37
248.115	64.85
248.332	-2.73
248.549	81.24
248.766	66.9
248.983	56.66
249.2	30.04
249.417	75.09
249.633	-31.4
249.85	-15.02
250.067	-21.16
250.284	50.52
250.501	30.04
250.717	11.61
250.934	52.56
251.151	-23.21
251.368	-2.73
251.585	50.52
251.801	11.61
252.018	1.37
252.235	-2.73
252.451	-10.92
252.668	15.7
252.885	73.04
253.102	21.85
253.318	44.37
253.535	32.08
253.752	-25.26
253.968	11.61
254.185	52.56
254.401	46.42
254.618	75.09
254.835	-62.12
255.051	91.48
255.268	30.04
255.484	73.04
255.701	38.23
255.917	-15.02
256.134	58.71
256.351	64.85
256.567	54.61
256.784	105.81
257	21.85
257.217	13.65
257.433	27.99
257.65	83.28
257.866	50.52
258.082	46.42
258.299	-47.79
258.515	62.8
258.732	21.85
258.948	42.32
259.165	66.9
259.381	17.75
259.597	-19.11
259.814	25.94
260.03	32.08
260.246	-10.92
260.463	13.65
260.679	87.38
260.895	46.42
261.112	58.71
261.328	46.42
261.544	-8.87
261.761	118.1
261.977	46.42
262.193	40.28
262.409	13.65
262.626	7.51
262.842	38.23
263.058	36.18
263.274	30.04
263.49	-6.83
263.707	48.47
263.923	101.72
264.139	27.99
264.355	97.62
264.571	118.1
264.787	40.28
265.004	44.37
265.22	1.37
265.436	32.08
265.652	-2.73
265.868	25.94
266.084	-76.46
266.3	75.09
266.516	27.99
266.732	68.95
266.948	-41.64
267.164	3.41
267.38	50.52
267.596	9.56
267.812	40.28
268.028	19.8
268.244	27.99
268.46	34.13
268.676	-23.21
268.892	62.8
269.108	34.13
269.324	79.19
269.54	-0.68
269.756	23.89
269.972	-27.31
270.188	71
270.403	42.32
270.619	38.23
270.835	27.99
271.051	11.61
271.267	7.51
271.483	-0.68
271.698	36.18
271.914	58.71
272.13	1.37
272.346	-33.45
272.562	-12.97
272.777	111.96
272.993	-6.83
273.209	27.99
273.425	40.28
273.64	-72.36
273.856	34.13
274.072	97.62
274.287	-15.02
274.503	42.32
274.719	23.89
274.934	17.75
275.15	-17.07
275.366	36.18
275.581	42.32
275.797	15.7
276.012	54.61
276.228	-19.11
276.444	66.9
276.659	36.18
276.875	25.94
277.09	60.76
277.306	54.61
277.521	89.43
277.737	-74.41
277.952	27.99
278.168	13.65
278.383	-0.68
278.599	30.04
278.814	64.85
279.03	7.51
279.245	34.13
279.461	-19.11
279.676	15.7
279.892	-21.16
280.107	19.8
280.322	-12.97
280.538	19.8
280.753	-6.83
280.969	-17.07
281.184	73.04
281.399	109.91
281.615	-0.68
281.83	73.04
282.045	50.52
282.26	23.89
282.476	58.71
282.691	54.61
282.906	3.41
283.122	81.24
283.337	-39.59
283.552	91.48
283.767	62.8
283.983	-12.97
284.198	11.61
284.413	36.18
284.628	-25.26
284.843	21.85
285.058	7.51
285.274	11.61
285.489	-125.61
285.704	36.18
285.919	40.28
286.134	66.9
286.349	15.7
286.564	-6.83
286.779	-6.83
286.995	9.56
287.21	-17.07
287.425	40.28
287.64	15.7
287.855	48.47
288.07	21.85
288.285	107.86
288.5	32.08
288.715	-39.59
288.93	52.56
289.145	46.42
289.36	-10.92
289.575	-25.26
289.79	-45.74
290.004	21.85
290.219	124.24
290.434	3.41
290.649	-6.83
290.864	56.66
291.079	46.42
291.294	50.52
291.509	75.09
291.724	97.62
291.938	21.85
292.153	44.37
292.368	46.42
292.583	126.29
292.798	60.76
293.012	34.13
293.227	46.42
293.442	-2.73
293.657	77.14
293.871	97.62
294.086	-4.78
294.301	-8.87
294.516	7.51
294.73	62.8
294.945	-41.64
295.16	-23.21
295.374	48.47
295.589	17.75
295.804	11.61
296.018	34.13
296.233	38.23
296.447	73.04
296.662	-31.4
296.877	9.56
297.091	52.56
297.306	32.08
297.52	30.04
297.735	9.56
297.949	34.13
298.164	13.65
298.378	-19.11
298.593	5.46
298.807	-4.78
299.022	23.89
299.236	15.7
299.451	-33.45
299.665	23.89
299.88	79.19
300.094	-29.35
300.309	-8.87
300.523	46.42
300.737	99.67
300.952	7.51
301.166	5.46
301.381	71
301.595	11.61
301.809	13.65
302.024	-10.92
302.238	-8.87
302.452	-6.83
302.667	77.14
302.881	66.9
303.095	85.33
303.309	11.61
303.524	-15.02
303.738	9.56
303.952	36.18
304.166	-21.16
304.381	-86.7
304.595	17.75
304.809	38.23
305.023	-17.07
305.237	-6.83
305.452	9.56
305.666	40.28
305.88	36.18
306.094	58.71
306.308	103.76
306.522	-6.83
306.736	56.66
306.95	40.28
307.164	9.56
307.379	27.99
307.593	-10.92
307.807	46.42
308.021	68.95
308.235	30.04
308.449	46.42
308.663	27.99
308.877	99.67
309.091	11.61
309.305	30.04
309.519	44.37
309.733	46.42
309.947	60.76
310.161	64.85
310.374	13.65
310.588	48.47
310.802	-37.55
311.016	-64.17
311.23	19.8
311.444	30.04
311.658	5.46
311.872	-6.83
312.085	50.52
312.299	27.99
312.513	42.32
312.727	91.48
312.941	7.51
313.154	-31.4
313.368	44.37
313.582	-33.45
313.796	-6.83
314.009	50.52
314.223	62.8
314.437	7.51
314.651	36.18
314.864	32.08
315.078	-8.87
315.292	44.37
315.505	-8.87
315.719	-39.59
315.933	7.51
316.146	30.04
316.36	-0.68
316.573	46.42
316.787	-4.78
317.001	19.8
317.214	-33.45
317.428	42.32
317.641	32.08
317.855	-6.83
318.068	109.91
318.282	52.56
318.495	73.04
318.709	68.95
318.922	60.76
319.136	54.61
319.349	7.51
319.563	50.52
319.776	54.61
319.99	60.76
320.203	79.19
320.417	-2.73
320.63	40.28
320.843	25.94
321.057	68.95
321.27	105.81
321.483	73.04
321.697	15.7
321.91	64.85
322.124	73.04
322.337	-6.83
322.55	46.42
322.763	-6.83
322.977	17.75
323.19	-25.26
323.403	81.24
323.617	27.99
323.83	7.51
324.043	-31.4
324.256	23.89
324.469	5.46
324.683	71
324.896	77.14
325.109	19.8
325.322	-25.26
325.535	77.14
325.748	1.37
325.962	66.9
326.175	68.95
326.388	66.9
326.601	-19.11
326.814	44.37
327.027	-2.73
327.24	-2.73
327.453	103.76
327.666	40.28
327.879	87.38
328.092	15.7
328.305	64.85
328.518	11.61
328.731	13.65
328.944	71
329.157	-2.73
329.37	19.8
329.583	-0.68
329.796	52.56
330.009	-19.11
330.222	36.18
330.435	17.75
330.648	114
330.861	44.37
331.073	73.04
331.286	11.61
331.499	40.28
331.712	9.56
331.925	77.14
332.138	-27.31
332.35	9.56
332.563	15.7
332.776	-8.87
332.989	52.56
333.202	36.18
333.414	-43.69
333.627	42.32
333.84	13.65
334.053	19.8
334.265	-35.5
334.478	60.76
334.691	40.28
334.903	-8.87
335.116	87.38
335.329	21.85
335.541	-4.78
335.754	48.47
335.966	11.61
336.179	11.61
336.392	3.41
336.604	7.51
336.817	52.56
337.029	30.04
337.242	1.37
337.454	5.46
337.667	-4.78
337.88	91.48
338.092	-39.59
338.305	1.37
338.517	48.47
338.729	79.19
338.942	93.52
339.154	-4.78
339.367	-37.55
339.579	58.71
339.792	5.46
340.004	66.9
340.217	-15.02
340.429	3.41
340.641	11.61
340.854	36.18
341.066	23.89
341.278	50.52
341.491	62.8
341.703	5.46
341.915	21.85
342.128	15.7
342.34	66.9
342.552	13.65
342.764	-8.87
342.977	73.04
343.189	75.09
343.401	23.89
343.613	-17.07
343.826	-10.92
344.038	3.41
344.25	68.95
344.462	40.28
344.674	71
344.886	79.19
345.099	1.37
345.311	62.8
345.523	34.13
345.735	23.89
345.947	75.09
346.159	111.96
346.371	81.24
346.583	46.42
346.795	25.94
347.007	44.37
347.219	87.38
347.431	7.51
347.643	27.99
347.855	9.56
348.067	27.99
348.279	66.9
348.491	11.61
348.703	5.46
348.915	46.42
349.127	66.9
349.339	46.42
349.551	77.14
349.763	97.62
349.975	-0.68
350.187	95.57
350.399	126.29
350.61	103.76
350.822	54.61
351.034	13.65
351.246	48.47
351.458	71
351.669	93.52
351.881	7.51
352.093	-35.5
352.305	5.46
352.517	77.14
352.728	95.57
352.94	58.71
353.152	44.37
353.363	11.61
353.575	77.14
353.787	-6.83
353.999	77.14
354.21	-15.02
354.422	38.23
354.633	-15.02
354.845	56.66
355.057	46.42
355.268	32.08
355.48	19.8
355.692	-25.26
355.903	11.61
356.115	68.95
356.326	52.56
356.538	89.43
356.749	48.47
356.961	17.75
357.172	36.18
357.384	-6.83
357.595	109.91
357.807	36.18
358.018	-29.35
358.23	17.75
358.441	71
358.653	21.85
358.864	36.18
359.075	64.85
359.287	58.71
359.498	13.65
359.709	44.37
359.921	21.85
360.132	-8.87
360.344	52.56
360.555	85.33
360.766	50.52
360.977	15.7
361.189	75.09
361.4	21.85
361.611	48.47
361.823	46.42
362.034	40.28
362.245	44.37
362.456	3.41
362.667	7.51
362.879	23.89
363.09	-21.16
363.301	27.99
363.512	60.76
363.723	89.43
363.935	-31.4
364.146	85.33
364.357	52.56
364.568	-25.26
364.779	21.85
364.99	40.28
365.201	50.52
365.412	62.8
365.623	11.61
365.834	87.38
366.045	89.43
366.256	73.04
366.467	62.8
366.678	46.42
366.889	-41.64
367.1	93.52
367.311	-47.79
367.522	11.61
367.733	-8.87
367.944	54.61
368.155	9.56
368.366	93.52
368.577	60.76
368.788	91.48
368.999	-68.27
369.209	62.8
369.42	93.52
369.631	50.52
369.842	85.33
370.053	34.13
370.264	56.66
370.474	34.13
370.685	66.9
370.896	58.71
371.107	124.24
371.317	79.19
371.528	30.04
371.739	66.9
371.95	9.56
372.16	42.32
372.371	50.52
372.582	21.85
372.792	66.9
373.003	64.85
373.214	56.66
373.424	146.77
373.635	48.47
373.846	64.85
374.056	142.68
374.267	73.04
374.477	34.13
374.688	-19.11
374.898	54.61
375.109	-27.31
375.319	42.32
375.53	64.85
375.74	19.8
375.951	42.32
376.161	-12.97
376.372	62.8
376.582	66.9
376.793	91.48
377.003	105.81
377.214	-62.12
377.424	46.42
377.635	-2.73
377.845	27.99
378.055	17.75
378.266	27.99
378.476	15.7
378.686	60.76
378.897	54.61
379.107	-64.17
379.317	99.67
379.528	40.28
379.738	73.04
379.948	30.04
380.158	138.58
380.369	-33.45
380.579	34.13
380.789	48.47
380.999	56.66
381.21	-2.73
381.42	44.37
381.63	77.14
381.84	71
382.05	48.47
382.261	1.37
382.471	-4.78
382.681	73.04
382.891	3.41
383.101	44.37
383.311	-17.07
383.521	-6.83
383.731	107.86
383.941	89.43
384.151	32.08
384.361	66.9
384.571	5.46
384.781	77.14
384.991	25.94
385.201	105.81
385.411	75.09
385.621	60.76
385.831	73.04
386.041	62.8
386.251	52.56
386.461	50.52
386.671	11.61
386.881	64.85
387.091	136.53
387.301	50.52
387.511	71
387.72	103.76
387.93	11.61
388.14	-8.87
388.35	56.66
388.56	27.99
388.769	-35.5
388.979	79.19
389.189	-17.07
389.399	42.32
389.609	38.23
389.818	50.52
390.028	46.42
390.238	116.05
390.447	23.89
390.657	44.37
390.867	120.15
391.076	11.61
391.286	-21.16
391.496	54.61
391.705	81.24
391.915	118.1
392.125	144.72
392.334	50.52
392.544	27.99
392.753	25.94
392.963	79.19
393.172	-47.79
393.382	-31.4
393.591	103.76
393.801	23.89
394.01	87.38
394.22	142.68
394.429	120.15
394.639	62.8
394.848	19.8
395.058	60.76
395.267	66.9
395.477	75.09
395.686	81.24
395.895	99.67
396.105	48.47
396.314	109.91
396.524	48.47
396.733	21.85
396.942	185.68
397.152	68.95
397.361	83.28
397.57	64.85
397.78	38.23
397.989	77.14
398.198	71
398.407	107.86
398.617	95.57
398.826	81.24
399.035	99.67
399.244	89.43
399.453	79.19
399.663	105.81
399.872	75.09
400.081	46.42
400.29	130.39
400.499	77.14
400.708	140.63
400.917	58.71
401.127	56.66
401.336	120.15
401.545	200.02
401.754	58.71
401.963	79.19
402.172	103.76
402.381	77.14
402.59	136.53
402.799	60.76
403.008	144.72
403.217	99.67
403.426	148.82
403.635	132.44
403.844	124.24
404.053	111.96
404.262	140.63
404.471	130.39
404.68	97.62
404.888	103.76
405.097	136.53
405.306	105.81
405.515	99.67
405.724	171.35
405.933	197.97
406.142	173.39
406.35	154.96
406.559	138.58
406.768	195.92
406.977	240.98
407.185	93.52
407.394	187.73
407.603	134.48
407.812	228.69
408.02	245.07
408.229	259.41
408.438	204.11
408.646	200.02
408.855	208.21
409.064	208.21
409.272	218.45
409.481	294.22
409.69	245.07
409.898	269.65
410.107	220.5
410.315	238.93
410.524	279.89
410.733	279.89
410.941	230.74
411.15	386.38
411.358	247.12
411.567	441.68
411.775	357.71
411.984	433.49
412.192	415.05
412.401	341.33
412.609	398.67
412.818	413.01
413.026	423.25
413.234	439.63
413.443	431.44
413.651	470.35
413.86	447.82
414.068	474.45
414.276	568.65
414.485	613.71
414.693	589.13
414.901	535.89
415.11	601.42
415.318	607.56
415.526	726.35
415.734	679.24
415.943	646.48
416.151	755.02
416.359	720.2
416.567	716.11
416.776	724.3
416.984	785.74
417.192	898.38
417.4	890.18
417.608	859.46
417.817	945.48
418.025	1072.45
418.233	1035.59
418.441	945.48
418.649	1056.07
418.857	1121.6
419.065	1193.28
419.273	1205.57
419.481	1236.29
419.689	1215.81
419.897	1307.97
420.105	1357.12
420.313	1359.17
420.521	1404.22
420.729	1430.85
420.937	1533.25
421.145	1566.01
421.353	1682.75
421.561	1731.9
421.769	1744.19
421.977	1905.98
422.185	1875.26
422.393	1846.59
422.601	1983.8
422.809	2143.54
423.017	2012.47
423.224	2073.91
423.432	2178.36
423.64	2305.33
423.848	2317.62
424.056	2346.29
424.263	2506.03
424.471	2454.83
424.679	2561.33
424.887	2714.92
425.094	2874.67
425.302	2829.61
425.51	2932.01
425.718	3011.88
425.925	2972.97
426.133	3190.05
426.341	3263.78
426.548	3343.65
426.756	3415.33
426.964	3525.92
427.171	3659.04
427.379	3835.16
427.586	3890.46
427.794	3990.81
428.001	4187.41
428.209	4363.54
428.417	4265.24
428.624	4529.42
428.832	4656.4
429.039	4558.1
429.247	4664.59
429.454	5027.08
429.662	5393.67
429.869	5080.33
430.076	5391.62
430.284	5272.84
430.491	5567.74
430.699	5457.15
430.906	5766.4
431.114	5801.21
431.321	6079.74
431.528	6358.26
431.736	6495.47
431.943	6978.79
432.15	6655.22
432.358	6878.44
432.565	7013.61
432.772	6995.18
432.979	7539.94
433.187	7605.47
433.394	7679.2
433.601	8146.14
433.808	8060.12
434.016	8066.27
434.223	8383.7
434.43	8938.7
434.637	8762.58
434.844	9401.54
435.052	9456.84
435.259	9532.61
435.466	9469.12
435.673	9534.66
435.88	9911.49
436.087	10558.64
436.294	10622.13
436.501	10316.98
436.708	10511.54
436.915	10863.79
437.122	11269.29
437.329	11267.24
437.537	11660.45
437.743	11848.86
437.95	11852.96
438.157	12422.3
438.364	12717.2
438.571	12960.91
438.778	12950.67
438.985	14001.28
439.192	13522.06
439.399	14171.26
439.606	13804.67
439.813	14466.17
440.02	15375.47
440.227	15117.42
440.433	14867.57
440.64	15547.5
440.847	15287.4
441.054	15713.38
441.261	16551
441.467	16528.47
441.674	16917.59
441.881	17531.98
442.088	17552.46
442.294	17259.6
442.501	17886.28
442.708	18009.15
442.914	18617.4
443.121	19721.26
443.328	19024.95
443.534	20407.33
443.741	19979.3
443.948	19749.93
444.154	21066.77
444.361	20999.19
444.568	21027.86
444.774	21134.35
444.981	21130.26
445.187	21967.88
445.394	22735.87
445.6	22766.59
445.807	24783.84
446.013	23897.06
446.22	24089.57
446.426	25181.14
446.633	24992.73
446.839	26168.26
447.046	24851.42
447.252	26231.75
447.459	26618.82
447.665	26119.11
447.871	27454.39
448.078	28910.49
448.284	27329.46
448.491	28240.81
448.697	29236.12
448.903	29574.03
449.11	29875.09
449.316	29297.56
449.522	30067.59
449.728	30612.35
449.935	30892.93
450.141	30948.22
450.347	31595.38
450.553	30405.51
450.76	30974.84
450.966	31628.15
451.172	31554.42
451.378	32281.45
451.584	31777.65
451.791	32564.07
451.997	32623.46
452.203	32820.06
452.409	32963.42
452.615	32811.87
452.821	31474.55
453.027	31062.91
453.233	32887.65
453.44	31370.1
453.646	31746.93
453.852	32168.81
454.058	32914.27
454.264	31431.54
454.47	32351.08
454.676	31361.91
454.882	32312.17
455.088	29293.46
455.294	30108.55
455.5	30686.08
455.705	31279.99
455.911	29846.41
456.117	29139.86
456.323	28566.43
456.529	27329.46
456.735	28525.47
456.941	27634.61
457.147	27206.58
457.352	25981.9
457.558	25981.9
457.764	26106.82
457.97	25586.64
458.176	24912.86
458.381	25082.84
458.587	24054.76
458.793	23632.88
458.999	22459.39
459.204	24210.4
459.41	23415.79
459.616	21990.41
459.821	22178.82
460.027	21873.67
460.233	21496.85
460.438	20323.36
460.644	21027.86
460.85	19651.63
461.055	19477.55
461.261	19110.96
461.466	18007.11
461.672	17390.67
461.878	18441.28
462.083	17456.2
462.289	16784.47
462.494	16983.12
462.7	15959.14
462.905	15783.01
463.111	16206.94
463.316	16245.85
463.522	16110.69
463.727	16084.06
463.932	15869.03
464.138	15811.68
464.343	16006.24
464.549	15152.24
464.754	16106.59
464.959	15877.22
465.165	15508.58
465.37	15082.61
465.575	14935.15
465.781	15187.05
465.986	15293.55
466.191	14765.17
466.397	14591.09
466.602	13782.15
466.807	14351.48
467.012	14335.1
467.218	14263.42
467.423	14025.86
467.628	14161.02
467.833	14523.51
468.038	14226.56
468.244	13925.5
468.449	14249.08
468.654	13634.69
468.859	13823.11
469.064	13620.36
469.269	13057.17
469.474	13155.47
469.679	13671.56
469.885	13118.61
470.09	13360.27
470.295	13239.44
470.5	12868.75
470.705	12907.66
470.91	12700.82
471.115	12389.53
471.32	12868.75
471.525	12641.43
471.73	12336.28
471.935	12174.49
472.139	11830.43
472.344	12113.05
472.549	12029.09
472.754	11721.89
472.959	11648.16
473.164	11300.01
473.369	11228.33
473.574	11672.74
473.778	11480.23
473.983	11371.69
474.188	11267.24
474.393	10824.88
474.598	10953.9
474.802	10820.78
475.007	10620.08
475.212	10718.39
475.417	10202.3
475.621	10388.66
475.826	10296.5
476.031	10128.57
476.235	9977.02
476.44	9979.07
476.645	9809.09
476.849	9974.97
477.054	9753.79
477.259	9534.66
477.463	9544.9
477.668	9505.99
477.872	9661.63
478.077	9319.62
478.282	9022.67
478.486	8996.04
478.691	9055.44
478.895	9106.63
479.1	8633.55
479.304	8840.4
479.509	8600.79
479.713	8965.32
479.918	8725.71
480.122	8455.38
480.326	8713.42
480.531	8580.31
480.735	8553.68
480.94	8412.37
481.144	8651.99
481.348	8422.61
481.553	8236.25
481.757	8076.51
481.961	8336.6
482.166	8482
482.37	8449.24
482.574	8015.07
482.778	8232.15
482.983	8522.96
483.187	8277.21
483.391	8205.53
483.595	8301.78
483.8	8105.18
484.004	8223.96
484.208	8230.1
484.412	8330.45
484.616	8269.02
484.821	8176.86
485.025	8160.47
485.229	8309.97
485.433	8121.56
485.637	8180.95
485.841	8004.83
486.045	8162.52
486.249	8164.57
486.453	8230.1
486.657	8025.31
486.861	8291.54
487.065	7777.5
487.269	8250.58
487.473	7965.92
487.677	8094.94
487.881	8242.39
488.085	8223.96
488.289	8318.17
488.493	8178.9
488.697	8254.68
488.901	8379.61
489.105	8486.1
489.309	8445.14
489.512	8395.99
489.716	8520.92
489.92	8232.15
490.124	8307.93
490.328	8418.52
490.531	8506.58
490.735	8496.34
490.939	8500.44
491.143	8568.02
491.346	8330.45
491.55	8453.33
491.754	8537.3
491.958	8604.88
492.161	8727.76
492.365	8869.07
492.569	8670.42
492.772	8602.83
492.976	8660.18
493.18	8891.6
493.383	8989.9
493.587	8838.35
493.79	8965.32
493.994	8877.26
494.197	9098.44
494.401	9180.36
494.605	9149.64
494.808	9262.28
495.012	9163.98
495.215	9309.38
495.419	9479.36
495.622	9323.72
495.825	9522.37
496.029	9563.33
496.232	9743.55
496.436	9575.62
496.639	9913.53
496.843	9839.81
497.046	10124.47
497.249	10222.78
497.453	10286.26
497.656	10544.31
497.859	10364.09
498.063	10484.92
498.266	10658.99
498.469	10765.49
498.673	10955.95
498.876	11195.56
499.079	11007.15
499.282	11021.49
499.485	11144.36
499.689	11324.58
499.892	11609.25
500.095	11506.85
500.298	12016.8
500.501	11541.67
500.705	12012.7
500.908	12041.37
501.111	12307.61
501.314	12311.71
501.517	12395.67
501.72	12582.04
501.923	12563.61
502.126	12991.63
502.329	13149.32
502.532	13212.81
502.735	13218.96
502.938	13399.18
503.141	13577.35
503.344	13929.6
503.547	13825.15
503.75	13798.53
503.953	14158.97
504.156	14394.49
504.359	14644.34
504.562	14412.92
504.765	14902.39
504.968	15023.22
505.17	14912.63
505.373	14998.64
505.576	15426.67
505.779	15645.8
505.982	15539.3
506.185	15737.96
506.387	16090.21
506.59	15948.9
506.793	16532.57
506.996	16235.61
507.198	17046.61
507.401	16542.81
507.604	16933.97
507.807	17275.98
508.009	17540.17
508.212	17421.39
508.415	17722.44
508.617	17910.85
508.82	18222.14
509.022	18125.89
509.225	18316.35
509.428	18644.02
509.63	18721.85
509.833	18955.32
510.035	19303.47
510.238	18994.23
510.44	19473.45
510.643	19887.14
510.845	19758.12
511.048	19567.66
511.25	20040.74
511.453	20007.97
511.655	20847.64
511.858	20546.59
512.06	20798.49
512.262	20995.09
512.465	20970.52
512.667	21519.37
512.87	21494.8
513.072	21742.6
513.274	22178.82
513.477	22127.62
513.679	22719.48
513.881	22662.14
514.084	23260.15
514.286	22807.55
514.488	23225.33
514.69	23684.08
514.893	23702.51
515.095	23690.22
515.297	24151.01
515.499	24146.92
515.701	24380.39
515.904	24699.87
516.106	25191.38
516.308	25412.56
516.51	25367.51
516.712	25455.57
516.914	25766.86
517.116	26190.79
517.318	26219.46
517.52	26452.93
517.722	26258.37
517.925	27030.46
518.127	27360.18
518.329	27333.56
518.531	27278.26
518.733	27511.73
518.935	28052.39
519.136	28064.68
519.338	28644.26
519.54	28525.47
519.742	29088.67
519.944	28937.12
520.146	29371.29
520.348	29483.92
520.55	29436.82
520.752	29776.78
520.954	30133.13
521.155	30374.79
521.357	30942.08
521.559	30831.49
521.761	31044.48
521.963	30962.56
522.164	31247.22
522.366	31824.75
522.568	31746.93
522.77	32017.26
522.971	32539.49
523.173	32297.83
523.375	32932.7
523.576	32932.7
523.778	32580.45
523.98	32895.84
524.181	33358.68
524.383	33528.66
524.584	34003.79
524.786	33831.76
524.988	33696.6
525.189	34325.32
525.391	34548.55
525.592	34429.77
525.794	34792.26
525.995	34839.36
526.197	34732.87
526.398	34614.09
526.6	35044.16
526.801	35046.21
527.003	35429.18
527.204	35541.81
527.406	35773.24
527.607	35801.91
527.808	35998.51
528.01	35449.66
528.211	36098.86
528.412	36723.49
528.614	36490.02
528.815	36559.66
529.016	36940.58
529.218	36244.27
529.419	36733.73
529.62	36490.02
529.822	36817.7
530.023	36823.84
530.224	37112.61
530.425	37116.7
530.626	36614.95
530.828	37047.07
531.029	37776.15
531.23	37165.85
531.431	37301.02
531.632	37339.93
531.833	37733.14
532.035	37618.46
532.236	37806.87
532.437	37593.88
532.638	37403.42
532.839	37704.47
533.04	37886.74
533.241	37714.71
533.442	38234.89
533.643	38013.71
533.844	38077.2
534.045	37692.18
534.246	38048.53
534.447	37966.61
534.648	37892.88
534.849	38218.51
535.05	37640.98
535.251	38253.33
535.451	37890.84
535.652	38298.38
535.853	38120.21
536.054	38038.29
536.255	38282
536.456	37749.53
536.657	38550.28
536.857	37952.27
537.058	38218.51
537.259	38066.96
537.46	38132.5
537.66	37958.42
537.861	37878.55
538.062	38079.25
538.263	38494.99
538.463	38075.15
538.664	37995.28
538.865	38259.47
539.065	38337.29
539.266	37796.63
539.466	38261.52
539.667	38142.74
539.868	38558.47
540.068	38030.1
540.269	38347.53
540.469	38081.3
540.67	37708.57
540.87	38206.22
541.071	38023.95
541.271	38019.86
541.472	37978.9
541.672	37845.78
541.873	37743.38
542.073	37665.56
542.274	38155.02
542.474	37874.45
542.675	37692.18
542.875	38132.5
543.075	37923.6
543.276	37542.68
543.476	38038.29
543.676	37665.56
543.877	38120.21
544.077	37600.02
544.277	37634.84
544.478	37913.36
544.678	38013.71
544.878	37913.36
545.078	37847.83
545.279	37552.92
545.479	37948.18
545.679	37905.17
545.879	38112.02
546.079	37894.93
546.28	38210.32
546.48	37366.56
546.68	37950.23
546.88	37874.45
547.08	38077.2
547.28	37944.08
547.48	37620.5
547.68	37802.77
547.88	37313.31
548.081	37747.48
548.281	37366.56
548.481	37280.54
548.681	37780.24
548.881	37837.59
549.081	37532.44
549.28	37311.26
549.48	37741.33
549.68	37782.29
549.88	37954.32
550.08	37268.25
550.28	37798.68
550.48	37608.22
550.68	37792.53
550.88	37634.84
551.08	37339.93
551.279	37813.01
551.479	37518.1
551.679	37747.48
551.879	37219.1
552.079	37366.56
552.278	37501.72
552.478	37448.47
552.678	37696.28
552.878	37378.84
553.077	37391.13
553.277	36938.53
553.477	37841.68
553.676	37331.74
553.876	37597.98
554.076	37022.5
554.275	37268.25
554.475	36860.71
554.674	37083.94
554.874	36901.67
555.074	36987.68
555.273	37147.42
555.473	37346.08
555.672	36973.35
555.872	36690.73
556.071	37247.77
556.271	37333.79
556.47	36727.59
556.67	36475.69
556.869	36508.46
557.068	36768.55
557.268	36508.46
557.467	36698.92
557.667	36369.19
557.866	36272.94
558.065	36510.5
558.265	36258.6
558.464	36266.8
558.663	36551.46
558.863	35806
559.062	36530.98
559.261	36111.15
559.461	36676.39
559.66	35453.75
559.859	36283.18
560.058	35945.26
560.258	36434.73
560.457	35959.6
560.656	36277.04
560.855	36064.05
561.054	35941.17
561.253	35406.65
561.453	35717.94
561.652	35672.88
561.851	35783.48
562.05	35474.23
562.249	35119.93
562.448	35613.49
562.647	35365.69
562.846	35599.16
563.045	35666.74
563.244	35130.17
563.443	35357.5
563.642	35095.36
563.841	35294.01
564.04	34857.79
564.239	35310.39
564.438	34597.7
564.637	34769.73
564.836	35128.13
565.035	34257.74
565.234	34378.57
565.432	34421.58
565.631	33915.73
565.83	34487.11
566.029	34229.07
566.228	33983.31
566.427	34419.53
566.625	34333.51
566.824	33760.08
567.023	34046.8
567.222	33516.37
567.42	33721.17
567.619	33837.9
567.818	33448.79
568.016	33448.79
568.215	33647.44
568.414	33477.46
568.612	33520.47
568.811	33215.32
569.01	33291.1
569.208	33133.4
569.407	33284.95
569.605	32846.69
569.804	33186.65
570.002	32846.69
570.201	32938.85
570.4	32826.21
570.598	32449.38
570.797	32502.63
570.995	32455.53
571.193	31933.29
571.392	32723.81
571.59	32605.03
571.789	32056.17
571.987	32058.22
572.186	32080.75
572.384	31603.57
572.582	31757.17
572.781	32017.26
572.979	30946.17
573.177	31638.39
573.376	31441.78
573.574	31220.6
573.772	31208.31
573.971	31220.6
574.169	31062.91
574.367	30931.84
574.565	31220.6
574.763	30751.62
574.962	30933.89
575.16	30751.62
575.358	30813.06
575.556	30364.55
575.754	31067
575.952	30423.94
576.151	30454.66
576.349	30444.42
576.547	30268.3
576.745	30208.9
576.943	30239.62
577.141	29881.23
577.339	30110.6
577.537	29875.09
577.735	29942.67
577.933	29703.06
578.131	30077.83
578.329	29586.32
578.527	29461.4
578.725	29631.38
578.923	29301.65
579.121	29350.81
579.319	29334.42
579.516	29338.52
579.714	29318.04
579.912	29227.93
580.11	28814.24
580.308	28775.33
580.506	28935.07
580.704	28351.4
580.901	28797.85
581.099	28916.64
581.297	28244.9
581.495	28265.38
581.692	28326.82
581.89	28117.93
582.088	28478.37
582.285	28070.83
582.483	27988.91
582.681	28390.31
582.878	27780.01
583.076	27657.14
583.274	28249
583.471	27755.44
583.669	27724.72
583.866	27407.28
584.064	27536.31
584.262	27388.85
584.459	27442.1
584.657	27362.23
584.854	27726.77
585.052	26966.97
585.249	27593.65
585.447	26852.28
585.644	26954.68
585.841	26901.43
586.039	27265.97
586.236	26657.73
586.434	26387.39
586.631	26688.45
586.828	26569.66
587.026	26354.63
587.223	26381.25
587.42	26311.62
587.618	26201.03
587.815	26022.86
588.012	26022.86
588.21	25883.59
588.407	26452.93
588.604	25983.94
588.801	25664.46
588.999	26016.71
589.196	25512.91
589.393	25797.58
589.59	25248.72
589.787	25484.24
589.984	25234.39
590.182	25326.55
590.379	25158.61
590.576	25203.67
590.773	24914.91
590.97	25019.35
591.167	25172.95
591.364	24699.87
591.561	25007.06
591.758	24749.02
591.955	24624.09
592.152	24830.94
592.349	24450.02
592.546	24517.6
592.743	24507.36
592.94	23960.55
593.137	24206.31
593.334	24183.78
593.531	23751.66
593.727	23784.43
593.924	24099.81
594.121	23636.97
594.318	24134.63
594.515	23735.28
594.712	23870.44
594.908	23458.8
595.105	23671.79
595.302	23358.45
595.499	23524.33
595.696	23563.25
595.892	23129.08
596.089	23397.36
596.286	23153.65
596.482	23215.09
596.679	23088.12
596.876	22795.26
597.072	22629.37
597.269	23108.6
597.466	22637.56
597.662	22559.74
597.859	22529.02
598.055	22834.17
598.252	22445.05
598.448	22447.1
598.645	22287.36
598.841	21988.36
599.038	22096.9
599.234	21898.25
599.431	21953.54
599.627	21670.92
599.824	22193.15
600.02	22109.19
600.217	21939.21
600.413	21767.18
600.609	21838.86
600.806	21314.58
601.002	21482.51
601.198	21494.8
601.395	21494.8
601.591	21365.78
601.787	21376.02
601.984	21117.97
602.18	21152.79
602.376	21234.71
602.572	20925.46
602.769	21167.12
602.965	20560.92
603.161	20767.77
603.357	20646.94
603.553	20595.74
603.75	20837.4
603.946	20644.89
604.142	20503.58
604.338	20288.54
604.534	20591.64
604.73	20175.91
604.926	20407.33
605.122	20403.23
605.318	20069.41
605.514	20093.99
605.71	19776.55
605.906	20151.33
606.102	19985.44
606.298	20108.32
606.494	19719.21
606.69	19825.7
606.886	19790.89
607.082	19459.12
607.278	19878.95
607.474	19186.74
607.67	19700.78
607.866	19203.12
608.062	19604.52
608.257	19190.83
608.453	19450.92
608.649	19336.24
608.845	19147.83
609.041	19035.19
609.236	19379.25
609.432	18920.5
609.628	19194.93
609.824	19055.67
610.019	18631.74
610.215	18824.25
610.411	18830.39
610.606	18857.01
610.802	18908.21
610.998	18947.12
611.193	18881.59
611.389	18627.64
611.584	18609.21
611.78	18472
611.976	18637.88
612.171	18787.38
612.367	18310.21
612.562	18457.66
612.758	18234.43
612.953	18230.34
613.149	18607.16
613.344	18261.05
613.539	18420.8
613.735	18414.65
613.93	18205.76
614.126	18205.76
614.321	18293.82
614.517	18070.59
614.712	18037.83
614.907	17904.71
615.103	17921.09
615.298	17980.48
615.493	18179.14
615.688	17923.14
615.884	18207.81
616.079	17857.6
616.274	17878.08
616.47	17853.51
616.665	17697.86
616.86	17816.65
617.055	17804.36
617.25	17656.9
617.445	17769.54
617.641	17333.32
617.836	17548.36
618.031	16985.17
618.226	17529.93
618.421	17251.41
618.616	17515.59
618.811	17128.53
619.006	17456.2
619.201	16958.55
619.396	16995.41
619.591	16639.06
619.786	16890.96
619.981	16645.21
620.176	16714.84
620.371	16561.24
620.566	16606.3
620.761	16426.07
620.956	16602.2
621.151	16256.09
621.346	16454.75
621.541	16172.13
621.735	16182.37
621.93	15996
622.125	15948.9
622.32	15914.08
622.515	15971.43
622.709	15834.21
622.904	15686.76
623.099	15809.64
623.294	15676.52
623.488	15690.85
623.683	15631.46
623.878	15240.3
624.072	15211.63
624.267	15127.66
624.462	15295.6
624.656	15090.8
624.851	15195.25
625.046	14664.82
625.24	14752.88
625.435	14541.94
625.629	14701.68
625.824	14509.18
626.018	14525.56
626.213	14158.97
626.407	14285.95
626.602	13962.37
626.796	14038.14
626.991	14177.41
627.185	14128.25
627.38	14105.73
627.574	13796.48
627.768	13784.19
627.963	13593.73
628.157	13603.97
628.352	13769.86
628.546	13386.89
628.74	13565.06
628.935	13206.67
629.129	13241.48
629.323	13433.99
629.517	13059.21
629.712	13268.11
629.906	13016.21
630.1	12620.95
630.294	13016.21
630.489	12782.74
630.683	12922
630.877	12575.89
631.071	12586.13
631.265	12502.17
631.459	12321.95
631.653	12526.74
631.848	12229.79
632.042	12227.74
632.236	12354.71
632.43	12131.48
632.624	12170.4
632.818	12043.42
633.012	11926.69
633.206	11873.44
633.4	11768.99
633.594	11746.47
633.788	11707.55
633.982	11687.08
634.176	11488.42
634.369	11541.67
634.563	11566.24
634.757	11422.89
634.951	11453.61
635.145	11351.21
635.339	11328.68
635.533	11017.39
635.726	11097.26
635.92	10763.44
636.114	10910.89
636.308	10874.03
636.501	10816.69
636.695	11109.55
636.889	10581.17
637.083	10828.98
637.276	10894.51
637.47	10546.36
637.664	10734.77
637.857	10550.45
638.051	10534.07
638.244	10269.88
638.438	10388.66
638.632	10390.71
638.825	10269.88
639.019	10075.32
639.212	9966.78
639.406	10065.08
639.599	9954.49
639.793	10083.52
639.986	9925.82
640.18	9880.77
640.373	9927.87
640.567	9751.74
640.76	9686.21
640.954	9559.24
641.147	9708.74
641.34	9653.44
641.534	9415.88
641.727	9315.53
641.92	9614.53
642.114	9360.58
642.307	9360.58
642.5	9270.47
642.694	9200.84
642.887	9356.49
643.08	9110.73
643.273	9092.3
643.467	8983.76
643.66	8942.8
643.853	9065.67
644.046	8950.99
644.239	8907.98
644.432	8848.59
644.626	8660.18
644.819	8676.56
645.012	8520.92
645.205	8553.68
645.398	8549.59
645.591	8512.72
645.784	8496.34
645.977	8455.38
646.17	8352.98
646.363	8314.07
646.556	8033.5
646.749	8307.93
646.942	8314.07
647.135	8168.66
647.328	8342.74
647.521	8228.06
647.714	7771.36
647.907	8053.98
648.099	7898.33
648.292	8121.56
648.485	7945.44
648.678	7912.67
648.871	7849.18
649.064	7873.76
649.256	7777.5
649.449	7707.87
649.642	7656.67
649.835	7658.72
650.027	7476.45
650.22	7408.87
650.413	7380.2
650.605	7406.82
650.798	7423.2
650.991	7433.44
651.183	7267.56
651.376	7331.05
651.568	7197.93
651.761	7242.98
651.954	7197.93
652.146	6931.69
652.339	7140.58
652.531	7116.01
652.724	7009.51
652.916	7046.38
653.109	6958.32
653.301	6995.18
653.494	7005.42
653.686	6708.46
653.879	6933.74
654.071	6841.58
654.263	6571.25
654.456	6690.03
654.648	6788.33
654.84	6620.4
655.033	6585.58
655.225	6522.1
655.417	6327.54
655.61	6403.32
655.802	6554.87
655.994	6456.56
656.186	6415.6
656.379	6405.36
656.571	6378.74
656.763	6259.96
656.955	6255.86
657.148	6296.82
657.34	6264.05
657.532	6028.54
657.724	5973.24
657.916	6227.19
658.108	5926.14
658.3	6065.4
658.492	6069.5
658.684	5987.58
658.876	5989.63
659.068	5983.48
659.26	5926.14
659.452	5983.48
659.644	5979.39
659.836	5747.97
660.028	5858.56
660.22	5725.44
660.412	5668.09
660.604	5704.96
660.796	5672.19
660.988	5620.99
661.18	5459.2
661.372	5545.22
661.563	5696.77
661.755	5526.78
661.947	5440.77
662.139	5481.73
662.331	5373.19
662.522	5326.08
662.714	5219.59
662.906	5403.91
663.097	5432.58
663.289	5332.23
663.481	5117.19
663.673	5309.7
663.864	5180.68
664.056	5260.55
664.247	5240.07
664.439	5135.62
664.631	5217.54
664.822	5109
665.014	5018.89
665.205	4990.22
665.397	5133.57
665.588	5063.94
665.78	4943.11
665.971	4984.07
666.163	4904.2
666.354	4877.58
666.546	4910.35
666.737	4844.81
666.929	4785.42
667.12	4836.62
667.311	4869.39
667.503	4785.42
667.694	4834.57
667.885	4812.04
668.077	4853
668.268	4717.84
668.459	4734.22
668.651	4730.13
668.842	4627.73
669.033	4570.38
669.224	4568.34
669.416	4611.34
669.607	4445.46
669.798	4492.56
669.989	4515.09
670.18	4599.06
670.371	4613.39
670.563	4367.63
670.754	4545.81
670.945	4455.7
671.136	4488.46
671.327	4406.55
671.518	4476.18
671.709	4269.33
671.9	4439.31
672.091	4338.96
672.282	4310.29
672.473	4410.64
672.664	4255
672.855	4228.37
673.046	4285.72
673.237	4238.61
673.428	4248.85
673.619	4179.22
673.809	4232.47
674	4146.45
674.191	4263.19
674.382	4146.45
674.573	4166.93
674.764	4214.04
674.954	4275.48
675.145	4125.97
675.336	4031.77
675.527	4142.36
675.717	3964.18
675.908	4128.02
676.099	4146.45
676.289	4042.01
676.48	4197.65
676.671	4009.24
676.861	4066.58
677.052	3982.62
677.243	3947.8
677.433	4029.72
677.624	4085.01
677.814	3970.33
678.005	3988.76
678.195	3947.8
678.386	3966.23
678.576	3988.76
678.767	3872.03
678.957	3833.11
679.148	3974.42
679.338	4019.48
679.529	3968.28
679.719	3927.32
679.909	3941.66
680.1	3884.31
680.29	3962.14
680.481	3800.35
680.671	3888.41
680.861	3755.29
681.052	3843.35
681.242	3783.96
681.432	3765.53
681.622	3800.35
681.813	3898.65
682.003	3826.97
682.193	3767.58
682.383	3908.89
682.573	3890.46
682.764	3831.07
682.954	3859.74
683.144	3810.59
683.334	3695.9
683.524	3667.23
683.714	3728.67
683.904	3675.42
684.094	3771.68
684.284	3700
684.474	3622.17
684.664	3769.63
684.854	3767.58
685.044	3607.84
685.234	3628.32
685.424	3632.41
685.614	3511.58
685.804	3566.88
685.994	3460.38
686.184	3605.79
686.374	3650.85
686.564	3546.4
686.753	3517.73
686.943	3570.97
687.133	3568.93
687.323	3444
687.513	3519.78
687.702	3550.5
687.892	3489.06
688.082	3462.43
688.272	3450.14
688.461	3532.06
688.651	3321.12
688.841	3337.51
689.03	3302.69
689.22	3323.17
689.41	3255.59
689.599	3464.48
689.789	3278.12
689.979	3360.03
690.168	3370.27
690.358	3386.66
690.547	3339.55
690.737	3165.48
690.926	3319.07
691.116	3020.07
691.305	3241.25
691.495	3259.68
691.684	3050.79
691.874	3128.61
692.063	3212.58
692.252	3112.23
692.442	3222.82
692.631	3093.8
692.82	3116.33
693.01	3093.8
693.199	3124.52
693.388	3194.15
693.578	2956.58
693.767	3046.69
693.956	2952.49
694.146	2987.3
694.335	2977.06
694.524	3048.74
694.713	2983.21
694.902	3020.07
695.092	2893.1
695.281	2962.73
695.47	2987.3
695.659	3032.36
695.848	2938.15
696.037	2829.61
696.226	2901.29
696.415	2958.63
696.604	2968.87
696.793	2934.06
696.982	2843.95
697.171	3011.88
697.36	2948.39
697.549	2706.73
697.738	2872.62
697.927	2766.12
698.116	2805.03
698.305	2729.26
698.494	2882.86
698.683	2850.09
698.872	2895.15
699.061	2876.71
699.25	2858.28
699.438	2837.8
699.627	2811.18
699.816	2860.33
700.005	2882.86
700.193	2997.54
700.382	2850.09
700.571	2856.23
700.76	2739.5
700.948	2802.99
701.137	2862.38
701.326	2792.75
701.514	2766.12
701.703	2757.93
701.892	2667.82
702.08	2725.16
702.269	2706.73
702.457	2747.69
702.646	2686.25
702.834	2716.97
703.023	2749.74
703.212	2772.27
703.4	2790.7
703.589	2723.12
703.777	2782.51
703.965	2696.49
704.154	2807.08
704.342	2708.78
704.531	2600.24
704.719	2723.12
704.907	2778.41
705.096	2770.22
705.284	2747.69
705.472	2727.21
705.661	2786.6
705.849	2843.95
706.037	2757.93
706.226	2706.73
706.414	2749.74
706.602	2719.02
706.79	2901.29
706.979	2753.84
707.167	2620.72
707.355	2659.63
707.543	2712.88
707.731	2702.64
707.919	2805.03
708.107	2639.15
708.296	2739.5
708.484	2751.79
708.672	2723.12
708.86	2774.31
709.048	2762.03
709.236	2827.56
709.424	2850.09
709.612	2639.15
709.8	2653.48
709.988	2764.08
710.176	2624.81
710.364	2692.4
710.551	2708.78
710.739	2719.02
710.927	2805.03
711.115	2755.88
711.303	2776.36
711.491	2692.4
711.679	2657.58
711.866	2784.55
712.054	2774.31
712.242	2745.64
712.43	2823.47
712.617	2739.5
712.805	2725.16
712.993	2690.35
713.181	2731.31
713.368	2725.16
713.556	2729.26
713.744	2678.06
713.931	2794.79
714.119	2702.64
714.306	2698.54
714.494	2706.73
714.682	2692.4
714.869	2772.27
715.057	2702.64
715.244	2700.59
715.432	2755.88
715.619	2757.93
715.807	2772.27
715.994	2735.4
716.182	2696.49
716.369	2774.31
716.556	2704.68
716.744	2866.47
716.931	2690.35
717.119	2778.41
717.306	2841.9
717.493	2743.6
717.681	2733.36
717.868	2704.68
718.055	2733.36
718.242	2796.84
718.43	2837.8
718.617	2753.84
718.804	2784.55
718.991	2692.4
719.179	2702.64
719.366	2678.06
719.553	2766.12
719.74	2778.41
719.927	2725.16
720.114	2702.64
720.301	2774.31
720.488	2768.17
720.676	2813.23
720.863	2768.17
721.05	2917.67
721.237	2764.08
721.424	2735.4
721.611	2874.67
721.798	2733.36
721.985	2743.6
722.172	2768.17
722.358	2794.79
722.545	2661.68
722.732	2796.84
722.919	2772.27
723.106	2878.76
723.293	2766.12
723.48	2827.56
723.667	2727.21
723.853	2770.22
724.04	2698.54
724.227	2704.68
724.414	2790.7
724.6	2676.01
724.787	2690.35
724.974	2786.6
725.161	2753.84
725.347	2870.57
725.534	2981.16
725.72	2780.46
725.907	2882.86
726.094	2809.13
726.28	2819.37
726.467	2729.26
726.653	2714.92
726.84	2802.99
727.027	2805.03
727.213	2635.05
727.4	2907.43
727.586	2817.32
727.773	2874.67
727.959	2686.25
728.145	2868.52
728.332	2872.62
728.518	2622.77
728.705	2731.31
728.891	2702.64
729.077	2899.24
729.264	2790.7
729.45	2694.44
729.636	2807.08
729.823	2796.84
730.009	2823.47
730.195	2678.06
730.382	2915.62
730.568	2772.27
730.754	2852.14
730.94	2811.18
731.126	2784.55
731.313	2802.99
731.499	2737.45
731.685	2745.64
731.871	2823.47
732.057	2788.65
732.243	2839.85
732.429	2665.77
732.615	2792.75
732.801	2737.45
732.987	2800.94
733.173	2729.26
733.359	2764.08
733.545	2792.75
733.731	2688.3
733.917	2835.75
734.103	2784.55
734.289	2845.99
734.475	2764.08
734.661	2827.56
734.847	2778.41
735.033	2702.64
735.219	2676.01
735.404	2743.6
735.59	2848.04
735.776	2772.27
735.962	2796.84
736.148	2841.9
736.333	2778.41
736.519	2751.79
736.705	2813.23
736.89	2786.6
737.076	2719.02
737.262	2680.11
737.447	2741.55
737.633	2751.79
737.819	2759.98
738.004	2737.45
738.19	2743.6
738.375	2645.29
738.561	2755.88
738.747	2739.5
738.932	2764.08
739.118	2766.12
739.303	2653.48
739.489	2762.03
739.674	2598.19
739.859	2639.15
740.045	2704.68
740.23	2731.31
740.416	2514.22
740.601	2565.42
740.786	2594.09
740.972	2610.48
741.157	2471.22
741.342	2563.37
741.528	2518.32
741.713	2561.33
741.898	2639.15
742.084	2495.79
742.269	2534.7
742.454	2549.04
742.639	2510.13
742.824	2485.55
743.01	2553.13
743.195	2444.59
743.38	2444.59
743.565	2624.81
743.75	2471.22
743.935	2424.11
744.12	2512.18
744.305	2442.54
744.49	2393.39
744.675	2372.91
744.86	2356.53
745.045	2397.49
745.23	2403.63
745.415	2354.48
745.6	2497.84
745.785	2315.57
745.97	2420.02
746.155	2237.75
746.34	2356.53
746.525	2252.08
746.71	2385.2
746.895	2239.8
747.079	2288.95
747.264	2166.07
747.449	2239.8
747.634	2237.75
747.819	2213.17
748.003	2180.4
748.188	2084.15
748.373	2059.57
748.557	2151.73
748.742	2047.29
748.927	2123.06
749.111	2227.51
749.296	2028.85
749.481	2204.98
749.665	2000.18
749.85	2053.43
750.034	1983.8
750.219	2051.38
750.404	2063.67
750.588	1932.6
750.773	2035
750.957	1922.36
751.141	1973.56
751.326	1916.22
751.51	1848.63
751.695	1940.79
751.879	1877.3
752.064	1936.7
752.248	1905.98
752.432	1916.22
752.617	1840.44
752.801	1934.65
752.985	1846.59
753.17	1932.6
753.354	1803.58
753.538	1832.25
753.722	1727.8
753.907	1746.23
754.091	1752.38
754.275	1672.51
754.459	1705.28
754.643	1748.28
754.828	1623.36
755.012	1676.6
755.196	1699.13
755.38	1637.69
755.564	1682.75
755.748	1615.16
755.932	1660.22
756.116	1594.68
756.3	1584.45
756.484	1662.27
756.668	1668.41
756.852	1533.25
757.036	1606.97
757.22	1574.21
757.404	1602.88
757.588	1553.73
757.772	1539.39
757.956	1449.28
758.14	1484.09
758.323	1545.53
758.507	1482.05
758.691	1516.86
758.875	1537.34
759.059	1396.03
759.242	1512.77
759.426	1471.81
759.61	1477.95
759.794	1391.94
759.977	1381.7
760.161	1439.04
760.345	1332.54
760.528	1414.46
760.712	1340.74
760.895	1355.07
761.079	1389.89
761.263	1361.22
761.446	1258.82
761.63	1340.74
761.813	1340.74
761.997	1283.39
762.18	1322.31
762.364	1289.54
762.547	1332.54
762.731	1193.28
762.914	1250.63
763.098	1240.39
763.281	1258.82
763.464	1230.15
763.648	1310.02
763.831	1236.29
764.015	1168.71
764.198	1213.76
764.381	1232.19
764.564	1201.47
764.748	1195.33
764.931	1246.53
765.114	1213.76
765.297	1203.52
765.481	1107.27
765.664	1201.47
765.847	1168.71
766.03	1213.76
766.213	1219.91
766.397	1144.13
766.58	1101.12
766.763	1127.75
766.946	1123.65
767.129	1144.13
767.312	1103.17
767.495	1174.85
767.678	1187.14
767.861	1086.79
768.044	1103.17
768.227	1211.71
768.41	1043.78
768.593	1062.21
768.776	1088.84
768.959	1113.41
769.142	1131.84
769.324	992.58
769.507	1178.95
769.69	1047.88
769.873	1060.17
770.056	1178.95
770.239	947.53
770.421	1080.64
770.604	1017.16
770.787	1025.35
770.97	916.81
771.152	970.05
771.335	945.48
771.518	931.14
771.7	1056.07
771.883	957.77
772.066	881.99
772.248	1097.03
772.431	976.2
772.613	886.09
772.796	1004.87
772.978	986.44
773.161	970.05
773.343	968.01
773.526	863.56
773.708	900.42
773.891	877.9
774.073	908.62
774.256	912.71
774.438	925
774.621	890.18
774.803	937.29
774.985	898.38
775.168	832.84
775.35	927.05
775.532	990.53
775.715	863.56
775.897	853.32
776.079	785.74
776.261	820.55
776.444	888.14
776.626	836.94
776.808	804.17
776.99	800.07
777.173	789.83
777.355	793.93
777.537	744.78
777.719	752.97
777.901	718.15
778.083	800.07
778.265	806.22
778.447	785.74
778.629	746.83
778.811	720.2
778.993	740.68
779.175	744.78
779.357	720.2
779.539	738.63
779.721	795.98
779.903	736.59
780.085	697.67
780.267	638.28
780.449	689.48
780.631	755.02
780.812	767.31
780.994	662.86
781.176	685.39
781.358	646.48
781.54	636.24
781.721	605.52
781.903	666.96
782.085	634.19
782.267	617.8
782.448	623.95
782.63	619.85
782.812	611.66
782.993	591.18
783.175	593.23
783.357	560.46
783.538	623.95
783.72	617.8
783.901	595.28
784.083	582.99
784.264	599.37
784.446	527.69
784.627	585.04
784.809	615.76
784.99	513.36
785.172	593.23
785.353	566.6
785.535	523.6
785.716	548.17
785.897	507.21
786.079	494.93
786.26	494.93
786.441	501.07
786.623	517.45
786.804	496.97
786.985	474.45
787.167	470.35
787.348	490.83
787.529	484.69
787.71	513.36
787.891	468.3
788.073	408.91
788.254	464.21
788.435	503.12
788.616	460.11
788.797	437.58
788.978	554.32
789.159	460.11
789.34	425.29
789.522	456.01
789.703	439.63
789.884	478.54
790.065	417.1
790.246	402.77
790.427	417.1
790.607	460.11
790.788	406.86
790.969	378.19
791.15	421.2
791.331	410.96
791.512	396.62
791.693	441.68
791.874	456.01
792.054	445.77
792.235	306.51
792.416	343.38
792.597	388.43
792.778	408.91
792.958	402.77
793.139	447.82
793.32	361.81
793.5	372.05
793.681	363.86
793.862	378.19
794.042	376.14
794.223	355.66
794.404	324.94
794.584	347.47
794.765	427.34
794.945	331.09
795.126	347.47
795.306	363.86
795.487	425.29
795.667	370
795.848	286.03
796.028	281.94
796.209	337.23
796.389	400.72
796.57	382.29
796.75	374.1
796.93	355.66
797.111	265.55
797.291	376.14
797.471	333.14
797.652	316.75
797.832	374.1
798.012	343.38
798.192	247.12
798.373	324.94
798.553	296.27
798.733	367.95
798.913	296.27
799.093	283.98
799.274	331.09
799.454	324.94
799.634	345.42
799.814	279.89
799.994	263.51
800.174	245.07
800.354	347.47
800.534	238.93
800.714	308.56
800.894	261.46
801.074	300.37
801.254	322.9
801.434	306.51
801.614	257.36
801.794	292.18
801.974	662.86
802.154	286.03
802.334	273.75
802.514	310.61
802.693	273.75
802.873	281.94
803.053	308.56
803.233	228.69
803.413	163.15
803.592	247.12
803.772	259.41
803.952	329.04
804.131	273.75
804.311	206.16
804.491	324.94
804.67	320.85
804.85	236.88
805.03	224.59
805.209	230.74
805.389	202.07
805.568	197.97
805.748	222.55
805.928	294.22
806.107	247.12
806.287	220.5
806.466	220.5
806.646	247.12
806.825	175.44
807.004	310.61
807.184	265.55
807.363	249.17
807.543	255.31
807.722	193.87
807.901	286.03
808.081	238.93
808.26	138.58
808.439	210.26
808.619	191.83
808.798	220.5
808.977	206.16
809.156	238.93
809.336	271.7
809.515	187.73
809.694	165.2
809.873	187.73
810.052	193.87
810.231	183.63
810.411	175.44
810.59	173.39
810.769	259.41
810.948	224.59
811.127	128.34
811.306	167.25
811.485	249.17
811.664	288.08
811.843	175.44
812.022	128.34
812.201	163.15
812.38	263.51
812.559	228.69
812.737	200.02
812.916	197.97
813.095	240.98
813.274	220.5
813.453	230.74
813.632	157.01
813.811	245.07
813.989	146.77
814.168	181.59
814.347	245.07
814.526	193.87
814.704	218.45
814.883	214.35
815.062	165.2
815.24	159.06
815.419	83.28
815.598	93.52
815.776	56.66
815.955	197.97
816.133	103.76
816.312	179.54
816.49	195.92
816.669	124.24
816.847	193.87
817.026	148.82
817.204	161.11
817.383	144.72
817.561	138.58
817.74	114
817.918	87.38
818.097	253.27
818.275	187.73
818.453	169.3
818.632	95.57
818.81	177.49
818.988	79.19
819.167	136.53
819.345	134.48
819.523	138.58
819.701	177.49
819.879	97.62
820.058	181.59
820.236	134.48
820.414	142.68
820.592	150.87
820.77	95.57
820.948	140.63
821.127	105.81
821.305	146.77
821.483	146.77
821.661	66.9
821.839	163.15
822.017	138.58
822.195	107.86
822.373	144.72
822.551	140.63
822.729	226.64
822.907	93.52
823.085	109.91
823.262	99.67
823.44	130.39
823.618	171.35
823.796	99.67
823.974	138.58
824.152	124.24
824.329	122.2
824.507	114
824.685	66.9
824.863	89.43
825.04	140.63
825.218	130.39
825.396	81.24
825.574	130.39
825.751	148.82
825.929	124.24
826.107	75.09
826.284	132.44
826.462	189.78
826.639	120.15
826.817	58.71
826.994	159.06
827.172	169.3
827.349	95.57
827.527	140.63
827.704	118.1
827.882	120.15
828.059	124.24
828.237	105.81
828.414	146.77
828.591	122.2
828.769	132.44
828.946	25.94
829.124	132.44
829.301	48.47
829.478	142.68
829.655	34.13
829.833	132.44
830.01	40.28
830.187	103.76
830.364	142.68
830.542	159.06
830.719	118.1
830.896	154.96
831.073	97.62
831.25	167.25
831.427	99.67
831.604	89.43
831.782	99.67
831.959	142.68
832.136	138.58
832.313	154.96
832.49	75.09
832.667	81.24
832.844	54.61
833.021	148.82
833.198	93.52
833.374	85.33
833.551	34.13
833.728	25.94
833.905	38.23
834.082	68.95
834.259	124.24
834.436	103.76
834.612	25.94
834.789	185.68
834.966	71
835.143	152.91
835.319	89.43
835.496	81.24
835.673	9.56
835.85	85.33
836.026	97.62
836.203	93.52
836.38	75.09
836.556	56.66
836.733	42.32
836.909	146.77
837.086	79.19
837.262	89.43
837.439	85.33
837.616	93.52
837.792	27.99
837.968	66.9
838.145	66.9
838.321	103.76
838.498	103.76
838.674	66.9
838.851	83.28
839.027	56.66
839.203	93.52
839.38	128.34
839.556	36.18
839.732	109.91
839.909	71
840.085	93.52
840.261	87.38
840.437	97.62
840.614	71
840.79	97.62
840.966	52.56
841.142	116.05
841.318	44.37
841.494	38.23
841.671	50.52
841.847	-4.78
842.023	79.19
842.199	126.29
842.375	34.13
842.551	23.89
842.727	91.48
842.903	68.95
843.079	101.72
843.255	52.56
843.431	32.08
843.607	107.86
843.783	9.56
843.959	50.52
844.134	50.52
844.31	79.19
844.486	54.61
844.662	87.38
844.838	9.56
845.013	114
845.189	83.28
845.365	81.24
845.541	136.53
845.716	152.91
845.892	40.28
846.068	32.08
846.244	-4.78
846.419	54.61
846.595	62.8
846.77	-23.21
846.946	101.72
847.122	64.85
847.297	38.23
847.473	68.95
847.648	11.61
847.824	17.75
847.999	36.18
848.175	15.7
848.35	34.13
848.526	1.37
848.701	124.24
848.876	64.85
849.052	54.61
849.227	103.76
849.403	-4.78
849.578	-21.16
849.753	25.94
849.929	34.13
850.104	25.94
850.279	21.85
850.454	60.76
850.63	11.61
850.805	21.85
850.98	17.75
851.155	-23.21
851.33	32.08
851.505	7.51
851.681	204.11
851.856	44.37
852.031	30.04
852.206	-12.97
852.381	1.37
852.556	27.99
852.731	79.19
852.906	77.14
853.081	77.14
853.256	19.8
853.431	11.61
853.606	-6.83
853.781	30.04
853.956	9.56
854.131	23.89
854.305	-12.97
854.48	21.85
854.655	36.18
854.83	-15.02
855.005	-2.73
855.18	30.04
855.354	62.8
855.529	40.28
855.704	7.51
855.879	-2.73
856.053	7.51
856.228	32.08
856.403	38.23
856.577	79.19
856.752	42.32
856.926	-8.87
857.101	-33.45
857.276	-107.18
857.45	46.42
857.625	66.9
857.799	-4.78
857.974	-25.26
858.148	85.33
858.323	101.72
858.497	15.7
858.672	21.85
858.846	-45.74
859.02	58.71
859.195	-23.21
859.369	27.99
859.543	114
859.718	-8.87
859.892	-10.92
860.066	19.8
860.241	-12.97
860.415	58.71
860.589	-29.35
860.763	-33.45
860.938	-6.83
861.112	25.94
861.286	56.66
861.46	83.28
861.634	25.94
861.808	1.37
861.982	60.76
862.157	23.89
862.331	34.13
862.505	-0.68
862.679	-0.68
862.853	81.24
863.027	-27.31
863.201	140.63
863.375	17.75
863.549	-15.02
863.722	81.24
863.896	99.67
864.07	-6.83
864.244	30.04
864.418	-2.73
864.592	42.32
864.766	54.61
864.939	50.52
865.113	46.42
865.287	30.04
865.461	-35.5
865.634	97.62
865.808	-25.26
865.982	7.51
866.156	-12.97
866.329	-27.31
866.503	44.37
866.676	27.99
866.85	42.32
867.024	15.7
867.197	-15.02
867.371	58.71
867.544	-0.68
867.718	-8.87
867.891	159.06
868.065	42.32
868.238	30.04
868.412	42.32
868.585	134.48
868.759	68.95
868.932	50.52
869.105	7.51
869.279	116.05
869.452	11.61
869.625	56.66
869.799	38.23
869.972	21.85
870.145	-10.92
870.319	99.67
870.492	46.42
870.665	17.75
870.838	34.13
871.011	-45.74
871.185	27.99
871.358	-25.26
871.531	-4.78
871.704	15.7
871.877	15.7
872.05	27.99
872.223	-12.97
872.396	103.76
872.569	81.24
872.742	-15.02
872.915	34.13
873.088	7.51
873.261	7.51
873.434	25.94
873.607	-43.69
873.78	48.47
873.953	23.89
874.126	48.47
874.299	-4.78
874.471	17.75
874.644	93.52
874.817	5.46
874.99	44.37
875.163	34.13
875.335	-0.68
875.508	-10.92
875.681	38.23
875.853	1.37
876.026	56.66
876.199	5.46
876.371	-0.68
876.544	-39.59
876.717	27.99
876.889	-84.65
877.062	-29.35
877.234	-12.97
877.407	-19.11
877.579	-6.83
877.752	-43.69
877.924	-29.35
878.097	23.89
878.269	27.99
878.442	50.52
878.614	13.65
878.786	13.65
878.959	-74.41
879.131	-19.11
879.303	-25.26
879.476	3.41
879.648	15.7
879.82	25.94
879.993	52.56
880.165	64.85
880.337	-29.35
880.509	-17.07
880.681	-21.16
880.854	-15.02
881.026	1.37
881.198	87.38
881.37	54.61
881.542	21.85
881.714	-15.02
881.886	32.08
882.058	38.23
882.23	-43.69
882.402	83.28
882.574	9.56
882.746	48.47
882.918	93.52
883.09	13.65
883.262	40.28
883.434	48.47
883.606	15.7
883.778	38.23
883.95	75.09
884.122	-6.83
884.293	77.14
884.465	-47.79
884.637	93.52
884.809	-35.5
884.98	23.89
885.152	66.9
885.324	-8.87
885.496	66.9
885.667	-58.03
885.839	32.08
886.011	3.41
886.182	62.8
886.354	9.56
886.525	27.99
886.697	5.46
886.869	34.13
887.04	13.65
887.212	52.56
887.383	36.18
887.555	95.57
887.726	23.89
887.897	-35.5
888.069	21.85
888.24	38.23
888.412	-29.35
888.583	38.23
888.754	32.08
888.926	27.99
889.097	-88.75
889.268	-8.87
889.44	52.56
889.611	-21.16
889.782	-21.16
889.953	11.61
890.125	9.56
890.296	25.94
890.467	50.52
890.638	-25.26
890.809	58.71
890.98	-78.51
891.151	11.61
891.323	109.91
891.494	9.56
891.665	23.89
891.836	-4.78
892.007	30.04
892.178	54.61
892.349	19.8
892.52	-4.78
892.691	32.08
892.862	-49.83
893.032	-64.17
893.203	40.28
893.374	-21.16
893.545	30.04
893.716	48.47
893.887	87.38
894.057	-25.26
894.228	21.85
894.399	-17.07
894.57	30.04
894.74	5.46
894.911	54.61
895.082	44.37
895.253	27.99
895.423	32.08
895.594	23.89
895.764	-2.73
895.935	46.42
896.106	-27.31
896.276	3.41
896.447	71
896.617	87.38
896.788	40.28
896.958	-2.73
897.129	36.18
897.299	9.56
897.47	38.23
897.64	-10.92
897.81	-64.17
897.981	101.72
898.151	-23.21
898.322	-10.92
898.492	-6.83
898.662	-29.35
898.832	34.13
899.003	-12.97
899.173	44.37
899.343	3.41
899.513	1.37
