Data from USB4F104151__28__11-51-33-968.txt Node

Date: Fri Mar 14 11:51:33 EDT 2025
User: louis
Spectrometer: USB4F10415
Trigger mode: 4
Integration Time (sec): 2.000000E-2
Scans to average: 1
Electric dark correction enabled: true
Nonlinearity correction enabled: false
Boxcar width: 0
XAxis mode: Wavelengths
Number of Pixels in Spectrum: 3648
>>>>>Begin Spectral Data<<<<<
178.204	-29.7
178.424	-29.7
178.644	-29.7
178.864	-44.03
179.084	-115.71
179.304	-62.46
179.524	72.7
179.744	-31.74
179.964	60.42
180.184	13.31
180.404	35.84
180.624	-19.46
180.844	-44.03
181.064	-17.41
181.283	-64.51
181.503	-17.41
181.723	74.75
181.943	-48.13
182.163	60.42
182.383	-52.22
182.602	113.66
182.822	66.56
183.042	23.55
183.262	-25.6
183.482	-17.41
183.701	5.12
183.921	-1.02
184.141	7.17
184.361	87.04
184.58	-21.5
184.8	-48.13
185.02	25.6
185.239	17.41
185.459	-35.84
185.679	46.08
185.898	19.46
186.118	54.27
186.338	-9.22
186.557	13.31
186.777	39.94
186.997	44.03
187.216	23.55
187.436	64.51
187.655	41.98
187.875	5.12
188.095	-27.65
188.314	1.02
188.534	64.51
188.753	5.12
188.973	105.47
189.192	21.5
189.412	64.51
189.631	21.5
189.851	82.94
190.07	37.89
190.29	-3.07
190.509	39.94
190.729	31.74
190.948	-21.5
191.168	117.76
191.387	19.46
191.607	66.56
191.826	37.89
192.045	11.26
192.265	-1.02
192.484	78.85
192.704	-11.26
192.923	-7.17
193.142	35.84
193.362	50.18
193.581	-37.89
193.8	-82.94
194.02	78.85
194.239	25.6
194.458	56.32
194.678	11.26
194.897	35.84
195.116	5.12
195.335	-31.74
195.555	5.12
195.774	33.79
195.993	-3.07
196.212	3.07
196.432	-7.17
196.651	87.04
196.87	35.84
197.089	158.72
197.308	5.12
197.528	17.41
197.747	-7.17
197.966	54.27
198.185	27.65
198.404	-76.8
198.623	-11.26
198.842	21.5
199.062	84.99
199.281	93.18
199.5	11.26
199.719	23.55
199.938	82.94
200.157	54.27
200.376	35.84
200.595	3.07
200.814	29.7
201.033	-41.98
201.252	23.55
201.471	25.6
201.69	21.5
201.909	74.75
202.128	80.89
202.347	1.02
202.566	-13.31
202.785	-17.41
203.004	-37.89
203.223	93.18
203.442	27.65
203.661	52.22
203.879	41.98
204.098	-9.22
204.317	37.89
204.536	1.02
204.755	-19.46
204.974	-17.41
205.193	13.31
205.411	68.61
205.63	25.6
205.849	3.07
206.068	-7.17
206.287	91.13
206.505	-25.6
206.724	29.7
206.943	-62.46
207.162	-7.17
207.381	-9.22
207.599	3.07
207.818	-25.6
208.037	39.94
208.255	72.7
208.474	-58.37
208.693	25.6
208.911	-9.22
209.13	9.22
209.349	39.94
209.567	132.09
209.786	9.22
210.005	-37.89
210.223	19.46
210.442	13.31
210.661	-5.12
210.879	25.6
211.098	-70.65
211.316	9.22
211.535	-52.22
211.753	13.31
211.972	23.55
212.191	-21.5
212.409	56.32
212.628	52.22
212.846	9.22
213.065	35.84
213.283	33.79
213.502	54.27
213.72	54.27
213.938	-107.52
214.157	27.65
214.375	74.75
214.594	58.37
214.812	60.42
215.031	27.65
215.249	-5.12
215.467	105.47
215.686	35.84
215.904	62.46
216.122	37.89
216.341	76.8
216.559	19.46
216.778	25.6
216.996	60.42
217.214	-21.5
217.432	11.26
217.651	-87.04
217.869	-41.98
218.087	-31.74
218.306	41.98
218.524	91.13
218.742	1.02
218.96	-15.36
219.179	21.5
219.397	31.74
219.615	121.85
219.833	52.22
220.051	11.26
220.27	72.7
220.488	44.03
220.706	33.79
220.924	41.98
221.142	19.46
221.36	60.42
221.578	60.42
221.796	-9.22
222.015	52.22
222.233	13.31
222.451	-9.22
222.669	56.32
222.887	-7.17
223.105	48.13
223.323	-41.98
223.541	35.84
223.759	52.22
223.977	21.5
224.195	54.27
224.413	29.7
224.631	39.94
224.849	39.94
225.067	5.12
225.285	-1.02
225.503	-11.26
225.721	35.84
225.939	13.31
226.157	54.27
226.375	60.42
226.592	-87.04
226.81	50.18
227.028	99.33
227.246	31.74
227.464	31.74
227.682	89.09
227.9	13.31
228.117	35.84
228.335	21.5
228.553	9.22
228.771	-1.02
228.989	31.74
229.206	52.22
229.424	58.37
229.642	17.41
229.86	-17.41
230.077	3.07
230.295	41.98
230.513	-35.84
230.731	144.38
230.948	76.8
231.166	68.61
231.384	-3.07
231.601	-15.36
231.819	31.74
232.037	87.04
232.254	17.41
232.472	37.89
232.689	7.17
232.907	-3.07
233.125	50.18
233.342	44.03
233.56	-84.99
233.777	29.7
233.995	29.7
234.213	25.6
234.43	72.7
234.648	44.03
234.865	-78.85
235.083	70.65
235.3	9.22
235.518	54.27
235.735	64.51
235.953	21.5
236.17	-7.17
236.388	35.84
236.605	19.46
236.822	44.03
237.04	48.13
237.257	5.12
237.475	11.26
237.692	-7.17
237.909	25.6
238.127	5.12
238.344	15.36
238.562	44.03
238.779	15.36
238.996	39.94
239.214	33.79
239.431	54.27
239.648	19.46
239.865	72.7
240.083	66.56
240.3	17.41
240.517	-46.08
240.735	5.12
240.952	29.7
241.169	50.18
241.386	74.75
241.603	76.8
241.821	-3.07
242.038	13.31
242.255	19.46
242.472	-50.18
242.689	39.94
242.907	82.94
243.124	-5.12
243.341	-3.07
243.558	-3.07
243.775	103.42
243.992	-1.02
244.209	95.23
244.426	13.31
244.643	27.65
244.86	21.5
245.078	58.37
245.295	35.84
245.512	-3.07
245.729	-7.17
245.946	-21.5
246.163	46.08
246.38	25.6
246.597	52.22
246.814	-15.36
247.031	-11.26
247.248	56.32
247.464	31.74
247.681	1.02
247.898	19.46
248.115	48.13
248.332	21.5
248.549	-13.31
248.766	23.55
248.983	23.55
249.2	46.08
249.417	50.18
249.633	66.56
249.85	-11.26
250.067	72.7
250.284	1.02
250.501	-9.22
250.717	-17.41
250.934	41.98
251.151	-7.17
251.368	-17.41
251.585	-15.36
251.801	-13.31
252.018	-29.7
252.235	-9.22
252.451	-15.36
252.668	-1.02
252.885	1.02
253.102	-1.02
253.318	21.5
253.535	44.03
253.752	44.03
253.968	-1.02
254.185	60.42
254.401	91.13
254.618	105.47
254.835	-11.26
255.051	-7.17
255.268	72.7
255.484	7.17
255.701	21.5
255.917	74.75
256.134	-52.22
256.351	46.08
256.567	-7.17
256.784	19.46
257	9.22
257.217	56.32
257.433	25.6
257.65	13.31
257.866	25.6
258.082	29.7
258.299	41.98
258.515	13.31
258.732	52.22
258.948	64.51
259.165	-5.12
259.381	-41.98
259.597	-25.6
259.814	35.84
260.03	19.46
260.246	17.41
260.463	21.5
260.679	74.75
260.895	11.26
261.112	33.79
261.328	52.22
261.544	68.61
261.761	52.22
261.977	56.32
262.193	19.46
262.409	-1.02
262.626	25.6
262.842	48.13
263.058	35.84
263.274	-52.22
263.49	99.33
263.707	33.79
263.923	23.55
264.139	29.7
264.355	46.08
264.571	54.27
264.787	41.98
265.004	19.46
265.22	41.98
265.436	7.17
265.652	74.75
265.868	74.75
266.084	9.22
266.3	15.36
266.516	27.65
266.732	7.17
266.948	37.89
267.164	33.79
267.38	-7.17
267.596	7.17
267.812	44.03
268.028	39.94
268.244	17.41
268.46	-7.17
268.676	-25.6
268.892	5.12
269.108	-70.65
269.324	35.84
269.54	17.41
269.756	21.5
269.972	-19.46
270.188	84.99
270.403	17.41
270.619	1.02
270.835	25.6
271.051	-7.17
271.267	-25.6
271.483	37.89
271.698	7.17
271.914	93.18
272.13	89.09
272.346	-1.02
272.562	-15.36
272.777	82.94
272.993	39.94
273.209	66.56
273.425	5.12
273.64	66.56
273.856	31.74
274.072	39.94
274.287	7.17
274.503	-31.74
274.719	82.94
274.934	72.7
275.15	-58.37
275.366	37.89
275.581	7.17
275.797	-31.74
276.012	74.75
276.228	66.56
276.444	-19.46
276.659	68.61
276.875	33.79
277.09	72.7
277.306	64.51
277.521	13.31
277.737	-15.36
277.952	48.13
278.168	-27.65
278.383	19.46
278.599	-44.03
278.814	-7.17
279.03	-11.26
279.245	89.09
279.461	-17.41
279.676	19.46
279.892	46.08
280.107	-5.12
280.322	33.79
280.538	13.31
280.753	84.99
280.969	84.99
281.184	23.55
281.399	1.02
281.615	44.03
281.83	39.94
282.045	-46.08
282.26	5.12
282.476	-37.89
282.691	33.79
282.906	66.56
283.122	7.17
283.337	21.5
283.552	21.5
283.767	46.08
283.983	11.26
284.198	5.12
284.413	9.22
284.628	25.6
284.843	91.13
285.058	74.75
285.274	27.65
285.489	23.55
285.704	39.94
285.919	-37.89
286.134	66.56
286.349	-7.17
286.564	21.5
286.779	39.94
286.995	50.18
287.21	-23.55
287.425	-5.12
287.64	-41.98
287.855	-25.6
288.07	60.42
288.285	48.13
288.5	-7.17
288.715	-46.08
288.93	-1.02
289.145	3.07
289.36	150.53
289.575	15.36
289.79	-23.55
290.004	44.03
290.219	-39.94
290.434	27.65
290.649	21.5
290.864	41.98
291.079	19.46
291.294	17.41
291.509	44.03
291.724	31.74
291.938	33.79
292.153	1.02
292.368	-29.7
292.583	54.27
292.798	5.12
293.012	48.13
293.227	13.31
293.442	-23.55
293.657	48.13
293.871	62.46
294.086	44.03
294.301	-9.22
294.516	58.37
294.73	74.75
294.945	13.31
295.16	54.27
295.374	9.22
295.589	37.89
295.804	23.55
296.018	107.52
296.233	54.27
296.447	80.89
296.662	3.07
296.877	31.74
297.091	121.85
297.306	-23.55
297.52	3.07
297.735	54.27
297.949	-31.74
298.164	44.03
298.378	25.6
298.593	39.94
298.807	-13.31
299.022	23.55
299.236	5.12
299.451	5.12
299.665	84.99
299.88	17.41
300.094	-7.17
300.309	7.17
300.523	-33.79
300.737	-5.12
300.952	17.41
301.166	21.5
301.381	15.36
301.595	17.41
301.809	-11.26
302.024	11.26
302.238	41.98
302.452	-33.79
302.667	-1.02
302.881	80.89
303.095	35.84
303.309	91.13
303.524	-27.65
303.738	-23.55
303.952	-11.26
304.166	54.27
304.381	-11.26
304.595	17.41
304.809	-9.22
305.023	46.08
305.237	19.46
305.452	-52.22
305.666	48.13
305.88	-27.65
306.094	62.46
306.308	-7.17
306.522	1.02
306.736	41.98
306.95	66.56
307.164	29.7
307.379	37.89
307.593	93.18
307.807	35.84
308.021	48.13
308.235	68.61
308.449	-35.84
308.663	5.12
308.877	33.79
309.091	23.55
309.305	76.8
309.519	1.02
309.733	37.89
309.947	68.61
310.161	68.61
310.374	33.79
310.588	62.46
310.802	15.36
311.016	-25.6
311.23	87.04
311.444	9.22
311.658	27.65
311.872	27.65
312.085	70.65
312.299	23.55
312.513	23.55
312.727	-17.41
312.941	-7.17
313.154	46.08
313.368	-31.74
313.582	62.46
313.796	23.55
314.009	-11.26
314.223	-17.41
314.437	54.27
314.651	19.46
314.864	66.56
315.078	41.98
315.292	3.07
315.505	31.74
315.719	21.5
315.933	46.08
316.146	87.04
316.36	3.07
316.573	25.6
316.787	48.13
317.001	-44.03
317.214	-23.55
317.428	41.98
317.641	-9.22
317.855	3.07
318.068	-17.41
318.282	93.18
318.495	50.18
318.709	87.04
318.922	-3.07
319.136	82.94
319.349	46.08
319.563	31.74
319.776	-50.18
319.99	93.18
320.203	60.42
320.417	72.7
320.63	-13.31
320.843	121.85
321.057	82.94
321.27	17.41
321.483	33.79
321.697	74.75
321.91	9.22
322.124	41.98
322.337	23.55
322.55	-52.22
322.763	44.03
322.977	25.6
323.19	13.31
323.403	15.36
323.617	31.74
323.83	60.42
324.043	50.18
324.256	54.27
324.469	78.85
324.683	62.46
324.896	-21.5
325.109	62.46
325.322	7.17
325.535	-13.31
325.748	58.37
325.962	-7.17
326.175	64.51
326.388	136.19
326.601	1.02
326.814	48.13
327.027	60.42
327.24	111.61
327.453	1.02
327.666	46.08
327.879	64.51
328.092	46.08
328.305	-1.02
328.518	52.22
328.731	25.6
328.944	13.31
329.157	84.99
329.37	-15.36
329.583	3.07
329.796	33.79
330.009	39.94
330.222	9.22
330.435	52.22
330.648	125.95
330.861	13.31
331.073	5.12
331.286	44.03
331.499	48.13
331.712	50.18
331.925	29.7
332.138	-27.65
332.35	15.36
332.563	87.04
332.776	70.65
332.989	15.36
333.202	-41.98
333.414	39.94
333.627	-23.55
333.84	56.32
334.053	29.7
334.265	-5.12
334.478	31.74
334.691	60.42
334.903	13.31
335.116	-72.7
335.329	46.08
335.541	58.37
335.754	117.76
335.966	41.98
336.179	11.26
336.392	48.13
336.604	52.22
336.817	50.18
337.029	80.89
337.242	23.55
337.454	37.89
337.667	66.56
337.88	25.6
338.092	11.26
338.305	70.65
338.517	-68.61
338.729	74.75
338.942	72.7
339.154	-29.7
339.367	-52.22
339.579	89.09
339.792	-13.31
340.004	82.94
340.217	7.17
340.429	56.32
340.641	7.17
340.854	-9.22
341.066	17.41
341.278	84.99
341.491	68.61
341.703	9.22
341.915	66.56
342.128	9.22
342.34	33.79
342.552	35.84
342.764	17.41
342.977	27.65
343.189	23.55
343.401	37.89
343.613	-31.74
343.826	21.5
344.038	52.22
344.25	37.89
344.462	21.5
344.674	62.46
344.886	-1.02
345.099	15.36
345.311	70.65
345.523	46.08
345.735	-76.8
345.947	72.7
346.159	101.37
346.371	62.46
346.583	25.6
346.795	103.42
347.007	66.56
347.219	89.09
347.431	-7.17
347.643	62.46
347.855	21.5
348.067	48.13
348.279	-5.12
348.491	-60.42
348.703	99.33
348.915	21.5
349.127	5.12
349.339	39.94
349.551	-35.84
349.763	56.32
349.975	-33.79
350.187	54.27
350.399	-9.22
350.61	44.03
350.822	68.61
351.034	41.98
351.246	9.22
351.458	105.47
351.669	7.17
351.881	87.04
352.093	84.99
352.305	44.03
352.517	25.6
352.728	72.7
352.94	72.7
353.152	125.95
353.363	25.6
353.575	-48.13
353.787	70.65
353.999	9.22
354.21	95.23
354.422	33.79
354.633	87.04
354.845	3.07
355.057	-3.07
355.268	-41.98
355.48	17.41
355.692	50.18
355.903	37.89
356.115	33.79
356.326	3.07
356.538	41.98
356.749	48.13
356.961	119.81
357.172	48.13
357.384	44.03
357.595	48.13
357.807	58.37
358.018	-39.94
358.23	87.04
358.441	48.13
358.653	35.84
358.864	9.22
359.075	68.61
359.287	39.94
359.498	9.22
359.709	33.79
359.921	27.65
360.132	-35.84
360.344	23.55
360.555	66.56
360.766	19.46
360.977	-1.02
361.189	56.32
361.4	-31.74
361.611	35.84
361.823	1.02
362.034	52.22
362.245	-9.22
362.456	113.66
362.667	-17.41
362.879	29.7
363.09	48.13
363.301	23.55
363.512	84.99
363.723	-25.6
363.935	5.12
364.146	68.61
364.357	35.84
364.568	105.47
364.779	58.37
364.99	41.98
365.201	74.75
365.412	93.18
365.623	19.46
365.834	91.13
366.045	95.23
366.256	35.84
366.467	66.56
366.678	35.84
366.889	74.75
367.1	1.02
367.311	39.94
367.522	70.65
367.733	117.76
367.944	27.65
368.155	82.94
368.366	48.13
368.577	68.61
368.788	82.94
368.999	66.56
369.209	111.61
369.42	37.89
369.631	89.09
369.842	11.26
370.053	70.65
370.264	78.85
370.474	95.23
370.685	58.37
370.896	-13.31
371.107	113.66
371.317	93.18
371.528	7.17
371.739	44.03
371.95	56.32
372.16	-27.65
372.371	15.36
372.582	68.61
372.792	80.89
373.003	56.32
373.214	33.79
373.424	37.89
373.635	70.65
373.846	44.03
374.056	48.13
374.267	58.37
374.477	44.03
374.688	35.84
374.898	7.17
375.109	119.81
375.319	64.51
375.53	44.03
375.74	17.41
375.951	62.46
376.161	25.6
376.372	87.04
376.582	17.41
376.793	27.65
377.003	19.46
377.214	64.51
377.424	15.36
377.635	1.02
377.845	-7.17
378.055	80.89
378.266	3.07
378.476	48.13
378.686	46.08
378.897	37.89
379.107	93.18
379.317	41.98
379.528	84.99
379.738	27.65
379.948	37.89
380.158	123.9
380.369	70.65
380.579	46.08
380.789	25.6
380.999	115.71
381.21	74.75
381.42	87.04
381.63	-11.26
381.84	35.84
382.05	35.84
382.261	37.89
382.471	115.71
382.681	60.42
382.891	68.61
383.101	-5.12
383.311	33.79
383.521	1.02
383.731	21.5
383.941	99.33
384.151	58.37
384.361	31.74
384.571	72.7
384.781	27.65
384.991	119.81
385.201	111.61
385.411	11.26
385.621	35.84
385.831	84.99
386.041	128
386.251	46.08
386.461	66.56
386.671	25.6
386.881	107.52
387.091	82.94
387.301	119.81
387.511	1.02
387.72	21.5
387.93	66.56
388.14	15.36
388.35	-41.98
388.56	107.52
388.769	99.33
388.979	31.74
389.189	1.02
389.399	142.33
389.609	89.09
389.818	128
390.028	11.26
390.238	62.46
390.447	33.79
390.657	33.79
390.867	35.84
391.076	1.02
391.286	15.36
391.496	95.23
391.705	-3.07
391.915	119.81
392.125	115.71
392.334	70.65
392.544	64.51
392.753	99.33
392.963	35.84
393.172	25.6
393.382	3.07
393.591	74.75
393.801	39.94
394.01	76.8
394.22	119.81
394.429	158.72
394.639	97.28
394.848	113.66
395.058	89.09
395.267	56.32
395.477	1.02
395.686	109.57
395.895	115.71
396.105	168.96
396.314	19.46
396.524	56.32
396.733	136.19
396.942	115.71
397.152	130.05
397.361	103.42
397.57	58.37
397.78	58.37
397.989	132.09
398.198	152.57
398.407	82.94
398.617	31.74
398.826	128
399.035	123.9
399.244	119.81
399.453	89.09
399.663	130.05
399.872	93.18
400.081	146.43
400.29	168.96
400.499	111.61
400.708	152.57
400.917	74.75
401.127	109.57
401.336	148.48
401.545	105.47
401.754	148.48
401.963	152.57
402.172	130.05
402.381	103.42
402.59	68.61
402.799	156.67
403.008	115.71
403.217	89.09
403.426	115.71
403.635	70.65
403.844	107.52
404.053	119.81
404.262	193.53
404.471	146.43
404.68	87.04
404.888	173.05
405.097	144.38
405.306	132.09
405.515	148.48
405.724	152.57
405.933	99.33
406.142	138.24
406.35	201.72
406.559	195.58
406.768	154.62
406.977	306.17
407.185	193.53
407.394	201.72
407.603	152.57
407.812	240.64
408.02	164.86
408.229	265.21
408.438	150.53
408.646	232.44
408.855	183.29
409.064	291.84
409.272	230.4
409.481	203.77
409.69	222.2
409.898	314.36
410.107	267.26
410.315	314.36
410.524	277.5
410.733	304.12
410.941	365.56
411.15	359.42
411.358	390.14
411.567	377.85
411.775	400.38
411.984	398.33
412.192	441.34
412.401	390.14
412.609	513.02
412.818	537.59
413.026	537.59
413.234	521.21
413.443	582.65
413.651	490.49
413.86	472.06
414.068	678.9
414.276	619.51
414.485	605.17
414.693	631.8
414.901	646.13
415.11	676.85
415.318	660.47
415.526	705.53
415.734	666.61
415.943	826.36
416.151	930.8
416.359	742.39
416.567	914.42
416.776	885.75
416.984	963.57
417.192	900.08
417.4	1041.39
417.608	912.37
417.817	1027.06
418.025	1139.69
418.233	1225.71
418.441	1090.54
418.649	1139.69
418.857	1221.61
419.065	1354.73
419.273	1219.57
419.481	1350.64
419.689	1440.75
419.897	1442.79
420.105	1539.05
420.313	1625.06
420.521	1516.52
420.729	1618.92
420.937	1723.37
421.145	1694.69
421.353	1909.73
421.561	1913.83
421.769	1922.02
421.977	2079.71
422.185	1928.16
422.393	2063.33
422.601	2239.45
422.809	2237.41
423.017	2126.82
423.224	2280.41
423.432	2462.68
423.64	2452.44
423.848	2630.62
424.056	2581.46
424.263	2837.46
424.471	2864.08
424.679	2892.76
424.887	3130.32
425.094	3122.13
425.302	3093.46
425.51	3255.25
425.718	3363.79
425.925	3427.28
426.133	3433.42
426.341	3713.99
426.548	3902.4
426.756	3892.16
426.964	3783.62
427.171	4121.54
427.379	4350.91
427.586	4393.92
427.794	4658.1
428.001	4721.59
428.209	4858.81
428.417	4789.17
428.624	5092.27
428.832	5223.34
429.039	5182.38
429.247	5098.42
429.454	5579.69
429.662	5915.56
429.869	5479.34
430.076	6110.11
430.284	5911.46
430.491	6087.59
430.699	6509.47
430.906	6273.95
431.114	6400.93
431.321	6601.63
431.528	6759.32
431.736	7312.27
431.943	7678.86
432.15	7545.74
432.358	7543.69
432.565	7965.57
432.772	7840.65
432.979	8344.45
433.187	8653.69
433.394	8520.57
433.601	9161.59
433.808	9069.43
434.016	8952.7
434.223	9302.9
434.43	10173.28
434.637	9866.09
434.844	10404.71
435.052	10728.28
435.259	10660.7
435.466	10572.64
435.673	10713.95
435.88	11211.6
436.087	11545.42
436.294	11852.62
436.501	11676.49
436.708	11871.05
436.915	12358.47
437.122	12868.41
437.329	12593.98
437.537	13304.63
437.743	13437.75
437.95	13333.3
438.157	14070.57
438.364	14424.87
438.571	14521.12
438.778	14572.32
438.985	15702.8
439.192	15194.9
439.399	15573.78
439.606	15246.1
439.813	16216.84
440.02	17257.21
440.227	16972.54
440.433	16761.6
440.64	17289.98
440.847	17306.36
441.054	17666.8
441.261	18805.47
441.467	18744.03
441.674	18899.68
441.881	19784.4
442.088	19550.93
442.294	19262.17
442.501	19839.7
442.708	20536.01
442.914	20927.17
443.121	22233.77
443.328	21656.25
443.534	22837.92
443.741	22352.55
443.948	21906.1
444.154	23814.8
444.361	23638.68
444.568	23521.95
444.774	23724.69
444.981	24081.04
445.187	24724.1
445.394	25275.01
445.6	25518.71
445.807	27839.06
446.013	26559.08
446.22	27038.31
446.426	28295.76
446.633	28510.8
446.839	29317.7
447.046	28050
447.252	29708.86
447.459	29882.94
447.665	29719.1
447.871	30853.67
448.078	32260.63
448.284	30992.94
448.491	31834.65
448.697	33110.53
448.903	33352.2
449.11	33925.63
449.316	32889.35
449.522	33706.49
449.728	34710
449.935	34646.51
450.141	34898.41
450.347	35699.17
450.553	34574.83
450.76	35398.12
450.966	36067.8
451.172	35688.93
451.378	36600.27
451.584	35826.14
451.791	37079.5
451.997	36542.93
452.203	37218.76
452.409	37134.79
452.615	37235.14
452.821	35983.83
453.027	35359.2
453.233	37206.47
453.44	36307.41
453.646	36379.09
453.852	36723.15
454.058	37097.93
454.264	36037.08
454.47	36495.83
454.676	36000.22
454.882	36995.53
455.088	33524.22
455.294	34349.56
455.5	34781.68
455.705	35637.73
455.911	33520.13
456.117	33155.59
456.323	32893.45
456.529	31099.43
456.735	32399.89
456.941	31490.59
457.147	30935.59
457.352	29956.66
457.558	29825.59
457.764	29975.09
457.97	29164.1
458.176	28580.43
458.381	28430.93
458.587	27476.57
458.793	27511.39
458.999	25924.21
459.204	27660.89
459.41	27181.67
459.616	25154.18
459.821	25191.04
460.027	24879.75
460.233	24472.2
460.438	23485.08
460.644	23751.32
460.85	22360.75
461.055	22571.69
461.261	22282.92
461.466	20447.94
461.672	19890.9
461.878	21062.33
462.083	19747.54
462.289	19544.79
462.494	19129.05
462.7	18354.92
462.905	18045.68
463.111	18856.67
463.316	18639.59
463.522	18483.94
463.727	18260.71
463.932	18316.01
464.138	18129.64
464.343	18348.78
464.549	17558.26
464.754	18039.53
464.959	18064.11
465.165	17881.84
465.37	17197.82
465.575	16571.14
465.781	17576.69
465.986	17783.54
466.191	17117.95
466.397	16468.74
466.602	16010
466.807	16495.36
467.012	16300.81
467.218	16239.37
467.423	15952.65
467.628	16136.97
467.833	16831.23
468.038	16118.54
468.244	15817.49
468.449	16448.26
468.654	15686.42
468.859	15567.63
469.064	15586.07
469.269	14957.34
469.474	15137.56
469.679	15500.05
469.885	14768.93
470.09	15375.13
470.295	15225.62
470.5	14795.55
470.705	14623.52
470.91	14519.07
471.115	14199.59
471.32	14678.82
471.525	14211.88
471.73	14265.13
471.935	14072.62
472.139	13660.98
472.344	13714.22
472.549	13650.74
472.754	13478.71
472.959	13216.57
473.164	12778.3
473.369	12714.81
473.574	13271.86
473.778	13265.72
473.983	13036.35
474.188	13075.26
474.393	12286.79
474.598	12360.52
474.802	12383.04
475.007	12342.08
475.212	12180.29
475.417	11838.28
475.621	11832.14
475.826	11936.59
476.031	11895.63
476.235	11318.1
476.44	11572.05
476.645	11332.44
476.849	11303.76
477.054	11486.03
477.259	11000.66
477.463	10920.79
477.668	10894.17
477.872	11060.06
478.077	10681.18
478.282	10361.7
478.486	10257.25
478.691	10314.59
478.895	10152.81
479.1	10283.88
479.304	10181.48
479.509	9900.9
479.713	10242.92
479.918	10054.5
480.122	9673.58
480.326	10050.41
480.531	9864.04
480.735	9851.75
480.94	9649
481.144	10115.94
481.348	9694.06
481.553	9628.53
481.757	9542.51
481.961	9608.05
482.166	9644.91
482.37	9722.73
482.574	9282.42
482.778	9278.32
482.983	9675.63
483.187	9401.2
483.391	9507.69
483.595	9626.48
483.8	9309.04
484.004	9532.27
484.208	9585.52
484.412	9280.37
484.616	9401.2
484.821	9585.52
485.025	9143.16
485.229	9562.99
485.433	9388.91
485.637	9421.68
485.841	9352.05
486.045	9415.54
486.249	9579.37
486.453	9235.32
486.657	9456.5
486.861	9237.36
487.065	9218.93
487.269	9298.8
487.473	9270.13
487.677	9483.12
487.881	9429.87
488.085	9540.46
488.289	9644.91
488.493	9433.97
488.697	9532.27
488.901	9642.86
489.105	9591.66
489.309	9816.94
489.512	9618.29
489.716	9528.17
489.92	9339.76
490.124	9710.44
490.328	9714.54
490.531	9642.86
490.735	9859.95
490.939	9655.15
491.143	9773.93
491.346	9571.18
491.55	10140.52
491.754	9761.64
491.958	10001.26
492.161	9814.89
492.365	10128.23
492.569	9753.45
492.772	10089.32
492.976	10175.33
493.18	10126.18
493.383	10378.08
493.587	10271.59
493.79	10310.5
493.994	10345.31
494.197	10414.95
494.401	10660.7
494.605	10439.52
494.808	10666.85
495.012	10617.69
495.215	10658.65
495.419	10832.73
495.622	10769.24
495.825	11066.2
496.029	10939.23
496.232	10877.79
496.436	11146.07
496.639	11537.23
496.843	11412.31
497.046	11688.78
497.249	11774.8
497.453	11862.86
497.656	11830.09
497.859	11885.39
498.063	12135.24
498.266	12239.69
498.469	12462.91
498.673	12544.83
498.876	12702.53
499.079	12925.75
499.282	12575.55
499.485	12976.95
499.689	12847.93
499.892	13345.59
500.095	13318.96
500.298	13554.48
500.501	13476.66
500.705	13878.06
500.908	13884.2
501.111	14062.38
501.314	14107.43
501.517	14379.81
501.72	14517.03
501.923	14715.68
502.126	14994.2
502.329	15108.89
502.532	15229.72
502.735	15221.53
502.938	15567.63
503.141	15667.98
503.344	15776.53
503.547	15821.58
503.75	16122.63
503.953	16671.49
504.156	16587.52
504.359	16952.06
504.562	16864
504.765	17140.47
504.968	17373.94
505.17	17580.79
505.373	17459.96
505.576	17799.92
505.779	17920.75
505.982	18041.58
506.185	18516.71
506.387	18684.64
506.59	18842.34
506.793	19088.09
506.996	18959.07
507.198	19759.83
507.401	19602.13
507.604	19677.91
507.807	20333.26
508.009	20189.9
508.212	20175.56
508.415	20714.18
508.617	20761.28
508.82	20949.7
509.022	20867.78
509.225	21605.05
509.428	21490.36
509.63	21770.93
509.833	21934.77
510.035	22645.41
510.238	22524.58
510.44	22612.65
510.643	23067.3
510.845	23245.47
511.048	23153.31
511.25	23519.9
511.453	23567
511.655	24509.07
511.858	24355.47
512.06	24175.25
512.262	24771.21
512.465	24787.59
512.667	24978.05
512.87	25541.24
513.072	25731.7
513.274	26159.73
513.477	26387.05
513.679	26428.01
513.881	26796.65
514.084	27517.53
514.286	26847.85
514.488	27441.76
514.69	28308.05
514.893	28168.79
515.095	28365.39
515.297	28473.93
515.499	28631.63
515.701	29117
515.904	29592.12
516.106	29198.91
516.308	29938.23
516.51	30095.92
516.712	30038.58
516.914	30399.02
517.116	31267.36
517.318	31072.81
517.52	31097.38
517.722	31353.38
517.925	31803.93
518.127	32012.82
518.329	31965.72
518.531	32119.32
518.733	32657.93
518.935	33272.32
519.136	33126.92
519.338	33651.2
519.54	33919.48
519.742	34220.53
519.944	34075.13
520.146	34685.42
520.348	35150.31
520.55	35041.77
520.752	35109.35
520.954	36141.53
521.155	35662.3
521.357	36508.11
521.559	36227.54
521.761	37018.06
521.963	36637.14
522.164	37095.88
522.366	37169.61
522.568	37886.4
522.77	37536.2
522.971	38097.34
523.173	38064.57
523.375	38369.72
523.576	38601.14
523.778	38648.24
523.98	39371.18
524.181	39303.59
524.383	39211.43
524.584	40169.88
524.786	40024.48
524.988	39807.39
525.189	40339.86
525.391	40829.33
525.592	40941.97
525.794	40806.8
525.995	41159.05
526.197	41240.97
526.398	41146.76
526.6	41589.13
526.801	42238.33
527.003	41685.38
527.204	41603.46
527.406	42439.03
527.607	42189.18
527.808	42697.08
528.01	42187.13
528.211	42330.49
528.412	43417.96
528.614	42897.78
528.815	42822
529.016	43295.08
529.218	43075.95
529.419	43526.5
529.62	43151.73
529.822	42985.84
530.023	43866.47
530.224	43878.75
530.425	43456.87
530.626	43352.43
530.828	43821.41
531.029	44765.52
531.23	43239.79
531.431	44124.51
531.632	43903.33
531.833	44476.76
532.035	44071.26
532.236	44380.51
532.437	45060.43
532.638	43919.71
532.839	44437.85
533.04	44904.79
533.241	43811.17
533.442	45074.77
533.643	44261.72
533.844	44329.31
534.045	44632.41
534.246	44206.43
534.447	44806.48
534.648	44335.45
534.849	45003.09
535.05	45023.57
535.251	45046.1
535.451	44847.44
535.652	45214.03
535.853	45152.59
536.054	45107.54
536.255	45109.58
536.456	44640.6
536.657	45476.17
536.857	44855.64
537.058	44810.58
537.259	45005.14
537.46	45082.96
537.66	44874.07
537.861	45214.03
538.062	45189.45
538.263	45388.11
538.463	44544.34
538.664	44865.88
538.865	45082.96
539.065	45166.93
539.266	44771.67
539.466	45418.83
539.667	44812.63
539.868	45248.85
540.068	45007.19
540.269	44992.85
540.469	45162.83
540.67	44921.17
540.87	44982.61
541.071	44904.79
541.271	45074.77
541.472	44687.7
541.672	44779.86
541.873	44435.8
542.073	44573.02
542.274	45545.8
542.474	44722.52
542.675	44517.72
542.875	45048.14
543.075	45220.17
543.276	43999.58
543.476	44865.88
543.676	44951.89
543.877	44386.65
544.077	44710.23
544.277	44708.18
544.478	44759.38
544.678	44773.72
544.878	44722.52
545.078	44917.07
545.279	44405.08
545.479	44329.31
545.679	44869.97
545.879	44675.41
546.079	44427.61
546.28	44640.6
546.48	44818.77
546.68	44822.87
546.88	44366.17
547.08	44806.48
547.28	44845.4
547.48	44323.16
547.68	44388.7
547.88	44163.42
548.081	44802.39
548.281	44343.64
548.481	44259.68
548.681	44585.3
548.881	44661.08
549.081	44282.2
549.28	44439.9
549.48	44579.16
549.68	44261.72
549.88	44912.98
550.08	44151.13
550.28	44220.77
550.48	44364.12
550.68	44695.89
550.88	44523.86
551.08	43997.54
551.279	44347.74
551.479	43958.63
551.679	44144.99
551.879	44210.53
552.079	44640.6
552.278	44276.06
552.478	44327.26
552.678	44069.22
552.878	44611.93
553.077	44226.91
553.277	43946.34
553.477	44110.17
553.676	44058.98
553.876	43936.1
554.076	44099.94
554.275	44032.35
554.475	43426.15
554.674	43764.07
554.874	44599.64
555.074	43651.43
555.273	44036.45
555.473	43897.19
555.672	43456.87
555.872	44042.59
556.071	43809.12
556.271	44028.26
556.47	43665.77
556.67	43420.01
556.869	43544.94
557.068	43802.98
557.268	43428.2
557.467	43424.11
557.667	43379.05
557.866	43245.93
558.065	43413.87
558.265	43256.17
558.464	43374.95
558.663	43518.31
558.863	43010.42
559.062	43712.87
559.261	42588.53
559.461	43481.45
559.66	42674.55
559.859	42928.5
560.058	43088.24
560.258	42707.32
560.457	42176.89
560.656	42842.48
560.855	42387.83
561.054	42774.9
561.253	42150.27
561.453	42281.34
561.652	42416.5
561.851	42471.8
562.05	42066.3
562.249	42207.61
562.448	42353.02
562.647	42039.68
562.846	42103.17
563.045	41953.66
563.244	41697.67
563.443	41732.48
563.642	41499.01
563.841	41689.48
564.04	40964.49
564.239	41816.45
564.438	41335.18
564.637	41634.18
564.836	41662.85
565.035	40917.39
565.234	40958.35
565.432	41042.32
565.631	40952.21
565.83	41304.46
566.029	40774.03
566.228	40786.32
566.427	40946.06
566.625	40636.82
566.824	40384.92
567.023	40567.19
567.222	40028.57
567.42	40479.13
567.619	40630.68
567.818	40325.53
568.016	40257.95
568.215	40216.99
568.414	39846.3
568.612	40102.3
568.811	39987.61
569.01	39987.61
569.208	39381.42
569.407	40149.4
569.605	39244.2
569.804	39973.28
570.002	39102.89
570.201	39483.81
570.4	39170.47
570.598	38767.02
570.797	38724.02
570.995	38515.12
571.193	38412.73
571.392	38832.56
571.59	38740.4
571.789	38064.57
571.987	38437.3
572.186	38267.32
572.384	38171.07
572.582	38904.24
572.781	38539.7
572.979	37419.46
573.177	37972.41
573.376	38074.81
573.574	37398.98
573.772	37988.8
573.971	37677.51
574.169	37439.94
574.367	37327.3
574.565	37229
574.763	37181.9
574.962	37192.14
575.16	37038.54
575.358	37474.76
575.556	36555.22
575.754	36788.69
575.952	36506.07
576.151	36805.07
576.349	36360.66
576.547	36157.91
576.745	36377.04
576.943	36288.98
577.141	35891.68
577.339	36276.69
577.537	36041.18
577.735	36108.76
577.933	35463.65
578.131	36024.79
578.329	35561.95
578.527	35652.06
578.725	35475.94
578.923	35760.61
579.121	35342.82
579.319	35437.03
579.516	35422.69
579.714	34896.36
579.912	35011.05
580.11	34957.8
580.308	34902.51
580.506	34628.08
580.704	34175.48
580.901	34640.37
581.099	34671.09
581.297	34216.44
581.495	34540.02
581.692	34343.41
581.89	33950.2
582.088	34431.47
582.285	34107.9
582.483	33995.26
582.681	33806.84
582.878	33729.02
583.076	33151.49
583.274	33968.63
583.471	33358.34
583.669	33438.21
583.866	32864.78
584.064	33481.22
584.262	32987.66
584.459	33466.88
584.657	32956.94
584.854	32893.45
585.052	32420.37
585.249	32930.31
585.447	32420.37
585.644	32502.29
585.841	32131.61
586.039	32387.6
586.236	31855.13
586.434	31914.52
586.631	31887.9
586.828	32133.65
587.026	31941.14
587.223	32092.69
587.42	31408.67
587.618	31916.57
587.815	31277.6
588.012	31392.29
588.21	31267.36
588.407	31392.29
588.604	31148.58
588.801	30900.78
588.999	31117.86
589.196	30851.63
589.393	31128.1
589.59	30745.13
589.787	30732.84
589.984	30427.7
590.182	29897.27
590.379	30222.9
590.576	30194.23
590.773	30183.99
590.97	30059.06
591.167	30018.1
591.364	29661.76
591.561	30140.98
591.758	29518.4
591.955	29852.22
592.152	29872.7
592.349	29504.06
592.546	29510.21
592.743	29483.58
592.94	29157.96
593.137	28820.04
593.334	29305.41
593.531	29207.11
593.727	29002.31
593.924	29055.56
594.121	28947.01
594.318	29098.56
594.515	28240.47
594.712	28633.68
594.908	28453.45
595.105	28349.01
595.302	28060.24
595.499	28258.9
595.696	27931.22
595.892	28250.7
596.089	28027.48
596.286	28039.76
596.482	27966.04
596.679	27912.79
596.876	27740.76
597.072	27521.63
597.269	27581.02
597.466	27150.95
597.662	27503.2
597.859	27228.77
598.055	27300.45
598.252	26917.48
598.448	26980.96
598.645	27058.79
598.841	26827.37
599.038	27048.55
599.234	26780.26
599.431	26432.11
599.627	26346.09
599.824	26712.68
600.02	26327.66
600.217	26253.94
600.413	26088.05
600.609	26004.08
600.806	26055.28
601.002	26034.8
601.198	25821.81
601.395	25619.07
601.591	25643.64
601.787	26190.45
601.984	25500.28
602.18	25782.9
602.376	25387.64
602.572	25320.06
602.769	25348.73
602.965	25270.91
603.161	25291.39
603.357	25301.63
603.553	25055.87
603.75	24787.59
603.946	24660.62
604.142	24732.29
604.338	24507.02
604.534	24763.01
604.73	24623.75
604.926	24318.6
605.122	24697.48
605.318	24310.41
605.514	24218.25
605.71	24291.98
605.906	24042.13
606.102	24146.58
606.298	24068.75
606.494	23990.93
606.69	24003.22
606.886	23952.02
607.082	23523.99
607.278	23886.48
607.474	23392.92
607.67	23857.81
607.866	23509.66
608.062	23599.77
608.257	23388.83
608.453	23431.83
608.649	23284.38
608.845	23304.86
609.041	23206.56
609.236	23419.55
609.432	22919.84
609.628	23132.83
609.824	23067.3
610.019	23093.92
610.215	22901.41
610.411	22905.51
610.606	22971.04
610.802	22581.93
610.998	22624.93
611.193	22573.74
611.389	22588.07
611.584	22518.44
611.78	22530.73
611.976	22559.4
612.171	22364.84
612.367	22514.34
612.562	22301.36
612.758	21799.6
612.953	22201.01
613.149	22485.67
613.344	22190.77
613.539	22471.34
613.735	22000.3
613.93	22094.51
614.126	21963.44
614.321	21899.95
614.517	21969.58
614.712	21676.73
614.907	21924.53
615.103	21899.95
615.298	21742.26
615.493	21807.8
615.688	21510.84
615.884	22162.09
616.079	21285.56
616.274	21588.66
616.47	21406.39
616.665	21580.47
616.86	21613.24
617.055	21324.47
617.25	21144.25
617.445	21328.57
617.641	21138.11
617.836	21072.57
618.031	20800.19
618.226	21148.35
618.421	21023.42
618.616	21230.27
618.811	20636.36
619.006	20830.91
619.201	20566.73
619.396	20814.53
619.591	20280.01
619.786	20503.24
619.981	20275.91
620.176	20493
620.371	20038.35
620.566	20314.83
620.761	20189.9
620.956	20030.16
621.151	20021.97
621.346	20060.88
621.541	19700.44
621.735	19923.66
621.93	19276.51
622.125	19634.9
622.32	19147.48
622.515	19258.07
622.709	19053.28
622.904	19198.68
623.099	19231.45
623.294	18928.35
623.488	18549.48
623.683	18780.9
623.878	18463.46
624.072	18664.16
624.267	18426.6
624.462	18490.09
624.656	18301.67
624.851	18512.61
625.046	18064.11
625.24	17910.51
625.435	17842.93
625.629	17748.72
625.824	17709.81
626.018	17754.87
626.213	16911.1
626.407	17150.71
626.602	17292.02
626.796	17236.73
626.991	17273.59
627.185	17179.39
627.38	16829.18
627.574	16669.44
627.768	16827.14
627.963	16716.54
628.157	16505.6
628.352	16397.06
628.546	16286.47
628.74	16579.33
628.935	16179.98
629.129	16272.14
629.323	15797.01
629.517	15684.37
629.712	15926.03
629.906	15702.8
630.1	15575.83
630.294	15604.5
630.489	15358.74
630.683	15473.43
630.877	15158.04
631.071	15280.92
631.265	15018.78
631.459	15112.99
631.653	14822.17
631.848	14969.63
632.042	14789.41
632.236	15184.66
632.43	14547.75
632.624	14627.62
632.818	14830.37
633.012	14615.33
633.206	14349.09
633.4	14400.29
633.594	13998.89
633.788	14279.46
633.982	14242.6
634.176	14078.76
634.369	14353.19
634.563	13671.22
634.757	13837.1
634.951	13783.85
635.145	13708.08
635.339	13716.27
635.533	13685.55
635.726	13503.28
635.92	13366.07
636.114	13181.75
636.308	13447.99
636.501	12954.43
636.695	13120.31
636.889	13140.79
637.083	12923.71
637.276	12966.71
637.47	12686.14
637.664	12696.38
637.857	12557.12
638.051	12708.67
638.244	12610.37
638.438	12485.44
638.632	12653.37
638.825	12262.21
639.019	12362.56
639.212	12223.3
639.406	12378.95
639.599	12057.42
639.793	12110.66
639.986	11805.52
640.18	11787.08
640.373	11840.33
640.567	11619.15
640.76	11584.34
640.954	11613.01
641.147	11410.26
641.34	11635.53
641.534	11375.44
641.727	11203.41
641.92	11371.35
642.114	11520.85
642.307	11248.47
642.5	10953.56
642.694	11174.74
642.887	10851.16
643.08	11000.66
643.273	10969.94
643.467	10867.55
643.66	10570.59
643.853	10572.64
644.046	10777.44
644.239	10705.76
644.432	10554.21
644.626	10384.23
644.819	10470.24
645.012	10294.11
645.205	10367.84
645.398	10167.14
645.591	10261.35
645.784	10099.56
645.977	10113.89
646.17	9995.11
646.363	10060.65
646.556	9874.28
646.749	9857.9
646.942	9859.95
647.135	9757.55
647.328	9962.34
647.521	9667.44
647.714	9681.77
647.907	9671.53
648.099	9440.11
648.292	9462.64
648.485	9483.12
648.678	9268.08
648.871	9167.73
649.064	9206.64
649.256	9304.95
649.449	9053.05
649.642	9028.47
649.835	9010.04
650.027	9104.25
650.22	8876.92
650.413	8858.49
650.605	8983.41
650.798	8985.46
650.991	8735.61
651.183	8831.87
651.376	8588.16
651.568	8504.19
651.761	8596.35
651.954	8586.11
652.146	8610.68
652.339	8549.25
652.531	8287.11
652.724	8332.16
652.916	8162.18
653.109	8301.44
653.301	8223.62
653.494	8213.38
653.686	8055.69
653.879	8129.41
654.071	8166.28
654.263	8010.63
654.456	8020.87
654.648	8000.39
654.84	7787.4
655.033	7732.11
655.225	7822.22
655.417	7816.07
655.61	7642
655.802	7744.39
655.994	7588.75
656.186	7660.43
656.379	7676.81
656.571	7564.17
656.763	7426.96
656.955	7396.24
657.148	7533.45
657.34	7642
657.532	7293.84
657.724	7306.13
657.916	7158.67
658.108	7164.82
658.3	7218.07
658.492	7177.11
658.684	7076.76
658.876	7027.6
659.068	6831
659.26	6763.42
659.452	6833.05
659.644	6898.58
659.836	6767.51
660.028	6896.53
660.22	6806.42
660.412	6796.18
660.604	6790.04
660.796	6865.82
660.988	6730.65
661.18	6515.61
661.372	6552.48
661.563	6550.43
661.755	6484.89
661.947	6405.02
662.139	6505.37
662.331	6472.61
662.522	6300.58
662.714	6290.34
662.906	6261.66
663.097	6402.97
663.289	6200.23
663.481	5989.28
663.673	6288.29
663.864	6040.48
664.056	6142.88
664.247	6044.58
664.439	6052.77
664.631	6065.06
664.822	5981.09
665.014	6050.72
665.205	5991.33
665.397	5927.85
665.588	5962.66
665.78	5862.31
665.971	5768.1
666.163	5677.99
666.354	5743.53
666.546	5778.34
666.737	5673.9
666.929	5731.24
667.12	5714.86
667.311	5774.25
667.503	5477.29
667.694	5671.85
667.885	5462.96
668.077	5495.72
668.268	5516.2
668.459	5407.66
668.651	5446.57
668.842	5419.95
669.033	5456.81
669.224	5268.4
669.416	5479.34
669.607	5311.41
669.798	5204.91
669.989	5338.03
670.18	5247.92
670.371	5139.38
670.563	5182.38
670.754	5188.53
670.945	5092.27
671.136	5215.15
671.327	5149.62
671.518	5047.22
671.709	5141.43
671.9	5178.29
672.091	5065.65
672.282	5063.6
672.473	4944.82
672.664	5108.66
672.855	4967.35
673.046	4893.62
673.237	4916.15
673.428	4860.85
673.619	4967.35
673.809	4750.26
674	4813.75
674.191	4928.44
674.382	4803.51
674.573	4703.16
674.764	4791.22
674.954	4737.98
675.145	4760.5
675.336	4867
675.527	4787.13
675.717	4666.3
675.908	4553.66
676.099	4639.67
676.289	4877.24
676.48	4729.78
676.671	4588.47
676.861	4658.1
677.052	4631.48
677.243	4627.39
677.433	4666.3
677.624	4719.54
677.814	4668.34
678.005	4555.71
678.195	4567.99
678.386	4590.52
678.576	4623.29
678.767	4365.25
678.957	4375.49
679.148	4471.74
679.338	4529.08
679.529	4395.96
679.719	4416.44
679.909	4582.33
680.1	4662.2
680.29	4406.2
680.481	4400.06
680.671	4426.68
680.861	4469.69
681.052	4430.78
681.242	4346.81
681.432	4486.08
681.622	4367.29
681.813	4197.31
682.003	4365.25
682.193	4344.77
682.383	4352.96
682.573	4305.85
682.764	4242.37
682.954	4369.34
683.144	4246.46
683.334	4342.72
683.524	4244.42
683.714	4213.7
683.904	4246.46
684.094	4180.93
684.284	4289.47
684.474	4275.13
684.664	4232.13
684.854	4234.18
685.044	4168.64
685.234	4006.85
685.424	4178.88
685.614	4152.26
685.804	4205.5
685.994	4133.82
686.184	4199.36
686.374	4099.01
686.564	3969.99
686.753	4031.43
686.943	3998.66
687.133	4078.53
687.323	4019.14
687.513	4025.28
687.702	3955.65
687.892	3937.22
688.082	3926.98
688.272	3978.18
688.461	3969.99
688.651	4033.47
688.841	4010.95
689.03	3949.51
689.22	3892.16
689.41	3988.42
689.599	3947.46
689.789	3881.92
689.979	3836.87
690.168	3785.67
690.358	3746.76
690.547	3861.45
690.737	3701.7
690.926	3703.75
691.116	3613.64
691.305	3687.37
691.495	3791.81
691.684	3619.78
691.874	3779.53
692.063	3701.7
692.252	3564.49
692.442	3613.64
692.631	3664.84
692.82	3501
693.01	3677.13
693.199	3650.5
693.388	3494.86
693.578	3724.23
693.767	3552.2
693.956	3539.91
694.146	3533.77
694.335	3541.96
694.524	3507.15
694.713	3511.24
694.902	3400.65
695.092	3468.24
695.281	3589.07
695.47	3474.38
695.659	3460.04
695.848	3568.59
696.037	3380.17
696.226	3406.8
696.415	3474.38
696.604	3433.42
696.793	3414.99
696.982	3417.04
697.171	3238.86
697.36	3429.32
697.549	3359.69
697.738	3322.83
697.927	3292.11
698.116	3247.05
698.305	3388.36
698.494	3263.44
698.683	3283.92
698.872	3238.86
699.061	3371.98
699.25	3316.69
699.438	3335.12
699.627	3335.12
699.816	3357.64
700.005	3226.57
700.193	3365.84
700.382	3298.25
700.571	3240.91
700.76	3273.68
700.948	3292.11
701.137	3271.63
701.326	3421.13
701.514	3126.22
701.703	3365.84
701.892	3226.57
702.08	3328.97
702.269	3187.66
702.457	3163.09
702.646	3247.05
702.834	3290.06
703.023	3281.87
703.212	3081.17
703.4	3275.73
703.589	3320.78
703.777	3253.2
703.965	3228.62
704.154	3271.63
704.342	3140.56
704.531	3136.46
704.719	3152.85
704.907	3126.22
705.096	3111.89
705.284	3158.99
705.472	3167.18
705.661	3070.93
705.849	3126.22
706.037	3238.86
706.226	3091.41
706.414	3281.87
706.602	3101.65
706.79	3156.94
706.979	3259.34
707.167	3120.08
707.355	3068.88
707.543	3054.55
707.731	3126.22
707.919	3173.33
708.107	3136.46
708.296	3167.18
708.484	3134.42
708.672	3093.46
708.86	3113.94
709.048	3036.11
709.236	3085.26
709.424	3148.75
709.612	3115.98
709.8	3089.36
709.988	2972.63
710.176	3009.49
710.364	3183.57
710.551	3158.99
710.739	3068.88
710.927	3089.36
711.115	3064.79
711.303	3161.04
711.491	3095.5
711.679	3089.36
711.866	2978.77
712.054	3087.31
712.242	3113.94
712.43	3251.15
712.617	3150.8
712.805	3158.99
712.993	3132.37
713.181	3068.88
713.368	3085.26
713.556	3091.41
713.744	3179.47
713.931	3204.05
714.119	3136.46
714.306	3034.07
714.494	2999.25
714.682	3148.75
714.869	3097.55
715.057	3105.74
715.244	3036.11
715.432	3113.94
715.619	3091.41
715.807	3083.22
715.994	3070.93
716.182	3161.04
716.369	3204.05
716.556	3128.27
716.744	3079.12
716.931	3148.75
717.119	3226.57
717.306	3154.9
717.493	3013.59
717.681	3095.5
717.868	3175.38
718.055	3103.7
718.242	2974.67
718.43	3173.33
718.617	2991.06
718.804	3128.27
718.991	3056.59
719.179	3242.96
719.366	3050.45
719.553	3146.7
719.74	3163.09
719.927	3154.9
720.114	3038.16
720.301	3126.22
720.488	2888.66
720.676	3054.55
720.863	3072.98
721.05	3034.07
721.237	3034.07
721.424	3089.36
721.611	3068.88
721.798	3003.35
721.985	3040.21
722.172	3034.07
722.358	2980.82
722.545	3120.08
722.732	3085.26
722.919	3083.22
723.106	3070.93
723.293	2956.24
723.48	3005.39
723.667	2978.77
723.853	2853.84
724.04	3040.21
724.227	2913.24
724.414	2939.86
724.6	3083.22
724.787	2927.57
724.974	3019.73
725.161	3101.65
725.347	3021.78
725.534	3032.02
725.72	3038.16
725.907	3068.88
726.094	2999.25
726.28	2995.15
726.467	2880.47
726.653	3007.44
726.84	3079.12
727.027	3029.97
727.213	3015.63
727.4	3003.35
727.586	3044.31
727.773	3072.98
727.959	3050.45
728.145	3023.83
728.332	2970.58
728.518	2829.27
728.705	3005.39
728.891	3054.55
729.077	2986.96
729.264	2962.39
729.45	2929.62
729.636	2966.48
729.823	2950.1
730.009	3062.74
730.195	2997.2
730.382	2929.62
730.568	2919.38
730.754	2927.57
730.94	2974.67
731.126	2989.01
731.313	3165.14
731.499	2954.19
731.685	3027.92
731.871	2982.87
732.057	2962.39
732.243	2997.2
732.429	2966.48
732.615	2960.34
732.801	2946
732.987	2921.43
733.173	2882.52
733.359	2872.28
733.545	2845.65
733.731	2849.75
733.917	2903
734.103	2808.79
734.289	2931.67
734.475	2989.01
734.661	2968.53
734.847	2917.33
735.033	2952.15
735.219	2919.38
735.404	2819.03
735.59	2925.52
735.776	2880.47
735.962	2911.19
736.148	2939.86
736.333	2841.56
736.519	2905.04
736.705	2868.18
736.89	2907.09
737.076	2808.79
737.262	2864.08
737.447	2769.88
737.633	3038.16
737.819	2786.26
738.004	2943.96
738.19	2849.75
738.375	2739.16
738.561	2845.65
738.747	2872.28
738.932	2778.07
739.118	2864.08
739.303	2825.17
739.489	2634.71
739.674	2743.25
739.859	2896.85
740.045	2753.49
740.23	2653.14
740.416	2628.57
740.601	2767.83
740.786	2657.24
740.972	2675.67
741.157	2712.53
741.342	2722.77
741.528	2642.9
741.713	2767.83
741.898	2616.28
742.084	2591.7
742.269	2735.06
742.454	2741.21
742.639	2661.34
742.824	2733.01
743.01	2544.6
743.195	2749.4
743.38	2542.55
743.565	2517.98
743.75	2556.89
743.935	2554.84
744.12	2544.6
744.305	2474.97
744.49	2622.42
744.675	2603.99
744.86	2567.13
745.045	2452.44
745.23	2440.15
745.415	2446.3
745.6	2509.79
745.785	2493.4
745.97	2374.62
746.155	2431.96
746.34	2345.95
746.525	2380.76
746.71	2421.72
746.895	2481.11
747.079	2343.9
747.264	2290.65
747.449	2315.23
747.634	2348
747.819	2370.52
748.003	2214.88
748.188	2280.41
748.373	2341.85
748.557	2155.49
748.742	2153.44
748.927	2190.3
749.111	2253.79
749.296	2214.88
749.481	2071.52
749.665	2167.77
749.85	2161.63
750.034	2192.35
750.219	2223.07
750.404	2067.42
750.588	2073.57
750.773	1997.79
750.957	2038.75
751.141	2135.01
751.326	2167.77
751.51	1981.41
751.695	1981.41
751.879	2083.81
752.064	2118.62
752.248	1993.7
752.432	1913.83
752.617	1997.79
752.801	1969.12
752.985	1889.25
753.17	1887.2
753.354	1856.48
753.538	1889.25
753.722	1813.48
753.907	1821.67
754.091	1727.46
754.275	1866.72
754.459	1776.61
754.643	1764.33
754.828	1811.43
755.012	1694.69
755.196	1590.25
755.38	1666.02
755.564	1706.98
755.748	1690.6
755.932	1672.17
756.116	1655.78
756.3	1692.65
756.484	1586.15
756.668	1602.54
756.852	1614.82
757.036	1620.97
757.22	1653.73
757.404	1522.66
757.588	1567.72
757.772	1555.43
757.956	1627.11
758.14	1575.91
758.323	1467.37
758.507	1590.25
758.691	1553.38
758.875	1422.31
759.059	1524.71
759.242	1496.04
759.426	1473.51
759.61	1489.9
759.794	1510.38
759.977	1545.19
760.161	1543.14
760.345	1473.51
760.528	1405.93
760.712	1526.76
760.895	1518.57
761.079	1383.4
761.263	1360.88
761.446	1387.5
761.63	1364.97
761.813	1420.27
761.997	1338.35
762.18	1344.49
762.364	1342.44
762.547	1379.31
762.731	1412.07
762.914	1289.2
763.098	1315.82
763.281	1350.64
763.464	1350.64
763.648	1313.77
763.831	1287.15
764.015	1319.92
764.198	1330.16
764.381	1358.83
764.564	1262.57
764.748	1383.4
764.931	1278.96
765.114	1293.29
765.297	1285.1
765.481	1295.34
765.664	1287.15
765.847	1289.2
766.03	1219.57
766.213	1135.6
766.397	1217.52
766.58	1240.05
766.763	1213.42
766.946	1217.52
767.129	1219.57
767.312	1201.13
767.495	1147.89
767.678	1217.52
767.861	1182.7
768.044	1131.5
768.227	1233.9
768.41	1084.4
768.593	1119.21
768.776	1092.59
768.959	1057.78
769.142	1192.94
769.324	1145.84
769.507	1168.37
769.69	1104.88
769.873	1170.41
770.056	1106.93
770.239	1137.65
770.421	1088.5
770.604	1092.59
770.787	1102.83
770.97	1100.78
771.152	1076.21
771.335	1065.97
771.518	1096.69
771.7	996.34
771.883	1053.68
772.066	967.67
772.248	1082.35
772.431	1016.82
772.613	986.1
772.796	1012.72
772.978	932.85
773.161	1041.39
773.343	1006.58
773.526	1039.34
773.708	1004.53
773.891	994.29
774.073	1006.58
774.256	992.24
774.438	1088.5
774.621	916.47
774.803	924.66
774.985	877.55
775.168	955.38
775.35	924.66
775.532	848.88
775.715	863.22
775.897	912.37
776.079	914.42
776.261	838.64
776.444	902.13
776.626	879.6
776.808	834.55
776.99	820.21
777.173	836.6
777.355	820.21
777.537	846.84
777.719	840.69
777.901	766.96
778.083	816.12
778.265	828.4
778.447	816.12
778.629	723.96
778.811	752.63
778.993	775.16
779.175	781.3
779.357	779.25
779.539	742.39
779.721	795.64
779.903	781.3
780.085	699.38
780.267	750.58
780.449	668.66
780.631	701.43
780.812	805.88
780.994	736.24
781.176	670.71
781.358	701.43
781.54	707.57
781.721	691.19
781.903	766.96
782.085	635.89
782.267	666.61
782.448	648.18
782.63	599.03
782.812	609.27
782.993	637.94
783.175	685.05
783.357	625.65
783.538	590.84
783.72	578.55
783.901	576.5
784.083	596.98
784.264	594.93
784.446	558.07
784.627	543.74
784.809	635.89
784.99	601.08
785.172	553.98
785.353	611.32
785.535	562.17
785.716	562.17
785.897	560.12
786.079	584.7
786.26	601.08
786.441	570.36
786.623	506.87
786.804	564.22
786.985	484.34
787.167	545.78
787.348	580.6
787.529	517.11
787.71	472.06
787.891	494.58
788.073	504.82
788.254	488.44
788.435	420.86
788.616	484.34
788.797	476.15
788.978	437.24
789.159	447.48
789.34	484.34
789.522	435.19
789.703	517.11
789.884	435.19
790.065	396.28
790.246	424.95
790.427	513.02
790.607	457.72
790.788	476.15
790.969	486.39
791.15	412.67
791.331	416.76
791.512	545.78
791.693	433.15
791.874	449.53
792.054	492.54
792.235	498.68
792.416	377.85
792.597	441.34
792.778	422.91
792.958	334.84
793.139	386.04
793.32	406.52
793.5	379.9
793.681	365.56
793.862	279.55
794.042	355.32
794.223	320.51
794.404	353.27
794.584	402.43
794.765	367.61
794.945	314.36
795.126	357.37
795.306	345.08
795.487	381.95
795.667	396.28
795.848	306.17
796.028	433.15
796.209	318.46
796.389	414.71
796.57	414.71
796.75	334.84
796.93	375.8
797.111	312.32
797.291	400.38
797.471	347.13
797.652	351.23
797.832	357.37
798.012	367.61
798.192	289.79
798.373	332.79
798.553	308.22
798.733	377.85
798.913	308.22
799.093	291.84
799.274	338.94
799.454	240.64
799.634	367.61
799.814	351.23
799.994	306.17
800.174	355.32
800.354	304.12
800.534	330.75
800.714	347.13
800.894	316.41
801.074	271.36
801.254	267.26
801.434	363.51
801.614	277.5
801.794	273.4
801.974	582.65
802.154	340.99
802.334	316.41
802.514	338.94
802.693	277.5
802.873	291.84
803.053	183.29
803.233	265.21
803.413	263.16
803.592	275.45
803.772	238.59
803.952	218.11
804.131	304.12
804.311	308.22
804.491	316.41
804.67	179.2
804.85	259.07
805.03	330.75
805.209	281.6
805.389	214.01
805.568	289.79
805.748	248.83
805.928	252.92
806.107	197.63
806.287	259.07
806.466	263.16
806.646	312.32
806.825	314.36
807.004	232.44
807.184	205.82
807.363	250.88
807.543	175.1
807.722	267.26
807.901	238.59
808.081	285.69
808.26	199.68
808.439	259.07
808.619	197.63
808.798	152.57
808.977	226.3
809.156	214.01
809.336	187.39
809.515	236.54
809.694	193.53
809.873	197.63
810.052	156.67
810.231	277.5
810.411	267.26
810.59	228.35
810.769	209.92
810.948	271.36
811.127	185.34
811.306	269.31
811.485	240.64
811.664	343.03
811.843	232.44
812.022	136.19
812.201	242.68
812.38	224.25
812.559	242.68
812.737	240.64
812.916	168.96
813.095	209.92
813.274	222.2
813.453	232.44
813.632	189.44
813.811	214.01
813.989	128
814.168	189.44
814.347	132.09
814.526	154.62
814.704	283.64
814.883	205.82
815.062	177.15
815.24	175.1
815.419	140.29
815.598	144.38
815.776	209.92
815.955	195.58
816.133	132.09
816.312	123.9
816.49	189.44
816.669	203.77
816.847	187.39
817.026	173.05
817.204	177.15
817.383	119.81
817.561	199.68
817.74	177.15
817.918	146.43
818.097	177.15
818.275	146.43
818.453	168.96
818.632	136.19
818.81	125.95
818.988	162.81
819.167	31.74
819.345	171.01
819.523	177.15
819.701	97.28
819.879	109.57
820.058	222.2
820.236	164.86
820.414	125.95
820.592	140.29
820.77	121.85
820.948	171.01
821.127	117.76
821.305	123.9
821.483	152.57
821.661	166.91
821.839	70.65
822.017	138.24
822.195	105.47
822.373	211.96
822.551	134.14
822.729	142.33
822.907	148.48
823.085	84.99
823.262	146.43
823.44	84.99
823.618	66.56
823.796	66.56
823.974	58.37
824.152	82.94
824.329	130.05
824.507	150.53
824.685	58.37
824.863	156.67
825.04	154.62
825.218	125.95
825.396	93.18
825.574	156.67
825.751	156.67
825.929	132.09
826.107	72.7
826.284	132.09
826.462	152.57
826.639	107.52
826.817	101.37
826.994	132.09
827.172	146.43
827.349	119.81
827.527	128
827.704	117.76
827.882	97.28
828.059	125.95
828.237	23.55
828.414	128
828.591	87.04
828.769	132.09
828.946	25.6
829.124	95.23
829.301	152.57
829.478	74.75
829.655	138.24
829.833	78.85
830.01	78.85
830.187	111.61
830.364	138.24
830.542	80.89
830.719	97.28
830.896	54.27
831.073	89.09
831.25	52.22
831.427	158.72
831.604	72.7
831.782	115.71
831.959	87.04
832.136	121.85
832.313	95.23
832.49	84.99
832.667	115.71
832.844	99.33
833.021	107.52
833.198	101.37
833.374	111.61
833.551	107.52
833.728	121.85
833.905	97.28
834.082	52.22
834.259	158.72
834.436	140.29
834.612	62.46
834.789	99.33
834.966	121.85
835.143	93.18
835.319	72.7
835.496	111.61
835.673	130.05
835.85	33.79
836.026	132.09
836.203	41.98
836.38	62.46
836.556	74.75
836.733	60.42
836.909	56.32
837.086	41.98
837.262	9.22
837.439	93.18
837.616	31.74
837.792	74.75
837.968	37.89
838.145	33.79
838.321	87.04
838.498	9.22
838.674	64.51
838.851	72.7
839.027	84.99
839.203	-3.07
839.38	132.09
839.556	58.37
839.732	87.04
839.909	99.33
840.085	97.28
840.261	41.98
840.437	87.04
840.614	54.27
840.79	103.42
840.966	82.94
841.142	35.84
841.318	5.12
841.494	125.95
841.671	70.65
841.847	54.27
842.023	66.56
842.199	101.37
842.375	54.27
842.551	1.02
842.727	58.37
842.903	13.31
843.079	105.47
843.255	76.8
843.431	58.37
843.607	117.76
843.783	-13.31
843.959	62.46
844.134	113.66
844.31	68.61
844.486	21.5
844.662	87.04
844.838	56.32
845.013	95.23
845.189	17.41
845.365	50.18
845.541	72.7
845.716	72.7
845.892	35.84
846.068	37.89
846.244	23.55
846.419	103.42
846.595	13.31
846.77	23.55
846.946	33.79
847.122	-19.46
847.297	62.46
847.473	-3.07
847.648	37.89
847.824	64.51
847.999	41.98
848.175	31.74
848.35	31.74
848.526	68.61
848.701	54.27
848.876	66.56
849.052	23.55
849.227	62.46
849.403	89.09
849.578	111.61
849.753	-17.41
849.929	15.36
850.104	70.65
850.279	84.99
850.454	-1.02
850.63	5.12
850.805	62.46
850.98	60.42
851.155	7.17
851.33	21.5
851.505	66.56
851.681	87.04
851.856	44.03
852.031	76.8
852.206	-35.84
852.381	13.31
852.556	60.42
852.731	5.12
852.906	-25.6
853.081	29.7
853.256	95.23
853.431	44.03
853.606	35.84
853.781	5.12
853.956	5.12
854.131	37.89
854.305	41.98
854.48	128
854.655	62.46
854.83	-29.7
855.005	-5.12
855.18	39.94
855.354	-9.22
855.529	33.79
855.704	39.94
855.879	103.42
856.053	-9.22
856.228	80.89
856.403	-23.55
856.577	64.51
856.752	3.07
856.926	76.8
857.101	29.7
857.276	46.08
857.45	33.79
857.625	21.5
857.799	-11.26
857.974	-13.31
858.148	-60.42
858.323	15.36
858.497	-31.74
858.672	33.79
858.846	5.12
859.02	37.89
859.195	-11.26
859.369	3.07
859.543	70.65
859.718	3.07
859.892	25.6
860.066	-13.31
860.241	74.75
860.415	-27.65
860.589	7.17
860.763	62.46
860.938	-44.03
861.112	64.51
861.286	-37.89
861.46	66.56
861.634	70.65
861.808	37.89
861.982	29.7
862.157	46.08
862.331	37.89
862.505	27.65
862.679	25.6
862.853	15.36
863.027	23.55
863.201	82.94
863.375	37.89
863.549	5.12
863.722	29.7
863.896	56.32
864.07	62.46
864.244	64.51
864.418	5.12
864.592	1.02
864.766	5.12
864.939	-13.31
865.113	-39.94
865.287	21.5
865.461	123.9
865.634	-19.46
865.808	3.07
865.982	-5.12
866.156	-7.17
866.329	1.02
866.503	15.36
866.676	46.08
866.85	-44.03
867.024	-5.12
867.197	48.13
867.371	48.13
867.544	-44.03
867.718	-11.26
867.891	-13.31
868.065	-33.79
868.238	-1.02
868.412	84.99
868.585	-5.12
868.759	-17.41
868.932	-23.55
869.105	48.13
869.279	21.5
869.452	-3.07
869.625	78.85
869.799	27.65
869.972	-17.41
870.145	-33.79
870.319	27.65
870.492	39.94
870.665	-27.65
870.838	-3.07
871.011	-35.84
871.185	-35.84
871.358	-3.07
871.531	-15.36
871.704	37.89
871.877	33.79
872.05	-54.27
872.223	50.18
872.396	25.6
872.569	-44.03
872.742	-50.18
872.915	-17.41
873.088	13.31
873.261	-15.36
873.434	31.74
873.607	-41.98
873.78	-50.18
873.953	-9.22
874.126	105.47
874.299	35.84
874.471	1.02
874.644	64.51
874.817	33.79
874.99	107.52
875.163	13.31
875.335	-13.31
875.508	-84.99
875.681	70.65
875.853	21.5
876.026	56.32
876.199	9.22
876.371	78.85
876.544	46.08
876.717	31.74
876.889	25.6
877.062	27.65
877.234	9.22
877.407	7.17
877.579	-15.36
877.752	58.37
877.924	29.7
878.097	-23.55
878.269	-11.26
878.442	62.46
878.614	37.89
878.786	-31.74
878.959	39.94
879.131	-70.65
879.303	1.02
879.476	1.02
879.648	99.33
879.82	25.6
879.993	25.6
880.165	41.98
880.337	41.98
880.509	-60.42
880.681	15.36
880.854	-31.74
881.026	3.07
881.198	37.89
881.37	35.84
881.542	-27.65
881.714	-66.56
881.886	13.31
882.058	11.26
882.23	41.98
882.402	21.5
882.574	27.65
882.746	33.79
882.918	19.46
883.09	-39.94
883.262	-35.84
883.434	-17.41
883.606	-41.98
883.778	19.46
883.95	74.75
884.122	-13.31
884.293	35.84
884.465	21.5
884.637	60.42
884.809	-41.98
884.98	-31.74
885.152	-15.36
885.324	60.42
885.496	-17.41
885.667	-27.65
885.839	-27.65
886.011	7.17
886.182	-5.12
886.354	35.84
886.525	46.08
886.697	48.13
886.869	-39.94
887.04	29.7
887.212	-3.07
887.383	58.37
887.555	41.98
887.726	-50.18
887.897	60.42
888.069	33.79
888.24	3.07
888.412	-3.07
888.583	25.6
888.754	35.84
888.926	-48.13
889.097	-1.02
889.268	48.13
889.44	-13.31
889.611	-60.42
889.782	3.07
889.953	31.74
890.125	1.02
890.296	-19.46
890.467	-76.8
890.638	-23.55
890.809	58.37
890.98	-31.74
891.151	44.03
891.323	74.75
891.494	11.26
891.665	68.61
891.836	15.36
892.007	29.7
892.178	-41.98
892.349	64.51
892.52	-19.46
892.691	19.46
892.862	-52.22
893.032	-35.84
893.203	3.07
893.374	-66.56
893.545	27.65
893.716	-23.55
893.887	-9.22
894.057	27.65
894.228	19.46
894.399	13.31
894.57	33.79
894.74	58.37
894.911	54.27
895.082	-21.5
895.253	-58.37
895.423	-44.03
895.594	52.22
895.764	-23.55
895.935	-3.07
896.106	-1.02
896.276	-13.31
896.447	35.84
896.617	25.6
896.788	35.84
896.958	13.31
897.129	-9.22
897.299	50.18
897.47	-3.07
897.64	84.99
897.81	-29.7
897.981	-7.17
898.151	-62.46
898.322	15.36
898.492	33.79
898.662	-23.55
898.832	-5.12
899.003	50.18
899.173	46.08
899.343	-52.22
899.513	25.6
