Data from USB4F104151__85__11-52-54-279.txt Node

Date: Fri Mar 14 11:52:54 EDT 2025
User: louis
Spectrometer: USB4F10415
Trigger mode: 4
Integration Time (sec): 2.000000E-2
Scans to average: 1
Electric dark correction enabled: true
Nonlinearity correction enabled: false
Boxcar width: 0
XAxis mode: Wavelengths
Number of Pixels in Spectrum: 3648
>>>>>Begin Spectral Data<<<<<
178.204	-69.8
178.424	-69.8
178.644	-69.8
178.864	-116.9
179.084	-133.29
179.304	-0.17
179.524	24.4
179.744	-24.75
179.964	-14.51
180.184	-75.95
180.404	46.93
180.624	53.08
180.844	24.4
181.064	-43.18
181.283	-4.27
181.503	-43.18
181.723	57.17
181.943	-34.99
182.163	69.46
182.383	-18.6
182.602	34.64
182.822	10.07
183.042	42.84
183.262	38.74
183.482	-4.27
183.701	22.36
183.921	24.4
184.141	55.12
184.361	53.08
184.58	-22.7
184.8	-18.6
185.02	75.6
185.239	38.74
185.459	5.97
185.679	51.03
185.898	-14.51
186.118	48.98
186.338	12.12
186.557	5.97
186.777	42.84
186.997	36.69
187.216	-55.47
187.436	73.56
187.655	57.17
187.875	38.74
188.095	28.5
188.314	55.12
188.534	10.07
188.753	-59.56
188.973	69.46
189.192	75.6
189.412	28.5
189.631	69.46
189.851	-8.36
190.07	59.22
190.29	-28.84
190.509	12.12
190.729	30.55
190.948	69.46
191.168	83.8
191.387	85.84
191.607	-26.79
191.826	94.04
192.045	-6.31
192.265	51.03
192.484	3.93
192.704	36.69
192.923	63.32
193.142	-12.46
193.362	-2.22
193.581	-8.36
193.8	10.07
194.02	63.32
194.239	22.36
194.458	-12.46
194.678	20.31
194.897	73.56
195.116	73.56
195.335	48.98
195.555	83.8
195.774	42.84
195.993	30.55
196.212	-16.55
196.432	46.93
196.651	42.84
196.87	26.45
197.089	89.94
197.308	-6.31
197.528	57.17
197.747	59.22
197.966	83.8
198.185	26.45
198.404	22.36
198.623	18.26
198.842	59.22
199.062	83.8
199.281	75.6
199.5	91.99
199.719	-41.13
199.938	-2.22
200.157	65.36
200.376	36.69
200.595	40.79
200.814	57.17
201.033	-4.27
201.252	51.03
201.471	40.79
201.69	69.46
201.909	48.98
202.128	-8.36
202.347	186.19
202.566	32.6
202.785	-2.22
203.004	63.32
203.223	91.99
203.442	46.93
203.661	51.03
203.879	28.5
204.098	48.98
204.317	-26.79
204.536	-8.36
204.755	51.03
204.974	83.8
205.193	55.12
205.411	104.28
205.63	-34.99
205.849	106.32
206.068	22.36
206.287	16.21
206.505	126.8
206.724	36.69
206.943	59.22
207.162	69.46
207.381	-67.75
207.599	65.36
207.818	30.55
208.037	-0.17
208.255	87.89
208.474	67.41
208.693	5.97
208.911	-6.31
209.13	-18.6
209.349	51.03
209.567	-16.55
209.786	-2.22
210.005	73.56
210.223	18.26
210.442	8.02
210.661	65.36
210.879	34.64
211.098	22.36
211.316	-34.99
211.535	51.03
211.753	10.07
211.972	108.37
212.191	65.36
212.409	69.46
212.628	139.09
212.846	22.36
213.065	106.32
213.283	85.84
213.502	-16.55
213.72	73.56
213.938	-2.22
214.157	10.07
214.375	22.36
214.594	28.5
214.812	91.99
215.031	8.02
215.249	12.12
215.467	5.97
215.686	-2.22
215.904	71.51
216.122	65.36
216.341	28.5
216.559	36.69
216.778	16.21
216.996	34.64
217.214	77.65
217.432	87.89
217.651	8.02
217.869	32.6
218.087	102.23
218.306	65.36
218.524	36.69
218.742	22.36
218.96	57.17
219.179	30.55
219.397	30.55
219.615	46.93
219.833	91.99
220.051	-92.33
220.27	63.32
220.488	91.99
220.706	51.03
220.924	32.6
221.142	-59.56
221.36	59.22
221.578	85.84
221.796	28.5
222.015	38.74
222.233	38.74
222.451	42.84
222.669	85.84
222.887	18.26
223.105	-16.55
223.323	102.23
223.541	-12.46
223.759	-32.94
223.977	10.07
224.195	83.8
224.413	24.4
224.631	-32.94
224.849	8.02
225.067	83.8
225.285	-0.17
225.503	8.02
225.721	14.17
225.939	-28.84
226.157	40.79
226.375	98.13
226.592	12.12
226.81	51.03
227.028	42.84
227.246	-24.75
227.464	42.84
227.682	85.84
227.9	81.75
228.117	26.45
228.335	51.03
228.553	57.17
228.771	-24.75
228.989	77.65
229.206	30.55
229.424	18.26
229.642	65.36
229.86	-16.55
230.077	-2.22
230.295	73.56
230.513	108.37
230.731	44.88
230.948	16.21
231.166	91.99
231.384	87.89
231.601	42.84
231.819	40.79
232.037	26.45
232.254	38.74
232.472	87.89
232.689	83.8
232.907	48.98
233.125	40.79
233.342	30.55
233.56	-4.27
233.777	40.79
233.995	51.03
234.213	10.07
234.43	51.03
234.648	22.36
234.865	73.56
235.083	51.03
235.3	59.22
235.518	65.36
235.735	55.12
235.953	40.79
236.17	69.46
236.388	44.88
236.605	26.45
236.822	61.27
237.04	-51.37
237.257	12.12
237.475	10.07
237.692	-0.17
237.909	59.22
238.127	42.84
238.344	18.26
238.562	57.17
238.779	-22.7
238.996	-0.17
239.214	40.79
239.431	110.42
239.648	51.03
239.865	32.6
240.083	16.21
240.3	57.17
240.517	44.88
240.735	38.74
240.952	98.13
241.169	20.31
241.386	22.36
241.603	71.51
241.821	-22.7
242.038	-4.27
242.255	44.88
242.472	53.08
242.689	-8.36
242.907	32.6
243.124	22.36
243.341	-24.75
243.558	3.93
243.775	63.32
243.992	-34.99
244.209	81.75
244.426	83.8
244.643	46.93
244.86	12.12
245.078	16.21
245.295	61.27
245.512	55.12
245.729	-26.79
245.946	44.88
246.163	73.56
246.38	75.6
246.597	8.02
246.814	77.65
247.031	-18.6
247.248	-16.55
247.464	5.97
247.681	116.56
247.898	24.4
248.115	-8.36
248.332	-0.17
248.549	46.93
248.766	69.46
248.983	44.88
249.2	44.88
249.417	16.21
249.633	61.27
249.85	118.61
250.067	46.93
250.284	12.12
250.501	85.84
250.717	57.17
250.934	-22.7
251.151	36.69
251.368	-22.7
251.585	71.51
251.801	-6.31
252.018	40.79
252.235	81.75
252.451	14.17
252.668	-18.6
252.885	24.4
253.102	75.6
253.318	28.5
253.535	20.31
253.752	59.22
253.968	30.55
254.185	42.84
254.401	18.26
254.618	38.74
254.835	-30.89
255.051	94.04
255.268	73.56
255.484	8.02
255.701	32.6
255.917	69.46
256.134	53.08
256.351	96.08
256.567	30.55
256.784	137.04
257	10.07
257.217	-47.27
257.433	-0.17
257.65	81.75
257.866	42.84
258.082	128.85
258.299	61.27
258.515	73.56
258.732	14.17
258.948	46.93
259.165	69.46
259.381	26.45
259.597	46.93
259.814	59.22
260.03	1.88
260.246	100.18
260.463	77.65
260.679	14.17
260.895	98.13
261.112	10.07
261.328	18.26
261.544	-45.23
261.761	22.36
261.977	69.46
262.193	-4.27
262.409	57.17
262.626	67.41
262.842	40.79
263.058	38.74
263.274	10.07
263.49	32.6
263.707	53.08
263.923	16.21
264.139	67.41
264.355	-28.84
264.571	85.84
264.787	57.17
265.004	53.08
265.22	85.84
265.436	18.26
265.652	104.28
265.868	44.88
266.084	-4.27
266.3	34.64
266.516	42.84
266.732	44.88
266.948	126.8
267.164	-32.94
267.38	16.21
267.596	59.22
267.812	77.65
268.028	108.37
268.244	-22.7
268.46	38.74
268.676	12.12
268.892	77.65
269.108	28.5
269.324	-0.17
269.54	53.08
269.756	30.55
269.972	20.31
270.188	26.45
270.403	8.02
270.619	12.12
270.835	36.69
271.051	55.12
271.267	-65.71
271.483	16.21
271.698	28.5
271.914	42.84
272.13	-45.23
272.346	-2.22
272.562	34.64
272.777	59.22
272.993	-6.31
273.209	42.84
273.425	69.46
273.64	1.88
273.856	67.41
274.072	34.64
274.287	-30.89
274.503	89.94
274.719	81.75
274.934	44.88
275.15	8.02
275.366	61.27
275.581	-14.51
275.797	51.03
276.012	22.36
276.228	30.55
276.444	24.4
276.659	22.36
276.875	-55.47
277.09	32.6
277.306	-22.7
277.521	48.98
277.737	-4.27
277.952	122.71
278.168	44.88
278.383	61.27
278.599	38.74
278.814	48.98
279.03	61.27
279.245	122.71
279.461	36.69
279.676	81.75
279.892	48.98
280.107	-4.27
280.322	51.03
280.538	26.45
280.753	128.85
280.969	32.6
281.184	40.79
281.399	108.37
281.615	69.46
281.83	69.46
282.045	14.17
282.26	-20.65
282.476	5.97
282.691	48.98
282.906	-14.51
283.122	143.19
283.337	5.97
283.552	28.5
283.767	-6.31
283.983	14.17
284.198	22.36
284.413	24.4
284.628	16.21
284.843	63.32
285.058	55.12
285.274	22.36
285.489	22.36
285.704	24.4
285.919	38.74
286.134	110.42
286.349	14.17
286.564	1.88
286.779	44.88
286.995	14.17
287.21	16.21
287.425	32.6
287.64	87.89
287.855	55.12
288.07	-34.99
288.285	46.93
288.5	63.32
288.715	85.84
288.93	-0.17
289.145	5.97
289.36	63.32
289.575	-12.46
289.79	167.76
290.004	57.17
290.219	85.84
290.434	59.22
290.649	38.74
290.864	55.12
291.079	26.45
291.294	75.6
291.509	71.51
291.724	8.02
291.938	104.28
292.153	73.56
292.368	44.88
292.583	18.26
292.798	14.17
293.012	18.26
293.227	55.12
293.442	57.17
293.657	8.02
293.871	94.04
294.086	102.23
294.301	83.8
294.516	24.4
294.73	116.56
294.945	-37.03
295.16	30.55
295.374	46.93
295.589	20.31
295.804	-22.7
296.018	85.84
296.233	-32.94
296.447	34.64
296.662	71.51
296.877	51.03
297.091	8.02
297.306	48.98
297.52	55.12
297.735	30.55
297.949	75.6
298.164	38.74
298.378	46.93
298.593	-2.22
298.807	-22.7
299.022	51.03
299.236	20.31
299.451	71.51
299.665	48.98
299.88	61.27
300.094	-59.56
300.309	51.03
300.523	112.47
300.737	69.46
300.952	83.8
301.166	36.69
301.381	18.26
301.595	22.36
301.809	10.07
302.024	-16.55
302.238	55.12
302.452	135
302.667	-14.51
302.881	81.75
303.095	48.98
303.309	34.64
303.524	22.36
303.738	40.79
303.952	-22.7
304.166	22.36
304.381	-26.79
304.595	73.56
304.809	-16.55
305.023	30.55
305.237	16.21
305.452	63.32
305.666	12.12
305.88	14.17
306.094	42.84
306.308	120.66
306.522	22.36
306.736	24.4
306.95	44.88
307.164	73.56
307.379	53.08
307.593	63.32
307.807	40.79
308.021	71.51
308.235	79.7
308.449	14.17
308.663	10.07
308.877	65.36
309.091	75.6
309.305	71.51
309.519	-26.79
309.733	14.17
309.947	-43.18
310.161	12.12
310.374	104.28
310.588	104.28
310.802	38.74
311.016	57.17
311.23	40.79
311.444	-26.79
311.658	-57.51
311.872	51.03
312.085	124.76
312.299	38.74
312.513	79.7
312.727	85.84
312.941	89.94
313.154	57.17
313.368	10.07
313.582	53.08
313.796	71.51
314.009	59.22
314.223	22.36
314.437	61.27
314.651	14.17
314.864	53.08
315.078	32.6
315.292	67.41
315.505	-4.27
315.719	51.03
315.933	83.8
316.146	34.64
316.36	14.17
316.573	63.32
316.787	10.07
317.001	16.21
317.214	-26.79
317.428	48.98
317.641	104.28
317.855	34.64
318.068	22.36
318.282	24.4
318.495	89.94
318.709	42.84
318.922	10.07
319.136	114.52
319.349	110.42
319.563	18.26
319.776	3.93
319.99	-26.79
320.203	8.02
320.417	10.07
320.63	65.36
320.843	141.14
321.057	24.4
321.27	-4.27
321.483	-30.89
321.697	89.94
321.91	79.7
322.124	91.99
322.337	61.27
322.55	14.17
322.763	26.45
322.977	114.52
323.19	-22.7
323.403	40.79
323.617	87.89
323.83	73.56
324.043	8.02
324.256	73.56
324.469	-10.41
324.683	42.84
324.896	36.69
325.109	67.41
325.322	34.64
325.535	18.26
325.748	20.31
325.962	100.18
326.175	110.42
326.388	104.28
326.601	57.17
326.814	53.08
327.027	96.08
327.24	44.88
327.453	-41.13
327.666	10.07
327.879	71.51
328.092	83.8
328.305	57.17
328.518	3.93
328.731	67.41
328.944	36.69
329.157	61.27
329.37	14.17
329.583	71.51
329.796	137.04
330.009	12.12
330.222	-20.65
330.435	102.23
330.648	83.8
330.861	32.6
331.073	94.04
331.286	32.6
331.499	83.8
331.712	-39.08
331.925	30.55
332.138	149.33
332.35	28.5
332.563	-14.51
332.776	61.27
332.989	73.56
333.202	16.21
333.414	16.21
333.627	51.03
333.84	73.56
334.053	108.37
334.265	-22.7
334.478	-0.17
334.691	48.98
334.903	83.8
335.116	28.5
335.329	55.12
335.541	-22.7
335.754	128.85
335.966	-6.31
336.179	42.84
336.392	65.36
336.604	34.64
336.817	53.08
337.029	32.6
337.242	18.26
337.454	44.88
337.667	85.84
337.88	118.61
338.092	81.75
338.305	8.02
338.517	-45.23
338.729	104.28
338.942	5.97
339.154	10.07
339.367	26.45
339.579	-10.41
339.792	96.08
340.004	83.8
340.217	34.64
340.429	3.93
340.641	3.93
340.854	-47.27
341.066	75.6
341.278	36.69
341.491	48.98
341.703	57.17
341.915	18.26
342.128	59.22
342.34	32.6
342.552	8.02
342.764	63.32
342.977	91.99
343.189	75.6
343.401	44.88
343.613	-0.17
343.826	34.64
344.038	42.84
344.25	75.6
344.462	34.64
344.674	22.36
344.886	59.22
345.099	44.88
345.311	124.76
345.523	1.88
345.735	30.55
345.947	20.31
346.159	20.31
346.371	-51.37
346.583	8.02
346.795	36.69
347.007	63.32
347.219	38.74
347.431	87.89
347.643	73.56
347.855	-16.55
348.067	-26.79
348.279	48.98
348.491	73.56
348.703	73.56
348.915	55.12
349.127	32.6
349.339	-2.22
349.551	1.88
349.763	44.88
349.975	-51.37
350.187	83.8
350.399	110.42
350.61	67.41
350.822	26.45
351.034	114.52
351.246	8.02
351.458	46.93
351.669	32.6
351.881	128.85
352.093	98.13
352.305	34.64
352.517	34.64
352.728	96.08
352.94	-47.27
353.152	57.17
353.363	69.46
353.575	118.61
353.787	87.89
353.999	55.12
354.21	32.6
354.422	8.02
354.633	22.36
354.845	85.84
355.057	65.36
355.268	44.88
355.48	51.03
355.692	69.46
355.903	116.56
356.115	44.88
356.326	-2.22
356.538	32.6
356.749	79.7
356.961	8.02
357.172	100.18
357.384	79.7
357.595	79.7
357.807	102.23
358.018	53.08
358.23	14.17
358.441	57.17
358.653	110.42
358.864	55.12
359.075	-12.46
359.287	-14.51
359.498	42.84
359.709	5.97
359.921	-18.6
360.132	85.84
360.344	8.02
360.555	22.36
360.766	100.18
360.977	20.31
361.189	73.56
361.4	81.75
361.611	87.89
361.823	-10.41
362.034	102.23
362.245	57.17
362.456	28.5
362.667	59.22
362.879	75.6
363.09	32.6
363.301	-0.17
363.512	79.7
363.723	10.07
363.935	89.94
364.146	10.07
364.357	116.56
364.568	28.5
364.779	24.4
364.99	-8.36
365.201	85.84
365.412	71.51
365.623	57.17
365.834	55.12
366.045	5.97
366.256	34.64
366.467	128.85
366.678	-80.04
366.889	16.21
367.1	98.13
367.311	114.52
367.522	46.93
367.733	55.12
367.944	55.12
368.155	53.08
368.366	16.21
368.577	63.32
368.788	12.12
368.999	12.12
369.209	87.89
369.42	71.51
369.631	77.65
369.842	91.99
370.053	18.26
370.264	81.75
370.474	-6.31
370.685	108.37
370.896	14.17
371.107	89.94
371.317	61.27
371.528	61.27
371.739	63.32
371.95	77.65
372.16	108.37
372.371	26.45
372.582	3.93
372.792	14.17
373.003	22.36
373.214	59.22
373.424	46.93
373.635	-28.84
373.846	3.93
374.056	114.52
374.267	5.97
374.477	81.75
374.688	100.18
374.898	40.79
375.109	24.4
375.319	30.55
375.53	122.71
375.74	98.13
375.951	59.22
376.161	-14.51
376.372	98.13
376.582	12.12
376.793	38.74
377.003	28.5
377.214	-18.6
377.424	-2.22
377.635	55.12
377.845	28.5
378.055	53.08
378.266	-51.37
378.476	71.51
378.686	98.13
378.897	46.93
379.107	124.76
379.317	77.65
379.528	116.56
379.738	12.12
379.948	46.93
380.158	96.08
380.369	59.22
380.579	36.69
380.789	73.56
380.999	22.36
381.21	87.89
381.42	96.08
381.63	81.75
381.84	18.26
382.05	42.84
382.261	20.31
382.471	53.08
382.681	71.51
382.891	71.51
383.101	36.69
383.311	98.13
383.521	12.12
383.731	67.41
383.941	79.7
384.151	-20.65
384.361	24.4
384.571	28.5
384.781	108.37
384.991	102.23
385.201	124.76
385.411	126.8
385.621	91.99
385.831	59.22
386.041	22.36
386.251	-12.46
386.461	120.66
386.671	73.56
386.881	96.08
387.091	96.08
387.301	120.66
387.511	22.36
387.72	112.47
387.93	22.36
388.14	-8.36
388.35	-12.46
388.56	73.56
388.769	102.23
388.979	51.03
389.189	81.75
389.399	57.17
389.609	100.18
389.818	120.66
390.028	116.56
390.238	100.18
390.447	61.27
390.657	122.71
390.867	94.04
391.076	-4.27
391.286	69.46
391.496	116.56
391.705	30.55
391.915	77.65
392.125	69.46
392.334	59.22
392.544	108.37
392.753	26.45
392.963	94.04
393.172	100.18
393.382	51.03
393.591	110.42
393.801	143.19
394.01	44.88
394.22	100.18
394.429	118.61
394.639	69.46
394.848	178
395.058	42.84
395.267	188.24
395.477	71.51
395.686	163.67
395.895	77.65
396.105	128.85
396.314	67.41
396.524	46.93
396.733	51.03
396.942	77.65
397.152	118.61
397.361	100.18
397.57	87.89
397.78	116.56
397.989	184.15
398.198	180.05
398.407	186.19
398.617	110.42
398.826	120.66
399.035	161.62
399.244	120.66
399.453	98.13
399.663	77.65
399.872	122.71
400.081	79.7
400.29	157.52
400.499	85.84
400.708	153.43
400.917	141.14
401.127	46.93
401.336	91.99
401.545	145.24
401.754	104.28
401.963	124.76
402.172	24.4
402.381	87.89
402.59	61.27
402.799	89.94
403.008	51.03
403.217	135
403.426	96.08
403.635	182.1
403.844	114.52
404.053	153.43
404.262	141.14
404.471	135
404.68	169.81
404.888	114.52
405.097	151.38
405.306	153.43
405.515	135
405.724	132.95
405.933	180.05
406.142	126.8
406.35	153.43
406.559	165.71
406.768	161.62
406.977	239.44
407.185	128.85
407.394	171.86
407.603	100.18
407.812	190.29
408.02	284.5
408.229	126.8
408.438	216.91
408.646	147.28
408.855	239.44
409.064	259.92
409.272	124.76
409.481	304.98
409.69	229.2
409.898	245.59
410.107	243.54
410.315	350.03
410.524	288.59
410.733	323.41
410.941	315.22
411.15	307.02
411.358	321.36
411.567	374.61
411.775	266.07
411.984	374.61
412.192	438.09
412.401	448.33
412.609	419.66
412.818	407.38
413.026	438.09
413.234	431.95
413.443	556.88
413.651	434
413.86	528.21
414.068	530.25
414.276	499.53
414.485	558.92
414.693	583.5
414.901	655.18
415.11	550.73
415.318	583.5
415.526	661.32
415.734	702.28
415.943	661.32
416.151	712.52
416.359	724.81
416.567	751.43
416.776	755.53
416.984	880.46
417.192	812.87
417.4	823.11
417.608	829.26
417.817	902.98
418.025	898.89
418.233	993.09
418.441	976.71
418.649	1023.81
418.857	1083.2
419.065	1136.45
419.273	1075.01
419.481	1167.17
419.689	1218.37
419.897	1263.43
420.105	1290.05
420.313	1322.82
420.521	1398.59
420.729	1419.07
420.937	1427.26
421.145	1414.98
421.353	1564.48
421.561	1599.29
421.769	1728.31
421.977	1756.99
422.185	1777.47
422.393	1869.62
422.601	1978.17
422.809	1933.11
423.017	1896.25
423.224	2180.92
423.432	2039.61
423.64	2047.8
423.848	2354.99
424.056	2219.83
424.263	2332.47
424.471	2426.67
424.679	2484.02
424.887	2592.56
425.094	2649.9
425.302	2635.57
425.51	2813.74
425.718	2909.99
425.925	2930.47
426.133	3028.78
426.341	3120.93
426.548	3354.4
426.756	3260.2
426.964	3303.2
427.171	3421.99
427.379	3639.07
427.586	3641.12
427.794	3741.47
428.001	3886.87
428.209	4054.81
428.417	4116.25
428.624	4441.87
428.832	4521.74
429.039	4470.55
429.247	4460.31
429.454	4847.37
429.662	4927.24
429.869	4759.31
430.076	5056.26
430.284	4912.91
430.491	5129.99
430.699	5414.66
430.906	5353.22
431.114	5637.89
431.321	5709.57
431.528	5924.6
431.736	6176.5
431.943	6448.88
432.15	6444.79
432.358	6373.11
432.565	6792.94
432.772	6653.68
432.979	7161.58
433.187	7388.9
433.394	7259.88
433.601	7661.28
433.808	7706.34
434.016	7644.9
434.223	8109.79
434.43	8658.64
434.637	8369.88
434.844	8994.51
435.052	8984.27
435.259	8943.31
435.466	9058
435.673	9049.8
435.88	9649.86
436.087	9987.77
436.294	10079.93
436.501	9987.77
436.708	10051.26
436.915	10397.37
437.122	10874.54
437.329	10618.55
437.537	11339.43
437.743	11361.96
437.95	11271.85
438.157	11959.97
438.364	12097.18
438.571	12019.36
438.778	12297.88
438.985	13629.06
439.192	12885.65
439.399	13395.59
439.606	12918.42
439.813	13788.8
440.02	14558.84
440.227	14581.37
440.433	14288.51
440.64	14853.75
440.847	14689.91
441.054	15181.42
441.261	15978.08
441.467	15656.55
441.674	16291.42
441.881	16768.6
442.088	16750.17
442.294	16649.82
442.501	16877.14
442.708	17239.63
442.914	17733.19
443.121	18665.02
443.328	18300.48
443.534	19838.5
443.741	19105.33
443.948	18763.32
444.154	20190.75
444.361	19871.27
444.568	20102.69
444.774	19983.91
444.981	20387.36
445.187	20891.16
445.394	21964.29
445.6	21368.34
445.807	23780.84
446.013	22816.25
446.22	23084.53
446.426	24047.08
446.633	24417.76
446.839	25177.56
447.046	23936.49
447.252	25548.24
447.459	25669.07
447.665	25142.74
447.871	26310.08
448.078	27246.01
448.284	26559.94
448.491	27051.45
448.697	28378.53
448.903	28675.49
449.11	28538.27
449.316	28032.43
449.522	28763.55
449.728	29379.99
449.935	29576.59
450.141	29666.7
450.347	30299.53
450.553	29433.24
450.76	29744.53
450.966	30825.85
451.172	30524.8
451.378	31188.35
451.584	30827.9
451.791	31518.07
451.997	31733.11
452.203	31896.94
452.409	32003.44
452.615	32030.06
452.821	30547.33
453.027	30602.63
453.233	32044.4
453.44	30608.77
453.646	31014.27
453.852	31331.7
454.058	31597.94
454.264	31094.14
454.47	31665.52
454.676	30858.62
454.882	31948.14
455.088	28769.69
455.294	29277.59
455.5	29834.64
455.705	30033.29
455.911	28683.68
456.117	28591.52
456.323	27753.9
456.529	26781.12
456.735	27571.63
456.941	26764.73
457.147	26756.54
457.352	26027.46
457.558	25775.56
457.764	25564.62
457.97	24989.14
458.176	24784.35
458.381	24978.9
458.587	23389.68
458.793	23346.67
458.999	22146.56
459.204	23686.64
459.41	23129.59
459.616	21798.41
459.821	21736.97
460.027	21634.57
460.233	21231.12
460.438	20190.75
460.644	20198.95
460.85	19449.39
461.055	19205.68
461.261	18882.1
461.466	17804.87
461.672	16922.2
461.878	18302.53
462.083	16942.67
462.289	16688.73
462.494	16264.8
462.7	15836.77
462.905	15535.72
463.111	16105.06
463.316	16045.66
463.522	15750.76
463.727	15877.73
463.932	15533.67
464.138	15466.09
464.343	15523.43
464.549	15031.92
464.754	15650.41
464.959	15537.77
465.165	15173.23
465.37	14915.19
465.575	14237.31
465.781	14978.67
465.986	14974.58
466.191	14429.82
466.397	14325.37
466.602	13362.83
466.807	13897.35
467.012	13708.93
467.218	14014.08
467.423	13688.45
467.628	13743.75
467.833	14485.11
468.038	13932.16
468.244	13670.02
468.449	13751.94
468.654	13254.28
468.859	13416.07
469.064	13588.1
469.269	12961.42
469.474	12955.28
469.679	13076.11
469.885	12777.11
470.09	12854.93
470.295	12955.28
470.5	12781.2
470.705	12562.07
470.91	12451.48
471.115	12369.56
471.32	12424.86
471.525	12396.18
471.73	12127.9
471.935	12095.13
472.139	11671.2
472.344	11863.71
472.549	11497.13
472.754	11505.32
472.959	11386.54
473.164	10991.28
473.369	11146.92
473.574	11368.1
473.778	11318.95
473.983	11038.38
474.188	11087.53
474.393	10714.8
474.598	10636.98
474.802	10565.3
475.007	10636.98
475.212	10616.5
475.417	10186.43
475.621	10329.78
475.826	10084.03
476.031	9877.18
476.235	9744.06
476.44	9993.92
476.645	9809.6
476.849	9916.09
477.054	9440.97
477.259	9428.68
477.463	9633.47
477.668	9193.16
477.872	9334.47
478.077	9141.96
478.282	8881.87
478.486	9053.9
478.691	8838.86
478.895	8949.45
479.1	8783.57
479.304	8845.01
479.509	8570.58
479.713	8691.41
479.918	8554.19
480.122	8306.39
480.326	8443.6
480.531	8472.28
480.735	8398.55
480.94	8390.36
481.144	8523.48
481.348	8253.14
481.553	8238.81
481.757	8226.52
481.961	8191.7
482.166	8322.77
482.37	8259.29
482.574	8109.79
482.778	8240.86
482.983	8320.73
483.187	8298.2
483.391	8115.93
483.595	8230.62
483.8	8077.02
484.004	8126.17
484.208	8240.86
484.412	8005.34
484.616	8150.74
484.821	8152.79
485.025	8074.97
485.229	8150.74
485.433	8105.69
485.637	8124.12
485.841	8074.97
486.045	7984.86
486.249	8109.79
486.453	7882.46
486.657	8259.29
486.861	8117.98
487.065	7948
487.269	7988.96
487.473	8113.88
487.677	8263.38
487.881	8120.03
488.085	8074.97
488.289	8271.58
488.493	8177.37
488.697	8240.86
488.901	8160.98
489.105	8210.14
489.309	8179.42
489.512	8285.91
489.716	8328.92
489.92	8203.99
490.124	8083.16
490.328	8589.01
490.531	8247
490.735	8439.51
490.939	8408.79
491.143	8224.47
491.346	8486.61
491.55	8670.93
491.754	8328.92
491.958	8683.22
492.161	8505.04
492.365	8455.89
492.569	8548.05
492.772	8609.49
492.976	8552.15
493.18	8863.44
493.383	8818.38
493.587	9049.8
493.79	8998.6
493.994	8853.2
494.197	9031.37
494.401	9041.61
494.605	9101
494.808	9234.12
495.012	9195.21
495.215	9434.82
495.419	9395.91
495.622	9389.77
495.825	9660.1
496.029	9430.73
496.232	9531.08
496.436	9490.12
496.639	10032.83
496.843	9854.65
497.046	9971.39
497.249	10247.86
497.453	9975.49
497.656	10342.07
497.859	10290.87
498.063	10555.06
498.266	10905.26
498.469	10520.24
498.673	10819.25
498.876	10845.87
499.079	11083.44
499.282	11398.82
499.485	11382.44
499.689	11220.65
499.892	11382.44
500.095	11554.47
500.298	11851.42
500.501	11824.8
500.705	12068.51
500.908	12187.29
501.111	12248.73
501.314	12533.4
501.517	12592.79
501.72	12588.69
501.923	12828.31
502.126	13213.32
502.329	13053.58
502.532	13252.24
502.735	13319.82
502.938	13418.12
503.141	13584.01
503.344	13887.11
503.547	13852.29
503.75	14274.17
503.953	14079.61
504.156	14452.34
504.359	14558.84
504.562	14655.09
504.765	14900.85
504.968	15099.5
505.17	15351.4
505.373	15105.65
505.576	15711.85
505.779	15687.27
505.982	15861.35
506.185	16006.75
506.387	16264.8
506.59	16516.7
506.793	16793.17
506.996	16512.6
507.198	16766.55
507.401	16787.03
507.604	17313.36
507.807	17651.27
508.009	17825.35
508.212	17712.71
508.415	18284.09
508.617	18245.18
508.82	18546.23
509.022	18341.44
509.225	18693.69
509.428	19318.32
509.63	19230.26
509.833	19136.05
510.035	19826.21
510.238	19652.14
510.44	19635.75
510.643	20123.17
510.845	20416.03
511.048	20368.93
511.25	20799
511.453	20878.87
511.655	21796.36
511.858	21276.18
512.06	21648.91
512.262	21855.75
512.465	21802.5
512.667	21808.65
512.87	22531.58
513.072	22367.74
513.274	22756.86
513.477	22971.89
513.679	23590.38
513.881	23602.67
514.084	23750.12
514.286	23623.15
514.488	24272.35
514.69	24706.52
514.893	24792.54
515.095	24831.45
515.297	25083.35
515.499	25259.48
515.701	25417.17
515.904	25804.24
516.106	26150.34
516.308	26377.67
516.51	26314.18
516.712	26553.79
516.914	27086.26
517.116	27364.79
517.318	27727.28
517.52	27790.77
517.722	27698.61
517.925	28274.09
518.127	28558.75
518.329	28638.62
518.531	28593.57
518.733	29330.84
518.935	29793.68
519.136	29582.74
519.338	29922.7
519.54	30190.98
519.742	30338.44
519.944	30610.82
520.146	30981.5
520.348	31026.56
520.55	30893.44
520.752	31573.36
520.954	32028.01
521.155	31827.31
521.357	32318.82
521.559	32791.9
521.761	32935.26
521.963	32677.22
522.164	33299.8
522.366	33066.33
522.568	33764.69
522.77	33891.66
522.971	34370.89
523.173	33969.49
523.375	34567.49
523.576	34897.22
523.778	34190.67
523.98	35511.61
524.181	35427.64
524.383	35382.59
524.584	35605.81
524.786	35917.11
524.988	35798.32
525.189	36541.74
525.391	36697.38
525.592	36212.01
525.794	36883.75
525.995	36783.4
526.197	36969.76
526.398	37063.97
526.6	37477.66
526.801	37586.2
527.003	38026.51
527.204	37936.4
527.406	38237.45
527.607	38120.72
527.808	38452.49
528.01	37893.4
528.211	38198.54
528.412	38874.37
528.614	38513.93
528.815	38714.63
529.016	39406.84
529.218	38579.46
529.419	39077.12
529.62	39367.93
529.822	39193.86
530.023	39703.8
530.224	39625.98
530.425	39597.31
530.626	39492.86
530.828	39306.49
531.029	40359.15
531.23	39623.93
531.431	39634.17
531.632	40199.41
531.833	40160.5
532.035	40080.63
532.236	40338.67
532.437	40527.08
532.638	40359.15
532.839	40750.31
533.04	40668.39
533.241	40127.73
533.442	40918.24
533.643	40969.44
533.844	40502.51
534.045	40918.24
534.246	40193.26
534.447	40826.09
534.648	40471.79
534.849	40592.62
535.05	40879.33
535.251	40926.44
535.451	40717.54
535.652	40885.48
535.853	40928.48
536.054	41180.38
536.255	41188.58
536.456	40787.17
536.657	41143.52
536.857	40783.08
537.058	40721.64
537.259	41028.84
537.46	41084.13
537.66	40750.31
537.861	41073.89
538.062	40930.53
538.263	41290.98
538.463	40883.43
538.664	41145.57
538.865	41157.86
539.065	41077.99
539.266	40783.08
539.466	41200.86
539.667	40496.36
539.868	41436.38
540.068	41088.23
540.269	40877.29
540.469	41176.29
540.67	40682.73
540.87	40940.77
541.071	41082.08
541.271	41116.9
541.472	41002.21
541.672	40991.97
541.873	41026.79
542.073	40611.05
542.274	41512.16
542.474	41065.7
542.675	41010.4
542.875	41157.86
543.075	41358.56
543.276	40690.92
543.476	40994.02
543.676	40916.2
543.877	40924.39
544.077	41043.17
544.277	40899.81
544.478	41039.08
544.678	41325.79
544.878	41250.02
545.078	41057.51
545.279	40873.19
545.479	40762.6
545.679	41536.73
545.879	40676.58
546.079	40973.54
546.28	40789.22
546.48	40371.44
546.68	41196.77
546.88	41139.43
547.08	41041.12
547.28	40688.87
547.48	40819.94
547.68	40910.05
547.88	40885.48
548.081	41057.51
548.281	40844.52
548.481	40803.56
548.681	41110.75
548.881	41063.65
549.081	41016.55
549.28	40389.87
549.48	40848.61
549.68	40787.17
549.88	41362.65
550.08	41086.18
550.28	41092.32
550.48	40690.92
550.68	40989.92
550.88	40604.91
551.08	40768.74
551.279	41047.27
551.479	40572.14
551.679	41024.74
551.879	40834.28
552.079	41327.84
552.278	40811.75
552.478	40848.61
552.678	40617.19
552.878	40971.49
553.077	40705.26
553.277	40609
553.477	41024.74
553.676	40645.87
553.876	40830.18
554.076	40377.58
554.275	40369.39
554.475	40406.25
554.674	40359.15
554.874	40727.78
555.074	40324.33
555.273	40658.15
555.473	40762.6
555.672	40418.54
555.872	40525.03
556.071	40426.73
556.271	40310
556.47	39857.4
556.67	40088.82
556.869	40172.78
557.068	40084.72
557.268	40054
557.467	39912.69
557.667	40129.78
557.866	39685.37
558.065	39640.31
558.265	39912.69
558.464	39750.9
558.663	40213.74
558.863	39789.81
559.062	40303.85
559.261	39406.84
559.461	39896.31
559.66	39294.21
559.859	39343.36
560.058	39140.61
560.258	39564.54
560.457	38931.72
560.656	39314.69
560.855	39156.99
561.054	39296.25
561.253	38673.67
561.453	39148.8
561.652	39232.77
561.851	39425.28
562.05	38862.08
562.249	38944
562.448	38849.8
562.647	38923.52
562.846	38907.14
563.045	38739.21
563.244	38296.84
563.443	38853.89
563.642	38184.21
563.841	38419.72
564.04	38307.08
564.239	38591.75
564.438	38126.86
564.637	38229.26
564.836	38280.46
565.035	37678.36
565.234	37881.11
565.432	37928.21
565.631	37872.92
565.83	37739.8
566.029	37582.1
566.228	37588.25
566.427	37700.89
566.625	37264.67
566.824	37313.82
567.023	37809.43
567.222	36689.19
567.42	37522.71
567.619	37115.17
567.818	37115.17
568.016	36769.06
568.215	37117.21
568.414	36617.51
568.612	37168.41
568.811	36793.64
569.01	36818.21
569.208	36054.32
569.407	36279.6
569.605	35706.16
569.804	36674.85
570.002	35790.13
570.201	36205.87
570.4	35689.78
570.598	35962.16
570.797	35982.64
570.995	35849.52
571.193	35509.56
571.392	36072.75
571.59	35218.75
571.789	35456.31
571.987	35626.29
572.186	35286.33
572.384	35163.45
572.582	35417.4
572.781	34987.33
572.979	34487.62
573.177	34925.89
573.376	34809.15
573.574	34762.05
573.772	34698.56
573.971	34405.7
574.169	34315.59
574.367	33926.48
574.565	34506.05
574.763	34037.07
574.962	34098.51
575.16	33875.28
575.358	33822.03
575.556	33674.58
575.754	33951.06
575.952	33631.57
576.151	33963.34
576.349	33277.27
576.547	33414.49
576.745	33283.42
576.943	33307.99
577.141	33504.6
577.339	33078.62
577.537	32943.45
577.735	33115.48
577.933	32591.2
578.131	32910.69
578.329	32574.82
578.527	32814.43
578.725	32816.48
578.923	32486.76
579.121	31999.34
579.319	32044.4
579.516	32351.59
579.714	31976.81
579.912	32118.12
580.11	31569.27
580.308	31763.82
580.506	31942
580.704	31186.3
580.901	31493.49
581.099	31473.01
581.297	31581.56
581.495	31423.86
581.692	31374.71
581.89	30881.15
582.088	31321.46
582.285	30967.16
582.483	30971.26
582.681	30512.52
582.878	30903.68
583.076	30397.83
583.274	30717.31
583.471	30084.49
583.669	30715.26
583.866	30174.6
584.064	30393.73
584.262	29808.01
584.459	30453.12
584.657	30039.43
584.854	29728.14
585.052	29562.26
585.249	30025.1
585.447	29937.04
585.644	29588.88
585.841	29715.86
586.039	29828.49
586.236	29269.4
586.434	29162.9
586.631	28900.76
586.828	29244.82
587.026	29308.31
587.223	28827.04
587.42	28831.13
587.618	28779.93
587.815	28691.87
588.012	28990.87
588.21	28444.07
588.407	28814.75
588.604	28173.74
588.801	28243.37
588.999	28515.75
589.196	28396.96
589.393	28392.87
589.59	28077.48
589.787	28038.57
589.984	27682.22
590.182	27485.62
590.379	27817.39
590.576	27512.24
590.773	27633.07
590.97	27612.59
591.167	27448.75
591.364	27106.74
591.561	27348.4
591.758	27178.42
591.955	26936.76
592.152	27198.9
592.349	26914.23
592.546	26725.82
592.743	27030.97
592.94	26336.71
593.137	26858.94
593.334	26764.73
593.531	26244.55
593.727	26561.98
593.924	26387.91
594.121	26035.66
594.318	26285.51
594.515	25904.59
594.712	26002.89
594.908	26146.25
595.105	25939.4
595.302	25720.27
595.499	25658.83
595.696	25544.14
595.892	25255.38
596.089	25386.45
596.286	25744.84
596.482	25542.1
596.679	25349.59
596.876	25050.58
597.072	25167.32
597.269	25429.46
597.466	24913.37
597.662	24829.4
597.859	24860.12
598.055	24815.07
598.252	24626.65
598.448	24847.83
598.645	24411.62
598.841	24331.75
599.038	24309.22
599.234	24616.41
599.431	23766.51
599.627	24122.85
599.824	24526.3
600.02	24051.17
600.217	23961.06
600.413	24063.46
600.609	24210.92
600.806	23739.88
601.002	23875.05
601.198	23391.73
601.395	23440.88
601.591	23617
601.787	23481.84
601.984	23246.32
602.18	23662.06
602.376	23229.94
602.572	23041.53
602.769	22943.22
602.965	22752.76
603.161	23113.2
603.357	22824.44
603.553	22707.71
603.75	22904.31
603.946	22517.25
604.142	22818.3
604.338	22394.37
604.534	22386.18
604.73	22148.61
604.926	22269.44
605.122	22126.08
605.318	22210.05
605.514	21913.09
605.71	21829.13
605.906	21909
606.102	21886.47
606.298	22132.23
606.494	21739.02
606.69	21560.84
606.886	22078.98
607.082	21437.97
607.278	21698.06
607.474	21233.17
607.67	21542.41
607.866	21050.9
608.062	21478.93
608.257	21098
608.453	21267.98
608.649	21290.51
608.845	21026.32
609.041	21030.42
609.236	20999.7
609.432	20954.65
609.628	20864.53
609.824	20751.9
610.019	20844.06
610.215	20799
610.411	21108.24
610.606	20438.56
610.802	20774.42
610.998	20618.78
611.193	20246.05
611.389	20368.93
611.584	20200.99
611.78	20483.61
611.976	20528.67
612.171	20588.06
612.367	20272.67
612.562	20231.71
612.758	19938.85
612.953	20082.21
613.149	20188.71
613.344	20112.93
613.539	20041.25
613.735	20051.49
613.93	19836.45
614.126	19871.27
614.321	20117.03
614.517	19682.86
614.712	19797.54
614.907	19525.16
615.103	19967.52
615.298	19600.94
615.493	19674.67
615.688	19265.07
615.884	19908.13
616.079	19170.86
616.274	19510.83
616.47	19383.85
616.665	19648.04
616.86	19365.42
617.055	19140.15
617.25	19285.55
617.445	19346.99
617.641	18617.91
617.836	19031.6
618.031	18892.34
618.226	19037.75
618.421	18636.34
618.616	18990.64
618.811	18490.94
619.006	18837.05
619.201	18142.78
619.396	18556.47
619.591	18304.57
619.786	18548.28
619.981	18009.67
620.176	18218.56
620.371	18220.61
620.566	18175.55
620.761	17960.52
620.956	18011.71
621.151	17759.81
621.346	17878.6
621.541	17378.89
621.735	17755.72
621.93	17333.84
622.125	17608.26
622.32	17022.55
622.515	17303.12
622.709	17194.57
622.904	17045.07
623.099	16903.76
623.294	16991.83
623.488	16715.35
623.683	16873.04
623.878	16617.05
624.072	16674.39
624.267	16451.16
624.462	16277.08
624.656	16369.24
624.851	16336.48
625.046	16010.85
625.24	16010.85
625.435	15900.26
625.629	15701.61
625.824	15767.14
626.018	15689.32
626.213	15500.9
626.407	15586.92
626.602	15513.19
626.796	15382.12
626.991	15156.85
627.185	15263.34
627.38	14993.01
627.574	15173.23
627.768	14872.18
627.963	14812.79
628.157	14786.16
628.352	14847.6
628.546	14675.57
628.74	14784.12
628.935	14302.84
629.129	14333.56
629.323	14210.68
629.517	14235.26
629.712	14302.84
629.906	14161.53
630.1	14044.8
630.294	14243.45
630.489	13885.06
630.683	14036.61
630.877	13844.1
631.071	13610.63
631.265	13866.63
631.459	13465.22
631.653	13381.26
631.848	13467.27
632.042	13461.13
632.236	13495.94
632.43	13080.21
632.624	13297.29
632.818	12996.24
633.012	13086.35
633.206	12715.67
633.4	13043.34
633.594	12684.95
633.788	12986
633.982	12832.4
634.176	12846.74
634.369	12353.18
634.563	12527.25
634.757	12451.48
634.951	12523.16
635.145	12551.83
635.339	12521.11
635.533	12148.38
635.726	12220.06
635.92	12062.37
636.114	11935.39
636.308	11894.43
636.501	11767.46
636.695	11691.68
636.889	11632.29
637.083	11724.45
637.276	11527.85
637.47	11529.89
637.664	11368.1
637.857	11615.91
638.051	11247.27
638.244	11142.83
638.438	11218.6
638.632	11124.4
638.825	11161.26
639.019	11052.72
639.212	10921.65
639.406	10811.06
639.599	11007.66
639.793	10714.8
639.986	10415.8
640.18	10747.57
640.373	10598.07
640.567	10413.75
640.76	10471.09
640.954	10372.79
641.147	10313.4
641.34	10288.82
641.534	10276.54
641.727	10229.43
641.92	10213.05
642.114	10090.17
642.307	9924.29
642.5	9909.95
642.694	9735.87
642.887	9633.47
643.08	9758.4
643.273	9756.35
643.467	9674.43
643.66	9649.86
643.853	9260.74
644.046	9475.78
644.239	9262.79
644.432	9365.19
644.626	9375.43
644.819	9387.72
645.012	9332.42
645.205	9201.35
645.398	9082.57
645.591	9029.32
645.784	8926.93
645.977	9049.8
646.17	9125.58
646.363	8789.71
646.556	8742.61
646.749	8943.31
646.942	8632.02
647.135	8758.99
647.328	8732.37
647.521	8480.47
647.714	8500.95
647.907	8472.28
648.099	8640.21
648.292	8466.13
648.485	8388.31
648.678	8359.64
648.871	8169.18
649.064	8165.08
649.256	8304.34
649.449	8165.08
649.642	7784.16
649.835	8152.79
650.027	7966.43
650.22	7900.89
650.413	7782.11
650.605	7800.54
650.798	7784.16
650.991	7614.18
651.183	7866.08
651.376	7622.37
651.568	7560.93
651.761	7433.96
651.954	7352.04
652.146	7511.78
652.339	7534.31
652.531	7464.68
652.724	7325.41
652.916	7376.61
653.109	7266.02
653.301	7333.61
653.494	7419.62
653.686	7067.37
653.879	7065.32
654.071	7096.04
654.263	7063.27
654.456	7194.34
654.648	7128.81
654.84	7057.13
655.033	7003.88
655.225	6883.05
655.417	7007.98
655.61	7050.99
655.802	6969.07
655.994	6784.75
656.186	6792.94
656.379	6727.41
656.571	6829.81
656.763	6504.18
656.955	6704.88
657.148	6524.66
657.34	6518.51
657.532	6432.5
657.724	6514.42
657.916	6473.46
658.108	6438.64
658.3	6412.02
658.492	6387.44
658.684	6315.76
658.876	6276.85
659.068	6121.21
659.26	6264.57
659.452	6313.72
659.644	6137.59
659.836	6051.58
660.028	6244.09
660.22	6006.52
660.412	5971.71
660.604	5885.69
660.796	6086.39
660.988	5793.53
661.18	5897.98
661.372	5805.82
661.563	5738.24
661.755	5793.53
661.947	5928.7
662.139	5596.93
662.331	5603.07
662.522	5596.93
662.714	5730.05
662.906	5592.83
663.097	5654.27
663.289	5506.82
663.481	5445.38
663.673	5402.37
663.864	5455.62
664.056	5416.71
664.247	5519.11
664.439	5211.91
664.631	5197.57
664.822	5107.46
665.014	5388.04
665.205	5285.64
665.397	5220.1
665.588	5359.36
665.78	5187.33
665.971	5199.62
666.163	5142.28
666.354	5058.31
666.546	5043.98
666.737	5097.22
666.929	4906.76
667.12	5119.75
667.311	4937.48
667.503	4917
667.694	4718.35
667.885	4701.97
668.077	4820.75
668.268	4830.99
668.459	4802.32
668.651	4618
668.842	4845.32
669.033	4687.63
669.224	4744.97
669.416	4837.13
669.607	4706.06
669.798	4710.16
669.989	4812.56
670.18	4757.26
670.371	4634.38
670.563	4691.73
670.754	4611.85
670.945	4572.94
671.136	4515.6
671.327	4562.7
671.518	4644.62
671.709	4448.02
671.9	4677.39
672.091	4421.39
672.282	4452.11
672.473	4390.67
672.664	4503.31
672.855	4374.29
673.046	4284.18
673.237	4405.01
673.428	4519.7
673.619	4386.58
673.809	4228.88
674	4130.58
674.191	4206.36
674.382	4321.04
674.573	4292.37
674.764	4192.02
674.954	4230.93
675.145	4247.32
675.336	4288.28
675.527	4300.56
675.717	4316.95
675.908	4341.52
676.099	4101.91
676.289	4073.24
676.48	4214.55
676.671	4040.47
676.861	4089.62
677.052	4255.51
677.243	4161.3
677.433	3901.21
677.624	4036.38
677.814	3987.22
678.005	4103.96
678.195	4140.82
678.386	4173.59
678.576	3991.32
678.767	4112.15
678.957	3974.94
679.148	4044.57
679.338	3942.17
679.529	4007.7
679.719	3993.37
679.909	3938.07
680.1	4073.24
680.29	4046.62
680.481	3919.64
680.671	3970.84
680.861	3862.3
681.052	3952.41
681.242	3962.65
681.432	3987.22
681.622	3839.77
681.813	4007.7
682.003	3878.68
682.193	3794.72
682.383	3880.73
682.573	3823.39
682.764	3823.39
682.954	3983.13
683.144	3948.31
683.334	3813.15
683.524	4017.94
683.714	3960.6
683.904	3790.62
684.094	3809.05
684.284	3915.55
684.474	3929.88
684.664	3884.83
684.854	3686.17
685.044	3782.43
685.234	3692.32
685.424	3864.35
685.614	3757.85
685.804	3794.72
685.994	3708.7
686.184	3761.95
686.374	3815.2
686.564	3743.52
686.753	3634.97
686.943	3761.95
687.133	3630.88
687.323	3673.89
687.513	3688.22
687.702	3813.15
687.892	3729.18
688.082	3587.87
688.272	3569.44
688.461	3700.51
688.651	3694.36
688.841	3458.85
689.03	3729.18
689.22	3462.94
689.41	3551.01
689.599	3645.21
689.789	3548.96
689.979	3553.06
690.168	3499.81
690.358	3475.23
690.547	3557.15
690.737	3434.27
690.926	3505.95
691.116	3391.27
691.305	3352.35
691.495	3395.36
691.684	3538.72
691.874	3399.46
692.063	3372.83
692.252	3321.63
692.442	3301.15
692.631	3217.19
692.82	3401.51
693.01	3401.51
693.199	3342.11
693.388	3286.82
693.578	3381.03
693.767	3389.22
693.956	3315.49
694.146	3254.05
694.335	3305.25
694.524	3317.54
694.713	3325.73
694.902	3174.18
695.092	3340.07
695.281	3176.23
695.47	3227.43
695.659	3235.62
695.848	3360.55
696.037	3272.48
696.226	3159.85
696.415	3161.89
696.604	3227.43
696.793	3274.53
696.982	3286.82
697.171	3295.01
697.36	3266.34
697.549	3174.18
697.738	3094.31
697.927	3188.52
698.116	3159.85
698.305	3174.18
698.494	3133.22
698.683	3204.9
698.872	3278.63
699.061	3155.75
699.25	3020.58
699.438	3106.6
699.627	3147.56
699.816	3143.46
700.005	3094.31
700.193	3118.89
700.382	3129.13
700.571	3215.14
700.76	3260.2
700.948	3131.17
701.137	3082.02
701.326	3137.32
701.514	3211.04
701.703	3094.31
701.892	3084.07
702.08	3139.37
702.269	3088.17
702.457	3084.07
702.646	3059.49
702.834	3116.84
703.023	3051.3
703.212	3145.51
703.4	3172.13
703.589	3036.97
703.777	3133.22
703.965	2971.43
704.154	3170.08
704.342	2998.06
704.531	3030.82
704.719	2996.01
704.907	2987.82
705.096	3055.4
705.284	2856.75
705.472	3114.79
705.661	2948.9
705.849	3088.17
706.037	3049.25
706.226	3000.1
706.414	2979.62
706.602	3024.68
706.79	3020.58
706.979	2989.86
707.167	3116.84
707.355	2959.14
707.543	3075.88
707.731	2981.67
707.919	3071.78
708.107	2985.77
708.296	2909.99
708.484	2899.75
708.672	2991.91
708.86	3024.68
709.048	2979.62
709.236	3036.97
709.424	2985.77
709.612	3063.59
709.8	3065.64
709.988	3053.35
710.176	3004.2
710.364	2885.42
710.551	3075.88
710.739	2893.61
710.927	2975.53
711.115	2922.28
711.303	3133.22
711.491	2934.57
711.679	3004.2
711.866	3030.82
712.054	3018.54
712.242	2950.95
712.43	2948.9
712.617	2899.75
712.805	2912.04
712.993	3024.68
713.181	2946.86
713.368	2981.67
713.556	3055.4
713.744	2897.71
713.931	3061.54
714.119	3020.58
714.306	2914.09
714.494	2920.23
714.682	2901.8
714.869	2852.65
715.057	2948.9
715.244	2930.47
715.432	2942.76
715.619	2981.67
715.807	2922.28
715.994	3010.34
716.182	2821.93
716.369	2993.96
716.556	2957.1
716.744	2871.08
716.931	2848.55
717.119	2920.23
717.306	2862.89
717.493	2940.71
717.681	2944.81
717.868	2936.62
718.055	2797.35
718.242	2844.46
718.43	2907.94
718.617	2891.56
718.804	2873.13
718.991	2905.9
719.179	2912.04
719.366	2803.5
719.553	2942.76
719.74	2821.93
719.927	2838.31
720.114	2897.71
720.301	2815.79
720.488	2770.73
720.676	2893.61
720.863	2862.89
721.05	2856.75
721.237	2932.52
721.424	2811.69
721.611	2828.07
721.798	2811.69
721.985	2873.13
722.172	2873.13
722.358	2858.79
722.545	2854.7
722.732	2946.86
722.919	2826.03
723.106	2891.56
723.293	2807.59
723.48	2768.68
723.667	2742.06
723.853	2809.64
724.04	2869.03
724.227	2744.11
724.414	2768.68
724.6	2746.16
724.787	2762.54
724.974	2828.07
725.161	2770.73
725.347	2694.96
725.534	2813.74
725.72	2787.11
725.907	2649.9
726.094	2733.87
726.28	2817.83
726.467	2719.53
726.653	2619.18
726.84	2821.93
727.027	2799.4
727.213	2723.63
727.4	2709.29
727.586	2713.39
727.773	2778.92
727.959	2758.44
728.145	2729.77
728.332	2735.92
728.518	2631.47
728.705	2705.2
728.891	2766.64
729.077	2594.61
729.264	2762.54
729.45	2850.6
729.636	2758.44
729.823	2717.48
730.009	2717.48
730.195	2670.38
730.382	2623.28
730.568	2656.04
730.754	2768.68
730.94	2615.09
731.126	2684.72
731.313	2688.81
731.499	2633.52
731.685	2656.04
731.871	2658.09
732.057	2647.85
732.243	2615.09
732.429	2629.42
732.615	2598.7
732.801	2676.52
732.987	2600.75
733.173	2719.53
733.359	2615.09
733.545	2725.68
733.731	2608.94
733.917	2574.13
734.103	2588.46
734.289	2598.7
734.475	2610.99
734.661	2627.37
734.847	2621.23
735.033	2729.77
735.219	2662.19
735.404	2676.52
735.59	2660.14
735.776	2606.89
735.962	2729.77
736.148	2518.83
736.333	2553.65
736.519	2570.03
736.705	2664.24
736.89	2498.35
737.076	2574.13
737.262	2549.55
737.447	2586.41
737.633	2455.34
737.819	2555.69
738.004	2516.78
738.19	2502.45
738.375	2506.54
738.561	2420.53
738.747	2549.55
738.932	2455.34
739.118	2422.58
739.303	2623.28
739.489	2438.96
739.674	2420.53
739.859	2426.67
740.045	2398
740.23	2459.44
740.416	2375.47
740.601	2443.06
740.786	2273.07
740.972	2402.1
741.157	2432.82
741.342	2354.99
741.528	2438.96
741.713	2449.2
741.898	2406.19
742.084	2318.13
742.269	2340.66
742.454	2418.48
742.639	2234.16
742.824	2258.74
743.01	2256.69
743.195	2293.55
743.38	2225.97
743.565	2279.22
743.75	2236.21
743.935	2264.88
744.12	2303.79
744.305	2246.45
744.49	2250.55
744.675	2234.16
744.86	2193.2
745.045	2107.19
745.23	2166.58
745.415	2099
745.6	2203.44
745.785	2062.13
745.97	2135.86
746.155	2142
746.34	2207.54
746.525	2068.28
746.71	2082.61
746.895	2000.69
747.079	2017.08
747.264	1996.6
747.449	2086.71
747.634	1974.07
747.819	1949.5
748.003	2025.27
748.188	2055.99
748.373	1996.6
748.557	1982.26
748.742	1883.96
748.927	1937.21
749.111	1865.53
749.296	1859.38
749.481	1929.02
749.665	1935.16
749.85	1812.28
750.034	1877.82
750.219	1959.74
750.404	1763.13
750.588	1871.67
750.773	1748.79
750.957	1812.28
751.141	1777.47
751.326	1816.38
751.51	1767.23
751.695	1849.15
751.879	1701.69
752.064	1830.71
752.248	1683.26
752.432	1677.12
752.617	1668.92
752.801	1632.06
752.985	1687.36
753.17	1652.54
753.354	1621.82
753.538	1539.9
753.722	1554.24
753.907	1625.92
754.091	1621.82
754.275	1587.01
754.459	1537.85
754.643	1613.63
754.828	1478.46
755.012	1507.13
755.196	1486.65
755.38	1584.96
755.564	1535.81
755.748	1511.23
755.932	1441.6
756.116	1580.86
756.3	1470.27
756.484	1505.09
756.668	1455.94
756.852	1451.84
757.036	1476.41
757.22	1351.49
757.404	1488.7
757.588	1431.36
757.772	1392.45
757.956	1378.11
758.14	1406.78
758.323	1408.83
758.507	1361.73
758.691	1290.05
758.875	1359.68
759.059	1355.58
759.242	1339.2
759.426	1298.24
759.61	1333.06
759.794	1296.19
759.977	1345.34
760.161	1328.96
760.345	1267.52
760.528	1326.91
760.712	1277.76
760.895	1273.67
761.079	1331.01
761.263	1226.56
761.446	1185.6
761.63	1236.8
761.813	1224.51
761.997	1232.71
762.18	1216.32
762.364	1212.23
762.547	1183.56
762.731	1167.17
762.914	1161.03
763.098	1193.8
763.281	1115.97
763.464	1142.6
763.648	1101.64
763.831	1062.73
764.015	1097.54
764.198	1185.6
764.381	1144.64
764.564	1173.32
764.748	1144.64
764.931	1167.17
765.114	1128.26
765.297	1089.35
765.481	1113.92
765.664	1083.2
765.847	1150.79
766.03	1171.27
766.213	1122.12
766.397	1107.78
766.58	1072.96
766.763	1068.87
766.946	1011.53
767.129	1118.02
767.312	1081.16
767.495	1056.58
767.678	1009.48
767.861	1009.48
768.044	1017.67
768.227	1011.53
768.41	968.52
768.593	1023.81
768.776	982.85
768.959	1068.87
769.142	997.19
769.324	956.23
769.507	986.95
769.69	950.09
769.873	1013.57
770.056	1050.44
770.239	1032.01
770.421	1064.77
770.604	1046.34
770.787	954.18
770.97	886.6
771.152	921.42
771.335	960.33
771.518	905.03
771.7	890.7
771.883	950.09
772.066	1019.72
772.248	950.09
772.431	923.46
772.613	943.94
772.796	941.89
772.978	927.56
773.161	968.52
773.343	892.74
773.526	874.31
773.708	874.31
773.891	866.12
774.073	853.83
774.256	710.47
774.438	927.56
774.621	786.25
774.803	859.98
774.985	806.73
775.168	866.12
775.35	782.15
775.532	837.45
775.715	839.5
775.897	819.02
776.079	853.83
776.261	802.63
776.444	841.54
776.626	720.71
776.808	798.54
776.99	786.25
777.173	778.06
777.355	669.52
777.537	720.71
777.719	733
777.901	767.82
778.083	718.67
778.265	767.82
778.447	755.53
778.629	708.43
778.811	724.81
778.993	685.9
779.175	708.43
779.357	788.3
779.539	651.08
779.721	591.69
779.903	689.99
780.085	696.14
780.267	649.04
780.449	667.47
780.631	735.05
780.812	687.95
780.994	655.18
781.176	665.42
781.358	634.7
781.54	606.03
781.721	614.22
781.903	567.12
782.085	550.73
782.267	569.16
782.448	575.31
782.63	542.54
782.812	606.03
782.993	595.79
783.175	675.66
783.357	612.17
783.538	528.21
783.72	560.97
783.901	595.79
784.083	517.97
784.264	532.3
784.446	481.1
784.627	575.31
784.809	665.42
784.99	517.97
785.172	515.92
785.353	587.6
785.535	520.01
785.716	581.45
785.897	530.25
786.079	595.79
786.26	544.59
786.441	534.35
786.623	511.82
786.804	481.1
786.985	458.57
787.167	505.68
787.348	489.29
787.529	466.77
787.71	515.92
787.891	411.47
788.073	429.9
788.254	468.81
788.435	477.01
788.616	442.19
788.797	368.46
788.978	491.34
789.159	329.55
789.34	403.28
789.522	436.05
789.703	411.47
789.884	446.29
790.065	386.9
790.246	444.24
790.427	417.61
790.607	454.48
790.788	356.18
790.969	384.85
791.15	382.8
791.331	380.75
791.512	409.42
791.693	307.02
791.874	474.96
792.054	468.81
792.235	352.08
792.416	325.46
792.597	352.08
792.778	339.79
792.958	311.12
793.139	399.18
793.32	431.95
793.5	323.41
793.681	362.32
793.862	425.81
794.042	294.74
794.223	294.74
794.404	384.85
794.584	382.8
794.765	386.9
794.945	327.5
795.126	343.89
795.306	378.7
795.487	350.03
795.667	284.5
795.848	304.98
796.028	382.8
796.209	386.9
796.389	255.83
796.57	333.65
796.75	261.97
796.93	243.54
797.111	337.74
797.291	280.4
797.471	266.07
797.652	286.54
797.832	253.78
798.012	294.74
798.192	341.84
798.373	339.79
798.553	284.5
798.733	323.41
798.913	272.21
799.093	315.22
799.274	317.26
799.454	300.88
799.634	270.16
799.814	296.78
799.994	276.31
800.174	311.12
800.354	239.44
800.534	264.02
800.714	278.35
800.894	198.48
801.074	227.15
801.254	214.87
801.434	261.97
801.614	231.25
801.794	261.97
801.974	694.09
802.154	196.43
802.334	212.82
802.514	214.87
802.693	223.06
802.873	284.5
803.053	233.3
803.233	239.44
803.413	243.54
803.592	282.45
803.772	169.81
803.952	264.02
804.131	216.91
804.311	270.16
804.491	286.54
804.67	171.86
804.85	218.96
805.03	255.83
805.209	300.88
805.389	214.87
805.568	165.71
805.748	137.04
805.928	302.93
806.107	266.07
806.287	192.34
806.466	270.16
806.646	147.28
806.825	171.86
807.004	237.39
807.184	251.73
807.363	204.63
807.543	233.3
807.722	190.29
807.901	239.44
808.081	221.01
808.26	221.01
808.439	229.2
808.619	231.25
808.798	173.91
808.977	186.19
809.156	200.53
809.336	245.59
809.515	350.03
809.694	233.3
809.873	188.24
810.052	161.62
810.231	245.59
810.411	282.45
810.59	208.72
810.769	200.53
810.948	278.35
811.127	145.24
811.306	221.01
811.485	247.63
811.664	239.44
811.843	223.06
812.022	196.43
812.201	175.95
812.38	208.72
812.559	83.8
812.737	237.39
812.916	182.1
813.095	241.49
813.274	221.01
813.453	175.95
813.632	194.39
813.811	206.67
813.989	173.91
814.168	178
814.347	214.87
814.526	184.15
814.704	216.91
814.883	167.76
815.062	122.71
815.24	141.14
815.419	161.62
815.598	186.19
815.776	218.96
815.955	184.15
816.133	143.19
816.312	186.19
816.49	161.62
816.669	186.19
816.847	85.84
817.026	161.62
817.204	128.85
817.383	153.43
817.561	139.09
817.74	55.12
817.918	231.25
818.097	98.13
818.275	163.67
818.453	202.58
818.632	167.76
818.81	149.33
818.988	241.49
819.167	135
819.345	180.05
819.523	137.04
819.701	208.72
819.879	169.81
820.058	145.24
820.236	128.85
820.414	124.76
820.592	135
820.77	184.15
820.948	175.95
821.127	165.71
821.305	173.91
821.483	100.18
821.661	163.67
821.839	114.52
822.017	106.32
822.195	81.75
822.373	137.04
822.551	30.55
822.729	59.22
822.907	149.33
823.085	79.7
823.262	91.99
823.44	69.46
823.618	206.67
823.796	165.71
823.974	69.46
824.152	149.33
824.329	143.19
824.507	153.43
824.685	116.56
824.863	173.91
825.04	112.47
825.218	91.99
825.396	94.04
825.574	139.09
825.751	141.14
825.929	126.8
826.107	65.36
826.284	141.14
826.462	73.56
826.639	153.43
826.817	153.43
826.994	114.52
827.172	169.81
827.349	75.6
827.527	118.61
827.704	65.36
827.882	139.09
828.059	55.12
828.237	141.14
828.414	114.52
828.591	165.71
828.769	163.67
828.946	89.94
829.124	44.88
829.301	112.47
829.478	53.08
829.655	112.47
829.833	89.94
830.01	85.84
830.187	163.67
830.364	94.04
830.542	124.76
830.719	77.65
830.896	91.99
831.073	67.41
831.25	104.28
831.427	139.09
831.604	69.46
831.782	73.56
831.959	96.08
832.136	126.8
832.313	114.52
832.49	106.32
832.667	124.76
832.844	38.74
833.021	137.04
833.198	122.71
833.374	110.42
833.551	85.84
833.728	102.23
833.905	104.28
834.082	55.12
834.259	73.56
834.436	130.9
834.612	69.46
834.789	139.09
834.966	69.46
835.143	71.51
835.319	87.89
835.496	98.13
835.673	51.03
835.85	139.09
836.026	30.55
836.203	132.95
836.38	12.12
836.556	126.8
836.733	94.04
836.909	159.57
837.086	71.51
837.262	106.32
837.439	30.55
837.616	48.98
837.792	42.84
837.968	118.61
838.145	63.32
838.321	26.45
838.498	36.69
838.674	175.95
838.851	44.88
839.027	75.6
839.203	75.6
839.38	100.18
839.556	79.7
839.732	73.56
839.909	26.45
840.085	71.51
840.261	83.8
840.437	46.93
840.614	102.23
840.79	96.08
840.966	77.65
841.142	42.84
841.318	87.89
841.494	65.36
841.671	135
841.847	73.56
842.023	46.93
842.199	98.13
842.375	87.89
842.551	-8.36
842.727	161.62
842.903	116.56
843.079	122.71
843.255	36.69
843.431	46.93
843.607	106.32
843.783	28.5
843.959	100.18
844.134	53.08
844.31	124.76
844.486	94.04
844.662	38.74
844.838	94.04
845.013	51.03
845.189	83.8
845.365	124.76
845.541	104.28
845.716	40.79
845.892	-47.27
846.068	120.66
846.244	36.69
846.419	91.99
846.595	118.61
846.77	69.46
846.946	83.8
847.122	-37.03
847.297	110.42
847.473	83.8
847.648	94.04
847.824	42.84
847.999	83.8
848.175	-2.22
848.35	81.75
848.526	104.28
848.701	79.7
848.876	24.4
849.052	53.08
849.227	106.32
849.403	10.07
849.578	141.14
849.753	126.8
849.929	65.36
850.104	32.6
850.279	79.7
850.454	40.79
850.63	104.28
850.805	73.56
850.98	108.37
851.155	40.79
851.33	89.94
851.505	51.03
851.681	120.66
851.856	32.6
852.031	53.08
852.206	16.21
852.381	30.55
852.556	32.6
852.731	26.45
852.906	34.64
853.081	89.94
853.256	91.99
853.431	85.84
853.606	22.36
853.781	38.74
853.956	-10.41
854.131	5.97
854.305	73.56
854.48	63.32
854.655	38.74
854.83	-2.22
855.005	-10.41
855.18	69.46
855.354	22.36
855.529	-30.89
855.704	-8.36
855.879	36.69
856.053	3.93
856.228	46.93
856.403	51.03
856.577	1.88
856.752	59.22
856.926	-43.18
857.101	3.93
857.276	-8.36
857.45	94.04
857.625	73.56
857.799	81.75
857.974	32.6
858.148	57.17
858.323	59.22
858.497	67.41
858.672	-41.13
858.846	-12.46
859.02	77.65
859.195	42.84
859.369	71.51
859.543	53.08
859.718	59.22
859.892	12.12
860.066	89.94
860.241	28.5
860.415	38.74
860.589	55.12
860.763	-30.89
860.938	22.36
861.112	42.84
861.286	40.79
861.46	91.99
861.634	30.55
861.808	67.41
861.982	16.21
862.157	48.98
862.331	-18.6
862.505	-20.65
862.679	-2.22
862.853	28.5
863.027	8.02
863.201	122.71
863.375	18.26
863.549	79.7
863.722	30.55
863.896	44.88
864.07	22.36
864.244	42.84
864.418	55.12
864.592	71.51
864.766	10.07
864.939	55.12
865.113	12.12
865.287	96.08
865.461	-59.56
865.634	75.6
865.808	-4.27
865.982	20.31
866.156	28.5
866.329	26.45
866.503	-37.03
866.676	87.89
866.85	87.89
867.024	-6.31
867.197	-10.41
867.371	20.31
867.544	-26.79
867.718	5.97
867.891	12.12
868.065	-2.22
868.238	96.08
868.412	53.08
868.585	42.84
868.759	12.12
868.932	10.07
869.105	-22.7
869.279	-26.79
869.452	22.36
869.625	30.55
869.799	28.5
869.972	-32.94
870.145	12.12
870.319	-26.79
870.492	-39.08
870.665	8.02
870.838	30.55
871.011	5.97
871.185	3.93
871.358	-49.32
871.531	59.22
871.704	48.98
871.877	-2.22
872.05	22.36
872.223	-69.8
872.396	46.93
872.569	30.55
872.742	63.32
872.915	12.12
873.088	36.69
873.261	53.08
873.434	12.12
873.607	-39.08
873.78	30.55
873.953	34.64
874.126	-2.22
874.299	-10.41
874.471	-51.37
874.644	24.4
874.817	14.17
874.99	91.99
875.163	38.74
875.335	3.93
875.508	57.17
875.681	-43.18
875.853	32.6
876.026	79.7
876.199	-43.18
876.371	36.69
876.544	61.27
876.717	-14.51
876.889	65.36
877.062	42.84
877.234	-69.8
877.407	-4.27
877.579	22.36
877.752	10.07
877.924	10.07
878.097	20.31
878.269	14.17
878.442	10.07
878.614	26.45
878.786	57.17
878.959	22.36
879.131	-0.17
879.303	24.4
879.476	83.8
879.648	59.22
879.82	-4.27
879.993	-16.55
880.165	26.45
880.337	-61.61
880.509	-26.79
880.681	-100.52
880.854	51.03
881.026	40.79
881.198	53.08
881.37	-26.79
881.542	87.89
881.714	-4.27
881.886	-6.31
882.058	40.79
882.23	55.12
882.402	40.79
882.574	8.02
882.746	-26.79
882.918	30.55
883.09	38.74
883.262	-12.46
883.434	-55.47
883.606	8.02
883.778	-18.6
883.95	59.22
884.122	83.8
884.293	75.6
884.465	53.08
884.637	44.88
884.809	14.17
884.98	44.88
885.152	83.8
885.324	16.21
885.496	40.79
885.667	40.79
885.839	110.42
886.011	55.12
886.182	32.6
886.354	79.7
886.525	55.12
886.697	-2.22
886.869	63.32
887.04	57.17
887.212	-16.55
887.383	-2.22
887.555	-4.27
887.726	59.22
887.897	-12.46
888.069	32.6
888.24	53.08
888.412	18.26
888.583	8.02
888.754	42.84
888.926	1.88
889.097	5.97
889.268	24.4
889.44	12.12
889.611	-2.22
889.782	-4.27
889.953	-32.94
890.125	12.12
890.296	-8.36
890.467	-6.31
890.638	-53.42
890.809	-10.41
890.98	1.88
891.151	14.17
891.323	40.79
891.494	12.12
891.665	55.12
891.836	110.42
892.007	14.17
892.178	-8.36
892.349	1.88
892.52	40.79
892.691	16.21
892.862	51.03
893.032	1.88
893.203	79.7
893.374	22.36
893.545	20.31
893.716	-47.27
893.887	69.46
894.057	-34.99
894.228	-12.46
894.399	30.55
894.57	-18.6
894.74	10.07
894.911	36.69
895.082	5.97
895.253	34.64
895.423	-37.03
895.594	59.22
895.764	55.12
895.935	26.45
896.106	42.84
896.276	-18.6
896.447	30.55
896.617	-65.71
896.788	38.74
896.958	18.26
897.129	63.32
897.299	51.03
897.47	24.4
897.64	-16.55
897.81	-0.17
897.981	1.88
898.151	44.88
898.322	77.65
898.492	63.32
898.662	53.08
898.832	5.97
899.003	10.07
899.173	-10.41
899.343	-30.89
899.513	-32.94
