Data from USB4F104151__81__11-52-49-599.txt Node

Date: Fri Mar 14 11:52:49 EDT 2025
User: louis
Spectrometer: USB4F10415
Trigger mode: 4
Integration Time (sec): 2.000000E-2
Scans to average: 1
Electric dark correction enabled: true
Nonlinearity correction enabled: false
Boxcar width: 0
XAxis mode: Wavelengths
Number of Pixels in Spectrum: 3648
>>>>>Begin Spectral Data<<<<<
178.204	-146.43
178.424	-146.43
178.644	-146.43
178.864	-105.47
179.084	-91.13
179.304	46.08
179.524	-31.74
179.744	-46.08
179.964	19.46
180.184	7.17
180.404	-19.46
180.624	-58.37
180.844	-7.17
181.064	-5.12
181.283	-1.02
181.503	21.5
181.723	74.75
181.943	-13.31
182.163	37.89
182.383	46.08
182.602	84.99
182.822	15.36
183.042	19.46
183.262	5.12
183.482	37.89
183.701	9.22
183.921	3.07
184.141	-17.41
184.361	25.6
184.58	99.33
184.8	-52.22
185.02	-33.79
185.239	9.22
185.459	23.55
185.679	1.02
185.898	-56.32
186.118	25.6
186.338	-21.5
186.557	80.89
186.777	56.32
186.997	70.65
187.216	-1.02
187.436	52.22
187.655	50.18
187.875	31.74
188.095	-56.32
188.314	41.98
188.534	-27.65
188.753	15.36
188.973	-15.36
189.192	74.75
189.412	76.8
189.631	37.89
189.851	15.36
190.07	-7.17
190.29	-19.46
190.509	35.84
190.729	25.6
190.948	52.22
191.168	60.42
191.387	39.94
191.607	9.22
191.826	-7.17
192.045	-9.22
192.265	27.65
192.484	33.79
192.704	35.84
192.923	17.41
193.142	3.07
193.362	23.55
193.581	23.55
193.8	60.42
194.02	19.46
194.239	-17.41
194.458	54.27
194.678	60.42
194.897	54.27
195.116	41.98
195.335	-21.5
195.555	-48.13
195.774	27.65
195.993	54.27
196.212	-41.98
196.432	19.46
196.651	39.94
196.87	-64.51
197.089	62.46
197.308	68.61
197.528	48.13
197.747	-82.94
197.966	23.55
198.185	97.28
198.404	9.22
198.623	7.17
198.842	13.31
199.062	-7.17
199.281	37.89
199.5	21.5
199.719	80.89
199.938	44.03
200.157	66.56
200.376	9.22
200.595	56.32
200.814	72.7
201.033	-23.55
201.252	76.8
201.471	-35.84
201.69	48.13
201.909	15.36
202.128	29.7
202.347	72.7
202.566	48.13
202.785	25.6
203.004	-37.89
203.223	3.07
203.442	56.32
203.661	15.36
203.879	-84.99
204.098	33.79
204.317	46.08
204.536	97.28
204.755	-11.26
204.974	7.17
205.193	48.13
205.411	-11.26
205.63	25.6
205.849	31.74
206.068	74.75
206.287	-7.17
206.505	33.79
206.724	17.41
206.943	-70.65
207.162	76.8
207.381	70.65
207.599	31.74
207.818	50.18
208.037	-11.26
208.255	13.31
208.474	29.7
208.693	23.55
208.911	41.98
209.13	13.31
209.349	3.07
209.567	52.22
209.786	-25.6
210.005	117.76
210.223	13.31
210.442	44.03
210.661	5.12
210.879	-11.26
211.098	-52.22
211.316	-93.18
211.535	-41.98
211.753	17.41
211.972	13.31
212.191	-17.41
212.409	27.65
212.628	-29.7
212.846	29.7
213.065	44.03
213.283	41.98
213.502	13.31
213.72	-5.12
213.938	11.26
214.157	-46.08
214.375	68.61
214.594	-41.98
214.812	46.08
215.031	-33.79
215.249	15.36
215.467	-25.6
215.686	58.37
215.904	25.6
216.122	41.98
216.341	52.22
216.559	52.22
216.778	5.12
216.996	27.65
217.214	-31.74
217.432	-5.12
217.651	52.22
217.869	91.13
218.087	-15.36
218.306	-3.07
218.524	125.95
218.742	27.65
218.96	76.8
219.179	41.98
219.397	-109.57
219.615	15.36
219.833	35.84
220.051	-19.46
220.27	5.12
220.488	-15.36
220.706	44.03
220.924	-17.41
221.142	50.18
221.36	-37.89
221.578	35.84
221.796	9.22
222.015	41.98
222.233	-25.6
222.451	68.61
222.669	-39.94
222.887	74.75
223.105	33.79
223.323	35.84
223.541	9.22
223.759	-44.03
223.977	52.22
224.195	70.65
224.413	66.56
224.631	33.79
224.849	-7.17
225.067	97.28
225.285	-39.94
225.503	7.17
225.721	19.46
225.939	68.61
226.157	72.7
226.375	23.55
226.592	-25.6
226.81	-9.22
227.028	80.89
227.246	-1.02
227.464	19.46
227.682	-13.31
227.9	33.79
228.117	62.46
228.335	78.85
228.553	58.37
228.771	48.13
228.989	17.41
229.206	-19.46
229.424	9.22
229.642	39.94
229.86	-13.31
230.077	68.61
230.295	25.6
230.513	1.02
230.731	68.61
230.948	-56.32
231.166	99.33
231.384	-11.26
231.601	23.55
231.819	56.32
232.037	-9.22
232.254	-9.22
232.472	-29.7
232.689	-11.26
232.907	37.89
233.125	-3.07
233.342	9.22
233.56	-1.02
233.777	-37.89
233.995	46.08
234.213	-1.02
234.43	41.98
234.648	60.42
234.865	-29.7
235.083	72.7
235.3	76.8
235.518	54.27
235.735	19.46
235.953	62.46
236.17	7.17
236.388	7.17
236.605	19.46
236.822	50.18
237.04	23.55
237.257	-9.22
237.475	7.17
237.692	41.98
237.909	25.6
238.127	29.7
238.344	29.7
238.562	1.02
238.779	-48.13
238.996	62.46
239.214	25.6
239.431	-7.17
239.648	-29.7
239.865	9.22
240.083	-44.03
240.3	76.8
240.517	-66.56
240.735	54.27
240.952	113.66
241.169	144.38
241.386	-15.36
241.603	-21.5
241.821	7.17
242.038	39.94
242.255	44.03
242.472	-29.7
242.689	-3.07
242.907	13.31
243.124	48.13
243.341	5.12
243.558	11.26
243.775	-13.31
243.992	-7.17
244.209	44.03
244.426	107.52
244.643	-7.17
244.86	-7.17
245.078	52.22
245.295	54.27
245.512	35.84
245.729	54.27
245.946	21.5
246.163	33.79
246.38	35.84
246.597	9.22
246.814	19.46
247.031	-17.41
247.248	41.98
247.464	31.74
247.681	-68.61
247.898	46.08
248.115	31.74
248.332	-25.6
248.549	-39.94
248.766	13.31
248.983	19.46
249.2	11.26
249.417	9.22
249.633	-3.07
249.85	31.74
250.067	78.85
250.284	44.03
250.501	25.6
250.717	76.8
250.934	52.22
251.151	-1.02
251.368	27.65
251.585	11.26
251.801	-25.6
252.018	15.36
252.235	-15.36
252.451	48.13
252.668	-29.7
252.885	58.37
253.102	-27.65
253.318	19.46
253.535	13.31
253.752	74.75
253.968	54.27
254.185	-11.26
254.401	13.31
254.618	48.13
254.835	17.41
255.051	68.61
255.268	44.03
255.484	37.89
255.701	48.13
255.917	64.51
256.134	15.36
256.351	58.37
256.567	3.07
256.784	31.74
257	-11.26
257.217	7.17
257.433	15.36
257.65	50.18
257.866	109.57
258.082	37.89
258.299	11.26
258.515	33.79
258.732	140.29
258.948	-21.5
259.165	17.41
259.381	-25.6
259.597	3.07
259.814	54.27
260.03	13.31
260.246	44.03
260.463	44.03
260.679	25.6
260.895	44.03
261.112	48.13
261.328	48.13
261.544	-5.12
261.761	95.23
261.977	-3.07
262.193	41.98
262.409	25.6
262.626	19.46
262.842	48.13
263.058	3.07
263.274	37.89
263.49	60.42
263.707	70.65
263.923	52.22
264.139	-31.74
264.355	1.02
264.571	25.6
264.787	-7.17
265.004	11.26
265.22	27.65
265.436	111.61
265.652	35.84
265.868	93.18
266.084	-5.12
266.3	13.31
266.516	44.03
266.732	3.07
266.948	46.08
267.164	-3.07
267.38	109.57
267.596	62.46
267.812	-11.26
268.028	99.33
268.244	-13.31
268.46	80.89
268.676	17.41
268.892	76.8
269.108	-5.12
269.324	101.37
269.54	29.7
269.756	19.46
269.972	-19.46
270.188	37.89
270.403	11.26
270.619	-54.27
270.835	70.65
271.051	7.17
271.267	-1.02
271.483	-39.94
271.698	54.27
271.914	111.61
272.13	35.84
272.346	-56.32
272.562	-41.98
272.777	54.27
272.993	11.26
273.209	60.42
273.425	-3.07
273.64	-15.36
273.856	95.23
274.072	62.46
274.287	33.79
274.503	33.79
274.719	76.8
274.934	29.7
275.15	29.7
275.366	58.37
275.581	-11.26
275.797	70.65
276.012	78.85
276.228	27.65
276.444	-35.84
276.659	87.04
276.875	-5.12
277.09	11.26
277.306	-9.22
277.521	11.26
277.737	25.6
277.952	29.7
278.168	-62.46
278.383	31.74
278.599	23.55
278.814	19.46
279.03	35.84
279.245	136.19
279.461	31.74
279.676	13.31
279.892	-27.65
280.107	-13.31
280.322	39.94
280.538	58.37
280.753	54.27
280.969	-7.17
281.184	5.12
281.399	97.28
281.615	-1.02
281.83	19.46
282.045	-74.75
282.26	-3.07
282.476	23.55
282.691	-19.46
282.906	35.84
283.122	-29.7
283.337	-19.46
283.552	52.22
283.767	33.79
283.983	70.65
284.198	-1.02
284.413	58.37
284.628	-19.46
284.843	31.74
285.058	46.08
285.274	66.56
285.489	-70.65
285.704	-1.02
285.919	23.55
286.134	13.31
286.349	-3.07
286.564	9.22
286.779	41.98
286.995	107.52
287.21	27.65
287.425	56.32
287.64	13.31
287.855	27.65
288.07	-46.08
288.285	21.5
288.5	23.55
288.715	119.81
288.93	19.46
289.145	11.26
289.36	-39.94
289.575	78.85
289.79	-7.17
290.004	-15.36
290.219	84.99
290.434	50.18
290.649	25.6
290.864	70.65
291.079	27.65
291.294	1.02
291.509	-15.36
291.724	-1.02
291.938	5.12
292.153	39.94
292.368	1.02
292.583	13.31
292.798	31.74
293.012	39.94
293.227	-50.18
293.442	25.6
293.657	76.8
293.871	68.61
294.086	-1.02
294.301	44.03
294.516	62.46
294.73	13.31
294.945	3.07
295.16	35.84
295.374	64.51
295.589	64.51
295.804	-58.37
296.018	41.98
296.233	41.98
296.447	3.07
296.662	9.22
296.877	68.61
297.091	-7.17
297.306	66.56
297.52	-3.07
297.735	-7.17
297.949	3.07
298.164	-5.12
298.378	58.37
298.593	19.46
298.807	35.84
299.022	-17.41
299.236	105.47
299.451	84.99
299.665	-58.37
299.88	27.65
300.094	89.09
300.309	58.37
300.523	11.26
300.737	58.37
300.952	-3.07
301.166	17.41
301.381	74.75
301.595	-5.12
301.809	11.26
302.024	31.74
302.238	84.99
302.452	66.56
302.667	37.89
302.881	84.99
303.095	33.79
303.309	21.5
303.524	50.18
303.738	39.94
303.952	58.37
304.166	-1.02
304.381	-13.31
304.595	56.32
304.809	17.41
305.023	39.94
305.237	54.27
305.452	23.55
305.666	-1.02
305.88	50.18
306.094	27.65
306.308	19.46
306.522	5.12
306.736	80.89
306.95	19.46
307.164	58.37
307.379	62.46
307.593	132.09
307.807	54.27
308.021	52.22
308.235	19.46
308.449	21.5
308.663	3.07
308.877	37.89
309.091	46.08
309.305	25.6
309.519	33.79
309.733	89.09
309.947	-39.94
310.161	50.18
310.374	-15.36
310.588	25.6
310.802	-29.7
311.016	101.37
311.23	23.55
311.444	9.22
311.658	-13.31
311.872	84.99
312.085	50.18
312.299	35.84
312.513	35.84
312.727	37.89
312.941	-44.03
313.154	1.02
313.368	-23.55
313.582	31.74
313.796	41.98
314.009	9.22
314.223	74.75
314.437	-9.22
314.651	-21.5
314.864	52.22
315.078	7.17
315.292	62.46
315.505	5.12
315.719	-19.46
315.933	31.74
316.146	19.46
316.36	72.7
316.573	46.08
316.787	58.37
317.001	35.84
317.214	25.6
317.428	39.94
317.641	7.17
317.855	-35.84
318.068	44.03
318.282	-9.22
318.495	15.36
318.709	35.84
318.922	23.55
319.136	54.27
319.349	29.7
319.563	13.31
319.776	5.12
319.99	1.02
320.203	113.66
320.417	64.51
320.63	41.98
320.843	84.99
321.057	29.7
321.27	41.98
321.483	-11.26
321.697	107.52
321.91	91.13
322.124	52.22
322.337	31.74
322.55	-33.79
322.763	-74.75
322.977	11.26
323.19	5.12
323.403	33.79
323.617	5.12
323.83	64.51
324.043	66.56
324.256	11.26
324.469	29.7
324.683	35.84
324.896	29.7
325.109	62.46
325.322	56.32
325.535	3.07
325.748	78.85
325.962	60.42
326.175	56.32
326.388	11.26
326.601	5.12
326.814	27.65
327.027	13.31
327.24	27.65
327.453	7.17
327.666	87.04
327.879	44.03
328.092	19.46
328.305	27.65
328.518	54.27
328.731	-60.42
328.944	31.74
329.157	-9.22
329.37	78.85
329.583	44.03
329.796	93.18
330.009	74.75
330.222	-13.31
330.435	29.7
330.648	107.52
330.861	-19.46
331.073	128
331.286	-21.5
331.499	58.37
331.712	-1.02
331.925	27.65
332.138	23.55
332.35	19.46
332.563	-9.22
332.776	11.26
332.989	-142.33
333.202	23.55
333.414	93.18
333.627	99.33
333.84	23.55
334.053	31.74
334.265	-1.02
334.478	62.46
334.691	58.37
334.903	15.36
335.116	31.74
335.329	23.55
335.541	62.46
335.754	48.13
335.966	-23.55
336.179	-1.02
336.392	84.99
336.604	25.6
336.817	78.85
337.029	-1.02
337.242	56.32
337.454	111.61
337.667	-7.17
337.88	39.94
338.092	35.84
338.305	93.18
338.517	11.26
338.729	7.17
338.942	29.7
339.154	56.32
339.367	15.36
339.579	89.09
339.792	23.55
340.004	21.5
340.217	56.32
340.429	84.99
340.641	31.74
340.854	62.46
341.066	35.84
341.278	19.46
341.491	-39.94
341.703	-1.02
341.915	41.98
342.128	35.84
342.34	74.75
342.552	78.85
342.764	23.55
342.977	13.31
343.189	48.13
343.401	27.65
343.613	-27.65
343.826	-33.79
344.038	1.02
344.25	11.26
344.462	82.94
344.674	113.66
344.886	5.12
345.099	39.94
345.311	-15.36
345.523	-64.51
345.735	7.17
345.947	-13.31
346.159	56.32
346.371	31.74
346.583	-9.22
346.795	3.07
347.007	37.89
347.219	-3.07
347.431	19.46
347.643	17.41
347.855	1.02
348.067	9.22
348.279	25.6
348.491	-39.94
348.703	-31.74
348.915	70.65
349.127	17.41
349.339	68.61
349.551	62.46
349.763	27.65
349.975	-13.31
350.187	29.7
350.399	33.79
350.61	-3.07
350.822	-29.7
351.034	23.55
351.246	13.31
351.458	52.22
351.669	95.23
351.881	23.55
352.093	17.41
352.305	39.94
352.517	19.46
352.728	113.66
352.94	48.13
353.152	62.46
353.363	-46.08
353.575	91.13
353.787	99.33
353.999	31.74
354.21	82.94
354.422	37.89
354.633	-19.46
354.845	52.22
355.057	-1.02
355.268	52.22
355.48	-60.42
355.692	58.37
355.903	74.75
356.115	27.65
356.326	39.94
356.538	89.09
356.749	117.76
356.961	99.33
357.172	7.17
357.384	39.94
357.595	21.5
357.807	21.5
358.018	25.6
358.23	-9.22
358.441	35.84
358.653	62.46
358.864	-80.89
359.075	15.36
359.287	62.46
359.498	23.55
359.709	13.31
359.921	46.08
360.132	-23.55
360.344	25.6
360.555	35.84
360.766	-21.5
360.977	-11.26
361.189	48.13
361.4	44.03
361.611	-3.07
361.823	41.98
362.034	5.12
362.245	19.46
362.456	39.94
362.667	68.61
362.879	93.18
363.09	19.46
363.301	19.46
363.512	95.23
363.723	35.84
363.935	15.36
364.146	68.61
364.357	3.07
364.568	46.08
364.779	5.12
364.99	58.37
365.201	27.65
365.412	64.51
365.623	39.94
365.834	-9.22
366.045	23.55
366.256	50.18
366.467	41.98
366.678	27.65
366.889	58.37
367.1	-35.84
367.311	29.7
367.522	35.84
367.733	31.74
367.944	72.7
368.155	-1.02
368.366	64.51
368.577	54.27
368.788	44.03
368.999	41.98
369.209	62.46
369.42	33.79
369.631	29.7
369.842	84.99
370.053	19.46
370.264	15.36
370.474	11.26
370.685	35.84
370.896	37.89
371.107	-1.02
371.317	60.42
371.528	19.46
371.739	54.27
371.95	-13.31
372.16	-60.42
372.371	29.7
372.582	-17.41
372.792	41.98
373.003	23.55
373.214	76.8
373.424	23.55
373.635	64.51
373.846	23.55
374.056	27.65
374.267	119.81
374.477	70.65
374.688	54.27
374.898	64.51
375.109	25.6
375.319	5.12
375.53	50.18
375.74	62.46
375.951	70.65
376.161	29.7
376.372	41.98
376.582	-11.26
376.793	-27.65
377.003	19.46
377.214	107.52
377.424	-1.02
377.635	7.17
377.845	54.27
378.055	25.6
378.266	39.94
378.476	87.04
378.686	74.75
378.897	11.26
379.107	-11.26
379.317	41.98
379.528	-3.07
379.738	-1.02
379.948	15.36
380.158	44.03
380.369	15.36
380.579	5.12
380.789	64.51
380.999	50.18
381.21	-11.26
381.42	109.57
381.63	46.08
381.84	46.08
382.05	29.7
382.261	62.46
382.471	91.13
382.681	37.89
382.891	21.5
383.101	-7.17
383.311	33.79
383.521	27.65
383.731	33.79
383.941	15.36
384.151	-5.12
384.361	121.85
384.571	105.47
384.781	46.08
384.991	27.65
385.201	93.18
385.411	78.85
385.621	58.37
385.831	-1.02
386.041	23.55
386.251	105.47
386.461	-15.36
386.671	-33.79
386.881	95.23
387.091	93.18
387.301	82.94
387.511	15.36
387.72	19.46
387.93	11.26
388.14	25.6
388.35	27.65
388.56	111.61
388.769	29.7
388.979	-44.03
389.189	-5.12
389.399	105.47
389.609	17.41
389.818	7.17
390.028	39.94
390.238	50.18
390.447	39.94
390.657	39.94
390.867	-7.17
391.076	-23.55
391.286	91.13
391.496	35.84
391.705	64.51
391.915	64.51
392.125	78.85
392.334	1.02
392.544	68.61
392.753	54.27
392.963	-15.36
393.172	50.18
393.382	66.56
393.591	70.65
393.801	58.37
394.01	39.94
394.22	11.26
394.429	89.09
394.639	50.18
394.848	101.37
395.058	23.55
395.267	58.37
395.477	72.7
395.686	66.56
395.895	60.42
396.105	115.71
396.314	84.99
396.524	37.89
396.733	134.14
396.942	66.56
397.152	80.89
397.361	148.48
397.57	5.12
397.78	48.13
397.989	80.89
398.198	111.61
398.407	15.36
398.617	17.41
398.826	76.8
399.035	58.37
399.244	48.13
399.453	41.98
399.663	80.89
399.872	103.42
400.081	41.98
400.29	113.66
400.499	66.56
400.708	64.51
400.917	17.41
401.127	9.22
401.336	41.98
401.545	144.38
401.754	209.92
401.963	121.85
402.172	17.41
402.381	80.89
402.59	-5.12
402.799	72.7
403.008	150.53
403.217	144.38
403.426	84.99
403.635	82.94
403.844	27.65
404.053	150.53
404.262	156.67
404.471	160.77
404.68	111.61
404.888	27.65
405.097	125.95
405.306	99.33
405.515	111.61
405.724	54.27
405.933	97.28
406.142	113.66
406.35	121.85
406.559	134.14
406.768	93.18
406.977	109.57
407.185	119.81
407.394	132.09
407.603	58.37
407.812	166.91
408.02	250.88
408.229	175.1
408.438	185.34
408.646	113.66
408.855	125.95
409.064	242.68
409.272	197.63
409.481	222.2
409.69	187.39
409.898	177.15
410.107	242.68
410.315	228.35
410.524	263.16
410.733	316.41
410.941	220.16
411.15	273.4
411.358	263.16
411.567	234.49
411.775	357.37
411.984	273.4
412.192	273.4
412.401	289.79
412.609	431.1
412.818	289.79
413.026	355.32
413.234	418.81
413.443	461.82
413.651	379.9
413.86	510.97
414.068	375.8
414.276	402.43
414.485	474.1
414.693	476.15
414.901	457.72
415.11	474.1
415.318	431.1
415.526	500.73
415.734	646.13
415.943	549.88
416.151	580.6
416.359	642.04
416.567	594.93
416.776	603.13
416.984	650.23
417.192	752.63
417.4	736.24
417.608	631.8
417.817	650.23
418.025	805.88
418.233	805.88
418.441	836.6
418.649	967.67
418.857	932.85
419.065	951.28
419.273	881.65
419.481	988.14
419.689	1031.15
419.897	1045.49
420.105	1094.64
420.313	1106.93
420.521	1240.05
420.729	1186.8
420.937	1176.56
421.145	1188.85
421.353	1252.33
421.561	1399.79
421.769	1489.9
421.977	1514.47
422.185	1410.03
422.393	1657.83
422.601	1532.9
422.809	1608.68
423.017	1629.16
423.224	1713.13
423.432	1807.33
423.64	1848.29
423.848	1940.45
424.056	1866.72
424.263	1938.4
424.471	2092
424.679	2104.29
424.887	2184.16
425.094	2202.59
425.302	2300.89
425.51	2255.84
425.718	2374.62
425.925	2491.35
426.133	2507.74
426.341	2687.96
426.548	2755.54
426.756	2718.68
426.964	2835.41
427.171	2937.81
427.379	3019.73
427.586	3128.27
427.794	3181.52
428.001	3421.13
428.209	3550.15
428.417	3455.95
428.624	3726.28
428.832	3576.78
429.039	3685.32
429.247	3754.95
429.454	4008.9
429.662	4240.32
429.869	3980.23
430.076	4357.05
430.284	4121.54
430.491	4410.3
430.699	4694.97
430.906	4598.71
431.114	4694.97
431.321	4748.22
431.528	4918.2
431.736	5307.31
431.943	5505.96
432.15	5264.3
432.358	5401.52
432.565	5639.08
432.772	5655.47
432.979	5886.89
433.187	6093.73
433.394	6200.23
433.601	6667.16
433.808	6495.13
434.016	6357.92
434.223	6644.63
434.43	7256.98
434.637	6871.96
434.844	7406.48
435.052	7539.6
435.259	7721.87
435.466	7519.12
435.673	7543.69
435.88	7977.86
436.087	8469.37
436.294	8614.78
436.501	8393.6
436.708	8375.17
436.915	8780.67
437.122	9165.68
437.329	9059.19
437.537	9497.46
437.743	9626.48
437.95	9509.74
438.157	9861.99
438.364	10216.29
438.571	10349.41
438.778	10312.55
438.985	11318.1
439.192	10746.72
439.399	11248.47
439.606	10818.39
439.813	11549.52
440.02	12211.01
440.227	12098.38
440.433	11965.26
440.64	12254.02
440.847	12006.22
441.054	12458.82
441.261	13294.39
441.467	13300.53
441.674	13445.94
441.881	14043.95
442.088	14220.07
442.294	14037.8
442.501	14181.16
442.708	14320.42
442.914	15039.26
443.121	15596.31
443.328	15364.89
443.534	16268.04
443.741	15844.11
443.948	15559.44
444.154	16923.39
444.361	16755.46
444.568	16829.18
444.774	16753.41
444.981	17212.15
445.187	17396.47
445.394	18094.83
445.6	18047.72
445.807	19905.23
446.013	18844.38
446.22	19329.75
446.426	20210.38
446.633	20062.93
446.839	20644.55
447.046	19983.06
447.252	21148.35
447.459	21516.98
447.665	20845.25
447.871	21985.97
448.078	22835.88
448.284	21920.43
448.491	22549.16
448.697	23614.1
448.903	23917.2
449.11	24068.75
449.316	23161.5
449.522	23904.92
449.728	24683.14
449.935	24748.68
450.141	24691.34
450.347	25287.29
450.553	24142.48
450.76	25078.4
450.966	25737.85
451.172	25272.96
451.378	25692.79
451.584	25705.08
451.791	25879.16
451.997	25967.22
452.203	26727.02
452.409	26477.16
452.615	26153.58
452.821	25270.91
453.027	25168.51
453.233	26313.33
453.44	25418.36
453.646	25547.39
453.852	25592.44
454.058	26368.62
454.264	25418.36
454.47	25838.2
454.676	25248.38
454.882	26378.86
455.088	24013.46
455.294	24492.68
455.5	24380.04
455.705	24863.36
455.911	23894.68
456.117	23464.6
456.323	23206.56
456.529	21842.61
456.735	22620.84
456.941	22125.23
457.147	21406.39
457.352	21013.18
457.558	21187.26
457.764	20837.06
457.97	20638.41
458.176	20189.9
458.381	20237
458.587	19434.2
458.793	19239.64
458.999	18043.63
459.204	19552.98
459.41	18864.86
459.616	17836.78
459.821	17697.52
460.027	17738.48
460.233	17109.75
460.438	16352.01
460.644	16466.69
460.85	15790.86
461.055	15481.62
461.261	15774.48
461.466	14328.61
461.672	13882.16
461.878	14965.53
462.083	13945.64
462.289	13916.97
462.494	13650.74
462.7	12901.18
462.905	12477.25
463.111	13128.5
463.316	13116.22
463.522	12602.18
463.727	12954.43
463.932	12780.35
464.138	12745.53
464.343	12718.91
464.549	12342.08
464.754	12780.35
464.959	12745.53
465.165	12518.21
465.37	12110.66
465.575	11660.11
465.781	12335.94
465.986	12227.4
466.191	11795.28
466.397	11627.34
466.602	10916.7
466.807	11359.06
467.012	11629.39
467.218	11522.9
467.423	11295.57
467.628	11361.11
467.833	11694.93
468.038	11152.21
468.244	11012.95
468.449	11625.29
468.654	11199.32
468.859	10971.99
469.064	10910.55
469.269	10437.47
469.474	10593.12
469.679	10797.92
469.885	10566.49
470.09	10865.5
470.295	10716
470.5	10394.47
470.705	10408.8
470.91	10089.32
471.115	10156.9
471.32	10238.82
471.525	10206.05
471.73	9958.25
471.935	9796.46
472.139	9689.96
472.344	9769.83
472.549	9612.14
472.754	9507.69
472.959	9362.29
473.164	8997.75
473.369	8981.37
473.574	9448.3
473.778	9200.5
473.983	9116.53
474.188	9196.4
474.393	8815.48
474.598	8874.87
474.802	8604.54
475.007	8516.48
475.212	8805.24
475.417	8233.86
475.621	8188.8
475.826	8350.59
476.031	8334.21
476.235	8027.01
476.44	8209.28
476.645	8020.87
476.849	8119.17
477.054	7732.11
477.259	7928.71
477.463	7654.28
477.668	7732.11
477.872	7646.09
478.077	7592.84
478.282	7439.25
478.486	7345.04
478.691	7263.12
478.895	7154.58
479.1	7195.54
479.304	7130
479.509	6980.5
479.713	7183.25
479.918	7082.9
480.122	7058.32
480.326	6935.45
480.531	6919.06
480.735	6837.14
480.94	6966.17
481.144	7087
481.348	6654.87
481.553	6847.38
481.757	6732.7
481.961	6781.85
482.166	6810.52
482.37	6693.79
482.574	6499.23
482.778	6673.31
482.983	6757.27
483.187	6732.7
483.391	6865.82
483.595	6589.34
483.8	6599.58
484.004	6773.66
484.208	6833.05
484.412	6626.2
484.616	6677.4
484.821	6794.14
485.025	6603.68
485.229	6613.92
485.433	6618.01
485.637	6634.39
485.841	6636.44
486.045	6583.2
486.249	6808.47
486.453	6628.25
486.657	6636.44
486.861	6605.72
487.065	6407.07
487.269	6753.18
487.473	6493.08
487.677	6495.13
487.881	6798.23
488.085	6656.92
488.289	6744.99
488.493	6783.9
488.697	6769.56
488.901	6493.08
489.105	6710.17
489.309	6740.89
489.512	6855.58
489.716	6691.74
489.92	6720.41
490.124	6833.05
490.328	6749.08
490.531	6861.72
490.735	6974.36
490.939	7033.75
491.143	6941.59
491.346	6839.19
491.55	7074.71
491.754	6966.17
491.958	7238.55
492.161	7035.8
492.365	7060.37
492.569	7117.72
492.772	7146.39
492.976	7279.5
493.18	7261.07
493.383	6910.87
493.587	7230.35
493.79	7429.01
493.994	7320.46
494.197	7293.84
494.401	7474.06
494.605	7529.36
494.808	7482.25
495.012	7613.32
495.215	7590.8
495.419	7764.87
495.622	7611.28
495.825	7795.59
496.029	7629.71
496.232	7900.04
496.436	7906.18
496.639	8244.1
496.843	8039.3
497.046	8145.8
497.249	8487.81
497.453	8313.73
497.656	8508.29
497.859	8369.02
498.063	8373.12
498.266	8686.46
498.469	8663.93
498.673	8702.84
498.876	8774.52
499.079	9020.28
499.282	8805.24
499.485	9237.36
499.689	9255.79
499.892	9319.28
500.095	9313.14
500.298	9544.56
500.501	9657.2
500.705	9823.08
500.908	10074.98
501.111	9976.68
501.314	10216.29
501.517	10087.27
501.72	10349.41
501.923	10320.74
502.126	10617.69
502.329	10705.76
502.532	10773.34
502.735	10623.84
502.938	10992.47
503.141	10945.37
503.344	11135.83
503.547	11340.63
503.75	11563.86
503.953	11492.18
504.156	11639.63
504.359	11670.35
504.562	11909.96
504.765	12397.38
504.968	12235.59
505.17	12321.6
505.373	12366.66
505.576	12524.35
505.779	12512.07
505.982	12714.81
506.185	13060.92
506.387	12987.19
506.59	13245.24
506.793	13351.73
506.996	13247.29
507.198	13757.23
507.401	13642.54
507.604	13902.64
507.807	14070.57
508.009	14164.78
508.212	14285.61
508.415	14471.97
508.617	14566.18
508.82	14660.38
509.022	14662.43
509.225	15225.62
509.428	15282.97
509.63	15362.84
509.833	15364.89
510.035	15823.63
510.238	15819.53
510.44	16192.26
510.643	16116.49
510.845	16177.93
511.048	16200.46
511.25	16560.9
511.453	16845.57
511.655	17201.91
511.858	16986.88
512.06	17337.08
512.262	17357.56
512.465	17629.94
512.667	17683.19
512.87	17904.37
513.072	17883.89
513.274	18195.18
513.477	18322.15
513.679	18526.95
513.881	18774.75
514.084	19088.09
514.286	18760.42
514.488	19032.8
514.69	19276.51
514.893	19817.17
515.095	19808.98
515.297	19757.78
515.499	19935.95
515.701	20472.52
515.904	20470.47
516.106	20771.52
516.308	20982.46
516.51	20951.74
516.712	21263.04
516.914	21246.65
517.116	21557.94
517.318	21686.97
517.52	21861.04
517.722	22063.79
517.925	22342.32
518.127	22532.78
518.329	22651.56
518.531	22272.68
518.733	23009.95
518.935	23378.59
519.136	23274.14
519.338	23712.41
519.54	23528.09
519.742	23861.91
519.944	24162.96
520.146	24330.89
520.348	24623.75
520.55	24720.01
520.752	24885.89
520.954	25283.2
521.155	24986.24
521.357	25692.79
521.559	26016.37
521.761	25807.48
521.963	26018.42
522.164	25778.81
522.366	26051.19
522.568	26483.31
522.77	26851.94
522.971	26966.63
523.173	27066.98
523.375	27222.62
523.576	27277.92
523.778	27255.39
523.98	27695.71
524.181	27982.42
524.383	28285.52
524.584	28375.63
524.786	28248.66
524.988	28488.27
525.189	28643.91
525.391	28932.68
525.592	28873.29
525.794	29467.2
525.995	29004.36
526.197	29022.79
526.398	29555.26
526.6	29581.88
526.801	29897.27
527.003	29733.43
527.204	29966.9
527.406	30251.57
527.607	30028.34
527.808	30403.12
528.01	30302.77
528.211	30155.32
528.412	31124.01
528.614	30851.63
528.815	30747.18
529.016	31019.56
529.218	30868.01
529.419	31113.77
529.62	31109.67
529.822	31042.09
530.023	31097.38
530.224	31244.84
530.425	31461.92
530.626	31257.12
530.828	31416.86
531.029	31969.82
531.23	31556.13
531.431	31592.99
531.632	31633.95
531.833	31523.36
532.035	31531.55
532.236	31900.19
532.437	32244.24
532.638	31742.49
532.839	32207.38
533.04	32113.17
533.241	31883.8
533.442	32340.5
533.643	32027.16
533.844	32344.59
534.045	32358.93
534.246	32191
534.447	32629.26
534.648	32131.61
534.849	32469.52
535.05	32125.46
535.251	32633.36
535.451	32305.68
535.652	32129.56
535.853	32422.42
536.054	32528.91
536.255	32446.99
536.456	32041.5
536.657	33088.01
536.857	32317.97
537.058	32176.66
537.259	32688.65
537.46	32227.86
537.66	32391.7
537.861	32707.08
538.062	32461.33
538.263	32504.34
538.463	32502.29
538.664	32367.12
538.865	32559.63
539.065	32674.32
539.266	32424.47
539.466	32662.03
539.667	32690.7
539.868	32649.74
540.068	32328.21
540.269	32309.78
540.469	32762.38
540.67	32248.34
540.87	32614.93
541.071	32373.27
541.271	32524.82
541.472	32518.67
541.672	32162.33
541.873	32367.12
542.073	31894.04
542.274	32748.04
542.474	32307.73
542.675	32389.65
542.875	32731.66
543.075	32487.95
543.276	32039.45
543.476	32610.83
543.676	32500.24
543.877	32504.34
544.077	32715.28
544.277	32506.38
544.478	32500.24
544.678	32465.42
544.878	32737.8
545.078	32102.93
545.279	32051.73
545.479	32117.27
545.679	32373.27
545.879	32541.2
546.079	32379.41
546.28	32147.99
546.48	32471.57
546.68	32115.22
546.88	32324.11
547.08	32602.64
547.28	32653.84
547.48	31760.92
547.68	32436.75
547.88	32209.43
548.081	32772.62
548.281	32512.53
548.481	31740.44
548.681	32326.16
548.881	32201.24
549.081	32360.98
549.28	32295.44
549.48	32735.76
549.68	32215.57
549.88	32166.42
550.08	31996.44
550.28	32426.51
550.48	31902.23
550.68	32393.75
550.88	32061.97
551.08	32301.59
551.279	32393.75
551.479	31810.07
551.679	32373.27
551.879	32119.32
552.079	32545.3
552.278	32174.61
552.478	32096.79
552.678	32025.11
552.878	32309.78
553.077	31904.28
553.277	31781.4
553.477	32207.38
553.676	32121.37
553.876	32201.24
554.076	31963.67
554.275	32129.56
554.475	31578.65
554.674	32227.86
554.874	32057.88
555.074	31791.64
555.273	31687.2
555.473	31924.76
555.672	31746.59
555.872	31891.99
556.071	31820.31
556.271	32213.52
556.47	31883.8
556.67	31357.47
556.869	31588.89
557.068	31824.41
557.268	31447.58
557.467	31453.73
557.667	31805.98
557.866	31697.44
558.065	31418.91
558.265	31328.8
558.464	30984.74
558.663	31646.24
558.863	30951.98
559.062	31748.64
559.261	30906.92
559.461	31351.33
559.66	30677.55
559.859	31017.51
560.058	30954.02
560.258	31132.2
560.457	30730.8
560.656	30980.65
560.855	31095.33
561.054	30929.45
561.253	30673.45
561.453	30777.9
561.652	30669.36
561.851	31105.57
562.05	30675.5
562.249	30339.63
562.448	30675.5
562.647	30401.07
562.846	30224.95
563.045	30583.34
563.244	30110.26
563.443	30734.89
563.642	29790.78
563.841	30050.87
564.04	29823.54
564.239	30118.45
564.438	29782.59
564.637	29794.87
564.836	30235.19
565.035	29567.55
565.234	29620.8
565.432	29344.32
565.631	29348.42
565.83	29561.4
566.029	29456.96
566.228	29307.46
566.427	29205.06
566.625	28994.12
566.824	28652.11
567.023	29303.36
567.222	28727.88
567.42	29137.48
567.619	28861
567.818	28930.63
568.016	28838.47
568.215	28676.68
568.414	28795.46
568.612	28537.42
568.811	28752.46
569.01	28148.31
569.208	27757.14
569.407	28365.39
569.605	28156.5
569.804	28195.41
570.002	27873.88
570.201	28127.83
570.4	27839.06
570.598	27591.26
570.797	27337.31
570.995	27513.44
571.193	27376.22
571.392	27640.41
571.59	27105.89
571.789	27372.13
571.987	27249.25
572.186	27400.8
572.384	26987.11
572.582	27048.55
572.781	27097.7
572.979	26810.98
573.177	26888.81
573.376	27093.6
573.574	26600.04
573.772	26552.94
573.971	26421.87
574.169	26198.64
574.367	26047.09
574.565	26370.67
574.763	26514.03
574.962	26468.97
575.16	25805.43
575.358	26378.86
575.556	25954.93
575.754	26315.37
575.952	25533.05
576.151	26010.23
576.349	25490.04
576.547	25504.38
576.745	25750.14
576.943	25567.87
577.141	25506.43
577.339	25381.5
577.537	25205.38
577.735	25221.76
577.933	24853.12
578.131	25481.85
578.329	24885.89
578.527	24627.85
578.725	24926.85
578.923	24707.72
579.121	24824.45
579.319	24498.83
579.516	24982.15
579.714	24681.1
579.912	24586.89
580.11	24492.68
580.308	24396.43
580.506	24543.88
580.704	23935.63
580.901	24441.48
581.099	24347.28
581.297	23784.09
581.495	23743.13
581.692	23831.19
581.89	23931.54
582.088	24074.9
582.285	23665.3
582.483	24076.94
582.681	23829.14
582.878	23896.72
583.076	23132.83
583.274	23507.61
583.471	23204.51
583.669	23165.6
583.866	23415.45
584.064	23181.98
584.262	22827.68
584.459	23020.19
584.657	23112.35
584.854	23157.41
585.052	22561.45
585.249	23028.38
585.447	22907.55
585.644	22602.41
585.841	22555.3
586.039	22846.12
586.236	22037.17
586.434	22520.49
586.631	22434.47
586.828	22454.95
587.026	22196.91
587.223	22334.12
587.42	22178.48
587.618	22088.37
587.815	21832.37
588.012	21834.42
588.21	21603
588.407	21942.96
588.604	21496.5
588.801	21668.53
588.999	21707.44
589.196	21414.59
589.393	21349.05
589.59	21349.05
589.787	21383.87
589.984	21203.64
590.182	21154.49
590.379	21326.52
590.576	20939.46
590.773	21078.72
590.97	20810.43
591.167	21035.71
591.364	20718.28
591.561	21037.76
591.758	20433.61
591.955	20503.24
592.152	20685.51
592.349	20521.67
592.546	20548.29
592.743	20456.14
592.94	20067.02
593.137	20669.12
593.334	20445.9
593.531	20003.53
593.727	20202.19
593.924	20220.62
594.121	19948.24
594.318	20128.46
594.515	19690.2
594.712	20030.16
594.908	19725.01
595.105	19628.76
595.302	19849.94
595.499	19628.76
595.696	19505.88
595.892	19409.62
596.089	19636.95
596.286	19444.44
596.482	19268.31
596.679	19206.87
596.876	19081.95
597.072	19225.31
597.269	19000.03
597.466	19219.16
597.662	19008.22
597.859	19186.4
598.055	18909.92
598.252	18721.51
598.448	18928.35
598.645	18746.08
598.841	18615.01
599.038	18545.38
599.234	18529
599.431	18561.76
599.627	18291.43
599.824	18445.03
600.02	18223.85
600.217	18348.78
600.413	18066.16
600.609	17933.04
600.806	17961.71
601.002	18148.08
601.198	17945.33
601.395	17982.19
601.591	17752.82
601.787	17685.23
601.984	17787.63
602.18	18017.01
602.376	17728.24
602.572	17736.43
602.769	17603.32
602.965	17488.63
603.161	17851.12
603.357	17261.3
603.553	17212.15
603.75	17320.7
603.946	17292.02
604.142	17355.51
604.338	17052.41
604.534	17136.38
604.73	16937.73
604.926	16827.14
605.122	17064.7
605.318	16864
605.514	16671.49
605.71	16714.5
605.906	16659.2
606.102	17148.67
606.298	16882.43
606.494	16605.95
606.69	16511.75
606.886	16847.61
607.082	16329.48
607.278	16556.8
607.474	16186.12
607.67	16243.46
607.866	16274.18
608.062	16493.32
608.257	16235.27
608.453	16265.99
608.649	16104.2
608.845	15913.74
609.041	16003.85
609.236	16077.58
609.432	15784.72
609.628	15887.12
609.824	16071.43
610.019	15698.7
610.215	15944.46
610.411	15817.49
610.606	15602.45
610.802	15690.51
610.998	15680.27
611.193	15766.29
611.389	15631.12
611.584	15440.66
611.78	15444.76
611.976	15381.27
612.171	15512.34
612.367	15567.63
612.562	15399.7
612.758	15022.87
612.953	15182.62
613.149	15354.65
613.344	15450.9
613.539	15323.93
613.735	15020.83
613.93	15201.05
614.126	15321.88
614.321	15426.32
614.517	15108.89
614.712	15020.83
614.907	14891.8
615.103	15049.5
615.298	14981.92
615.493	15166.23
615.688	14793.5
615.884	15125.27
616.079	15041.31
616.274	14965.53
616.47	14551.84
616.665	14904.09
616.86	14670.62
617.055	14676.77
617.25	14615.33
617.445	14619.42
617.641	14584.61
617.836	14650.14
618.031	14199.59
618.226	14517.03
618.421	14416.68
618.616	14764.83
618.811	14154.54
619.006	14394.15
619.201	13910.83
619.396	14168.87
619.591	13792.05
619.786	14152.49
619.981	13818.67
620.176	14158.63
620.371	13822.77
620.566	13839.15
620.761	13765.42
620.956	13851.44
621.151	13507.38
621.346	13744.94
621.541	13249.33
621.735	13333.3
621.93	13368.12
622.125	13456.18
622.32	13075.26
622.515	13321.01
622.709	13005.63
622.904	13062.97
623.099	13263.67
623.294	12903.23
623.488	12892.99
623.683	12905.28
623.878	12757.82
624.072	12641.09
624.267	12610.37
624.462	12516.16
624.656	12612.42
624.851	12178.25
625.046	12278.6
625.24	12305.22
625.435	12110.66
625.629	12063.56
625.824	11971.4
626.018	12227.4
626.213	11791.18
626.407	11715.41
626.602	11752.27
626.796	11828.04
626.991	11795.28
627.185	11907.91
627.38	11350.87
627.574	11354.96
627.768	11371.35
627.963	11451.22
628.157	11262.8
628.352	11182.93
628.546	10980.18
628.74	11287.38
628.935	11219.8
629.129	11037.53
629.323	10879.83
629.517	10847.07
629.712	10711.9
629.906	10939.23
630.1	10603.36
630.294	10728.28
630.489	10503.01
630.683	10648.41
630.877	10408.8
631.071	10429.28
631.265	10492.77
631.459	10271.59
631.653	10419.04
631.848	10173.28
632.042	10273.64
632.236	9972.58
632.43	10101.61
632.624	10052.45
632.818	10029.93
633.012	9876.33
633.206	9956.2
633.4	9921.38
633.594	10048.36
633.788	9653.1
633.982	9683.82
634.176	9634.67
634.369	9630.57
634.563	9546.61
634.757	9495.41
634.951	9601.9
635.145	9606
635.339	9513.84
635.533	9259.89
635.726	9153.4
635.92	9061.24
636.114	9216.88
636.308	9239.41
636.501	9214.84
636.695	8928.12
636.889	8913.78
637.083	8954.74
637.276	8985.46
637.47	8786.81
637.664	8719.23
637.857	8659.84
638.051	8711.04
638.244	8520.57
638.438	8643.45
638.632	8393.6
638.825	8385.41
639.019	8528.77
639.212	8305.54
639.406	8528.77
639.599	8348.54
639.793	8346.5
639.986	8164.23
640.18	8240
640.373	8033.16
640.567	8012.68
640.76	8129.41
640.954	7914.38
641.147	8039.3
641.34	7998.34
641.534	7904.14
641.727	7936.9
641.92	7883.66
642.114	7754.63
642.307	7648.14
642.5	7738.25
642.694	7504.78
642.887	7572.36
643.08	7703.43
643.273	7658.38
643.467	7521.17
643.66	7429.01
643.853	7375.76
644.046	7451.53
644.239	7152.53
644.432	7222.16
644.626	7228.31
644.819	7162.77
645.012	7211.92
645.205	7236.5
645.398	7130
645.591	7127.96
645.784	7084.95
645.977	7078.8
646.17	6826.9
646.363	6855.58
646.556	6749.08
646.749	6732.7
646.942	6880.15
647.135	6779.8
647.328	6626.2
647.521	6740.89
647.714	6636.44
647.907	6683.55
648.099	6601.63
648.292	6771.61
648.485	6634.39
648.678	6271.9
648.871	6564.76
649.064	6278.05
649.256	6499.23
649.449	6288.29
649.642	6155.17
649.835	6255.52
650.027	6349.73
650.22	6251.42
650.413	6308.77
650.605	6237.09
650.798	5946.28
650.991	5968.8
651.183	6071.2
651.376	5899.17
651.568	6022.05
651.761	5862.31
651.954	5860.26
652.146	5833.64
652.339	5911.46
652.531	5766.06
652.724	5852.07
652.916	5862.31
653.109	5807.02
653.301	5610.41
653.494	5815.21
653.686	5710.76
653.879	5774.25
654.071	5630.89
654.263	5538.73
654.456	5581.74
654.648	5661.61
654.84	5430.19
655.033	5286.83
655.225	5297.07
655.417	5370.8
655.61	5430.19
655.802	5446.57
655.994	5268.4
656.186	5290.93
656.379	5348.27
656.571	5182.38
656.763	5217.2
656.955	5082.03
657.148	5235.63
657.34	5231.54
657.532	5051.31
657.724	5051.31
657.916	5194.67
658.108	5057.46
658.3	5114.8
658.492	4867
658.684	4862.9
658.876	4891.57
659.068	4877.24
659.26	4774.84
659.452	4873.14
659.644	4899.77
659.836	4922.29
660.028	4744.12
660.22	4639.67
660.412	4731.83
660.604	4727.74
660.796	4725.69
660.988	4666.3
661.18	4635.58
661.372	4656.06
661.563	4582.33
661.755	4555.71
661.947	4494.27
662.139	4668.34
662.331	4567.99
662.522	4383.68
662.714	4477.88
662.906	4314.05
663.097	4387.77
663.289	4381.63
663.481	4205.5
663.673	4410.3
663.864	4303.81
664.056	4158.4
664.247	4334.53
664.439	4244.42
664.631	4266.94
664.822	4197.31
665.014	4111.3
665.205	4240.32
665.397	4242.37
665.588	4041.67
665.78	4101.06
665.971	4320.19
666.163	4199.36
666.354	4053.95
666.546	4135.87
666.737	3982.28
666.929	4135.87
667.12	3918.79
667.311	4021.19
667.503	3869.64
667.694	3951.56
667.885	3873.73
668.077	3875.78
668.268	3918.79
668.459	4047.81
668.651	3888.07
668.842	3883.97
669.033	3703.75
669.224	3746.76
669.416	3898.31
669.607	3939.27
669.798	3857.35
669.989	3890.12
670.18	3730.38
670.371	3720.14
670.563	3867.59
670.754	3707.85
670.945	3808.2
671.136	3795.91
671.327	3720.14
671.518	3670.98
671.709	3773.38
671.9	3654.6
672.091	3718.09
672.282	3597.26
672.473	3550.15
672.664	3648.46
672.855	3658.7
673.046	3576.78
673.237	3539.91
673.428	3505.1
673.619	3537.87
673.809	3492.81
674	3660.74
674.191	3552.2
674.382	3404.75
674.573	3546.06
674.764	3503.05
674.954	3433.42
675.145	3539.91
675.336	3507.15
675.527	3453.9
675.717	3482.57
675.908	3406.8
676.099	3464.14
676.289	3447.76
676.48	3451.85
676.671	3349.45
676.861	3480.52
677.052	3369.93
677.243	3281.87
677.433	3458
677.624	3503.05
677.814	3466.19
678.005	3318.73
678.195	3382.22
678.386	3242.96
678.576	3228.62
678.767	3212.24
678.957	3320.78
679.148	3294.16
679.338	3271.63
679.529	3283.92
679.719	3232.72
679.909	3396.56
680.1	3402.7
680.29	3310.54
680.481	3324.88
680.671	3328.97
680.861	3187.66
681.052	3328.97
681.242	3322.83
681.432	3378.12
681.622	3267.53
681.813	3261.39
682.003	3314.64
682.193	3234.77
682.383	3191.76
682.573	3226.57
682.764	3115.98
682.954	3294.16
683.144	3134.42
683.334	3179.47
683.524	3197.9
683.714	3173.33
683.904	3204.05
684.094	3165.14
684.284	3122.13
684.474	3279.82
684.664	3146.7
684.854	3251.15
685.044	3148.75
685.234	3183.57
685.424	3177.42
685.614	3247.05
685.804	3236.81
685.994	3177.42
686.184	3175.38
686.374	3034.07
686.564	3081.17
686.753	3140.56
686.943	3007.44
687.133	3017.68
687.323	3048.4
687.513	3066.83
687.702	2913.24
687.892	2946
688.082	2935.76
688.272	3048.4
688.461	2921.43
688.651	3007.44
688.841	3001.3
689.03	2943.96
689.22	2931.67
689.41	2913.24
689.599	2997.2
689.789	2853.84
689.979	2812.89
690.168	2943.96
690.358	2853.84
690.547	2749.4
690.737	2862.04
690.926	2827.22
691.116	2819.03
691.305	2995.15
691.495	2730.97
691.684	2720.73
691.874	2597.85
692.063	2706.39
692.252	2757.59
692.442	2747.35
692.631	2692.05
692.82	2786.26
693.01	2784.21
693.199	2642.9
693.388	2825.17
693.578	2735.06
693.767	2690.01
693.956	2626.52
694.146	2495.45
694.335	2638.81
694.524	2618.33
694.713	2608.09
694.902	2599.9
695.092	2636.76
695.281	2661.34
695.47	2644.95
695.659	2567.13
695.848	2618.33
696.037	2612.18
696.226	2466.78
696.415	2649.05
696.604	2511.83
696.793	2534.36
696.982	2565.08
697.171	2685.91
697.36	2434.01
697.549	2563.03
697.738	2571.22
697.927	2466.78
698.116	2595.8
698.305	2573.27
698.494	2509.79
698.683	2520.03
698.872	2520.03
699.061	2544.6
699.25	2421.72
699.438	2515.93
699.627	2630.62
699.816	2481.11
700.005	2485.21
700.193	2515.93
700.382	2507.74
700.571	2472.92
700.76	2503.64
700.948	2601.94
701.137	2407.39
701.326	2440.15
701.514	2524.12
701.703	2558.94
701.892	2376.67
702.08	2517.98
702.269	2556.89
702.457	2597.85
702.646	2571.22
702.834	2444.25
703.023	2487.26
703.212	2403.29
703.4	2577.37
703.589	2483.16
703.777	2372.57
703.965	2368.48
704.154	2470.87
704.342	2501.59
704.531	2526.17
704.719	2296.8
704.907	2571.22
705.096	2470.87
705.284	2487.26
705.472	2517.98
705.661	2395.1
705.849	2606.04
706.037	2524.12
706.226	2452.44
706.414	2489.31
706.602	2517.98
706.79	2522.07
706.979	2474.97
707.167	2511.83
707.355	2511.83
707.543	2462.68
707.731	2517.98
707.919	2436.06
708.107	2591.7
708.296	2507.74
708.484	2440.15
708.672	2503.64
708.86	2427.87
709.048	2505.69
709.236	2425.82
709.424	2638.81
709.612	2468.83
709.8	2507.74
709.988	2530.27
710.176	2520.03
710.364	2507.74
710.551	2472.92
710.739	2550.75
710.927	2403.29
711.115	2501.59
711.303	2585.56
711.491	2485.21
711.679	2503.64
711.866	2456.54
712.054	2483.16
712.242	2517.98
712.43	2532.31
712.617	2509.79
712.805	2364.38
712.993	2509.79
713.181	2499.55
713.368	2624.47
713.556	2429.91
713.744	2444.25
713.931	2622.42
714.119	2444.25
714.306	2560.98
714.494	2536.41
714.682	2608.09
714.869	2583.51
715.057	2632.66
715.244	2540.51
715.432	2552.79
715.619	2587.61
715.807	2677.72
715.994	2536.41
716.182	2692.05
716.369	2546.65
716.556	2552.79
716.744	2479.07
716.931	2517.98
717.119	2565.08
717.306	2585.56
717.493	2507.74
717.681	2569.18
717.868	2556.89
718.055	2599.9
718.242	2585.56
718.43	2556.89
718.617	2499.55
718.804	2472.92
718.991	2538.46
719.179	2618.33
719.366	2671.58
719.553	2540.51
719.74	2540.51
719.927	2690.01
720.114	2499.55
720.301	2622.42
720.488	2534.36
720.676	2544.6
720.863	2538.46
721.05	2690.01
721.237	2614.23
721.424	2536.41
721.611	2651.1
721.798	2528.22
721.985	2468.83
722.172	2538.46
722.358	2573.27
722.545	2505.69
722.732	2573.27
722.919	2651.1
723.106	2642.9
723.293	2548.7
723.48	2558.94
723.667	2610.14
723.853	2571.22
724.04	2599.9
724.227	2509.79
724.414	2550.75
724.6	2577.37
724.787	2511.83
724.974	2634.71
725.161	2558.94
725.347	2513.88
725.534	2653.14
725.72	2585.56
725.907	2573.27
726.094	2663.38
726.28	2612.18
726.467	2595.8
726.653	2630.62
726.84	2520.03
727.027	2558.94
727.213	2573.27
727.4	2528.22
727.586	2616.28
727.773	2497.5
727.959	2657.24
728.145	2669.53
728.332	2634.71
728.518	2542.55
728.705	2583.51
728.891	2436.06
729.077	2591.7
729.264	2655.19
729.45	2548.7
729.636	2577.37
729.823	2665.43
730.009	2634.71
730.195	2560.98
730.382	2542.55
730.568	2608.09
730.754	2509.79
730.94	2567.13
731.126	2538.46
731.313	2644.95
731.499	2554.84
731.685	2538.46
731.871	2583.51
732.057	2614.23
732.243	2538.46
732.429	2638.81
732.615	2647
732.801	2659.29
732.987	2597.85
733.173	2520.03
733.359	2483.16
733.545	2599.9
733.731	2501.59
733.917	2636.76
734.103	2409.44
734.289	2622.42
734.475	2534.36
734.661	2663.38
734.847	2556.89
735.033	2440.15
735.219	2644.95
735.404	2665.43
735.59	2477.02
735.776	2593.75
735.962	2618.33
736.148	2636.76
736.333	2587.61
736.519	2601.94
736.705	2524.12
736.89	2489.31
737.076	2474.97
737.262	2513.88
737.447	2599.9
737.633	2538.46
737.819	2372.57
738.004	2458.59
738.19	2565.08
738.375	2503.64
738.561	2536.41
738.747	2517.98
738.932	2341.85
739.118	2434.01
739.303	2472.92
739.489	2454.49
739.674	2413.53
739.859	2493.4
740.045	2417.63
740.23	2345.95
740.416	2450.39
740.601	2456.54
740.786	2401.24
740.972	2444.25
741.157	2436.06
741.342	2290.65
741.528	2497.5
741.713	2419.68
741.898	2391
742.084	2358.24
742.269	2317.28
742.454	2380.76
742.639	2313.18
742.824	2339.8
743.01	2399.2
743.195	2348
743.38	2356.19
743.565	2266.08
743.75	2415.58
743.935	2143.2
744.12	2296.8
744.305	2202.59
744.49	2323.42
744.675	2200.54
744.86	2261.98
745.045	2296.8
745.23	2257.89
745.415	2089.95
745.6	2135.01
745.785	2098.14
745.97	2153.44
746.155	2075.62
746.34	2143.2
746.525	2124.77
746.71	2167.77
746.895	2053.09
747.079	2214.88
747.264	2071.52
747.449	2069.47
747.634	2194.4
747.819	2102.24
748.003	2075.62
748.188	1936.35
748.373	1895.4
748.557	1969.12
748.742	1989.6
748.927	2030.56
749.111	1967.07
749.296	1971.17
749.481	1915.87
749.665	1909.73
749.85	1795.04
750.034	1913.83
750.219	1885.16
750.404	1965.03
750.588	1823.72
750.773	1788.9
750.957	1825.76
751.141	1760.23
751.326	1879.01
751.51	1778.66
751.695	1721.32
751.879	1844.2
752.064	1858.53
752.248	1764.33
752.432	1772.52
752.617	1670.12
752.801	1797.09
752.985	1700.84
753.17	1678.31
753.354	1739.75
753.538	1698.79
753.722	1696.74
753.907	1686.5
754.091	1594.34
754.275	1559.53
754.459	1575.91
754.643	1518.57
754.828	1553.38
755.012	1588.2
755.196	1498.09
755.38	1661.93
755.564	1432.55
755.748	1596.39
755.932	1512.42
756.116	1510.38
756.3	1528.81
756.484	1332.2
756.668	1510.38
756.852	1442.79
757.036	1483.75
757.22	1383.4
757.404	1473.51
757.588	1448.94
757.772	1483.75
757.956	1524.71
758.14	1389.55
758.323	1383.4
758.507	1342.44
758.691	1307.63
758.875	1225.71
759.059	1324.01
759.242	1334.25
759.426	1367.02
759.61	1330.16
759.794	1301.48
759.977	1330.16
760.161	1334.25
760.345	1309.68
760.528	1252.33
760.712	1186.8
760.895	1235.95
761.079	1319.92
761.263	1256.43
761.446	1248.24
761.63	1240.05
761.813	1178.61
761.997	1229.81
762.18	1207.28
762.364	1272.81
762.547	1213.42
762.731	1250.28
762.914	1211.37
763.098	1242.09
763.281	1172.46
763.464	1111.02
763.648	1184.75
763.831	1139.69
764.015	1098.74
764.198	1219.57
764.381	1162.22
764.564	1190.89
764.748	1123.31
764.931	1176.56
765.114	1102.83
765.297	1094.64
765.481	1088.5
765.664	1070.06
765.847	1041.39
766.03	1027.06
766.213	1025.01
766.397	1059.82
766.58	1045.49
766.763	1113.07
766.946	1104.88
767.129	1070.06
767.312	1084.4
767.495	1055.73
767.678	1047.54
767.861	1098.74
768.044	1006.58
768.227	1035.25
768.41	945.14
768.593	967.67
768.776	943.09
768.959	869.36
769.142	1025.01
769.324	1000.43
769.507	1014.77
769.69	873.46
769.873	967.67
770.056	992.24
770.239	1033.2
770.421	957.43
770.604	988.14
770.787	871.41
770.97	914.42
771.152	912.37
771.335	928.75
771.518	916.47
771.7	924.66
771.883	963.57
772.066	828.4
772.248	891.89
772.431	904.18
772.613	832.5
772.796	932.85
772.978	928.75
773.161	900.08
773.343	895.99
773.526	826.36
773.708	842.74
773.891	717.81
774.073	848.88
774.256	750.58
774.438	816.12
774.621	769.01
774.803	805.88
774.985	818.16
775.168	844.79
775.35	818.16
775.532	830.45
775.715	814.07
775.897	850.93
776.079	789.49
776.261	762.87
776.444	783.35
776.626	750.58
776.808	668.66
776.99	732.15
777.173	754.68
777.355	760.82
777.537	695.29
777.719	750.58
777.901	773.11
778.083	734.2
778.265	648.18
778.447	826.36
778.629	601.08
778.811	723.96
778.993	592.89
779.175	588.79
779.357	740.34
779.539	723.96
779.721	740.34
779.903	623.61
780.085	664.57
780.267	709.62
780.449	728.05
780.631	691.19
780.812	676.85
780.994	674.81
781.176	635.89
781.358	525.3
781.54	652.28
781.721	590.84
781.903	588.79
782.085	613.37
782.267	639.99
782.448	441.34
782.63	572.41
782.812	576.5
782.993	584.7
783.175	492.54
783.357	539.64
783.538	510.97
783.72	533.5
783.901	574.46
784.083	537.59
784.264	525.3
784.446	480.25
784.627	584.7
784.809	517.11
784.99	553.98
785.172	482.3
785.353	453.63
785.535	506.87
785.716	408.57
785.897	523.26
786.079	478.2
786.26	470.01
786.441	486.39
786.623	427
786.804	513.02
786.985	453.63
787.167	402.43
787.348	474.1
787.529	457.72
787.71	519.16
787.891	496.63
788.073	375.8
788.254	363.51
788.435	414.71
788.616	386.04
788.797	410.62
788.978	525.3
789.159	422.91
789.34	427
789.522	467.96
789.703	437.24
789.884	429.05
790.065	353.27
790.246	420.86
790.427	330.75
790.607	447.48
790.788	474.1
790.969	396.28
791.15	410.62
791.331	400.38
791.512	431.1
791.693	400.38
791.874	332.79
792.054	396.28
792.235	439.29
792.416	359.42
792.597	334.84
792.778	332.79
792.958	402.43
793.139	386.04
793.32	310.27
793.5	351.23
793.681	322.56
793.862	390.14
794.042	367.61
794.223	285.69
794.404	349.18
794.584	259.07
794.765	287.74
794.945	295.93
795.126	312.32
795.306	355.32
795.487	328.7
795.667	365.56
795.848	279.55
796.028	271.36
796.209	326.65
796.389	293.88
796.57	363.51
796.75	246.78
796.93	300.03
797.111	316.41
797.291	314.36
797.471	302.08
797.652	257.02
797.832	328.7
798.012	310.27
798.192	232.44
798.373	265.21
798.553	250.88
798.733	273.4
798.913	222.2
799.093	248.83
799.274	254.97
799.454	318.46
799.634	398.33
799.814	338.94
799.994	345.08
800.174	349.18
800.354	310.27
800.534	291.84
800.714	304.12
800.894	248.83
801.074	252.92
801.254	261.12
801.434	261.12
801.614	283.64
801.794	240.64
801.974	662.52
802.154	205.82
802.334	259.07
802.514	259.07
802.693	128
802.873	318.46
803.053	275.45
803.233	164.86
803.413	156.67
803.592	232.44
803.772	203.77
803.952	238.59
804.131	179.2
804.311	201.72
804.491	203.77
804.67	234.49
804.85	216.06
805.03	183.29
805.209	246.78
805.389	230.4
805.568	246.78
805.748	228.35
805.928	246.78
806.107	289.79
806.287	189.44
806.466	195.58
806.646	144.38
806.825	228.35
807.004	173.05
807.184	302.08
807.363	193.53
807.543	187.39
807.722	205.82
807.901	214.01
808.081	211.96
808.26	162.81
808.439	185.34
808.619	244.73
808.798	197.63
808.977	195.58
809.156	171.01
809.336	185.34
809.515	271.36
809.694	209.92
809.873	181.25
810.052	209.92
810.231	228.35
810.411	197.63
810.59	273.4
810.769	183.29
810.948	271.36
811.127	175.1
811.306	138.24
811.485	152.57
811.664	197.63
811.843	181.25
812.022	216.06
812.201	160.77
812.38	166.91
812.559	138.24
812.737	224.25
812.916	117.76
813.095	160.77
813.274	214.01
813.453	162.81
813.632	207.87
813.811	132.09
813.989	99.33
814.168	228.35
814.347	84.99
814.526	205.82
814.704	68.61
814.883	201.72
815.062	84.99
815.24	97.28
815.419	89.09
815.598	195.58
815.776	117.76
815.955	146.43
816.133	109.57
816.312	197.63
816.49	93.18
816.669	78.85
816.847	154.62
817.026	203.77
817.204	152.57
817.383	164.86
817.561	117.76
817.74	132.09
817.918	154.62
818.097	111.61
818.275	136.19
818.453	199.68
818.632	76.8
818.81	175.1
818.988	103.42
819.167	121.85
819.345	168.96
819.523	91.13
819.701	103.42
819.879	183.29
820.058	121.85
820.236	140.29
820.414	123.9
820.592	171.01
820.77	121.85
820.948	121.85
821.127	46.08
821.305	130.05
821.483	60.42
821.661	97.28
821.839	121.85
822.017	78.85
822.195	78.85
822.373	175.1
822.551	132.09
822.729	121.85
822.907	48.13
823.085	132.09
823.262	142.33
823.44	121.85
823.618	142.33
823.796	54.27
823.974	84.99
824.152	134.14
824.329	93.18
824.507	93.18
824.685	138.24
824.863	152.57
825.04	203.77
825.218	101.37
825.396	130.05
825.574	179.2
825.751	21.5
825.929	125.95
826.107	74.75
826.284	156.67
826.462	54.27
826.639	37.89
826.817	15.36
826.994	64.51
827.172	117.76
827.349	197.63
827.527	121.85
827.704	136.19
827.882	50.18
828.059	103.42
828.237	121.85
828.414	150.53
828.591	93.18
828.769	99.33
828.946	105.47
829.124	195.58
829.301	132.09
829.478	93.18
829.655	54.27
829.833	109.57
830.01	29.7
830.187	123.9
830.364	89.09
830.542	99.33
830.719	171.01
830.896	74.75
831.073	128
831.25	70.65
831.427	160.77
831.604	121.85
831.782	152.57
831.959	140.29
832.136	91.13
832.313	82.94
832.49	23.55
832.667	76.8
832.844	87.04
833.021	80.89
833.198	132.09
833.374	93.18
833.551	101.37
833.728	103.42
833.905	109.57
834.082	66.56
834.259	52.22
834.436	121.85
834.612	33.79
834.789	41.98
834.966	46.08
835.143	175.1
835.319	56.32
835.496	15.36
835.673	37.89
835.85	62.46
836.026	46.08
836.203	95.23
836.38	156.67
836.556	66.56
836.733	19.46
836.909	74.75
837.086	35.84
837.262	44.03
837.439	72.7
837.616	134.14
837.792	76.8
837.968	9.22
838.145	-13.31
838.321	87.04
838.498	50.18
838.674	87.04
838.851	58.37
839.027	39.94
839.203	48.13
839.38	117.76
839.556	5.12
839.732	99.33
839.909	52.22
840.085	48.13
840.261	56.32
840.437	68.61
840.614	25.6
840.79	46.08
840.966	74.75
841.142	117.76
841.318	46.08
841.494	144.38
841.671	162.81
841.847	19.46
842.023	50.18
842.199	70.65
842.375	97.28
842.551	33.79
842.727	23.55
842.903	115.71
843.079	72.7
843.255	66.56
843.431	25.6
843.607	99.33
843.783	21.5
843.959	70.65
844.134	125.95
844.31	113.66
844.486	25.6
844.662	29.7
844.838	-29.7
845.013	70.65
845.189	84.99
845.365	54.27
845.541	48.13
845.716	58.37
845.892	109.57
846.068	80.89
846.244	128
846.419	37.89
846.595	130.05
846.77	35.84
846.946	17.41
847.122	50.18
847.297	101.37
847.473	119.81
847.648	72.7
847.824	29.7
847.999	68.61
848.175	19.46
848.35	54.27
848.526	101.37
848.701	56.32
848.876	74.75
849.052	15.36
849.227	58.37
849.403	35.84
849.578	68.61
849.753	11.26
849.929	101.37
850.104	58.37
850.279	101.37
850.454	84.99
850.63	62.46
850.805	130.05
850.98	72.7
851.155	33.79
851.33	97.28
851.505	68.61
851.681	103.42
851.856	48.13
852.031	74.75
852.206	-25.6
852.381	68.61
852.556	29.7
852.731	19.46
852.906	74.75
853.081	68.61
853.256	58.37
853.431	37.89
853.606	35.84
853.781	60.42
853.956	-25.6
854.131	17.41
854.305	76.8
854.48	-66.56
854.655	-5.12
854.83	89.09
855.005	17.41
855.18	48.13
855.354	-70.65
855.529	31.74
855.704	33.79
855.879	39.94
856.053	-7.17
856.228	109.57
856.403	-5.12
856.577	66.56
856.752	-25.6
856.926	78.85
857.101	3.07
857.276	54.27
857.45	91.13
857.625	103.42
857.799	9.22
857.974	5.12
858.148	21.5
858.323	-19.46
858.497	-41.98
858.672	41.98
858.846	-1.02
859.02	39.94
859.195	-15.36
859.369	121.85
859.543	23.55
859.718	66.56
859.892	9.22
860.066	3.07
860.241	33.79
860.415	-1.02
860.589	80.89
860.763	33.79
860.938	-19.46
861.112	21.5
861.286	23.55
861.46	91.13
861.634	31.74
861.808	21.5
861.982	-7.17
862.157	5.12
862.331	37.89
862.505	-33.79
862.679	74.75
862.853	15.36
863.027	39.94
863.201	46.08
863.375	35.84
863.549	25.6
863.722	68.61
863.896	52.22
864.07	27.65
864.244	33.79
864.418	19.46
864.592	3.07
864.766	37.89
864.939	27.65
865.113	29.7
865.287	115.71
865.461	-54.27
865.634	89.09
865.808	-3.07
865.982	23.55
866.156	-50.18
866.329	3.07
866.503	52.22
866.676	-15.36
866.85	-27.65
867.024	39.94
867.197	78.85
867.371	68.61
867.544	7.17
867.718	7.17
867.891	23.55
868.065	-1.02
868.238	15.36
868.412	-46.08
868.585	70.65
868.759	19.46
868.932	-31.74
869.105	56.32
869.279	-15.36
869.452	48.13
869.625	50.18
869.799	-13.31
869.972	-35.84
870.145	-11.26
870.319	15.36
870.492	113.66
870.665	-21.5
870.838	13.31
871.011	-33.79
871.185	-37.89
871.358	54.27
871.531	50.18
871.704	-19.46
871.877	31.74
872.05	52.22
872.223	7.17
872.396	103.42
872.569	-1.02
872.742	-60.42
872.915	-7.17
873.088	-25.6
873.261	68.61
873.434	84.99
873.607	64.51
873.78	-1.02
873.953	-11.26
874.126	37.89
874.299	54.27
874.471	-19.46
874.644	1.02
874.817	58.37
874.99	39.94
875.163	33.79
875.335	13.31
875.508	23.55
875.681	11.26
875.853	7.17
876.026	9.22
876.199	66.56
876.371	58.37
876.544	15.36
876.717	46.08
876.889	41.98
877.062	9.22
877.234	-11.26
877.407	9.22
877.579	23.55
877.752	-66.56
877.924	-13.31
878.097	39.94
878.269	-15.36
878.442	58.37
878.614	7.17
878.786	33.79
878.959	-31.74
879.131	-46.08
879.303	-48.13
879.476	35.84
879.648	23.55
879.82	-1.02
879.993	66.56
880.165	27.65
880.337	23.55
880.509	95.23
880.681	-3.07
880.854	66.56
881.026	48.13
881.198	-21.5
881.37	-13.31
881.542	-1.02
881.714	17.41
881.886	41.98
882.058	46.08
882.23	39.94
882.402	33.79
882.574	1.02
882.746	17.41
882.918	25.6
883.09	35.84
883.262	44.03
883.434	52.22
883.606	-25.6
883.778	23.55
883.95	23.55
884.122	15.36
884.293	-3.07
884.465	3.07
884.637	-39.94
884.809	15.36
884.98	27.65
885.152	17.41
885.324	117.76
885.496	-13.31
885.667	-70.65
885.839	29.7
886.011	103.42
886.182	1.02
886.354	44.03
886.525	31.74
886.697	29.7
886.869	-5.12
887.04	15.36
887.212	3.07
887.383	46.08
887.555	-13.31
887.726	27.65
887.897	11.26
888.069	74.75
888.24	37.89
888.412	3.07
888.583	41.98
888.754	50.18
888.926	-56.32
889.097	-7.17
889.268	-21.5
889.44	-31.74
889.611	-62.46
889.782	-13.31
889.953	25.6
890.125	70.65
890.296	-52.22
890.467	1.02
890.638	5.12
890.809	46.08
890.98	-78.85
891.151	-13.31
891.323	95.23
891.494	72.7
891.665	76.8
891.836	13.31
892.007	31.74
892.178	9.22
892.349	-13.31
892.52	7.17
892.691	-15.36
892.862	-5.12
893.032	-76.8
893.203	1.02
893.374	-13.31
893.545	-7.17
893.716	-31.74
893.887	13.31
894.057	1.02
894.228	-3.07
894.399	35.84
894.57	31.74
894.74	-58.37
894.911	-29.7
895.082	3.07
895.253	-46.08
895.423	9.22
895.594	56.32
895.764	-1.02
895.935	21.5
896.106	46.08
896.276	33.79
896.447	107.52
896.617	13.31
896.788	11.26
896.958	41.98
897.129	9.22
897.299	-52.22
897.47	39.94
897.64	64.51
897.81	19.46
897.981	13.31
898.151	41.98
898.322	17.41
898.492	13.31
898.662	37.89
898.832	17.41
899.003	-11.26
899.173	3.07
899.343	-9.22
899.513	-82.94
