Data from USB4F104151__4__11-51-03-212.txt Node

Date: Fri Mar 14 11:51:03 EDT 2025
User: louis
Spectrometer: USB4F10415
Trigger mode: 4
Integration Time (sec): 2.000000E-2
Scans to average: 1
Electric dark correction enabled: true
Nonlinearity correction enabled: false
Boxcar width: 0
XAxis mode: Wavelengths
Number of Pixels in Spectrum: 3648
>>>>>Begin Spectral Data<<<<<
178.204	-83.97
178.424	-83.97
178.644	-83.97
178.864	-114.69
179.084	-100.35
179.304	-40.96
179.524	-24.58
179.744	-30.72
179.964	51.2
180.184	10.24
180.404	-12.29
180.624	-30.72
180.844	53.25
181.064	20.48
181.283	24.58
181.503	-28.67
181.723	8.19
181.943	-4.1
182.163	38.91
182.383	-36.86
182.602	57.34
182.822	-32.77
183.042	30.72
183.262	-12.29
183.482	32.77
183.701	0
183.921	18.43
184.141	18.43
184.361	86.01
184.58	-45.06
184.8	-59.39
185.02	10.24
185.239	51.2
185.459	0
185.679	45.06
185.898	-12.29
186.118	-8.19
186.338	47.1
186.557	34.82
186.777	22.53
186.997	12.29
187.216	28.67
187.436	88.06
187.655	34.82
187.875	34.82
188.095	28.67
188.314	34.82
188.534	34.82
188.753	8.19
188.973	-4.1
189.192	14.34
189.412	71.68
189.631	73.73
189.851	-4.1
190.07	-2.05
190.29	-4.1
190.509	26.62
190.729	47.1
190.948	30.72
191.168	102.4
191.387	24.58
191.607	12.29
191.826	8.19
192.045	16.38
192.265	73.73
192.484	43.01
192.704	-10.24
192.923	32.77
193.142	43.01
193.362	10.24
193.581	32.77
193.8	8.19
194.02	6.14
194.239	73.73
194.458	71.68
194.678	57.34
194.897	57.34
195.116	-47.1
195.335	61.44
195.555	63.49
195.774	61.44
195.993	36.86
196.212	63.49
196.432	-122.88
196.651	-20.48
196.87	-55.3
197.089	67.58
197.308	-10.24
197.528	24.58
197.747	-14.34
197.966	63.49
198.185	20.48
198.404	86.01
198.623	34.82
198.842	20.48
199.062	63.49
199.281	51.2
199.5	22.53
199.719	28.67
199.938	61.44
200.157	14.34
200.376	16.38
200.595	12.29
200.814	-36.86
201.033	32.77
201.252	81.92
201.471	90.11
201.69	2.05
201.909	36.86
202.128	79.87
202.347	-16.38
202.566	38.91
202.785	-20.48
203.004	2.05
203.223	36.86
203.442	-38.91
203.661	47.1
203.879	-2.05
204.098	61.44
204.317	8.19
204.536	49.15
204.755	2.05
204.974	22.53
205.193	36.86
205.411	59.39
205.63	28.67
205.849	51.2
206.068	53.25
206.287	2.05
206.505	92.16
206.724	-30.72
206.943	55.3
207.162	-8.19
207.381	28.67
207.599	51.2
207.818	2.05
208.037	14.34
208.255	-32.77
208.474	-65.54
208.693	43.01
208.911	-6.14
209.13	24.58
209.349	40.96
209.567	38.91
209.786	67.58
210.005	4.1
210.223	20.48
210.442	-57.34
210.661	20.48
210.879	104.45
211.098	69.63
211.316	47.1
211.535	120.83
211.753	16.38
211.972	65.54
212.191	40.96
212.409	49.15
212.628	94.21
212.846	-32.77
213.065	98.3
213.283	67.58
213.502	-34.82
213.72	-30.72
213.938	51.2
214.157	77.82
214.375	34.82
214.594	6.14
214.812	83.97
215.031	14.34
215.249	55.3
215.467	-32.77
215.686	-40.96
215.904	47.1
216.122	55.3
216.341	69.63
216.559	28.67
216.778	61.44
216.996	24.58
217.214	4.1
217.432	-57.34
217.651	77.82
217.869	-53.25
218.087	28.67
218.306	38.91
218.524	112.64
218.742	2.05
218.96	12.29
219.179	83.97
219.397	-12.29
219.615	26.62
219.833	43.01
220.051	20.48
220.27	69.63
220.488	32.77
220.706	-28.67
220.924	-16.38
221.142	-30.72
221.36	22.53
221.578	34.82
221.796	55.3
222.015	77.82
222.233	32.77
222.451	28.67
222.669	73.73
222.887	-55.3
223.105	-14.34
223.323	53.25
223.541	-55.3
223.759	-14.34
223.977	18.43
224.195	38.91
224.413	26.62
224.631	4.1
224.849	-16.38
225.067	88.06
225.285	-18.43
225.503	-18.43
225.721	0
225.939	2.05
226.157	36.86
226.375	38.91
226.592	-34.82
226.81	34.82
227.028	47.1
227.246	75.77
227.464	14.34
227.682	4.1
227.9	16.38
228.117	24.58
228.335	10.24
228.553	18.43
228.771	-6.14
228.989	12.29
229.206	-10.24
229.424	-14.34
229.642	30.72
229.86	30.72
230.077	40.96
230.295	-30.72
230.513	81.92
230.731	-45.06
230.948	28.67
231.166	24.58
231.384	28.67
231.601	20.48
231.819	55.3
232.037	18.43
232.254	59.39
232.472	67.58
232.689	-22.53
232.907	28.67
233.125	22.53
233.342	36.86
233.56	8.19
233.777	90.11
233.995	-51.2
234.213	53.25
234.43	8.19
234.648	-51.2
234.865	49.15
235.083	71.68
235.3	-18.43
235.518	34.82
235.735	8.19
235.953	51.2
236.17	-2.05
236.388	47.1
236.605	18.43
236.822	90.11
237.04	10.24
237.257	24.58
237.475	16.38
237.692	45.06
237.909	77.82
238.127	-6.14
238.344	55.3
238.562	28.67
238.779	-26.62
238.996	-30.72
239.214	-43.01
239.431	-10.24
239.648	-2.05
239.865	59.39
240.083	-26.62
240.3	-8.19
240.517	18.43
240.735	-20.48
240.952	40.96
241.169	47.1
241.386	100.35
241.603	22.53
241.821	-26.62
242.038	12.29
242.255	22.53
242.472	49.15
242.689	2.05
242.907	53.25
243.124	16.38
243.341	-8.19
243.558	108.54
243.775	-55.3
243.992	-34.82
244.209	57.34
244.426	47.1
244.643	34.82
244.86	16.38
245.078	22.53
245.295	32.77
245.512	51.2
245.729	-32.77
245.946	38.91
246.163	-40.96
246.38	40.96
246.597	47.1
246.814	24.58
247.031	49.15
247.248	-6.14
247.464	73.73
247.681	38.91
247.898	12.29
248.115	-14.34
248.332	-18.43
248.549	26.62
248.766	71.68
248.983	38.91
249.2	6.14
249.417	47.1
249.633	-6.14
249.85	18.43
250.067	0
250.284	36.86
250.501	126.97
250.717	86.01
250.934	24.58
251.151	-14.34
251.368	24.58
251.585	-4.1
251.801	-47.1
252.018	-16.38
252.235	8.19
252.451	43.01
252.668	81.92
252.885	2.05
253.102	34.82
253.318	-10.24
253.535	-10.24
253.752	-2.05
253.968	32.77
254.185	-81.92
254.401	51.2
254.618	6.14
254.835	10.24
255.051	18.43
255.268	22.53
255.484	57.34
255.701	30.72
255.917	49.15
256.134	-38.91
256.351	26.62
256.567	22.53
256.784	49.15
257	2.05
257.217	81.92
257.433	-6.14
257.65	55.3
257.866	-18.43
258.082	-24.58
258.299	14.34
258.515	79.87
258.732	-8.19
258.948	38.91
259.165	22.53
259.381	34.82
259.597	18.43
259.814	14.34
260.03	73.73
260.246	16.38
260.463	69.63
260.679	55.3
260.895	69.63
261.112	-34.82
261.328	40.96
261.544	-53.25
261.761	59.39
261.977	26.62
262.193	-63.49
262.409	49.15
262.626	38.91
262.842	49.15
263.058	-34.82
263.274	43.01
263.49	-18.43
263.707	40.96
263.923	28.67
264.139	59.39
264.355	8.19
264.571	24.58
264.787	4.1
265.004	38.91
265.22	-20.48
265.436	18.43
265.652	4.1
265.868	-12.29
266.084	4.1
266.3	18.43
266.516	6.14
266.732	20.48
266.948	14.34
267.164	-40.96
267.38	-12.29
267.596	88.06
267.812	100.35
268.028	59.39
268.244	34.82
268.46	2.05
268.676	-2.05
268.892	38.91
269.108	34.82
269.324	-32.77
269.54	-18.43
269.756	22.53
269.972	26.62
270.188	96.25
270.403	6.14
270.619	18.43
270.835	30.72
271.051	100.35
271.267	22.53
271.483	38.91
271.698	100.35
271.914	0
272.13	32.77
272.346	57.34
272.562	-2.05
272.777	-18.43
272.993	28.67
273.209	32.77
273.425	12.29
273.64	51.2
273.856	43.01
274.072	-20.48
274.287	-12.29
274.503	67.58
274.719	0
274.934	-18.43
275.15	14.34
275.366	6.14
275.581	14.34
275.797	26.62
276.012	16.38
276.228	69.63
276.444	-26.62
276.659	24.58
276.875	2.05
277.09	30.72
277.306	-30.72
277.521	118.78
277.737	-4.1
277.952	77.82
278.168	-2.05
278.383	-22.53
278.599	-38.91
278.814	-32.77
279.03	71.68
279.245	61.44
279.461	10.24
279.676	61.44
279.892	-18.43
280.107	10.24
280.322	-18.43
280.538	59.39
280.753	-59.39
280.969	38.91
281.184	-92.16
281.399	59.39
281.615	-34.82
281.83	83.97
282.045	-43.01
282.26	38.91
282.476	-24.58
282.691	59.39
282.906	38.91
283.122	94.21
283.337	-43.01
283.552	61.44
283.767	53.25
283.983	79.87
284.198	71.68
284.413	94.21
284.628	14.34
284.843	-34.82
285.058	79.87
285.274	24.58
285.489	55.3
285.704	0
285.919	-30.72
286.134	30.72
286.349	36.86
286.564	49.15
286.779	69.63
286.995	45.06
287.21	4.1
287.425	-30.72
287.64	57.34
287.855	32.77
288.07	22.53
288.285	-16.38
288.5	55.3
288.715	0
288.93	10.24
289.145	63.49
289.36	14.34
289.575	59.39
289.79	43.01
290.004	8.19
290.219	24.58
290.434	32.77
290.649	-51.2
290.864	18.43
291.079	6.14
291.294	67.58
291.509	-10.24
291.724	26.62
291.938	-16.38
292.153	116.73
292.368	0
292.583	-2.05
292.798	92.16
293.012	51.2
293.227	51.2
293.442	43.01
293.657	10.24
293.871	55.3
294.086	32.77
294.301	71.68
294.516	24.58
294.73	4.1
294.945	2.05
295.16	22.53
295.374	24.58
295.589	16.38
295.804	8.19
296.018	28.67
296.233	51.2
296.447	79.87
296.662	22.53
296.877	34.82
297.091	34.82
297.306	-6.14
297.52	34.82
297.735	116.73
297.949	51.2
298.164	6.14
298.378	47.1
298.593	-40.96
298.807	28.67
299.022	51.2
299.236	40.96
299.451	-24.58
299.665	-30.72
299.88	12.29
300.094	28.67
300.309	30.72
300.523	14.34
300.737	49.15
300.952	14.34
301.166	2.05
301.381	45.06
301.595	4.1
301.809	57.34
302.024	51.2
302.238	57.34
302.452	28.67
302.667	92.16
302.881	73.73
303.095	-10.24
303.309	47.1
303.524	0
303.738	28.67
303.952	32.77
304.166	145.41
304.381	32.77
304.595	51.2
304.809	-10.24
305.023	-6.14
305.237	-36.86
305.452	-34.82
305.666	34.82
305.88	26.62
306.094	67.58
306.308	30.72
306.522	59.39
306.736	47.1
306.95	18.43
307.164	-22.53
307.379	-102.4
307.593	63.49
307.807	83.97
308.021	-4.1
308.235	30.72
308.449	-36.86
308.663	-14.34
308.877	116.73
309.091	47.1
309.305	22.53
309.519	14.34
309.733	40.96
309.947	-67.58
310.161	-14.34
310.374	49.15
310.588	92.16
310.802	32.77
311.016	-34.82
311.23	77.82
311.444	57.34
311.658	-57.34
311.872	34.82
312.085	32.77
312.299	110.59
312.513	-10.24
312.727	-34.82
312.941	30.72
313.154	38.91
313.368	8.19
313.582	0
313.796	16.38
314.009	18.43
314.223	69.63
314.437	6.14
314.651	98.3
314.864	2.05
315.078	63.49
315.292	14.34
315.505	0
315.719	18.43
315.933	61.44
316.146	69.63
316.36	-36.86
316.573	43.01
316.787	55.3
317.001	4.1
317.214	71.68
317.428	12.29
317.641	34.82
317.855	81.92
318.068	38.91
318.282	14.34
318.495	49.15
318.709	-6.14
318.922	18.43
319.136	34.82
319.349	24.58
319.563	61.44
319.776	24.58
319.99	30.72
320.203	-40.96
320.417	22.53
320.63	75.77
320.843	30.72
321.057	69.63
321.27	106.49
321.483	69.63
321.697	53.25
321.91	36.86
322.124	55.3
322.337	38.91
322.55	2.05
322.763	18.43
322.977	73.73
323.19	-24.58
323.403	24.58
323.617	55.3
323.83	69.63
324.043	34.82
324.256	49.15
324.469	8.19
324.683	28.67
324.896	34.82
325.109	45.06
325.322	-57.34
325.535	63.49
325.748	90.11
325.962	96.25
326.175	30.72
326.388	47.1
326.601	32.77
326.814	-2.05
327.027	38.91
327.24	18.43
327.453	30.72
327.666	49.15
327.879	28.67
328.092	126.97
328.305	30.72
328.518	-18.43
328.731	-6.14
328.944	24.58
329.157	45.06
329.37	36.86
329.583	55.3
329.796	73.73
330.009	22.53
330.222	47.1
330.435	24.58
330.648	55.3
330.861	-4.1
331.073	73.73
331.286	20.48
331.499	43.01
331.712	47.1
331.925	69.63
332.138	49.15
332.35	90.11
332.563	18.43
332.776	106.49
332.989	-6.14
333.202	53.25
333.414	55.3
333.627	75.77
333.84	2.05
334.053	59.39
334.265	-34.82
334.478	104.45
334.691	38.91
334.903	12.29
335.116	-20.48
335.329	14.34
335.541	94.21
335.754	45.06
335.966	26.62
336.179	26.62
336.392	32.77
336.604	77.82
336.817	61.44
337.029	2.05
337.242	-30.72
337.454	10.24
337.667	-49.15
337.88	90.11
338.092	43.01
338.305	34.82
338.517	16.38
338.729	22.53
338.942	53.25
339.154	-22.53
339.367	0
339.579	30.72
339.792	38.91
340.004	28.67
340.217	47.1
340.429	-6.14
340.641	-28.67
340.854	30.72
341.066	47.1
341.278	28.67
341.491	4.1
341.703	106.49
341.915	26.62
342.128	34.82
342.34	38.91
342.552	59.39
342.764	102.4
342.977	75.77
343.189	26.62
343.401	98.3
343.613	-34.82
343.826	28.67
344.038	-6.14
344.25	-6.14
344.462	36.86
344.674	45.06
344.886	18.43
345.099	77.82
345.311	47.1
345.523	30.72
345.735	14.34
345.947	14.34
346.159	14.34
346.371	57.34
346.583	-6.14
346.795	-20.48
347.007	34.82
347.219	-30.72
347.431	10.24
347.643	104.45
347.855	20.48
348.067	102.4
348.279	6.14
348.491	30.72
348.703	51.2
348.915	0
349.127	8.19
349.339	12.29
349.551	-18.43
349.763	57.34
349.975	-4.1
350.187	47.1
350.399	-18.43
350.61	-36.86
350.822	2.05
351.034	61.44
351.246	18.43
351.458	34.82
351.669	-18.43
351.881	83.97
352.093	28.67
352.305	18.43
352.517	8.19
352.728	73.73
352.94	69.63
353.152	22.53
353.363	-4.1
353.575	67.58
353.787	100.35
353.999	4.1
354.21	108.54
354.422	65.54
354.633	-18.43
354.845	65.54
355.057	51.2
355.268	0
355.48	-24.58
355.692	49.15
355.903	24.58
356.115	55.3
356.326	57.34
356.538	49.15
356.749	96.25
356.961	90.11
357.172	8.19
357.384	77.82
357.595	129.02
357.807	40.96
358.018	6.14
358.23	65.54
358.441	96.25
358.653	92.16
358.864	45.06
359.075	-14.34
359.287	-6.14
359.498	94.21
359.709	24.58
359.921	34.82
360.132	83.97
360.344	73.73
360.555	57.34
360.766	69.63
360.977	16.38
361.189	47.1
361.4	8.19
361.611	69.63
361.823	83.97
362.034	22.53
362.245	-6.14
362.456	-10.24
362.667	96.25
362.879	79.87
363.09	12.29
363.301	2.05
363.512	57.34
363.723	45.06
363.935	112.64
364.146	24.58
364.357	22.53
364.568	57.34
364.779	2.05
364.99	36.86
365.201	75.77
365.412	92.16
365.623	57.34
365.834	86.01
366.045	71.68
366.256	24.58
366.467	55.3
366.678	36.86
366.889	22.53
367.1	-2.05
367.311	57.34
367.522	51.2
367.733	67.58
367.944	12.29
368.155	43.01
368.366	16.38
368.577	38.91
368.788	83.97
368.999	24.58
369.209	-8.19
369.42	102.4
369.631	-28.67
369.842	16.38
370.053	43.01
370.264	57.34
370.474	47.1
370.685	57.34
370.896	34.82
371.107	45.06
371.317	79.87
371.528	51.2
371.739	63.49
371.95	104.45
372.16	61.44
372.371	2.05
372.582	12.29
372.792	8.19
373.003	0
373.214	14.34
373.424	98.3
373.635	-24.58
373.846	100.35
374.056	112.64
374.267	110.59
374.477	65.54
374.688	14.34
374.898	30.72
375.109	26.62
375.319	-20.48
375.53	90.11
375.74	88.06
375.951	69.63
376.161	16.38
376.372	71.68
376.582	34.82
376.793	0
377.003	51.2
377.214	-4.1
377.424	16.38
377.635	30.72
377.845	28.67
378.055	36.86
378.266	34.82
378.476	102.4
378.686	10.24
378.897	-8.19
379.107	34.82
379.317	-4.1
379.528	28.67
379.738	34.82
379.948	36.86
380.158	32.77
380.369	20.48
380.579	30.72
380.789	-22.53
380.999	83.97
381.21	112.64
381.42	116.73
381.63	14.34
381.84	20.48
382.05	104.45
382.261	47.1
382.471	55.3
382.681	4.1
382.891	2.05
383.101	32.77
383.311	63.49
383.521	-28.67
383.731	2.05
383.941	32.77
384.151	73.73
384.361	96.25
384.571	67.58
384.781	0
384.991	49.15
385.201	69.63
385.411	-8.19
385.621	-12.29
385.831	34.82
386.041	104.45
386.251	30.72
386.461	69.63
386.671	65.54
386.881	75.77
387.091	57.34
387.301	108.54
387.511	38.91
387.72	38.91
387.93	69.63
388.14	10.24
388.35	-12.29
388.56	24.58
388.769	65.54
388.979	51.2
389.189	20.48
389.399	30.72
389.609	88.06
389.818	49.15
390.028	108.54
390.238	38.91
390.447	69.63
390.657	92.16
390.867	67.58
391.076	2.05
391.286	114.69
391.496	40.96
391.705	92.16
391.915	32.77
392.125	110.59
392.334	61.44
392.544	57.34
392.753	65.54
392.963	2.05
393.172	57.34
393.382	36.86
393.591	106.49
393.801	53.25
394.01	110.59
394.22	20.48
394.429	88.06
394.639	65.54
394.848	67.58
395.058	-2.05
395.267	40.96
395.477	108.54
395.686	47.1
395.895	79.87
396.105	90.11
396.314	51.2
396.524	106.49
396.733	12.29
396.942	120.83
397.152	14.34
397.361	86.01
397.57	100.35
397.78	28.67
397.989	86.01
398.198	141.31
398.407	61.44
398.617	63.49
398.826	47.1
399.035	83.97
399.244	86.01
399.453	104.45
399.663	178.17
399.872	83.97
400.081	118.78
400.29	40.96
400.499	96.25
400.708	131.07
400.917	47.1
401.127	63.49
401.336	81.92
401.545	149.5
401.754	100.35
401.963	83.97
402.172	69.63
402.381	120.83
402.59	73.73
402.799	169.98
403.008	92.16
403.217	102.4
403.426	92.16
403.635	75.77
403.844	102.4
404.053	63.49
404.262	145.41
404.471	141.31
404.68	86.01
404.888	145.41
405.097	147.45
405.306	145.41
405.515	124.93
405.724	141.31
405.933	104.45
406.142	172.03
406.35	204.8
406.559	196.61
406.768	169.98
406.977	176.13
407.185	135.17
407.394	172.03
407.603	169.98
407.812	139.26
408.02	206.84
408.229	221.18
408.438	147.45
408.646	147.45
408.855	169.98
409.064	215.04
409.272	192.51
409.481	303.1
409.69	251.9
409.898	165.89
410.107	190.46
410.315	288.76
410.524	319.48
410.733	272.38
410.941	284.67
411.15	313.34
411.358	321.53
411.567	311.29
411.775	372.73
411.984	272.38
412.192	403.45
412.401	417.79
412.609	382.97
412.818	444.41
413.026	380.92
413.234	382.97
413.443	438.27
413.651	364.54
413.86	440.31
414.068	546.81
414.276	573.43
414.485	567.29
414.693	573.43
414.901	561.14
415.11	628.73
415.318	522.23
415.526	647.16
415.734	612.34
415.943	649.21
416.151	669.69
416.359	688.12
416.567	749.56
416.776	731.12
416.984	706.55
417.192	878.58
417.4	792.56
417.608	806.9
417.817	817.14
418.025	919.54
418.233	1001.46
418.441	929.78
418.649	980.98
418.857	1099.76
419.065	1112.05
419.273	1054.7
419.481	1114.1
419.689	1312.75
419.897	1322.99
420.105	1261.55
420.313	1300.46
420.521	1314.8
420.729	1394.67
420.937	1335.28
421.145	1460.2
421.353	1519.59
421.561	1607.66
421.769	1648.61
421.977	1765.35
422.185	1712.1
422.393	1849.32
422.601	1898.47
422.809	1925.09
423.017	2013.15
423.224	2033.63
423.432	2121.7
423.64	2121.7
423.848	2316.25
424.056	2170.85
424.263	2404.32
424.471	2316.25
424.679	2447.32
424.887	2639.83
425.094	2582.49
425.302	2678.74
425.51	2869.2
425.718	2846.68
425.925	2918.36
426.133	2990.03
426.341	3061.71
426.548	3323.85
426.756	3373
426.964	3481.55
427.171	3407.82
427.379	3620.81
427.586	3524.55
427.794	3743.69
428.001	4057.03
428.209	4093.89
428.417	4009.92
428.624	4390.84
428.832	4483
429.039	4190.14
429.247	4349.89
429.454	4718.52
429.662	5201.84
429.869	4630.46
430.076	5195.7
430.284	4886.45
430.491	5031.86
430.699	5531.56
430.906	5523.37
431.114	5468.08
431.321	5627.82
431.528	5771.18
431.736	6213.54
431.943	6590.36
432.15	6170.53
432.358	6215.59
432.565	6758.3
432.772	6676.38
432.979	6991.77
433.187	7178.13
433.394	7104.4
433.601	7671.69
433.808	7714.7
434.016	7550.86
434.223	8144.77
434.43	8312.71
434.637	8368
434.844	8658.81
435.052	9088.89
435.259	8824.7
435.466	9088.89
435.673	9011.06
435.88	9365.36
436.087	9834.35
436.294	10030.95
436.501	9666.41
436.708	9959.27
436.915	10266.47
437.122	10702.68
437.329	10725.21
437.537	11200.34
437.743	11353.94
437.95	11224.92
438.157	11845.45
438.364	12183.37
438.571	12105.54
438.778	12189.51
438.985	13399.86
439.192	12494.66
439.399	13276.98
439.606	13184.82
439.813	13776.69
440.02	14456.61
440.227	14217
440.433	14229.29
440.64	14616.35
440.847	14647.07
441.054	14982.94
441.261	15896.33
441.467	15603.47
441.674	15765.26
441.881	16453.38
442.088	16365.32
442.294	16330.5
442.501	16846.59
442.708	17307.38
442.914	17772.27
443.121	18327.27
443.328	17864.43
443.534	19396.31
443.741	18691.81
443.948	18515.69
444.154	19861.2
444.361	20004.56
444.568	19766.99
444.774	19951.31
444.981	20217.55
445.187	20481.74
445.394	21524.15
445.6	21456.57
445.807	23404.19
446.013	22730.41
446.22	22515.37
446.426	23711.38
446.633	24024.72
446.839	24774.28
447.046	23520.92
447.252	25187.97
447.459	24858.24
447.665	24899.2
447.871	25810.55
448.078	27143.78
448.284	25898.61
448.491	26576.49
448.697	27698.78
448.903	28143.19
449.11	28040.79
449.316	27653.72
449.522	28053.08
449.728	28880.46
449.935	28884.55
450.141	29017.67
450.347	29990.45
450.553	28675.66
450.76	29333.06
450.966	29924.92
451.172	29926.97
451.378	30522.93
451.584	29929.02
451.791	30965.29
451.997	30846.51
452.203	31299.11
452.409	30963.24
452.615	31432.22
452.821	29746.75
453.027	29818.42
453.233	31368.74
453.44	29439.55
453.646	30463.54
453.852	30266.93
454.058	30627.37
454.264	29709.88
454.47	30375.47
454.676	29859.38
454.882	30899.75
455.088	28175.95
455.294	28587.6
455.5	29070.92
455.705	29357.63
455.911	28057.17
456.117	27256.42
456.323	27336.29
456.529	25806.45
456.735	26721.9
456.941	26371.69
457.147	25638.52
457.352	24989.31
457.558	24678.02
457.764	25091.71
457.97	24430.22
458.176	24123.02
458.381	23824.02
458.587	22648.49
458.793	22406.83
458.999	21683.89
459.204	23033.5
459.41	22374.06
459.616	20870.85
459.821	20809.41
460.027	20809.41
460.233	20270.79
460.438	19570.39
460.644	19728.08
460.85	18613.99
461.055	18491.11
461.261	18527.97
461.466	17055.48
461.672	16486.15
461.878	17612.53
462.083	16676.61
462.289	16301.83
462.494	16094.99
462.7	15290.13
462.905	14837.53
463.111	15378.2
463.316	15566.61
463.522	15179.54
463.727	15222.55
463.932	15365.91
464.138	15134.49
464.343	15066.91
464.549	14743.33
464.754	15099.67
464.959	14872.35
465.165	14688.03
465.37	14423.84
465.575	13936.43
465.781	14493.47
465.986	14516
466.191	13868.84
466.397	13514.55
466.602	13045.56
466.807	13467.44
467.012	13580.08
467.218	13467.44
467.423	13264.69
467.628	13156.15
467.833	13897.52
468.038	13244.21
468.244	13281.08
468.449	13506.35
468.654	12904.25
468.859	12867.39
469.064	12943.16
469.269	12574.53
469.474	12558.14
469.679	12656.45
469.885	12316.48
470.09	12504.9
470.295	12601.15
470.5	11859.79
470.705	12394.31
470.91	11904.84
471.115	11741
471.32	11843.4
471.525	11949.9
471.73	11509.58
471.935	11523.92
472.139	11226.96
472.344	11568.98
472.549	11040.6
472.754	11229.01
472.959	10831.71
473.164	10768.22
473.369	10669.92
473.574	10833.75
473.778	10915.67
473.983	10755.93
474.188	10811.23
474.393	10051.43
474.598	10297.19
474.802	10237.8
475.007	10196.84
475.212	10053.48
475.417	9883.5
475.621	9774.95
475.826	9811.82
476.031	9486.19
476.235	9424.75
476.44	9805.67
476.645	9301.87
476.849	9502.57
477.054	9316.21
477.259	8992.63
477.463	9107.32
477.668	8849.27
477.872	8933.24
478.077	8908.66
478.282	8681.34
478.486	8644.48
478.691	8531.84
478.895	8417.15
479.1	8429.44
479.304	8458.11
479.509	8087.43
479.713	8398.72
479.918	8116.1
480.122	7890.82
480.326	8091.52
480.531	8269.7
480.735	7999.37
480.94	7997.32
481.144	8261.51
481.348	7921.54
481.553	8013.7
481.757	7765.9
481.961	7856.01
482.166	7886.73
482.37	7823.24
482.574	7686.03
482.778	7810.95
482.983	8044.42
483.187	7749.51
483.391	7792.52
483.595	7780.23
483.8	7536.52
484.004	7894.92
484.208	7913.35
484.412	7765.9
484.616	7796.62
484.821	7899.02
485.025	7677.83
485.229	7896.97
485.433	7712.65
485.637	7964.55
485.841	7741.32
486.045	7794.57
486.249	7901.06
486.453	7778.19
486.657	7714.7
486.861	7767.95
487.065	7610.25
487.269	7724.94
487.473	7731.08
487.677	7942.02
487.881	7905.16
488.085	7886.73
488.289	7782.28
488.493	7749.51
488.697	7786.38
488.901	7950.21
489.105	7813
489.309	7819.14
489.512	7942.02
489.716	7915.4
489.92	7894.92
490.124	7899.02
490.328	8097.67
490.531	7858.06
490.735	8177.54
490.939	8089.48
491.143	8069
491.346	8048.52
491.55	8007.56
491.754	8042.37
491.958	8171.4
492.161	8173.44
492.365	8259.46
492.569	8105.86
492.772	8191.88
492.976	8351.62
493.18	8411.01
493.383	8449.92
493.587	8435.58
493.79	8540.03
493.994	8304.51
494.197	8671.1
494.401	8595.32
494.605	8574.85
494.808	8679.29
495.012	8820.6
495.215	8882.04
495.419	8712.06
495.622	8894.33
495.825	8990.58
496.029	8920.95
496.232	9224.05
496.436	9121.65
496.639	9387.89
496.843	9281.39
497.046	9541.49
497.249	9848.68
497.453	9627.5
497.656	9498.48
497.859	9955.18
498.063	9928.55
498.266	10174.31
498.469	10049.38
498.673	10207.08
498.876	10198.88
499.079	10493.79
499.282	10270.56
499.485	10626.91
499.689	10719.07
499.892	10850.14
500.095	10889.05
500.298	11022.17
500.501	11140.95
500.705	11319.12
500.908	11536.21
501.111	11487.06
501.314	11597.65
501.517	11605.84
501.72	11970.38
501.923	12003.14
502.126	12085.06
502.329	12341.06
502.532	12420.93
502.735	12543.81
502.938	12814.14
503.141	12836.67
503.344	12885.82
503.547	13133.62
503.75	13209.4
503.953	13387.57
504.156	13758.25
504.359	13612.85
504.562	13791.02
504.765	13973.29
504.968	14257.96
505.17	14327.59
505.373	14221.09
505.576	14622.5
505.779	14642.98
505.982	14984.99
506.185	15187.74
506.387	14995.23
506.59	15093.53
506.793	15482.64
506.996	15300.37
507.198	16054.03
507.401	15826.7
507.604	16033.55
507.807	16357.13
508.009	16396.04
508.212	16312.07
508.415	16494.34
508.617	16908.03
508.82	16967.42
509.022	16856.83
509.225	17448.69
509.428	17334.01
509.63	17657.59
509.833	17579.76
510.035	18460.39
510.238	18040.56
510.44	18231.02
510.643	18747.11
510.845	18624.23
511.048	18634.47
511.25	18790.11
511.453	18974.43
511.655	19760.85
511.858	19588.82
512.06	19848.91
512.262	20106.96
512.465	19658.45
512.667	20346.57
512.87	20551.37
513.072	20565.7
513.274	20862.66
513.477	21036.73
513.679	21518.01
513.881	21284.54
514.084	21573.3
514.286	21585.59
514.488	21536.44
514.69	22451.88
514.893	22417.07
515.095	22412.97
515.297	22664.87
515.499	23010.98
515.701	23037.6
515.904	23479.96
516.106	23801.49
516.308	23627.42
516.51	24041.11
516.712	24008.34
516.914	24118.93
517.116	24546.95
517.318	24757.89
517.52	25173.63
517.722	25007.75
517.925	25380.48
518.127	25388.67
518.329	25581.18
518.531	25654.9
518.733	26334.83
518.935	26056.31
519.136	26439.28
519.338	26803.81
519.54	26814.05
519.742	27027.04
519.944	27125.35
520.146	27752.02
520.348	27903.57
520.55	27983.44
520.752	28290.64
520.954	28589.64
521.155	28446.29
521.357	29011.53
521.559	28919.37
521.761	29636.16
521.963	29394.5
522.164	29699.64
522.366	29853.24
522.568	29969.97
522.77	30139.96
522.971	30262.83
523.173	30383.66
523.375	30699.05
523.576	30645.8
523.778	31125.03
523.98	31430.18
524.181	31571.49
524.383	31440.42
524.584	31948.31
524.786	32163.35
524.988	31757.85
525.189	32521.74
525.391	32585.23
525.592	32562.7
525.794	32695.82
525.995	32671.25
526.197	32910.86
526.398	32910.86
526.6	33207.81
526.801	33295.88
527.003	33480.19
527.204	33596.93
527.406	33785.34
527.607	34080.25
527.808	33840.64
528.01	33449.47
528.211	34176.5
528.412	34588.14
528.614	34508.27
528.815	34545.14
529.016	34803.18
529.218	34500.08
529.419	34602.48
529.62	34950.63
529.822	35053.03
530.023	35032.55
530.224	34694.64
530.425	35007.98
530.626	34876.91
530.828	34737.65
531.029	35380.71
531.23	34956.78
531.431	35194.34
531.632	35235.3
531.833	35569.12
532.035	35415.52
532.236	35608.03
532.437	35524.07
532.638	35278.31
532.839	35468.77
533.04	35782.11
533.241	35540.45
533.442	35778.01
533.643	35954.14
533.844	35749.34
534.045	36001.24
534.246	35659.23
534.447	35839.45
534.648	35843.55
534.849	35720.67
535.05	35597.79
535.251	36052.44
535.451	36097.5
535.652	36191.7
535.853	35929.56
536.054	35964.38
536.255	36134.36
536.456	35710.43
536.657	36554.19
536.857	36001.24
537.058	35872.22
537.259	36060.63
537.46	36294.1
537.66	35532.26
537.861	36019.67
538.062	35999.19
538.263	36281.81
538.463	35765.73
538.664	36259.29
538.865	36019.67
539.065	36279.77
539.266	35644.9
539.466	36146.65
539.667	35489.25
539.868	36662.74
540.068	36201.94
540.269	36294.1
540.469	36036.06
540.67	35939.8
540.87	35737.05
541.071	36021.72
541.271	36183.51
541.472	36216.28
541.672	35722.72
541.873	35841.5
542.073	35763.68
542.274	35978.72
542.474	35806.69
542.675	35868.12
542.875	36275.67
543.075	36140.5
543.276	35603.94
543.476	36027.87
543.676	35470.82
543.877	35759.58
544.077	35956.19
544.277	35806.69
544.478	36093.4
544.678	36027.87
544.878	35704.29
545.078	36052.44
545.279	36050.39
545.479	35745.25
545.679	35562.98
545.879	36027.87
546.079	35702.24
546.28	35726.81
546.48	35585.51
546.68	35913.18
546.88	35988.95
547.08	35872.22
547.28	35661.28
547.48	35501.54
547.68	35610.08
547.88	35481.06
548.081	35954.14
548.281	35753.44
548.481	35274.21
548.681	36007.39
548.881	35319.27
549.081	35427.81
549.28	35622.37
549.48	35706.34
549.68	35128.81
549.88	35927.52
550.08	35290.6
550.28	35962.33
550.48	35745.25
550.68	35878.36
550.88	35595.74
551.08	35309.03
551.279	35509.73
551.479	35116.52
551.679	35636.7
551.879	35810.78
552.079	35560.93
552.278	35286.5
552.478	35653.09
552.678	35376.61
552.878	35638.75
553.077	35294.69
553.277	35208.68
553.477	35765.73
553.676	35282.41
553.876	34958.83
554.076	35065.32
554.275	35317.22
554.475	34627.06
554.674	35352.04
554.874	34952.68
555.074	35237.35
555.273	35012.07
555.473	35345.89
555.672	34856.43
555.872	34864.62
556.071	34971.11
556.271	34979.31
556.47	34846.19
556.67	34719.21
556.869	34907.63
557.068	35026.41
557.268	34807.28
557.467	34555.38
557.667	34987.5
557.866	34831.85
558.065	34487.79
558.265	34532.85
558.464	34381.3
558.663	34993.64
558.863	33963.51
559.062	34713.07
559.261	34260.47
559.461	34416.11
559.66	33766.91
559.859	34027
560.058	33969.66
560.258	34000.38
560.457	33971.71
560.656	34315.76
560.855	34067.96
561.054	33910.27
561.253	33623.55
561.453	33897.98
561.652	34135.54
561.851	33879.55
562.05	33574.4
562.249	33631.74
562.448	33877.5
562.647	33410.56
562.846	33390.08
563.045	33676.8
563.244	33383.94
563.443	33908.22
563.642	32826.89
563.841	33285.64
564.04	33127.94
564.239	33336.84
564.438	32964.11
564.637	33377.79
564.836	33076.74
565.035	32593.42
565.234	32761.36
565.432	32736.78
565.631	32314.9
565.83	32280.08
566.029	32275.99
566.228	32175.64
566.427	32173.59
566.625	32318.99
566.824	32079.38
567.023	32503.31
567.222	31901.21
567.42	32341.52
567.619	32073.24
567.818	31854.11
568.016	31809.05
568.215	32065.05
568.414	31600.16
568.612	31960.6
568.811	31475.23
569.01	31653.4
569.208	31348.26
569.407	31657.5
569.605	31209
569.804	31606.3
570.002	30981.67
570.201	31200.8
570.4	30643.76
570.598	30735.91
570.797	30533.17
570.995	30860.84
571.193	30635.56
571.392	30957.1
571.59	30467.63
571.789	30293.55
571.987	30260.79
572.186	30354.99
572.384	29969.97
572.582	30535.21
572.781	30416.43
572.979	29902.39
573.177	30027.32
573.376	30144.05
573.574	29924.92
573.772	29804.09
573.971	29838.9
574.169	29503.04
574.367	29503.04
574.565	29474.37
574.763	29271.62
574.962	29388.35
575.16	29224.51
575.358	29273.67
575.556	29271.62
575.754	29283.91
575.952	28853.83
576.151	29187.65
576.349	28665.42
576.547	28689.99
576.745	28589.64
576.943	29204.03
577.141	28497.49
577.339	28546.64
577.537	28454.48
577.735	28221.01
577.933	28014.16
578.131	28325.46
578.329	27987.54
578.527	28118.61
578.725	27907.67
578.923	27979.35
579.121	27887.19
579.319	27563.61
579.516	27844.18
579.714	27893.33
579.912	27686.49
580.11	27500.12
580.308	27438.69
580.506	27586.14
580.704	26908.26
580.901	27500.12
581.099	27514.46
581.297	26855.01
581.495	27063.91
581.692	27061.86
581.89	26736.23
582.088	27045.48
582.285	26533.48
582.483	26922.6
582.681	26502.76
582.878	26820.2
583.076	26295.92
583.274	26732.14
583.471	26324.59
583.669	25958
583.866	25951.86
584.064	26330.73
584.262	25857.65
584.459	25925.24
584.657	25783.93
584.854	25943.67
585.052	25579.13
585.249	25714.3
585.447	25400.96
585.644	25378.43
585.841	25605.75
586.039	25362.04
586.236	25181.82
586.434	25378.43
586.631	25353.85
586.828	24895.11
587.026	25118.34
587.223	25063.04
587.42	24874.63
587.618	24981.12
587.815	24827.53
588.012	24927.88
588.21	24630.92
588.407	24893.06
588.604	24358.54
588.801	24256.14
588.999	24589.96
589.196	24321.68
589.393	24256.14
589.59	24090.26
589.787	24331.92
589.984	24043.15
590.182	23899.8
590.379	23936.66
590.576	23858.84
590.773	23690.9
590.97	23633.56
591.167	23641.75
591.364	23557.78
591.561	23713.43
591.758	23381.66
591.955	23297.69
592.152	23445.15
592.349	23152.29
592.546	23240.35
592.743	23070.37
592.94	22947.49
593.137	22967.97
593.334	23070.37
593.531	22634.15
593.727	22693.54
593.924	22886.05
594.121	22265.52
594.318	22724.26
594.515	22662.82
594.712	22460.07
594.908	22488.74
595.105	22273.71
595.302	22503.08
595.499	22453.93
595.696	22181.55
595.892	22089.39
596.089	22030
596.286	22097.58
596.482	22070.96
596.679	21808.82
596.876	21798.58
597.072	21737.14
597.269	21622.45
597.466	21659.32
597.662	21556.92
597.859	21444.28
598.055	21495.48
598.252	21409.47
598.448	21569.21
598.645	21288.64
598.841	21190.33
599.038	21106.37
599.234	21141.18
599.431	20803.27
599.627	21116.61
599.824	20975.3
600.02	20647.62
600.217	20903.62
600.413	20862.66
600.609	20700.87
600.806	20367.05
601.002	20647.62
601.198	20838.08
601.395	20387.53
601.591	20420.3
601.787	20162.25
601.984	19799.76
602.18	20176.59
602.376	20135.63
602.572	19973.84
602.769	20016.85
602.965	19771.09
603.161	19855.06
603.357	19455.7
603.553	19603.16
603.75	19750.61
603.946	19578.58
604.142	19586.77
604.338	19375.83
604.534	19369.69
604.73	19367.64
604.926	19318.49
605.122	19478.23
605.318	19117.79
605.514	19128.03
605.71	19039.97
605.906	18876.13
606.102	18949.85
606.298	18958.05
606.494	18829.02
606.69	18736.87
606.886	18837.22
607.082	18849.5
607.278	18910.94
607.474	18548.45
607.67	18734.82
607.866	18216.68
608.062	18718.43
608.257	18452.2
608.453	18550.5
608.649	18355.94
608.845	18294.5
609.041	18325.22
609.236	18411.24
609.432	18237.16
609.628	18061.04
609.824	18392.81
610.019	18081.52
610.215	18155.24
610.411	18175.72
610.606	17829.62
610.802	18140.91
610.998	18015.98
611.193	17991.41
611.389	17749.75
611.584	17635.06
611.78	17528.56
611.976	17866.48
612.171	17590
612.367	17626.87
612.562	17657.59
612.758	17178.36
612.953	17569.52
613.149	17667.83
613.344	17434.36
613.539	17526.52
613.735	17321.72
613.93	17305.34
614.126	17307.38
614.321	17315.58
614.517	17235.7
614.712	17215.23
614.907	17268.47
615.103	17121.02
615.298	16971.52
615.493	17516.28
615.688	16740.1
615.884	17395.45
616.079	16930.56
616.274	17088.25
616.47	16846.59
616.665	16879.36
616.86	16756.48
617.055	16817.92
617.25	16662.27
617.445	16807.68
617.641	16654.08
617.836	16643.84
618.031	16494.34
618.226	16740.1
618.421	16772.86
618.616	16369.41
618.811	16420.61
619.006	16371.46
619.201	15927.05
619.396	16137.99
619.591	16094.99
619.786	16123.66
619.981	15877.9
620.176	16281.35
620.371	15925
620.566	15648.53
620.761	15851.28
620.956	15808.27
621.151	15564.56
621.346	15677.2
621.541	15435.54
621.735	15626
621.93	15341.33
622.125	15310.61
622.32	14987.04
622.515	15257.37
622.709	14946.08
622.904	15114.01
623.099	14810.91
623.294	14919.45
623.488	14841.63
623.683	14923.55
623.878	14391.08
624.072	14622.5
624.267	14757.66
624.462	14364.45
624.656	14479.14
624.851	14155.56
625.046	14001.96
625.24	14141.22
625.435	14079.79
625.629	13866.8
625.824	13801.26
626.018	13815.6
626.213	13477.68
626.407	13530.93
626.602	13489.97
626.796	13336.37
626.991	13449.01
627.185	13442.87
627.38	13315.89
627.574	12986.17
627.768	13014.84
627.963	13107
628.157	13016.89
628.352	13178.68
628.546	12875.58
628.74	12797.76
628.935	12795.71
629.129	12613.44
629.323	12515.14
629.517	12644.16
629.712	12398.4
629.906	12373.83
630.1	12306.24
630.294	12562.24
630.489	12322.63
630.683	12246.85
630.877	12076.87
631.071	11939.66
631.265	11947.85
631.459	11927.37
631.653	11681.61
631.848	11726.67
632.042	11796.3
632.236	11794.25
632.43	11450.19
632.624	11611.98
632.818	11245.4
633.012	11278.16
633.206	11423.57
633.4	11298.64
633.594	11085.65
633.788	11362.13
633.982	11186.01
634.176	11126.61
634.369	10995.54
634.563	10858.33
634.757	10794.84
634.951	10762.08
635.145	10704.73
635.339	11007.83
635.533	10794.84
635.726	10778.46
635.92	10217.32
636.114	10614.62
636.308	10547.04
636.501	10309.47
636.695	10307.43
636.889	10293.09
637.083	10321.76
637.276	10211.17
637.47	10200.93
637.664	10198.88
637.857	10219.36
638.051	9645.93
638.244	10024.81
638.438	10030.95
638.632	9979.75
638.825	9676.65
639.019	9824.11
639.212	9527.15
639.406	9633.64
639.599	9650.03
639.793	9580.4
639.986	9426.8
640.18	9453.42
640.373	9361.27
640.567	9174.9
640.76	9412.46
640.954	9097.08
641.147	8904.57
641.34	9019.25
641.534	9019.25
641.727	9109.36
641.92	9011.06
642.114	8847.22
642.307	8699.77
642.5	8796.03
642.694	8748.92
642.887	8785.79
643.08	8634.24
643.273	8628.09
643.467	8650.62
643.66	8624
643.853	8484.73
644.046	8386.43
644.239	8351.62
644.432	8388.48
644.626	8402.82
644.819	8275.84
645.012	8292.23
645.205	8019.85
645.398	8228.74
645.591	8198.02
645.784	8071.04
645.977	7958.41
646.17	7995.27
646.363	7991.17
646.556	7720.84
646.749	7911.3
646.942	7710.6
647.135	7831.43
647.328	7767.95
647.521	7774.09
647.714	7372.69
647.907	7696.27
648.099	7686.03
648.292	7790.47
648.485	7511.95
648.678	7362.45
648.871	7434.13
649.064	7374.74
649.256	7561.1
649.449	7266.19
649.642	7409.55
649.835	7303.06
650.027	7188.37
650.22	7243.67
650.413	7153.55
650.605	7057.3
650.798	7045.01
650.991	6891.41
651.183	7040.92
651.376	6907.8
651.568	6967.19
651.761	6862.74
651.954	6901.65
652.146	6789.02
652.339	6778.78
652.531	6651.8
652.724	6649.75
652.916	6465.44
653.109	6741.91
653.301	6549.4
653.494	6647.71
653.686	6313.89
653.879	6524.83
654.071	6649.75
654.263	6307.74
654.456	6287.26
654.648	6379.42
654.84	6373.28
655.033	6213.54
655.225	6299.55
655.417	6213.54
655.61	6268.83
655.802	6307.74
655.994	6162.34
656.186	6164.39
656.379	6074.28
656.571	6023.08
656.763	5982.12
656.955	6018.98
657.148	6035.36
657.34	5918.63
657.532	5896.1
657.724	5892.01
657.916	5826.47
658.108	5674.92
658.3	5844.9
658.492	5760.94
658.684	5726.12
658.876	5744.55
659.068	5556.14
659.26	5533.61
659.452	5627.82
659.644	5588.91
659.836	5547.95
660.028	5556.14
660.22	5429.17
660.412	5451.69
660.604	5474.22
660.796	5250.99
660.988	5404.59
661.18	5416.88
661.372	5392.3
661.563	5455.79
661.755	5371.82
661.947	5191.6
662.139	5384.11
662.331	5234.61
662.522	5130.16
662.714	5195.7
662.906	5117.87
663.097	5277.62
663.289	4884.41
663.481	5083.06
663.673	4988.85
663.864	5009.33
664.056	4992.95
664.247	4960.18
664.439	4954.04
664.631	4796.34
664.822	4874.17
665.014	4949.94
665.205	4779.96
665.397	4782.01
665.588	4741.05
665.78	4655.03
665.971	4734.9
666.163	4689.85
666.354	4607.93
666.546	4554.68
666.737	4720.57
666.929	4657.08
667.12	4677.56
667.311	4546.49
667.503	4554.68
667.694	4591.55
667.885	4630.46
668.077	4630.46
668.268	4394.94
668.459	4470.72
668.651	4491.2
668.842	4444.09
669.033	4425.66
669.224	4296.64
669.416	4282.3
669.607	4483
669.798	4448.19
669.989	4345.79
670.18	4448.19
670.371	4353.98
670.563	4364.22
670.754	4245.44
670.945	4243.39
671.136	4329.41
671.327	4274.11
671.518	4190.14
671.709	4085.7
671.9	4370.37
672.091	4235.2
672.282	4009.92
672.473	4159.42
672.664	4114.37
672.855	4057.03
673.046	3962.82
673.237	4046.79
673.428	4075.46
673.619	4175.81
673.809	4093.89
674	4114.37
674.191	4132.8
674.382	3872.71
674.573	4042.69
674.764	3975.11
674.954	4124.61
675.145	3952.58
675.336	3952.58
675.527	3780.55
675.717	3844.04
675.908	4034.5
676.099	3938.24
676.289	3862.47
676.48	3762.12
676.671	3966.92
676.861	3905.48
677.052	3860.42
677.243	3686.34
677.433	3755.97
677.624	3702.73
677.814	3776.45
678.005	3776.45
678.195	3803.08
678.386	3819.46
678.576	3715.02
678.767	3735.49
678.957	3755.97
679.148	3717.06
679.338	3735.49
679.529	3645.38
679.719	3729.35
679.909	3723.21
680.1	3741.64
680.29	3649.48
680.481	3702.73
680.671	3678.15
680.861	3575.75
681.052	3760.07
681.242	3602.38
681.432	3755.97
681.622	3637.19
681.813	3499.98
682.003	3573.71
682.193	3616.71
682.383	3604.42
682.573	3717.06
682.764	3545.03
682.954	3690.44
683.144	3559.37
683.334	3569.61
683.524	3545.03
683.714	3477.45
683.904	3416.01
684.094	3452.88
684.284	3524.55
684.474	3577.8
684.664	3524.55
684.854	3368.91
685.044	3430.35
685.234	3491.79
685.424	3467.21
685.614	3274.7
685.804	3461.07
685.994	3401.68
686.184	3469.26
686.374	3291.09
686.564	3272.65
686.753	3397.58
686.943	3235.79
687.133	3284.94
687.323	3407.82
687.513	3346.38
687.702	3276.75
687.892	3280.85
688.082	3332.05
688.272	3108.82
688.461	3231.69
688.651	3217.36
688.841	3239.89
689.03	3071.95
689.22	3231.69
689.41	3209.17
689.599	3139.54
689.789	3164.11
689.979	3100.62
690.168	3080.14
690.358	3014.61
690.547	3104.72
690.737	3088.34
690.926	3047.38
691.116	3090.38
691.305	3151.82
691.495	3000.27
691.684	2967.51
691.874	2922.45
692.063	2942.93
692.252	2983.89
692.442	2955.22
692.631	2768.85
692.82	2949.07
693.01	2840.53
693.199	2928.6
693.388	2766.81
693.578	2863.06
693.767	2850.77
693.956	2881.49
694.146	2936.79
694.335	2762.71
694.524	2717.65
694.713	2836.44
694.902	2756.57
695.092	2734.04
695.281	2815.96
695.47	2818
695.659	2807.77
695.848	2682.84
696.037	2686.93
696.226	2719.7
696.415	2707.41
696.604	2764.76
696.793	2760.66
696.982	2684.89
697.171	2740.18
697.36	2658.26
697.549	2715.61
697.738	2652.12
697.927	2654.17
698.116	2615.26
698.305	2734.04
698.494	2639.83
698.683	2711.51
698.872	2658.26
699.061	2576.34
699.25	2602.97
699.438	2682.84
699.627	2557.91
699.816	2590.68
700.005	2611.16
700.193	2605.02
700.382	2701.27
700.571	2656.22
700.76	2684.89
700.948	2617.3
701.137	2566.1
701.326	2592.73
701.514	2705.37
701.703	2709.46
701.892	2623.45
702.08	2639.83
702.269	2693.08
702.457	2619.35
702.646	2756.57
702.834	2578.39
703.023	2578.39
703.212	2688.98
703.4	2627.54
703.589	2529.24
703.777	2637.78
703.965	2557.91
704.154	2555.86
704.342	2650.07
704.531	2602.97
704.719	2555.86
704.907	2691.03
705.096	2566.1
705.284	2570.2
705.472	2596.82
705.661	2562.01
705.849	2564.06
706.037	2674.65
706.226	2617.3
706.414	2574.3
706.602	2557.91
706.79	2547.67
706.979	2480.09
707.167	2562.01
707.355	2617.3
707.543	2596.82
707.731	2736.09
707.919	2555.86
708.107	2602.97
708.296	2547.67
708.484	2621.4
708.672	2574.3
708.86	2598.87
709.048	2592.73
709.236	2688.98
709.424	2598.87
709.612	2555.86
709.8	2502.62
709.988	2619.35
710.176	2668.5
710.364	2611.16
710.551	2588.63
710.739	2570.2
710.927	2559.96
711.115	2652.12
711.303	2625.5
711.491	2514.91
711.679	2549.72
711.866	2545.63
712.054	2432.99
712.242	2545.63
712.43	2623.45
712.617	2482.14
712.805	2600.92
712.993	2637.78
713.181	2594.78
713.368	2639.83
713.556	2625.5
713.744	2623.45
713.931	2594.78
714.119	2504.67
714.306	2535.39
714.494	2582.49
714.682	2521.05
714.869	2574.3
715.057	2693.08
715.244	2641.88
715.432	2537.43
715.619	2529.24
715.807	2648.02
715.994	2748.37
716.182	2541.53
716.369	2607.06
716.556	2660.31
716.744	2662.36
716.931	2707.41
717.119	2654.17
717.306	2535.39
717.493	2596.82
717.681	2693.08
717.868	2721.75
718.055	2580.44
718.242	2596.82
718.43	2686.93
718.617	2611.16
718.804	2664.41
718.991	2611.16
719.179	2578.39
719.366	2559.96
719.553	2602.97
719.74	2615.26
719.927	2541.53
720.114	2625.5
720.301	2619.35
720.488	2697.17
720.676	2709.46
720.863	2648.02
721.05	2705.37
721.237	2674.65
721.424	2613.21
721.611	2717.65
721.798	2566.1
721.985	2615.26
722.172	2654.17
722.358	2586.58
722.545	2693.08
722.732	2676.7
722.919	2803.67
723.106	2605.02
723.293	2609.11
723.48	2688.98
723.667	2682.84
723.853	2625.5
724.04	2672.6
724.227	2658.26
724.414	2668.5
724.6	2680.79
724.787	2670.55
724.974	2678.74
725.161	2645.98
725.347	2637.78
725.534	2775
725.72	2670.55
725.907	2678.74
726.094	2637.78
726.28	2584.54
726.467	2641.88
726.653	2703.32
726.84	2668.5
727.027	2678.74
727.213	2557.91
727.4	2676.7
727.586	2660.31
727.773	2592.73
727.959	2668.5
728.145	2660.31
728.332	2656.22
728.518	2699.22
728.705	2777.05
728.891	2709.46
729.077	2840.53
729.264	2676.7
729.45	2666.46
729.636	2783.19
729.823	2609.11
730.009	2699.22
730.195	2648.02
730.382	2725.85
730.568	2633.69
730.754	2635.74
730.94	2707.41
731.126	2717.65
731.313	2809.81
731.499	2650.07
731.685	2697.17
731.871	2635.74
732.057	2613.21
732.243	2719.7
732.429	2635.74
732.615	2738.13
732.801	2609.11
732.987	2764.76
733.173	2748.37
733.359	2531.29
733.545	2637.78
733.731	2705.37
733.917	2768.85
734.103	2688.98
734.289	2680.79
734.475	2607.06
734.661	2627.54
734.847	2676.7
735.033	2740.18
735.219	2676.7
735.404	2678.74
735.59	2688.98
735.776	2664.41
735.962	2625.5
736.148	2664.41
736.333	2627.54
736.519	2775
736.705	2633.69
736.89	2621.4
737.076	2578.39
737.262	2666.46
737.447	2625.5
737.633	2598.87
737.819	2656.22
738.004	2498.52
738.19	2596.82
738.375	2674.65
738.561	2596.82
738.747	2625.5
738.932	2537.43
739.118	2609.11
739.303	2549.72
739.489	2510.81
739.674	2602.97
739.859	2506.71
740.045	2543.58
740.23	2537.43
740.416	2484.19
740.601	2439.13
740.786	2451.42
740.972	2496.47
741.157	2516.95
741.342	2523.1
741.528	2480.09
741.713	2547.67
741.898	2412.51
742.084	2527.19
742.269	2445.27
742.454	2453.47
742.639	2428.89
742.824	2416.6
743.01	2451.42
743.195	2584.54
743.38	2420.7
743.565	2453.47
743.75	2422.75
743.935	2283.49
744.12	2508.76
744.305	2289.63
744.49	2451.42
744.675	2363.36
744.86	2328.54
745.045	2326.49
745.23	2432.99
745.415	2324.44
745.6	2299.87
745.785	2254.81
745.97	2365.4
746.155	2234.33
746.34	2260.96
746.525	2170.85
746.71	2236.38
746.895	2250.72
747.079	2191.33
747.264	2082.78
747.449	2258.91
747.634	2230.24
747.819	2148.32
748.003	2168.8
748.188	2011.11
748.373	2133.98
748.557	2158.56
748.742	2136.03
748.927	1896.42
749.111	2023.39
749.296	2037.73
749.481	2164.7
749.665	2035.68
749.85	1968.1
750.034	1998.82
750.219	1937.38
750.404	1980.39
750.588	1984.48
750.773	1871.84
750.957	1925.09
751.141	1886.18
751.326	1875.94
751.51	1736.68
751.695	1867.75
751.879	1939.43
752.064	1972.19
752.248	1951.71
752.432	1834.98
752.617	1748.97
752.801	1779.68
752.985	1685.48
753.17	1816.55
753.354	1810.4
753.538	1734.63
753.722	1699.81
753.907	1771.49
754.091	1701.86
754.275	1699.81
754.459	1714.15
754.643	1566.7
754.828	1583.08
755.012	1591.27
755.196	1595.37
755.38	1574.89
755.564	1642.47
755.748	1570.79
755.932	1626.09
756.116	1507.31
756.3	1605.61
756.484	1562.6
756.668	1585.13
756.852	1499.11
757.036	1521.64
757.22	1603.56
757.404	1425.39
757.588	1525.74
757.772	1581.03
757.956	1517.54
758.14	1466.35
758.323	1392.62
758.507	1464.3
758.691	1464.3
758.875	1400.81
759.059	1462.25
759.242	1456.11
759.426	1378.28
759.61	1400.81
759.794	1460.2
759.977	1474.54
760.161	1460.2
760.345	1376.23
760.528	1329.13
760.712	1292.27
760.895	1351.66
761.079	1286.12
761.263	1359.85
761.446	1261.55
761.63	1322.99
761.813	1378.28
761.997	1193.97
762.18	1306.6
762.364	1177.58
762.547	1181.68
762.731	1212.4
762.914	1222.64
763.098	1216.49
763.281	1161.2
763.464	1296.36
763.648	1204.21
763.831	1214.45
764.015	1142.77
764.198	1271.79
764.381	1220.59
764.564	1114.1
764.748	1159.15
764.931	1312.75
765.114	1161.2
765.297	1116.14
765.481	1187.82
765.664	1157.1
765.847	1126.38
766.03	1124.33
766.213	1206.25
766.397	1095.66
766.58	1140.72
766.763	1159.15
766.946	1101.81
767.129	1028.08
767.312	1075.18
767.495	1017.84
767.678	1167.34
767.861	1089.52
768.044	1105.9
768.227	1009.65
768.41	1040.37
768.593	1046.51
768.776	1048.56
768.959	1021.94
769.142	1112.05
769.324	1087.47
769.507	976.88
769.69	1019.89
769.873	1167.34
770.056	1066.99
770.239	1026.03
770.421	1073.14
770.604	954.35
770.787	1001.46
770.97	1023.98
771.152	1042.42
771.335	987.12
771.518	983.02
771.7	1009.65
771.883	976.88
772.066	960.5
772.248	935.92
772.431	948.21
772.613	954.35
772.796	831.48
772.978	831.48
773.161	915.44
773.343	942.07
773.526	888.82
773.708	919.54
773.891	780.28
774.073	886.77
774.256	886.77
774.438	980.98
774.621	849.91
774.803	876.53
774.985	858.1
775.168	829.43
775.35	849.91
775.532	970.74
775.715	811
775.897	808.95
776.079	800.76
776.261	854
776.444	767.99
776.626	815.09
776.808	819.19
776.99	831.48
777.173	792.56
777.355	811
777.537	749.56
777.719	710.65
777.901	706.55
778.083	681.97
778.265	681.97
778.447	786.42
778.629	714.74
778.811	755.7
778.993	774.13
779.175	804.85
779.357	667.64
779.539	694.26
779.721	735.22
779.903	733.17
780.085	733.17
780.267	679.93
780.449	636.92
780.631	716.79
780.812	759.8
780.994	645.11
781.176	712.69
781.358	665.59
781.54	708.6
781.721	628.73
781.903	550.9
782.085	653.3
782.267	630.77
782.448	638.97
782.63	657.4
782.812	600.05
782.993	577.53
783.175	608.25
783.357	608.25
783.538	622.58
783.72	655.35
783.901	585.72
784.083	587.77
784.264	585.72
784.446	555
784.627	587.77
784.809	507.9
784.99	583.67
785.172	532.47
785.353	583.67
785.535	569.34
785.716	477.18
785.897	479.22
786.079	548.86
786.26	444.41
786.441	505.85
786.623	511.99
786.804	518.14
786.985	587.77
787.167	493.56
787.348	483.32
787.529	514.04
787.71	487.42
787.891	491.51
788.073	452.6
788.254	503.8
788.435	477.18
788.616	442.36
788.797	485.37
788.978	403.45
789.159	438.27
789.34	440.31
789.522	485.37
789.703	411.64
789.884	452.6
790.065	405.5
790.246	448.51
790.427	409.59
790.607	448.51
790.788	458.74
790.969	468.98
791.15	403.45
791.331	466.94
791.512	397.31
791.693	382.97
791.874	405.5
792.054	417.79
792.235	382.97
792.416	342.01
792.597	403.45
792.778	385.02
792.958	329.72
793.139	419.83
793.32	415.74
793.5	329.72
793.681	407.55
793.862	329.72
794.042	370.68
794.223	391.16
794.404	323.58
794.584	362.49
794.765	393.21
794.945	342.01
795.126	354.3
795.306	376.83
795.487	372.73
795.667	305.15
795.848	337.91
796.028	311.29
796.209	296.96
796.389	438.27
796.57	315.39
796.75	301.05
796.93	370.68
797.111	389.11
797.291	296.96
797.471	352.25
797.652	350.2
797.832	313.34
798.012	296.96
798.192	342.01
798.373	405.5
798.553	294.91
798.733	366.59
798.913	262.14
799.093	229.37
799.274	223.23
799.454	339.96
799.634	331.77
799.814	292.86
799.994	337.91
800.174	309.24
800.354	282.62
800.534	311.29
800.714	231.42
800.894	266.24
801.074	200.7
801.254	272.38
801.434	311.29
801.614	299
801.794	305.15
801.974	675.83
802.154	358.39
802.334	325.63
802.514	327.67
802.693	190.46
802.873	319.48
803.053	239.61
803.233	233.47
803.413	268.28
803.592	159.74
803.772	251.9
803.952	278.52
804.131	303.1
804.311	358.39
804.491	260.09
804.67	174.08
804.85	245.76
805.03	221.18
805.209	266.24
805.389	235.52
805.568	243.71
805.748	198.65
805.928	303.1
806.107	276.48
806.287	245.76
806.466	159.74
806.646	221.18
806.825	266.24
807.004	225.28
807.184	266.24
807.363	208.89
807.543	200.7
807.722	204.8
807.901	192.51
808.081	204.8
808.26	237.56
808.439	186.37
808.619	212.99
808.798	131.07
808.977	266.24
809.156	208.89
809.336	204.8
809.515	172.03
809.694	155.65
809.873	194.56
810.052	155.65
810.231	284.67
810.411	206.84
810.59	249.85
810.769	212.99
810.948	172.03
811.127	176.13
811.306	184.32
811.485	219.13
811.664	221.18
811.843	131.07
812.022	217.08
812.201	67.58
812.38	141.31
812.559	196.61
812.737	206.84
812.916	178.17
813.095	206.84
813.274	206.84
813.453	141.31
813.632	159.74
813.811	229.37
813.989	169.98
814.168	208.89
814.347	161.79
814.526	180.22
814.704	153.6
814.883	186.37
815.062	143.36
815.24	198.65
815.419	190.46
815.598	165.89
815.776	153.6
815.955	169.98
816.133	114.69
816.312	163.84
816.49	120.83
816.669	210.94
816.847	124.93
817.026	186.37
817.204	153.6
817.383	167.93
817.561	122.88
817.74	145.41
817.918	155.65
818.097	106.49
818.275	188.41
818.453	112.64
818.632	174.08
818.81	210.94
818.988	198.65
819.167	92.16
819.345	184.32
819.523	133.12
819.701	155.65
819.879	141.31
820.058	126.97
820.236	106.49
820.414	167.93
820.592	110.59
820.77	176.13
820.948	92.16
821.127	75.77
821.305	135.17
821.483	145.41
821.661	71.68
821.839	75.77
822.017	131.07
822.195	71.68
822.373	176.13
822.551	102.4
822.729	172.03
822.907	137.21
823.085	57.34
823.262	122.88
823.44	118.78
823.618	69.63
823.796	73.73
823.974	108.54
824.152	129.02
824.329	129.02
824.507	122.88
824.685	92.16
824.863	116.73
825.04	40.96
825.218	122.88
825.396	104.45
825.574	124.93
825.751	104.45
825.929	104.45
826.107	49.15
826.284	145.41
826.462	141.31
826.639	57.34
826.817	149.5
826.994	149.5
827.172	51.2
827.349	155.65
827.527	67.58
827.704	73.73
827.882	102.4
828.059	79.87
828.237	77.82
828.414	178.17
828.591	86.01
828.769	112.64
828.946	116.73
829.124	215.04
829.301	118.78
829.478	114.69
829.655	104.45
829.833	96.25
830.01	92.16
830.187	145.41
830.364	79.87
830.542	104.45
830.719	131.07
830.896	88.06
831.073	94.21
831.25	61.44
831.427	34.82
831.604	100.35
831.782	81.92
831.959	161.79
832.136	137.21
832.313	137.21
832.49	69.63
832.667	110.59
832.844	47.1
833.021	94.21
833.198	43.01
833.374	30.72
833.551	30.72
833.728	67.58
833.905	157.69
834.082	63.49
834.259	88.06
834.436	86.01
834.612	43.01
834.789	118.78
834.966	83.97
835.143	96.25
835.319	57.34
835.496	65.54
835.673	106.49
835.85	120.83
836.026	45.06
836.203	86.01
836.38	88.06
836.556	-2.05
836.733	-28.67
836.909	94.21
837.086	32.77
837.262	112.64
837.439	34.82
837.616	137.21
837.792	63.49
837.968	151.55
838.145	38.91
838.321	59.39
838.498	135.17
838.674	145.41
838.851	55.3
839.027	88.06
839.203	129.02
839.38	81.92
839.556	104.45
839.732	143.36
839.909	18.43
840.085	79.87
840.261	63.49
840.437	34.82
840.614	22.53
840.79	104.45
840.966	51.2
841.142	65.54
841.318	55.3
841.494	55.3
841.671	47.1
841.847	73.73
842.023	83.97
842.199	81.92
842.375	71.68
842.551	83.97
842.727	43.01
842.903	102.4
843.079	12.29
843.255	71.68
843.431	90.11
843.607	77.82
843.783	12.29
843.959	88.06
844.134	61.44
844.31	73.73
844.486	34.82
844.662	-22.53
844.838	65.54
845.013	77.82
845.189	92.16
845.365	47.1
845.541	20.48
845.716	106.49
845.892	40.96
846.068	-22.53
846.244	-36.86
846.419	49.15
846.595	10.24
846.77	8.19
846.946	16.38
847.122	34.82
847.297	57.34
847.473	79.87
847.648	2.05
847.824	18.43
847.999	61.44
848.175	45.06
848.35	-36.86
848.526	100.35
848.701	75.77
848.876	51.2
849.052	63.49
849.227	55.3
849.403	0
849.578	112.64
849.753	38.91
849.929	59.39
850.104	6.14
850.279	20.48
850.454	-36.86
850.63	57.34
850.805	4.1
850.98	-14.34
851.155	34.82
851.33	47.1
851.505	55.3
851.681	34.82
851.856	28.67
852.031	104.45
852.206	-16.38
852.381	-38.91
852.556	75.77
852.731	26.62
852.906	51.2
853.081	118.78
853.256	22.53
853.431	16.38
853.606	28.67
853.781	32.77
853.956	-18.43
854.131	47.1
854.305	57.34
854.48	81.92
854.655	83.97
854.83	34.82
855.005	-40.96
855.18	67.58
855.354	6.14
855.529	122.88
855.704	65.54
855.879	34.82
856.053	-38.91
856.228	51.2
856.403	-22.53
856.577	20.48
856.752	71.68
856.926	-26.62
857.101	38.91
857.276	51.2
857.45	55.3
857.625	24.58
857.799	16.38
857.974	-2.05
858.148	38.91
858.323	-49.15
858.497	-6.14
858.672	57.34
858.846	4.1
859.02	20.48
859.195	14.34
859.369	63.49
859.543	26.62
859.718	14.34
859.892	34.82
860.066	86.01
860.241	14.34
860.415	40.96
860.589	14.34
860.763	47.1
860.938	-30.72
861.112	61.44
861.286	38.91
861.46	20.48
861.634	30.72
861.808	65.54
861.982	-53.25
862.157	-26.62
862.331	61.44
862.505	73.73
862.679	47.1
862.853	-18.43
863.027	36.86
863.201	102.4
863.375	-34.82
863.549	51.2
863.722	14.34
863.896	2.05
864.07	-10.24
864.244	22.53
864.418	20.48
864.592	24.58
864.766	100.35
864.939	-8.19
865.113	-18.43
865.287	8.19
865.461	-20.48
865.634	-6.14
865.808	49.15
865.982	63.49
866.156	-4.1
866.329	26.62
866.503	12.29
866.676	8.19
866.85	43.01
867.024	36.86
867.197	-14.34
867.371	-2.05
867.544	18.43
867.718	26.62
867.891	30.72
868.065	2.05
868.238	-2.05
868.412	73.73
868.585	16.38
868.759	16.38
868.932	-36.86
869.105	30.72
869.279	75.77
869.452	-22.53
869.625	14.34
869.799	14.34
869.972	-69.63
870.145	-20.48
870.319	59.39
870.492	106.49
870.665	28.67
870.838	75.77
871.011	-12.29
871.185	83.97
871.358	-4.1
871.531	8.19
871.704	10.24
871.877	-45.06
872.05	-43.01
872.223	26.62
872.396	86.01
872.569	83.97
872.742	20.48
872.915	20.48
873.088	-4.1
873.261	36.86
873.434	-2.05
873.607	30.72
873.78	63.49
873.953	51.2
874.126	14.34
874.299	8.19
874.471	-65.54
874.644	-10.24
874.817	2.05
874.99	20.48
875.163	-24.58
875.335	-36.86
875.508	20.48
875.681	10.24
875.853	2.05
876.026	24.58
876.199	-12.29
876.371	14.34
876.544	-6.14
876.717	26.62
876.889	20.48
877.062	90.11
877.234	8.19
877.407	10.24
877.579	61.44
877.752	53.25
877.924	59.39
878.097	-10.24
878.269	61.44
878.442	-12.29
878.614	16.38
878.786	6.14
878.959	6.14
879.131	26.62
879.303	26.62
879.476	53.25
879.648	67.58
879.82	26.62
879.993	-4.1
880.165	38.91
880.337	12.29
880.509	28.67
880.681	43.01
880.854	4.1
881.026	14.34
881.198	0
881.37	18.43
881.542	83.97
881.714	-34.82
881.886	34.82
882.058	-24.58
882.23	24.58
882.402	43.01
882.574	-22.53
882.746	36.86
882.918	-2.05
883.09	51.2
883.262	57.34
883.434	10.24
883.606	-49.15
883.778	8.19
883.95	-43.01
884.122	45.06
884.293	63.49
884.465	57.34
884.637	67.58
884.809	-4.1
884.98	-6.14
885.152	12.29
885.324	-6.14
885.496	-43.01
885.667	0
885.839	34.82
886.011	6.14
886.182	18.43
886.354	73.73
886.525	51.2
886.697	-2.05
886.869	20.48
887.04	-24.58
887.212	75.77
887.383	98.3
887.555	6.14
887.726	-16.38
887.897	-22.53
888.069	69.63
888.24	28.67
888.412	-10.24
888.583	-16.38
888.754	8.19
888.926	-18.43
889.097	-2.05
889.268	-40.96
889.44	112.64
889.611	-90.11
889.782	6.14
889.953	2.05
890.125	43.01
890.296	8.19
890.467	-14.34
890.638	-36.86
890.809	-20.48
890.98	20.48
891.151	-6.14
891.323	65.54
891.494	-14.34
891.665	30.72
891.836	53.25
892.007	-40.96
892.178	0
892.349	-24.58
892.52	-102.4
892.691	-47.1
892.862	-22.53
893.032	12.29
893.203	14.34
893.374	-16.38
893.545	-18.43
893.716	14.34
893.887	51.2
894.057	-16.38
894.228	-67.58
894.399	-18.43
894.57	32.77
894.74	73.73
894.911	-8.19
895.082	-4.1
895.253	-47.1
895.423	34.82
895.594	14.34
895.764	-24.58
895.935	20.48
896.106	77.82
896.276	43.01
896.447	12.29
896.617	-12.29
896.788	-32.77
896.958	-6.14
897.129	-28.67
897.299	-18.43
897.47	-18.43
897.64	20.48
897.81	-6.14
897.981	20.48
898.151	-51.2
898.322	-14.34
898.492	6.14
898.662	-8.19
898.832	-45.06
899.003	-65.54
899.173	88.06
899.343	16.38
899.513	-34.82
