Data from USB4F104151__84__11-52-50-839.txt Node

Date: Fri Mar 14 11:52:50 EDT 2025
User: louis
Spectrometer: USB4F10415
Trigger mode: 4
Integration Time (sec): 2.000000E-2
Scans to average: 1
Electric dark correction enabled: true
Nonlinearity correction enabled: false
Boxcar width: 0
XAxis mode: Wavelengths
Number of Pixels in Spectrum: 3648
>>>>>Begin Spectral Data<<<<<
178.204	-17.07
178.424	-17.07
178.644	-17.07
178.864	-74.41
179.084	17.75
179.304	25.94
179.524	25.94
179.744	25.94
179.964	48.47
180.184	-29.35
180.404	-4.78
180.624	13.65
180.844	-8.87
181.064	-0.68
181.283	11.61
181.503	-68.27
181.723	-39.59
181.943	-0.68
182.163	54.61
182.383	42.32
182.602	48.47
182.822	40.28
183.042	19.8
183.262	36.18
183.482	42.32
183.701	50.52
183.921	25.94
184.141	40.28
184.361	105.81
184.58	62.8
184.8	64.85
185.02	17.75
185.239	81.24
185.459	-6.83
185.679	9.56
185.898	71
186.118	36.18
186.338	-21.16
186.557	48.47
186.777	75.09
186.997	60.76
187.216	17.75
187.436	58.71
187.655	17.75
187.875	34.13
188.095	50.52
188.314	17.75
188.534	50.52
188.753	-2.73
188.973	130.39
189.192	99.67
189.412	73.04
189.631	32.08
189.851	64.85
190.07	87.38
190.29	34.13
190.509	-4.78
190.729	83.28
190.948	15.7
191.168	118.1
191.387	48.47
191.607	54.61
191.826	5.46
192.045	7.51
192.265	-23.21
192.484	62.8
192.704	36.18
192.923	5.46
193.142	87.38
193.362	52.56
193.581	87.38
193.8	-21.16
194.02	68.95
194.239	9.56
194.458	32.08
194.678	77.14
194.897	85.33
195.116	97.62
195.335	56.66
195.555	64.85
195.774	50.52
195.993	13.65
196.212	46.42
196.432	5.46
196.651	118.1
196.87	48.47
197.089	87.38
197.308	91.48
197.528	27.99
197.747	38.23
197.966	44.37
198.185	56.66
198.404	13.65
198.623	19.8
198.842	58.71
199.062	42.32
199.281	68.95
199.5	60.76
199.719	-4.78
199.938	40.28
200.157	5.46
200.376	103.76
200.595	103.76
200.814	54.61
201.033	60.76
201.252	-10.92
201.471	93.52
201.69	50.52
201.909	81.24
202.128	-60.07
202.347	68.95
202.566	11.61
202.785	11.61
203.004	77.14
203.223	101.72
203.442	42.32
203.661	44.37
203.879	19.8
204.098	62.8
204.317	73.04
204.536	95.57
204.755	36.18
204.974	9.56
205.193	95.57
205.411	25.94
205.63	27.99
205.849	30.04
206.068	-35.5
206.287	46.42
206.505	46.42
206.724	54.61
206.943	17.75
207.162	13.65
207.381	-4.78
207.599	77.14
207.818	64.85
208.037	17.75
208.255	48.47
208.474	7.51
208.693	68.95
208.911	-12.97
209.13	34.13
209.349	32.08
209.567	25.94
209.786	56.66
210.005	83.28
210.223	1.37
210.442	15.7
210.661	9.56
210.879	40.28
211.098	64.85
211.316	46.42
211.535	27.99
211.753	-19.11
211.972	58.71
212.191	89.43
212.409	30.04
212.628	38.23
212.846	66.9
213.065	64.85
213.283	91.48
213.502	60.76
213.72	114
213.938	66.9
214.157	40.28
214.375	73.04
214.594	-23.21
214.812	60.76
215.031	97.62
215.249	50.52
215.467	-12.97
215.686	15.7
215.904	157.01
216.122	62.8
216.341	38.23
216.559	50.52
216.778	68.95
216.996	77.14
217.214	32.08
217.432	-8.87
217.651	77.14
217.869	68.95
218.087	68.95
218.306	17.75
218.524	50.52
218.742	-33.45
218.96	13.65
219.179	77.14
219.397	73.04
219.615	132.44
219.833	23.89
220.051	34.13
220.27	11.61
220.488	73.04
220.706	62.8
220.924	19.8
221.142	58.71
221.36	27.99
221.578	75.09
221.796	50.52
222.015	11.61
222.233	52.56
222.451	30.04
222.669	64.85
222.887	5.46
223.105	-19.11
223.323	46.42
223.541	5.46
223.759	109.91
223.977	91.48
224.195	36.18
224.413	9.56
224.631	42.32
224.849	7.51
225.067	30.04
225.285	25.94
225.503	27.99
225.721	75.09
225.939	140.63
226.157	91.48
226.375	38.23
226.592	-49.83
226.81	68.95
227.028	66.9
227.246	81.24
227.464	-0.68
227.682	54.61
227.9	50.52
228.117	68.95
228.335	50.52
228.553	25.94
228.771	23.89
228.989	50.52
229.206	9.56
229.424	42.32
229.642	-27.31
229.86	62.8
230.077	27.99
230.295	3.41
230.513	23.89
230.731	103.76
230.948	93.52
231.166	101.72
231.384	7.51
231.601	50.52
231.819	25.94
232.037	101.72
232.254	-21.16
232.472	23.89
232.689	25.94
232.907	48.47
233.125	11.61
233.342	38.23
233.56	-21.16
233.777	3.41
233.995	66.9
234.213	-25.26
234.43	46.42
234.648	5.46
234.865	17.75
235.083	27.99
235.3	97.62
235.518	-2.73
235.735	23.89
235.953	95.57
236.17	38.23
236.388	-19.11
236.605	85.33
236.822	103.76
237.04	44.37
237.257	64.85
237.475	64.85
237.692	71
237.909	15.7
238.127	46.42
238.344	32.08
238.562	48.47
238.779	17.75
238.996	-6.83
239.214	60.76
239.431	103.76
239.648	11.61
239.865	11.61
240.083	62.8
240.3	38.23
240.517	13.65
240.735	5.46
240.952	30.04
241.169	32.08
241.386	36.18
241.603	32.08
241.821	38.23
242.038	19.8
242.255	58.71
242.472	68.95
242.689	46.42
242.907	36.18
243.124	13.65
243.341	64.85
243.558	-0.68
243.775	-8.87
243.992	15.7
244.209	7.51
244.426	27.99
244.643	38.23
244.86	44.37
245.078	101.72
245.295	44.37
245.512	75.09
245.729	23.89
245.946	60.76
246.163	71
246.38	-35.5
246.597	-19.11
246.814	122.2
247.031	34.13
247.248	124.24
247.464	-2.73
247.681	93.52
247.898	89.43
248.115	73.04
248.332	40.28
248.549	148.82
248.766	81.24
248.983	73.04
249.2	-43.69
249.417	62.8
249.633	91.48
249.85	52.56
250.067	36.18
250.284	93.52
250.501	60.76
250.717	79.19
250.934	13.65
251.151	99.67
251.368	54.61
251.585	46.42
251.801	66.9
252.018	9.56
252.235	118.1
252.451	-6.83
252.668	107.86
252.885	105.81
253.102	-6.83
253.318	46.42
253.535	27.99
253.752	34.13
253.968	48.47
254.185	-27.31
254.401	73.04
254.618	50.52
254.835	23.89
255.051	62.8
255.268	93.52
255.484	7.51
255.701	103.76
255.917	64.85
256.134	56.66
256.351	99.67
256.567	64.85
256.784	60.76
257	42.32
257.217	38.23
257.433	19.8
257.65	13.65
257.866	95.57
258.082	52.56
258.299	-66.22
258.515	54.61
258.732	19.8
258.948	46.42
259.165	27.99
259.381	5.46
259.597	17.75
259.814	73.04
260.03	73.04
260.246	52.56
260.463	-2.73
260.679	105.81
260.895	13.65
261.112	97.62
261.328	7.51
261.544	-12.97
261.761	73.04
261.977	42.32
262.193	-21.16
262.409	-6.83
262.626	52.56
262.842	60.76
263.058	58.71
263.274	152.91
263.49	81.24
263.707	103.76
263.923	50.52
264.139	73.04
264.355	46.42
264.571	58.71
264.787	107.86
265.004	54.61
265.22	30.04
265.436	38.23
265.652	77.14
265.868	27.99
266.084	-15.02
266.3	34.13
266.516	50.52
266.732	1.37
266.948	64.85
267.164	40.28
267.38	134.48
267.596	66.9
267.812	101.72
268.028	30.04
268.244	15.7
268.46	107.86
268.676	40.28
268.892	64.85
269.108	-43.69
269.324	7.51
269.54	-43.69
269.756	75.09
269.972	38.23
270.188	58.71
270.403	-8.87
270.619	13.65
270.835	42.32
271.051	97.62
271.267	30.04
271.483	21.85
271.698	11.61
271.914	68.95
272.13	34.13
272.346	3.41
272.562	25.94
272.777	30.04
272.993	50.52
273.209	-23.21
273.425	-2.73
273.64	-21.16
273.856	89.43
274.072	91.48
274.287	44.37
274.503	44.37
274.719	75.09
274.934	36.18
275.15	-4.78
275.366	50.52
275.581	122.2
275.797	66.9
276.012	3.41
276.228	44.37
276.444	36.18
276.659	132.44
276.875	-15.02
277.09	85.33
277.306	34.13
277.521	103.76
277.737	60.76
277.952	54.61
278.168	40.28
278.383	38.23
278.599	-17.07
278.814	68.95
279.03	68.95
279.245	54.61
279.461	48.47
279.676	85.33
279.892	32.08
280.107	50.52
280.322	85.33
280.538	60.76
280.753	77.14
280.969	7.51
281.184	93.52
281.399	91.48
281.615	3.41
281.83	87.38
282.045	21.85
282.26	23.89
282.476	66.9
282.691	142.68
282.906	40.28
283.122	87.38
283.337	89.43
283.552	83.28
283.767	46.42
283.983	56.66
284.198	58.71
284.413	25.94
284.628	3.41
284.843	38.23
285.058	58.71
285.274	19.8
285.489	11.61
285.704	19.8
285.919	42.32
286.134	19.8
286.349	68.95
286.564	11.61
286.779	126.29
286.995	95.57
287.21	52.56
287.425	97.62
287.64	-6.83
287.855	73.04
288.07	21.85
288.285	81.24
288.5	54.61
288.715	114
288.93	23.89
289.145	27.99
289.36	77.14
289.575	32.08
289.79	54.61
290.004	36.18
290.219	105.81
290.434	21.85
290.649	25.94
290.864	103.76
291.079	42.32
291.294	-19.11
291.509	15.7
291.724	-2.73
291.938	21.85
292.153	73.04
292.368	62.8
292.583	32.08
292.798	52.56
293.012	48.47
293.227	46.42
293.442	52.56
293.657	66.9
293.871	54.61
294.086	38.23
294.301	48.47
294.516	60.76
294.73	62.8
294.945	48.47
295.16	19.8
295.374	71
295.589	81.24
295.804	3.41
296.018	36.18
296.233	105.81
296.447	50.52
296.662	34.13
296.877	27.99
297.091	5.46
297.306	36.18
297.52	17.75
297.735	68.95
297.949	64.85
298.164	-33.45
298.378	32.08
298.593	62.8
298.807	5.46
299.022	32.08
299.236	58.71
299.451	44.37
299.665	91.48
299.88	25.94
300.094	109.91
300.309	64.85
300.523	30.04
300.737	40.28
300.952	34.13
301.166	60.76
301.381	-15.02
301.595	50.52
301.809	50.52
302.024	114
302.238	50.52
302.452	87.38
302.667	38.23
302.881	99.67
303.095	19.8
303.309	38.23
303.524	73.04
303.738	27.99
303.952	54.61
304.166	17.75
304.381	32.08
304.595	19.8
304.809	66.9
305.023	-10.92
305.237	7.51
305.452	-6.83
305.666	50.52
305.88	42.32
306.094	52.56
306.308	118.1
306.522	62.8
306.736	66.9
306.95	-10.92
307.164	17.75
307.379	27.99
307.593	146.77
307.807	54.61
308.021	30.04
308.235	42.32
308.449	40.28
308.663	19.8
308.877	105.81
309.091	58.71
309.305	79.19
309.519	27.99
309.733	50.52
309.947	58.71
310.161	58.71
310.374	50.52
310.588	34.13
310.802	36.18
311.016	40.28
311.23	38.23
311.444	32.08
311.658	109.91
311.872	83.28
312.085	93.52
312.299	81.24
312.513	75.09
312.727	46.42
312.941	73.04
313.154	23.89
313.368	42.32
313.582	40.28
313.796	30.04
314.009	87.38
314.223	54.61
314.437	83.28
314.651	5.46
314.864	15.7
315.078	93.52
315.292	13.65
315.505	23.89
315.719	116.05
315.933	126.29
316.146	60.76
316.36	109.91
316.573	-4.78
316.787	87.38
317.001	11.61
317.214	-4.78
317.428	44.37
317.641	17.75
317.855	9.56
318.068	89.43
318.282	42.32
318.495	89.43
318.709	52.56
318.922	62.8
319.136	83.28
319.349	-15.02
319.563	23.89
319.776	71
319.99	46.42
320.203	89.43
320.417	62.8
320.63	97.62
320.843	89.43
321.057	38.23
321.27	32.08
321.483	138.58
321.697	95.57
321.91	34.13
322.124	19.8
322.337	64.85
322.55	13.65
322.763	25.94
322.977	71
323.19	89.43
323.403	46.42
323.617	-10.92
323.83	73.04
324.043	46.42
324.256	27.99
324.469	50.52
324.683	130.39
324.896	23.89
325.109	161.11
325.322	17.75
325.535	152.91
325.748	30.04
325.962	124.24
326.175	36.18
326.388	64.85
326.601	17.75
326.814	116.05
327.027	54.61
327.24	52.56
327.453	1.37
327.666	75.09
327.879	-25.26
328.092	87.38
328.305	111.96
328.518	54.61
328.731	23.89
328.944	3.41
329.157	64.85
329.37	38.23
329.583	91.48
329.796	140.63
330.009	46.42
330.222	136.53
330.435	-15.02
330.648	71
330.861	50.52
331.073	19.8
331.286	111.96
331.499	60.76
331.712	9.56
331.925	83.28
332.138	15.7
332.35	118.1
332.563	73.04
332.776	89.43
332.989	-2.73
333.202	87.38
333.414	30.04
333.627	77.14
333.84	52.56
334.053	89.43
334.265	44.37
334.478	101.72
334.691	-27.31
334.903	62.8
335.116	56.66
335.329	56.66
335.541	111.96
335.754	122.2
335.966	62.8
336.179	81.24
336.392	48.47
336.604	105.81
336.817	56.66
337.029	97.62
337.242	32.08
337.454	105.81
337.667	50.52
337.88	54.61
338.092	-4.78
338.305	99.67
338.517	19.8
338.729	58.71
338.942	52.56
339.154	91.48
339.367	-0.68
339.579	34.13
339.792	-19.11
340.004	81.24
340.217	30.04
340.429	-0.68
340.641	-6.83
340.854	99.67
341.066	-45.74
341.278	66.9
341.491	48.47
341.703	50.52
341.915	77.14
342.128	73.04
342.34	46.42
342.552	111.96
342.764	34.13
342.977	48.47
343.189	42.32
343.401	64.85
343.613	3.41
343.826	1.37
344.038	15.7
344.25	71
344.462	56.66
344.674	36.18
344.886	105.81
345.099	75.09
345.311	27.99
345.523	85.33
345.735	36.18
345.947	73.04
346.159	25.94
346.371	93.52
346.583	56.66
346.795	62.8
347.007	64.85
347.219	40.28
347.431	44.37
347.643	124.24
347.855	148.82
348.067	71
348.279	64.85
348.491	95.57
348.703	111.96
348.915	87.38
349.127	-55.98
349.339	116.05
349.551	54.61
349.763	99.67
349.975	5.46
350.187	56.66
350.399	38.23
350.61	99.67
350.822	38.23
351.034	64.85
351.246	144.72
351.458	40.28
351.669	40.28
351.881	134.48
352.093	50.52
352.305	68.95
352.517	99.67
352.728	79.19
352.94	25.94
353.152	-8.87
353.363	91.48
353.575	105.81
353.787	103.76
353.999	7.51
354.21	54.61
354.422	116.05
354.633	83.28
354.845	25.94
355.057	64.85
355.268	52.56
355.48	11.61
355.692	54.61
355.903	79.19
356.115	30.04
356.326	42.32
356.538	111.96
356.749	89.43
356.961	68.95
357.172	15.7
357.384	17.75
357.595	62.8
357.807	11.61
358.018	13.65
358.23	73.04
358.441	-2.73
358.653	17.75
358.864	7.51
359.075	62.8
359.287	11.61
359.498	79.19
359.709	50.52
359.921	79.19
360.132	66.9
360.344	25.94
360.555	44.37
360.766	-2.73
360.977	21.85
361.189	25.94
361.4	17.75
361.611	83.28
361.823	25.94
362.034	68.95
362.245	11.61
362.456	42.32
362.667	19.8
362.879	46.42
363.09	64.85
363.301	85.33
363.512	79.19
363.723	44.37
363.935	52.56
364.146	38.23
364.357	64.85
364.568	34.13
364.779	38.23
364.99	101.72
365.201	-8.87
365.412	44.37
365.623	-68.27
365.834	132.44
366.045	85.33
366.256	126.29
366.467	46.42
366.678	21.85
366.889	73.04
367.1	7.51
367.311	95.57
367.522	46.42
367.733	83.28
367.944	99.67
368.155	66.9
368.366	42.32
368.577	42.32
368.788	27.99
368.999	17.75
369.209	114
369.42	44.37
369.631	71
369.842	40.28
370.053	91.48
370.264	111.96
370.474	-23.21
370.685	81.24
370.896	85.33
371.107	58.71
371.317	44.37
371.528	19.8
371.739	11.61
371.95	54.61
372.16	154.96
372.371	83.28
372.582	36.18
372.792	64.85
373.003	111.96
373.214	62.8
373.424	52.56
373.635	120.15
373.846	81.24
374.056	30.04
374.267	46.42
374.477	142.68
374.688	56.66
374.898	52.56
375.109	60.76
375.319	64.85
375.53	81.24
375.74	46.42
375.951	79.19
376.161	116.05
376.372	97.62
376.582	44.37
376.793	56.66
377.003	38.23
377.214	87.38
377.424	40.28
377.635	103.76
377.845	42.32
378.055	52.56
378.266	5.46
378.476	34.13
378.686	118.1
378.897	95.57
379.107	91.48
379.317	58.71
379.528	52.56
379.738	34.13
379.948	62.8
380.158	60.76
380.369	-0.68
380.579	62.8
380.789	1.37
380.999	66.9
381.21	105.81
381.42	134.48
381.63	81.24
381.84	23.89
382.05	23.89
382.261	144.72
382.471	60.76
382.681	68.95
382.891	111.96
383.101	95.57
383.311	38.23
383.521	107.86
383.731	52.56
383.941	60.76
384.151	73.04
384.361	-15.02
384.571	30.04
384.781	93.52
384.991	173.39
385.201	128.34
385.411	58.71
385.621	107.86
385.831	44.37
386.041	120.15
386.251	81.24
386.461	97.62
386.671	62.8
386.881	27.99
387.091	27.99
387.301	89.43
387.511	87.38
387.72	95.57
387.93	136.53
388.14	75.09
388.35	52.56
388.56	7.51
388.769	128.34
388.979	54.61
389.189	32.08
389.399	58.71
389.609	93.52
389.818	73.04
390.028	58.71
390.238	64.85
390.447	81.24
390.657	150.87
390.867	97.62
391.076	105.81
391.286	99.67
391.496	30.04
391.705	71
391.915	95.57
392.125	132.44
392.334	111.96
392.544	17.75
392.753	58.71
392.963	97.62
393.172	32.08
393.382	-12.97
393.591	73.04
393.801	71
394.01	91.48
394.22	136.53
394.429	87.38
394.639	25.94
394.848	77.14
395.058	54.61
395.267	50.52
395.477	99.67
395.686	99.67
395.895	93.52
396.105	124.24
396.314	105.81
396.524	34.13
396.733	87.38
396.942	179.54
397.152	116.05
397.361	120.15
397.57	52.56
397.78	124.24
397.989	114
398.198	150.87
398.407	1.37
398.617	81.24
398.826	146.77
399.035	83.28
399.244	111.96
399.453	142.68
399.663	144.72
399.872	146.77
400.081	83.28
400.29	159.06
400.499	46.42
400.708	152.91
400.917	58.71
401.127	71
401.336	68.95
401.545	177.49
401.754	152.91
401.963	126.29
402.172	114
402.381	77.14
402.59	105.81
402.799	95.57
403.008	187.73
403.217	118.1
403.426	54.61
403.635	144.72
403.844	152.91
404.053	116.05
404.262	142.68
404.471	183.63
404.68	77.14
404.888	171.35
405.097	114
405.306	118.1
405.515	103.76
405.724	146.77
405.933	146.77
406.142	107.86
406.35	148.82
406.559	97.62
406.768	216.4
406.977	187.73
407.185	114
407.394	120.15
407.603	163.15
407.812	105.81
408.02	179.54
408.229	222.55
408.438	183.63
408.646	179.54
408.855	202.07
409.064	173.39
409.272	265.55
409.481	302.42
409.69	189.78
409.898	243.03
410.107	318.8
410.315	243.03
410.524	200.02
410.733	296.27
410.941	290.13
411.15	269.65
411.358	279.89
411.567	349.52
411.775	281.94
411.984	259.41
412.192	320.85
412.401	302.42
412.609	343.38
412.818	404.82
413.026	245.07
413.234	341.33
413.443	410.96
413.651	372.05
413.86	447.82
414.068	499.02
414.276	505.17
414.485	423.25
414.693	486.73
414.901	535.89
415.11	558.41
415.318	478.54
415.526	572.75
415.734	619.85
415.943	509.26
416.151	632.14
416.359	716.11
416.567	578.89
416.776	646.48
416.984	699.72
417.192	748.87
417.4	691.53
417.608	765.26
417.817	828.74
418.025	814.41
418.233	820.55
418.441	875.85
418.649	841.03
418.857	994.63
419.065	863.56
419.273	988.49
419.481	984.39
419.689	1142.08
419.897	1127.75
420.105	1148.23
420.313	1119.56
420.521	1203.52
420.729	1248.58
420.937	1242.43
421.145	1287.49
421.353	1340.74
421.561	1320.26
421.769	1373.5
421.977	1498.43
422.185	1471.81
422.393	1705.28
422.601	1621.31
422.809	1588.54
423.017	1670.46
423.224	1770.81
423.432	1826.11
423.64	1756.47
423.848	1998.13
424.056	1887.54
424.263	2092.34
424.471	2041.14
424.679	2063.67
424.887	2268.47
425.094	2184.5
425.302	2282.8
425.51	2311.47
425.718	2329.91
425.925	2440.5
426.133	2633.01
426.341	2706.73
426.548	2895.15
426.756	2981.16
426.964	2929.96
427.171	3087.65
427.379	3173.67
427.586	3061.03
427.794	3194.15
428.001	3515.68
428.209	3581.21
428.417	3493.15
428.624	3730.72
428.832	3624.22
429.039	3810.59
429.247	3712.28
429.454	4080.92
429.662	4195.61
429.869	3953.94
430.076	4267.28
430.284	4302.1
430.491	4406.55
430.699	4668.69
430.906	4478.22
431.114	4834.57
431.321	4836.62
431.528	4883.72
431.736	5285.12
431.943	5426.43
432.15	5438.72
432.358	5426.43
432.565	5633.28
432.772	5731.58
432.979	6028.54
433.187	6003.96
433.394	6089.98
433.601	6290.68
433.808	6491.38
434.016	6409.46
434.223	6835.44
434.43	7296.23
434.637	6927.6
434.844	7574.75
435.052	7562.47
435.259	7544.03
435.466	7703.78
435.673	7505.12
435.88	8002.78
436.087	8504.53
436.294	8389.85
436.501	8383.7
436.708	8527.06
436.915	8764.62
437.122	9020.62
437.329	9016.52
437.537	9473.22
437.743	9460.93
437.95	9477.32
438.157	9825.47
438.364	10435.77
438.571	10384.57
438.778	10292.41
438.985	11517.09
439.192	10902.7
439.399	11236.52
439.606	10986.67
439.813	11697.31
440.02	12250.27
440.227	12121.24
440.433	11838.62
440.64	12485.78
440.847	12197.02
441.054	12504.21
441.261	13505.67
441.467	13063.31
441.674	13522.05
441.881	13896.83
442.088	13722.76
442.294	14068.86
442.501	14093.44
442.708	14425.21
442.914	15113.33
443.121	15625.32
443.328	15412.33
443.534	16616.54
443.741	15852.64
443.948	15819.88
444.154	16677.97
444.361	16643.16
444.568	16630.87
444.774	16995.41
444.981	17095.76
445.187	17747.01
445.394	18293.82
445.6	17855.56
445.807	19715.11
446.013	18830.39
446.22	19178.54
446.426	20141.09
446.633	20284.45
446.839	20907.03
447.046	20110.37
447.252	21083.16
447.459	21154.83
447.665	21142.55
447.871	22074.37
448.078	23161.84
448.284	22115.33
448.491	22381.57
448.697	23469.04
448.903	23614.44
449.11	23677.93
449.316	23411.7
449.522	23854.06
449.728	24628.19
449.935	24742.88
450.141	24611.81
450.347	25279.44
450.553	24642.53
450.76	24798.17
450.966	25551.82
451.172	25127.89
451.378	25672.65
451.584	25336.79
451.791	25955.27
451.997	25985.99
452.203	26227.65
452.409	26610.62
452.615	26217.41
452.821	25406.42
453.027	25351.12
453.233	26285
453.44	25535.44
453.646	25541.58
453.852	25969.61
454.058	26348.48
454.264	25385.94
454.47	25893.83
454.676	25387.99
454.882	26291.14
455.088	23983.08
455.294	24130.53
455.5	24538.08
455.705	24794.07
455.911	23950.31
456.117	23792.62
456.323	23215.09
456.529	21728.27
456.735	22811.64
456.941	22340.61
457.147	21947.4
457.352	20995.09
457.558	20827.16
457.764	21009.43
457.97	20397.09
458.176	20311.07
458.381	20192.29
458.587	19276.85
458.793	19213.36
458.999	18066.5
459.204	19647.53
459.41	18940.98
459.616	17722.44
459.821	17640.52
460.027	17730.63
460.233	17415.24
460.438	16600.15
460.644	16610.39
460.85	15748.2
461.055	15770.72
461.261	15789.16
461.466	14419.07
461.672	14314.62
461.878	15330.41
462.083	13878.4
462.289	13880.45
462.494	13448.33
462.7	13106.32
462.905	12596.37
463.111	13051.02
463.316	13284.49
463.522	12786.83
463.727	12850.32
463.932	12848.27
464.138	12784.79
464.343	12534.93
464.549	12534.93
464.754	12725.4
464.959	12514.45
465.165	12534.93
465.37	12088.48
465.575	11697.31
465.781	12207.26
465.986	12166.3
466.191	11934.88
466.397	11680.93
466.602	11281.58
466.807	11717.79
467.012	11605.16
467.218	11472.04
467.423	11375.78
467.628	11402.41
467.833	11711.65
468.038	11457.7
468.244	11193.51
468.449	11564.2
468.654	11097.26
468.859	11005.1
469.064	11125.93
469.269	10540.21
469.474	10685.62
469.679	10785.97
469.885	10595.51
470.09	10716.34
470.295	10663.09
470.5	10628.28
470.705	10532.02
470.91	10163.39
471.115	10130.62
471.32	10249.4
471.525	10204.35
471.73	9895.1
471.935	10036.41
472.139	9551.04
472.344	9546.95
472.549	9602.24
472.754	9528.52
472.959	9344.2
473.164	9041.1
473.369	9059.53
473.574	9362.63
473.778	9342.15
473.983	9022.67
474.188	9157.83
474.393	8768.72
474.598	8758.48
474.802	8643.79
475.007	8594.64
475.212	8697.04
475.417	8314.07
475.621	8348.89
475.826	8400.09
476.031	8234.2
476.235	8209.62
476.44	8228.06
476.645	7849.18
476.849	8000.73
477.054	7963.87
477.259	7924.96
477.463	7881.95
477.668	7656.67
477.872	7777.5
478.077	7673.06
478.282	7447.78
478.486	7398.63
478.691	7320.81
478.895	7085.29
479.1	7120.1
479.304	7081.19
479.509	6780.14
479.713	7159.02
479.918	7009.51
480.122	6943.98
480.326	7173.35
480.531	6960.36
480.735	6857.96
480.94	6962.41
481.144	7013.61
481.348	6774
481.553	6784.24
481.757	6788.33
481.961	6851.82
482.166	6821.1
482.37	6868.2
482.574	6634.74
482.778	6481.14
482.983	6878.44
483.187	6829.29
483.391	6720.75
483.595	6690.03
483.8	6706.41
484.004	6632.69
484.208	6831.34
484.412	6601.97
484.616	6690.03
484.821	6620.4
485.025	6579.44
485.229	6898.92
485.433	6726.89
485.637	6685.94
485.841	6747.37
486.045	6679.79
486.249	6604.02
486.453	6616.3
486.657	6726.89
486.861	6653.17
487.065	6540.53
487.269	6651.12
487.473	6651.12
487.677	6698.22
487.881	6687.98
488.085	6671.6
488.289	6575.34
488.493	6661.36
488.697	6825.2
488.901	6675.7
489.105	6702.32
489.309	6808.81
489.512	6747.37
489.716	6771.95
489.92	6812.91
490.124	6868.2
490.328	6735.09
490.531	6888.68
490.735	6993.13
490.939	6788.33
491.143	6847.72
491.346	6749.42
491.55	7056.62
491.754	6986.99
491.958	7068.91
492.161	6962.41
492.365	7156.97
492.569	7116.01
492.772	7077.1
492.976	7298.28
493.18	7204.07
493.383	7345.38
493.587	7138.54
493.79	7292.13
493.994	7314.66
494.197	7369.96
494.401	7531.75
494.605	7570.66
494.808	7466.21
495.012	7759.07
495.215	7603.43
495.419	7699.68
495.622	7693.54
495.825	7697.63
496.029	7847.13
496.232	8185.05
496.436	7648.48
496.639	8158.42
496.843	8260.82
497.046	8252.63
497.249	8283.35
497.453	8326.36
497.656	8326.36
497.859	8584.4
498.063	8606.93
498.266	8905.93
498.469	8504.53
498.673	8848.59
498.876	8842.45
499.079	8912.08
499.282	8953.04
499.485	9338.05
499.689	9295.05
499.892	9221.32
500.095	9336.01
500.298	9561.28
500.501	9526.47
500.705	9813.18
500.908	9770.18
501.111	9995.45
501.314	9993.4
501.517	10286.26
501.72	10384.57
501.923	10396.85
502.126	10652.85
502.329	10749.11
502.532	10745.01
502.735	10720.43
502.938	11035.82
503.141	11007.15
503.344	11383.98
503.547	11467.94
503.75	11377.83
503.953	11676.84
504.156	11832.48
504.359	11732.13
504.562	11785.38
504.765	11945.12
504.968	12397.72
505.17	12250.27
505.373	12170.4
505.576	12692.63
505.779	12788.88
505.982	12706.96
506.185	13061.26
506.387	13124.75
506.59	13438.09
506.793	13468.81
506.996	13520.01
507.198	13845.63
507.401	13821.06
507.604	13788.29
507.807	14277.76
508.009	14322.81
508.212	14535.8
508.415	14546.04
508.617	14713.97
508.82	14589.05
509.022	14814.32
509.225	15031.41
509.428	15127.66
509.63	15373.42
509.833	15617.13
510.035	15707.24
510.238	15856.74
510.44	16067.68
510.643	16280.67
510.845	16575.58
511.048	16084.06
511.25	16503.9
511.453	16663.64
511.655	17097.81
511.858	17048.66
512.06	17194.06
512.262	17495.11
512.465	17099.86
512.667	17767.49
512.87	17771.59
513.072	17806.41
513.274	18181.18
513.477	18338.88
513.679	18570.3
513.881	18859.06
514.084	18756.66
514.286	18945.08
514.488	19135.54
514.69	19897.38
514.893	19725.35
515.095	19653.67
515.297	19878.95
515.499	19903.53
515.701	20395.04
515.904	20444.19
516.106	20638.75
516.308	21101.59
516.51	21445.65
516.712	21132.31
516.914	21617.68
517.116	21888.01
517.318	21963.78
517.52	21883.91
517.722	22045.7
517.925	22350.85
518.127	22666.24
518.329	23018.49
518.531	22785.02
518.733	23260.15
518.935	23184.37
519.136	23446.51
519.338	23753.71
519.54	23890.92
519.742	24034.28
519.944	24187.88
520.146	24546.27
520.348	24785.88
520.55	24955.86
520.752	24617.95
520.954	25224.15
521.155	24939.48
521.357	25684.94
521.559	25811.92
521.761	26119.11
521.963	26090.44
522.164	26123.21
522.366	26239.94
522.568	26995.64
522.77	26782.65
522.971	27161.53
523.173	27071.42
523.375	27151.29
523.576	27020.22
523.778	27417.52
523.98	27974.57
524.181	28079.02
524.383	27882.41
524.584	28228.52
524.786	28328.87
524.988	28507.04
525.189	28683.17
525.391	29094.81
525.592	29016.99
525.794	28969.88
525.995	29242.26
526.197	29186.97
526.398	29309.85
526.6	29832.08
526.801	29944.72
527.003	30096.27
527.204	29844.37
527.406	30157.71
527.607	30253.96
527.808	30456.71
528.01	30251.91
528.211	30329.73
528.412	30929.79
528.614	30808.96
528.815	30790.53
529.016	31402.87
529.218	31069.05
529.419	31019.9
529.62	31130.49
529.822	31009.66
530.023	31089.53
530.224	31361.91
530.425	31314.81
530.626	31191.93
530.828	31316.86
531.029	32127.85
531.23	31421.3
531.431	31669.11
531.632	31566.71
531.833	32060.27
532.035	31933.29
532.236	31998.83
532.437	32207.72
532.638	31587.19
532.839	32476.01
533.04	32455.53
533.241	31681.39
533.442	32525.16
533.643	32273.26
533.844	32424.81
534.045	32437.09
534.246	32031.6
534.447	32846.69
534.648	31988.59
534.849	32639.84
535.05	32396.13
535.251	32293.74
535.451	32555.88
535.652	32543.59
535.853	32426.85
536.054	32940.89
536.255	32635.75
536.456	32377.7
536.657	32807.78
536.857	32375.66
537.058	32455.53
537.259	32625.51
537.46	32613.22
537.66	32471.91
537.861	32410.47
538.062	32543.59
538.263	32590.69
538.463	32611.17
538.664	32516.97
538.865	32783.2
539.065	32824.16
539.266	32021.36
539.466	32701.28
539.667	32488.29
539.868	32789.35
540.068	32332.65
540.269	32584.55
540.469	32525.16
540.67	32512.87
540.87	32494.44
541.071	32295.78
541.271	32363.37
541.472	32371.56
541.672	32582.5
541.873	32482.15
542.073	32238.44
542.274	32635.75
542.474	32650.08
542.675	32455.53
542.875	32895.84
543.075	32686.95
543.276	32254.83
543.476	32795.49
543.676	32435.05
543.877	32736.1
544.077	32688.99
544.277	32234.35
544.478	32226.15
544.678	32680.8
544.878	32553.83
545.078	32334.7
545.279	32402.28
545.479	32418.66
545.679	32527.21
545.879	32254.83
546.079	32648.04
546.28	31961.97
546.48	32076.65
546.68	32729.95
546.88	32605.03
547.08	32402.28
547.28	32422.76
547.48	32230.25
547.68	32674.66
547.88	32187.24
548.081	32578.4
548.281	32430.95
548.481	32250.73
548.681	32158.57
548.881	32463.72
549.081	32467.81
549.28	32041.84
549.48	32236.39
549.68	32576.36
549.88	32516.97
550.08	32492.39
550.28	32486.25
550.48	32631.65
550.68	32711.52
550.88	32332.65
551.08	32412.52
551.279	32330.6
551.479	32287.59
551.679	32312.17
551.879	32193.39
552.079	32293.74
552.278	32209.77
552.478	32142.19
552.678	32289.64
552.878	32101.23
553.077	32451.43
553.277	31912.81
553.477	32844.64
553.676	31939.44
553.876	32308.07
554.076	31851.38
554.275	31882.09
554.475	31765.36
554.674	31984.49
554.874	32111.47
555.074	31857.52
555.273	32035.69
555.473	32117.61
555.672	31791.98
555.872	31830.9
556.071	31820.66
556.271	32195.43
556.47	31863.66
556.67	31697.78
556.869	31769.46
557.068	32017.26
557.268	31372.15
557.467	31521.65
557.667	31417.21
557.866	31742.83
558.065	31607.67
558.265	31329.14
558.464	31198.07
558.663	31689.59
558.863	30970.75
559.062	31630.19
559.261	31157.11
559.461	31167.35
559.66	30800.77
559.859	30735.23
560.058	31021.95
560.258	30780.29
560.457	30434.18
560.656	31052.67
560.855	31048.57
561.054	30974.84
561.253	30727.04
561.453	30843.77
561.652	30851.97
561.851	30921.6
562.05	30503.81
562.249	30188.42
562.448	30366.6
562.647	30462.85
562.846	30528.39
563.045	30186.38
563.244	30008.2
563.443	30491.52
563.642	30253.96
563.841	29961.1
564.04	29934.48
564.239	30188.42
564.438	29676.43
564.637	30090.12
564.836	29711.25
565.035	29506.45
565.234	29916.04
565.432	29717.39
565.631	29285.27
565.83	29772.69
566.029	29363.09
566.228	29399.96
566.427	29666.19
566.625	29064.09
566.824	28603.3
567.023	29139.86
567.222	28898.2
567.42	29016.99
567.619	28785.57
567.818	28808.09
568.016	28625.82
568.215	28990.36
568.414	28732.32
568.612	28521.38
568.811	28361.64
569.01	28660.64
569.208	28185.51
569.407	28285.86
569.605	27941.8
569.804	28267.43
570.002	27730.86
570.201	27911.08
570.4	27765.68
570.598	27763.63
570.797	27548.59
570.995	27556.78
571.193	27229.11
571.392	27798.45
571.59	27329.46
571.789	27444.15
571.987	27173.81
572.186	27108.28
572.384	27214.77
572.582	27081.66
572.781	27059.13
572.979	26840
573.177	27253.69
573.376	26643.39
573.574	26717.12
573.772	26569.66
573.971	26663.87
574.169	26504.13
574.367	26289.09
574.565	26516.42
574.763	26235.84
574.962	26444.74
575.16	26024.9
575.358	25684.94
575.556	26061.77
575.754	26295.24
575.952	25736.14
576.151	25838.54
576.349	25488.34
576.547	25805.77
576.745	25605.07
576.943	25697.23
577.141	25627.6
577.339	25662.41
577.537	25201.62
577.735	25263.06
577.933	25054.17
578.131	25420.75
578.329	24794.07
578.527	24851.42
578.725	25052.12
578.923	24749.02
579.121	24564.7
579.319	24736.73
579.516	24759.26
579.714	24320.99
579.912	24548.32
580.11	24507.36
580.308	24441.82
580.506	24374.24
580.704	24069.09
580.901	24538.08
581.099	24511.46
581.297	24173.54
581.495	24042.47
581.692	24036.33
581.89	23964.65
582.088	24122.34
582.285	24071.14
582.483	23882.73
582.681	23583.73
582.878	23391.22
583.076	23303.15
583.274	23673.84
583.471	23299.06
583.669	23462.9
583.866	23366.64
584.064	23245.81
584.262	23061.49
584.459	23084.02
584.657	22938.62
584.854	23413.74
585.052	22690.81
585.249	22899.7
585.447	23018.49
585.644	22727.67
585.841	22881.27
586.039	22903.8
586.236	22053.89
586.434	22309.89
586.631	22270.98
586.828	22230.02
587.026	22307.84
587.223	22123.52
587.42	22051.84
587.618	22211.59
587.815	21574.67
588.012	21754.89
588.21	21883.91
588.407	22176.77
588.604	21611.53
588.801	21793.8
588.999	21869.58
589.196	21644.3
589.393	21482.51
589.59	21341.2
589.787	21502.99
589.984	21361.68
590.182	20923.41
590.379	21392.4
590.576	21126.16
590.773	20800.54
590.97	20931.61
591.167	21027.86
591.364	20663.32
591.561	21031.96
591.758	20687.9
591.955	20532.25
592.152	21062.68
592.349	20706.33
592.546	20722.71
592.743	20532.25
592.94	20155.43
593.137	20595.74
593.334	20313.12
593.531	20007.97
593.727	20091.94
593.924	20444.19
594.121	19999.78
594.318	20223.01
594.515	19870.76
594.712	20022.31
594.908	19725.35
595.105	20136.99
595.302	19696.68
595.499	19571.75
595.696	19510.32
595.892	19528.75
596.089	19721.26
596.286	19342.38
596.482	19350.57
596.679	19561.51
596.876	19080.24
597.072	18983.99
597.269	19276.85
597.466	19072.05
597.662	18932.79
597.859	19092.53
598.055	19180.59
598.252	18707.51
598.448	18709.56
598.645	18605.11
598.841	18754.62
599.038	18598.97
599.234	18699.32
599.431	18353.21
599.627	18459.71
599.824	18355.26
600.02	18269.25
600.217	18250.81
600.413	18033.73
600.609	18267.2
600.806	17996.87
601.002	18267.2
601.198	17978.43
601.395	17968.2
601.591	17869.89
601.787	17761.35
601.984	17704.01
602.18	17595.46
602.376	17661
602.572	17843.27
602.769	17656.9
602.965	17515.59
603.161	17456.2
603.357	17474.63
603.553	17640.52
603.75	17427.53
603.946	17355.85
604.142	17243.21
604.338	16766.04
604.534	17071.18
604.73	16913.49
604.926	16829.52
605.122	16983.12
605.318	16899.16
605.514	16970.83
605.71	16917.59
605.906	16688.21
606.102	16669.78
606.298	16700.5
606.494	16757.85
606.69	16725.08
606.886	16694.36
607.082	16452.7
607.278	16415.83
607.474	16395.36
607.67	16245.85
607.866	16127.07
608.062	16413.79
608.257	16036.96
608.453	16215.13
608.649	16073.82
608.845	15967.33
609.041	16092.26
609.236	16028.77
609.432	16116.83
609.628	16006.24
609.824	15952.99
610.019	15993.95
610.215	15932.51
610.411	16122.98
610.606	15697
610.802	15830.12
610.998	15934.56
611.193	15699.05
611.389	15518.82
611.584	15498.34
611.78	15496.3
611.976	15527.02
612.171	15512.68
612.367	15506.54
612.562	15406.19
612.758	15148.14
612.953	15363.18
613.149	15338.6
613.344	15240.3
613.539	15383.66
613.735	15287.4
613.93	15187.05
614.126	15221.87
614.321	15297.64
614.517	15142
614.712	14996.59
614.907	15107.18
615.103	14972.02
615.298	14955.63
615.493	14961.78
615.688	14759.03
615.884	15107.18
616.079	14974.06
616.274	14865.52
616.47	14916.72
616.665	14808.18
616.86	14627.96
617.055	14621.81
617.25	14462.07
617.445	14799.99
617.641	14390.39
617.836	14640.25
618.031	14335.1
618.226	14556.28
618.421	14183.55
618.616	14634.1
618.811	14115.97
619.006	14445.69
619.201	14142.59
619.396	14181.5
619.591	13991.04
619.786	14195.84
619.981	13917.31
620.176	14058.62
620.371	13794.43
620.566	14009.47
620.761	13749.38
620.956	13827.2
621.151	13571.21
621.346	13636.74
621.541	13214.86
621.735	13667.46
621.93	13190.28
622.125	13450.38
622.32	13079.69
622.515	13014.16
622.709	12797.07
622.904	13286.54
623.099	13085.84
623.294	13104.27
623.488	12633.24
623.683	13034.64
623.878	12926.1
624.072	12577.94
624.267	12786.83
624.462	12551.32
624.656	12571.8
624.851	12711.06
625.046	12414.1
625.24	12377.24
625.435	12229.79
625.629	12201.12
625.824	11951.26
626.018	12113.05
626.213	11631.78
626.407	11875.49
626.602	11986.08
626.796	11875.49
626.991	11850.91
627.185	11674.79
627.38	11627.68
627.574	11459.75
627.768	11349.16
627.963	11365.54
628.157	11283.63
628.352	11308.2
628.546	11177.13
628.74	11123.88
628.935	10964.14
629.129	11095.21
629.323	10896.56
629.517	10839.22
629.712	10802.35
629.906	10851.5
630.1	10697.91
630.294	10712.24
630.489	10550.45
630.683	10810.54
630.877	10349.75
631.071	10507.44
631.265	10699.95
631.459	10380.47
631.653	10241.21
631.848	10136.76
632.042	10233.02
632.236	10214.59
632.43	10138.81
632.624	10046.65
632.818	9983.16
633.012	10050.75
633.206	9981.12
633.4	10112.19
633.594	9723.07
633.788	9725.12
633.982	9876.67
634.176	9778.37
634.369	9680.07
634.563	9596.1
634.757	9479.36
634.951	9469.12
635.145	9557.19
635.339	9508.04
635.533	9350.34
635.726	9368.77
635.92	9311.43
636.114	9260.23
636.308	9284.81
636.501	9118.92
636.695	9073.87
636.889	9014.48
637.083	9010.38
637.276	8834.25
637.47	8838.35
637.664	8862.93
637.857	8604.88
638.051	8684.75
638.244	8744.14
638.438	8500.44
638.632	8365.27
638.825	8606.93
639.019	8475.86
639.212	8469.72
639.406	8303.83
639.599	8453.33
639.793	8420.56
639.986	8180.95
640.18	8408.28
640.373	8156.38
640.567	8004.83
640.76	8180.95
640.954	7847.13
641.147	8060.12
641.34	7892.19
641.534	8037.59
641.727	7630.05
641.92	7855.33
642.114	7748.83
642.307	7714.02
642.5	7746.78
642.694	7537.89
642.887	7634.14
643.08	7742.69
643.273	7630.05
643.467	7601.38
643.66	7367.91
643.853	7349.48
644.046	7388.39
644.239	7472.36
644.432	7386.34
644.626	7464.16
644.819	7118.06
645.012	7208.17
645.205	7277.8
645.398	7126.25
645.591	7019.75
645.784	7017.71
645.977	7023.85
646.17	6894.83
646.363	6739.18
646.556	6767.85
646.749	6663.41
646.942	6743.28
647.135	6735.09
647.328	6759.66
647.521	6751.47
647.714	6450.42
647.907	6587.63
648.099	6503.67
648.292	6573.3
648.485	6558.96
648.678	6413.56
648.871	6333.68
649.064	6458.61
649.256	6573.3
649.449	6233.33
649.642	6352.12
649.835	6274.29
650.027	6210.81
650.22	6169.85
650.413	6112.5
650.605	6112.5
650.798	6128.89
650.991	6006.01
651.183	6241.53
651.376	5893.37
651.568	6026.49
651.761	5979.39
651.954	6044.92
652.146	5864.7
652.339	5887.23
652.531	5827.84
652.724	5711.1
652.916	5821.69
653.109	5754.11
653.301	5750.01
653.494	5733.63
653.686	5752.06
653.879	5463.3
654.071	5661.95
654.263	5524.74
654.456	5772.54
654.648	5625.09
654.84	5473.54
655.033	5438.72
655.225	5498.11
655.417	5348.61
655.61	5539.07
655.802	5459.2
655.994	5344.52
656.186	5465.35
656.379	5221.64
656.571	5389.57
656.763	5309.7
656.955	5229.83
657.148	5084.42
657.34	5152.01
657.532	5186.82
657.724	5006.6
657.916	4996.36
658.108	5006.6
658.3	4984.07
658.492	5133.57
658.684	4818.19
658.876	4941.07
659.068	4955.4
659.26	4824.33
659.452	4924.68
659.644	4861.2
659.836	4844.81
660.028	4867.34
660.22	4773.13
660.412	4633.87
660.604	4685.07
660.796	4730.13
660.988	4789.52
661.18	4689.17
661.372	4535.57
661.563	4859.15
661.755	4597.01
661.947	4496.66
662.139	4451.6
662.331	4580.62
662.522	4357.39
662.714	4410.64
662.906	4433.17
663.097	4384.02
663.289	4531.47
663.481	4420.88
663.673	4373.78
663.864	4283.67
664.056	4271.38
664.247	4341.01
664.439	4271.38
664.631	4269.33
664.822	4328.72
665.014	4209.94
665.205	4341.01
665.397	4316.44
665.588	4257.04
665.78	4238.61
665.971	4146.45
666.163	4164.89
666.354	4042.01
666.546	4111.64
666.737	4130.07
666.929	4072.73
667.12	4111.64
667.311	3953.94
667.503	3933.47
667.694	3978.52
667.885	3904.79
668.077	3919.13
668.268	3951.9
668.459	3894.55
668.651	3986.71
668.842	3855.64
669.033	3878.17
669.224	3775.77
669.416	3855.64
669.607	3820.83
669.798	3792.16
669.989	3853.59
670.18	3743
670.371	3802.4
670.563	3743
670.754	3833.11
670.945	3718.43
671.136	3724.57
671.327	3685.66
671.518	3788.06
671.709	3747.1
671.9	3751.2
672.091	3575.07
672.282	3659.04
672.473	3536.16
672.664	3599.65
672.855	3738.91
673.046	3628.32
673.237	3677.47
673.428	3525.92
673.619	3568.93
673.809	3583.26
674	3591.45
674.191	3673.37
674.382	3646.75
674.573	3581.21
674.764	3489.06
674.954	3656.99
675.145	3530.02
675.336	3562.78
675.527	3454.24
675.717	3452.19
675.908	3405.09
676.099	3392.8
676.289	3456.29
676.48	3478.82
676.671	3548.45
676.861	3441.95
677.052	3353.89
677.243	3298.59
677.433	3441.95
677.624	3388.71
677.814	3452.19
678.005	3421.47
678.195	3482.91
678.386	3317.03
678.576	3331.36
678.767	3253.54
678.957	3409.19
679.148	3314.98
679.338	3329.31
679.529	3382.56
679.719	3386.66
679.909	3341.6
680.1	3321.12
680.29	3411.23
680.481	3394.85
680.671	3298.59
680.861	3255.59
681.052	3360.03
681.242	3181.86
681.432	3357.99
681.622	3407.14
681.813	3245.35
682.003	3310.88
682.193	3245.35
682.383	3239.2
682.573	3286.31
682.764	3294.5
682.954	3200.29
683.144	3296.55
683.334	3284.26
683.524	3157.29
683.714	3271.97
683.904	3306.79
684.094	3319.07
684.284	3278.12
684.474	3355.94
684.664	3394.85
684.854	3276.07
685.044	3341.6
685.234	3218.72
685.424	3222.82
685.614	3243.3
685.804	3243.3
685.994	3167.52
686.184	3259.68
686.374	3110.18
686.564	3075.37
686.753	3134.76
686.943	3026.22
687.133	2964.78
687.323	3104.04
687.513	3204.39
687.702	3056.93
687.892	3056.93
688.082	3032.36
688.272	3081.51
688.461	3018.02
688.651	3042.6
688.841	2991.4
689.03	2946.34
689.22	2868.52
689.41	2889
689.599	3011.88
689.789	2897.19
689.979	2907.43
690.168	2911.53
690.358	2954.54
690.547	2854.19
690.737	3028.26
690.926	2868.52
691.116	2780.46
691.305	2848.04
691.495	2860.33
691.684	2819.37
691.874	2850.09
692.063	2688.3
692.252	2856.23
692.442	2778.41
692.631	2714.92
692.82	2800.94
693.01	2684.2
693.199	2815.27
693.388	2770.22
693.578	2645.29
693.767	2669.87
693.956	2620.72
694.146	2751.79
694.335	2647.34
694.524	2729.26
694.713	2848.04
694.902	2620.72
695.092	2612.53
695.281	2794.79
695.47	2514.22
695.659	2618.67
695.848	2706.73
696.037	2614.57
696.226	2587.95
696.415	2649.39
696.604	2594.09
696.793	2596.14
696.982	2620.72
697.171	2538.8
697.36	2538.8
697.549	2501.94
697.738	2534.7
697.927	2487.6
698.116	2630.96
698.305	2524.46
698.494	2645.29
698.683	2510.13
698.872	2522.41
699.061	2616.62
699.25	2602.29
699.438	2563.37
699.627	2518.32
699.816	2567.47
700.005	2426.16
700.193	2540.85
700.382	2641.2
700.571	2592.05
700.76	2542.89
700.948	2598.19
701.137	2528.56
701.326	2600.24
701.514	2596.14
701.703	2508.08
701.892	2528.56
702.08	2575.66
702.269	2510.13
702.457	2510.13
702.646	2569.52
702.834	2422.06
703.023	2600.24
703.212	2471.22
703.4	2559.28
703.589	2483.5
703.777	2569.52
703.965	2616.62
704.154	2426.16
704.342	2495.79
704.531	2555.18
704.719	2600.24
704.907	2628.91
705.096	2516.27
705.284	2430.26
705.472	2602.29
705.661	2387.25
705.849	2534.7
706.037	2561.33
706.226	2573.61
706.414	2628.91
706.602	2491.7
706.79	2618.67
706.979	2538.8
707.167	2514.22
707.355	2448.69
707.543	2444.59
707.731	2667.82
707.919	2487.6
708.107	2538.8
708.296	2503.98
708.484	2383.15
708.672	2544.94
708.86	2555.18
709.048	2491.7
709.236	2518.32
709.424	2579.76
709.612	2510.13
709.8	2481.46
709.988	2542.89
710.176	2522.41
710.364	2641.2
710.551	2465.07
710.739	2624.81
710.927	2485.55
711.115	2452.78
711.303	2540.85
711.491	2598.19
711.679	2612.53
711.866	2544.94
712.054	2727.21
712.242	2618.67
712.43	2653.48
712.617	2528.56
712.805	2637.1
712.993	2501.94
713.181	2499.89
713.368	2583.85
713.556	2557.23
713.744	2358.58
713.931	2649.39
714.119	2571.57
714.306	2604.33
714.494	2555.18
714.682	2649.39
714.869	2491.7
715.057	2506.03
715.244	2587.95
715.432	2571.57
715.619	2532.65
715.807	2522.41
715.994	2602.29
716.182	2532.65
716.369	2716.97
716.556	2573.61
716.744	2518.32
716.931	2575.66
717.119	2727.21
717.306	2702.64
717.493	2682.16
717.681	2602.29
717.868	2614.57
718.055	2661.68
718.242	2651.44
718.43	2544.94
718.617	2723.12
718.804	2649.39
718.991	2626.86
719.179	2567.47
719.366	2557.23
719.553	2688.3
719.74	2581.81
719.927	2663.72
720.114	2594.09
720.301	2635.05
720.488	2512.17
720.676	2518.32
720.863	2542.89
721.05	2555.18
721.237	2694.44
721.424	2620.72
721.611	2688.3
721.798	2696.49
721.985	2579.76
722.172	2688.3
722.358	2575.66
722.545	2741.55
722.732	2544.94
722.919	2688.3
723.106	2587.95
723.293	2663.72
723.48	2673.96
723.667	2770.22
723.853	2565.42
724.04	2583.85
724.227	2608.43
724.414	2729.26
724.6	2626.86
724.787	2532.65
724.974	2643.24
725.161	2561.33
725.347	2561.33
725.534	2598.19
725.72	2626.86
725.907	2583.85
726.094	2731.31
726.28	2559.28
726.467	2624.81
726.653	2573.61
726.84	2676.01
727.027	2739.5
727.213	2546.99
727.4	2645.29
727.586	2542.89
727.773	2665.77
727.959	2555.18
728.145	2495.79
728.332	2518.32
728.518	2770.22
728.705	2616.62
728.891	2516.27
729.077	2757.93
729.264	2608.43
729.45	2622.77
729.636	2540.85
729.823	2610.48
730.009	2473.26
730.195	2630.96
730.382	2567.47
730.568	2676.01
730.754	2655.53
730.94	2676.01
731.126	2688.3
731.313	2598.19
731.499	2663.72
731.685	2532.65
731.871	2786.6
732.057	2573.61
732.243	2673.96
732.429	2696.49
732.615	2686.25
732.801	2587.95
732.987	2776.36
733.173	2432.3
733.359	2657.58
733.545	2661.68
733.731	2610.48
733.917	2555.18
734.103	2602.29
734.289	2653.48
734.475	2628.91
734.661	2647.34
734.847	2673.96
735.033	2598.19
735.219	2692.4
735.404	2569.52
735.59	2557.23
735.776	2452.78
735.962	2563.37
736.148	2573.61
736.333	2422.06
736.519	2483.5
736.705	2489.65
736.89	2559.28
737.076	2567.47
737.262	2487.6
737.447	2573.61
737.633	2542.89
737.819	2553.13
738.004	2489.65
738.19	2583.85
738.375	2530.61
738.561	2753.84
738.747	2503.98
738.932	2544.94
739.118	2452.78
739.303	2624.81
739.489	2426.16
739.674	2514.22
739.859	2510.13
740.045	2422.06
740.23	2532.65
740.416	2381.11
740.601	2508.08
740.786	2432.3
740.972	2489.65
741.157	2391.34
741.342	2329.91
741.528	2434.35
741.713	2442.54
741.898	2485.55
742.084	2487.6
742.269	2331.95
742.454	2489.65
742.639	2403.63
742.824	2307.38
743.01	2387.25
743.195	2469.17
743.38	2395.44
743.565	2391.34
743.75	2309.43
743.935	2288.95
744.12	2295.09
744.305	2362.67
744.49	2235.7
744.675	2211.12
744.86	2200.88
745.045	2247.99
745.23	2192.69
745.415	2309.43
745.6	2247.99
745.785	2143.54
745.97	2121.01
746.155	2221.36
746.34	2247.99
746.525	2061.62
746.71	2254.13
746.895	2043.19
747.079	2137.4
747.264	2100.53
747.449	2139.44
747.634	2106.68
747.819	2129.2
748.003	2104.63
748.188	2032.95
748.373	2069.81
748.557	1996.09
748.742	2049.33
748.927	2075.96
749.111	1987.89
749.296	1918.26
749.481	1946.94
749.665	2020.66
749.85	1897.78
750.034	1940.79
750.219	1934.65
750.404	2004.28
750.588	1815.87
750.773	1838.39
750.957	1817.91
751.141	1881.4
751.326	1858.87
751.51	1776.95
751.695	1811.77
751.879	1793.34
752.064	1869.11
752.248	1664.32
752.432	1713.47
752.617	1748.28
752.801	1699.13
752.985	1699.13
753.17	1770.81
753.354	1766.71
753.538	1723.71
753.722	1541.44
753.907	1772.86
754.091	1617.21
754.275	1715.52
754.459	1588.54
754.643	1627.45
754.828	1570.11
755.012	1629.5
755.196	1705.28
755.38	1525.05
755.564	1555.77
755.748	1461.57
755.932	1535.29
756.116	1615.16
756.3	1510.72
756.484	1461.57
756.668	1572.16
756.852	1549.63
757.036	1430.85
757.22	1445.18
757.404	1434.94
757.588	1400.13
757.772	1441.09
757.956	1461.57
758.14	1486.14
758.323	1436.99
758.507	1393.98
758.691	1367.36
758.875	1369.41
759.059	1406.27
759.242	1422.66
759.426	1375.55
759.61	1377.6
759.794	1330.5
759.977	1426.75
760.161	1439.04
760.345	1310.02
760.528	1342.78
760.712	1246.53
760.895	1383.74
761.079	1342.78
761.263	1234.24
761.446	1215.81
761.63	1217.86
761.813	1213.76
761.997	1262.91
762.18	1201.47
762.364	1236.29
762.547	1246.53
762.731	1150.28
762.914	1213.76
763.098	1209.67
763.281	1176.9
763.464	1217.86
763.648	1166.66
763.831	1234.24
764.015	1148.23
764.198	1205.57
764.381	1160.52
764.564	1246.53
764.748	1142.08
764.931	1127.75
765.114	1166.66
765.297	1066.31
765.481	1109.32
765.664	1111.36
765.847	1092.93
766.03	1144.13
766.213	1137.99
766.397	1029.45
766.58	1107.27
766.763	1160.52
766.946	1062.21
767.129	996.68
767.312	1000.77
767.495	1094.98
767.678	1060.17
767.861	1058.12
768.044	1066.31
768.227	1062.21
768.41	1082.69
768.593	1051.97
768.776	988.49
768.959	1017.16
769.142	1076.55
769.324	1058.12
769.507	1023.3
769.69	1000.77
769.873	1033.54
770.056	1031.49
770.239	943.43
770.421	1082.69
770.604	963.91
770.787	941.38
770.97	908.62
771.152	898.38
771.335	939.34
771.518	953.67
771.7	978.25
771.883	974.15
772.066	953.67
772.248	898.38
772.431	955.72
772.613	871.75
772.796	847.18
772.978	886.09
773.161	898.38
773.343	847.18
773.526	873.8
773.708	892.23
773.891	900.42
774.073	869.7
774.256	902.47
774.438	935.24
774.621	869.7
774.803	877.9
774.985	888.14
775.168	896.33
775.35	869.7
775.532	769.35
775.715	804.17
775.897	931.14
776.079	804.17
776.261	863.56
776.444	843.08
776.626	773.45
776.808	841.03
776.99	765.26
777.173	810.31
777.355	847.18
777.537	789.83
777.719	718.15
777.901	800.07
778.083	757.07
778.265	752.97
778.447	773.45
778.629	699.72
778.811	734.54
778.993	777.55
779.175	716.11
779.357	742.73
779.539	703.82
779.721	750.92
779.903	632.14
780.085	716.11
780.267	617.8
780.449	734.54
780.631	621.9
780.812	572.75
780.994	636.24
781.176	660.81
781.358	654.67
781.54	597.32
781.721	718.15
781.903	626
782.085	562.51
782.267	574.8
782.448	650.57
782.63	542.03
782.812	605.52
782.993	568.65
783.175	521.55
783.357	529.74
783.538	574.8
783.72	580.94
783.901	525.65
784.083	494.93
784.264	623.95
784.446	492.88
784.627	558.41
784.809	499.02
784.99	527.69
785.172	546.12
785.353	501.07
785.535	513.36
785.716	535.89
785.897	466.25
786.079	453.97
786.26	537.93
786.441	472.4
786.623	472.4
786.804	496.97
786.985	417.1
787.167	509.26
787.348	433.49
787.529	386.38
787.71	435.53
787.891	413.01
788.073	443.73
788.254	517.45
788.435	537.93
788.616	480.59
788.797	404.82
788.978	474.45
789.159	384.34
789.34	392.53
789.522	480.59
789.703	447.82
789.884	386.38
790.065	423.25
790.246	427.34
790.427	408.91
790.607	425.29
790.788	544.08
790.969	365.9
791.15	496.97
791.331	347.47
791.512	390.48
791.693	380.24
791.874	431.44
792.054	464.21
792.235	425.29
792.416	378.19
792.597	400.72
792.778	378.19
792.958	415.05
793.139	472.4
793.32	404.82
793.5	392.53
793.681	408.91
793.862	302.42
794.042	314.7
794.223	390.48
794.404	365.9
794.584	359.76
794.765	312.66
794.945	382.29
795.126	372.05
795.306	333.14
795.487	322.9
795.667	318.8
795.848	318.8
796.028	333.14
796.209	394.58
796.389	382.29
796.57	349.52
796.75	267.6
796.93	370
797.111	259.41
797.291	281.94
797.471	363.86
797.652	357.71
797.832	400.72
798.012	376.14
798.192	273.75
798.373	283.98
798.553	316.75
798.733	341.33
798.913	345.42
799.093	324.94
799.274	382.29
799.454	312.66
799.634	267.6
799.814	300.37
799.994	251.22
800.174	275.79
800.354	245.07
800.534	349.52
800.714	337.23
800.894	220.5
801.074	218.45
801.254	253.27
801.434	275.79
801.614	247.12
801.794	316.75
801.974	687.43
802.154	306.51
802.334	341.33
802.514	175.44
802.693	296.27
802.873	316.75
803.053	322.9
803.233	349.52
803.413	281.94
803.592	245.07
803.772	283.98
803.952	265.55
804.131	267.6
804.311	240.98
804.491	257.36
804.67	214.35
804.85	210.26
805.03	224.59
805.209	267.6
805.389	273.75
805.568	222.55
805.748	234.83
805.928	269.65
806.107	306.51
806.287	265.55
806.466	271.7
806.646	224.59
806.825	189.78
807.004	279.89
807.184	177.49
807.363	189.78
807.543	243.03
807.722	202.07
807.901	247.12
808.081	286.03
808.26	150.87
808.439	195.92
808.619	216.4
808.798	263.51
808.977	97.62
809.156	234.83
809.336	220.5
809.515	236.88
809.694	200.02
809.873	136.53
810.052	228.69
810.231	193.87
810.411	247.12
810.59	175.44
810.769	210.26
810.948	111.96
811.127	169.3
811.306	189.78
811.485	240.98
811.664	251.22
811.843	134.48
812.022	144.72
812.201	165.2
812.38	275.79
812.559	187.73
812.737	222.55
812.916	169.3
813.095	230.74
813.274	200.02
813.453	206.16
813.632	165.2
813.811	214.35
813.989	140.63
814.168	265.55
814.347	161.11
814.526	101.72
814.704	195.92
814.883	255.31
815.062	175.44
815.24	101.72
815.419	214.35
815.598	193.87
815.776	128.34
815.955	202.07
816.133	159.06
816.312	220.5
816.49	171.35
816.669	167.25
816.847	159.06
817.026	189.78
817.204	75.09
817.383	181.59
817.561	191.83
817.74	71
817.918	171.35
818.097	111.96
818.275	111.96
818.453	167.25
818.632	177.49
818.81	171.35
818.988	179.54
819.167	91.48
819.345	132.44
819.523	138.58
819.701	169.3
819.879	120.15
820.058	128.34
820.236	140.63
820.414	144.72
820.592	148.82
820.77	173.39
820.948	109.91
821.127	116.05
821.305	185.68
821.483	116.05
821.661	159.06
821.839	85.33
822.017	107.86
822.195	173.39
822.373	159.06
822.551	128.34
822.729	142.68
822.907	116.05
823.085	132.44
823.262	179.54
823.44	118.1
823.618	79.19
823.796	195.92
823.974	126.29
824.152	136.53
824.329	157.01
824.507	77.14
824.685	163.15
824.863	126.29
825.04	120.15
825.218	167.25
825.396	130.39
825.574	197.97
825.751	114
825.929	175.44
826.107	154.96
826.284	64.85
826.462	148.82
826.639	150.87
826.817	42.32
826.994	157.01
827.172	54.61
827.349	140.63
827.527	68.95
827.704	132.44
827.882	167.25
828.059	167.25
828.237	161.11
828.414	183.63
828.591	116.05
828.769	68.95
828.946	167.25
829.124	152.91
829.301	68.95
829.478	118.1
829.655	161.11
829.833	179.54
830.01	97.62
830.187	118.1
830.364	118.1
830.542	81.24
830.719	216.4
830.896	159.06
831.073	114
831.25	167.25
831.427	124.24
831.604	77.14
831.782	118.1
831.959	140.63
832.136	73.04
832.313	152.91
832.49	111.96
832.667	177.49
832.844	66.9
833.021	132.44
833.198	46.42
833.374	126.29
833.551	132.44
833.728	154.96
833.905	50.52
834.082	75.09
834.259	126.29
834.436	91.48
834.612	38.23
834.789	140.63
834.966	81.24
835.143	138.58
835.319	83.28
835.496	68.95
835.673	40.28
835.85	148.82
836.026	134.48
836.203	23.89
836.38	40.28
836.556	97.62
836.733	114
836.909	124.24
837.086	118.1
837.262	71
837.439	42.32
837.616	52.56
837.792	38.23
837.968	150.87
838.145	91.48
838.321	124.24
838.498	157.01
838.674	95.57
838.851	46.42
839.027	118.1
839.203	122.2
839.38	79.19
839.556	79.19
839.732	107.86
839.909	111.96
840.085	132.44
840.261	66.9
840.437	58.71
840.614	83.28
840.79	71
840.966	132.44
841.142	46.42
841.318	101.72
841.494	140.63
841.671	64.85
841.847	1.37
842.023	40.28
842.199	77.14
842.375	146.77
842.551	73.04
842.727	-4.78
842.903	128.34
843.079	13.65
843.255	114
843.431	79.19
843.607	56.66
843.783	87.38
843.959	54.61
844.134	30.04
844.31	132.44
844.486	97.62
844.662	87.38
844.838	87.38
845.013	93.52
845.189	93.52
845.365	42.32
845.541	30.04
845.716	60.76
845.892	97.62
846.068	32.08
846.244	17.75
846.419	85.33
846.595	62.8
846.77	75.09
846.946	118.1
847.122	87.38
847.297	9.56
847.473	181.59
847.648	48.47
847.824	83.28
847.999	81.24
848.175	66.9
848.35	85.33
848.526	62.8
848.701	64.85
848.876	136.53
849.052	54.61
849.227	52.56
849.403	79.19
849.578	87.38
849.753	77.14
849.929	42.32
850.104	38.23
850.279	56.66
850.454	83.28
850.63	142.68
850.805	38.23
850.98	163.15
851.155	9.56
851.33	5.46
851.505	38.23
851.681	25.94
851.856	42.32
852.031	27.99
852.206	99.67
852.381	27.99
852.556	27.99
852.731	142.68
852.906	21.85
853.081	95.57
853.256	109.91
853.431	79.19
853.606	23.89
853.781	60.76
853.956	7.51
854.131	109.91
854.305	36.18
854.48	58.71
854.655	15.7
854.83	40.28
855.005	23.89
855.18	126.29
855.354	111.96
855.529	101.72
855.704	3.41
855.879	118.1
856.053	13.65
856.228	-0.68
856.403	-15.02
856.577	50.52
856.752	66.9
856.926	71
857.101	77.14
857.276	46.42
857.45	34.13
857.625	68.95
857.799	54.61
857.974	1.37
858.148	21.85
858.323	36.18
858.497	75.09
858.672	40.28
858.846	19.8
859.02	81.24
859.195	66.9
859.369	42.32
859.543	52.56
859.718	97.62
859.892	60.76
860.066	40.28
860.241	-0.68
860.415	42.32
860.589	-23.21
860.763	54.61
860.938	64.85
861.112	95.57
861.286	13.65
861.46	42.32
861.634	71
861.808	38.23
861.982	58.71
862.157	-0.68
862.331	36.18
862.505	-39.59
862.679	27.99
862.853	15.7
863.027	40.28
863.201	101.72
863.375	-39.59
863.549	54.61
863.722	111.96
863.896	25.94
864.07	-2.73
864.244	1.37
864.418	54.61
864.592	38.23
864.766	-15.02
864.939	95.57
865.113	27.99
865.287	58.71
865.461	60.76
865.634	25.94
865.808	-4.78
865.982	44.37
866.156	64.85
866.329	9.56
866.503	56.66
866.676	62.8
866.85	-21.16
867.024	38.23
867.197	89.43
867.371	36.18
867.544	17.75
867.718	15.7
867.891	105.81
868.065	48.47
868.238	13.65
868.412	116.05
868.585	83.28
868.759	5.46
868.932	42.32
869.105	40.28
869.279	95.57
869.452	62.8
869.625	21.85
869.799	40.28
869.972	75.09
870.145	13.65
870.319	87.38
870.492	9.56
870.665	-10.92
870.838	62.8
871.011	-19.11
871.185	62.8
871.358	40.28
871.531	93.52
871.704	73.04
871.877	21.85
872.05	23.89
872.223	-10.92
872.396	-15.02
872.569	-0.68
872.742	-39.59
872.915	38.23
873.088	77.14
873.261	36.18
873.434	-21.16
873.607	21.85
873.78	25.94
873.953	21.85
874.126	-8.87
874.299	101.72
874.471	79.19
874.644	58.71
874.817	64.85
874.99	46.42
875.163	-19.11
875.335	15.7
875.508	32.08
875.681	91.48
875.853	25.94
876.026	19.8
876.199	71
876.371	36.18
876.544	17.75
876.717	-17.07
876.889	52.56
877.062	3.41
877.234	44.37
877.407	-41.64
877.579	21.85
877.752	62.8
877.924	105.81
878.097	-0.68
878.269	56.66
878.442	-29.35
878.614	27.99
878.786	46.42
878.959	27.99
879.131	44.37
879.303	9.56
879.476	79.19
879.648	52.56
879.82	3.41
879.993	-25.26
880.165	34.13
880.337	9.56
880.509	5.46
880.681	21.85
880.854	124.24
881.026	30.04
881.198	101.72
881.37	21.85
881.542	13.65
881.714	-55.98
881.886	87.38
882.058	71
882.23	79.19
882.402	73.04
882.574	3.41
882.746	71
882.918	-4.78
883.09	15.7
883.262	36.18
883.434	42.32
883.606	54.61
883.778	-62.12
883.95	136.53
884.122	42.32
884.293	111.96
884.465	25.94
884.637	87.38
884.809	-6.83
884.98	91.48
885.152	56.66
885.324	42.32
885.496	64.85
885.667	40.28
885.839	-45.74
886.011	44.37
886.182	34.13
886.354	17.75
886.525	17.75
886.697	38.23
886.869	9.56
887.04	1.37
887.212	99.67
887.383	83.28
887.555	15.7
887.726	9.56
887.897	44.37
888.069	48.47
888.24	62.8
888.412	50.52
888.583	46.42
888.754	-23.21
888.926	1.37
889.097	13.65
889.268	-39.59
889.44	1.37
889.611	-41.64
889.782	3.41
889.953	7.51
890.125	30.04
890.296	-23.21
890.467	81.24
890.638	1.37
890.809	-12.97
890.98	52.56
891.151	11.61
891.323	25.94
891.494	3.41
891.665	-70.31
891.836	66.9
892.007	-10.92
892.178	11.61
892.349	54.61
892.52	1.37
892.691	60.76
892.862	140.63
893.032	-19.11
893.203	25.94
893.374	30.04
893.545	44.37
893.716	-0.68
893.887	54.61
894.057	13.65
894.228	75.09
894.399	60.76
894.57	36.18
894.74	38.23
894.911	-23.21
895.082	54.61
895.253	27.99
895.423	66.9
895.594	79.19
895.764	-8.87
895.935	13.65
896.106	-2.73
896.276	116.05
896.447	91.48
896.617	77.14
896.788	38.23
896.958	13.65
897.129	38.23
897.299	11.61
897.47	-12.97
897.64	52.56
897.81	62.8
897.981	73.04
898.151	13.65
898.322	-37.55
898.492	36.18
898.662	46.42
898.832	13.65
899.003	34.13
899.173	105.81
899.343	52.56
899.513	-8.87
