Data from USB4F104151__43__11-51-48-467.txt Node

Date: Fri Mar 14 11:51:48 EDT 2025
User: louis
Spectrometer: USB4F10415
Trigger mode: 4
Integration Time (sec): 2.000000E-2
Scans to average: 1
Electric dark correction enabled: true
Nonlinearity correction enabled: false
Boxcar width: 0
XAxis mode: Wavelengths
Number of Pixels in Spectrum: 3648
>>>>>Begin Spectral Data<<<<<
178.204	-90.62
178.424	-90.62
178.644	-90.62
178.864	-61.95
179.084	-145.92
179.304	-35.33
179.524	-8.7
179.744	-61.95
179.964	1.54
180.184	7.68
180.404	65.02
180.624	24.06
180.844	-27.14
181.064	17.92
181.283	44.54
181.503	-33.28
181.723	5.63
181.943	-6.66
182.163	13.82
182.383	24.06
182.602	65.02
182.822	28.16
183.042	-14.85
183.262	-25.09
183.482	3.58
183.701	-0.51
183.921	-14.85
184.141	36.35
184.361	-20.99
184.58	-27.14
184.8	-6.66
185.02	19.97
185.239	-23.04
185.459	-12.8
185.679	-12.8
185.898	-78.33
186.118	30.21
186.338	11.78
186.557	-0.51
186.777	1.54
186.997	-43.52
187.216	32.26
187.436	40.45
187.655	-20.99
187.875	73.21
188.095	-2.56
188.314	5.63
188.534	65.02
188.753	-29.18
188.973	11.78
189.192	-39.42
189.412	48.64
189.631	-20.99
189.851	17.92
190.07	65.02
190.29	69.12
190.509	26.11
190.729	75.26
190.948	-25.09
191.168	11.78
191.387	22.02
191.607	13.82
191.826	-10.75
192.045	-117.25
192.265	56.83
192.484	24.06
192.704	38.4
192.923	7.68
193.142	99.84
193.362	-14.85
193.581	38.4
193.8	-31.23
194.02	11.78
194.239	1.54
194.458	-64
194.678	1.54
194.897	46.59
195.116	52.74
195.335	7.68
195.555	-37.38
195.774	-2.56
195.993	28.16
196.212	5.63
196.432	-2.56
196.651	11.78
196.87	79.36
197.089	26.11
197.308	-29.18
197.528	5.63
197.747	-47.62
197.966	-6.66
198.185	-31.23
198.404	-27.14
198.623	9.73
198.842	-8.7
199.062	22.02
199.281	15.87
199.5	-82.43
199.719	1.54
199.938	17.92
200.157	44.54
200.376	-0.51
200.595	60.93
200.814	1.54
201.033	-39.42
201.252	-31.23
201.471	-43.52
201.69	28.16
201.909	48.64
202.128	50.69
202.347	56.83
202.566	13.82
202.785	-33.28
203.004	22.02
203.223	28.16
203.442	11.78
203.661	-27.14
203.879	5.63
204.098	-35.33
204.317	-25.09
204.536	38.4
204.755	-41.47
204.974	-25.09
205.193	40.45
205.411	22.02
205.63	-64
205.849	28.16
206.068	13.82
206.287	9.73
206.505	5.63
206.724	-70.14
206.943	-68.09
207.162	-2.56
207.381	5.63
207.599	34.3
207.818	-51.71
208.037	28.16
208.255	26.11
208.474	69.12
208.693	40.45
208.911	-23.04
209.13	-27.14
209.349	48.64
209.567	34.3
209.786	105.98
210.005	38.4
210.223	-2.56
210.442	-0.51
210.661	-35.33
210.879	28.16
211.098	-10.75
211.316	-0.51
211.535	65.02
211.753	-29.18
211.972	56.83
212.191	65.02
212.409	42.5
212.628	-35.33
212.846	38.4
213.065	22.02
213.283	26.11
213.502	-25.09
213.72	-4.61
213.938	-20.99
214.157	62.98
214.375	-12.8
214.594	-16.9
214.812	17.92
215.031	-8.7
215.249	-66.05
215.467	11.78
215.686	-41.47
215.904	26.11
216.122	95.74
216.341	-27.14
216.559	9.73
216.778	15.87
216.996	38.4
217.214	11.78
217.432	13.82
217.651	15.87
217.869	11.78
218.087	58.88
218.306	28.16
218.524	9.73
218.742	48.64
218.96	-18.94
219.179	-51.71
219.397	-4.61
219.615	75.26
219.833	46.59
220.051	30.21
220.27	19.97
220.488	79.36
220.706	22.02
220.924	-39.42
221.142	19.97
221.36	56.83
221.578	-10.75
221.796	22.02
222.015	17.92
222.233	9.73
222.451	26.11
222.669	-29.18
222.887	-61.95
223.105	9.73
223.323	-16.9
223.541	67.07
223.759	108.03
223.977	5.63
224.195	67.07
224.413	-90.62
224.631	62.98
224.849	15.87
225.067	-47.62
225.285	3.58
225.503	-12.8
225.721	-20.99
225.939	-6.66
226.157	58.88
226.375	24.06
226.592	7.68
226.81	-0.51
227.028	69.12
227.246	-29.18
227.464	5.63
227.682	34.3
227.9	17.92
228.117	-25.09
228.335	77.31
228.553	26.11
228.771	-33.28
228.989	26.11
229.206	15.87
229.424	36.35
229.642	40.45
229.86	56.83
230.077	-6.66
230.295	77.31
230.513	34.3
230.731	48.64
230.948	-64
231.166	85.5
231.384	46.59
231.601	42.5
231.819	50.69
232.037	13.82
232.254	17.92
232.472	38.4
232.689	48.64
232.907	79.36
233.125	15.87
233.342	-74.24
233.56	-16.9
233.777	-68.09
233.995	-16.9
234.213	65.02
234.43	-37.38
234.648	9.73
234.865	42.5
235.083	128.51
235.3	22.02
235.518	-12.8
235.735	48.64
235.953	-10.75
236.17	-37.38
236.388	-27.14
236.605	81.41
236.822	-39.42
237.04	17.92
237.257	79.36
237.475	36.35
237.692	52.74
237.909	-31.23
238.127	-45.57
238.344	22.02
238.562	28.16
238.779	3.58
238.996	44.54
239.214	32.26
239.431	13.82
239.648	7.68
239.865	32.26
240.083	83.45
240.3	71.17
240.517	-33.28
240.735	-14.85
240.952	24.06
241.169	-2.56
241.386	42.5
241.603	36.35
241.821	5.63
242.038	-47.62
242.255	50.69
242.472	-2.56
242.689	-4.61
242.907	99.84
243.124	36.35
243.341	67.07
243.558	-14.85
243.775	11.78
243.992	-18.94
244.209	71.17
244.426	44.54
244.643	-12.8
244.86	-8.7
245.078	-10.75
245.295	77.31
245.512	-20.99
245.729	7.68
245.946	87.55
246.163	44.54
246.38	-23.04
246.597	-8.7
246.814	-43.52
247.031	1.54
247.248	5.63
247.464	46.59
247.681	7.68
247.898	3.58
248.115	36.35
248.332	34.3
248.549	65.02
248.766	32.26
248.983	-2.56
249.2	3.58
249.417	-18.94
249.633	-16.9
249.85	69.12
250.067	-25.09
250.284	-10.75
250.501	60.93
250.717	103.93
250.934	7.68
251.151	-8.7
251.368	13.82
251.585	42.5
251.801	79.36
252.018	60.93
252.235	24.06
252.451	62.98
252.668	-25.09
252.885	28.16
253.102	-14.85
253.318	30.21
253.535	13.82
253.752	-84.48
253.968	1.54
254.185	-18.94
254.401	-61.95
254.618	13.82
254.835	-18.94
255.051	65.02
255.268	36.35
255.484	17.92
255.701	44.54
255.917	-39.42
256.134	-8.7
256.351	34.3
256.567	-6.66
256.784	50.69
257	-29.18
257.217	77.31
257.433	56.83
257.65	-39.42
257.866	34.3
258.082	9.73
258.299	28.16
258.515	9.73
258.732	71.17
258.948	1.54
259.165	-6.66
259.381	7.68
259.597	-41.47
259.814	44.54
260.03	-35.33
260.246	-4.61
260.463	91.65
260.679	-0.51
260.895	36.35
261.112	34.3
261.328	13.82
261.544	3.58
261.761	81.41
261.977	56.83
262.193	28.16
262.409	-4.61
262.626	11.78
262.842	7.68
263.058	5.63
263.274	93.69
263.49	46.59
263.707	19.97
263.923	13.82
264.139	-70.14
264.355	3.58
264.571	81.41
264.787	-6.66
265.004	28.16
265.22	36.35
265.436	-10.75
265.652	40.45
265.868	-10.75
266.084	50.69
266.3	13.82
266.516	69.12
266.732	-59.9
266.948	9.73
267.164	-72.19
267.38	83.45
267.596	60.93
267.812	50.69
268.028	24.06
268.244	34.3
268.46	17.92
268.676	30.21
268.892	36.35
269.108	9.73
269.324	54.78
269.54	-10.75
269.756	-12.8
269.972	7.68
270.188	38.4
270.403	-43.52
270.619	-31.23
270.835	-4.61
271.051	-27.14
271.267	13.82
271.483	54.78
271.698	42.5
271.914	19.97
272.13	-2.56
272.346	34.3
272.562	5.63
272.777	-25.09
272.993	-23.04
273.209	-45.57
273.425	-0.51
273.64	-39.42
273.856	34.3
274.072	46.59
274.287	-6.66
274.503	24.06
274.719	11.78
274.934	9.73
275.15	-12.8
275.366	-14.85
275.581	-49.66
275.797	-27.14
276.012	22.02
276.228	-88.57
276.444	9.73
276.659	77.31
276.875	1.54
277.09	-8.7
277.306	-16.9
277.521	17.92
277.737	11.78
277.952	34.3
278.168	22.02
278.383	5.63
278.599	26.11
278.814	-27.14
279.03	79.36
279.245	9.73
279.461	48.64
279.676	24.06
279.892	24.06
280.107	30.21
280.322	-41.47
280.538	7.68
280.753	13.82
280.969	-35.33
281.184	50.69
281.399	11.78
281.615	-6.66
281.83	54.78
282.045	19.97
282.26	-10.75
282.476	60.93
282.691	11.78
282.906	32.26
283.122	-0.51
283.337	-29.18
283.552	19.97
283.767	-6.66
283.983	42.5
284.198	9.73
284.413	13.82
284.628	1.54
284.843	54.78
285.058	-25.09
285.274	-10.75
285.489	-90.62
285.704	32.26
285.919	-18.94
286.134	54.78
286.349	36.35
286.564	19.97
286.779	93.69
286.995	34.3
287.21	-78.33
287.425	-0.51
287.64	40.45
287.855	52.74
288.07	13.82
288.285	19.97
288.5	-2.56
288.715	-16.9
288.93	30.21
289.145	15.87
289.36	-45.57
289.575	32.26
289.79	7.68
290.004	-18.94
290.219	-29.18
290.434	26.11
290.649	-12.8
290.864	75.26
291.079	1.54
291.294	-10.75
291.509	-76.29
291.724	-16.9
291.938	19.97
292.153	-64
292.368	13.82
292.583	28.16
292.798	40.45
293.012	-0.51
293.227	44.54
293.442	11.78
293.657	-12.8
293.871	81.41
294.086	3.58
294.301	65.02
294.516	79.36
294.73	-20.99
294.945	34.3
295.16	-18.94
295.374	-12.8
295.589	30.21
295.804	-47.62
296.018	9.73
296.233	-45.57
296.447	26.11
296.662	36.35
296.877	-4.61
297.091	24.06
297.306	48.64
297.52	-23.04
297.735	-33.28
297.949	34.3
298.164	3.58
298.378	58.88
298.593	-8.7
298.807	5.63
299.022	15.87
299.236	32.26
299.451	42.5
299.665	28.16
299.88	19.97
300.094	-10.75
300.309	-53.76
300.523	54.78
300.737	54.78
300.952	67.07
301.166	-4.61
301.381	-98.81
301.595	67.07
301.809	-33.28
302.024	19.97
302.238	42.5
302.452	75.26
302.667	-20.99
302.881	116.22
303.095	7.68
303.309	32.26
303.524	87.55
303.738	-25.09
303.952	34.3
304.166	-59.9
304.381	-47.62
304.595	30.21
304.809	58.88
305.023	38.4
305.237	1.54
305.452	5.63
305.666	44.54
305.88	19.97
306.094	36.35
306.308	-68.09
306.522	1.54
306.736	7.68
306.95	38.4
307.164	-2.56
307.379	-70.14
307.593	44.54
307.807	-0.51
308.021	85.5
308.235	52.74
308.449	11.78
308.663	11.78
308.877	54.78
309.091	28.16
309.305	62.98
309.519	32.26
309.733	48.64
309.947	-16.9
310.161	-37.38
310.374	1.54
310.588	-2.56
310.802	28.16
311.016	36.35
311.23	-16.9
311.444	-14.85
311.658	67.07
311.872	-14.85
312.085	81.41
312.299	52.74
312.513	15.87
312.727	30.21
312.941	9.73
313.154	28.16
313.368	-8.7
313.582	15.87
313.796	44.54
314.009	-2.56
314.223	32.26
314.437	-37.38
314.651	69.12
314.864	11.78
315.078	5.63
315.292	44.54
315.505	-35.33
315.719	46.59
315.933	56.83
316.146	60.93
316.36	-55.81
316.573	50.69
316.787	48.64
317.001	-23.04
317.214	13.82
317.428	-2.56
317.641	-29.18
317.855	-4.61
318.068	26.11
318.282	-8.7
318.495	-16.9
318.709	30.21
318.922	40.45
319.136	69.12
319.349	-0.51
319.563	3.58
319.776	-37.38
319.99	48.64
320.203	48.64
320.417	71.17
320.63	38.4
320.843	-4.61
321.057	11.78
321.27	30.21
321.483	22.02
321.697	38.4
321.91	-25.09
322.124	105.98
322.337	1.54
322.55	-41.47
322.763	50.69
322.977	-20.99
323.19	11.78
323.403	-0.51
323.617	36.35
323.83	50.69
324.043	-25.09
324.256	-18.94
324.469	52.74
324.683	89.6
324.896	-53.76
325.109	50.69
325.322	9.73
325.535	38.4
325.748	34.3
325.962	42.5
326.175	-33.28
326.388	-29.18
326.601	3.58
326.814	9.73
327.027	-2.56
327.24	91.65
327.453	-16.9
327.666	-0.51
327.879	42.5
328.092	13.82
328.305	19.97
328.518	-0.51
328.731	15.87
328.944	-12.8
329.157	19.97
329.37	65.02
329.583	50.69
329.796	67.07
330.009	-10.75
330.222	75.26
330.435	-27.14
330.648	22.02
330.861	67.07
331.073	9.73
331.286	34.3
331.499	60.93
331.712	-35.33
331.925	-8.7
332.138	69.12
332.35	48.64
332.563	-25.09
332.776	52.74
332.989	-4.61
333.202	38.4
333.414	79.36
333.627	11.78
333.84	1.54
334.053	28.16
334.265	67.07
334.478	-8.7
334.691	-0.51
334.903	9.73
335.116	9.73
335.329	9.73
335.541	60.93
335.754	-12.8
335.966	13.82
336.179	48.64
336.392	-18.94
336.604	-12.8
336.817	36.35
337.029	11.78
337.242	-0.51
337.454	24.06
337.667	19.97
337.88	-31.23
338.092	93.69
338.305	28.16
338.517	-8.7
338.729	-66.05
338.942	52.74
339.154	103.93
339.367	40.45
339.579	65.02
339.792	24.06
340.004	-14.85
340.217	1.54
340.429	44.54
340.641	17.92
340.854	60.93
341.066	-10.75
341.278	26.11
341.491	28.16
341.703	58.88
341.915	-27.14
342.128	17.92
342.34	83.45
342.552	24.06
342.764	71.17
342.977	75.26
343.189	-16.9
343.401	38.4
343.613	32.26
343.826	58.88
344.038	69.12
344.25	28.16
344.462	-2.56
344.674	5.63
344.886	65.02
345.099	56.83
345.311	81.41
345.523	19.97
345.735	32.26
345.947	-10.75
346.159	-43.52
346.371	9.73
346.583	26.11
346.795	26.11
347.007	-18.94
347.219	26.11
347.431	-12.8
347.643	30.21
347.855	-29.18
348.067	36.35
348.279	38.4
348.491	42.5
348.703	85.5
348.915	-27.14
349.127	13.82
349.339	42.5
349.551	24.06
349.763	-0.51
349.975	46.59
350.187	62.98
350.399	5.63
350.61	-4.61
350.822	19.97
351.034	7.68
351.246	17.92
351.458	69.12
351.669	7.68
351.881	79.36
352.093	-4.61
352.305	26.11
352.517	-4.61
352.728	34.3
352.94	38.4
353.152	7.68
353.363	-12.8
353.575	30.21
353.787	48.64
353.999	-8.7
354.21	22.02
354.422	71.17
354.633	34.3
354.845	34.3
355.057	58.88
355.268	28.16
355.48	60.93
355.692	69.12
355.903	-25.09
356.115	62.98
356.326	5.63
356.538	87.55
356.749	22.02
356.961	73.21
357.172	9.73
357.384	11.78
357.595	77.31
357.807	60.93
358.018	-102.91
358.23	-27.14
358.441	71.17
358.653	130.56
358.864	7.68
359.075	38.4
359.287	7.68
359.498	60.93
359.709	11.78
359.921	3.58
360.132	44.54
360.344	-6.66
360.555	-2.56
360.766	-10.75
360.977	34.3
361.189	22.02
361.4	30.21
361.611	93.69
361.823	-45.57
362.034	44.54
362.245	-16.9
362.456	24.06
362.667	42.5
362.879	9.73
363.09	-16.9
363.301	54.78
363.512	11.78
363.723	34.3
363.935	-18.94
364.146	71.17
364.357	54.78
364.568	89.6
364.779	22.02
364.99	77.31
365.201	32.26
365.412	28.16
365.623	22.02
365.834	42.5
366.045	-37.38
366.256	52.74
366.467	22.02
366.678	38.4
366.889	-16.9
367.1	44.54
367.311	73.21
367.522	38.4
367.733	-55.81
367.944	-18.94
368.155	42.5
368.366	24.06
368.577	5.63
368.788	-59.9
368.999	116.22
369.209	17.92
369.42	153.09
369.631	28.16
369.842	13.82
370.053	54.78
370.264	26.11
370.474	26.11
370.685	32.26
370.896	42.5
371.107	34.3
371.317	42.5
371.528	-92.67
371.739	19.97
371.95	-6.66
372.16	30.21
372.371	34.3
372.582	-20.99
372.792	1.54
373.003	62.98
373.214	134.65
373.424	105.98
373.635	-12.8
373.846	30.21
374.056	67.07
374.267	9.73
374.477	46.59
374.688	42.5
374.898	3.58
375.109	36.35
375.319	28.16
375.53	54.78
375.74	26.11
375.951	58.88
376.161	-43.52
376.372	15.87
376.582	24.06
376.793	17.92
377.003	-47.62
377.214	22.02
377.424	5.63
377.635	71.17
377.845	1.54
378.055	60.93
378.266	17.92
378.476	28.16
378.686	-16.9
378.897	32.26
379.107	-57.86
379.317	54.78
379.528	42.5
379.738	73.21
379.948	9.73
380.158	38.4
380.369	26.11
380.579	62.98
380.789	7.68
380.999	97.79
381.21	22.02
381.42	38.4
381.63	65.02
381.84	75.26
382.05	112.13
382.261	-23.04
382.471	-4.61
382.681	-35.33
382.891	93.69
383.101	-6.66
383.311	7.68
383.521	54.78
383.731	99.84
383.941	32.26
384.151	105.98
384.361	71.17
384.571	26.11
384.781	38.4
384.991	79.36
385.201	26.11
385.411	50.69
385.621	11.78
385.831	138.75
386.041	17.92
386.251	32.26
386.461	24.06
386.671	-16.9
386.881	36.35
387.091	56.83
387.301	-12.8
387.511	5.63
387.72	7.68
387.93	26.11
388.14	-16.9
388.35	7.68
388.56	62.98
388.769	48.64
388.979	87.55
389.189	89.6
389.399	30.21
389.609	97.79
389.818	52.74
390.028	50.69
390.238	93.69
390.447	17.92
390.657	46.59
390.867	15.87
391.076	-29.18
391.286	-8.7
391.496	73.21
391.705	58.88
391.915	83.45
392.125	132.61
392.334	-39.42
392.544	169.47
392.753	-2.56
392.963	28.16
393.172	69.12
393.382	58.88
393.591	67.07
393.801	-18.94
394.01	60.93
394.22	32.26
394.429	101.89
394.639	48.64
394.848	62.98
395.058	5.63
395.267	138.75
395.477	75.26
395.686	62.98
395.895	89.6
396.105	159.23
396.314	124.41
396.524	83.45
396.733	81.41
396.942	136.7
397.152	40.45
397.361	95.74
397.57	89.6
397.78	79.36
397.989	91.65
398.198	17.92
398.407	-4.61
398.617	108.03
398.826	105.98
399.035	-14.85
399.244	163.33
399.453	71.17
399.663	28.16
399.872	60.93
400.081	28.16
400.29	138.75
400.499	75.26
400.708	50.69
400.917	-4.61
401.127	116.22
401.336	97.79
401.545	146.94
401.754	103.93
401.963	17.92
402.172	46.59
402.381	85.5
402.59	122.37
402.799	101.89
403.008	183.81
403.217	118.27
403.426	91.65
403.635	144.89
403.844	126.46
404.053	91.65
404.262	81.41
404.471	155.13
404.68	67.07
404.888	99.84
405.097	122.37
405.306	116.22
405.515	79.36
405.724	73.21
405.933	187.9
406.142	153.09
406.35	126.46
406.559	67.07
406.768	142.85
406.977	134.65
407.185	228.86
407.394	247.29
407.603	198.14
407.812	140.8
408.02	167.42
408.229	161.28
408.438	112.13
408.646	95.74
408.855	132.61
409.064	208.38
409.272	259.58
409.481	183.81
409.69	216.57
409.898	237.05
410.107	243.2
410.315	255.48
410.524	251.39
410.733	253.44
410.941	310.78
411.15	267.77
411.358	343.55
411.567	300.54
411.775	323.07
411.984	323.07
412.192	353.79
412.401	343.55
412.609	366.07
412.818	370.17
413.026	402.94
413.234	411.13
413.443	392.7
413.651	331.26
413.86	382.46
414.068	491
414.276	484.86
414.485	458.23
414.693	544.25
414.901	540.15
415.11	523.77
415.318	579.06
415.526	503.29
415.734	630.26
415.943	597.49
416.151	691.7
416.359	548.34
416.567	593.4
416.776	706.04
416.984	722.42
417.192	787.96
417.4	781.81
417.608	738.8
417.817	849.4
418.025	894.45
418.233	900.59
418.441	871.92
418.649	873.97
418.857	992.75
419.065	1000.94
419.273	962.03
419.481	1023.47
419.689	1134.06
419.897	1179.12
420.105	1211.89
420.313	1170.93
420.521	1328.62
420.729	1269.23
420.937	1388.01
421.145	1420.78
421.353	1328.62
421.561	1447.4
421.769	1564.14
421.977	1535.46
422.185	1627.62
422.393	1727.97
422.601	1805.8
422.809	1750.5
423.017	1805.8
423.224	1828.32
423.432	1963.49
423.64	1971.68
423.848	2127.33
424.056	2074.08
424.263	2231.77
424.471	2313.69
424.679	2211.29
424.887	2426.33
425.094	2446.81
425.302	2518.49
425.51	2598.36
425.718	2633.18
425.925	2719.19
426.133	2745.81
426.341	2999.76
426.548	3114.45
426.756	3196.37
426.964	3188.18
427.171	3227.09
427.379	3372.49
427.586	3481.03
427.794	3636.68
428.001	3651.02
428.209	3927.49
428.417	3872.2
428.624	4027.84
428.832	4130.24
429.039	4124.1
429.247	4019.65
429.454	4568.51
429.662	4709.82
429.869	4433.34
430.076	4865.46
430.284	4666.81
430.491	4926.9
430.699	5047.73
430.906	5156.27
431.114	5082.55
431.321	5359.02
431.528	5420.46
431.736	6018.47
431.943	6102.43
432.15	5828.01
432.358	5993.89
432.565	6393.25
432.772	6256.03
432.979	6626.71
433.187	6643.1
433.394	6704.54
433.601	7249.3
433.808	7194
434.016	7030.16
434.223	7411.09
434.43	8174.98
434.637	7767.43
434.844	8232.32
435.052	8328.58
435.259	8383.87
435.466	8560
435.673	8267.14
435.88	8938.87
436.087	9424.24
436.294	9436.53
436.501	9250.16
436.708	9414
436.915	9674.09
437.122	10153.32
437.329	10212.71
437.537	10497.38
437.743	10433.89
437.95	10655.07
438.157	11130.2
438.364	11402.58
438.571	11507.02
438.778	11543.89
438.985	12559.68
439.192	12129.61
439.399	12635.46
439.606	12272.96
439.813	12907.84
440.02	13507.89
440.227	13634.86
440.433	13462.83
440.64	13991.21
440.847	13714.73
441.054	14193.96
441.261	14966.04
441.467	14976.28
441.674	15123.74
441.881	15752.46
442.088	15631.63
442.294	15582.48
442.501	16080.14
442.708	16073.99
442.914	16751.87
443.121	17784.05
443.328	17308.92
443.534	18552.04
443.741	17929.45
443.948	17560.82
444.154	18715.87
444.361	18642.15
444.568	18760.93
444.774	18992.35
444.981	19277.02
445.187	19791.06
445.394	20589.77
445.6	20178.12
445.807	22199.47
446.013	21421.24
446.22	21806.26
446.426	22527.14
446.633	22910.11
446.839	23489.69
447.046	22387.88
447.252	23809.17
447.459	23798.93
447.665	23614.62
447.871	24433.8
448.078	25900.15
448.284	24775.81
448.491	25506.94
448.697	26371.18
448.903	26850.41
449.11	27108.45
449.316	26668.14
449.522	27038.82
449.728	27753.56
449.935	27853.91
450.141	28083.28
450.347	28546.12
450.553	27616.35
450.76	28116.05
450.966	28838.98
451.172	28752.97
451.378	29656.12
451.584	29045.83
451.791	29766.71
451.997	29729.85
452.203	30020.66
452.409	29987.89
452.615	29901.88
452.821	28879.94
453.027	28673.1
453.233	29975.61
453.44	28941.38
453.646	29334.59
453.852	29355.07
454.058	29715.51
454.264	28773.45
454.47	29512.77
454.676	28615.76
454.882	29447.23
455.088	27135.07
455.294	27911.25
455.5	28066.9
455.705	28185.68
455.911	27284.58
456.117	26618.99
456.323	26266.74
456.529	25035.91
456.735	25990.26
456.941	25570.43
457.147	24747.14
457.352	24249.49
457.558	24056.98
457.764	23841.94
457.97	23475.35
458.176	23055.52
458.381	23264.41
458.587	21949.62
458.793	21793.97
458.999	20999.36
459.204	22310.06
459.41	21826.74
459.616	20409.54
459.821	20454.6
460.027	20475.08
460.233	19758.29
460.438	18828.51
460.644	19090.65
460.85	17894.64
461.055	17843.44
461.261	17743.09
461.466	16336.13
461.672	15957.26
461.878	17036.54
462.083	16094.47
462.289	15758.61
462.494	15693.07
462.7	15009.05
462.905	14624.03
463.111	14910.75
463.316	15148.31
463.522	14935.32
463.727	14820.64
463.932	14851.36
464.138	14691.62
464.343	14454.05
464.549	14337.32
464.754	14677.28
464.959	14576.93
465.165	14327.08
465.37	13804.85
465.575	13391.16
465.781	14050.6
465.986	14150.95
466.191	13544.75
466.397	13389.11
466.602	12555.58
466.807	13118.78
467.012	13083.96
467.218	13016.38
467.423	12793.15
467.628	12920.12
467.833	13647.15
468.038	12952.89
468.244	12592.45
468.449	13489.46
468.654	12694.85
468.859	12651.84
469.064	12873.02
469.269	12182.85
469.474	12404.03
469.679	12424.51
469.885	12215.62
470.09	12229.96
470.295	12336.45
470.5	12023.11
470.705	11902.28
470.91	11742.54
471.115	11627.85
471.32	11662.67
471.525	11611.47
471.73	11447.63
471.935	11326.8
472.139	10992.98
472.344	11152.73
472.549	11093.33
472.754	11009.37
472.959	10595.68
473.164	10382.69
473.369	10356.07
473.574	10863.96
473.778	10521.95
473.983	10323.3
474.188	10591.58
474.393	10098.02
474.598	9905.51
474.802	10032.49
475.007	9975.14
475.212	9872.75
475.417	9624.94
475.621	9516.4
475.826	9774.44
476.031	9426.29
476.235	9338.23
476.44	9434.48
476.645	8988.02
476.849	9313.65
477.054	8975.74
477.259	9125.24
477.463	8947.06
477.668	8646.01
477.872	8732.03
478.077	8506.75
478.282	8455.55
478.486	8400.26
478.691	8349.06
478.895	8228.23
479.1	8242.56
479.304	8428.93
479.509	8166.79
479.713	8213.89
479.918	7978.37
480.122	7855.5
480.326	8013.19
480.531	8070.53
480.735	8097.16
480.94	7886.22
481.144	8222.08
481.348	7654.8
481.553	7818.63
481.757	7613.84
481.961	7789.96
482.166	7943.56
482.37	7959.94
482.574	7695.75
482.778	7759.24
482.983	7869.83
483.187	7806.34
483.391	7615.88
483.595	7814.54
483.8	7515.53
484.004	7587.21
484.208	7755.15
484.412	7779.72
484.616	7757.19
484.821	7511.44
485.025	7894.41
485.229	7683.47
485.433	7622.03
485.637	7609.74
485.841	7826.82
486.045	7736.71
486.249	7769.48
486.453	7611.79
486.657	7773.58
486.861	7671.18
487.065	7701.9
487.269	7832.97
487.473	7679.37
487.677	7908.74
487.881	7681.42
488.085	7507.34
488.289	7839.11
488.493	7613.84
488.697	7626.12
488.901	7789.96
489.105	7845.26
489.309	7808.39
489.512	7802.25
489.716	8011.14
489.92	7849.35
490.124	7724.43
490.328	7978.37
490.531	7830.92
490.735	8037.77
490.939	8000.9
491.143	7863.69
491.346	8027.53
491.55	8064.39
491.754	7912.84
491.958	8086.92
492.161	8195.46
492.365	8273.28
492.569	8101.25
492.772	8390.02
492.976	8496.51
493.18	8383.87
493.383	8433.02
493.587	8535.42
493.79	8736.12
493.994	8521.09
494.197	8648.06
494.401	8596.86
494.605	8576.38
494.808	8885.62
495.012	8813.95
495.215	8840.57
495.419	9045.37
495.622	8836.47
495.825	9016.69
496.029	9117.04
496.232	9270.64
496.436	9381.23
496.639	9702.76
496.843	9483.63
497.046	9700.72
497.249	9815.4
497.453	9667.95
497.656	9903.46
497.859	9954.66
498.063	9960.81
498.266	10403.17
498.469	10358.11
498.673	10423.65
498.876	10595.68
499.079	10599.77
499.282	10823
499.485	10988.89
499.689	10915.16
499.892	11177.3
500.095	11113.81
500.298	11498.83
500.501	11484.5
500.705	11486.54
500.908	11758.92
501.111	11830.6
501.314	12078.41
501.517	12201.29
501.72	12481.86
501.923	12145.99
502.126	12555.58
502.329	12762.43
502.532	13169.98
502.735	12903.74
502.938	13182.26
503.141	13266.23
503.344	13358.39
503.547	13626.67
503.75	13724.97
503.953	13931.82
504.156	14056.75
504.359	14257.45
504.562	14322.98
504.765	14763.29
504.968	14855.45
505.17	15050.01
505.373	14972.19
505.576	15453.46
505.779	15564.05
505.982	15523.09
506.185	15963.4
506.387	15873.29
506.59	16102.67
506.793	16614.66
506.996	16418.05
507.198	16798.98
507.401	16936.19
507.604	17206.52
507.807	17411.32
508.009	17548.53
508.212	17804.53
508.415	17773.81
508.617	18078.96
508.82	18201.83
509.022	18013.42
509.225	18607.33
509.428	18738.4
509.63	19135.71
509.833	19344.6
510.035	19612.88
510.238	19541.21
510.44	19823.83
510.643	20069.58
510.845	20239.56
511.048	20350.15
511.25	20651.2
511.453	20827.33
511.655	21279.93
511.858	21419.19
512.06	21494.97
512.262	21804.21
512.465	21992.62
512.667	22099.12
512.87	22647.97
513.072	22400.17
513.274	22844.58
513.477	23252.13
513.679	23645.34
513.881	23690.39
514.084	24079.5
514.286	23936.15
514.488	24155.28
514.69	25087.11
514.893	25021.57
515.095	24861.83
515.297	25500.79
515.499	25543.8
515.701	26027.12
515.904	26096.75
516.106	26348.65
516.308	26578.03
516.51	27149.41
516.712	27030.63
516.914	27509.85
517.116	28011.6
517.318	27642.97
517.52	28087.38
517.722	28263.5
517.925	28834.89
518.127	29002.82
518.329	29191.23
518.531	29168.71
518.733	29944.89
518.935	30329.91
519.136	30131.25
519.338	30659.63
519.54	30913.58
519.742	30905.38
519.944	31212.58
520.146	32080.92
520.348	31880.22
520.55	31837.21
520.752	32052.25
520.954	32748.56
521.155	32963.59
521.357	33362.95
521.559	33573.89
521.761	34067.45
521.963	34149.37
522.164	34102.26
522.366	34634.74
522.568	34673.65
522.77	34671.6
522.971	35640.29
523.173	35290.09
523.375	35761.12
523.576	35894.24
523.778	35939.29
523.98	36322.26
524.181	36324.31
524.383	36922.32
524.584	37098.44
524.786	37061.58
524.988	37469.12
525.189	37637.06
525.391	37960.64
525.592	38054.84
525.794	38534.07
525.995	38804.4
526.197	38579.12
526.398	38523.83
526.6	38964.14
526.801	39111.6
527.003	39521.19
527.204	39426.98
527.406	40117.15
527.607	40135.58
527.808	40250.27
528.01	39404.45
528.211	39961.5
528.412	40872.85
528.614	40764.31
528.815	40772.5
529.016	41397.13
529.218	40852.37
529.419	41008.01
529.62	41110.41
529.822	41286.54
530.023	41024.4
530.224	41620.36
530.425	41366.41
530.626	41352.07
530.828	41196.43
531.029	42226.56
531.23	41735.04
531.431	41485.19
531.632	41612.17
531.833	42451.83
532.035	42091.39
532.236	41943.94
532.437	42234.75
532.638	42476.41
532.839	42476.41
533.04	42699.64
533.241	42361.72
533.442	43072.37
533.643	42761.08
533.844	42728.31
534.045	43232.11
534.246	42589.05
534.447	42842.99
534.648	42896.24
534.849	43297.64
535.05	42431.35
535.251	42978.16
535.451	42726.26
535.652	43320.17
535.853	43215.72
536.054	43174.77
536.255	43293.55
536.456	42521.46
536.657	43594.6
536.857	42734.45
537.058	43305.84
537.259	43082.61
537.46	43242.35
537.66	42953.58
537.861	43170.67
538.062	42748.79
538.263	43490.15
538.463	43428.71
538.664	43279.21
538.865	43479.91
539.065	43889.51
539.266	43314.03
539.466	43922.27
539.667	43328.36
539.868	43952.99
540.068	43723.62
540.269	43449.19
540.469	43699.05
540.67	43391.85
540.87	43461.48
541.071	43336.55
541.271	43758.44
541.472	43619.17
541.672	43412.33
541.873	43273.07
542.073	43115.37
542.274	43821.92
542.474	43625.32
542.675	42840.95
542.875	44006.24
543.075	43455.34
543.276	43201.39
543.476	44057.44
543.676	43381.61
543.877	43666.28
544.077	43643.75
544.277	43359.08
544.478	43340.65
544.678	43731.81
544.878	43783.01
545.078	43225.96
545.279	43408.23
545.479	43152.24
545.679	43651.94
545.879	43823.97
546.079	43381.61
546.28	43627.37
546.48	43348.84
546.68	43367.27
546.88	43641.7
547.08	43422.57
547.28	43498.34
547.48	42824.56
547.68	44041.06
547.88	43070.32
548.081	43817.83
548.281	43582.31
548.481	43752.29
548.681	43713.38
548.881	43287.4
549.081	43500.39
549.28	43268.97
549.48	43543.4
549.68	43656.04
549.88	44141.41
550.08	43146.09
550.28	43860.83
550.48	43195.24
550.68	43725.67
550.88	43563.88
551.08	43152.24
551.279	43496.3
551.479	43428.71
551.679	43549.54
551.879	43443.05
552.079	43477.86
552.278	43598.69
552.478	43412.33
552.678	43051.89
552.878	43522.92
553.077	42996.59
553.277	43215.72
553.477	43793.25
553.676	43354.99
553.876	43273.07
554.076	43373.42
554.275	42871.67
554.475	42617.72
554.674	43283.31
554.874	43350.89
555.074	43182.96
555.273	43424.62
555.473	43268.97
555.672	42908.53
555.872	43113.33
556.071	42822.51
556.271	43258.73
556.47	42691.44
556.67	42599.29
556.869	42603.38
557.068	42814.32
557.268	42314.62
557.467	42834.8
557.667	42740.6
557.866	42732.4
558.065	42564.47
558.265	42470.26
558.464	42091.39
558.663	42779.51
558.863	41737.09
559.062	42554.23
559.261	42040.19
559.461	42681.2
559.66	42099.58
559.859	42181.5
560.058	42003.33
560.258	42240.89
560.457	41448.33
560.656	42015.61
560.855	42062.72
561.054	42017.66
561.253	41403.27
561.453	41804.67
561.652	41520.01
561.851	41763.71
562.05	41485.19
562.249	41477
562.448	41542.53
562.647	41216.91
562.846	41360.26
563.045	41577.35
563.244	41184.14
563.443	41503.62
563.642	40498.07
563.841	41274.25
564.04	40657.81
564.239	41141.13
564.438	40655.76
564.637	40999.82
564.836	40586.13
565.035	40186.78
565.234	41083.79
565.432	40483.73
565.631	40104.86
565.83	40608.66
566.029	40354.71
566.228	40235.93
566.427	40364.95
566.625	39803.81
566.824	39451.56
567.023	39965.6
567.222	39412.65
567.42	39877.54
567.619	39648.16
567.818	39353.26
568.016	39599.01
568.215	40086.43
568.414	39793.57
568.612	39586.72
568.811	39197.61
569.01	39195.56
569.208	38562.74
569.407	39031.72
569.605	38710.19
569.804	39220.14
570.002	38472.63
570.201	38513.59
570.4	38435.77
570.598	38476.72
570.797	38185.91
570.995	38140.86
571.193	37923.77
571.392	38302.65
571.59	37800.9
571.789	37551.04
571.987	37393.35
572.186	38171.58
572.384	37460.93
572.582	37651.39
572.781	37741.5
572.979	36715.47
573.177	37106.63
573.376	37454.79
573.574	36830.16
573.772	36793.29
573.971	36477.91
574.169	36422.61
574.367	36400.08
574.565	36705.23
574.763	36383.7
574.962	36594.64
575.16	35668.96
575.358	36150.23
575.556	35537.89
575.754	36377.56
575.952	35671.01
576.151	36215.77
576.349	35677.15
576.547	35582.95
576.745	36051.93
576.943	35367.91
577.141	35406.82
577.339	35541.99
577.537	35056.62
577.735	35273.7
577.933	34571.25
578.131	35220.45
578.329	34831.34
578.527	34452.47
578.725	34401.27
578.923	34704.37
579.121	34331.64
579.319	34505.71
579.516	34485.23
579.714	34305.01
579.912	34030.58
580.11	34114.55
580.308	33799.16
580.506	33956.86
580.704	33377.28
580.901	33682.43
581.099	33885.18
581.297	33475.59
581.495	33295.36
581.692	33637.37
581.89	33074.18
582.088	33512.45
582.285	32943.11
582.483	33307.65
582.681	33000.46
582.878	32846.86
583.076	32730.12
583.274	32971.78
583.471	32513.04
583.669	32459.79
583.866	32379.92
584.064	32693.26
584.262	31761.44
584.459	32029.72
584.657	32199.7
584.854	32080.92
585.052	31437.86
585.249	31632.41
585.447	31384.61
585.644	31497.25
585.841	31415.33
586.039	31560.73
586.236	31220.77
586.434	31106.09
586.631	31106.09
586.828	30944.3
587.026	31099.94
587.223	30936.1
587.42	30802.99
587.618	30872.62
587.815	30360.62
588.012	30233.65
588.21	30262.32
588.407	30768.17
588.604	30278.71
588.801	30059.57
588.999	30338.1
589.196	29801.53
589.393	30012.47
589.59	30067.77
589.787	29617.21
589.984	29291.59
590.182	29426.75
590.379	29242.43
590.576	29332.54
590.773	29488.19
590.97	28961.86
591.167	29199.43
591.364	28808.26
591.561	29137.99
591.758	29021.25
591.955	28720.2
592.152	28922.95
592.349	28636.24
592.546	28400.72
592.743	28867.66
592.94	28355.66
593.137	28716.11
593.334	28724.3
593.531	27831.38
593.727	27778.14
593.924	27710.55
594.121	27952.21
594.318	28034.13
594.515	27290.72
594.712	27855.96
594.908	27280.48
595.105	27638.87
595.302	27268.19
595.499	27456.61
595.696	27393.12
595.892	27270.24
596.089	27212.9
596.286	27106.4
596.482	27071.59
596.679	27079.78
596.876	26674.28
597.072	26733.67
597.269	26510.44
597.466	26430.57
597.662	26186.86
597.859	26420.33
598.055	26324.08
598.252	26301.55
598.448	26117.23
598.645	25957.49
598.841	25951.35
599.038	26188.91
599.234	25881.72
599.431	25666.68
599.627	25619.58
599.824	26131.57
600.02	25799.8
600.217	25574.52
600.413	25271.42
600.609	24917.12
600.806	25101.44
601.002	25367.68
601.198	25062.53
601.395	24718.47
601.591	25029.76
601.787	24706.18
601.984	24663.18
602.18	25308.29
602.376	24540.3
602.572	24603.78
602.769	24747.14
602.965	24157.33
603.161	24351.88
603.357	24667.27
603.553	24405.13
603.75	24183.95
603.946	24020.11
604.142	24331.4
604.338	23563.42
604.534	23895.19
604.73	23516.31
604.926	23817.36
605.122	23837.84
605.318	23782.55
605.514	23368.86
605.71	23399.58
605.906	23250.08
606.102	23229.6
606.298	23252.13
606.494	22926.5
606.69	22992.03
606.886	23086.24
607.082	22561.96
607.278	23030.94
607.474	22361.26
607.67	22750.37
607.866	22523.05
608.062	22676.65
608.257	22529.19
608.453	22670.5
608.649	22799.52
608.845	22426.79
609.041	22445.23
609.236	22500.52
609.432	22291.63
609.628	22443.18
609.824	22043.82
610.019	21853.36
610.215	22146.22
610.411	22287.53
610.606	22103.21
610.802	21861.55
610.998	22017.2
611.193	21888.18
611.389	21601.46
611.584	21861.55
611.78	21476.54
611.976	21716.15
612.171	21546.17
612.367	21746.87
612.562	21322.94
612.758	21263.55
612.953	21185.72
613.149	21687.48
613.344	20812.99
613.539	21662.9
613.735	21253.31
613.93	21441.72
614.126	21040.32
614.321	21222.59
614.517	21359.8
614.712	20972.74
614.907	20851.91
615.103	20985.02
615.298	20724.93
615.493	21028.03
615.688	20894.91
615.884	20999.36
616.079	20296.91
616.274	20821.19
616.47	20419.78
616.665	20608.2
616.86	20448.46
617.055	20483.27
617.25	20534.47
617.445	20321.48
617.641	20030.67
617.836	20346.06
618.031	20239.56
618.226	20159.69
618.421	20124.88
618.616	20233.42
618.811	19492.05
619.006	19971.28
619.201	19444.95
619.396	19889.36
619.591	19293.4
619.786	19440.86
619.981	19270.87
620.176	19444.95
620.371	19182.81
620.566	19324.12
620.761	18951.39
620.956	19244.25
621.151	18930.91
621.346	18943.2
621.541	18679.01
621.735	18627.81
621.93	18404.58
622.125	18715.87
622.32	18150.64
622.515	18334.95
622.709	18298.09
622.904	18064.62
623.099	18083.05
623.294	18027.76
623.488	17738.99
623.683	17822.96
623.878	17640.69
624.072	17669.36
624.267	17511.67
624.462	17470.71
624.656	17294.58
624.851	17120.51
625.046	17100.03
625.24	17032.44
625.435	16903.42
625.629	16772.35
625.824	16676.1
626.018	16653.57
626.213	16325.89
626.407	16581.89
626.602	16047.37
626.796	16418.05
626.991	16401.67
627.185	16139.53
627.38	15996.17
627.574	15848.72
627.768	15947.02
627.963	15596.82
628.157	15535.38
628.352	15672.59
628.546	15281.43
628.74	15711.5
628.935	15271.19
629.129	15627.54
629.323	14945.56
629.517	15183.13
629.712	14923.04
629.906	14986.52
630.1	14773.53
630.294	14744.86
630.489	14810.4
630.683	14591.27
630.877	14331.17
631.071	14284.07
631.265	14507.3
631.459	14155.05
631.653	14316.84
631.848	14128.42
632.042	14150.95
632.236	14064.94
632.43	13882.67
632.624	13944.11
632.818	13962.54
633.012	13569.33
633.206	13561.14
633.4	13632.82
633.594	13356.34
633.788	13509.94
633.982	13520.18
634.176	13378.87
634.369	13266.23
634.563	13012.28
634.757	13186.36
634.951	13243.7
635.145	12789.05
635.339	13022.52
635.533	12713.28
635.726	12678.46
635.92	12582.21
636.114	12643.65
636.308	12557.63
636.501	12504.39
636.695	12455.23
636.889	12289.35
637.083	12346.69
637.276	12193.09
637.47	12027.21
637.664	12139.85
637.857	11947.34
638.051	11928.91
638.244	11875.66
638.438	11717.97
638.632	11736.4
638.825	11717.97
639.019	11451.73
639.212	11416.91
639.406	11601.23
639.599	11408.72
639.793	11482.45
639.986	11191.64
640.18	11265.36
640.373	11173.21
640.567	10890.59
640.76	10939.74
640.954	10751.32
641.147	10884.44
641.34	10771.8
641.534	10628.45
641.727	10927.45
641.92	10657.12
642.114	10472.8
642.307	10569.05
642.5	10382.69
642.694	10028.39
642.887	10159.46
643.08	10288.48
643.273	10198.37
643.467	9999.72
643.66	9809.26
643.853	9997.67
644.046	9835.88
644.239	9782.63
644.432	9772.39
644.626	9637.23
644.819	9616.75
645.012	9518.45
645.205	9389.42
645.398	9315.7
645.591	9373.04
645.784	9403.76
645.977	9055.61
646.17	9438.58
646.363	9137.52
646.556	9002.36
646.749	8867.19
646.942	9098.61
647.135	8949.11
647.328	8945.02
647.521	8899.96
647.714	8705.4
647.907	8711.55
648.099	8678.78
648.292	8629.63
648.485	8674.68
648.678	8525.18
648.871	8658.3
649.064	8363.39
649.256	8441.22
649.449	8306.05
649.642	8410.5
649.835	8357.25
650.027	8189.32
650.22	8109.44
650.413	8174.98
650.605	8019.33
650.798	7910.79
650.991	7959.94
651.183	7884.17
651.376	7906.7
651.568	7888.26
651.761	7806.34
651.954	7824.78
652.146	7656.84
652.339	7695.75
652.531	7644.56
652.724	7697.8
652.916	7456.14
653.109	7470.48
653.301	7599.5
653.494	7513.49
653.686	7263.63
653.879	7376.27
654.071	7374.22
654.263	7191.95
654.456	7333.26
654.648	7280.02
654.84	7116.18
655.033	7183.76
655.225	7081.36
655.417	6970.77
655.61	7050.64
655.802	6991.25
655.994	6882.71
656.186	6829.46
656.379	6813.08
656.571	6843.8
656.763	6702.49
656.955	6692.25
657.148	6720.92
657.34	6657.43
657.532	6596
657.724	6614.43
657.916	6563.23
658.108	6679.96
658.3	6464.93
658.492	6501.79
658.684	6272.42
658.876	6333.86
659.068	6311.33
659.26	6129.06
659.452	6157.73
659.644	6288.8
659.836	6149.54
660.028	6071.72
660.22	5957.03
660.412	6010.28
660.604	5995.94
660.796	6145.44
660.988	5995.94
661.18	5997.99
661.372	5858.73
661.563	5971.36
661.755	5762.47
661.947	5899.69
662.139	5768.62
662.331	5817.77
662.522	5635.5
662.714	5774.76
662.906	5621.16
663.097	5709.22
663.289	5559.72
663.481	5524.91
663.673	5639.59
663.864	5479.85
664.056	5322.16
664.247	5399.98
664.439	5385.65
664.631	5354.93
664.822	5238.19
665.014	5356.97
665.205	5344.69
665.397	5109.17
665.588	5100.98
665.78	5248.43
665.971	5195.18
666.163	5100.98
666.354	5129.65
666.546	5082.55
666.737	4990.39
666.929	5037.49
667.12	4898.23
667.311	4992.44
667.503	4871.61
667.694	5002.68
667.885	4812.21
668.077	4885.94
668.268	4797.88
668.459	4949.43
668.651	4750.78
668.842	4738.49
669.033	4597.18
669.224	4707.77
669.416	4740.54
669.607	4568.51
669.798	4584.89
669.989	4777.4
670.18	4586.94
670.371	4648.38
670.563	4498.88
670.754	4599.23
670.945	4367.81
671.136	4545.98
671.327	4609.47
671.518	4453.82
671.709	4591.03
671.9	4564.41
672.091	4462.01
672.282	4486.59
672.473	4359.61
672.664	4568.51
672.855	4414.91
673.046	4367.81
673.237	4410.81
673.428	4277.69
673.619	4326.85
673.809	4289.98
674	4294.08
674.191	4371.9
674.382	4197.82
674.573	4298.17
674.764	4283.84
674.954	4496.83
675.145	4269.5
675.336	4140.48
675.527	4197.82
675.717	4251.07
675.908	4224.45
676.099	4261.31
676.289	4072.9
676.48	4064.71
676.671	4120
676.861	4138.43
677.052	4197.82
677.243	4064.71
677.433	4130.24
677.624	4062.66
677.814	4050.37
678.005	4113.86
678.195	4216.26
678.386	4095.43
678.576	4021.7
678.767	4158.91
678.957	4044.23
679.148	4085.19
679.338	4120
679.529	4175.3
679.719	4011.46
679.909	4058.56
680.1	4031.94
680.29	4107.71
680.481	4089.28
680.671	4072.9
680.861	4019.65
681.052	4113.86
681.242	3929.54
681.432	4134.34
681.622	4085.19
681.813	3941.83
682.003	3964.36
682.193	4064.71
682.383	3884.48
682.573	4054.47
682.764	3995.08
682.954	4025.79
683.144	4031.94
683.334	4015.55
683.524	4130.24
683.714	3954.12
683.904	4015.55
684.094	3974.6
684.284	3980.74
684.474	4095.43
684.664	3958.21
684.854	4011.46
685.044	3917.25
685.234	3941.83
685.424	3849.67
685.614	4076.99
685.804	3861.96
685.994	4007.36
686.184	3974.6
686.374	3751.37
686.564	3833.29
686.753	4013.51
686.943	3984.84
687.133	3974.6
687.323	3841.48
687.513	3915.2
687.702	3931.59
687.892	3810.76
688.082	3708.36
688.272	3818.95
688.461	3706.31
688.651	3730.89
688.841	3851.72
689.03	3780.04
689.22	3683.78
689.41	3769.8
689.599	3710.41
689.789	3921.35
689.979	3663.3
690.168	3816.9
690.358	3702.22
690.547	3714.5
690.737	3634.63
690.926	3638.73
691.116	3663.3
691.305	3728.84
691.495	3620.3
691.684	3579.34
691.874	3634.63
692.063	3583.43
692.252	3642.82
692.442	3544.52
692.631	3706.31
692.82	3683.78
693.01	3585.48
693.199	3608.01
693.388	3585.48
693.578	3462.6
693.767	3538.38
693.956	3409.36
694.146	3569.1
694.335	3626.44
694.524	3472.84
694.713	3524.04
694.902	3493.32
695.092	3395.02
695.281	3476.94
695.47	3483.08
695.659	3503.56
695.848	3638.73
696.037	3487.18
696.226	3562.95
696.415	3583.43
696.604	3546.57
696.793	3401.16
696.982	3452.36
697.171	3499.47
697.36	3456.46
697.549	3544.52
697.738	3474.89
697.927	3405.26
698.116	3489.23
698.305	3433.93
698.494	3421.64
698.683	3370.44
698.872	3306.96
699.061	3341.77
699.25	3362.25
699.438	3413.45
699.627	3413.45
699.816	3474.89
700.005	3450.32
700.193	3288.53
700.382	3384.78
700.571	3368.4
700.76	3388.88
700.948	3421.64
701.137	3272.14
701.326	3491.27
701.514	3335.63
701.703	3364.3
701.892	3306.96
702.08	3419.6
702.269	3474.89
702.457	3397.07
702.646	3474.89
702.834	3315.15
703.023	3284.43
703.212	3470.8
703.4	3347.92
703.589	3427.79
703.777	3374.54
703.965	3329.49
704.154	3222.99
704.342	3429.84
704.531	3282.38
704.719	3286.48
704.907	3392.97
705.096	3360.2
705.284	3321.29
705.472	3288.53
705.661	3339.73
705.849	3329.49
706.037	3190.22
706.226	3380.68
706.414	3421.64
706.602	3198.42
706.79	3360.2
706.979	3208.66
707.167	3403.21
707.355	3124.69
707.543	3208.66
707.731	3323.34
707.919	3306.96
708.107	3179.98
708.296	3302.86
708.484	3085.78
708.672	3247.57
708.86	3241.42
709.048	3284.43
709.236	3157.46
709.424	3245.52
709.612	3227.09
709.8	3237.33
709.988	3192.27
710.176	3200.46
710.364	3198.42
710.551	3259.85
710.739	3126.74
710.927	3302.86
711.115	3153.36
711.303	3282.38
711.491	3341.77
711.679	3347.92
711.866	3206.61
712.054	3083.73
712.242	3210.7
712.43	3268.05
712.617	3210.7
712.805	3141.07
712.993	3253.71
713.181	3177.94
713.368	3118.54
713.556	3294.67
713.744	3198.42
713.931	3206.61
714.119	3114.45
714.306	3139.02
714.494	3069.39
714.682	3034.58
714.869	3159.5
715.057	3079.63
715.244	2989.52
715.432	3309.01
715.619	3247.57
715.807	3104.21
715.994	3151.31
716.182	3098.06
716.369	3147.22
716.556	3182.03
716.744	3143.12
716.931	3081.68
717.119	3182.03
717.306	3274.19
717.493	3139.02
717.681	3055.06
717.868	3145.17
718.055	3220.94
718.242	3149.26
718.43	3085.78
718.617	3184.08
718.804	3186.13
718.991	3042.77
719.179	3192.27
719.366	3014.1
719.553	3010
719.74	3024.34
719.927	3188.18
720.114	3073.49
720.301	3061.2
720.488	3100.11
720.676	3106.26
720.863	3243.47
721.05	3055.06
721.237	3085.78
721.424	2973.14
721.611	3171.79
721.798	3122.64
721.985	3075.54
722.172	3003.86
722.358	3116.5
722.545	3042.77
722.732	3188.18
722.919	3010
723.106	2973.14
723.293	2987.47
723.48	3063.25
723.667	3093.97
723.853	2987.47
724.04	3071.44
724.227	3020.24
724.414	3098.06
724.6	3001.81
724.787	3134.93
724.974	2915.8
725.161	2932.18
725.347	2880.98
725.534	3005.91
725.72	3007.95
725.907	2930.13
726.094	3048.91
726.28	3061.2
726.467	2999.76
726.653	2837.97
726.84	3003.86
727.027	2966.99
727.213	2823.64
727.4	2940.37
727.586	2944.47
727.773	2932.18
727.959	2807.25
728.145	2934.23
728.332	2856.4
728.518	2762.2
728.705	2917.84
728.891	2919.89
729.077	2827.73
729.264	2842.07
729.45	2926.04
729.636	2909.65
729.823	2864.6
730.009	2907.6
730.195	2981.33
730.382	2923.99
730.568	2946.52
730.754	2915.8
730.94	2915.8
731.126	2887.12
731.313	2860.5
731.499	2891.22
731.685	2852.31
731.871	2854.36
732.057	3010
732.243	2866.64
732.429	2911.7
732.615	2813.4
732.801	2778.58
732.987	2782.68
733.173	2926.04
733.359	2901.46
733.545	2721.24
733.731	2809.3
733.917	2895.32
734.103	2797.01
734.289	2854.36
734.475	2825.68
734.661	2880.98
734.847	2842.07
735.033	2788.82
735.219	2942.42
735.404	2754.01
735.59	2809.3
735.776	2866.64
735.962	2696.66
736.148	2741.72
736.333	2786.77
736.519	2717.14
736.705	2772.44
736.89	2831.83
737.076	2663.9
737.262	2735.57
737.447	2735.57
737.633	2678.23
737.819	2651.61
738.004	2704.85
738.19	2706.9
738.375	2610.65
738.561	2837.97
738.747	2721.24
738.932	2706.9
739.118	2749.91
739.303	2594.26
739.489	2770.39
739.674	2633.18
739.859	2725.33
740.045	2706.9
740.23	2608.6
740.416	2575.83
740.601	2663.9
740.786	2618.84
740.972	2581.98
741.157	2604.5
741.342	2557.4
741.528	2637.27
741.713	2596.31
741.898	2510.3
742.084	2485.72
742.269	2581.98
742.454	2547.16
742.639	2528.73
742.824	2479.58
743.01	2446.81
743.195	2543.07
743.38	2506.2
743.565	2434.52
743.75	2543.07
743.935	2455
744.12	2391.52
744.305	2330.08
744.49	2416.09
744.675	2477.53
744.86	2368.99
745.045	2358.75
745.23	2442.71
745.415	2371.04
745.6	2395.61
745.785	2289.12
745.97	2274.78
746.155	2248.16
746.34	2278.88
746.525	2293.21
746.71	2254.3
746.895	2225.63
747.079	2264.54
747.264	2244.06
747.449	2250.21
747.634	2201.05
747.819	2166.24
748.003	2133.47
748.188	2084.32
748.373	2051.55
748.557	2035.17
748.742	2096.61
748.927	2084.32
749.111	2037.22
749.296	2053.6
749.481	2074.08
749.665	2186.72
749.85	2037.22
750.034	2016.74
750.219	2151.9
750.404	1983.97
750.588	2057.7
750.773	1897.96
750.957	1918.43
751.141	1885.67
751.326	1916.39
751.51	2010.59
751.695	1891.81
751.879	1818.08
752.064	1922.53
752.248	1848.8
752.432	1871.33
752.617	1836.52
752.801	1908.19
752.985	1807.84
753.17	1832.42
753.354	1777.12
753.538	1836.52
753.722	1750.5
753.907	1766.89
754.091	1709.54
754.275	1828.32
754.459	1605.1
754.643	1709.54
754.828	1773.03
755.012	1705.45
755.196	1617.38
755.38	1609.19
755.564	1641.96
755.748	1633.77
755.932	1664.49
756.116	1613.29
756.3	1623.53
756.484	1588.71
756.668	1590.76
756.852	1576.42
757.036	1613.29
757.22	1531.37
757.404	1527.27
757.588	1555.94
757.772	1418.73
757.956	1463.79
758.14	1439.21
758.323	1287.66
758.507	1439.21
758.691	1424.87
758.875	1467.88
759.059	1422.83
759.242	1451.5
759.426	1400.3
759.61	1394.15
759.794	1377.77
759.977	1404.39
760.161	1357.29
760.345	1365.48
760.528	1412.59
760.712	1271.28
760.895	1363.44
761.079	1263.08
761.263	1279.47
761.446	1295.85
761.63	1279.47
761.813	1340.91
761.997	1244.65
762.18	1258.99
762.364	1170.93
762.547	1295.85
762.731	1222.13
762.914	1224.17
763.098	1263.08
763.281	1291.76
763.464	1242.61
763.648	1269.23
763.831	1156.59
764.015	1252.84
764.198	1211.89
764.381	1170.93
764.564	1306.09
764.748	1142.25
764.931	1265.13
765.114	1152.49
765.297	1207.79
765.481	1123.82
765.664	1172.97
765.847	1048.05
766.03	1211.89
766.213	1189.36
766.397	1091.06
766.58	1054.19
766.763	1117.68
766.946	1127.92
767.129	1101.3
767.312	1232.37
767.495	1134.06
767.678	1099.25
767.861	1115.63
768.044	1103.34
768.227	1070.58
768.41	1048.05
768.593	1191.41
768.776	1099.25
768.959	1011.18
769.142	1000.94
769.324	1121.77
769.507	1078.77
769.69	1103.34
769.873	1095.15
770.056	1062.38
770.239	1107.44
770.421	996.85
770.604	1033.71
770.787	1056.24
770.97	947.7
771.152	1009.14
771.335	1150.45
771.518	957.94
771.7	994.8
771.883	968.18
772.066	1066.48
772.248	923.12
772.431	978.42
772.613	935.41
772.796	931.31
772.978	962.03
773.161	962.03
773.343	931.31
773.526	902.64
773.708	900.59
773.891	910.83
774.073	957.94
774.256	937.46
774.438	904.69
774.621	841.2
774.803	914.93
774.985	863.73
775.168	876.02
775.35	900.59
775.532	947.7
775.715	785.91
775.897	873.97
776.079	749.04
776.261	798.2
776.444	830.96
776.626	824.82
776.808	787.96
776.99	896.5
777.173	818.68
777.355	787.96
777.537	747
777.719	726.52
777.901	683.51
778.083	880.11
778.265	814.58
778.447	781.81
778.629	773.62
778.811	734.71
778.993	701.94
779.175	787.96
779.357	654.84
779.539	747
779.721	697.85
779.903	714.23
780.085	724.47
780.267	648.69
780.449	736.76
780.631	654.84
780.812	706.04
780.994	693.75
781.176	648.69
781.358	665.08
781.54	695.8
781.721	681.46
781.903	599.54
782.085	658.93
782.267	615.93
782.448	540.15
782.63	554.49
782.812	675.32
782.993	677.37
783.175	617.97
783.357	591.35
783.538	546.3
783.72	609.78
783.901	583.16
784.083	572.92
784.264	630.26
784.446	556.54
784.627	591.35
784.809	579.06
784.99	579.06
785.172	609.78
785.353	550.39
785.535	507.38
785.716	511.48
785.897	515.58
786.079	486.9
786.26	499.19
786.441	513.53
786.623	554.49
786.804	503.29
786.985	583.16
787.167	507.38
787.348	556.54
787.529	493.05
787.71	482.81
787.891	566.78
788.073	400.89
788.254	429.56
788.435	484.86
788.616	523.77
788.797	452.09
788.978	462.33
789.159	417.27
789.34	437.75
789.522	460.28
789.703	370.17
789.884	400.89
790.065	419.32
790.246	435.71
790.427	396.79
790.607	415.23
790.788	445.95
790.969	380.41
791.15	445.95
791.331	314.88
791.512	433.66
791.693	441.85
791.874	415.23
792.054	378.36
792.235	431.61
792.416	415.23
792.597	452.09
792.778	337.4
792.958	351.74
793.139	341.5
793.32	482.81
793.5	316.92
793.681	374.27
793.862	349.69
794.042	380.41
794.223	359.93
794.404	357.88
794.584	366.07
794.765	275.96
794.945	294.4
795.126	376.31
795.306	361.98
795.487	241.15
795.667	314.88
795.848	316.92
796.028	404.99
796.209	361.98
796.389	327.16
796.57	343.55
796.75	314.88
796.93	351.74
797.111	380.41
797.291	353.79
797.471	333.31
797.652	370.17
797.832	294.4
798.012	325.12
798.192	278.01
798.373	361.98
798.553	271.87
798.733	333.31
798.913	265.72
799.093	355.83
799.274	335.35
799.454	282.11
799.634	280.06
799.814	310.78
799.994	271.87
800.174	310.78
800.354	245.24
800.534	271.87
800.714	357.88
800.894	275.96
801.074	282.11
801.254	308.73
801.434	300.54
801.614	261.63
801.794	239.1
801.974	701.94
802.154	232.96
802.334	263.68
802.514	249.34
802.693	237.05
802.873	196.09
803.053	292.35
803.233	235
803.413	292.35
803.592	204.28
803.772	183.81
803.952	271.87
804.131	278.01
804.311	192
804.491	302.59
804.67	183.81
804.85	165.37
805.03	198.14
805.209	148.99
805.389	300.54
805.568	153.09
805.748	214.52
805.928	265.72
806.107	216.57
806.287	157.18
806.466	294.4
806.646	163.33
806.825	171.52
807.004	269.82
807.184	185.85
807.363	222.72
807.543	185.85
807.722	239.1
807.901	226.81
808.081	159.23
808.26	108.03
808.439	165.37
808.619	198.14
808.798	173.57
808.977	222.72
809.156	247.29
809.336	128.51
809.515	251.39
809.694	196.09
809.873	181.76
810.052	232.96
810.231	181.76
810.411	220.67
810.59	206.33
810.769	232.96
810.948	245.24
811.127	249.34
811.306	169.47
811.485	148.99
811.664	251.39
811.843	196.09
812.022	116.22
812.201	222.72
812.38	189.95
812.559	181.76
812.737	198.14
812.916	175.61
813.095	140.8
813.274	228.86
813.453	142.85
813.632	194.05
813.811	181.76
813.989	175.61
814.168	204.28
814.347	140.8
814.526	144.89
814.704	263.68
814.883	148.99
815.062	136.7
815.24	108.03
815.419	138.75
815.598	148.99
815.776	126.46
815.955	212.48
816.133	187.9
816.312	140.8
816.49	140.8
816.669	206.33
816.847	95.74
817.026	138.75
817.204	108.03
817.383	159.23
817.561	138.75
817.74	89.6
817.918	91.65
818.097	177.66
818.275	120.32
818.453	112.13
818.632	171.52
818.81	112.13
818.988	124.41
819.167	128.51
819.345	196.09
819.523	108.03
819.701	101.89
819.879	128.51
820.058	130.56
820.236	58.88
820.414	153.09
820.592	140.8
820.77	153.09
820.948	65.02
821.127	81.41
821.305	214.52
821.483	175.61
821.661	200.19
821.839	73.21
822.017	97.79
822.195	85.5
822.373	173.57
822.551	155.13
822.729	159.23
822.907	99.84
823.085	210.43
823.262	134.65
823.44	124.41
823.618	101.89
823.796	167.42
823.974	83.45
824.152	95.74
824.329	87.55
824.507	120.32
824.685	110.08
824.863	153.09
825.04	52.74
825.218	128.51
825.396	48.64
825.574	54.78
825.751	120.32
825.929	93.69
826.107	24.06
826.284	142.85
826.462	95.74
826.639	87.55
826.817	58.88
826.994	87.55
827.172	44.54
827.349	161.28
827.527	93.69
827.704	62.98
827.882	81.41
828.059	79.36
828.237	153.09
828.414	140.8
828.591	155.13
828.769	85.5
828.946	58.88
829.124	132.61
829.301	89.6
829.478	97.79
829.655	44.54
829.833	87.55
830.01	52.74
830.187	40.45
830.364	97.79
830.542	69.12
830.719	97.79
830.896	65.02
831.073	65.02
831.25	62.98
831.427	151.04
831.604	28.16
831.782	134.65
831.959	5.63
832.136	73.21
832.313	136.7
832.49	36.35
832.667	151.04
832.844	22.02
833.021	79.36
833.198	103.93
833.374	128.51
833.551	26.11
833.728	103.93
833.905	38.4
834.082	85.5
834.259	48.64
834.436	44.54
834.612	40.45
834.789	85.5
834.966	40.45
835.143	83.45
835.319	36.35
835.496	81.41
835.673	91.65
835.85	46.59
836.026	81.41
836.203	75.26
836.38	40.45
836.556	89.6
836.733	42.5
836.909	60.93
837.086	69.12
837.262	9.73
837.439	3.58
837.616	122.37
837.792	34.3
837.968	-0.51
838.145	67.07
838.321	9.73
838.498	89.6
838.674	58.88
838.851	67.07
839.027	-12.8
839.203	89.6
839.38	93.69
839.556	103.93
839.732	34.3
839.909	83.45
840.085	77.31
840.261	97.79
840.437	110.08
840.614	71.17
840.79	34.3
840.966	15.87
841.142	93.69
841.318	38.4
841.494	44.54
841.671	73.21
841.847	189.95
842.023	32.26
842.199	85.5
842.375	77.31
842.551	48.64
842.727	30.21
842.903	89.6
843.079	30.21
843.255	32.26
843.431	-14.85
843.607	-18.94
843.783	19.97
843.959	112.13
844.134	-20.99
844.31	44.54
844.486	3.58
844.662	62.98
844.838	-29.18
845.013	71.17
845.189	48.64
845.365	60.93
845.541	83.45
845.716	5.63
845.892	11.78
846.068	42.5
846.244	-0.51
846.419	60.93
846.595	-47.62
846.77	-41.47
846.946	67.07
847.122	22.02
847.297	38.4
847.473	75.26
847.648	-16.9
847.824	54.78
847.999	-31.23
848.175	24.06
848.35	67.07
848.526	60.93
848.701	-8.7
848.876	34.3
849.052	103.93
849.227	30.21
849.403	22.02
849.578	15.87
849.753	44.54
849.929	38.4
850.104	28.16
850.279	9.73
850.454	69.12
850.63	71.17
850.805	26.11
850.98	40.45
851.155	1.54
851.33	81.41
851.505	-27.14
851.681	65.02
851.856	32.26
852.031	65.02
852.206	79.36
852.381	44.54
852.556	50.69
852.731	97.79
852.906	44.54
853.081	42.5
853.256	153.09
853.431	77.31
853.606	13.82
853.781	-8.7
853.956	38.4
854.131	89.6
854.305	11.78
854.48	17.92
854.655	17.92
854.83	126.46
855.005	-12.8
855.18	28.16
855.354	108.03
855.529	9.73
855.704	73.21
855.879	62.98
856.053	28.16
856.228	93.69
856.403	32.26
856.577	38.4
856.752	-66.05
856.926	79.36
857.101	-6.66
857.276	-10.75
857.45	1.54
857.625	101.89
857.799	73.21
857.974	-53.76
858.148	3.58
858.323	62.98
858.497	-59.9
858.672	101.89
858.846	30.21
859.02	130.56
859.195	22.02
859.369	-41.47
859.543	46.59
859.718	56.83
859.892	-113.15
860.066	-0.51
860.241	-6.66
860.415	-57.86
860.589	24.06
860.763	13.82
860.938	-10.75
861.112	3.58
861.286	93.69
861.46	11.78
861.634	15.87
861.808	83.45
861.982	-6.66
862.157	22.02
862.331	-45.57
862.505	28.16
862.679	-25.09
862.853	-0.51
863.027	-10.75
863.201	71.17
863.375	-0.51
863.549	62.98
863.722	58.88
863.896	75.26
864.07	-23.04
864.244	60.93
864.418	-14.85
864.592	69.12
864.766	32.26
864.939	17.92
865.113	-55.81
865.287	-16.9
865.461	130.56
865.634	101.89
865.808	-0.51
865.982	-29.18
866.156	-14.85
866.329	-33.28
866.503	-2.56
866.676	32.26
866.85	17.92
867.024	-12.8
867.197	-31.23
867.371	50.69
867.544	62.98
867.718	-6.66
867.891	15.87
868.065	-47.62
868.238	-16.9
868.412	-10.75
868.585	38.4
868.759	42.5
868.932	54.78
869.105	-59.9
869.279	26.11
869.452	-2.56
869.625	26.11
869.799	-4.61
869.972	-23.04
870.145	-47.62
870.319	-14.85
870.492	36.35
870.665	60.93
870.838	-23.04
871.011	-10.75
871.185	15.87
871.358	-10.75
871.531	62.98
871.704	54.78
871.877	5.63
872.05	-55.81
872.223	-31.23
872.396	71.17
872.569	-55.81
872.742	54.78
872.915	62.98
873.088	34.3
873.261	-23.04
873.434	-2.56
873.607	24.06
873.78	30.21
873.953	-47.62
874.126	93.69
874.299	54.78
874.471	38.4
874.644	-20.99
874.817	-43.52
874.99	91.65
875.163	52.74
875.335	-29.18
875.508	-61.95
875.681	28.16
875.853	52.74
876.026	36.35
876.199	28.16
876.371	19.97
876.544	-49.66
876.717	-0.51
876.889	7.68
877.062	44.54
877.234	-16.9
877.407	-37.38
877.579	-8.7
877.752	-10.75
877.924	62.98
878.097	17.92
878.269	46.59
878.442	9.73
878.614	-33.28
878.786	48.64
878.959	-47.62
879.131	13.82
879.303	-86.53
879.476	-2.56
879.648	28.16
879.82	22.02
879.993	-39.42
880.165	-57.86
880.337	-37.38
880.509	-29.18
880.681	-35.33
880.854	48.64
881.026	-18.94
881.198	5.63
881.37	-14.85
881.542	-4.61
881.714	40.45
881.886	-39.42
882.058	-47.62
882.23	-14.85
882.402	-33.28
882.574	-43.52
882.746	-8.7
882.918	5.63
883.09	-18.94
883.262	-35.33
883.434	-20.99
883.606	7.68
883.778	22.02
883.95	69.12
884.122	-6.66
884.293	-33.28
884.465	-4.61
884.637	-16.9
884.809	-14.85
884.98	-6.66
885.152	-37.38
885.324	-20.99
885.496	-23.04
885.667	5.63
885.839	-16.9
886.011	52.74
886.182	-82.43
886.354	-70.14
886.525	24.06
886.697	-45.57
886.869	-16.9
887.04	30.21
887.212	58.88
887.383	22.02
887.555	-76.29
887.726	-70.14
887.897	24.06
888.069	-37.38
888.24	30.21
888.412	9.73
888.583	1.54
888.754	-6.66
888.926	-47.62
889.097	-2.56
889.268	-53.76
889.44	-102.91
889.611	-20.99
889.782	-29.18
889.953	-0.51
890.125	22.02
890.296	-2.56
890.467	40.45
890.638	-47.62
890.809	11.78
890.98	19.97
891.151	52.74
891.323	99.84
891.494	-10.75
891.665	26.11
891.836	40.45
892.007	1.54
892.178	65.02
892.349	79.36
892.52	-8.7
892.691	-104.96
892.862	28.16
893.032	-16.9
893.203	60.93
893.374	36.35
893.545	44.54
893.716	-64
893.887	-16.9
894.057	28.16
894.228	36.35
894.399	15.87
894.57	-31.23
894.74	60.93
894.911	5.63
895.082	-31.23
895.253	-14.85
895.423	-49.66
895.594	36.35
895.764	-27.14
895.935	17.92
896.106	-55.81
896.276	-2.56
896.447	-12.8
896.617	-8.7
896.788	-27.14
896.958	62.98
897.129	1.54
897.299	-10.75
897.47	1.54
897.64	58.88
897.81	22.02
897.981	44.54
898.151	-47.62
898.322	3.58
898.492	-27.14
898.662	11.78
898.832	-12.8
899.003	-51.71
899.173	-20.99
899.343	-23.04
899.513	-39.42
