Data from USB4F104151__1__11-51-01-415.txt Node

Date: Fri Mar 14 11:51:01 EDT 2025
User: louis
Spectrometer: USB4F10415
Trigger mode: 4
Integration Time (sec): 2.000000E-2
Scans to average: 1
Electric dark correction enabled: true
Nonlinearity correction enabled: false
Boxcar width: 0
XAxis mode: Wavelengths
Number of Pixels in Spectrum: 3648
>>>>>Begin Spectral Data<<<<<
178.204	-41.81
178.424	-41.81
178.644	-41.81
178.864	-111.44
179.084	-80.72
179.304	-0.85
179.524	31.91
179.744	-47.96
179.964	48.3
180.184	-27.48
180.404	15.53
180.624	5.29
180.844	-47.96
181.064	-11.09
181.283	5.29
181.503	15.53
181.723	13.48
181.943	11.43
182.163	54.44
182.383	-19.29
182.602	9.39
182.822	64.68
183.042	38.06
183.262	-21.33
183.482	-23.38
183.701	46.25
183.921	-17.24
184.141	-2.9
184.361	1.19
184.58	66.73
184.8	60.59
185.02	5.29
185.239	19.63
185.459	74.92
185.679	23.72
185.898	-29.52
186.118	76.97
186.338	23.72
186.557	48.3
186.777	-35.67
186.997	52.39
187.216	31.91
187.436	83.11
187.655	-23.38
187.875	36.01
188.095	-60.24
188.314	72.87
188.534	81.07
188.753	-68.44
188.973	5.29
189.192	109.74
189.412	-9.05
189.631	-29.52
189.851	-2.9
190.07	5.29
190.29	40.11
190.509	74.92
190.729	1.19
190.948	-27.48
191.168	99.5
191.387	76.97
191.607	13.48
191.826	29.87
192.045	-25.43
192.265	42.15
192.484	33.96
192.704	-9.05
192.923	-15.19
193.142	38.06
193.362	15.53
193.581	91.31
193.8	109.74
194.02	11.43
194.239	-15.19
194.458	3.24
194.678	-33.62
194.897	-50
195.116	-33.62
195.335	3.24
195.555	19.63
195.774	19.63
195.993	46.25
196.212	-25.43
196.432	-23.38
196.651	9.39
196.87	95.4
197.089	83.11
197.308	7.34
197.528	3.24
197.747	95.4
197.966	23.72
198.185	50.35
198.404	-9.05
198.623	-15.19
198.842	38.06
199.062	38.06
199.281	66.73
199.5	38.06
199.719	-84.82
199.938	-0.85
200.157	17.58
200.376	-27.48
200.595	-0.85
200.814	-33.62
201.033	87.21
201.252	46.25
201.471	23.72
201.69	-13.14
201.909	74.92
202.128	-27.48
202.347	-37.72
202.566	58.54
202.785	44.2
203.004	7.34
203.223	124.07
203.442	-64.34
203.661	-11.09
203.879	21.67
204.098	38.06
204.317	60.59
204.536	58.54
204.755	46.25
204.974	27.82
205.193	-27.48
205.411	46.25
205.63	-37.72
205.849	19.63
206.068	38.06
206.287	-15.19
206.505	27.82
206.724	42.15
206.943	-2.9
207.162	-7
207.381	-7
207.599	27.82
207.818	64.68
208.037	-54.1
208.255	-7
208.474	31.91
208.693	64.68
208.911	33.96
209.13	13.48
209.349	33.96
209.567	60.59
209.786	13.48
210.005	52.39
210.223	50.35
210.442	17.58
210.661	46.25
210.879	40.11
211.098	17.58
211.316	-23.38
211.535	101.55
211.753	17.58
211.972	19.63
212.191	-21.33
212.409	31.91
212.628	3.24
212.846	19.63
213.065	23.72
213.283	25.77
213.502	-0.85
213.72	-68.44
213.938	40.11
214.157	46.25
214.375	-11.09
214.594	-7
214.812	79.02
215.031	-19.29
215.249	-33.62
215.467	-2.9
215.686	-2.9
215.904	33.96
216.122	56.49
216.341	50.35
216.559	-23.38
216.778	19.63
216.996	50.35
217.214	5.29
217.432	-35.67
217.651	-9.05
217.869	13.48
218.087	23.72
218.306	1.19
218.524	11.43
218.742	-25.43
218.96	70.83
219.179	9.39
219.397	-43.86
219.615	76.97
219.833	-13.14
220.051	33.96
220.27	68.78
220.488	50.35
220.706	54.44
220.924	52.39
221.142	74.92
221.36	13.48
221.578	115.88
221.796	-23.38
222.015	25.77
222.233	79.02
222.451	33.96
222.669	-15.19
222.887	64.68
223.105	25.77
223.323	5.29
223.541	64.68
223.759	1.19
223.977	46.25
224.195	42.15
224.413	-4.95
224.631	-19.29
224.849	-11.09
225.067	64.68
225.285	27.82
225.503	-4.95
225.721	31.91
225.939	44.2
226.157	42.15
226.375	68.78
226.592	-13.14
226.81	-25.43
227.028	50.35
227.246	-7
227.464	9.39
227.682	48.3
227.9	48.3
228.117	-15.19
228.335	-2.9
228.553	-15.19
228.771	56.49
228.989	-23.38
229.206	38.06
229.424	29.87
229.642	-11.09
229.86	-19.29
230.077	46.25
230.295	-15.19
230.513	68.78
230.731	83.11
230.948	95.4
231.166	15.53
231.384	11.43
231.601	3.24
231.819	-27.48
232.037	13.48
232.254	5.29
232.472	50.35
232.689	36.01
232.907	29.87
233.125	44.2
233.342	50.35
233.56	-9.05
233.777	42.15
233.995	13.48
234.213	27.82
234.43	3.24
234.648	33.96
234.865	13.48
235.083	5.29
235.3	19.63
235.518	44.2
235.735	76.97
235.953	60.59
236.17	19.63
236.388	66.73
236.605	5.29
236.822	5.29
237.04	74.92
237.257	15.53
237.475	-54.1
237.692	31.91
237.909	-13.14
238.127	62.63
238.344	52.39
238.562	33.96
238.779	97.45
238.996	-2.9
239.214	-35.67
239.431	27.82
239.648	-31.57
239.865	5.29
240.083	81.07
240.3	76.97
240.517	-2.9
240.735	13.48
240.952	25.77
241.169	66.73
241.386	56.49
241.603	23.72
241.821	52.39
242.038	76.97
242.255	-29.52
242.472	-7
242.689	48.3
242.907	5.29
243.124	72.87
243.341	-0.85
243.558	-39.76
243.775	62.63
243.992	-68.44
244.209	17.58
244.426	44.2
244.643	31.91
244.86	7.34
245.078	-4.95
245.295	7.34
245.512	15.53
245.729	40.11
245.946	9.39
246.163	44.2
246.38	72.87
246.597	-21.33
246.814	54.44
247.031	-41.81
247.248	54.44
247.464	21.67
247.681	-31.57
247.898	115.88
248.115	40.11
248.332	-15.19
248.549	-2.9
248.766	23.72
248.983	-52.05
249.2	42.15
249.417	23.72
249.633	36.01
249.85	21.67
250.067	17.58
250.284	-33.62
250.501	1.19
250.717	-78.68
250.934	-39.76
251.151	21.67
251.368	13.48
251.585	48.3
251.801	83.11
252.018	85.16
252.235	-45.91
252.451	-43.86
252.668	19.63
252.885	50.35
253.102	29.87
253.318	-21.33
253.535	9.39
253.752	38.06
253.968	87.21
254.185	23.72
254.401	-43.86
254.618	70.83
254.835	-13.14
255.051	58.54
255.268	42.15
255.484	-7
255.701	101.55
255.917	56.49
256.134	-37.72
256.351	54.44
256.567	15.53
256.784	60.59
257	-84.82
257.217	23.72
257.433	-0.85
257.65	70.83
257.866	9.39
258.082	-7
258.299	46.25
258.515	44.2
258.732	-31.57
258.948	21.67
259.165	9.39
259.381	19.63
259.597	33.96
259.814	11.43
260.03	70.83
260.246	-37.72
260.463	38.06
260.679	89.26
260.895	44.2
261.112	40.11
261.328	1.19
261.544	42.15
261.761	66.73
261.977	7.34
262.193	-27.48
262.409	40.11
262.626	-37.72
262.842	11.43
263.058	-2.9
263.274	-2.9
263.49	-7
263.707	-4.95
263.923	-0.85
264.139	-15.19
264.355	3.24
264.571	48.3
264.787	17.58
265.004	52.39
265.22	-70.48
265.436	42.15
265.652	-33.62
265.868	15.53
266.084	36.01
266.3	42.15
266.516	-113.49
266.732	105.64
266.948	81.07
267.164	44.2
267.38	-17.24
267.596	-13.14
267.812	44.2
268.028	66.73
268.244	-17.24
268.46	40.11
268.676	44.2
268.892	68.78
269.108	31.91
269.324	44.2
269.54	-31.57
269.756	-2.9
269.972	9.39
270.188	-0.85
270.403	-62.29
270.619	9.39
270.835	27.82
271.051	76.97
271.267	-0.85
271.483	-21.33
271.698	50.35
271.914	-54.1
272.13	15.53
272.346	23.72
272.562	5.29
272.777	44.2
272.993	-4.95
273.209	-4.95
273.425	52.39
273.64	-11.09
273.856	7.34
274.072	64.68
274.287	-2.9
274.503	70.83
274.719	19.63
274.934	-27.48
275.15	7.34
275.366	76.97
275.581	79.02
275.797	38.06
276.012	7.34
276.228	-45.91
276.444	25.77
276.659	46.25
276.875	-31.57
277.09	33.96
277.306	97.45
277.521	72.87
277.737	13.48
277.952	70.83
278.168	-13.14
278.383	-9.05
278.599	-15.19
278.814	74.92
279.03	-9.05
279.245	54.44
279.461	-7
279.676	-7
279.892	76.97
280.107	-35.67
280.322	44.2
280.538	19.63
280.753	-13.14
280.969	-2.9
281.184	-2.9
281.399	83.11
281.615	-52.05
281.83	79.02
282.045	83.11
282.26	-4.95
282.476	60.59
282.691	11.43
282.906	33.96
283.122	68.78
283.337	-13.14
283.552	11.43
283.767	52.39
283.983	58.54
284.198	-27.48
284.413	27.82
284.628	70.83
284.843	-19.29
285.058	15.53
285.274	-7
285.489	-54.1
285.704	33.96
285.919	11.43
286.134	9.39
286.349	91.31
286.564	-62.29
286.779	83.11
286.995	56.49
287.21	5.29
287.425	-2.9
287.64	-11.09
287.855	-45.91
288.07	29.87
288.285	48.3
288.5	-21.33
288.715	11.43
288.93	-19.29
289.145	-13.14
289.36	85.16
289.575	-9.05
289.79	9.39
290.004	3.24
290.219	64.68
290.434	25.77
290.649	-11.09
290.864	93.35
291.079	62.63
291.294	58.54
291.509	-9.05
291.724	-13.14
291.938	-27.48
292.153	93.35
292.368	-33.62
292.583	29.87
292.798	87.21
293.012	52.39
293.227	29.87
293.442	21.67
293.657	58.54
293.871	25.77
294.086	-27.48
294.301	83.11
294.516	50.35
294.73	38.06
294.945	13.48
295.16	54.44
295.374	64.68
295.589	56.49
295.804	-29.52
296.018	74.92
296.233	136.36
296.447	21.67
296.662	-13.14
296.877	85.16
297.091	9.39
297.306	-2.9
297.52	-13.14
297.735	31.91
297.949	-13.14
298.164	50.35
298.378	-7
298.593	97.45
298.807	-70.48
299.022	9.39
299.236	85.16
299.451	-29.52
299.665	52.39
299.88	27.82
300.094	79.02
300.309	9.39
300.523	46.25
300.737	93.35
300.952	58.54
301.166	7.34
301.381	52.39
301.595	5.29
301.809	79.02
302.024	19.63
302.238	50.35
302.452	85.16
302.667	13.48
302.881	83.11
303.095	62.63
303.309	40.11
303.524	-33.62
303.738	48.3
303.952	17.58
304.166	9.39
304.381	-7
304.595	119.98
304.809	23.72
305.023	31.91
305.237	17.58
305.452	-15.19
305.666	70.83
305.88	66.73
306.094	25.77
306.308	50.35
306.522	66.73
306.736	38.06
306.95	-11.09
307.164	117.93
307.379	50.35
307.593	107.69
307.807	27.82
308.021	-13.14
308.235	40.11
308.449	-37.72
308.663	13.48
308.877	38.06
309.091	60.59
309.305	89.26
309.519	64.68
309.733	58.54
309.947	-0.85
310.161	52.39
310.374	3.24
310.588	19.63
310.802	33.96
311.016	64.68
311.23	11.43
311.444	48.3
311.658	29.87
311.872	25.77
312.085	70.83
312.299	111.78
312.513	-11.09
312.727	3.24
312.941	-58.2
313.154	42.15
313.368	-9.05
313.582	-17.24
313.796	-31.57
314.009	-7
314.223	21.67
314.437	42.15
314.651	5.29
314.864	-41.81
315.078	-88.92
315.292	66.73
315.505	25.77
315.719	29.87
315.933	7.34
316.146	44.2
316.36	-25.43
316.573	-7
316.787	17.58
317.001	9.39
317.214	33.96
317.428	5.29
317.641	-35.67
317.855	48.3
318.068	33.96
318.282	-19.29
318.495	89.26
318.709	25.77
318.922	72.87
319.136	50.35
319.349	60.59
319.563	68.78
319.776	1.19
319.99	76.97
320.203	93.35
320.417	3.24
320.63	5.29
320.843	46.25
321.057	3.24
321.27	48.3
321.483	44.2
321.697	76.97
321.91	72.87
322.124	31.91
322.337	42.15
322.55	-0.85
322.763	40.11
322.977	5.29
323.19	52.39
323.403	21.67
323.617	3.24
323.83	13.48
324.043	33.96
324.256	48.3
324.469	-33.62
324.683	85.16
324.896	-58.2
325.109	-33.62
325.322	46.25
325.535	19.63
325.748	36.01
325.962	154.79
326.175	7.34
326.388	-0.85
326.601	46.25
326.814	44.2
327.027	25.77
327.24	58.54
327.453	-21.33
327.666	70.83
327.879	68.78
328.092	27.82
328.305	38.06
328.518	42.15
328.731	11.43
328.944	93.35
329.157	-2.9
329.37	-56.15
329.583	74.92
329.796	66.73
330.009	40.11
330.222	85.16
330.435	9.39
330.648	81.07
330.861	-4.95
331.073	56.49
331.286	66.73
331.499	-11.09
331.712	76.97
331.925	15.53
332.138	62.63
332.35	52.39
332.563	68.78
332.776	25.77
332.989	58.54
333.202	-47.96
333.414	-2.9
333.627	7.34
333.84	50.35
334.053	79.02
334.265	81.07
334.478	-7
334.691	60.59
334.903	-0.85
335.116	-39.76
335.329	68.78
335.541	56.49
335.754	19.63
335.966	19.63
336.179	19.63
336.392	50.35
336.604	58.54
336.817	25.77
337.029	17.58
337.242	-19.29
337.454	62.63
337.667	13.48
337.88	99.5
338.092	-41.81
338.305	5.29
338.517	68.78
338.729	60.59
338.942	79.02
339.154	7.34
339.367	25.77
339.579	64.68
339.792	31.91
340.004	50.35
340.217	42.15
340.429	68.78
340.641	56.49
340.854	81.07
341.066	17.58
341.278	58.54
341.491	-21.33
341.703	126.12
341.915	40.11
342.128	38.06
342.34	11.43
342.552	-7
342.764	62.63
342.977	-11.09
343.189	21.67
343.401	38.06
343.613	-9.05
343.826	3.24
344.038	36.01
344.25	87.21
344.462	-15.19
344.674	31.91
344.886	70.83
345.099	50.35
345.311	-15.19
345.523	-7
345.735	-39.76
345.947	50.35
346.159	13.48
346.371	36.01
346.583	56.49
346.795	52.39
347.007	3.24
347.219	89.26
347.431	9.39
347.643	23.72
347.855	48.3
348.067	-7
348.279	25.77
348.491	-0.85
348.703	29.87
348.915	5.29
349.127	31.91
349.339	42.15
349.551	-27.48
349.763	38.06
349.975	-13.14
350.187	17.58
350.399	91.31
350.61	79.02
350.822	-60.24
351.034	85.16
351.246	85.16
351.458	1.19
351.669	15.53
351.881	81.07
352.093	81.07
352.305	58.54
352.517	54.44
352.728	85.16
352.94	29.87
353.152	113.83
353.363	56.49
353.575	27.82
353.787	54.44
353.999	85.16
354.21	91.31
354.422	1.19
354.633	-2.9
354.845	46.25
355.057	103.59
355.268	29.87
355.48	111.78
355.692	66.73
355.903	52.39
356.115	19.63
356.326	-19.29
356.538	50.35
356.749	64.68
356.961	111.78
357.172	9.39
357.384	5.29
357.595	97.45
357.807	66.73
358.018	5.29
358.23	21.67
358.441	21.67
358.653	85.16
358.864	56.49
359.075	76.97
359.287	11.43
359.498	99.5
359.709	-43.86
359.921	50.35
360.132	29.87
360.344	40.11
360.555	17.58
360.766	52.39
360.977	85.16
361.189	87.21
361.4	7.34
361.611	9.39
361.823	48.3
362.034	33.96
362.245	11.43
362.456	-33.62
362.667	-0.85
362.879	-9.05
363.09	-21.33
363.301	83.11
363.512	1.19
363.723	62.63
363.935	1.19
364.146	72.87
364.357	66.73
364.568	13.48
364.779	33.96
364.99	48.3
365.201	-25.43
365.412	81.07
365.623	11.43
365.834	64.68
366.045	15.53
366.256	50.35
366.467	-21.33
366.678	56.49
366.889	-0.85
367.1	27.82
367.311	64.68
367.522	7.34
367.733	52.39
367.944	44.2
368.155	40.11
368.366	64.68
368.577	40.11
368.788	62.63
368.999	60.59
369.209	23.72
369.42	76.97
369.631	99.5
369.842	62.63
370.053	68.78
370.264	15.53
370.474	52.39
370.685	7.34
370.896	-2.9
371.107	68.78
371.317	38.06
371.528	48.3
371.739	29.87
371.95	27.82
372.16	23.72
372.371	-4.95
372.582	33.96
372.792	54.44
373.003	83.11
373.214	-27.48
373.424	152.74
373.635	11.43
373.846	1.19
374.056	-19.29
374.267	76.97
374.477	31.91
374.688	-2.9
374.898	40.11
375.109	128.17
375.319	64.68
375.53	60.59
375.74	81.07
375.951	40.11
376.161	15.53
376.372	66.73
376.582	103.59
376.793	17.58
377.003	54.44
377.214	91.31
377.424	31.91
377.635	60.59
377.845	72.87
378.055	44.2
378.266	68.78
378.476	25.77
378.686	40.11
378.897	36.01
379.107	25.77
379.317	29.87
379.528	52.39
379.738	72.87
379.948	11.43
380.158	54.44
380.369	46.25
380.579	52.39
380.789	42.15
380.999	105.64
381.21	21.67
381.42	99.5
381.63	17.58
381.84	107.69
382.05	48.3
382.261	48.3
382.471	95.4
382.681	15.53
382.891	50.35
383.101	68.78
383.311	27.82
383.521	66.73
383.731	25.77
383.941	46.25
384.151	21.67
384.361	42.15
384.571	38.06
384.781	3.24
384.991	-4.95
385.201	126.12
385.411	29.87
385.621	124.07
385.831	111.78
386.041	42.15
386.251	44.2
386.461	64.68
386.671	97.45
386.881	52.39
387.091	38.06
387.301	66.73
387.511	62.63
387.72	46.25
387.93	11.43
388.14	11.43
388.35	-0.85
388.56	19.63
388.769	-2.9
388.979	15.53
389.189	66.73
389.399	17.58
389.609	36.01
389.818	79.02
390.028	79.02
390.238	1.19
390.447	70.83
390.657	115.88
390.867	13.48
391.076	-23.38
391.286	31.91
391.496	19.63
391.705	50.35
391.915	95.4
392.125	72.87
392.334	-43.86
392.544	81.07
392.753	44.2
392.963	109.74
393.172	83.11
393.382	54.44
393.591	95.4
393.801	38.06
394.01	93.35
394.22	56.49
394.429	40.11
394.639	103.59
394.848	11.43
395.058	91.31
395.267	101.55
395.477	70.83
395.686	79.02
395.895	109.74
396.105	31.91
396.314	25.77
396.524	91.31
396.733	130.22
396.942	74.92
397.152	111.78
397.361	76.97
397.57	97.45
397.78	93.35
397.989	23.72
398.198	83.11
398.407	62.63
398.617	58.54
398.826	173.22
399.035	91.31
399.244	64.68
399.453	17.58
399.663	52.39
399.872	111.78
400.081	29.87
400.29	48.3
400.499	-27.48
400.708	144.55
400.917	58.54
401.127	54.44
401.336	7.34
401.545	103.59
401.754	58.54
401.963	122.02
402.172	105.64
402.381	107.69
402.59	91.31
402.799	70.83
403.008	144.55
403.217	87.21
403.426	99.5
403.635	89.26
403.844	128.17
404.053	162.98
404.262	103.59
404.471	72.87
404.68	195.75
404.888	130.22
405.097	136.36
405.306	177.32
405.515	160.94
405.724	111.78
405.933	169.13
406.142	111.78
406.35	175.27
406.559	105.64
406.768	185.51
406.977	189.61
407.185	150.7
407.394	169.13
407.603	189.61
407.812	134.31
408.02	234.66
408.229	218.28
408.438	185.51
408.646	203.94
408.855	201.9
409.064	193.7
409.272	124.07
409.481	214.18
409.69	230.57
409.898	191.66
410.107	292.01
410.315	318.63
410.524	306.34
410.733	308.39
410.941	294.05
411.15	261.29
411.358	328.87
411.567	390.31
411.775	369.83
411.984	187.56
412.192	341.16
412.401	461.99
412.609	410.79
412.818	359.59
413.026	412.84
413.234	431.27
413.443	439.46
413.651	486.56
413.86	425.12
414.068	447.65
414.276	484.52
414.485	502.95
414.693	521.38
414.901	558.24
415.11	636.06
415.318	611.49
415.526	580.77
415.734	631.97
415.943	779.42
416.151	652.45
416.359	734.37
416.567	720.03
416.776	777.37
416.984	797.85
417.192	826.53
417.4	795.81
417.608	847.01
417.817	779.42
418.025	953.5
418.233	1023.13
418.441	947.36
418.649	1010.84
418.857	1098.91
419.065	1258.65
419.273	1019.04
419.481	1240.22
419.689	1178.78
419.897	1297.56
420.105	1205.4
420.313	1268.89
420.521	1324.18
420.729	1330.33
420.937	1442.96
421.145	1549.46
421.353	1547.41
421.561	1647.76
421.769	1641.62
421.977	1815.69
422.185	1655.95
422.393	1891.47
422.601	1971.34
422.809	1911.95
423.017	1873.04
423.224	1983.63
423.432	2133.13
423.64	2100.36
423.848	2356.36
424.056	2192.52
424.263	2356.36
424.471	2309.26
424.679	2520.2
424.887	2493.57
425.094	2665.6
425.302	2667.65
425.51	2690.18
425.718	2778.24
425.925	2804.86
426.133	2958.46
426.341	3273.85
426.548	3230.84
426.756	3368.06
426.964	3286.14
427.171	3544.18
427.379	3613.81
427.586	3642.48
427.794	3712.11
428.001	3857.52
428.209	4056.17
428.417	4064.36
428.624	4224.11
428.832	4355.18
429.039	4369.51
429.247	4078.7
429.454	4824.16
429.662	5061.73
429.869	4772.96
430.076	5065.82
430.284	4971.61
430.491	5170.27
430.699	5524.57
430.906	5456.98
431.114	5571.67
431.321	5733.46
431.528	5979.22
431.736	6288.46
431.943	6433.86
432.15	6333.51
432.358	6429.77
432.565	6792.26
432.772	6698.05
432.979	7107.65
433.187	7050.3
433.394	6962.24
433.601	7849.01
433.808	7875.63
434.016	7552.06
434.223	7949.36
434.43	8338.48
434.637	8369.19
434.844	8782.88
435.052	8924.19
435.259	8913.95
435.466	8985.63
435.673	8827.94
435.88	9384.99
436.087	10089.49
436.294	10028.05
436.501	9675.8
436.708	9929.75
436.915	10284.05
437.122	10605.58
437.329	10714.12
437.537	11049.99
437.743	11168.77
437.95	11033.6
438.157	11940.85
438.364	12069.87
438.571	12131.31
438.778	12106.74
438.985	13353.95
439.192	12633.07
439.399	13085.67
439.606	12780.52
439.813	13867.99
440.02	14291.92
440.227	14205.91
440.433	13962.2
440.64	14713.8
440.847	14388.18
441.054	14777.29
441.261	15981.49
441.467	15379.39
441.674	15938.49
441.881	16513.97
442.088	16214.96
442.294	16309.17
442.501	16993.19
442.708	17130.41
442.914	17804.19
443.121	18498.45
443.328	17916.83
443.534	19307.4
443.741	18574.22
443.948	18631.57
444.154	19893.12
444.361	19501.95
444.568	19972.99
444.774	19753.85
444.981	19948.41
445.187	20525.94
445.394	21635.94
445.6	21148.52
445.807	23071.56
446.013	22354.77
446.22	22420.31
446.426	23761.73
446.633	23554.88
446.839	24566.58
447.046	23495.49
447.252	25002.8
447.459	24750.9
447.665	24744.75
447.871	25666.34
448.078	27239.18
448.284	25764.64
448.491	26391.32
448.697	27292.43
448.903	27867.91
449.11	27851.52
449.316	27448.07
449.522	28080.89
449.728	28680.95
449.935	29268.72
450.141	29141.74
450.347	29696.74
450.553	29139.69
450.76	29285.1
450.966	30321.37
451.172	29655.78
451.378	30640.86
451.584	29799.14
451.791	30710.49
451.997	30714.58
452.203	31009.49
452.409	31161.04
452.615	30946
452.821	29741.8
453.027	29604.58
453.233	31072.98
453.44	29745.89
453.646	30083.81
453.852	30444.25
454.058	30757.59
454.264	29786.85
454.47	30526.17
454.676	29631.21
454.882	30663.38
455.088	28072.7
455.294	28402.43
455.5	29041.39
455.705	28951.28
455.911	28046.08
456.117	27667.2
456.323	27351.82
456.529	25606.95
456.735	26802.96
456.941	26331.93
457.147	25797.41
457.352	25279.27
457.558	24769.33
457.764	24967.98
457.97	24351.54
458.176	23774.02
458.381	24068.92
458.587	22772.56
458.793	22559.57
458.999	21330.79
459.204	23012.17
459.41	22182.74
459.616	20831.08
459.821	20841.32
460.027	20716.4
460.233	20278.13
460.438	19360.64
460.644	19514.24
460.85	18709.39
461.055	18566.03
461.261	18248.6
461.466	17085.35
461.672	16384.94
461.878	17527.71
462.083	16608.17
462.289	16241.59
462.494	16194.48
462.7	15092.68
462.905	14867.4
463.111	15530.94
463.316	15328.19
463.522	15023.05
463.727	15084.48
463.932	15147.97
464.138	14824.39
464.343	15141.83
464.549	14808.01
464.754	14992.33
464.959	14920.65
465.165	14744.52
465.37	14138.32
465.575	13802.46
465.781	14345.17
465.986	14285.78
466.191	14070.74
466.397	13632.47
466.602	12946.41
466.807	13454.3
467.012	13591.52
467.218	13290.46
467.423	13368.29
467.628	13374.43
467.833	13933.53
468.038	13464.54
468.244	12887.01
468.449	13595.61
468.654	12870.63
468.859	12987.36
469.064	12909.54
469.269	12301.29
469.474	12471.28
469.679	12631.02
469.885	12522.48
470.09	12567.53
470.295	12461.04
470.5	12016.63
470.705	12424.17
470.91	11893.75
471.115	11817.97
471.32	12076.02
471.525	11756.54
471.73	11566.07
471.935	11488.25
472.139	11318.27
472.344	11275.26
472.549	11299.84
472.754	11289.6
472.959	10812.42
473.164	10755.08
473.369	10454.03
473.574	10906.63
473.778	10791.94
473.983	10677.26
474.188	10482.7
474.393	10230.8
474.598	10155.02
474.802	10060.82
475.007	10114.06
475.212	10173.46
475.417	9872.4
475.621	9759.77
475.826	9839.64
476.031	9630.74
476.235	9473.05
476.44	9636.89
476.645	9344.03
476.849	9245.73
477.054	9337.88
477.259	9126.94
477.463	9155.61
477.668	8840.23
477.872	9022.5
478.077	8881.19
478.282	8530.98
478.486	8596.52
478.691	8553.51
478.895	8617
479.1	8373.29
479.304	8346.67
479.509	8084.53
479.713	8199.21
479.918	8102.96
480.122	8111.15
480.326	8356.91
480.531	8182.83
480.735	7988.27
480.94	7943.22
481.144	8092.72
481.348	7771.19
481.553	7988.27
481.757	7851.06
481.961	7906.35
482.166	8004.66
482.37	8004.66
482.574	7748.66
482.778	7898.16
482.983	8049.71
483.187	7763
483.391	7851.06
483.595	7861.3
483.8	7654.45
484.004	7918.64
484.208	7830.58
484.412	7697.46
484.616	7816.24
484.821	7859.25
485.025	7832.63
485.229	7879.73
485.433	7779.38
485.637	7771.19
485.841	7742.52
486.045	7707.7
486.249	7767.09
486.453	7697.46
486.657	7842.87
486.861	7869.49
487.065	7717.94
487.269	7820.34
487.473	7568.44
487.677	7863.35
487.881	7965.75
488.085	7740.47
488.289	7732.28
488.493	7742.52
488.697	7824.44
488.901	7830.58
489.105	7662.65
489.309	7842.87
489.512	7943.22
489.716	7777.33
489.92	7945.27
490.124	7892.02
490.328	8139.82
490.531	7932.98
490.735	8008.75
490.939	8043.57
491.143	7932.98
491.346	8039.47
491.55	8029.23
491.754	7930.93
491.958	8242.22
492.161	8205.36
492.365	8174.64
492.569	8129.58
492.772	8125.49
492.976	8274.99
493.18	8244.27
493.383	8350.76
493.587	8410.15
493.79	8506.41
493.994	8422.44
494.197	8481.83
494.401	8485.93
494.605	8637.48
494.808	8762.4
495.012	8924.19
495.215	8821.8
495.419	8848.42
495.622	8799.27
495.825	8879.14
496.029	8789.03
496.232	9090.08
496.436	9059.36
496.639	9516.06
496.843	9288.73
497.046	9468.95
497.249	9671.7
497.453	9696.28
497.656	9692.18
497.859	9808.92
498.063	9874.45
498.266	10081.3
498.469	10116.11
498.673	10187.79
498.876	10372.11
499.079	10396.68
499.282	10540.04
499.485	10624.01
499.689	10609.67
499.892	10759.17
500.095	10982.4
500.298	11418.62
500.501	11121.66
500.705	11236.35
500.908	11428.86
501.111	11607.03
501.314	11817.97
501.517	11860.98
501.72	11850.74
501.923	11701.24
502.126	12166.13
502.329	12243.95
502.532	12342.25
502.735	12530.67
502.938	12792.81
503.141	12776.42
503.344	13040.61
503.547	12944.36
503.75	13177.83
503.953	13188.07
504.156	13513.69
504.359	13624.28
504.562	13532.12
504.765	13708.25
504.968	14175.19
505.17	14283.73
505.373	14324.69
505.576	14595.02
505.779	14463.95
505.982	14891.98
506.185	15008.71
506.387	15082.44
506.59	15152.07
506.793	15506.37
506.996	15379.39
507.198	15963.06
507.401	15940.54
507.604	15969.21
507.807	15983.54
508.009	16518.06
508.212	16542.64
508.415	16493.49
508.617	16923.56
508.82	17195.94
509.022	17152.93
509.225	17318.82
509.428	17566.62
509.63	17634.21
509.833	17765.28
510.035	18072.47
510.238	17922.97
510.44	18277.27
510.643	18744.2
510.845	18770.83
511.048	18625.42
511.25	18885.51
511.453	18961.29
511.655	20140.92
511.858	19297.16
512.06	19557.25
512.262	19817.34
512.465	19833.72
512.667	20140.92
512.87	20333.43
513.072	20267.89
513.274	20788.08
513.477	20927.34
513.679	21287.78
513.881	21574.5
514.084	21805.92
514.286	21621.6
514.488	22006.62
514.69	22272.85
514.893	22526.8
515.095	22502.23
515.297	22827.85
515.499	22639.44
515.701	23339.85
515.904	23345.99
516.106	23241.54
516.308	23915.33
516.51	24154.94
516.712	24040.25
516.914	24058.68
517.116	24488.76
517.318	24503.09
517.52	24996.65
517.722	24642.35
517.925	25236.27
518.127	25733.92
518.329	25676.58
518.531	25813.79
518.733	26215.19
518.935	26411.8
519.136	26428.18
519.338	27046.67
519.54	26782.48
519.742	27013.9
519.944	27513.61
520.146	27624.2
520.348	27845.38
520.55	27425.54
520.752	27994.88
520.954	28705.52
521.155	28418.81
521.357	29010.67
521.559	29160.17
521.761	29264.62
521.963	28869.36
522.164	29733.6
522.366	29670.12
522.568	30010.08
522.77	30124.77
522.971	30542.55
523.173	30188.25
523.375	30724.82
523.576	31021.78
523.778	30804.69
523.98	31122.13
524.181	31662.79
524.383	31017.68
524.584	32000.71
524.786	31713.99
524.988	31906.5
525.189	32158.4
525.391	32389.82
525.592	32250.56
525.794	32332.48
525.995	32813.75
526.197	32584.38
526.398	32699.06
526.6	33120.95
526.801	33350.32
527.003	33403.56
527.204	33467.05
527.406	33632.94
527.607	33780.39
527.808	33905.32
528.01	33622.7
528.211	34122.4
528.412	34437.79
528.614	34167.46
528.815	34044.58
529.016	34896.53
529.218	34257.57
529.419	35013.27
529.62	34738.84
529.822	34669.21
530.023	34579.1
530.224	34761.37
530.425	34933.4
530.626	34828.95
530.828	34781.85
531.029	35365.52
531.23	35220.11
531.431	35046.04
531.632	35523.21
531.833	35218.07
532.035	35297.94
532.236	35314.32
532.437	35512.97
532.638	35472.01
532.839	36203.14
533.04	35429.01
533.241	35490.45
533.442	35981.96
533.643	35644.04
533.844	35568.27
534.045	35652.23
534.246	35347.09
534.447	36119.17
534.648	35601.04
534.849	35906.18
535.05	35519.12
535.251	35861.13
535.451	35775.11
535.652	36035.2
535.853	35877.51
536.054	35707.53
536.255	36289.15
536.456	35580.56
536.657	36280.96
536.857	35975.81
537.058	35457.68
537.259	35918.47
537.46	36067.97
537.66	36029.06
537.861	36113.03
538.062	36108.93
538.263	35738.25
538.463	35867.27
538.664	36256.39
538.865	36291.2
539.065	36192.9
539.266	35791.5
539.466	36276.87
539.667	35551.88
539.868	36461.18
540.068	36094.6
540.269	35885.7
540.469	36348.54
540.67	35936.9
540.87	35539.6
541.071	35949.19
541.271	35756.68
541.472	36010.63
541.672	35816.07
541.873	35678.86
542.073	35383.95
542.274	36397.7
542.474	35650.19
542.675	35433.1
542.875	36436.61
543.075	35760.78
543.276	35721.87
543.476	35846.79
543.676	35578.51
543.877	36104.84
544.077	35744.39
544.277	35783.3
544.478	35875.46
544.678	35723.91
544.878	35834.5
545.078	35846.79
545.279	35512.97
545.479	35824.26
545.679	35824.26
545.879	35848.84
546.079	35639.95
546.28	35979.91
546.48	35472.01
546.68	36125.32
546.88	35549.84
547.08	35703.43
547.28	35586.7
547.48	35519.12
547.68	35580.56
547.88	35281.55
548.081	35947.14
548.281	35445.39
548.481	35711.63
548.681	35986.05
548.881	35758.73
549.081	35609.23
549.28	35261.07
549.48	35797.64
549.68	35506.83
549.88	35887.75
550.08	35371.66
550.28	35613.32
550.48	35326.61
550.68	35506.83
550.88	35179.15
551.08	35199.63
551.279	35121.81
551.479	35342.99
551.679	35658.38
551.879	35187.35
552.079	35779.21
552.278	35613.32
552.478	35334.8
552.678	35338.9
552.878	35359.38
553.077	35584.65
553.277	34886.29
553.477	35758.73
553.676	34874.01
553.876	35228.31
554.076	35115.67
554.275	34962.07
554.475	34949.78
554.674	35379.85
554.874	35084.95
555.074	35259.02
555.273	35162.77
555.473	35297.94
555.672	34806.42
555.872	35056.28
556.071	34898.58
556.271	35220.11
556.47	34865.81
556.67	34601.63
556.869	34636.44
557.068	35048.08
557.268	34378.4
557.467	34740.89
557.667	34712.22
557.866	34507.42
558.065	34474.65
558.265	34546.33
558.464	34429.6
558.663	34779.8
558.863	34044.58
559.062	34990.74
559.261	34187.94
559.461	34482.84
559.66	34083.49
559.859	34306.72
560.058	34030.24
560.258	34204.32
560.457	34069.15
560.656	34151.07
560.855	33729.19
561.054	33989.28
561.253	33827.49
561.453	33909.41
561.652	33594.03
561.851	33989.28
562.05	33768.1
562.249	33473.2
562.448	33655.47
562.647	33729.19
562.846	33424.04
563.045	33340.08
563.244	32842.42
563.443	33538.73
563.642	33229.49
563.841	33213.1
564.04	32731.83
564.239	33274.54
564.438	32510.65
564.637	33075.89
564.836	33104.56
565.035	32455.36
565.234	32795.32
565.432	32529.08
565.631	32303.81
565.83	32750.26
566.029	32688.82
566.228	32287.42
566.427	32328.38
566.625	32246.46
566.824	31808.2
567.023	32611
567.222	31808.2
567.42	32289.47
567.619	31912.64
567.818	31757
568.016	31412.94
568.215	32211.65
568.414	31648.46
568.612	31843.01
568.811	31535.82
569.01	31519.43
569.208	31197.9
569.407	31472.33
569.605	31177.42
569.804	31437.51
570.002	30970.58
570.201	31161.04
570.4	30712.53
570.598	30857.94
570.797	30784.21
570.995	30520.02
571.193	30296.8
571.392	30503.64
571.59	30395.1
571.789	30497.5
571.987	30425.82
572.186	30266.08
572.384	30061.28
572.582	30233.31
572.781	30329.56
572.979	29788.9
573.177	29944.55
573.376	30067.42
573.574	29625.06
573.772	29887.2
573.971	29575.91
574.169	29481.7
574.367	29111.02
574.565	29795.04
574.763	29334.25
574.962	29156.08
575.16	28859.12
575.358	29149.93
575.556	28867.31
575.754	29315.82
575.952	28910.32
576.151	29188.85
576.349	28664.57
576.547	28322.55
576.745	28717.81
576.943	28693.24
577.141	28545.78
577.339	28459.77
577.537	28132.09
577.735	28398.33
577.933	28128
578.131	28193.53
578.329	27699.97
578.527	28130.05
578.725	27599.62
578.923	27783.94
579.121	28070.65
579.319	27538.18
579.516	27822.85
579.714	27624.2
579.912	27689.73
580.11	27505.41
580.308	27540.23
580.506	27308.81
580.704	27220.75
580.901	27319.05
581.099	27099.92
581.297	27015.95
581.495	26897.17
581.692	27251.47
581.89	26729.23
582.088	27005.71
582.285	26778.39
582.483	27034.38
582.681	26880.78
582.878	26630.93
583.076	26372.89
583.274	26602.26
583.471	25645.86
583.669	26170.14
583.866	26166.04
584.064	25969.44
584.262	25645.86
584.459	26032.93
584.657	25733.92
584.854	25713.44
585.052	25484.07
585.249	25492.26
585.447	25899.81
585.644	25559.84
585.841	25701.15
586.039	25828.13
586.236	25185.07
586.434	24998.7
586.631	24941.36
586.828	25449.25
587.026	25326.38
587.223	24963.89
587.42	24886.06
587.618	25019.18
587.815	24763.18
588.012	24937.26
588.21	24597.3
588.407	24904.49
588.604	24802.1
588.801	24511.28
588.999	24451.89
589.196	24296.25
589.393	23937.85
589.59	24111.93
589.787	24120.12
589.984	23923.52
590.182	23794.5
590.379	24105.79
590.576	23759.68
590.773	23706.43
590.97	23722.82
591.167	23679.81
591.364	23378.76
591.561	23425.86
591.758	23278.41
591.955	23370.57
592.152	23632.71
592.349	23198.54
592.546	23317.32
592.743	23081.8
592.94	23006.03
593.137	23376.71
593.334	23204.68
593.531	22616.91
593.727	22889.29
593.924	22698.83
594.121	22330.2
594.318	22756.18
594.515	22522.71
594.712	22547.28
594.908	22518.61
595.105	22358.87
595.302	22264.66
595.499	22133.59
595.696	22231.9
595.892	22078.3
596.089	22115.16
596.286	21947.23
596.482	21875.55
596.679	21844.83
596.876	21572.45
597.072	21785.44
597.269	22016.86
597.466	21511.01
597.662	21551.97
597.859	21537.63
598.055	21386.08
598.252	21033.83
598.448	21140.33
598.645	21144.42
598.841	21064.55
599.038	21123.94
599.234	21009.26
599.431	20874.09
599.627	21039.98
599.824	21111.66
600.02	20730.73
600.217	20730.73
600.413	20638.58
600.609	20458.35
600.806	20206.45
601.002	20315
601.198	20278.13
601.395	20333.43
601.591	20312.95
601.787	20253.56
601.984	19999.61
602.18	20319.09
602.376	20054.9
602.572	19999.61
602.769	19979.13
602.965	19841.92
603.161	19862.4
603.357	19733.37
603.553	19563.39
603.75	19731.33
603.946	19278.72
604.142	19473.28
604.338	19309.44
604.534	19350.4
604.73	19270.53
604.926	19278.72
605.122	19276.68
605.318	18965.39
605.514	19166.09
605.71	18979.72
605.906	18811.79
606.102	18707.34
606.298	18889.61
606.494	18842.51
606.69	18905.99
606.886	18987.91
607.082	18461.58
607.278	18617.23
607.474	18283.41
607.67	18641.81
607.866	18267.03
608.062	18789.26
608.257	18475.92
608.453	18465.68
608.649	18434.96
608.845	18117.53
609.041	18236.31
609.236	18316.18
609.432	18015.13
609.628	18121.62
609.824	18082.71
610.019	17949.59
610.215	17679.26
610.411	18174.87
610.606	17978.26
610.802	17963.93
610.998	17908.63
611.193	18095
611.389	17671.07
611.584	17941.4
611.78	17638.3
611.976	17824.67
612.171	17732.51
612.367	17517.47
612.562	17525.66
612.758	17372.07
612.953	17318.82
613.149	17437.6
613.344	17066.92
613.539	17744.8
613.735	17480.61
613.93	17548.19
614.126	17331.11
614.321	17531.81
614.517	17290.15
614.712	17150.88
614.907	17134.5
615.103	17204.13
615.298	16982.95
615.493	17161.12
615.688	16882.6
615.884	17265.57
616.079	16898.98
616.274	16540.59
616.47	16772.01
616.665	16630.7
616.86	17013.67
617.055	16939.94
617.25	16530.35
617.445	17058.73
617.641	16599.98
617.836	16690.09
618.031	16419.76
618.226	16716.72
618.421	16212.92
618.616	16802.73
618.811	16278.45
619.006	16358.32
619.201	16087.99
619.396	16430
619.591	15700.92
619.786	16094.13
619.981	16135.09
620.176	16096.18
620.371	16051.13
620.566	15905.72
620.761	15700.92
620.956	15580.09
621.151	15535.04
621.346	15344.58
621.541	15385.54
621.735	15530.94
621.93	15172.55
622.125	15377.34
622.32	15195.07
622.515	15393.73
622.709	14977.99
622.904	15080.39
623.099	14988.23
623.294	14570.44
623.488	14617.55
623.683	14746.57
623.878	14595.02
624.072	14498.77
624.267	14554.06
624.462	14379.98
624.656	14388.18
624.851	14201.81
625.046	14040.02
625.24	14302.16
625.435	13863.9
625.629	13933.53
625.824	13808.6
626.018	13634.52
626.213	13446.11
626.407	13644.76
626.602	13579.23
626.796	13566.94
626.991	13419.49
627.185	13403.1
627.38	13210.59
627.574	13331.42
627.768	12995.56
627.963	12946.41
628.157	12991.46
628.352	13095.91
628.546	12862.44
628.74	12921.83
628.935	12678.12
629.129	12651.5
629.323	12346.35
629.517	12483.56
629.712	12391.41
629.906	12219.38
630.1	12409.84
630.294	12358.64
630.489	12071.92
630.683	12246
630.877	12012.53
631.071	11908.08
631.265	12016.63
631.459	11701.24
631.653	11682.81
631.848	11662.33
632.042	11680.76
632.236	11975.67
632.43	11559.93
632.624	11647.99
632.818	11580.41
633.012	11414.52
633.206	11201.54
633.4	11353.09
633.594	11000.83
633.788	11289.6
633.982	11293.69
634.176	11060.23
634.369	10951.68
634.563	11035.65
634.757	10894.34
634.951	10974.21
635.145	10761.22
635.339	10761.22
635.533	10570.76
635.726	10837
635.92	10486.79
636.114	10443.79
636.308	10562.57
636.501	10306.57
636.695	10349.58
636.889	10130.45
637.083	10165.26
637.276	10212.37
637.47	10071.06
637.664	10060.82
637.857	9827.35
638.051	10083.34
638.244	9847.83
638.438	9899.03
638.632	9937.94
638.825	9794.58
639.019	9626.65
639.212	9610.26
639.406	9690.13
639.599	9460.76
639.793	9495.58
639.986	9372.7
640.18	9321.5
640.373	9260.06
640.567	9110.56
640.76	9278.49
640.954	9190.43
641.147	9190.43
641.34	8979.49
641.534	8940.58
641.727	9079.84
641.92	8971.3
642.114	8764.45
642.307	8770.6
642.5	8774.69
642.694	8655.91
642.887	8672.29
643.08	8858.66
643.273	8873
643.467	8543.27
643.66	8471.59
643.853	8451.11
644.046	8438.83
644.239	8322.09
644.432	8352.81
644.626	8393.77
644.819	8148.01
645.012	8354.86
645.205	8131.63
645.398	8254.51
645.591	8055.86
645.784	8182.83
645.977	7904.31
646.17	8014.9
646.363	7990.32
646.556	7842.87
646.749	7820.34
646.942	8045.62
647.135	7719.99
647.328	7783.48
647.521	7691.32
647.714	7470.14
647.907	7496.76
648.099	7582.77
648.292	7730.23
648.485	7500.86
648.678	7453.75
648.871	7406.65
649.064	7322.68
649.256	7377.98
649.449	7322.68
649.642	7287.87
649.835	7195.71
650.027	7263.29
650.22	7257.15
650.413	7124.03
650.605	7078.97
650.798	6911.04
650.991	6917.19
651.183	7081.02
651.376	6980.67
651.568	6876.23
651.761	6911.04
651.954	6990.91
652.146	6964.29
652.339	6659.14
652.531	6710.34
652.724	6777.92
652.916	6550.6
653.109	6638.66
653.301	6460.49
653.494	6544.45
653.686	6401.1
653.879	6435.91
654.071	6315.08
654.263	6466.63
654.456	6499.4
654.648	6480.97
654.84	6110.29
655.033	6327.37
655.225	6247.5
655.417	6108.24
655.61	6081.61
655.802	6102.09
655.994	6122.57
656.186	6093.9
656.379	6138.96
656.571	6057.04
656.763	5979.22
656.955	5948.5
657.148	6044.75
657.34	5829.71
657.532	5852.24
657.724	5917.78
657.916	5915.73
658.108	5837.91
658.3	5878.86
658.492	5772.37
658.684	5645.4
658.876	5637.2
659.068	5612.63
659.26	5635.16
659.452	5581.91
659.644	5536.85
659.836	5510.23
660.028	5436.5
660.22	5366.87
660.412	5389.4
660.604	5368.92
660.796	5450.84
660.988	5454.94
661.18	5299.29
661.372	5217.37
661.563	5342.3
661.755	5084.25
661.947	5200.99
662.139	5180.51
662.331	5188.7
662.522	5010.53
662.714	5106.78
662.906	5127.26
663.097	5004.38
663.289	5000.29
663.481	4990.05
663.673	5016.67
663.864	5045.34
664.056	4912.22
664.247	4848.74
664.439	4799.59
664.631	5016.67
664.822	4918.37
665.014	4889.7
665.205	4916.32
665.397	4781.15
665.588	4729.95
665.78	4729.95
665.971	4789.35
666.163	4639.84
666.354	4867.17
666.546	4613.22
666.737	4641.89
666.929	4703.33
667.12	4602.98
667.311	4666.47
667.503	4648.04
667.694	4469.86
667.885	4564.07
668.077	4516.97
668.268	4420.71
668.459	4523.11
668.651	4490.34
668.842	4457.57
669.033	4385.9
669.224	4344.94
669.416	4381.8
669.607	4293.74
669.798	4437.09
669.989	4254.83
670.18	4289.64
670.371	4369.51
670.563	4174.95
670.754	4387.94
670.945	4226.15
671.136	4340.84
671.327	4179.05
671.518	4303.98
671.709	4154.48
671.9	4373.61
672.091	4263.02
672.282	4160.62
672.473	3980.4
672.664	4314.22
672.855	4129.9
673.046	4052.08
673.237	4123.76
673.428	4093.04
673.619	4072.56
673.809	4131.95
674	4070.51
674.191	3939.44
674.382	4074.6
674.573	4000.88
674.764	3984.49
674.954	4007.02
675.145	3886.19
675.336	4037.74
675.527	4023.41
675.717	3976.3
675.908	3863.66
676.099	3947.63
676.289	3937.39
676.48	3837.04
676.671	3834.99
676.861	3765.36
677.052	3871.86
677.243	3878
677.433	3798.13
677.624	3914.86
677.814	3775.6
678.005	3705.97
678.195	3783.79
678.386	3697.78
678.576	3701.87
678.767	3781.74
678.957	3869.81
679.148	3777.65
679.338	3650.67
679.529	3853.42
679.719	3603.57
679.909	3769.46
680.1	3662.96
680.29	3662.96
680.481	3718.26
680.671	3693.68
680.861	3544.18
681.052	3718.26
681.242	3605.62
681.432	3583.09
681.622	3552.37
681.813	3587.19
682.003	3591.28
682.193	3574.9
682.383	3484.79
682.573	3611.76
682.764	3538.04
682.954	3574.9
683.144	3486.84
683.334	3525.75
683.524	3740.79
683.714	3503.22
683.904	3538.04
684.094	3554.42
684.284	3501.17
684.474	3687.54
684.664	3560.56
684.854	3603.57
685.044	3544.18
685.234	3501.17
685.424	3443.83
685.614	3421.3
685.804	3431.54
685.994	3417.21
686.184	3488.89
686.374	3347.58
686.564	3382.39
686.753	3314.81
686.943	3398.77
687.133	3290.23
687.323	3380.34
687.513	3368.06
687.702	3308.66
687.892	3337.34
688.082	3224.7
688.272	3292.28
688.461	3341.43
688.651	3218.55
688.841	3234.94
689.03	3234.94
689.22	3243.13
689.41	3161.21
689.599	3173.5
689.789	3118.2
689.979	3128.44
690.168	3095.68
690.358	3114.11
690.547	3110.01
690.737	3101.82
690.926	2970.75
691.116	3021.95
691.305	3142.78
691.495	3058.81
691.684	3107.96
691.874	2970.75
692.063	3007.61
692.252	2921.6
692.442	2978.94
692.631	2899.07
692.82	3017.85
693.01	2960.51
693.199	2858.11
693.388	2892.93
693.578	2825.34
693.767	2927.74
693.956	2856.06
694.146	2770.05
694.335	2800.77
694.524	2819.2
694.713	2944.13
694.902	2839.68
695.092	2862.21
695.281	2722.95
695.47	2724.99
695.659	2708.61
695.848	2718.85
696.037	2663.55
696.226	2724.99
696.415	2786.43
696.604	2778.24
696.793	2817.15
696.982	2796.67
697.171	2628.74
697.36	2770.05
697.549	2739.33
697.738	2663.55
697.927	2638.98
698.116	2747.52
698.305	2770.05
698.494	2659.46
698.683	2651.27
698.872	2782.34
699.061	2673.79
699.25	2665.6
699.438	2667.65
699.627	2768
699.816	2753.66
700.005	2538.63
700.193	2716.8
700.382	2636.93
700.571	2608.26
700.76	2681.99
700.948	2595.97
701.137	2573.44
701.326	2636.93
701.514	2641.03
701.703	2565.25
701.892	2616.45
702.08	2661.51
702.269	2632.83
702.457	2530.44
702.646	2495.62
702.834	2567.3
703.023	2651.27
703.212	2624.64
703.4	2641.03
703.589	2616.45
703.777	2675.84
703.965	2591.88
704.154	2606.21
704.342	2571.4
704.531	2569.35
704.719	2542.72
704.907	2559.11
705.096	2587.78
705.284	2471.04
705.472	2526.34
705.661	2483.33
705.849	2530.44
706.037	2690.18
706.226	2661.51
706.414	2659.46
706.602	2555.01
706.79	2614.4
706.979	2524.29
707.167	2589.83
707.355	2532.48
707.543	2698.37
707.731	2710.66
707.919	2636.93
708.107	2540.68
708.296	2647.17
708.484	2565.25
708.672	2569.35
708.86	2583.68
709.048	2497.67
709.236	2659.46
709.424	2692.23
709.612	2706.56
709.8	2571.4
709.988	2626.69
710.176	2575.49
710.364	2569.35
710.551	2657.41
710.739	2671.75
710.927	2600.07
711.115	2710.66
711.303	2538.63
711.491	2686.08
711.679	2618.5
711.866	2665.6
712.054	2577.54
712.242	2614.4
712.43	2548.87
712.617	2614.4
712.805	2694.27
712.993	2555.01
713.181	2616.45
713.368	2589.83
713.556	2628.74
713.744	2694.27
713.931	2698.37
714.119	2626.69
714.306	2550.92
714.494	2673.79
714.682	2714.75
714.869	2645.12
715.057	2589.83
715.244	2681.99
715.432	2679.94
715.619	2577.54
715.807	2665.6
715.994	2575.49
716.182	2593.92
716.369	2571.4
716.556	2710.66
716.744	2718.85
716.931	2653.31
717.119	2598.02
717.306	2612.35
717.493	2612.35
717.681	2489.48
717.868	2669.7
718.055	2661.51
718.242	2518.15
718.43	2669.7
718.617	2616.45
718.804	2731.14
718.991	2559.11
719.179	2737.28
719.366	2749.57
719.553	2573.44
719.74	2714.75
719.927	2712.71
720.114	2749.57
720.301	2608.26
720.488	2591.88
720.676	2567.3
720.863	2665.6
721.05	2604.16
721.237	2659.46
721.424	2780.29
721.611	2581.64
721.798	2729.09
721.985	2702.47
722.172	2704.51
722.358	2638.98
722.545	2673.79
722.732	2608.26
722.919	2688.13
723.106	2696.32
723.293	2681.99
723.48	2688.13
723.667	2626.69
723.853	2647.17
724.04	2813.06
724.227	2684.03
724.414	2780.29
724.6	2700.42
724.787	2702.47
724.974	2768
725.161	2737.28
725.347	2604.16
725.534	2813.06
725.72	2798.72
725.907	2739.33
726.094	2727.04
726.28	2868.35
726.467	2573.44
726.653	2686.08
726.84	2765.95
727.027	2712.71
727.213	2630.79
727.4	2675.84
727.586	2710.66
727.773	2733.18
727.959	2688.13
728.145	2698.37
728.332	2675.84
728.518	2665.6
728.705	2747.52
728.891	2628.74
729.077	2720.9
729.264	2661.51
729.45	2714.75
729.636	2856.06
729.823	2690.18
730.009	2833.54
730.195	2747.52
730.382	2780.29
730.568	2739.33
730.754	2622.59
730.94	2645.12
731.126	2788.48
731.313	2739.33
731.499	2770.05
731.685	2704.51
731.871	2729.09
732.057	2788.48
732.243	2851.97
732.429	2555.01
732.615	2790.53
732.801	2720.9
732.987	2657.41
733.173	2739.33
733.359	2724.99
733.545	2663.55
733.731	2577.54
733.917	2604.16
734.103	2665.6
734.289	2749.57
734.475	2694.27
734.661	2731.14
734.847	2778.24
735.033	2661.51
735.219	2757.76
735.404	2530.44
735.59	2630.79
735.776	2624.64
735.962	2835.58
736.148	2610.31
736.333	2645.12
736.519	2688.13
736.705	2638.98
736.89	2684.03
737.076	2610.31
737.262	2745.47
737.447	2741.38
737.633	2610.31
737.819	2628.74
738.004	2581.64
738.19	2651.27
738.375	2522.24
738.561	2622.59
738.747	2643.07
738.932	2655.36
739.118	2573.44
739.303	2591.88
739.489	2647.17
739.674	2548.87
739.859	2501.76
740.045	2573.44
740.23	2624.64
740.416	2481.28
740.601	2604.16
740.786	2509.96
740.972	2567.3
741.157	2565.25
741.342	2555.01
741.528	2544.77
741.713	2585.73
741.898	2471.04
742.084	2569.35
742.269	2546.82
742.454	2395.27
742.639	2485.38
742.824	2399.37
743.01	2387.08
743.195	2356.36
743.38	2376.84
743.565	2344.07
743.75	2419.85
743.935	2438.28
744.12	2489.48
744.305	2397.32
744.49	2366.6
744.675	2436.23
744.86	2301.06
745.045	2317.45
745.23	2270.34
745.415	2380.93
745.6	2458.76
745.785	2268.3
745.97	2387.08
746.155	2301.06
746.34	2421.89
746.525	2337.93
746.71	2253.96
746.895	2239.62
747.079	2083.98
747.264	2178.19
747.449	2266.25
747.634	2167.95
747.819	2149.51
748.003	2098.31
748.188	2116.75
748.373	2086.03
748.557	2088.07
748.742	2108.55
748.927	2057.36
749.111	2038.92
749.296	2090.12
749.481	2133.13
749.665	2026.64
749.85	2051.21
750.034	1983.63
750.219	1979.53
750.404	2051.21
750.588	2049.16
750.773	2004.11
750.957	1957
751.141	1934.48
751.326	1793.17
751.51	1922.19
751.695	1875.09
751.879	1848.46
752.064	1858.7
752.248	1844.37
752.432	1879.18
752.617	1803.41
752.801	1862.8
752.985	1868.94
753.17	1844.37
753.354	1819.79
753.538	1893.52
753.722	1768.59
753.907	1680.53
754.091	1709.2
754.275	1621.14
754.459	1735.82
754.643	1733.78
754.828	1545.36
755.012	1571.99
755.196	1594.51
755.38	1596.56
755.564	1567.89
755.748	1651.86
755.932	1516.69
756.116	1680.53
756.3	1565.84
756.484	1567.89
756.668	1588.37
756.852	1551.51
757.036	1440.92
757.22	1580.18
757.404	1535.12
757.588	1442.96
757.772	1531.03
757.956	1539.22
758.14	1485.97
758.323	1356.95
758.507	1375.38
758.691	1500.31
758.875	1455.25
759.059	1410.2
759.242	1402.01
759.426	1420.44
759.61	1338.52
759.794	1414.29
759.977	1451.16
760.161	1377.43
760.345	1379.48
760.528	1377.43
760.712	1279.13
760.895	1324.18
761.079	1461.4
761.263	1424.53
761.446	1408.15
761.63	1315.99
761.813	1365.14
761.997	1260.7
762.18	1299.61
762.364	1315.99
762.547	1201.3
762.731	1232.02
762.914	1311.89
763.098	1301.65
763.281	1246.36
763.464	1242.26
763.648	1291.41
763.831	1180.82
764.015	1277.08
764.198	1238.17
764.381	1287.32
764.564	1279.13
764.748	1203.35
764.931	1129.63
765.114	1164.44
765.297	1229.98
765.481	1180.82
765.664	1172.63
765.847	1213.59
766.03	1164.44
766.213	1129.63
766.397	1082.52
766.58	1137.82
766.763	1217.69
766.946	1143.96
767.129	1049.75
767.312	1115.29
767.495	1090.71
767.678	1141.91
767.861	1070.23
768.044	1152.15
768.227	1158.3
768.41	1109.15
768.593	1137.82
768.776	1023.13
768.959	1012.89
769.142	1029.27
769.324	1072.28
769.507	1000.6
769.69	969.88
769.873	1027.23
770.056	1103
770.239	1019.04
770.421	1103
770.604	1137.82
770.787	1105.05
770.97	988.32
771.152	1023.13
771.335	1029.27
771.518	1012.89
771.7	1025.18
771.883	976.03
772.066	896.16
772.248	971.93
772.431	953.5
772.613	916.64
772.796	859.29
772.978	939.16
773.161	1000.6
773.343	953.5
773.526	922.78
773.708	928.92
773.891	949.4
774.073	877.73
774.256	851.1
774.438	967.84
774.621	806.05
774.803	847.01
774.985	904.35
775.168	814.24
775.35	824.48
775.532	885.92
775.715	830.62
775.897	875.68
776.079	806.05
776.261	857.25
776.444	865.44
776.626	855.2
776.808	744.61
776.99	748.7
777.173	890.01
777.355	865.44
777.537	783.52
777.719	795.81
777.901	795.81
778.083	717.98
778.265	730.27
778.447	701.6
778.629	763.04
778.811	777.37
778.993	808.09
779.175	687.26
779.357	756.9
779.539	697.5
779.721	754.85
779.903	699.55
780.085	717.98
780.267	711.84
780.449	732.32
780.631	664.74
780.812	705.7
780.994	656.54
781.176	597.15
781.358	617.63
781.54	724.13
781.721	652.45
781.903	672.93
782.085	631.97
782.267	580.77
782.448	609.44
782.63	586.91
782.812	605.35
782.993	603.3
783.175	558.24
783.357	548
783.538	533.67
783.72	558.24
783.901	529.57
784.083	609.44
784.264	591.01
784.446	474.28
784.627	648.35
784.809	545.95
784.99	523.43
785.172	568.48
785.353	498.85
785.535	558.24
785.716	519.33
785.897	478.37
786.079	451.75
786.26	496.8
786.441	562.34
786.623	427.17
786.804	445.6
786.985	466.08
787.167	533.67
787.348	449.7
787.529	443.56
787.71	435.36
787.891	431.27
788.073	443.56
788.254	461.99
788.435	453.8
788.616	359.59
788.797	455.84
788.978	492.71
789.159	423.08
789.34	492.71
789.522	408.74
789.703	423.08
789.884	392.36
790.065	406.69
790.246	449.7
790.427	416.93
790.607	451.75
790.788	453.8
790.969	472.23
791.15	386.21
791.331	408.74
791.512	394.4
791.693	392.36
791.874	414.88
792.054	457.89
792.235	402.6
792.416	398.5
792.597	369.83
792.778	388.26
792.958	367.78
793.139	414.88
793.32	363.69
793.5	386.21
793.681	294.05
793.862	361.64
794.042	408.74
794.223	394.4
794.404	314.53
794.584	335.01
794.765	285.86
794.945	337.06
795.126	314.53
795.306	287.91
795.487	343.21
795.667	388.26
795.848	418.98
796.028	353.45
796.209	294.05
796.389	396.45
796.57	289.96
796.75	300.2
796.93	294.05
797.111	322.73
797.291	292.01
797.471	259.24
797.652	267.43
797.832	279.72
798.012	312.49
798.192	273.57
798.373	353.45
798.553	341.16
798.733	234.66
798.913	273.57
799.093	249
799.274	294.05
799.454	349.35
799.634	365.73
799.814	349.35
799.994	275.62
800.174	357.54
800.354	304.29
800.534	328.87
800.714	285.86
800.894	222.38
801.074	269.48
801.254	259.24
801.434	201.9
801.614	236.71
801.794	292.01
801.974	658.59
802.154	255.14
802.334	308.39
802.514	230.57
802.693	197.8
802.873	226.47
803.053	371.88
803.233	228.52
803.413	332.97
803.592	238.76
803.772	253.09
803.952	310.44
804.131	244.9
804.311	273.57
804.491	214.18
804.67	160.94
804.85	189.61
805.03	296.1
805.209	310.44
805.389	193.7
805.568	189.61
805.748	205.99
805.928	236.71
806.107	273.57
806.287	277.67
806.466	273.57
806.646	251.05
806.825	310.44
807.004	265.38
807.184	220.33
807.363	224.42
807.543	230.57
807.722	267.43
807.901	316.58
808.081	246.95
808.26	165.03
808.439	165.03
808.619	214.18
808.798	183.46
808.977	197.8
809.156	220.33
809.336	226.47
809.515	228.52
809.694	183.46
809.873	181.42
810.052	197.8
810.231	169.13
810.411	199.85
810.59	187.56
810.769	177.32
810.948	242.85
811.127	160.94
811.306	173.22
811.485	183.46
811.664	267.43
811.843	189.61
812.022	158.89
812.201	181.42
812.38	220.33
812.559	119.98
812.737	216.23
812.916	179.37
813.095	107.69
813.274	197.8
813.453	158.89
813.632	124.07
813.811	226.47
813.989	175.27
814.168	132.26
814.347	134.31
814.526	230.57
814.704	162.98
814.883	220.33
815.062	201.9
815.24	210.09
815.419	134.31
815.598	185.51
815.776	134.31
815.955	173.22
816.133	97.45
816.312	169.13
816.49	105.64
816.669	197.8
816.847	154.79
817.026	158.89
817.204	187.56
817.383	165.03
817.561	218.28
817.74	181.42
817.918	136.36
818.097	140.46
818.275	97.45
818.453	220.33
818.632	128.17
818.81	212.14
818.988	158.89
819.167	212.14
819.345	97.45
819.523	179.37
819.701	126.12
819.879	189.61
820.058	124.07
820.236	138.41
820.414	97.45
820.592	171.18
820.77	115.88
820.948	158.89
821.127	117.93
821.305	107.69
821.483	111.78
821.661	140.46
821.839	169.13
822.017	117.93
822.195	124.07
822.373	103.59
822.551	113.83
822.729	138.41
822.907	87.21
823.085	158.89
823.262	124.07
823.44	83.11
823.618	60.59
823.796	169.13
823.974	62.63
824.152	138.41
824.329	54.44
824.507	124.07
824.685	89.26
824.863	124.07
825.04	117.93
825.218	140.46
825.396	109.74
825.574	144.55
825.751	128.17
825.929	99.5
826.107	46.25
826.284	160.94
826.462	126.12
826.639	117.93
826.817	107.69
826.994	119.98
827.172	115.88
827.349	74.92
827.527	156.84
827.704	148.65
827.882	29.87
828.059	117.93
828.237	74.92
828.414	181.42
828.591	62.63
828.769	91.31
828.946	119.98
829.124	132.26
829.301	154.79
829.478	140.46
829.655	138.41
829.833	105.64
830.01	25.77
830.187	113.83
830.364	89.26
830.542	91.31
830.719	111.78
830.896	48.3
831.073	122.02
831.25	134.31
831.427	122.02
831.604	99.5
831.782	93.35
831.959	64.68
832.136	212.14
832.313	91.31
832.49	89.26
832.667	79.02
832.844	66.73
833.021	101.55
833.198	171.18
833.374	83.11
833.551	142.5
833.728	29.87
833.905	111.78
834.082	70.83
834.259	95.4
834.436	99.5
834.612	76.97
834.789	74.92
834.966	91.31
835.143	68.78
835.319	109.74
835.496	42.15
835.673	64.68
835.85	68.78
836.026	81.07
836.203	150.7
836.38	142.5
836.556	74.92
836.733	89.26
836.909	171.18
837.086	79.02
837.262	-17.24
837.439	74.92
837.616	74.92
837.792	68.78
837.968	95.4
838.145	31.91
838.321	-7
838.498	29.87
838.674	113.83
838.851	140.46
839.027	76.97
839.203	83.11
839.38	31.91
839.556	13.48
839.732	117.93
839.909	17.58
840.085	97.45
840.261	83.11
840.437	89.26
840.614	50.35
840.79	99.5
840.966	9.39
841.142	72.87
841.318	162.98
841.494	64.68
841.671	109.74
841.847	19.63
842.023	54.44
842.199	128.17
842.375	76.97
842.551	81.07
842.727	-4.95
842.903	103.59
843.079	-11.09
843.255	38.06
843.431	64.68
843.607	48.3
843.783	-41.81
843.959	81.07
844.134	-37.72
844.31	74.92
844.486	-7
844.662	23.72
844.838	81.07
845.013	52.39
845.189	29.87
845.365	115.88
845.541	56.49
845.716	66.73
845.892	44.2
846.068	27.82
846.244	-11.09
846.419	76.97
846.595	5.29
846.77	-23.38
846.946	62.63
847.122	62.63
847.297	7.34
847.473	115.88
847.648	85.16
847.824	66.73
847.999	31.91
848.175	-25.43
848.35	-17.24
848.526	60.59
848.701	68.78
848.876	111.78
849.052	13.48
849.227	62.63
849.403	40.11
849.578	38.06
849.753	11.43
849.929	48.3
850.104	27.82
850.279	50.35
850.454	9.39
850.63	66.73
850.805	31.91
850.98	-21.33
851.155	58.54
851.33	60.59
851.505	64.68
851.681	122.02
851.856	25.77
852.031	87.21
852.206	72.87
852.381	-9.05
852.556	74.92
852.731	95.4
852.906	23.72
853.081	62.63
853.256	52.39
853.431	31.91
853.606	-4.95
853.781	27.82
853.956	70.83
854.131	17.58
854.305	29.87
854.48	68.78
854.655	19.63
854.83	40.11
855.005	33.96
855.18	-4.95
855.354	29.87
855.529	81.07
855.704	-17.24
855.879	91.31
856.053	31.91
856.228	97.45
856.403	33.96
856.577	64.68
856.752	-39.76
856.926	-2.9
857.101	21.67
857.276	-21.33
857.45	5.29
857.625	40.11
857.799	68.78
857.974	-17.24
858.148	29.87
858.323	113.83
858.497	58.54
858.672	11.43
858.846	58.54
859.02	44.2
859.195	19.63
859.369	58.54
859.543	27.82
859.718	11.43
859.892	19.63
860.066	23.72
860.241	19.63
860.415	13.48
860.589	99.5
860.763	5.29
860.938	13.48
861.112	31.91
861.286	-7
861.46	5.29
861.634	-17.24
861.808	70.83
861.982	38.06
862.157	-7
862.331	-33.62
862.505	-19.29
862.679	-93.01
862.853	48.3
863.027	-7
863.201	46.25
863.375	3.24
863.549	29.87
863.722	83.11
863.896	-0.85
864.07	3.24
864.244	36.01
864.418	46.25
864.592	60.59
864.766	38.06
864.939	-0.85
865.113	29.87
865.287	50.35
865.461	11.43
865.634	-0.85
865.808	27.82
865.982	7.34
866.156	74.92
866.329	-37.72
866.503	42.15
866.676	17.58
866.85	11.43
867.024	3.24
867.197	44.2
867.371	42.15
867.544	-4.95
867.718	15.53
867.891	38.06
868.065	23.72
868.238	-9.05
868.412	54.44
868.585	-23.38
868.759	9.39
868.932	-9.05
869.105	29.87
869.279	-29.52
869.452	-15.19
869.625	52.39
869.799	-56.15
869.972	-25.43
870.145	132.26
870.319	64.68
870.492	5.29
870.665	9.39
870.838	-13.14
871.011	-54.1
871.185	-11.09
871.358	-2.9
871.531	25.77
871.704	44.2
871.877	-31.57
872.05	42.15
872.223	7.34
872.396	-37.72
872.569	40.11
872.742	-52.05
872.915	52.39
873.088	-0.85
873.261	50.35
873.434	87.21
873.607	40.11
873.78	48.3
873.953	5.29
874.126	-35.67
874.299	31.91
874.471	54.44
874.644	-35.67
874.817	23.72
874.99	81.07
875.163	-35.67
875.335	-19.29
875.508	3.24
875.681	58.54
875.853	50.35
876.026	-4.95
876.199	21.67
876.371	29.87
876.544	48.3
876.717	-2.9
876.889	-60.24
877.062	7.34
877.234	11.43
877.407	25.77
877.579	-60.24
877.752	23.72
877.924	-21.33
878.097	1.19
878.269	46.25
878.442	19.63
878.614	60.59
878.786	-13.14
878.959	1.19
879.131	21.67
879.303	-50
879.476	-45.91
879.648	-9.05
879.82	79.02
879.993	3.24
880.165	58.54
880.337	15.53
880.509	9.39
880.681	-17.24
880.854	25.77
881.026	40.11
881.198	-15.19
881.37	9.39
881.542	-39.76
881.714	44.2
881.886	-70.48
882.058	19.63
882.23	36.01
882.402	64.68
882.574	-35.67
882.746	66.73
882.918	54.44
883.09	-37.72
883.262	-25.43
883.434	-80.72
883.606	3.24
883.778	68.78
883.95	91.31
884.122	-33.62
884.293	48.3
884.465	48.3
884.637	62.63
884.809	-25.43
884.98	-37.72
885.152	1.19
885.324	-37.72
885.496	-7
885.667	48.3
885.839	5.29
886.011	31.91
886.182	103.59
886.354	40.11
886.525	-23.38
886.697	-47.96
886.869	-17.24
887.04	-23.38
887.212	70.83
887.383	36.01
887.555	42.15
887.726	21.67
887.897	-21.33
888.069	-17.24
888.24	-35.67
888.412	1.19
888.583	-2.9
888.754	44.2
888.926	-47.96
889.097	19.63
889.268	-21.33
889.44	27.82
889.611	-23.38
889.782	99.5
889.953	5.29
890.125	-66.39
890.296	-50
890.467	1.19
890.638	-62.29
890.809	50.35
890.98	3.24
891.151	19.63
891.323	-31.57
891.494	58.54
891.665	-0.85
891.836	-37.72
892.007	-31.57
892.178	25.77
892.349	38.06
892.52	-21.33
892.691	-13.14
892.862	-21.33
893.032	-21.33
893.203	13.48
893.374	-31.57
893.545	91.31
893.716	-2.9
893.887	44.2
894.057	-23.38
894.228	52.39
894.399	-13.14
894.57	-37.72
894.74	11.43
894.911	-25.43
895.082	25.77
895.253	33.96
895.423	9.39
895.594	50.35
895.764	72.87
895.935	40.11
896.106	62.63
896.276	56.49
896.447	-52.05
896.617	7.34
896.788	58.54
896.958	-7
897.129	-21.33
897.299	21.67
897.47	66.73
897.64	62.63
897.81	-60.24
897.981	-11.09
898.151	-35.67
898.322	-39.76
898.492	54.44
898.662	-23.38
898.832	-60.24
899.003	-19.29
899.173	-33.62
899.343	27.82
899.513	-35.67
