Data from USB4F104151__15__11-51-13-090.txt Node

Date: Fri Mar 14 11:51:13 EDT 2025
User: louis
Spectrometer: USB4F10415
Trigger mode: 4
Integration Time (sec): 2.000000E-2
Scans to average: 1
Electric dark correction enabled: true
Nonlinearity correction enabled: false
Boxcar width: 0
XAxis mode: Wavelengths
Number of Pixels in Spectrum: 3648
>>>>>Begin Spectral Data<<<<<
178.204	-104.45
178.424	-104.45
178.644	-104.45
178.864	-98.3
179.084	-22.53
179.304	-12.29
179.524	-55.3
179.744	8.19
179.964	73.73
180.184	-45.06
180.404	36.86
180.624	-38.91
180.844	16.38
181.064	2.05
181.283	38.91
181.503	-45.06
181.723	20.48
181.943	-53.25
182.163	-45.06
182.383	22.53
182.602	-10.24
182.822	77.82
183.042	10.24
183.262	6.14
183.482	28.67
183.701	12.29
183.921	-47.1
184.141	104.45
184.361	57.34
184.58	65.54
184.8	63.49
185.02	-69.63
185.239	118.78
185.459	-83.97
185.679	47.1
185.898	65.54
186.118	96.25
186.338	59.39
186.557	20.48
186.777	-59.39
186.997	16.38
187.216	-36.86
187.436	32.77
187.655	55.3
187.875	36.86
188.095	-69.63
188.314	-63.49
188.534	51.2
188.753	30.72
188.973	-30.72
189.192	45.06
189.412	69.63
189.631	75.77
189.851	-67.58
190.07	81.92
190.29	-59.39
190.509	28.67
190.729	-14.34
190.948	30.72
191.168	86.01
191.387	28.67
191.607	4.1
191.826	65.54
192.045	20.48
192.265	47.1
192.484	16.38
192.704	-10.24
192.923	-4.1
193.142	26.62
193.362	47.1
193.581	55.3
193.8	6.14
194.02	6.14
194.239	6.14
194.458	28.67
194.678	-10.24
194.897	14.34
195.116	0
195.335	-6.14
195.555	22.53
195.774	30.72
195.993	30.72
196.212	47.1
196.432	20.48
196.651	-24.58
196.87	20.48
197.089	124.93
197.308	47.1
197.528	75.77
197.747	-55.3
197.966	57.34
198.185	65.54
198.404	-2.05
198.623	10.24
198.842	51.2
199.062	102.4
199.281	20.48
199.5	26.62
199.719	47.1
199.938	-38.91
200.157	-26.62
200.376	28.67
200.595	43.01
200.814	22.53
201.033	8.19
201.252	-2.05
201.471	2.05
201.69	-6.14
201.909	92.16
202.128	-8.19
202.347	51.2
202.566	-8.19
202.785	-83.97
203.004	38.91
203.223	36.86
203.442	40.96
203.661	30.72
203.879	36.86
204.098	-28.67
204.317	-2.05
204.536	96.25
204.755	59.39
204.974	10.24
205.193	57.34
205.411	96.25
205.63	75.77
205.849	4.1
206.068	20.48
206.287	8.19
206.505	0
206.724	-2.05
206.943	47.1
207.162	6.14
207.381	14.34
207.599	14.34
207.818	-40.96
208.037	77.82
208.255	-2.05
208.474	90.11
208.693	-30.72
208.911	-16.38
209.13	18.43
209.349	38.91
209.567	-10.24
209.786	61.44
210.005	59.39
210.223	-55.3
210.442	49.15
210.661	-43.01
210.879	20.48
211.098	6.14
211.316	59.39
211.535	86.01
211.753	-26.62
211.972	-10.24
212.191	-8.19
212.409	-38.91
212.628	114.69
212.846	8.19
213.065	18.43
213.283	34.82
213.502	-18.43
213.72	2.05
213.938	32.77
214.157	63.49
214.375	16.38
214.594	-16.38
214.812	-40.96
215.031	98.3
215.249	26.62
215.467	-30.72
215.686	-4.1
215.904	75.77
216.122	-2.05
216.341	8.19
216.559	12.29
216.778	49.15
216.996	14.34
217.214	61.44
217.432	-6.14
217.651	40.96
217.869	-40.96
218.087	40.96
218.306	-10.24
218.524	47.1
218.742	-63.49
218.96	2.05
219.179	45.06
219.397	-16.38
219.615	63.49
219.833	-2.05
220.051	36.86
220.27	2.05
220.488	86.01
220.706	51.2
220.924	30.72
221.142	63.49
221.36	-20.48
221.578	-6.14
221.796	-16.38
222.015	-24.58
222.233	-6.14
222.451	36.86
222.669	-16.38
222.887	-2.05
223.105	43.01
223.323	36.86
223.541	-32.77
223.759	0
223.977	34.82
224.195	16.38
224.413	53.25
224.631	49.15
224.849	22.53
225.067	8.19
225.285	-6.14
225.503	59.39
225.721	-2.05
225.939	-24.58
226.157	112.64
226.375	-26.62
226.592	-12.29
226.81	30.72
227.028	-4.1
227.246	135.17
227.464	30.72
227.682	28.67
227.9	16.38
228.117	63.49
228.335	57.34
228.553	-4.1
228.771	-12.29
228.989	55.3
229.206	8.19
229.424	2.05
229.642	0
229.86	24.58
230.077	71.68
230.295	49.15
230.513	36.86
230.731	-2.05
230.948	114.69
231.166	-8.19
231.384	34.82
231.601	26.62
231.819	129.02
232.037	61.44
232.254	-22.53
232.472	20.48
232.689	65.54
232.907	69.63
233.125	-14.34
233.342	81.92
233.56	53.25
233.777	-16.38
233.995	26.62
234.213	2.05
234.43	16.38
234.648	-43.01
234.865	20.48
235.083	65.54
235.3	-20.48
235.518	26.62
235.735	59.39
235.953	22.53
236.17	38.91
236.388	69.63
236.605	0
236.822	61.44
237.04	-34.82
237.257	-51.2
237.475	-6.14
237.692	-14.34
237.909	6.14
238.127	8.19
238.344	38.91
238.562	26.62
238.779	-26.62
238.996	12.29
239.214	-32.77
239.431	139.26
239.648	28.67
239.865	-4.1
240.083	40.96
240.3	-61.44
240.517	-8.19
240.735	2.05
240.952	43.01
241.169	-18.43
241.386	-18.43
241.603	30.72
241.821	-38.91
242.038	26.62
242.255	40.96
242.472	-16.38
242.689	30.72
242.907	8.19
243.124	14.34
243.341	34.82
243.558	-6.14
243.775	40.96
243.992	59.39
244.209	-40.96
244.426	-24.58
244.643	-2.05
244.86	0
245.078	90.11
245.295	-12.29
245.512	-51.2
245.729	18.43
245.946	-77.82
246.163	4.1
246.38	22.53
246.597	30.72
246.814	71.68
247.031	12.29
247.248	36.86
247.464	-8.19
247.681	12.29
247.898	51.2
248.115	2.05
248.332	-6.14
248.549	40.96
248.766	-24.58
248.983	-30.72
249.2	-20.48
249.417	14.34
249.633	71.68
249.85	-16.38
250.067	-20.48
250.284	94.21
250.501	-28.67
250.717	-53.25
250.934	-8.19
251.151	34.82
251.368	36.86
251.585	24.58
251.801	-12.29
252.018	20.48
252.235	8.19
252.451	26.62
252.668	-14.34
252.885	43.01
253.102	-14.34
253.318	-28.67
253.535	67.58
253.752	55.3
253.968	16.38
254.185	71.68
254.401	22.53
254.618	16.38
254.835	14.34
255.051	-14.34
255.268	45.06
255.484	32.77
255.701	38.91
255.917	77.82
256.134	30.72
256.351	-45.06
256.567	18.43
256.784	43.01
257	32.77
257.217	61.44
257.433	32.77
257.65	-10.24
257.866	18.43
258.082	-24.58
258.299	20.48
258.515	-36.86
258.732	124.93
258.948	-71.68
259.165	22.53
259.381	-12.29
259.597	8.19
259.814	34.82
260.03	45.06
260.246	24.58
260.463	63.49
260.679	-34.82
260.895	45.06
261.112	88.06
261.328	77.82
261.544	-20.48
261.761	96.25
261.977	34.82
262.193	8.19
262.409	43.01
262.626	63.49
262.842	26.62
263.058	-34.82
263.274	-4.1
263.49	2.05
263.707	18.43
263.923	-34.82
264.139	-22.53
264.355	4.1
264.571	49.15
264.787	61.44
265.004	63.49
265.22	16.38
265.436	38.91
265.652	40.96
265.868	-12.29
266.084	36.86
266.3	22.53
266.516	-75.77
266.732	-20.48
266.948	30.72
267.164	51.2
267.38	34.82
267.596	53.25
267.812	18.43
268.028	36.86
268.244	47.1
268.46	116.73
268.676	12.29
268.892	-26.62
269.108	12.29
269.324	-28.67
269.54	73.73
269.756	24.58
269.972	18.43
270.188	61.44
270.403	83.97
270.619	26.62
270.835	-16.38
271.051	47.1
271.267	61.44
271.483	24.58
271.698	-2.05
271.914	-4.1
272.13	2.05
272.346	2.05
272.562	6.14
272.777	2.05
272.993	-57.34
273.209	22.53
273.425	36.86
273.64	-18.43
273.856	63.49
274.072	53.25
274.287	-4.1
274.503	57.34
274.719	-24.58
274.934	18.43
275.15	22.53
275.366	90.11
275.581	-24.58
275.797	71.68
276.012	57.34
276.228	59.39
276.444	6.14
276.659	135.17
276.875	-2.05
277.09	2.05
277.306	36.86
277.521	43.01
277.737	16.38
277.952	-22.53
278.168	12.29
278.383	83.97
278.599	10.24
278.814	-61.44
279.03	49.15
279.245	108.54
279.461	28.67
279.676	-2.05
279.892	-12.29
280.107	2.05
280.322	14.34
280.538	38.91
280.753	-71.68
280.969	38.91
281.184	53.25
281.399	69.63
281.615	47.1
281.83	20.48
282.045	57.34
282.26	-24.58
282.476	24.58
282.691	77.82
282.906	34.82
283.122	20.48
283.337	-59.39
283.552	104.45
283.767	24.58
283.983	73.73
284.198	38.91
284.413	53.25
284.628	-4.1
284.843	24.58
285.058	96.25
285.274	38.91
285.489	30.72
285.704	12.29
285.919	-20.48
286.134	67.58
286.349	12.29
286.564	49.15
286.779	47.1
286.995	24.58
287.21	-12.29
287.425	24.58
287.64	32.77
287.855	94.21
288.07	-59.39
288.285	86.01
288.5	-14.34
288.715	57.34
288.93	-51.2
289.145	12.29
289.36	2.05
289.575	8.19
289.79	77.82
290.004	43.01
290.219	-10.24
290.434	24.58
290.649	10.24
290.864	51.2
291.079	38.91
291.294	75.77
291.509	22.53
291.724	30.72
291.938	28.67
292.153	47.1
292.368	14.34
292.583	53.25
292.798	47.1
293.012	55.3
293.227	49.15
293.442	-10.24
293.657	65.54
293.871	26.62
294.086	57.34
294.301	26.62
294.516	63.49
294.73	-16.38
294.945	-26.62
295.16	61.44
295.374	12.29
295.589	34.82
295.804	-22.53
296.018	18.43
296.233	4.1
296.447	55.3
296.662	4.1
296.877	59.39
297.091	45.06
297.306	16.38
297.52	65.54
297.735	-34.82
297.949	-22.53
298.164	63.49
298.378	32.77
298.593	34.82
298.807	-12.29
299.022	20.48
299.236	38.91
299.451	-47.1
299.665	-53.25
299.88	-4.1
300.094	-8.19
300.309	2.05
300.523	43.01
300.737	0
300.952	-22.53
301.166	49.15
301.381	86.01
301.595	34.82
301.809	22.53
302.024	83.97
302.238	133.12
302.452	65.54
302.667	36.86
302.881	51.2
303.095	45.06
303.309	4.1
303.524	2.05
303.738	-16.38
303.952	36.86
304.166	0
304.381	-65.54
304.595	90.11
304.809	43.01
305.023	-38.91
305.237	24.58
305.452	30.72
305.666	28.67
305.88	32.77
306.094	53.25
306.308	28.67
306.522	43.01
306.736	55.3
306.95	26.62
307.164	51.2
307.379	-12.29
307.593	40.96
307.807	36.86
308.021	10.24
308.235	30.72
308.449	-40.96
308.663	-8.19
308.877	55.3
309.091	38.91
309.305	53.25
309.519	-4.1
309.733	53.25
309.947	-10.24
310.161	18.43
310.374	-45.06
310.588	4.1
310.802	-8.19
311.016	-16.38
311.23	-6.14
311.444	0
311.658	-20.48
311.872	67.58
312.085	47.1
312.299	-6.14
312.513	30.72
312.727	-14.34
312.941	22.53
313.154	45.06
313.368	20.48
313.582	71.68
313.796	0
314.009	139.26
314.223	53.25
314.437	10.24
314.651	40.96
314.864	40.96
315.078	-16.38
315.292	30.72
315.505	-10.24
315.719	18.43
315.933	83.97
316.146	30.72
316.36	65.54
316.573	24.58
316.787	16.38
317.001	63.49
317.214	57.34
317.428	30.72
317.641	-88.06
317.855	20.48
318.068	0
318.282	6.14
318.495	0
318.709	90.11
318.922	-28.67
319.136	71.68
319.349	24.58
319.563	36.86
319.776	14.34
319.99	-26.62
320.203	36.86
320.417	28.67
320.63	-18.43
320.843	55.3
321.057	8.19
321.27	40.96
321.483	22.53
321.697	40.96
321.91	47.1
322.124	0
322.337	96.25
322.55	10.24
322.763	83.97
322.977	2.05
323.19	40.96
323.403	34.82
323.617	28.67
323.83	40.96
324.043	-18.43
324.256	81.92
324.469	51.2
324.683	67.58
324.896	49.15
325.109	55.3
325.322	10.24
325.535	55.3
325.748	6.14
325.962	-24.58
326.175	0
326.388	32.77
326.601	51.2
326.814	26.62
327.027	45.06
327.24	49.15
327.453	10.24
327.666	63.49
327.879	57.34
328.092	-12.29
328.305	8.19
328.518	116.73
328.731	-26.62
328.944	6.14
329.157	30.72
329.37	14.34
329.583	75.77
329.796	18.43
330.009	24.58
330.222	79.87
330.435	92.16
330.648	2.05
330.861	30.72
331.073	45.06
331.286	67.58
331.499	38.91
331.712	65.54
331.925	-10.24
332.138	77.82
332.35	26.62
332.563	36.86
332.776	63.49
332.989	51.2
333.202	16.38
333.414	14.34
333.627	2.05
333.84	16.38
334.053	18.43
334.265	-2.05
334.478	73.73
334.691	10.24
334.903	-12.29
335.116	-6.14
335.329	-18.43
335.541	20.48
335.754	43.01
335.966	63.49
336.179	-22.53
336.392	63.49
336.604	-8.19
336.817	2.05
337.029	28.67
337.242	-18.43
337.454	49.15
337.667	45.06
337.88	92.16
338.092	-2.05
338.305	0
338.517	-55.3
338.729	32.77
338.942	69.63
339.154	2.05
339.367	53.25
339.579	30.72
339.792	57.34
340.004	26.62
340.217	6.14
340.429	43.01
340.641	18.43
340.854	40.96
341.066	59.39
341.278	81.92
341.491	83.97
341.703	75.77
341.915	-65.54
342.128	53.25
342.34	47.1
342.552	-16.38
342.764	2.05
342.977	-57.34
343.189	22.53
343.401	16.38
343.613	14.34
343.826	86.01
344.038	-40.96
344.25	26.62
344.462	38.91
344.674	18.43
344.886	-4.1
345.099	0
345.311	90.11
345.523	32.77
345.735	22.53
345.947	4.1
346.159	18.43
346.371	14.34
346.583	28.67
346.795	24.58
347.007	-20.48
347.219	0
347.431	-16.38
347.643	6.14
347.855	83.97
348.067	108.54
348.279	-20.48
348.491	8.19
348.703	65.54
348.915	-2.05
349.127	14.34
349.339	106.49
349.551	-28.67
349.763	-34.82
349.975	55.3
350.187	-8.19
350.399	116.73
350.61	100.35
350.822	20.48
351.034	36.86
351.246	12.29
351.458	-8.19
351.669	57.34
351.881	61.44
352.093	65.54
352.305	57.34
352.517	-2.05
352.728	55.3
352.94	77.82
353.152	51.2
353.363	51.2
353.575	30.72
353.787	63.49
353.999	-14.34
354.21	86.01
354.422	-4.1
354.633	-16.38
354.845	10.24
355.057	69.63
355.268	-8.19
355.48	59.39
355.692	59.39
355.903	26.62
356.115	55.3
356.326	20.48
356.538	10.24
356.749	45.06
356.961	-16.38
357.172	-10.24
357.384	55.3
357.595	96.25
357.807	126.97
358.018	49.15
358.23	6.14
358.441	30.72
358.653	26.62
358.864	45.06
359.075	-61.44
359.287	57.34
359.498	51.2
359.709	18.43
359.921	-14.34
360.132	-20.48
360.344	63.49
360.555	59.39
360.766	28.67
360.977	36.86
361.189	28.67
361.4	0
361.611	106.49
361.823	4.1
362.034	8.19
362.245	53.25
362.456	67.58
362.667	-83.97
362.879	30.72
363.09	26.62
363.301	43.01
363.512	-6.14
363.723	55.3
363.935	55.3
364.146	63.49
364.357	32.77
364.568	26.62
364.779	-71.68
364.99	69.63
365.201	-2.05
365.412	6.14
365.623	51.2
365.834	59.39
366.045	53.25
366.256	88.06
366.467	45.06
366.678	14.34
366.889	22.53
367.1	86.01
367.311	4.1
367.522	-53.25
367.733	98.3
367.944	-10.24
368.155	26.62
368.366	88.06
368.577	102.4
368.788	71.68
368.999	10.24
369.209	30.72
369.42	38.91
369.631	90.11
369.842	75.77
370.053	0
370.264	8.19
370.474	65.54
370.685	43.01
370.896	32.77
371.107	0
371.317	14.34
371.528	24.58
371.739	75.77
371.95	71.68
372.16	-51.2
372.371	26.62
372.582	22.53
372.792	71.68
373.003	0
373.214	-4.1
373.424	104.45
373.635	8.19
373.846	116.73
374.056	110.59
374.267	88.06
374.477	-18.43
374.688	43.01
374.898	61.44
375.109	14.34
375.319	36.86
375.53	98.3
375.74	65.54
375.951	61.44
376.161	4.1
376.372	14.34
376.582	10.24
376.793	2.05
377.003	77.82
377.214	67.58
377.424	53.25
377.635	38.91
377.845	51.2
378.055	129.02
378.266	-34.82
378.476	51.2
378.686	30.72
378.897	4.1
379.107	51.2
379.317	61.44
379.528	-8.19
379.738	86.01
379.948	-10.24
380.158	30.72
380.369	36.86
380.579	14.34
380.789	51.2
380.999	14.34
381.21	-4.1
381.42	75.77
381.63	47.1
381.84	30.72
382.05	43.01
382.261	14.34
382.471	40.96
382.681	36.86
382.891	73.73
383.101	14.34
383.311	51.2
383.521	36.86
383.731	90.11
383.941	-32.77
384.151	69.63
384.361	71.68
384.571	36.86
384.781	28.67
384.991	83.97
385.201	55.3
385.411	45.06
385.621	118.78
385.831	47.1
386.041	112.64
386.251	38.91
386.461	8.19
386.671	22.53
386.881	22.53
387.091	49.15
387.301	98.3
387.511	45.06
387.72	51.2
387.93	8.19
388.14	8.19
388.35	77.82
388.56	59.39
388.769	34.82
388.979	106.49
389.189	14.34
389.399	92.16
389.609	75.77
389.818	65.54
390.028	43.01
390.238	100.35
390.447	65.54
390.657	10.24
390.867	83.97
391.076	24.58
391.286	86.01
391.496	106.49
391.705	-14.34
391.915	34.82
392.125	92.16
392.334	79.87
392.544	73.73
392.753	-6.14
392.963	55.3
393.172	108.54
393.382	0
393.591	67.58
393.801	49.15
394.01	38.91
394.22	73.73
394.429	14.34
394.639	18.43
394.848	83.97
395.058	92.16
395.267	63.49
395.477	81.92
395.686	49.15
395.895	63.49
396.105	116.73
396.314	147.45
396.524	67.58
396.733	102.4
396.942	28.67
397.152	14.34
397.361	88.06
397.57	-36.86
397.78	30.72
397.989	38.91
398.198	96.25
398.407	43.01
398.617	55.3
398.826	75.77
399.035	98.3
399.244	45.06
399.453	90.11
399.663	24.58
399.872	131.07
400.081	98.3
400.29	104.45
400.499	14.34
400.708	112.64
400.917	98.3
401.127	108.54
401.336	90.11
401.545	32.77
401.754	116.73
401.963	129.02
402.172	43.01
402.381	69.63
402.59	45.06
402.799	110.59
403.008	69.63
403.217	110.59
403.426	135.17
403.635	120.83
403.844	110.59
404.053	69.63
404.262	38.91
404.471	129.02
404.68	129.02
404.888	104.45
405.097	57.34
405.306	77.82
405.515	106.49
405.724	118.78
405.933	59.39
406.142	75.77
406.35	40.96
406.559	116.73
406.768	114.69
406.977	233.47
407.185	47.1
407.394	137.21
407.603	114.69
407.812	131.07
408.02	139.26
408.229	182.27
408.438	159.74
408.646	141.31
408.855	184.32
409.064	188.41
409.272	208.89
409.481	172.03
409.69	169.98
409.898	231.42
410.107	180.22
410.315	221.18
410.524	178.17
410.733	196.61
410.941	219.13
411.15	256
411.358	276.48
411.567	325.63
411.775	194.56
411.984	282.62
412.192	247.8
412.401	382.97
412.609	317.44
412.818	354.3
413.026	415.74
413.234	333.82
413.443	288.76
413.651	325.63
413.86	389.11
414.068	428.03
414.276	393.21
414.485	358.39
414.693	468.98
414.901	516.09
415.11	464.89
415.318	477.18
415.526	425.98
415.734	555
415.943	501.75
416.151	524.28
416.359	569.34
416.567	573.43
416.776	602.1
416.984	634.87
417.192	608.25
417.4	667.64
417.608	659.45
417.817	724.98
418.025	823.28
418.233	761.84
418.441	778.23
418.649	774.13
418.857	815.09
419.065	933.87
419.273	864.24
419.481	1040.37
419.689	933.87
419.897	1017.84
420.105	1081.33
420.313	1032.18
420.521	1087.47
420.729	1099.76
420.937	1169.39
421.145	1159.15
421.353	1230.83
421.561	1292.27
421.769	1222.64
421.977	1382.38
422.185	1368.04
422.393	1517.54
422.601	1578.98
422.809	1525.74
423.017	1468.39
423.224	1660.9
423.432	1716.2
423.64	1712.1
423.848	1900.52
424.056	1841.12
424.263	1892.32
424.471	1880.04
424.679	1961.95
424.887	2103.26
425.094	2099.17
425.302	2133.98
425.51	2203.61
425.718	2205.66
425.925	2353.12
426.133	2324.44
426.341	2551.77
426.548	2588.63
426.756	2635.74
426.964	2844.63
427.171	2865.11
427.379	2906.07
427.586	3061.71
427.794	3016.66
428.001	3323.85
428.209	3272.65
428.417	3246.03
428.624	3479.5
428.832	3389.39
429.039	3518.41
429.247	3399.63
429.454	3766.21
429.662	3874.76
429.869	3715.02
430.076	4022.21
430.284	3934.15
430.491	4155.33
430.699	4233.15
430.906	4378.56
431.114	4413.37
431.321	4564.92
431.528	4708.28
431.736	4925.36
431.943	5185.46
432.15	4825.01
432.358	5050.29
432.565	5291.95
432.772	5253.04
432.979	5521.32
433.187	5601.19
433.394	5711.78
433.601	6152.1
433.808	6217.63
434.016	6156.19
434.223	6281.12
434.43	6829.98
434.637	6479.77
434.844	6963.09
435.052	7155.6
435.259	7067.54
435.466	7022.48
435.673	7104.4
435.88	7450.51
436.087	7790.47
436.294	7874.44
436.501	7896.97
436.708	8034.18
436.915	8382.34
437.122	8497.02
437.329	8660.86
437.537	8945.53
437.743	8943.48
437.95	8884.09
438.157	9492.34
438.364	9690.99
438.571	9625.45
438.778	9594.73
438.985	10428.26
439.192	10360.67
439.399	10432.35
439.606	10426.21
439.813	11056.98
440.02	11540.3
440.227	11497.3
440.433	11272.02
440.64	11437.91
440.847	11476.82
441.054	11818.83
441.261	12461.89
441.467	12521.28
441.674	12660.54
441.881	13127.48
442.088	12918.59
442.294	13131.58
442.501	13279.03
442.708	13598.51
442.914	14065.45
443.121	14649.12
443.328	14350.12
443.534	15318.81
443.741	14841.63
443.948	14788.38
444.154	15939.34
444.361	15771.41
444.568	15857.42
444.774	15761.17
444.981	15861.52
445.187	16326.41
445.394	17219.32
445.6	16834.3
445.807	18575.08
446.013	17960.69
446.22	18173.67
446.426	18798.31
446.633	18839.26
446.839	19597.01
447.046	18786.02
447.252	20035.28
447.459	20057.81
447.665	19807.95
447.871	20719.3
448.078	21759.67
448.284	20754.12
448.491	21147.33
448.697	22081.2
448.903	22429.35
449.11	22591.14
449.316	21913.27
449.522	22376.11
449.728	23119.52
449.935	23320.22
450.141	23256.73
450.347	23668.37
450.553	22845.09
450.76	23340.7
450.966	23973.52
451.172	23791.25
451.378	24262.29
451.584	23502.49
451.791	24354.44
451.997	24192.65
452.203	24542.86
452.409	24983.17
452.615	24835.72
452.821	23574.17
453.027	23508.63
453.233	24893.06
453.44	23840.4
453.646	24069.78
453.852	24250
454.058	24493.71
454.264	23668.37
454.47	24544.91
454.676	23713.43
454.882	24424.08
455.088	22355.63
455.294	22771.36
455.5	23037.6
455.705	23078.56
455.911	22320.81
456.117	22027.95
456.323	21581.49
456.529	20557.51
456.735	21429.94
456.941	20639.43
457.147	20401.86
457.352	19957.46
457.558	19582.68
457.764	19826.39
457.97	19363.54
458.176	18734.82
458.381	18728.67
458.587	17960.69
458.793	17860.34
458.999	16957.18
459.204	18198.25
459.41	17813.23
459.616	16447.24
459.821	16185.1
460.027	16652.03
460.233	15922.96
460.438	15269.65
460.644	15511.32
460.85	14700.32
461.055	14620.45
461.261	14651.17
461.466	13479.73
461.672	13045.56
461.878	13973.29
462.083	13055.8
462.289	12855.1
462.494	12959.55
462.7	12160.84
462.905	11917.13
463.111	12150.6
463.316	12404.55
463.522	11945.8
463.727	12142.41
463.932	11882.31
464.138	11595.6
464.343	11908.94
464.549	11452.24
464.754	11947.85
464.959	11745.1
465.165	11937.61
465.37	11163.48
465.575	10956.63
465.781	11417.43
465.986	11403.09
466.191	11046.74
466.397	10960.73
466.602	10291.04
466.807	10651.49
467.012	10657.63
467.218	10665.82
467.423	10780.51
467.628	10520.42
467.833	11052.89
468.038	10583.9
468.244	10469.22
468.449	10704.73
468.654	10526.56
468.859	10299.23
469.064	10088.29
469.269	9852.78
469.474	9918.31
469.679	10305.38
469.885	9959.27
470.09	9953.13
470.295	9979.75
470.5	9725.8
470.705	9582.45
470.91	9381.74
471.115	9342.83
471.32	9666.41
471.525	9731.95
471.73	9414.51
471.935	9168.76
472.139	8931.19
472.344	9002.87
472.549	8978.3
472.754	8914.81
472.959	8787.83
473.164	8638.33
473.369	8337.28
473.574	8624
473.778	8679.29
473.983	8636.28
474.188	8480.64
474.393	8064.9
474.598	8193.92
474.802	8120.2
475.007	8200.07
475.212	8200.07
475.417	7751.56
475.621	7706.51
475.826	7735.18
476.031	7706.51
476.235	7475.09
476.44	7485.33
476.645	7415.69
476.849	7706.51
477.054	7460.75
477.259	7264.15
477.463	7436.17
477.668	7161.75
477.872	7190.42
478.077	7006.1
478.282	6860.7
478.486	6889.37
478.691	6854.55
478.895	6889.37
479.1	6694.81
479.304	6832.02
479.509	6502.3
479.713	6694.81
479.918	6528.92
480.122	6227.87
480.326	6524.83
480.531	6397.85
480.735	6264.74
480.94	6252.45
481.144	6408.09
481.348	6344.61
481.553	6406.05
481.757	6252.45
481.961	6336.42
482.166	6518.68
482.37	6203.3
482.574	6176.67
482.778	6326.18
482.983	6571.93
483.187	6393.76
483.391	6293.41
483.595	6137.76
483.8	6070.18
484.004	6211.49
484.208	6367.13
484.412	6250.4
484.616	6264.74
484.821	6268.83
485.025	6059.94
485.229	6322.08
485.433	6268.83
485.637	6125.47
485.841	6199.2
486.045	6240.16
486.249	6358.94
486.453	6025.12
486.657	6176.67
486.861	6045.6
487.065	6123.43
487.269	6301.6
487.473	6137.76
487.677	6197.15
487.881	6391.71
488.085	6270.88
488.289	6227.87
488.493	6223.78
488.697	6297.5
488.901	6350.75
489.105	6360.99
489.309	6313.89
489.512	6408.09
489.716	6270.88
489.92	6432.67
490.124	6311.84
490.328	6442.91
490.531	6399.9
490.735	6647.71
490.939	6606.75
491.143	6549.4
491.346	6342.56
491.55	6516.64
491.754	6471.58
491.958	6373.28
492.161	6510.49
492.365	6510.49
492.569	6530.97
492.772	6608.8
492.976	6770.58
493.18	6735.77
493.383	6807.45
493.587	6823.83
493.79	6985.62
493.994	6825.88
494.197	7063.44
494.401	6813.59
494.605	7161.75
494.808	7053.2
495.012	7071.64
495.215	6868.89
495.419	7169.94
495.622	7049.11
495.825	7321.49
496.029	7163.79
496.232	7618.44
496.436	7475.09
496.639	7632.78
496.843	7501.71
497.046	7569.29
497.249	7872.39
497.453	7645.07
497.656	7841.67
497.859	7954.31
498.063	7995.27
498.266	8116.1
498.469	8224.64
498.673	8189.83
498.876	8597.37
499.079	8548.22
499.282	8339.33
499.485	8578.94
499.689	8720.25
499.892	8591.23
500.095	8963.96
500.298	8941.43
500.501	8884.09
500.705	9103.22
500.908	9367.41
501.111	9420.66
501.314	9457.52
501.517	9424.75
501.72	9543.53
501.923	9668.46
502.126	9889.64
502.329	10045.29
502.532	10090.34
502.735	10092.39
502.938	10286.95
503.141	10190.69
503.344	10516.32
503.547	10700.64
503.75	10751.84
503.953	10794.84
504.156	11030.36
504.359	10915.67
504.562	10958.68
504.765	11466.58
504.968	11337.55
505.17	11491.15
505.373	11452.24
505.576	11781.96
505.779	11935.56
505.982	12164.93
506.185	12277.57
506.387	12324.68
506.59	12435.27
506.793	12558.14
506.996	12640.06
507.198	12830.52
507.401	12742.46
507.604	13107
507.807	13270.84
508.009	13217.59
508.212	13489.97
508.415	13733.68
508.617	13823.79
508.82	13932.33
509.022	13971.24
509.225	14030.63
509.428	14262.05
509.63	14212.9
509.833	14358.31
510.035	14931.74
510.238	14706.46
510.44	14929.69
510.643	15007.51
510.845	15433.49
511.048	15197.98
511.25	15474.45
511.453	15501.08
511.655	16117.51
511.858	15955.72
512.06	16250.63
512.262	16353.03
512.465	16297.74
512.667	16529.16
512.87	16586.5
513.072	16637.7
513.274	16973.56
513.477	17204.99
513.679	17303.29
513.881	17676.02
514.084	17608.44
514.286	17751.79
514.488	17833.71
514.69	18458.34
514.893	18233.07
515.095	18444.01
515.297	18777.83
515.499	18720.48
515.701	19175.13
515.904	19298.01
516.106	19277.53
516.308	19388.12
516.51	19775.19
516.712	19654.36
516.914	19689.17
517.116	20225.74
517.318	20618.95
517.52	20446.92
517.722	20426.44
517.925	20842.18
518.127	20924.1
518.329	20866.75
518.531	20981.44
518.733	21427.9
518.935	21839.54
519.136	21679.8
519.338	22060.72
519.54	22183.6
519.742	22527.66
519.944	22357.67
520.146	22775.46
520.348	23066.27
520.55	23279.26
520.752	22988.45
520.954	23789.2
521.155	23262.88
521.357	23778.97
521.559	24194.7
521.761	24413.84
521.963	24338.06
522.164	24135.31
522.366	24891.01
522.568	24886.92
522.77	25132.67
522.971	25316.99
523.173	25038.47
523.375	25572.99
523.576	25726.58
523.778	25560.7
523.98	26066.55
524.181	25972.34
524.383	26238.58
524.584	26711.66
524.786	26515.05
524.988	26416.75
525.189	26844.77
525.391	26740.33
525.592	27072.1
525.794	27154.02
525.995	27326.05
526.197	27248.22
526.398	27711.07
526.6	27876.95
526.801	27897.43
527.003	28071.51
527.204	28026.45
527.406	27997.78
527.607	28143.19
527.808	28712.52
528.01	28352.08
528.211	28550.73
528.412	28900.93
528.614	28673.61
528.815	28864.07
529.016	28991.05
529.218	28831.3
529.419	29011.53
529.62	29298.24
529.822	29247.04
530.023	29130.31
530.224	29107.78
530.425	29333.06
530.626	29634.11
530.828	29105.73
531.029	30068.28
531.23	29713.98
531.431	29709.88
531.632	29812.28
531.833	29943.35
532.035	29697.59
532.236	29744.7
532.437	29820.47
532.638	29904.44
532.839	29843
533.04	29969.97
533.241	29630.01
533.442	30510.64
533.643	30316.08
533.844	30322.23
534.045	29994.55
534.246	29967.93
534.447	30375.47
534.648	29974.07
534.849	30121.52
535.05	30119.48
535.251	30201.4
535.451	30496.3
535.652	30295.6
535.853	30402.1
536.054	30352.94
536.255	30252.59
536.456	30053.94
536.657	30713.39
536.857	30295.6
537.058	30600.75
537.259	30113.33
537.46	30412.34
537.66	30041.65
537.861	30262.83
538.062	30082.61
538.263	30342.7
538.463	30375.47
538.664	30152.24
538.865	30406.19
539.065	30350.9
539.266	29867.58
539.466	30416.43
539.667	30254.64
539.868	30512.69
540.068	30461.49
540.269	30350.9
540.469	30654
540.67	30113.33
540.87	30185.01
541.071	30496.3
541.271	30613.04
541.472	30254.64
541.672	29961.78
541.873	30436.91
542.073	30096.95
542.274	30359.09
542.474	30508.59
542.675	30092.85
542.875	30570.03
543.075	30412.34
543.276	29922.87
543.476	30750.25
543.676	30275.12
543.877	30406.19
544.077	30535.21
544.277	30346.8
544.478	30121.52
544.678	30180.92
544.878	30275.12
545.078	30150.2
545.279	30111.28
545.479	30330.42
545.679	30275.12
545.879	30281.27
546.079	30076.47
546.28	30242.35
546.48	30187.06
546.68	30293.55
546.88	30477.87
547.08	30268.98
547.28	30082.61
547.48	29947.45
547.68	30344.75
547.88	30129.72
548.081	30189.11
548.281	29918.78
548.481	30064.18
548.681	30490.16
548.881	30053.94
549.081	30090.8
549.28	30314.03
549.48	30201.4
549.68	30088.76
549.88	30443.06
550.08	30107.19
550.28	30363.18
550.48	29603.39
550.68	30383.66
550.88	29656.64
551.08	30189.11
551.279	30289.46
551.479	29738.55
551.679	30479.92
551.879	29982.26
552.079	30189.11
552.278	29902.39
552.478	30129.72
552.678	30215.73
552.878	30379.57
553.077	29847.1
553.277	29503.04
553.477	30234.16
553.676	29724.22
553.876	29861.43
554.076	29769.27
554.275	29920.82
554.475	29548.09
554.674	30072.37
554.874	29685.31
555.074	29799.99
555.273	29460.03
555.473	30150.2
555.672	29480.51
555.872	29509.18
556.071	29601.34
556.271	29920.82
556.47	29535.81
556.67	29513.28
556.869	29376.06
557.068	29599.29
557.268	29333.06
557.467	29238.85
557.667	29662.78
557.866	29331.01
558.065	29533.76
558.265	29554.24
558.464	29060.68
558.663	29541.95
558.863	28804.68
559.062	29589.05
559.261	28542.54
559.461	29361.73
559.66	28950.09
559.859	28974.66
560.058	28606.03
560.258	28827.21
560.457	28751.43
560.656	28728.91
560.855	28792.39
561.054	28954.18
561.253	28489.29
561.453	28526.16
561.652	28603.98
561.851	28620.36
562.05	28173.91
562.249	28128.85
562.448	28667.47
562.647	28204.63
562.846	28065.36
563.045	28370.51
563.244	27922.01
563.443	28405.33
563.642	27829.85
563.841	27958.87
564.04	28190.29
564.239	28268.11
564.438	27506.27
564.637	27758.17
564.836	27891.29
565.035	27448.93
565.234	27698.78
565.432	27580
565.631	27289.18
565.83	27528.8
566.029	27473.5
566.228	27078.24
566.427	27197.02
566.625	27008.61
566.824	27084.39
567.023	27160.16
567.222	26938.98
567.42	27164.26
567.619	27149.92
567.818	26816.1
568.016	27018.85
568.215	26785.38
568.414	26594.92
568.612	26889.83
568.811	26635.88
569.01	26590.83
569.208	26304.11
569.407	26611.31
569.605	25984.63
569.804	26367.6
570.002	25904.76
570.201	26293.87
570.4	25751.16
570.598	26089.07
570.797	25478.78
570.995	26125.94
571.193	25630.33
571.392	25910.9
571.59	25568.89
571.789	25480.83
571.987	25298.56
572.186	25368.19
572.384	25362.04
572.582	25280.13
572.781	25290.37
572.979	24815.24
573.177	25013.89
573.376	25452.16
573.574	25114.24
573.772	24888.96
573.971	24725.13
574.169	24637.06
574.367	24723.08
574.565	24766.09
574.763	24616.58
574.962	24348.3
575.16	24268.43
575.358	24198.8
575.556	24104.59
575.754	24385.16
575.952	23996.05
576.151	24405.64
576.349	23699.09
576.547	23914.13
576.745	24008.34
576.943	24055.44
577.141	23608.98
577.339	23912.08
577.537	23613.08
577.735	23377.56
577.933	23729.81
578.131	23455.39
578.329	23469.72
578.527	23365.28
578.725	23340.7
578.923	23197.34
579.121	23193.25
579.319	22910.63
579.516	22970.02
579.714	23094.94
579.912	22865.57
580.11	22845.09
580.308	22728.36
580.506	22773.41
580.704	22251.18
580.901	22404.78
581.099	22834.85
581.297	22310.57
581.495	22206.13
581.692	22711.97
581.89	22183.6
582.088	22242.99
582.285	22298.28
582.483	22253.23
582.681	22132.4
582.878	22113.97
583.076	21833.39
583.274	22066.86
583.471	21782.2
583.669	21837.49
583.866	21999.28
584.064	21755.57
584.262	21282.49
584.459	22113.97
584.657	21253.82
584.854	21653.17
585.052	21167.81
585.249	21315.26
585.447	21755.57
585.644	21118.65
585.841	21327.55
586.039	21608.12
586.236	21036.73
586.434	20983.49
586.631	20776.64
586.828	20823.75
587.026	20846.27
587.223	20588.23
587.42	20559.56
587.618	20848.32
587.815	20383.43
588.012	20422.34
588.21	20676.29
588.407	20508.36
588.604	20215.5
588.801	20475.59
588.999	20096.72
589.196	20131.53
589.393	19842.77
589.59	20025.04
589.787	19936.98
589.984	19936.98
590.182	19668.69
590.379	19588.82
590.576	19678.93
590.773	19742.42
590.97	19513.05
591.167	19467.99
591.364	19427.03
591.561	19556.05
591.758	19224.28
591.955	19152.6
592.152	19373.78
592.349	19017.44
592.546	19189.47
592.743	18874.08
592.94	19009.25
593.137	19052.25
593.334	18943.71
593.531	18722.53
593.727	19039.97
593.924	18861.79
594.121	18597.6
594.318	18738.91
594.515	18558.69
594.712	19072.73
594.908	18458.34
595.105	18562.79
595.302	18364.14
595.499	18288.36
595.696	18491.11
595.892	18278.12
596.089	18241.26
596.286	18095.85
596.482	18145
596.679	17993.45
596.876	18153.19
597.072	17970.93
597.269	17938.16
597.466	17948.4
597.662	17901.29
597.859	17608.44
598.055	17649.39
598.252	17577.72
598.448	17721.07
598.645	17489.65
598.841	17528.56
599.038	17495.8
599.234	17329.91
599.431	16975.61
599.627	17245.94
599.824	17291
600.02	17035
600.217	16936.7
600.413	17180.41
600.609	17182.46
600.806	16805.63
601.002	16942.85
601.198	16758.53
601.395	16779.01
601.591	16754.43
601.787	16613.12
601.984	16609.03
602.18	16432.9
602.376	16817.92
602.572	16576.26
602.769	16482.05
602.965	16322.31
603.161	16355.08
603.357	16219.91
603.553	16183.05
603.75	16277.26
603.946	16111.37
604.142	16101.13
604.338	16041.74
604.534	16097.03
604.73	15886.09
604.926	15904.53
605.122	16252.68
605.318	16000.78
605.514	15834.89
605.71	15398.68
605.906	15632.15
606.102	15638.29
606.298	15425.3
606.494	15376.15
606.69	15531.79
606.886	15795.98
607.082	15548.18
607.278	15613.71
607.474	15146.78
607.67	15318.81
607.866	15329.05
608.062	15601.43
608.257	14980.89
608.453	15202.07
608.649	15271.7
608.845	15042.33
609.041	14849.82
609.236	15136.54
609.432	15060.76
609.628	15089.43
609.824	14905.12
610.019	14917.4
610.215	15073.05
610.411	14817.05
610.606	14984.99
610.802	14831.39
610.998	14833.44
611.193	14704.42
611.389	14624.54
611.584	14538.53
611.78	14552.87
611.976	14520.1
612.171	14573.35
612.367	14665.5
612.562	14354.21
612.758	14288.68
612.953	14386.98
613.149	14419.75
613.344	14184.23
613.539	14546.72
613.735	14333.73
613.93	14348.07
614.126	14335.78
614.321	14485.28
614.517	14253.86
614.712	14087.98
614.907	14241.57
615.103	14128.94
615.298	14028.59
615.493	14409.51
615.688	14133.03
615.884	14151.46
616.079	13887.28
616.274	13903.66
616.47	13983.53
616.665	13850.41
616.86	13776.69
617.055	13766.45
617.25	13768.49
617.445	13874.99
617.641	13453.11
617.836	13856.56
618.031	13594.42
618.226	13764.4
618.421	13492.02
618.616	13641.52
618.811	13346.61
619.006	13479.73
619.201	13252.41
619.396	13254.45
619.591	13082.42
619.786	13195.06
619.981	13029.18
620.176	13229.88
620.371	12838.72
620.566	13023.03
620.761	12982.07
620.956	13119.29
621.151	13006.65
621.346	12834.62
621.541	12545.86
621.735	13006.65
621.93	12549.95
622.125	12494.66
622.32	12355.4
622.515	12465.99
622.709	12318.53
622.904	12355.4
623.099	12222.28
623.294	12209.99
623.488	12093.26
623.683	12267.33
623.878	11788.11
624.072	11888.46
624.267	11931.47
624.462	11736.91
624.656	11376.47
624.851	11446.1
625.046	11573.07
625.24	11624.27
625.435	11589.46
625.629	11421.52
625.824	11530.06
626.018	11386.71
626.213	10991.45
626.407	11269.97
626.602	11099.99
626.796	11102.04
626.991	11147.09
627.185	11085.65
627.38	10829.66
627.574	10909.53
627.768	10653.53
627.963	10604.38
628.157	10710.88
628.352	10573.66
628.546	10274.66
628.74	10518.37
628.935	10461.02
629.129	10348.39
629.323	10413.92
629.517	10239.84
629.712	10102.63
629.906	10323.81
630.1	9910.12
630.294	10008.42
630.489	10157.92
630.683	10035.05
630.877	9830.25
631.071	9760.62
631.265	9725.8
631.459	9688.94
631.653	9641.84
631.848	9832.3
632.042	9521.01
632.236	9439.09
632.43	9389.94
632.624	9418.61
632.818	9267.06
633.012	9361.27
633.206	9275.25
633.4	9271.15
633.594	9168.76
633.788	9119.6
633.982	9127.8
634.176	9199.48
634.369	9054.07
634.563	8822.65
634.757	8904.57
634.951	8992.63
635.145	8828.79
635.339	8673.15
635.533	8720.25
635.726	9060.21
635.92	8505.21
636.114	8615.8
636.308	8595.32
636.501	8408.96
636.695	8619.9
636.889	8497.02
637.083	8277.89
637.276	8404.86
637.47	8150.92
637.664	8263.55
637.857	8148.87
638.051	8243.07
638.244	8099.72
638.438	7980.93
638.632	8032.13
638.825	8132.48
639.019	7802.76
639.212	7894.92
639.406	7995.27
639.599	7696.27
639.793	7808.9
639.986	7673.74
640.18	7759.75
640.373	7735.18
640.567	7532.43
640.76	7526.29
640.954	7397.26
641.147	7520.14
641.34	7399.31
641.534	7290.77
641.727	7251.86
641.92	7272.34
642.114	7319.44
642.307	7083.92
642.5	7370.64
642.694	6922.13
642.887	7157.65
643.08	7157.65
643.273	7024.53
643.467	7106.45
643.66	6879.13
643.853	7006.1
644.046	6758.3
644.239	6799.26
644.432	6610.84
644.626	6926.23
644.819	6784.92
645.012	6940.57
645.205	6770.58
645.398	6666.14
645.591	6633.37
645.784	6569.88
645.977	6559.64
646.17	6674.33
646.363	6371.23
646.556	6397.85
646.749	6223.78
646.942	6436.77
647.135	6277.02
647.328	6324.13
647.521	6348.7
647.714	6258.59
647.907	6123.43
648.099	6254.5
648.292	6268.83
648.485	6129.57
648.678	6150.05
648.871	5869.48
649.064	5928.87
649.256	5971.88
649.449	6004.64
649.642	5902.25
649.835	5998.5
650.027	5926.82
650.22	6064.04
650.413	5945.25
650.605	5832.61
650.798	5898.15
650.991	5812.14
651.183	5785.51
651.376	5625.77
651.568	5568.43
651.761	5605.29
651.954	5633.96
652.146	5527.47
652.339	5484.46
652.531	5480.36
652.724	5400.49
652.916	5357.49
653.109	5373.87
653.301	5351.34
653.494	5441.45
653.686	5312.43
653.879	5365.68
654.071	5314.48
654.263	5210.03
654.456	5236.66
654.648	5207.98
654.84	5099.44
655.033	5152.69
655.225	4923.32
655.417	5128.11
655.61	5203.89
655.802	4900.79
655.994	4960.18
656.186	5099.44
656.379	4925.36
656.571	4964.28
656.763	4865.97
656.955	4763.58
657.148	4980.66
657.34	4794.29
657.532	4878.26
657.724	4843.45
657.916	4853.69
658.108	4820.92
658.3	4681.66
658.492	4569.02
658.684	4638.65
658.876	4609.98
659.068	4646.84
659.26	4544.44
659.452	4523.96
659.644	4487.1
659.836	4513.72
660.028	4571.07
660.22	4483
660.412	4509.63
660.604	4300.73
660.796	4366.27
660.988	4474.81
661.18	4317.12
661.372	4272.06
661.563	4470.72
661.755	4282.3
661.947	4302.78
662.139	4319.17
662.331	4286.4
662.522	4270.01
662.714	4224.96
662.906	4323.26
663.097	4308.93
663.289	4085.7
663.481	4130.75
663.673	4208.58
663.864	4075.46
664.056	3956.68
664.247	4044.74
664.439	3940.29
664.631	4165.57
664.822	4069.31
665.014	3936.2
665.205	4071.36
665.397	3905.48
665.588	3975.11
665.78	3786.69
665.971	3786.69
666.163	3813.32
666.354	3975.11
666.546	3811.27
666.737	3866.56
666.929	3827.65
667.12	3866.56
667.311	3858.37
667.503	3682.25
667.694	3751.88
667.885	3665.86
668.077	3755.97
668.268	3614.66
668.459	3700.68
668.651	3731.4
668.842	3669.96
669.033	3655.62
669.224	3549.13
669.416	3786.69
669.607	3577.8
669.798	3547.08
669.989	3538.89
670.18	3514.31
670.371	3483.59
670.563	3522.51
670.754	3399.63
670.945	3528.65
671.136	3639.24
671.327	3434.44
671.518	3377.1
671.709	3295.18
671.9	3387.34
672.091	3434.44
672.282	3442.64
672.473	3282.89
672.664	3422.16
672.855	3405.77
673.046	3293.13
673.237	3364.81
673.428	3325.9
673.619	3469.26
673.809	3323.85
674	3325.9
674.191	3332.05
674.382	3303.37
674.573	3246.03
674.764	3340.24
674.954	3262.41
675.145	3286.99
675.336	3211.21
675.527	3229.65
675.717	3250.13
675.908	3327.95
676.099	3194.83
676.289	3289.04
676.48	3307.47
676.671	3213.26
676.861	3086.29
677.052	3270.61
677.243	3153.87
677.433	3293.13
677.624	3139.54
677.814	3166.16
678.005	3172.3
678.195	3327.95
678.386	3151.82
678.576	3006.42
678.767	3022.8
678.957	3188.69
679.148	3119.06
679.338	3119.06
679.529	3231.69
679.719	3084.24
679.909	3213.26
680.1	3098.58
680.29	3176.4
680.481	3129.3
680.671	3153.87
680.861	3125.2
681.052	3022.8
681.242	3090.38
681.432	3117.01
681.622	3049.43
681.813	3102.67
682.003	3014.61
682.193	2975.7
682.383	3176.4
682.573	3117.01
682.764	2949.07
682.954	3123.15
683.144	3190.74
683.334	3076.05
683.524	3184.59
683.714	3041.23
683.904	2942.93
684.094	2949.07
684.284	2961.36
684.474	3176.4
684.664	3121.1
684.854	2926.55
685.044	2883.54
685.234	2934.74
685.424	3028.95
685.614	2996.18
685.804	2856.92
685.994	2885.59
686.184	2940.88
686.374	2918.36
686.564	2766.81
686.753	2766.81
686.943	2858.96
687.133	2850.77
687.323	2840.53
687.513	2748.37
687.702	2754.52
687.892	2779.09
688.082	2826.2
688.272	2750.42
688.461	2813.91
688.651	2877.4
688.841	2701.27
689.03	2736.09
689.22	2738.13
689.41	2678.74
689.599	2783.19
689.789	2643.93
689.979	2670.55
690.168	2740.18
690.358	2645.98
690.547	2654.17
690.737	2627.54
690.926	2672.6
691.116	2635.74
691.305	2514.91
691.495	2537.43
691.684	2607.06
691.874	2652.12
692.063	2549.72
692.252	2516.95
692.442	2541.53
692.631	2508.76
692.82	2492.38
693.01	2611.16
693.199	2482.14
693.388	2471.9
693.578	2430.94
693.767	2535.39
693.956	2416.6
694.146	2508.76
694.335	2451.42
694.524	2535.39
694.713	2340.83
694.902	2375.64
695.092	2475.99
695.281	2406.36
695.47	2404.32
695.659	2246.62
695.848	2338.78
696.037	2449.37
696.226	2437.08
696.415	2389.98
696.604	2521.05
696.793	2297.82
696.982	2385.88
697.171	2328.54
697.36	2230.24
697.549	2346.97
697.738	2416.6
697.927	2424.8
698.116	2254.81
698.305	2312.16
698.494	2217.95
698.683	2385.88
698.872	2363.36
699.061	2297.82
699.25	2326.49
699.438	2275.29
699.627	2283.49
699.816	2373.6
700.005	2314.2
700.193	2404.32
700.382	2269.15
700.571	2181.09
700.76	2297.82
700.948	2322.4
701.137	2285.53
701.326	2295.77
701.514	2410.46
701.703	2336.73
701.892	2275.29
702.08	2277.34
702.269	2324.44
702.457	2330.59
702.646	2326.49
702.834	2273.25
703.023	2211.81
703.212	2273.25
703.4	2308.06
703.589	2240.48
703.777	2314.2
703.965	2367.45
704.154	2285.53
704.342	2342.88
704.531	2349.02
704.719	2303.96
704.907	2353.12
705.096	2193.37
705.284	2224.09
705.472	2328.54
705.661	2283.49
705.849	2310.11
706.037	2265.05
706.226	2279.39
706.414	2349.02
706.602	2314.2
706.79	2312.16
706.979	2246.62
707.167	2344.92
707.355	2297.82
707.543	2273.25
707.731	2404.32
707.919	2230.24
708.107	2246.62
708.296	2361.31
708.484	2260.96
708.672	2453.47
708.86	2277.34
709.048	2303.96
709.236	2303.96
709.424	2414.56
709.612	2252.77
709.8	2252.77
709.988	2195.42
710.176	2355.16
710.364	2326.49
710.551	2334.68
710.739	2312.16
710.927	2283.49
711.115	2179.04
711.303	2404.32
711.491	2338.78
711.679	2295.77
711.866	2344.92
712.054	2342.88
712.242	2228.19
712.43	2289.63
712.617	2357.21
712.805	2273.25
712.993	2195.42
713.181	2265.05
713.368	2256.86
713.556	2357.21
713.744	2234.33
713.931	2369.5
714.119	2383.84
714.306	2303.96
714.494	2346.97
714.682	2377.69
714.869	2279.39
715.057	2326.49
715.244	2349.02
715.432	2332.64
715.619	2246.62
715.807	2316.25
715.994	2426.84
716.182	2308.06
716.369	2449.37
716.556	2369.5
716.744	2279.39
716.931	2398.17
717.119	2381.79
717.306	2402.27
717.493	2371.55
717.681	2279.39
717.868	2459.61
718.055	2389.98
718.242	2469.85
718.43	2394.08
718.617	2441.18
718.804	2326.49
718.991	2316.25
719.179	2361.31
719.366	2408.41
719.553	2455.51
719.74	2324.44
719.927	2406.36
720.114	2400.22
720.301	2332.64
720.488	2404.32
720.676	2455.51
720.863	2316.25
721.05	2410.46
721.237	2328.54
721.424	2363.36
721.611	2308.06
721.798	2387.93
721.985	2392.03
722.172	2428.89
722.358	2359.26
722.545	2396.12
722.732	2430.94
722.919	2463.71
723.106	2394.08
723.293	2326.49
723.48	2426.84
723.667	2349.02
723.853	2473.95
724.04	2447.32
724.227	2408.41
724.414	2306.01
724.6	2344.92
724.787	2467.8
724.974	2557.91
725.161	2398.17
725.347	2410.46
725.534	2500.57
725.72	2435.03
725.907	2346.97
726.094	2510.81
726.28	2402.27
726.467	2467.8
726.653	2383.84
726.84	2455.51
727.027	2469.85
727.213	2410.46
727.4	2418.65
727.586	2426.84
727.773	2486.23
727.959	2342.88
728.145	2439.13
728.332	2394.08
728.518	2332.64
728.705	2525.15
728.891	2291.68
729.077	2447.32
729.264	2422.75
729.45	2475.99
729.636	2426.84
729.823	2506.71
730.009	2402.27
730.195	2482.14
730.382	2437.08
730.568	2465.75
730.754	2435.03
730.94	2306.01
731.126	2432.99
731.313	2508.76
731.499	2408.41
731.685	2349.02
731.871	2488.28
732.057	2400.22
732.243	2412.51
732.429	2469.85
732.615	2396.12
732.801	2478.04
732.987	2555.86
733.173	2502.62
733.359	2521.05
733.545	2498.52
733.731	2469.85
733.917	2504.67
734.103	2428.89
734.289	2506.71
734.475	2310.11
734.661	2559.96
734.847	2275.29
735.033	2320.35
735.219	2398.17
735.404	2383.84
735.59	2359.26
735.776	2508.76
735.962	2396.12
736.148	2480.09
736.333	2371.55
736.519	2412.51
736.705	2344.92
736.89	2365.4
737.076	2373.6
737.262	2328.54
737.447	2330.59
737.633	2306.01
737.819	2383.84
738.004	2275.29
738.19	2306.01
738.375	2267.1
738.561	2478.04
738.747	2377.69
738.932	2340.83
739.118	2330.59
739.303	2398.17
739.489	2207.71
739.674	2336.73
739.859	2234.33
740.045	2281.44
740.23	2256.86
740.416	2185.18
740.601	2263.01
740.786	2342.88
740.972	2351.07
741.157	2234.33
741.342	2232.29
741.528	2250.72
741.713	2187.23
741.898	2344.92
742.084	2238.43
742.269	2121.7
742.454	2220
742.639	2275.29
742.824	2172.89
743.01	2185.18
743.195	2283.49
743.38	2074.59
743.565	2146.27
743.75	2009.06
743.935	2138.08
744.12	2082.78
744.305	2183.13
744.49	2080.74
744.675	2129.89
744.86	2054.11
745.045	2127.84
745.23	2086.88
745.415	2086.88
745.6	2033.63
745.785	2068.45
745.97	2019.3
746.155	2002.91
746.34	1947.62
746.525	2076.64
746.71	2035.68
746.895	1945.57
747.079	2070.5
747.264	2027.49
747.449	2054.11
747.634	2029.54
747.819	1916.9
748.003	1947.62
748.188	1941.47
748.373	1871.84
748.557	1849.32
748.742	1914.85
748.927	1847.27
749.111	1843.17
749.296	1845.22
749.481	1937.38
749.665	1769.44
749.85	1746.92
750.034	1828.84
750.219	1824.74
750.404	1716.2
750.588	1738.73
750.773	1779.68
750.957	1748.97
751.141	1730.53
751.326	1613.8
751.51	1779.68
751.695	1679.33
751.879	1667.05
752.064	1740.77
752.248	1589.22
752.432	1665
752.617	1658.85
752.801	1570.79
752.985	1562.6
753.17	1603.56
753.354	1611.75
753.538	1509.35
753.722	1589.22
753.907	1581.03
754.091	1501.16
754.275	1560.55
754.459	1540.07
754.643	1460.2
754.828	1558.5
755.012	1398.76
755.196	1411.05
755.38	1570.79
755.564	1507.31
755.748	1542.12
755.932	1497.07
756.116	1394.67
756.3	1411.05
756.484	1437.67
756.668	1413.1
756.852	1308.65
757.036	1417.19
757.22	1413.1
757.404	1153.01
757.588	1269.74
757.772	1353.71
757.956	1470.44
758.14	1419.24
758.323	1255.4
758.507	1396.71
758.691	1322.99
758.875	1257.45
759.059	1339.37
759.242	1265.64
759.426	1228.78
759.61	1202.16
759.794	1249.26
759.977	1335.28
760.161	1204.21
760.345	1171.44
760.528	1198.06
760.712	1200.11
760.895	1259.5
761.079	1171.44
761.263	1148.91
761.446	1083.38
761.63	1122.29
761.813	1249.26
761.997	1153.01
762.18	1165.29
762.364	1116.14
762.547	1050.61
762.731	1069.04
762.914	1062.9
763.098	1169.39
763.281	1097.71
763.464	1202.16
763.648	1087.47
763.831	1021.94
764.015	999.41
764.198	1017.84
764.381	1105.9
764.564	962.55
764.748	1085.42
764.931	1046.51
765.114	978.93
765.297	1032.18
765.481	1075.18
765.664	1056.75
765.847	1062.9
766.03	1046.51
766.213	968.69
766.397	1079.28
766.58	1030.13
766.763	1028.08
766.946	1064.94
767.129	997.36
767.312	999.41
767.495	1001.46
767.678	880.63
767.861	950.26
768.044	962.55
768.227	999.41
768.41	937.97
768.593	960.5
768.776	886.77
768.959	1011.7
769.142	1021.94
769.324	960.5
769.507	894.96
769.69	923.63
769.873	972.79
770.056	952.31
770.239	909.3
770.421	923.63
770.604	894.96
770.787	899.06
770.97	860.15
771.152	835.57
771.335	796.66
771.518	849.91
771.7	874.48
771.883	901.11
772.066	866.29
772.248	841.72
772.431	890.87
772.613	907.25
772.796	794.61
772.978	870.39
773.161	864.24
773.343	829.43
773.526	790.52
773.708	802.8
773.891	823.28
774.073	774.13
774.256	763.89
774.438	763.89
774.621	882.67
774.803	796.66
774.985	772.08
775.168	749.56
775.35	702.45
775.532	727.03
775.715	757.75
775.897	692.21
776.079	679.93
776.261	788.47
776.444	690.17
776.626	739.32
776.808	716.79
776.99	708.6
777.173	641.01
777.355	706.55
777.537	612.34
777.719	677.88
777.901	700.41
778.083	679.93
778.265	651.25
778.447	751.6
778.629	616.44
778.811	569.34
778.993	698.36
779.175	712.69
779.357	647.16
779.539	626.68
779.721	589.81
779.903	698.36
780.085	532.47
780.267	585.72
780.449	591.86
780.631	608.25
780.812	632.82
780.994	626.68
781.176	575.48
781.358	620.53
781.54	534.52
781.721	575.48
781.903	557.05
782.085	542.71
782.267	595.96
782.448	509.94
782.63	555
782.812	626.68
782.993	606.2
783.175	520.18
783.357	507.9
783.538	507.9
783.72	542.71
783.901	464.89
784.083	536.57
784.264	518.14
784.446	481.27
784.627	485.37
784.809	503.8
784.99	436.22
785.172	514.04
785.353	499.7
785.535	507.9
785.716	499.7
785.897	407.55
786.079	479.22
786.26	458.74
786.441	542.71
786.623	403.45
786.804	438.27
786.985	516.09
787.167	448.51
787.348	419.83
787.529	446.46
787.71	464.89
787.891	419.83
788.073	462.84
788.254	389.11
788.435	438.27
788.616	376.83
788.797	413.69
788.978	374.78
789.159	311.29
789.34	331.77
789.522	339.96
789.703	348.15
789.884	434.17
790.065	378.87
790.246	337.91
790.427	356.35
790.607	436.22
790.788	346.11
790.969	329.72
791.15	335.87
791.331	323.58
791.512	311.29
791.693	387.07
791.874	417.79
792.054	358.39
792.235	333.82
792.416	266.24
792.597	321.53
792.778	319.48
792.958	356.35
793.139	301.05
793.32	403.45
793.5	376.83
793.681	380.92
793.862	315.39
794.042	301.05
794.223	317.44
794.404	391.16
794.584	276.48
794.765	311.29
794.945	276.48
795.126	307.2
795.306	378.87
795.487	339.96
795.667	335.87
795.848	346.11
796.028	270.33
796.209	321.53
796.389	294.91
796.57	284.67
796.75	274.43
796.93	256
797.111	243.71
797.291	196.61
797.471	292.86
797.652	212.99
797.832	294.91
798.012	335.87
798.192	270.33
798.373	296.96
798.553	290.81
798.733	290.81
798.913	270.33
799.093	223.23
799.274	280.57
799.454	262.14
799.634	348.15
799.814	290.81
799.994	251.9
800.174	317.44
800.354	161.79
800.534	276.48
800.714	196.61
800.894	198.65
801.074	264.19
801.254	266.24
801.434	225.28
801.614	284.67
801.794	233.47
801.974	561.14
802.154	210.94
802.334	225.28
802.514	239.61
802.693	172.03
802.873	258.04
803.053	260.09
803.233	149.5
803.413	247.8
803.592	143.36
803.772	161.79
803.952	163.84
804.131	229.37
804.311	200.7
804.491	219.13
804.67	157.69
804.85	239.61
805.03	241.66
805.209	284.67
805.389	194.56
805.568	184.32
805.748	194.56
805.928	147.45
806.107	206.84
806.287	219.13
806.466	264.19
806.646	196.61
806.825	174.08
807.004	251.9
807.184	215.04
807.363	231.42
807.543	194.56
807.722	239.61
807.901	169.98
808.081	182.27
808.26	131.07
808.439	208.89
808.619	237.56
808.798	155.65
808.977	178.17
809.156	204.8
809.336	135.17
809.515	198.65
809.694	198.65
809.873	200.7
810.052	194.56
810.231	239.61
810.411	159.74
810.59	200.7
810.769	153.6
810.948	182.27
811.127	155.65
811.306	159.74
811.485	161.79
811.664	165.89
811.843	235.52
812.022	196.61
812.201	206.84
812.38	149.5
812.559	165.89
812.737	208.89
812.916	147.45
813.095	116.73
813.274	198.65
813.453	122.88
813.632	131.07
813.811	227.32
813.989	153.6
814.168	194.56
814.347	129.02
814.526	172.03
814.704	151.55
814.883	114.69
815.062	161.79
815.24	135.17
815.419	206.84
815.598	159.74
815.776	120.83
815.955	116.73
816.133	176.13
816.312	143.36
816.49	163.84
816.669	133.12
816.847	112.64
817.026	120.83
817.204	38.91
817.383	172.03
817.561	147.45
817.74	204.8
817.918	145.41
818.097	188.41
818.275	110.59
818.453	204.8
818.632	112.64
818.81	118.78
818.988	149.5
819.167	133.12
819.345	129.02
819.523	149.5
819.701	120.83
819.879	94.21
820.058	151.55
820.236	139.26
820.414	118.78
820.592	81.92
820.77	141.31
820.948	126.97
821.127	143.36
821.305	159.74
821.483	163.84
821.661	161.79
821.839	155.65
822.017	83.97
822.195	157.69
822.373	172.03
822.551	116.73
822.729	143.36
822.907	83.97
823.085	147.45
823.262	137.21
823.44	118.78
823.618	147.45
823.796	28.67
823.974	40.96
824.152	67.58
824.329	57.34
824.507	77.82
824.685	88.06
824.863	141.31
825.04	100.35
825.218	151.55
825.396	126.97
825.574	100.35
825.751	135.17
825.929	145.41
826.107	32.77
826.284	147.45
826.462	192.51
826.639	133.12
826.817	94.21
826.994	110.59
827.172	118.78
827.349	114.69
827.527	83.97
827.704	98.3
827.882	133.12
828.059	157.69
828.237	88.06
828.414	176.13
828.591	133.12
828.769	137.21
828.946	47.1
829.124	124.93
829.301	184.32
829.478	49.15
829.655	129.02
829.833	83.97
830.01	32.77
830.187	106.49
830.364	40.96
830.542	32.77
830.719	98.3
830.896	59.39
831.073	106.49
831.25	88.06
831.427	102.4
831.604	81.92
831.782	106.49
831.959	81.92
832.136	38.91
832.313	38.91
832.49	65.54
832.667	67.58
832.844	53.25
833.021	79.87
833.198	73.73
833.374	55.3
833.551	47.1
833.728	77.82
833.905	110.59
834.082	40.96
834.259	88.06
834.436	61.44
834.612	45.06
834.789	92.16
834.966	69.63
835.143	88.06
835.319	131.07
835.496	38.91
835.673	81.92
835.85	77.82
836.026	12.29
836.203	133.12
836.38	10.24
836.556	40.96
836.733	59.39
836.909	49.15
837.086	16.38
837.262	83.97
837.439	22.53
837.616	65.54
837.792	90.11
837.968	96.25
838.145	-6.14
838.321	49.15
838.498	106.49
838.674	69.63
838.851	75.77
839.027	30.72
839.203	112.64
839.38	106.49
839.556	67.58
839.732	98.3
839.909	77.82
840.085	59.39
840.261	131.07
840.437	34.82
840.614	10.24
840.79	120.83
840.966	53.25
841.142	34.82
841.318	45.06
841.494	-24.58
841.671	77.82
841.847	26.62
842.023	-4.1
842.199	106.49
842.375	94.21
842.551	4.1
842.727	-18.43
842.903	24.58
843.079	-16.38
843.255	104.45
843.431	12.29
843.607	86.01
843.783	0
843.959	75.77
844.134	38.91
844.31	36.86
844.486	53.25
844.662	26.62
844.838	47.1
845.013	108.54
845.189	57.34
845.365	96.25
845.541	20.48
845.716	110.59
845.892	65.54
846.068	16.38
846.244	47.1
846.419	106.49
846.595	-22.53
846.77	55.3
846.946	22.53
847.122	12.29
847.297	-53.25
847.473	65.54
847.648	6.14
847.824	75.77
847.999	22.53
848.175	10.24
848.35	110.59
848.526	10.24
848.701	67.58
848.876	-4.1
849.052	59.39
849.227	36.86
849.403	22.53
849.578	4.1
849.753	28.67
849.929	12.29
850.104	83.97
850.279	-2.05
850.454	-8.19
850.63	83.97
850.805	-8.19
850.98	22.53
851.155	38.91
851.33	77.82
851.505	6.14
851.681	79.87
851.856	10.24
852.031	-40.96
852.206	45.06
852.381	6.14
852.556	108.54
852.731	-55.3
852.906	65.54
853.081	47.1
853.256	43.01
853.431	81.92
853.606	34.82
853.781	-26.62
853.956	-63.49
854.131	51.2
854.305	32.77
854.48	63.49
854.655	28.67
854.83	12.29
855.005	10.24
855.18	63.49
855.354	92.16
855.529	77.82
855.704	-20.48
855.879	100.35
856.053	-10.24
856.228	40.96
856.403	30.72
856.577	133.12
856.752	61.44
856.926	43.01
857.101	65.54
857.276	6.14
857.45	24.58
857.625	61.44
857.799	83.97
857.974	38.91
858.148	-6.14
858.323	40.96
858.497	10.24
858.672	-20.48
858.846	14.34
859.02	28.67
859.195	14.34
859.369	32.77
859.543	75.77
859.718	38.91
859.892	-18.43
860.066	34.82
860.241	40.96
860.415	49.15
860.589	55.3
860.763	24.58
860.938	30.72
861.112	92.16
861.286	-28.67
861.46	0
861.634	24.58
861.808	38.91
861.982	96.25
862.157	67.58
862.331	43.01
862.505	69.63
862.679	-36.86
862.853	-51.2
863.027	2.05
863.201	24.58
863.375	30.72
863.549	63.49
863.722	14.34
863.896	2.05
864.07	77.82
864.244	18.43
864.418	69.63
864.592	47.1
864.766	18.43
864.939	-6.14
865.113	-20.48
865.287	2.05
865.461	-2.05
865.634	32.77
865.808	43.01
865.982	45.06
866.156	-10.24
866.329	55.3
866.503	36.86
866.676	32.77
866.85	18.43
867.024	-26.62
867.197	22.53
867.371	40.96
867.544	8.19
867.718	-16.38
867.891	18.43
868.065	-6.14
868.238	28.67
868.412	2.05
868.585	40.96
868.759	20.48
868.932	45.06
869.105	34.82
869.279	-63.49
869.452	65.54
869.625	-6.14
869.799	-32.77
869.972	-4.1
870.145	30.72
870.319	34.82
870.492	22.53
870.665	63.49
870.838	57.34
871.011	38.91
871.185	40.96
871.358	12.29
871.531	16.38
871.704	71.68
871.877	75.77
872.05	6.14
872.223	24.58
872.396	22.53
872.569	4.1
872.742	26.62
872.915	34.82
873.088	-14.34
873.261	40.96
873.434	-63.49
873.607	28.67
873.78	36.86
873.953	6.14
874.126	16.38
874.299	22.53
874.471	-30.72
874.644	81.92
874.817	30.72
874.99	81.92
875.163	-20.48
875.335	34.82
875.508	-32.77
875.681	45.06
875.853	-65.54
876.026	4.1
876.199	94.21
876.371	94.21
876.544	-6.14
876.717	55.3
876.889	-59.39
877.062	14.34
877.234	-18.43
877.407	10.24
877.579	-6.14
877.752	-6.14
877.924	51.2
878.097	-20.48
878.269	-10.24
878.442	18.43
878.614	65.54
878.786	-8.19
878.959	53.25
879.131	-16.38
879.303	26.62
879.476	-8.19
879.648	-18.43
879.82	-30.72
879.993	-51.2
880.165	47.1
880.337	-8.19
880.509	12.29
880.681	-63.49
880.854	-45.06
881.026	-14.34
881.198	18.43
881.37	-43.01
881.542	32.77
881.714	32.77
881.886	-36.86
882.058	24.58
882.23	32.77
882.402	-12.29
882.574	-32.77
882.746	-61.44
882.918	16.38
883.09	-6.14
883.262	-4.1
883.434	-8.19
883.606	-6.14
883.778	65.54
883.95	116.73
884.122	12.29
884.293	40.96
884.465	40.96
884.637	-8.19
884.809	-6.14
884.98	28.67
885.152	-12.29
885.324	-2.05
885.496	-53.25
885.667	28.67
885.839	10.24
886.011	59.39
886.182	49.15
886.354	51.2
886.525	22.53
886.697	-14.34
886.869	-63.49
887.04	51.2
887.212	53.25
887.383	2.05
887.555	-14.34
887.726	57.34
887.897	18.43
888.069	26.62
888.24	51.2
888.412	12.29
888.583	4.1
888.754	14.34
888.926	28.67
889.097	-51.2
889.268	-36.86
889.44	16.38
889.611	-67.58
889.782	-63.49
889.953	-30.72
890.125	51.2
890.296	-4.1
890.467	45.06
890.638	24.58
890.809	-53.25
890.98	40.96
891.151	-10.24
891.323	14.34
891.494	40.96
891.665	18.43
891.836	34.82
892.007	-12.29
892.178	26.62
892.349	-32.77
892.52	-63.49
892.691	69.63
892.862	12.29
893.032	10.24
893.203	59.39
893.374	34.82
893.545	16.38
893.716	53.25
893.887	36.86
894.057	8.19
894.228	20.48
894.399	22.53
894.57	8.19
894.74	-12.29
894.911	-34.82
895.082	14.34
895.253	10.24
895.423	6.14
895.594	-14.34
895.764	-26.62
895.935	12.29
896.106	-8.19
896.276	28.67
896.447	-34.82
896.617	-10.24
896.788	-6.14
896.958	-28.67
897.129	24.58
897.299	0
897.47	69.63
897.64	-47.1
897.81	-14.34
897.981	-38.91
898.151	51.2
898.322	-12.29
898.492	34.82
898.662	20.48
898.832	-63.49
899.003	2.05
899.173	24.58
899.343	-22.53
899.513	51.2
