Data from USB4F104151__47__11-51-53-147.txt Node

Date: Fri Mar 14 11:51:53 EDT 2025
User: louis
Spectrometer: USB4F10415
Trigger mode: 4
Integration Time (sec): 2.000000E-2
Scans to average: 1
Electric dark correction enabled: true
Nonlinearity correction enabled: false
Boxcar width: 0
XAxis mode: Wavelengths
Number of Pixels in Spectrum: 3648
>>>>>Begin Spectral Data<<<<<
178.204	-103.93
178.424	-103.93
178.644	-103.93
178.864	-91.65
179.084	-17.92
179.304	-87.55
179.524	49.66
179.744	0.51
179.964	6.66
180.184	-11.78
180.404	39.42
180.624	-52.74
180.844	51.71
181.064	-15.87
181.283	-11.78
181.503	-26.11
181.723	57.86
181.943	-36.35
182.163	64
182.383	-24.06
182.602	78.33
182.822	72.19
183.042	51.71
183.262	12.8
183.482	23.04
183.701	-3.58
183.921	43.52
184.141	-56.83
184.361	12.8
184.58	-7.68
184.8	57.86
185.02	35.33
185.239	4.61
185.459	23.04
185.679	-46.59
185.898	-19.97
186.118	45.57
186.338	-38.4
186.557	51.71
186.777	49.66
186.997	-22.02
187.216	33.28
187.436	98.81
187.655	25.09
187.875	61.95
188.095	74.24
188.314	-24.06
188.534	2.56
188.753	37.38
188.973	-105.98
189.192	41.47
189.412	61.95
189.631	25.09
189.851	41.47
190.07	-7.68
190.29	-30.21
190.509	23.04
190.729	12.8
190.948	-9.73
191.168	139.77
191.387	33.28
191.607	47.62
191.826	66.05
192.045	37.38
192.265	2.56
192.484	49.66
192.704	123.39
192.923	4.61
193.142	78.33
193.362	33.28
193.581	2.56
193.8	18.94
194.02	80.38
194.239	57.86
194.458	-19.97
194.678	-24.06
194.897	39.42
195.116	16.9
195.335	-13.82
195.555	-11.78
195.774	33.28
195.993	-40.45
196.212	88.57
196.432	47.62
196.651	-24.06
196.87	10.75
197.089	68.09
197.308	-26.11
197.528	68.09
197.747	41.47
197.966	29.18
198.185	-3.58
198.404	-58.88
198.623	10.75
198.842	20.99
199.062	102.91
199.281	16.9
199.5	-77.31
199.719	12.8
199.938	51.71
200.157	53.76
200.376	-52.74
200.595	18.94
200.814	66.05
201.033	43.52
201.252	107.01
201.471	8.7
201.69	59.9
201.909	68.09
202.128	45.57
202.347	29.18
202.566	-56.83
202.785	10.75
203.004	31.23
203.223	35.33
203.442	12.8
203.661	-32.26
203.879	-9.73
204.098	16.9
204.317	66.05
204.536	-1.54
204.755	12.8
204.974	0.51
205.193	31.23
205.411	-22.02
205.63	31.23
205.849	-7.68
206.068	6.66
206.287	41.47
206.505	14.85
206.724	33.28
206.943	-32.26
207.162	80.38
207.381	-60.93
207.599	-130.56
207.818	64
208.037	45.57
208.255	43.52
208.474	59.9
208.693	109.05
208.911	33.28
209.13	20.99
209.349	37.38
209.567	-7.68
209.786	49.66
210.005	33.28
210.223	92.67
210.442	-30.21
210.661	43.52
210.879	8.7
211.098	0.51
211.316	111.1
211.535	104.96
211.753	12.8
211.972	94.72
212.191	2.56
212.409	92.67
212.628	94.72
212.846	-5.63
213.065	37.38
213.283	78.33
213.502	23.04
213.72	49.66
213.938	25.09
214.157	29.18
214.375	8.7
214.594	-38.4
214.812	47.62
215.031	10.75
215.249	-26.11
215.467	90.62
215.686	66.05
215.904	23.04
216.122	29.18
216.341	72.19
216.559	66.05
216.778	66.05
216.996	43.52
217.214	-36.35
217.432	-30.21
217.651	8.7
217.869	23.04
218.087	-24.06
218.306	6.66
218.524	29.18
218.742	-7.68
218.96	72.19
219.179	47.62
219.397	-30.21
219.615	68.09
219.833	37.38
220.051	-13.82
220.27	4.61
220.488	51.71
220.706	35.33
220.924	41.47
221.142	39.42
221.36	-22.02
221.578	25.09
221.796	10.75
222.015	57.86
222.233	-65.02
222.451	78.33
222.669	-26.11
222.887	86.53
223.105	2.56
223.323	29.18
223.541	51.71
223.759	-22.02
223.977	10.75
224.195	29.18
224.413	84.48
224.631	39.42
224.849	31.23
225.067	76.29
225.285	2.56
225.503	84.48
225.721	33.28
225.939	43.52
226.157	10.75
226.375	55.81
226.592	94.72
226.81	23.04
227.028	39.42
227.246	80.38
227.464	12.8
227.682	76.29
227.9	-44.54
228.117	53.76
228.335	6.66
228.553	-36.35
228.771	64
228.989	152.06
229.206	72.19
229.424	-13.82
229.642	-9.73
229.86	25.09
230.077	4.61
230.295	64
230.513	18.94
230.731	2.56
230.948	51.71
231.166	102.91
231.384	-44.54
231.601	-32.26
231.819	-11.78
232.037	16.9
232.254	55.81
232.472	10.75
232.689	-24.06
232.907	31.23
233.125	55.81
233.342	6.66
233.56	-28.16
233.777	-17.92
233.995	57.86
234.213	86.53
234.43	20.99
234.648	-56.83
234.865	14.85
235.083	16.9
235.3	-46.59
235.518	78.33
235.735	23.04
235.953	39.42
236.17	45.57
236.388	-22.02
236.605	33.28
236.822	-1.54
237.04	35.33
237.257	2.56
237.475	0.51
237.692	23.04
237.909	39.42
238.127	-11.78
238.344	2.56
238.562	18.94
238.779	27.14
238.996	-11.78
239.214	82.43
239.431	39.42
239.648	18.94
239.865	-11.78
240.083	53.76
240.3	64
240.517	-69.12
240.735	27.14
240.952	88.57
241.169	68.09
241.386	64
241.603	76.29
241.821	18.94
242.038	37.38
242.255	29.18
242.472	66.05
242.689	53.76
242.907	6.66
243.124	-22.02
243.341	68.09
243.558	18.94
243.775	-28.16
243.992	-9.73
244.209	76.29
244.426	-24.06
244.643	2.56
244.86	6.66
245.078	53.76
245.295	6.66
245.512	-1.54
245.729	-46.59
245.946	37.38
246.163	27.14
246.38	37.38
246.597	33.28
246.814	96.77
247.031	18.94
247.248	68.09
247.464	29.18
247.681	41.47
247.898	80.38
248.115	111.1
248.332	-50.69
248.549	-34.3
248.766	96.77
248.983	8.7
249.2	6.66
249.417	-3.58
249.633	68.09
249.85	18.94
250.067	-22.02
250.284	47.62
250.501	12.8
250.717	25.09
250.934	-65.02
251.151	-22.02
251.368	-28.16
251.585	59.9
251.801	61.95
252.018	25.09
252.235	-15.87
252.451	-17.92
252.668	-54.78
252.885	51.71
253.102	57.86
253.318	-34.3
253.535	-15.87
253.752	14.85
253.968	29.18
254.185	-17.92
254.401	-7.68
254.618	68.09
254.835	45.57
255.051	92.67
255.268	8.7
255.484	35.33
255.701	41.47
255.917	23.04
256.134	12.8
256.351	12.8
256.567	-30.21
256.784	41.47
257	-44.54
257.217	64
257.433	80.38
257.65	-24.06
257.866	59.9
258.082	74.24
258.299	92.67
258.515	41.47
258.732	88.57
258.948	102.91
259.165	59.9
259.381	76.29
259.597	25.09
259.814	-5.63
260.03	20.99
260.246	18.94
260.463	59.9
260.679	100.86
260.895	45.57
261.112	35.33
261.328	16.9
261.544	14.85
261.761	133.63
261.977	37.38
262.193	33.28
262.409	55.81
262.626	78.33
262.842	43.52
263.058	-30.21
263.274	64
263.49	33.28
263.707	-11.78
263.923	45.57
264.139	-7.68
264.355	55.81
264.571	10.75
264.787	10.75
265.004	25.09
265.22	0.51
265.436	-7.68
265.652	16.9
265.868	53.76
266.084	45.57
266.3	8.7
266.516	-24.06
266.732	68.09
266.948	14.85
267.164	64
267.38	4.61
267.596	4.61
267.812	33.28
268.028	18.94
268.244	-7.68
268.46	18.94
268.676	4.61
268.892	16.9
269.108	-56.83
269.324	-67.07
269.54	-30.21
269.756	29.18
269.972	2.56
270.188	10.75
270.403	31.23
270.619	59.9
270.835	31.23
271.051	45.57
271.267	-36.35
271.483	31.23
271.698	23.04
271.914	-15.87
272.13	64
272.346	16.9
272.562	29.18
272.777	23.04
272.993	2.56
273.209	39.42
273.425	94.72
273.64	-5.63
273.856	39.42
274.072	31.23
274.287	35.33
274.503	53.76
274.719	31.23
274.934	72.19
275.15	-7.68
275.366	25.09
275.581	-7.68
275.797	-15.87
276.012	6.66
276.228	-1.54
276.444	33.28
276.659	64
276.875	33.28
277.09	8.7
277.306	-24.06
277.521	2.56
277.737	-17.92
277.952	107.01
278.168	20.99
278.383	6.66
278.599	18.94
278.814	35.33
279.03	51.71
279.245	111.1
279.461	59.9
279.676	-1.54
279.892	4.61
280.107	-5.63
280.322	-50.69
280.538	29.18
280.753	-42.5
280.969	-36.35
281.184	2.56
281.399	41.47
281.615	27.14
281.83	66.05
282.045	12.8
282.26	-36.35
282.476	-13.82
282.691	18.94
282.906	53.76
283.122	39.42
283.337	-3.58
283.552	119.29
283.767	-1.54
283.983	37.38
284.198	-28.16
284.413	-3.58
284.628	-7.68
284.843	80.38
285.058	70.14
285.274	109.05
285.489	-13.82
285.704	-22.02
285.919	-1.54
286.134	43.52
286.349	-19.97
286.564	49.66
286.779	47.62
286.995	0.51
287.21	2.56
287.425	-3.58
287.64	61.95
287.855	39.42
288.07	-7.68
288.285	31.23
288.5	37.38
288.715	33.28
288.93	33.28
289.145	-5.63
289.36	-15.87
289.575	12.8
289.79	4.61
290.004	25.09
290.219	39.42
290.434	14.85
290.649	31.23
290.864	-24.06
291.079	-71.17
291.294	33.28
291.509	-17.92
291.724	4.61
291.938	-32.26
292.153	33.28
292.368	0.51
292.583	18.94
292.798	45.57
293.012	39.42
293.227	6.66
293.442	-38.4
293.657	37.38
293.871	10.75
294.086	14.85
294.301	80.38
294.516	82.43
294.73	12.8
294.945	33.28
295.16	10.75
295.374	20.99
295.589	61.95
295.804	41.47
296.018	78.33
296.233	72.19
296.447	-9.73
296.662	-22.02
296.877	78.33
297.091	47.62
297.306	37.38
297.52	-48.64
297.735	55.81
297.949	6.66
298.164	-9.73
298.378	20.99
298.593	35.33
298.807	14.85
299.022	-11.78
299.236	39.42
299.451	-38.4
299.665	-1.54
299.88	43.52
300.094	0.51
300.309	57.86
300.523	-7.68
300.737	45.57
300.952	68.09
301.166	98.81
301.381	-26.11
301.595	111.1
301.809	-11.78
302.024	57.86
302.238	-19.97
302.452	57.86
302.667	35.33
302.881	123.39
303.095	8.7
303.309	94.72
303.524	14.85
303.738	6.66
303.952	10.75
304.166	92.67
304.381	-1.54
304.595	55.81
304.809	-26.11
305.023	64
305.237	-36.35
305.452	82.43
305.666	59.9
305.88	-22.02
306.094	25.09
306.308	53.76
306.522	27.14
306.736	27.14
306.95	31.23
307.164	14.85
307.379	43.52
307.593	45.57
307.807	43.52
308.021	49.66
308.235	8.7
308.449	35.33
308.663	-42.5
308.877	59.9
309.091	23.04
309.305	31.23
309.519	-46.59
309.733	84.48
309.947	29.18
310.161	61.95
310.374	-1.54
310.588	55.81
310.802	-5.63
311.016	88.57
311.23	10.75
311.444	16.9
311.658	0.51
311.872	-11.78
312.085	111.1
312.299	70.14
312.513	35.33
312.727	-5.63
312.941	66.05
313.154	20.99
313.368	6.66
313.582	121.34
313.796	43.52
314.009	29.18
314.223	59.9
314.437	109.05
314.651	37.38
314.864	-34.3
315.078	45.57
315.292	35.33
315.505	53.76
315.719	35.33
315.933	-13.82
316.146	-22.02
316.36	-62.98
316.573	6.66
316.787	84.48
317.001	76.29
317.214	-3.58
317.428	84.48
317.641	2.56
317.855	109.05
318.068	29.18
318.282	14.85
318.495	57.86
318.709	27.14
318.922	4.61
319.136	43.52
319.349	45.57
319.563	43.52
319.776	18.94
319.99	57.86
320.203	35.33
320.417	70.14
320.63	-1.54
320.843	12.8
321.057	2.56
321.27	0.51
321.483	25.09
321.697	-26.11
321.91	-9.73
322.124	35.33
322.337	39.42
322.55	-1.54
322.763	-11.78
322.977	20.99
323.19	18.94
323.403	41.47
323.617	74.24
323.83	68.09
324.043	55.81
324.256	-1.54
324.469	35.33
324.683	82.43
324.896	64
325.109	55.81
325.322	-1.54
325.535	53.76
325.748	16.9
325.962	27.14
326.175	10.75
326.388	18.94
326.601	25.09
326.814	10.75
327.027	109.05
327.24	88.57
327.453	20.99
327.666	16.9
327.879	-38.4
328.092	39.42
328.305	-3.58
328.518	2.56
328.731	51.71
328.944	137.73
329.157	33.28
329.37	23.04
329.583	94.72
329.796	78.33
330.009	-7.68
330.222	78.33
330.435	51.71
330.648	61.95
330.861	16.9
331.073	74.24
331.286	111.1
331.499	80.38
331.712	18.94
331.925	43.52
332.138	66.05
332.35	-7.68
332.563	47.62
332.776	23.04
332.989	-24.06
333.202	-26.11
333.414	-11.78
333.627	41.47
333.84	-1.54
334.053	33.28
334.265	18.94
334.478	41.47
334.691	33.28
334.903	8.7
335.116	-56.83
335.329	-22.02
335.541	55.81
335.754	84.48
335.966	-60.93
336.179	76.29
336.392	72.19
336.604	82.43
336.817	4.61
337.029	76.29
337.242	27.14
337.454	2.56
337.667	16.9
337.88	104.96
338.092	43.52
338.305	18.94
338.517	14.85
338.729	84.48
338.942	80.38
339.154	-15.87
339.367	12.8
339.579	23.04
339.792	-11.78
340.004	-40.45
340.217	-60.93
340.429	55.81
340.641	33.28
340.854	39.42
341.066	14.85
341.278	29.18
341.491	43.52
341.703	88.57
341.915	-50.69
342.128	53.76
342.34	57.86
342.552	-11.78
342.764	39.42
342.977	39.42
343.189	35.33
343.401	72.19
343.613	25.09
343.826	18.94
344.038	86.53
344.25	47.62
344.462	-3.58
344.674	51.71
344.886	68.09
345.099	72.19
345.311	14.85
345.523	49.66
345.735	59.9
345.947	2.56
346.159	102.91
346.371	70.14
346.583	35.33
346.795	10.75
347.007	90.62
347.219	51.71
347.431	8.7
347.643	-26.11
347.855	53.76
348.067	49.66
348.279	29.18
348.491	-3.58
348.703	74.24
348.915	76.29
349.127	39.42
349.339	-36.35
349.551	100.86
349.763	-3.58
349.975	8.7
350.187	70.14
350.399	59.9
350.61	27.14
350.822	49.66
351.034	45.57
351.246	51.71
351.458	94.72
351.669	78.33
351.881	129.53
352.093	29.18
352.305	84.48
352.517	88.57
352.728	104.96
352.94	6.66
353.152	68.09
353.363	33.28
353.575	53.76
353.787	45.57
353.999	16.9
354.21	66.05
354.422	49.66
354.633	-9.73
354.845	100.86
355.057	82.43
355.268	49.66
355.48	18.94
355.692	27.14
355.903	23.04
356.115	-11.78
356.326	-13.82
356.538	-13.82
356.749	41.47
356.961	68.09
357.172	-11.78
357.384	31.23
357.595	104.96
357.807	0.51
358.018	-9.73
358.23	43.52
358.441	68.09
358.653	41.47
358.864	-46.59
359.075	57.86
359.287	43.52
359.498	14.85
359.709	61.95
359.921	94.72
360.132	12.8
360.344	31.23
360.555	66.05
360.766	100.86
360.977	27.14
361.189	41.47
361.4	20.99
361.611	78.33
361.823	74.24
362.034	20.99
362.245	-9.73
362.456	127.49
362.667	43.52
362.879	18.94
363.09	20.99
363.301	-15.87
363.512	27.14
363.723	-3.58
363.935	86.53
364.146	-44.54
364.357	23.04
364.568	35.33
364.779	51.71
364.99	39.42
365.201	-73.21
365.412	104.96
365.623	53.76
365.834	61.95
366.045	0.51
366.256	68.09
366.467	51.71
366.678	57.86
366.889	82.43
367.1	61.95
367.311	27.14
367.522	51.71
367.733	92.67
367.944	98.81
368.155	-1.54
368.366	74.24
368.577	43.52
368.788	16.9
368.999	47.62
369.209	72.19
369.42	102.91
369.631	70.14
369.842	-5.63
370.053	31.23
370.264	33.28
370.474	10.75
370.685	55.81
370.896	41.47
371.107	14.85
371.317	16.9
371.528	6.66
371.739	37.38
371.95	16.9
372.16	115.2
372.371	35.33
372.582	29.18
372.792	72.19
373.003	90.62
373.214	33.28
373.424	39.42
373.635	29.18
373.846	70.14
374.056	-13.82
374.267	86.53
374.477	94.72
374.688	37.38
374.898	-17.92
375.109	68.09
375.319	-95.74
375.53	66.05
375.74	47.62
375.951	35.33
376.161	-34.3
376.372	-34.3
376.582	2.56
376.793	20.99
377.003	8.7
377.214	23.04
377.424	55.81
377.635	0.51
377.845	23.04
378.055	94.72
378.266	66.05
378.476	20.99
378.686	57.86
378.897	27.14
379.107	82.43
379.317	70.14
379.528	53.76
379.738	98.81
379.948	29.18
380.158	156.16
380.369	43.52
380.579	84.48
380.789	37.38
380.999	23.04
381.21	27.14
381.42	37.38
381.63	104.96
381.84	70.14
382.05	10.75
382.261	23.04
382.471	2.56
382.681	59.9
382.891	70.14
383.101	-7.68
383.311	29.18
383.521	-11.78
383.731	27.14
383.941	2.56
384.151	55.81
384.361	-7.68
384.571	23.04
384.781	57.86
384.991	45.57
385.201	51.71
385.411	16.9
385.621	74.24
385.831	76.29
386.041	18.94
386.251	37.38
386.461	45.57
386.671	4.61
386.881	37.38
387.091	4.61
387.301	80.38
387.511	31.23
387.72	72.19
387.93	10.75
388.14	23.04
388.35	92.67
388.56	109.05
388.769	152.06
388.979	59.9
389.189	51.71
389.399	111.1
389.609	18.94
389.818	78.33
390.028	45.57
390.238	55.81
390.447	16.9
390.657	43.52
390.867	20.99
391.076	76.29
391.286	94.72
391.496	-11.78
391.705	47.62
391.915	117.25
392.125	49.66
392.334	45.57
392.544	43.52
392.753	10.75
392.963	64
393.172	35.33
393.382	0.51
393.591	125.44
393.801	31.23
394.01	31.23
394.22	57.86
394.429	86.53
394.639	109.05
394.848	10.75
395.058	61.95
395.267	43.52
395.477	92.67
395.686	119.29
395.895	20.99
396.105	123.39
396.314	59.9
396.524	33.28
396.733	57.86
396.942	117.25
397.152	107.01
397.361	64
397.57	59.9
397.78	94.72
397.989	84.48
398.198	164.35
398.407	64
398.617	121.34
398.826	78.33
399.035	94.72
399.244	98.81
399.453	115.2
399.663	41.47
399.872	80.38
400.081	-22.02
400.29	82.43
400.499	94.72
400.708	86.53
400.917	82.43
401.127	35.33
401.336	74.24
401.545	109.05
401.754	154.11
401.963	96.77
402.172	115.2
402.381	143.87
402.59	49.66
402.799	145.92
403.008	55.81
403.217	166.4
403.426	150.01
403.635	55.81
403.844	84.48
404.053	211.45
404.262	76.29
404.471	37.38
404.68	121.34
404.888	119.29
405.097	127.49
405.306	100.86
405.515	88.57
405.724	137.73
405.933	168.45
406.142	121.34
406.35	135.68
406.559	143.87
406.768	137.73
406.977	209.4
407.185	162.3
407.394	201.21
407.603	160.25
407.812	236.03
408.02	166.4
408.229	190.97
408.438	221.69
408.646	211.45
408.855	141.82
409.064	186.88
409.272	203.26
409.481	295.42
409.69	205.31
409.898	283.13
410.107	213.5
410.315	279.04
410.524	219.64
410.733	295.42
410.941	227.84
411.15	342.52
411.358	315.9
411.567	401.91
411.775	336.38
411.984	291.32
412.192	444.92
412.401	379.39
412.609	363
412.818	395.77
413.026	344.57
413.234	428.54
413.443	436.73
413.651	459.26
413.86	526.84
414.068	418.3
414.276	514.55
414.485	430.59
414.693	518.65
414.901	573.94
415.11	555.51
415.318	455.16
415.526	629.24
415.734	674.29
415.943	612.85
416.151	623.09
416.359	633.33
416.567	588.28
416.776	690.68
416.984	756.21
417.192	788.98
417.4	784.88
417.608	836.08
417.817	938.48
418.025	854.51
418.233	864.75
418.441	1004.02
418.649	1016.3
418.857	1047.02
419.065	1010.16
419.273	1063.41
419.481	1006.06
419.689	1206.77
419.897	1266.16
420.105	1196.53
420.313	1276.4
420.521	1298.92
420.729	1335.79
420.937	1317.36
421.145	1409.51
421.353	1462.76
421.561	1630.7
421.769	1683.94
421.977	1661.41
422.185	1630.7
422.393	1718.76
422.601	1825.25
422.809	1800.68
423.017	1696.23
423.224	1806.82
423.432	1997.28
423.64	2017.76
423.848	2275.81
424.056	1999.33
424.263	2269.66
424.471	2316.76
424.679	2339.29
424.887	2562.52
425.094	2593.24
425.302	2621.91
425.51	2699.73
425.718	2712.02
425.925	2855.38
426.133	2931.16
426.341	3058.13
426.548	3160.53
426.756	3246.54
426.964	3291.6
427.171	3396.04
427.379	3496.39
427.586	3725.77
427.794	3731.91
428.001	3768.77
428.209	3979.72
428.417	3885.51
428.624	4319.68
428.832	4221.38
429.039	4067.78
429.247	4170.18
429.454	4516.28
429.662	4827.57
429.869	4665.78
430.076	4839.86
430.284	4678.07
430.491	4993.46
430.699	5304.75
430.906	5251.5
431.114	5304.75
431.321	5566.89
431.528	5708.2
431.736	5996.96
431.943	6367.65
432.15	5999.01
432.358	6224.29
432.565	6486.43
432.772	6482.33
432.979	6783.38
433.187	6893.97
433.394	6865.3
433.601	7489.93
433.808	7334.29
434.016	7229.84
434.223	7715.21
434.43	8182.15
434.637	7803.27
434.844	8614.27
435.052	8778.11
435.259	8413.57
435.466	8653.18
435.673	8518.01
435.88	9191.8
436.087	9439.6
436.294	9595.25
436.501	9449.84
436.708	9679.21
436.915	10154.34
437.122	10375.52
437.329	10244.45
437.537	10764.64
437.743	10803.55
437.95	10776.92
438.157	11340.11
438.364	11802.96
438.571	11659.6
438.778	11845.96
438.985	12943.67
439.192	12317
439.399	12935.48
439.606	12419.39
439.813	12982.59
440.02	14047.53
440.227	13584.69
440.433	13521.2
440.64	13957.42
440.847	13996.33
441.054	14332.2
441.261	15233.3
441.467	14946.59
441.674	15520.02
441.881	16009.48
442.088	15782.16
442.294	15878.41
442.501	16126.22
442.708	16527.62
442.914	17074.43
443.121	18018.54
443.328	17527.03
443.534	18649.32
443.741	18196.71
443.948	17750.26
444.154	19116.25
444.361	19089.63
444.568	19085.53
444.774	19058.91
444.981	19153.12
445.187	19841.23
445.394	20699.33
445.6	20263.11
445.807	22524.07
446.013	21414.07
446.22	21833.91
446.426	22837.41
446.633	22933.67
446.839	23961.75
447.046	22759.59
447.252	23873.68
447.459	24268.94
447.665	24049.81
447.871	25239.68
448.078	26280.05
448.284	24608.9
448.491	25589.88
448.697	26746.98
448.903	26849.38
449.11	27078.75
449.316	26531.95
449.522	26939.49
449.728	27895.89
449.935	28074.07
450.141	27965.53
450.347	28696.65
450.553	27811.93
450.76	28311.63
450.966	29147.2
451.172	28805.19
451.378	29308.99
451.584	29177.92
451.791	29446.21
451.997	29259.84
452.203	30146.61
452.409	29724.73
452.615	29753.4
452.821	28846.15
453.027	28256.34
453.233	30013.49
453.44	28434.51
453.646	29225.03
453.852	29347.9
454.058	29859.9
454.264	28641.35
454.47	29354.05
454.676	28758.09
454.882	29370.43
455.088	27072.61
455.294	27324.51
455.5	27893.85
455.705	27887.7
455.911	26820.71
456.117	26282.09
456.323	25862.26
456.529	24713.35
456.735	25931.89
456.941	24914.05
457.147	24885.38
457.352	23980.18
457.558	23349.4
457.764	23826.58
457.97	23394.46
458.176	22718.63
458.381	22636.71
458.587	21274.81
458.793	21825.71
458.999	20414.66
459.204	22046.9
459.41	21174.46
459.616	20113.61
459.821	20156.62
460.027	19986.64
460.233	19642.58
460.438	18450.66
460.644	18647.27
460.85	17707.25
461.055	17832.18
461.261	17391.86
461.466	16277.77
461.672	15591.7
461.878	16787.71
462.083	15804.69
462.289	15579.41
462.494	15157.53
462.7	14467.36
462.905	14477.6
463.111	14735.65
463.316	14704.93
463.522	14561.57
463.727	14645.54
463.932	14721.31
464.138	14489.89
464.343	14524.71
464.549	14221.61
464.754	14455.08
464.959	14278.95
465.165	14215.46
465.37	13615.41
465.575	13252.92
465.781	14235.94
465.986	14057.77
466.191	13478.19
466.397	12919.1
466.602	12708.16
466.807	13076.79
467.012	12949.82
467.218	12912.95
467.423	12656.96
467.628	12722.49
467.833	13123.9
468.038	12675.39
468.244	12296.52
468.449	13127.99
468.654	12601.66
468.859	12343.62
469.064	12603.71
469.269	12024.14
469.474	11868.49
469.679	12265.8
469.885	12003.66
470.09	12097.86
470.295	11948.36
470.5	11671.89
470.705	11637.07
470.91	11340.11
471.115	11460.95
471.32	11684.17
471.525	11376.98
471.73	11317.59
471.935	11088.21
472.139	10600.8
472.344	11118.93
472.549	10885.47
472.754	10764.64
472.959	10875.23
473.164	10420.58
473.369	10156.39
473.574	10711.39
473.778	10471.78
473.983	10314.08
474.188	10342.75
474.393	9843.05
474.598	9892.2
474.802	9638.25
475.007	9791.85
475.212	9847.15
475.417	9306.48
475.621	9496.94
475.826	9412.98
476.031	9116.02
476.235	9034.1
476.44	9199.99
476.645	9017.72
476.849	9122.16
477.054	8808.83
477.259	8792.44
477.463	8558.97
477.668	8472.96
477.872	8616.32
478.077	8475.01
478.282	8366.46
478.486	8362.37
478.691	8255.87
478.895	8382.85
479.1	8141.19
479.304	8020.36
479.509	7920.01
479.713	8085.89
479.918	7872.9
480.122	7737.74
480.326	8010.12
480.531	8003.97
480.735	7743.88
480.94	7858.57
481.144	7893.38
481.348	7594.38
481.553	7616.91
481.757	7578
481.961	7561.61
482.166	7698.83
482.37	7756.17
482.574	7362.96
482.778	7530.89
482.983	7764.36
483.187	7590.28
483.391	7479.69
483.595	7551.37
483.8	7369.1
484.004	7610.76
484.208	7582.09
484.412	7547.28
484.616	7600.52
484.821	7541.13
485.025	7424.4
485.229	7612.81
485.433	7530.89
485.637	7567.76
485.841	7555.47
486.045	7524.75
486.249	7524.75
486.453	7360.91
486.657	7516.56
486.861	7741.83
487.065	7463.31
487.269	7578
487.473	7358.86
487.677	7432.59
487.881	7373.2
488.085	7356.82
488.289	7475.6
488.493	7379.34
488.697	7604.62
488.901	7684.49
489.105	7704.97
489.309	7637.39
489.512	7686.54
489.716	7664.01
489.92	7694.73
490.124	7713.16
490.328	7801.22
490.531	7666.06
490.735	7569.8
490.939	7766.41
491.143	7762.31
491.346	7545.23
491.55	7989.64
491.754	8020.36
491.958	7969.16
492.161	7752.07
492.365	7952.77
492.569	8012.17
492.772	7981.45
492.976	8149.38
493.18	8092.04
493.383	8145.28
493.587	8309.12
493.79	8393.09
493.994	8212.87
494.197	8317.31
494.401	8311.17
494.605	8542.59
494.808	8483.2
495.012	8542.59
495.215	8475.01
495.419	8606.08
495.622	8690.04
495.825	8765.82
496.029	8755.58
496.232	8907.13
496.436	8841.59
496.639	9113.97
496.843	9070.97
497.046	9263.47
497.249	9367.92
497.453	9472.37
497.656	9572.72
497.859	9433.46
498.063	9562.48
498.266	9789.8
498.469	9697.64
498.673	9736.56
498.876	9972.07
499.079	10064.23
499.282	10074.47
499.485	10258.79
499.689	10348.9
499.892	10504.54
500.095	10350.95
500.298	10793.31
500.501	10725.72
500.705	11012.44
500.908	11327.83
501.111	11237.72
501.314	11422.03
501.517	11428.18
501.72	11778.38
501.923	11477.33
502.126	11974.99
502.329	12017.99
502.532	12198.21
502.735	12165.45
502.938	12374.34
503.141	12319.04
503.344	12632.38
503.547	12704.06
503.75	12740.93
503.953	12912.95
504.156	13130.04
504.359	13080.89
504.562	13343.03
504.765	13463.86
504.968	13549.87
505.17	13855.02
505.373	13969.71
505.576	14225.7
505.779	14512.42
505.982	14334.25
506.185	14633.25
506.387	14629.15
506.59	14848.29
506.793	15096.09
506.996	15104.28
507.198	15573.27
507.401	15251.74
507.604	15540.5
507.807	15952.14
508.009	15880.46
508.212	16060.68
508.415	16224.52
508.617	16273.67
508.82	16544
509.022	16810.24
509.225	17039.61
509.428	17010.94
509.63	17205.5
509.833	17334.52
510.035	17850.61
510.238	17350.9
510.44	17916.14
510.643	18196.71
510.845	18256.11
511.048	18182.38
511.25	18421.99
511.453	18483.43
511.655	19347.67
511.858	19308.76
512.06	19241.18
512.262	19384.54
512.465	19611.86
512.667	19908.82
512.87	19855.57
513.072	20009.17
513.274	20517.06
513.477	20480.2
513.679	20867.27
513.881	21072.06
514.084	21223.61
514.286	21266.62
514.488	21217.47
514.69	22286.51
514.893	21799.09
515.095	21903.54
515.297	22161.58
515.499	22540.46
515.701	22956.19
515.904	23005.34
516.106	23029.92
516.308	23267.48
516.51	23582.87
516.712	23564.44
516.914	23883.92
517.116	24275.09
517.318	24287.37
517.52	24629.38
517.722	24631.43
517.925	24905.86
518.127	25010.31
518.329	25215.1
518.531	25137.28
518.733	25972.85
518.935	25927.8
519.136	26151.02
519.338	26214.51
519.54	26900.58
519.742	26718.31
519.944	27134.05
520.146	27361.37
520.348	27332.7
520.55	27283.55
520.752	27496.54
520.954	28217.43
521.155	27961.43
521.357	28696.65
521.559	28516.43
521.761	29007.94
521.963	29222.98
522.164	28932.17
522.366	29098.05
522.568	29218.88
522.77	29554.75
522.971	30130.23
523.173	29763.64
523.375	30380.08
523.576	30296.11
523.778	30365.74
523.98	30591.02
524.181	30810.15
524.383	31043.62
524.584	31359.01
524.786	31553.57
524.988	31281.19
525.189	32004.12
525.391	32047.13
525.592	32374.8
525.794	32382.99
525.995	32262.16
526.197	32663.57
526.398	32587.79
526.6	32837.64
526.801	32841.74
527.003	32897.03
527.204	32974.86
527.406	33415.17
527.607	33570.82
527.808	33642.49
528.01	33021.96
528.211	33245.19
528.412	34211.83
528.614	33544.19
528.815	33746.94
529.016	34457.59
529.218	33914.87
529.419	34103.29
529.62	34252.79
529.822	34412.53
530.023	34299.89
530.224	34420.72
530.425	34451.44
530.626	34476.02
530.828	34459.63
531.029	34924.52
531.23	34846.7
531.431	34797.55
531.632	35100.65
531.833	35250.15
532.035	34822.12
532.236	35078.12
532.437	35436.52
532.638	34850.8
532.839	35311.59
533.04	35207.14
533.241	34965.48
533.442	35643.36
533.643	35465.19
533.844	35106.79
534.045	35141.61
534.246	34967.53
534.447	35491.81
534.648	35215.33
534.849	35618.78
535.05	35389.41
535.251	35434.47
535.451	35610.59
535.652	35641.31
535.853	35291.11
536.054	35522.53
536.255	35387.36
536.456	35375.08
536.657	35790.81
536.857	35401.7
537.058	35456.99
537.259	35723.23
537.46	35438.56
537.66	35233.77
537.861	35567.59
538.062	35432.42
538.263	35684.32
538.463	35282.92
538.664	35370.98
538.865	35616.74
539.065	36024.28
539.266	35483.62
539.466	35741.66
539.667	35307.49
539.868	35844.06
540.068	35680.22
540.269	35661.79
540.469	35594.21
540.67	35026.92
540.87	35475.43
541.071	35221.48
541.271	35577.83
541.472	35309.54
541.672	35381.22
541.873	35264.49
542.073	34754.54
542.274	35588.06
542.474	35694.56
542.675	35047.4
542.875	35571.68
543.075	35463.14
543.276	34940.91
543.476	36042.71
543.676	35043.31
543.877	35647.46
544.077	34942.95
544.277	35102.7
544.478	35596.26
544.678	35586.02
544.878	35213.29
545.078	35364.84
545.279	35168.23
545.479	35381.22
545.679	35454.95
545.879	35446.76
546.079	35088.36
546.28	35620.83
546.48	35201
546.68	35262.44
546.88	35352.55
547.08	35344.36
547.28	35164.14
547.48	34646
547.68	35327.97
547.88	35297.25
548.081	35436.52
548.281	35583.97
548.481	35078.12
548.681	35280.87
548.881	34824.17
549.081	35244.01
549.28	35088.36
549.48	35225.57
549.68	35299.3
549.88	35575.78
550.08	35076.07
550.28	35186.66
550.48	35133.42
550.68	35409.89
550.88	34951.15
551.08	35024.87
551.279	34738.16
551.479	34885.61
551.679	35170.28
551.879	35045.35
552.079	35321.83
552.278	34891.76
552.478	35094.5
552.678	34777.07
552.878	35008.49
553.077	34893.8
553.277	34598.9
553.477	35178.47
553.676	34639.86
553.876	34899.95
554.076	34643.95
554.275	34633.71
554.475	34363.38
554.674	34457.59
554.874	34770.93
555.074	34652.14
555.273	34508.79
555.473	34586.61
555.672	34441.2
555.872	34621.42
556.071	34789.36
556.271	34777.07
556.47	34209.78
556.67	34246.65
556.869	34379.76
557.068	34578.42
557.268	34111.48
557.467	34590.7
557.667	34367.48
557.866	34191.35
558.065	34086.9
558.265	34056.18
558.464	33720.32
558.663	34355.19
558.863	33644.54
559.062	34113.53
559.261	33847.29
559.461	34164.73
559.66	33857.53
559.859	33728.51
560.058	33335.3
560.258	33763.32
560.457	33191.94
560.656	33533.95
560.855	33607.68
561.054	33822.72
561.253	33187.85
561.453	33454.08
561.652	33525.76
561.851	33409.03
562.05	33171.46
562.249	33232.9
562.448	33146.89
562.647	33234.95
562.846	33148.93
563.045	32909.32
563.244	32346.13
563.443	33210.37
563.642	32600.08
563.841	32704.52
564.04	32286.74
564.239	33146.89
564.438	32655.37
564.637	32440.34
564.836	32237.59
565.035	32217.11
565.234	32358.42
565.432	32264.21
565.631	31838.23
565.83	32319.51
566.029	31985.69
566.228	32077.85
566.427	31813.66
566.625	31688.73
566.824	31633.44
567.023	31662.11
567.222	31070.25
567.42	32124.95
567.619	31201.32
567.818	31555.61
568.016	31260.71
568.215	31684.64
568.414	31238.18
568.612	31408.16
568.811	31168.55
569.01	30994.47
569.208	30703.66
569.407	30953.51
569.605	30726.19
569.804	30943.27
570.002	30816.3
570.201	30900.26
570.4	30523.44
570.598	30232.63
570.797	30271.54
570.995	30605.36
571.193	30287.92
571.392	30382.13
571.59	29997.11
571.789	29958.2
571.987	29917.24
572.186	29847.61
572.384	29878.33
572.582	30292.02
572.781	29810.75
572.979	29501.5
573.177	29833.27
573.376	29827.13
573.574	29327.42
573.772	29401.15
573.971	29139.01
574.169	29118.53
574.367	28874.82
574.565	28997.7
574.763	29001.8
574.962	28788.81
575.16	28893.26
575.358	28563.53
575.556	28350.54
575.754	29161.54
575.952	28078.16
576.151	28612.68
576.349	28260.43
576.547	28383.31
576.745	28149.84
576.943	28119.12
577.141	27836.5
577.339	27877.46
577.537	28117.07
577.735	28117.07
577.933	27777.11
578.131	27732.06
578.329	27568.22
578.527	26914.92
578.725	27582.56
578.923	27596.89
579.121	27623.51
579.319	27443.29
579.516	27394.14
579.714	26773.61
579.912	27496.54
580.11	26949.73
580.308	26900.58
580.506	26904.68
580.704	26253.42
580.901	26740.84
581.099	26794.09
581.297	26785.9
581.495	26490.99
581.692	26804.33
581.89	26357.87
582.088	26474.6
582.285	26032.24
582.483	26669.16
582.681	26114.16
582.878	26009.72
583.076	25798.77
583.274	26286.19
583.471	25553.02
583.669	25890.93
583.866	25647.22
584.064	25679.99
584.262	25354.37
584.459	25696.38
584.657	25251.97
584.854	25845.88
585.052	24971.39
585.249	25143.42
585.447	25229.44
585.644	24875.14
585.841	24895.62
586.039	25225.34
586.236	24805.51
586.434	24645.77
586.631	24707.21
586.828	24514.7
587.026	25061.51
587.223	24879.24
587.42	24541.32
587.618	24465.55
587.815	24215.69
588.012	24303.76
588.21	24205.45
588.407	24160.4
588.604	24080.53
588.801	24062.1
588.999	24154.26
589.196	23914.64
589.393	23863.44
589.59	23871.64
589.787	23689.37
589.984	23503
590.182	23175.33
590.379	23490.71
590.576	23130.27
590.773	23711.89
590.97	23109.79
591.167	23204
591.364	23009.44
591.561	22972.58
591.758	22902.95
591.955	22782.12
592.152	23142.56
592.349	23181.47
592.546	22681.77
592.743	22845.6
592.94	22790.31
593.137	22700.2
593.334	22569.13
593.531	22407.34
593.727	22528.17
593.924	22456.49
594.121	21881.01
594.318	22300.84
594.515	21944.5
594.712	22106.29
594.908	21903.54
595.105	22274.22
595.302	21913.78
595.499	21721.27
595.696	21926.07
595.892	21602.49
596.089	21860.53
596.286	21561.53
596.482	21207.23
596.679	21252.28
596.876	21369.02
597.072	21250.24
597.269	21323.96
597.466	21266.62
597.662	20717.76
597.859	20981.95
598.055	20895.94
598.252	20873.41
598.448	20660.42
598.645	20785.35
598.841	20906.18
599.038	20785.35
599.234	20695.24
599.431	20402.38
599.627	20422.86
599.824	20691.14
600.02	20334.79
600.217	20601.03
600.413	20302.03
600.609	20082.89
600.806	20252.87
601.002	20308.17
601.198	20017.36
601.395	19849.43
601.591	19968.21
601.787	19943.63
601.984	19689.68
602.18	19763.41
602.376	19796.18
602.572	19601.62
602.769	19527.89
602.965	19161.31
603.161	19177.69
603.357	19343.58
603.553	19298.52
603.75	19364.06
603.946	19044.57
604.142	19265.75
604.338	18923.74
604.534	19149.02
604.73	19022.05
604.926	18723.04
605.122	18972.89
605.318	18897.12
605.514	18608.36
605.71	18428.13
605.906	18634.98
606.102	18559.2
606.298	18528.49
606.494	18577.64
606.69	18432.23
606.886	18403.56
607.082	18063.6
607.278	18481.38
607.474	17991.92
607.67	18288.87
607.866	18000.11
608.062	18264.3
608.257	18047.21
608.453	18151.66
608.649	18082.03
608.845	17912.05
609.041	18034.92
609.236	18180.33
609.432	17783.02
609.628	17772.78
609.824	17647.86
610.019	17713.39
610.215	17594.61
610.411	17555.7
610.606	17473.78
610.802	17355
610.998	17690.87
611.193	17803.5
611.389	17305.85
611.584	17412.34
611.78	17154.3
611.976	17342.71
612.171	17287.42
612.367	17393.91
612.562	17178.87
612.758	17117.43
612.953	17254.65
613.149	17250.55
613.344	17023.23
613.539	17180.92
613.735	17060.09
613.93	17152.25
614.126	16820.48
614.321	17305.85
614.517	16959.74
614.712	16906.49
614.907	16847.1
615.103	17043.71
615.298	16963.84
615.493	17017.08
615.688	16609.54
615.884	17088.76
616.079	16433.41
616.274	16773.38
616.47	16718.08
616.665	16670.98
616.86	16496.9
617.055	16498.95
617.25	16599.3
617.445	16730.37
617.641	16204.04
617.836	16455.94
618.031	16212.23
618.226	16402.69
618.421	16306.44
618.616	16054.54
618.811	15776.02
619.006	16138.51
619.201	15970.57
619.396	16269.58
619.591	15917.33
619.786	15925.52
619.981	15542.55
620.176	15855.89
620.371	15339.8
620.566	15550.74
620.761	15364.37
620.956	15503.64
621.151	15210.78
621.346	15194.39
621.541	15065.37
621.735	15261.98
621.93	14944.54
622.125	14846.24
622.32	14905.63
622.515	14860.57
622.709	14774.56
622.904	14729.5
623.099	14825.76
623.294	14692.64
623.488	14219.56
623.683	14502.18
623.878	14387.49
624.072	14221.61
624.267	14332.2
624.462	13934.89
624.656	14045.48
624.851	14135.59
625.046	13893.93
625.24	13965.61
625.435	13752.62
625.629	13607.22
625.824	13424.95
626.018	13607.22
626.213	13259.06
626.407	13218.1
626.602	13332.79
626.796	13230.39
626.991	13119.8
627.185	13089.08
627.38	12929.34
627.574	13005.11
627.768	12964.15
627.963	12890.43
628.157	12634.43
628.352	12734.78
628.546	12654.91
628.74	12628.29
628.935	12501.31
629.129	12493.12
629.323	12235.08
629.517	12380.48
629.712	12278.08
629.906	12091.72
630.1	11948.36
630.294	12468.55
630.489	11907.4
630.683	12183.88
630.877	11764.04
631.071	11704.65
631.265	11780.43
631.459	11678.03
631.653	11669.84
631.848	11479.38
632.042	11336.02
632.236	11438.42
632.43	11229.52
632.624	11395.41
632.818	11231.57
633.012	11155.8
633.206	11067.74
633.4	11207
633.594	10842.46
633.788	11256.15
633.982	11004.25
634.176	10873.18
634.369	10987.86
634.563	10621.28
634.757	10639.71
634.951	10557.79
635.145	10672.48
635.339	10662.24
635.533	10430.82
635.726	10639.71
635.92	10332.51
636.114	10291.55
636.308	10203.49
636.501	10240.36
636.695	10238.31
636.889	9941.35
637.083	10037.61
637.276	10099.05
637.47	10041.7
637.664	9759.08
637.857	9804.14
638.051	9648.49
638.244	9724.27
638.438	9812.33
638.632	9705.84
638.825	9677.16
639.019	9687.4
639.212	9417.07
639.406	9396.59
639.599	9472.37
639.793	9380.21
639.986	9118.07
640.18	9267.57
640.373	9064.82
640.567	9238.9
640.76	9132.4
640.954	8956.28
641.147	8991.09
641.34	8952.18
641.534	8675.71
641.727	8882.55
641.92	8851.83
642.114	8638.84
642.307	8589.69
642.5	8722.81
642.694	8503.68
642.887	8518.01
643.08	8685.95
643.273	8272.26
643.467	8352.13
643.66	8458.62
643.853	8210.82
644.046	8319.36
644.239	8468.86
644.432	8141.19
644.626	8081.8
644.819	7971.21
645.012	8145.28
645.205	8184.2
645.398	7901.58
645.591	7838.09
645.784	7821.7
645.977	7836.04
646.17	7821.7
646.363	7729.55
646.556	7666.06
646.749	7510.41
646.942	7780.75
647.135	7661.96
647.328	7434.64
647.521	7532.94
647.714	7494.03
647.907	7440.78
648.099	7281.04
648.292	7469.45
648.485	7195.03
648.678	7221.65
648.871	7278.99
649.064	7219.6
649.256	7180.69
649.449	7190.93
649.642	7051.67
649.835	6943.13
650.027	7039.38
650.22	7006.61
650.413	6979.99
650.605	7012.76
650.798	6896.02
650.991	6715.8
651.183	6840.73
651.376	6726.04
651.568	6783.38
651.761	6511
651.954	6719.9
652.146	6560.16
652.339	6611.36
652.531	6472.09
652.724	6302.11
652.916	6402.46
653.109	6547.87
653.301	6439.33
653.494	6549.92
653.686	6402.46
653.879	6435.23
654.071	6341.02
654.263	6230.43
654.456	6222.24
654.648	6326.69
654.84	6160.8
655.033	6060.45
655.225	6191.52
655.417	5999.01
655.61	6142.37
655.802	6142.37
655.994	6001.06
656.186	6019.49
656.379	5956.01
656.571	5824.94
656.763	5779.88
656.955	5884.33
657.148	5867.94
657.34	5822.89
657.532	5812.65
657.724	5626.28
657.916	5685.67
658.108	5738.92
658.3	5534.12
658.492	5652.91
658.684	5474.73
658.876	5558.7
659.068	5540.27
659.26	5554.6
659.452	5501.36
659.644	5530.03
659.836	5462.44
660.028	5474.73
660.22	5235.12
660.412	5360.05
660.604	5253.55
660.796	5167.54
660.988	5259.7
661.18	5136.82
661.372	5212.59
661.563	5312.94
661.755	5237.17
661.947	5171.63
662.139	5032.37
662.331	5089.71
662.522	5077.43
662.714	5005.75
662.906	4919.73
663.097	4899.25
663.289	4946.36
663.481	4927.92
663.673	5075.38
663.864	4864.44
664.056	4692.41
664.247	4934.07
664.439	4669.88
664.631	4827.57
664.822	4782.52
665.014	4751.8
665.205	4686.26
665.397	4647.35
665.588	4598.2
665.78	4647.35
665.971	4735.42
666.163	4692.41
666.354	4585.91
666.546	4577.72
666.737	4618.68
666.929	4684.22
667.12	4604.35
667.311	4522.43
667.503	4528.57
667.694	4442.56
667.885	4413.88
668.077	4393.4
668.268	4391.36
668.459	4432.32
668.651	4305.34
668.842	4256.19
669.033	4219.33
669.224	4223.42
669.416	4090.31
669.607	4303.29
669.798	4305.34
669.989	4217.28
670.18	4112.83
670.371	4168.13
670.563	4147.65
670.754	4143.55
670.945	4221.38
671.136	4131.26
671.327	4016.58
671.518	3940.8
671.709	4157.89
671.9	4204.99
672.091	4082.11
672.282	4000.19
672.473	3932.61
672.664	3908.04
672.855	3981.76
673.046	3905.99
673.237	3998.15
673.428	3969.48
673.619	3961.28
673.809	3969.48
674	3977.67
674.191	3832.26
674.382	3942.85
674.573	3817.93
674.764	3848.65
674.954	3781.06
675.145	3871.17
675.336	3762.63
675.527	3766.73
675.717	3805.64
675.908	3801.54
676.099	3848.65
676.289	3733.96
676.48	3713.48
676.671	3762.63
676.861	3680.71
677.052	3776.97
677.243	3621.32
677.433	3725.77
677.624	3762.63
677.814	3811.78
678.005	3672.52
678.195	3574.22
678.386	3680.71
678.576	3621.32
678.767	3740.1
678.957	3602.89
679.148	3604.94
679.338	3695.05
679.529	3545.55
679.719	3676.62
679.909	3662.28
680.1	3647.94
680.29	3459.53
680.481	3652.04
680.671	3654.09
680.861	3523.02
681.052	3516.87
681.242	3447.24
681.432	3615.18
681.622	3543.5
681.813	3465.68
682.003	3389.9
682.193	3469.77
682.383	3611.08
682.573	3516.87
682.764	3465.68
682.954	3578.31
683.144	3643.85
683.334	3512.78
683.524	3523.02
683.714	3469.77
683.904	3443.15
684.094	3406.28
684.284	3383.76
684.474	3510.73
684.664	3457.48
684.854	3430.86
685.044	3387.85
685.234	3334.61
685.424	3350.99
685.614	3232.21
685.804	3330.51
685.994	3269.07
686.184	3383.76
686.374	3258.83
686.564	3312.08
686.753	3365.32
686.943	3303.89
687.133	3277.26
687.323	3297.74
687.513	3228.11
687.702	3140.05
687.892	3283.41
688.082	3135.95
688.272	3238.35
688.461	3133.9
688.651	3154.38
688.841	3287.5
689.03	3097.04
689.22	3162.58
689.41	3224.01
689.599	3129.81
689.789	3172.82
689.979	2963.92
690.168	3031.51
690.358	2984.4
690.547	3013.07
690.737	3056.08
690.926	3015.12
691.116	2896.34
691.305	3019.22
691.495	3090.9
691.684	2994.64
691.874	2859.48
692.063	2957.78
692.252	2916.82
692.442	2976.21
692.631	3004.88
692.82	2849.24
693.01	2859.48
693.199	2752.98
693.388	2783.7
693.578	2689.49
693.767	2804.18
693.956	2959.83
694.146	2793.94
694.335	2705.88
694.524	2851.28
694.713	2695.64
694.902	2814.42
695.092	2695.64
695.281	2757.08
695.47	2709.97
695.659	2699.73
695.848	2716.12
696.037	2669.02
696.226	2709.97
696.415	2800.09
696.604	2732.5
696.793	2824.66
696.982	2546.14
697.171	2730.45
697.36	2701.78
697.549	2722.26
697.738	2699.73
697.927	2689.49
698.116	2740.69
698.305	2636.25
698.494	2810.33
698.683	2652.63
698.872	2601.43
699.061	2650.58
699.25	2539.99
699.438	2662.87
699.627	2748.89
699.816	2681.3
700.005	2595.29
700.193	2558.42
700.382	2615.77
700.571	2593.24
700.76	2578.9
700.948	2499.03
701.137	2558.42
701.326	2548.19
701.514	2568.66
701.703	2669.02
701.892	2697.69
702.08	2593.24
702.269	2568.66
702.457	2603.48
702.646	2544.09
702.834	2476.51
703.023	2505.18
703.212	2630.1
703.4	2607.58
703.589	2544.09
703.777	2638.3
703.965	2566.62
704.154	2583
704.342	2552.28
704.531	2537.95
704.719	2490.84
704.907	2628.06
705.096	2576.86
705.284	2607.58
705.472	2546.14
705.661	2601.43
705.849	2683.35
706.037	2505.18
706.226	2503.13
706.414	2570.71
706.602	2417.12
706.79	2652.63
706.979	2566.62
707.167	2333.15
707.355	2482.65
707.543	2556.38
707.731	2591.19
707.919	2583
708.107	2486.75
708.296	2402.78
708.484	2537.95
708.672	2486.75
708.86	2685.4
709.048	2456.03
709.236	2560.47
709.424	2554.33
709.612	2613.72
709.8	2400.73
709.988	2423.26
710.176	2482.65
710.364	2611.67
710.551	2533.85
710.739	2583
710.927	2503.13
711.115	2456.03
711.303	2558.42
711.491	2537.95
711.679	2570.71
711.866	2466.27
712.054	2453.98
712.242	2578.9
712.43	2552.28
712.617	2415.07
712.805	2533.85
712.993	2464.22
713.181	2583
713.368	2544.09
713.556	2490.84
713.744	2490.84
713.931	2490.84
714.119	2566.62
714.306	2535.9
714.494	2527.71
714.682	2587.1
714.869	2626.01
715.057	2521.56
715.244	2535.9
715.432	2472.41
715.619	2580.95
715.807	2583
715.994	2507.23
716.182	2533.85
716.369	2499.03
716.556	2492.89
716.744	2531.8
716.931	2527.71
717.119	2591.19
717.306	2439.64
717.493	2433.5
717.681	2456.03
717.868	2519.51
718.055	2558.42
718.242	2488.79
718.43	2599.38
718.617	2556.38
718.804	2566.62
718.991	2511.32
719.179	2398.68
719.366	2470.36
719.553	2494.94
719.74	2447.83
719.927	2558.42
720.114	2550.23
720.301	2521.56
720.488	2525.66
720.676	2507.23
720.863	2482.65
721.05	2636.25
721.237	2619.86
721.424	2544.09
721.611	2542.04
721.798	2441.69
721.985	2511.32
722.172	2499.03
722.358	2509.27
722.545	2482.65
722.732	2484.7
722.919	2589.14
723.106	2675.16
723.293	2560.47
723.48	2474.46
723.667	2593.24
723.853	2372.06
724.04	2531.8
724.227	2494.94
724.414	2548.19
724.6	2566.62
724.787	2429.4
724.974	2486.75
725.161	2499.03
725.347	2439.64
725.534	2513.37
725.72	2572.76
725.907	2410.97
726.094	2566.62
726.28	2533.85
726.467	2445.79
726.653	2509.27
726.84	2519.51
727.027	2722.26
727.213	2388.44
727.4	2482.65
727.586	2529.75
727.773	2486.75
727.959	2605.53
728.145	2503.13
728.332	2449.88
728.518	2468.31
728.705	2453.98
728.891	2464.22
729.077	2499.03
729.264	2429.4
729.45	2453.98
729.636	2599.38
729.823	2501.08
730.009	2607.58
730.195	2458.07
730.382	2539.99
730.568	2476.51
730.754	2398.68
730.94	2398.68
731.126	2464.22
731.313	2562.52
731.499	2513.37
731.685	2496.99
731.871	2521.56
732.057	2486.75
732.243	2548.19
732.429	2445.79
732.615	2468.31
732.801	2439.64
732.987	2484.7
733.173	2429.4
733.359	2425.31
733.545	2507.23
733.731	2437.59
733.917	2374.11
734.103	2556.38
734.289	2486.75
734.475	2423.26
734.661	2468.31
734.847	2511.32
735.033	2499.03
735.219	2513.37
735.404	2435.55
735.59	2372.06
735.776	2410.97
735.962	2308.57
736.148	2390.49
736.333	2417.12
736.519	2458.07
736.705	2494.94
736.89	2451.93
737.076	2513.37
737.262	2343.39
737.447	2503.13
737.633	2439.64
737.819	2392.54
738.004	2349.53
738.19	2402.78
738.375	2370.01
738.561	2322.91
738.747	2367.96
738.932	2273.76
739.118	2415.07
739.303	2210.27
739.489	2404.83
739.674	2322.91
739.859	2363.87
740.045	2304.48
740.23	2304.48
740.416	2253.28
740.601	2271.71
740.786	2263.52
740.972	2318.81
741.157	2240.99
741.342	2255.33
741.528	2157.02
741.713	2318.81
741.898	2361.82
742.084	2267.61
742.269	2238.94
742.454	2275.81
742.639	2171.36
742.824	2152.93
743.01	2163.17
743.195	2068.96
743.38	2146.78
743.565	2138.59
743.75	2138.59
743.935	2152.93
744.12	2085.34
744.305	2146.78
744.49	1954.27
744.675	2054.62
744.86	2052.58
745.045	2142.69
745.23	2132.45
745.415	2044.38
745.6	2015.71
745.785	2021.86
745.97	2128.35
746.155	1987.04
746.34	2056.67
746.525	1982.95
746.71	2017.76
746.895	1860.07
747.079	2013.67
747.264	1917.41
747.449	1923.55
747.634	1931.75
747.819	2087.39
748.003	1956.32
748.188	1888.74
748.373	1784.29
748.557	1874.4
748.742	1870.31
748.927	1706.47
749.111	1798.63
749.296	1837.54
749.481	1864.16
749.665	1782.24
749.85	1851.88
750.034	1806.82
750.219	1673.7
750.404	1669.61
750.588	1823.2
750.773	1743.33
750.957	1624.55
751.141	1620.46
751.326	1776.1
751.51	1622.5
751.695	1604.07
751.879	1599.98
752.064	1729
752.248	1741.29
752.432	1661.41
752.617	1667.56
752.801	1618.41
752.985	1542.63
753.17	1665.51
753.354	1622.5
753.538	1565.16
753.722	1438.19
753.907	1573.35
754.091	1599.98
754.275	1575.4
754.459	1479.15
754.643	1470.95
754.828	1468.91
755.012	1534.44
755.196	1499.63
755.38	1491.43
755.564	1333.74
755.748	1485.29
755.932	1427.95
756.116	1397.23
756.3	1409.51
756.484	1415.66
756.668	1421.8
756.852	1427.95
757.036	1315.31
757.22	1393.13
757.404	1337.84
757.588	1317.36
757.772	1298.92
757.956	1407.47
758.14	1288.68
758.323	1241.58
758.507	1276.4
758.691	1270.25
758.875	1282.54
759.059	1284.59
759.242	1321.45
759.426	1294.83
759.61	1219.05
759.794	1227.25
759.977	1280.49
760.161	1210.86
760.345	1229.29
760.528	1214.96
760.712	1114.61
760.895	1206.77
761.079	1126.89
761.263	1147.37
761.446	1143.28
761.63	1219.05
761.813	1149.42
761.997	1198.57
762.18	1067.5
762.364	1133.04
762.547	1071.6
762.731	1094.13
762.914	1124.85
763.098	1122.8
763.281	1067.5
763.464	1149.42
763.648	1157.61
763.831	1081.84
764.015	1090.03
764.198	1128.94
764.381	1044.98
764.564	977.39
764.748	1075.7
764.931	1073.65
765.114	1063.41
765.297	1051.12
765.481	1073.65
765.664	1067.5
765.847	1034.74
766.03	1028.59
766.213	1004.02
766.397	950.77
766.58	1020.4
766.763	1014.26
766.946	926.19
767.129	1004.02
767.312	926.19
767.495	1083.89
767.678	1024.5
767.861	995.82
768.044	909.81
768.227	932.34
768.41	909.81
768.593	965.11
768.776	901.62
768.959	944.63
769.142	993.78
769.324	874.99
769.507	924.15
769.69	893.43
769.873	887.28
770.056	899.57
770.239	918
770.421	971.25
770.604	975.35
770.787	920.05
770.97	954.87
771.152	905.71
771.335	952.82
771.518	924.15
771.7	868.85
771.883	870.9
772.066	897.52
772.248	870.9
772.431	850.42
772.613	854.51
772.796	829.94
772.978	913.91
773.161	829.94
773.343	813.56
773.526	866.8
773.708	791.03
773.891	784.88
774.073	815.6
774.256	741.88
774.438	848.37
774.621	797.17
774.803	813.56
774.985	791.03
775.168	868.85
775.35	723.44
775.532	680.44
775.715	641.53
775.897	827.89
776.079	797.17
776.261	725.49
776.444	739.83
776.626	659.96
776.808	672.25
776.99	723.44
777.173	772.6
777.355	741.88
777.537	723.44
777.719	688.63
777.901	629.24
778.083	727.54
778.265	674.29
778.447	768.5
778.629	584.18
778.811	676.34
778.993	678.39
779.175	629.24
779.357	702.97
779.539	643.57
779.721	596.47
779.903	614.9
780.085	590.33
780.267	614.9
780.449	664.05
780.631	655.86
780.812	596.47
780.994	594.42
781.176	670.2
781.358	575.99
781.54	635.38
781.721	561.66
781.903	633.33
782.085	510.46
782.267	547.32
782.448	569.85
782.63	526.84
782.812	518.65
782.993	547.32
783.175	518.65
783.357	596.47
783.538	442.87
783.72	559.61
783.901	553.46
784.083	537.08
784.264	451.07
784.446	522.74
784.627	455.16
784.809	483.83
784.99	430.59
785.172	502.26
785.353	426.49
785.535	481.78
785.716	471.54
785.897	426.49
786.079	430.59
786.26	459.26
786.441	502.26
786.623	451.07
786.804	428.54
786.985	436.73
787.167	438.78
787.348	430.59
787.529	526.84
787.71	446.97
787.891	483.83
788.073	401.91
788.254	434.68
788.435	481.78
788.616	473.59
788.797	358.91
788.978	434.68
789.159	430.59
789.34	438.78
789.522	356.86
789.703	434.68
789.884	412.15
790.065	377.34
790.246	475.64
790.427	410.11
790.607	365.05
790.788	387.58
790.969	387.58
791.15	332.28
791.331	358.91
791.512	397.82
791.693	322.04
791.874	330.23
792.054	334.33
792.235	412.15
792.416	299.52
792.597	371.19
792.778	317.95
792.958	344.57
793.139	365.05
793.32	367.1
793.5	320
793.681	391.67
793.862	385.53
794.042	379.39
794.223	293.37
794.404	436.73
794.584	289.28
794.765	336.38
794.945	287.23
795.126	324.09
795.306	346.62
795.487	350.71
795.667	238.08
795.848	297.47
796.028	233.98
796.209	326.14
796.389	334.33
796.57	256.51
796.75	240.12
796.93	375.29
797.111	344.57
797.291	303.61
797.471	313.85
797.652	274.94
797.832	236.03
798.012	272.89
798.192	227.84
798.373	270.84
798.553	248.32
798.733	233.98
798.913	283.13
799.093	258.56
799.274	250.36
799.454	238.08
799.634	320
799.814	270.84
799.994	283.13
800.174	379.39
800.354	276.99
800.534	256.51
800.714	242.17
800.894	254.46
801.074	231.93
801.254	340.47
801.434	281.08
801.614	209.4
801.794	205.31
801.974	631.29
802.154	240.12
802.334	199.16
802.514	217.6
802.693	287.23
802.873	162.3
803.053	215.55
803.233	262.65
803.413	211.45
803.592	303.61
803.772	240.12
803.952	244.22
804.131	154.11
804.311	217.6
804.491	213.5
804.67	260.6
804.85	236.03
805.03	137.73
805.209	219.64
805.389	158.21
805.568	182.78
805.748	182.78
805.928	289.28
806.107	219.64
806.287	217.6
806.466	211.45
806.646	217.6
806.825	137.73
807.004	211.45
807.184	305.66
807.363	215.55
807.543	236.03
807.722	205.31
807.901	205.31
808.081	236.03
808.26	119.29
808.439	219.64
808.619	184.83
808.798	156.16
808.977	184.83
809.156	186.88
809.336	176.64
809.515	190.97
809.694	109.05
809.873	174.59
810.052	201.21
810.231	135.68
810.411	154.11
810.59	193.02
810.769	236.03
810.948	207.36
811.127	152.06
811.306	203.26
811.485	123.39
811.664	240.12
811.843	125.44
812.022	227.84
812.201	205.31
812.38	152.06
812.559	139.77
812.737	123.39
812.916	98.81
813.095	211.45
813.274	139.77
813.453	137.73
813.632	109.05
813.811	156.16
813.989	164.35
814.168	121.34
814.347	129.53
814.526	176.64
814.704	246.27
814.883	96.77
815.062	166.4
815.24	133.63
815.419	180.73
815.598	213.5
815.776	64
815.955	154.11
816.133	49.66
816.312	145.92
816.49	55.81
816.669	203.26
816.847	186.88
817.026	258.56
817.204	141.82
817.383	139.77
817.561	78.33
817.74	127.49
817.918	72.19
818.097	137.73
818.275	166.4
818.453	98.81
818.632	98.81
818.81	51.71
818.988	131.58
819.167	94.72
819.345	152.06
819.523	100.86
819.701	100.86
819.879	193.02
820.058	96.77
820.236	82.43
820.414	133.63
820.592	113.15
820.77	154.11
820.948	86.53
821.127	96.77
821.305	199.16
821.483	61.95
821.661	94.72
821.839	139.77
822.017	137.73
822.195	43.52
822.373	41.47
822.551	92.67
822.729	172.54
822.907	90.62
823.085	113.15
823.262	111.1
823.44	107.01
823.618	107.01
823.796	156.16
823.974	104.96
824.152	117.25
824.329	88.57
824.507	119.29
824.685	133.63
824.863	82.43
825.04	137.73
825.218	229.88
825.396	135.68
825.574	131.58
825.751	102.91
825.929	100.86
826.107	131.58
826.284	96.77
826.462	102.91
826.639	92.67
826.817	127.49
826.994	133.63
827.172	43.52
827.349	131.58
827.527	133.63
827.704	104.96
827.882	72.19
828.059	117.25
828.237	109.05
828.414	150.01
828.591	76.29
828.769	90.62
828.946	82.43
829.124	61.95
829.301	131.58
829.478	53.76
829.655	107.01
829.833	145.92
830.01	64
830.187	94.72
830.364	57.86
830.542	84.48
830.719	152.06
830.896	82.43
831.073	72.19
831.25	27.14
831.427	115.2
831.604	66.05
831.782	64
831.959	135.68
832.136	45.57
832.313	98.81
832.49	72.19
832.667	115.2
832.844	92.67
833.021	59.9
833.198	2.56
833.374	139.77
833.551	74.24
833.728	55.81
833.905	33.28
834.082	59.9
834.259	143.87
834.436	82.43
834.612	4.61
834.789	88.57
834.966	74.24
835.143	123.39
835.319	123.39
835.496	45.57
835.673	35.33
835.85	111.1
836.026	31.23
836.203	49.66
836.38	41.47
836.556	88.57
836.733	150.01
836.909	92.67
837.086	51.71
837.262	20.99
837.439	47.62
837.616	27.14
837.792	47.62
837.968	84.48
838.145	-15.87
838.321	57.86
838.498	31.23
838.674	18.94
838.851	150.01
839.027	25.09
839.203	111.1
839.38	53.76
839.556	39.42
839.732	92.67
839.909	49.66
840.085	37.38
840.261	8.7
840.437	88.57
840.614	59.9
840.79	102.91
840.966	109.05
841.142	94.72
841.318	35.33
841.494	96.77
841.671	98.81
841.847	-17.92
842.023	41.47
842.199	76.29
842.375	86.53
842.551	55.81
842.727	20.99
842.903	51.71
843.079	51.71
843.255	76.29
843.431	59.9
843.607	43.52
843.783	-60.93
843.959	41.47
844.134	-32.26
844.31	66.05
844.486	111.1
844.662	104.96
844.838	12.8
845.013	100.86
845.189	53.76
845.365	117.25
845.541	23.04
845.716	8.7
845.892	-1.54
846.068	74.24
846.244	-36.35
846.419	90.62
846.595	27.14
846.77	107.01
846.946	74.24
847.122	53.76
847.297	6.66
847.473	57.86
847.648	59.9
847.824	66.05
847.999	-22.02
848.175	-54.78
848.35	90.62
848.526	49.66
848.701	111.1
848.876	72.19
849.052	16.9
849.227	-13.82
849.403	23.04
849.578	53.76
849.753	92.67
849.929	-42.5
850.104	-5.63
850.279	18.94
850.454	31.23
850.63	59.9
850.805	39.42
850.98	92.67
851.155	25.09
851.33	29.18
851.505	27.14
851.681	111.1
851.856	72.19
852.031	61.95
852.206	39.42
852.381	29.18
852.556	2.56
852.731	35.33
852.906	111.1
853.081	18.94
853.256	-9.73
853.431	23.04
853.606	72.19
853.781	68.09
853.956	-24.06
854.131	55.81
854.305	51.71
854.48	37.38
854.655	70.14
854.83	-24.06
855.005	39.42
855.18	20.99
855.354	31.23
855.529	45.57
855.704	27.14
855.879	10.75
856.053	29.18
856.228	18.94
856.403	23.04
856.577	6.66
856.752	-7.68
856.926	96.77
857.101	47.62
857.276	29.18
857.45	-40.45
857.625	23.04
857.799	25.09
857.974	20.99
858.148	-81.41
858.323	100.86
858.497	4.61
858.672	-13.82
858.846	37.38
859.02	-26.11
859.195	45.57
859.369	43.52
859.543	39.42
859.718	20.99
859.892	49.66
860.066	78.33
860.241	27.14
860.415	61.95
860.589	88.57
860.763	109.05
860.938	14.85
861.112	18.94
861.286	6.66
861.46	43.52
861.634	39.42
861.808	61.95
861.982	-11.78
862.157	20.99
862.331	14.85
862.505	6.66
862.679	-28.16
862.853	43.52
863.027	-1.54
863.201	51.71
863.375	61.95
863.549	-13.82
863.722	125.44
863.896	29.18
864.07	-54.78
864.244	98.81
864.418	35.33
864.592	-5.63
864.766	18.94
864.939	-30.21
865.113	49.66
865.287	72.19
865.461	-3.58
865.634	14.85
865.808	55.81
865.982	6.66
866.156	86.53
866.329	37.38
866.503	-46.59
866.676	-56.83
866.85	31.23
867.024	49.66
867.197	-30.21
867.371	74.24
867.544	100.86
867.718	33.28
867.891	49.66
868.065	78.33
868.238	72.19
868.412	6.66
868.585	53.76
868.759	-17.92
868.932	23.04
869.105	-85.5
869.279	51.71
869.452	47.62
869.625	0.51
869.799	8.7
869.972	31.23
870.145	51.71
870.319	16.9
870.492	10.75
870.665	39.42
870.838	14.85
871.011	-67.07
871.185	0.51
871.358	66.05
871.531	2.56
871.704	-7.68
871.877	45.57
872.05	-46.59
872.223	31.23
872.396	-30.21
872.569	90.62
872.742	41.47
872.915	-11.78
873.088	-13.82
873.261	-13.82
873.434	35.33
873.607	-89.6
873.78	-11.78
873.953	51.71
874.126	20.99
874.299	53.76
874.471	-50.69
874.644	-22.02
874.817	18.94
874.99	27.14
875.163	14.85
875.335	10.75
875.508	20.99
875.681	100.86
875.853	0.51
876.026	-36.35
876.199	-22.02
876.371	14.85
876.544	-3.58
876.717	-19.97
876.889	6.66
877.062	10.75
877.234	23.04
877.407	72.19
877.579	-13.82
877.752	-52.74
877.924	59.9
878.097	-42.5
878.269	66.05
878.442	25.09
878.614	43.52
878.786	41.47
878.959	23.04
879.131	23.04
879.303	2.56
879.476	20.99
879.648	-17.92
879.82	72.19
879.993	16.9
880.165	-15.87
880.337	37.38
880.509	74.24
880.681	47.62
880.854	-81.41
881.026	-34.3
881.198	39.42
881.37	20.99
881.542	8.7
881.714	2.56
881.886	31.23
882.058	18.94
882.23	25.09
882.402	-32.26
882.574	-28.16
882.746	31.23
882.918	104.96
883.09	14.85
883.262	55.81
883.434	-11.78
883.606	-1.54
883.778	-9.73
883.95	29.18
884.122	8.7
884.293	-11.78
884.465	2.56
884.637	45.57
884.809	-67.07
884.98	55.81
885.152	20.99
885.324	66.05
885.496	41.47
885.667	6.66
885.839	41.47
886.011	43.52
886.182	-7.68
886.354	18.94
886.525	23.04
886.697	66.05
886.869	-24.06
887.04	33.28
887.212	4.61
887.383	72.19
887.555	6.66
887.726	74.24
887.897	-13.82
888.069	20.99
888.24	-17.92
888.412	-15.87
888.583	6.66
888.754	8.7
888.926	-11.78
889.097	-9.73
889.268	64
889.44	-17.92
889.611	27.14
889.782	6.66
889.953	10.75
890.125	25.09
890.296	-34.3
890.467	16.9
890.638	35.33
890.809	51.71
890.98	-52.74
891.151	29.18
891.323	-5.63
891.494	29.18
891.665	-5.63
891.836	47.62
892.007	37.38
892.178	-11.78
892.349	86.53
892.52	-34.3
892.691	64
892.862	82.43
893.032	20.99
893.203	-28.16
893.374	109.05
893.545	88.57
893.716	0.51
893.887	-58.88
894.057	-56.83
894.228	12.8
894.399	14.85
894.57	-62.98
894.74	23.04
894.911	66.05
895.082	-19.97
895.253	-52.74
895.423	8.7
895.594	18.94
895.764	59.9
895.935	-28.16
896.106	49.66
896.276	-22.02
896.447	55.81
896.617	31.23
896.788	-34.3
896.958	23.04
897.129	-48.64
897.299	12.8
897.47	78.33
897.64	53.76
897.81	-9.73
897.981	4.61
898.151	43.52
898.322	-36.35
898.492	-34.3
898.662	2.56
898.832	-54.78
899.003	16.9
899.173	14.85
899.343	-9.73
899.513	-48.64
