Data from USB4F104151__62__11-52-31-922.txt Node

Date: Fri Mar 14 11:52:31 EDT 2025
User: louis
Spectrometer: USB4F10415
Trigger mode: 4
Integration Time (sec): 2.000000E-2
Scans to average: 1
Electric dark correction enabled: true
Nonlinearity correction enabled: false
Boxcar width: 0
XAxis mode: Wavelengths
Number of Pixels in Spectrum: 3648
>>>>>Begin Spectral Data<<<<<
178.204	-37.38
178.424	-37.38
178.644	-37.38
178.864	-35.33
179.084	-41.47
179.304	-10.75
179.524	-6.66
179.744	-64
179.964	15.87
180.184	-23.04
180.404	89.6
180.624	-29.18
180.844	77.31
181.064	-47.62
181.283	22.02
181.503	-82.43
181.723	58.88
181.943	-59.9
182.163	52.74
182.383	-25.09
182.602	52.74
182.822	38.4
183.042	-18.94
183.262	95.74
183.482	34.3
183.701	65.02
183.921	28.16
184.141	-107.01
184.361	28.16
184.58	-33.28
184.8	-4.61
185.02	13.82
185.239	69.12
185.459	3.58
185.679	62.98
185.898	-80.38
186.118	38.4
186.338	-33.28
186.557	42.5
186.777	3.58
186.997	85.5
187.216	22.02
187.436	112.13
187.655	17.92
187.875	3.58
188.095	60.93
188.314	13.82
188.534	-12.8
188.753	-8.7
188.973	114.17
189.192	54.78
189.412	108.03
189.631	9.73
189.851	-33.28
190.07	19.97
190.29	26.11
190.509	-8.7
190.729	-4.61
190.948	11.78
191.168	77.31
191.387	130.56
191.607	-6.66
191.826	46.59
192.045	15.87
192.265	54.78
192.484	11.78
192.704	26.11
192.923	3.58
193.142	71.17
193.362	-41.47
193.581	19.97
193.8	24.06
194.02	9.73
194.239	-25.09
194.458	30.21
194.678	15.87
194.897	93.69
195.116	22.02
195.335	38.4
195.555	42.5
195.774	1.54
195.993	-6.66
196.212	-53.76
196.432	62.98
196.651	22.02
196.87	48.64
197.089	15.87
197.308	34.3
197.528	19.97
197.747	26.11
197.966	-16.9
198.185	44.54
198.404	5.63
198.623	40.45
198.842	15.87
199.062	54.78
199.281	17.92
199.5	32.26
199.719	22.02
199.938	-72.19
200.157	-18.94
200.376	40.45
200.595	19.97
200.814	44.54
201.033	17.92
201.252	34.3
201.471	46.59
201.69	38.4
201.909	-4.61
202.128	56.83
202.347	26.11
202.566	15.87
202.785	-37.38
203.004	15.87
203.223	77.31
203.442	108.03
203.661	30.21
203.879	42.5
204.098	24.06
204.317	-20.99
204.536	36.35
204.755	9.73
204.974	50.69
205.193	13.82
205.411	81.41
205.63	-2.56
205.849	99.84
206.068	-39.42
206.287	13.82
206.505	5.63
206.724	11.78
206.943	-31.23
207.162	52.74
207.381	-23.04
207.599	3.58
207.818	-33.28
208.037	7.68
208.255	95.74
208.474	91.65
208.693	-25.09
208.911	-41.47
209.13	28.16
209.349	-2.56
209.567	67.07
209.786	69.12
210.005	7.68
210.223	42.5
210.442	56.83
210.661	1.54
210.879	54.78
211.098	7.68
211.316	32.26
211.535	-2.56
211.753	-31.23
211.972	32.26
212.191	22.02
212.409	3.58
212.628	71.17
212.846	-41.47
213.065	38.4
213.283	120.32
213.502	50.69
213.72	17.92
213.938	32.26
214.157	28.16
214.375	-51.71
214.594	28.16
214.812	13.82
215.031	32.26
215.249	36.35
215.467	97.79
215.686	40.45
215.904	-16.9
216.122	17.92
216.341	46.59
216.559	9.73
216.778	-2.56
216.996	40.45
217.214	52.74
217.432	-27.14
217.651	44.54
217.869	-4.61
218.087	81.41
218.306	17.92
218.524	-18.94
218.742	5.63
218.96	42.5
219.179	69.12
219.397	-18.94
219.615	89.6
219.833	85.5
220.051	-10.75
220.27	83.45
220.488	48.64
220.706	5.63
220.924	34.3
221.142	44.54
221.36	-20.99
221.578	19.97
221.796	22.02
222.015	9.73
222.233	-6.66
222.451	28.16
222.669	-12.8
222.887	26.11
223.105	44.54
223.323	19.97
223.541	19.97
223.759	34.3
223.977	17.92
224.195	38.4
224.413	44.54
224.631	112.13
224.849	40.45
225.067	58.88
225.285	34.3
225.503	54.78
225.721	9.73
225.939	7.68
226.157	7.68
226.375	105.98
226.592	-18.94
226.81	36.35
227.028	-10.75
227.246	7.68
227.464	19.97
227.682	-10.75
227.9	-16.9
228.117	17.92
228.335	32.26
228.553	67.07
228.771	48.64
228.989	-20.99
229.206	28.16
229.424	38.4
229.642	-45.57
229.86	28.16
230.077	24.06
230.295	7.68
230.513	56.83
230.731	-23.04
230.948	13.82
231.166	34.3
231.384	-39.42
231.601	9.73
231.819	67.07
232.037	42.5
232.254	-6.66
232.472	-41.47
232.689	26.11
232.907	11.78
233.125	-47.62
233.342	-14.85
233.56	-47.62
233.777	-37.38
233.995	15.87
234.213	9.73
234.43	89.6
234.648	32.26
234.865	-23.04
235.083	26.11
235.3	73.21
235.518	1.54
235.735	50.69
235.953	73.21
236.17	7.68
236.388	48.64
236.605	52.74
236.822	69.12
237.04	24.06
237.257	28.16
237.475	-14.85
237.692	26.11
237.909	-2.56
238.127	5.63
238.344	48.64
238.562	69.12
238.779	28.16
238.996	-33.28
239.214	13.82
239.431	24.06
239.648	7.68
239.865	-2.56
240.083	42.5
240.3	44.54
240.517	17.92
240.735	26.11
240.952	140.8
241.169	-33.28
241.386	32.26
241.603	17.92
241.821	40.45
242.038	-47.62
242.255	11.78
242.472	1.54
242.689	26.11
242.907	24.06
243.124	77.31
243.341	-4.61
243.558	11.78
243.775	67.07
243.992	-20.99
244.209	62.98
244.426	46.59
244.643	7.68
244.86	22.02
245.078	28.16
245.295	95.74
245.512	87.55
245.729	-10.75
245.946	-29.18
246.163	58.88
246.38	32.26
246.597	40.45
246.814	77.31
247.031	-16.9
247.248	28.16
247.464	-31.23
247.681	1.54
247.898	13.82
248.115	36.35
248.332	-20.99
248.549	48.64
248.766	75.26
248.983	42.5
249.2	15.87
249.417	54.78
249.633	38.4
249.85	87.55
250.067	95.74
250.284	58.88
250.501	11.78
250.717	118.27
250.934	9.73
251.151	32.26
251.368	11.78
251.585	-2.56
251.801	-6.66
252.018	75.26
252.235	91.65
252.451	3.58
252.668	-23.04
252.885	34.3
253.102	75.26
253.318	77.31
253.535	60.93
253.752	71.17
253.968	60.93
254.185	-47.62
254.401	46.59
254.618	46.59
254.835	-0.51
255.051	13.82
255.268	17.92
255.484	9.73
255.701	36.35
255.917	60.93
256.134	-14.85
256.351	9.73
256.567	-23.04
256.784	60.93
257	-23.04
257.217	67.07
257.433	24.06
257.65	110.08
257.866	79.36
258.082	13.82
258.299	-41.47
258.515	-51.71
258.732	-10.75
258.948	-61.95
259.165	-72.19
259.381	44.54
259.597	-100.86
259.814	56.83
260.03	26.11
260.246	19.97
260.463	17.92
260.679	15.87
260.895	67.07
261.112	-23.04
261.328	-4.61
261.544	58.88
261.761	83.45
261.977	40.45
262.193	52.74
262.409	85.5
262.626	36.35
262.842	54.78
263.058	11.78
263.274	114.17
263.49	56.83
263.707	87.55
263.923	-12.8
264.139	19.97
264.355	-41.47
264.571	30.21
264.787	36.35
265.004	46.59
265.22	5.63
265.436	-16.9
265.652	-20.99
265.868	46.59
266.084	-49.66
266.3	17.92
266.516	-8.7
266.732	-39.42
266.948	9.73
267.164	-49.66
267.38	46.59
267.596	3.58
267.812	40.45
268.028	97.79
268.244	40.45
268.46	30.21
268.676	56.83
268.892	54.78
269.108	93.69
269.324	-39.42
269.54	85.5
269.756	69.12
269.972	28.16
270.188	-51.71
270.403	56.83
270.619	5.63
270.835	91.65
271.051	50.69
271.267	24.06
271.483	85.5
271.698	50.69
271.914	54.78
272.13	-2.56
272.346	-6.66
272.562	9.73
272.777	40.45
272.993	-12.8
273.209	85.5
273.425	1.54
273.64	46.59
273.856	58.88
274.072	13.82
274.287	60.93
274.503	-18.94
274.719	56.83
274.934	83.45
275.15	-25.09
275.366	3.58
275.581	89.6
275.797	-16.9
276.012	-2.56
276.228	85.5
276.444	42.5
276.659	-10.75
276.875	44.54
277.09	-49.66
277.306	-6.66
277.521	42.5
277.737	71.17
277.952	52.74
278.168	5.63
278.383	77.31
278.599	-6.66
278.814	52.74
279.03	-0.51
279.245	-25.09
279.461	-25.09
279.676	81.41
279.892	-4.61
280.107	-12.8
280.322	44.54
280.538	73.21
280.753	-14.85
280.969	65.02
281.184	22.02
281.399	36.35
281.615	-2.56
281.83	44.54
282.045	1.54
282.26	1.54
282.476	62.98
282.691	36.35
282.906	26.11
283.122	32.26
283.337	1.54
283.552	30.21
283.767	9.73
283.983	48.64
284.198	-6.66
284.413	22.02
284.628	-23.04
284.843	3.58
285.058	46.59
285.274	-12.8
285.489	-18.94
285.704	69.12
285.919	36.35
286.134	-2.56
286.349	101.89
286.564	36.35
286.779	69.12
286.995	30.21
287.21	34.3
287.425	-8.7
287.64	-8.7
287.855	40.45
288.07	38.4
288.285	60.93
288.5	116.22
288.715	65.02
288.93	58.88
289.145	3.58
289.36	103.93
289.575	38.4
289.79	32.26
290.004	-25.09
290.219	48.64
290.434	144.89
290.649	65.02
290.864	-6.66
291.079	50.69
291.294	40.45
291.509	52.74
291.724	40.45
291.938	114.17
292.153	-20.99
292.368	-0.51
292.583	122.37
292.798	17.92
293.012	-29.18
293.227	65.02
293.442	26.11
293.657	7.68
293.871	79.36
294.086	24.06
294.301	-4.61
294.516	-74.24
294.73	48.64
294.945	56.83
295.16	32.26
295.374	79.36
295.589	-10.75
295.804	1.54
296.018	9.73
296.233	38.4
296.447	48.64
296.662	-10.75
296.877	28.16
297.091	73.21
297.306	67.07
297.52	13.82
297.735	36.35
297.949	46.59
298.164	56.83
298.378	-16.9
298.593	13.82
298.807	-57.86
299.022	40.45
299.236	87.55
299.451	81.41
299.665	-25.09
299.88	7.68
300.094	50.69
300.309	93.69
300.523	56.83
300.737	15.87
300.952	26.11
301.166	3.58
301.381	7.68
301.595	-27.14
301.809	52.74
302.024	28.16
302.238	65.02
302.452	5.63
302.667	19.97
302.881	50.69
303.095	24.06
303.309	93.69
303.524	48.64
303.738	24.06
303.952	28.16
304.166	71.17
304.381	30.21
304.595	79.36
304.809	36.35
305.023	-14.85
305.237	79.36
305.452	-2.56
305.666	54.78
305.88	19.97
306.094	32.26
306.308	-47.62
306.522	91.65
306.736	87.55
306.95	30.21
307.164	34.3
307.379	67.07
307.593	83.45
307.807	13.82
308.021	75.26
308.235	54.78
308.449	48.64
308.663	-51.71
308.877	65.02
309.091	54.78
309.305	54.78
309.519	7.68
309.733	108.03
309.947	-4.61
310.161	69.12
310.374	91.65
310.588	40.45
310.802	3.58
311.016	62.98
311.23	9.73
311.444	71.17
311.658	-41.47
311.872	17.92
312.085	99.84
312.299	30.21
312.513	95.74
312.727	93.69
312.941	30.21
313.154	65.02
313.368	73.21
313.582	28.16
313.796	-20.99
314.009	26.11
314.223	28.16
314.437	89.6
314.651	56.83
314.864	-0.51
315.078	17.92
315.292	71.17
315.505	-2.56
315.719	65.02
315.933	19.97
316.146	-18.94
316.36	-0.51
316.573	-8.7
316.787	54.78
317.001	62.98
317.214	-51.71
317.428	87.55
317.641	-0.51
317.855	-4.61
318.068	9.73
318.282	5.63
318.495	11.78
318.709	62.98
318.922	-18.94
319.136	34.3
319.349	112.13
319.563	3.58
319.776	22.02
319.99	-18.94
320.203	22.02
320.417	52.74
320.63	-4.61
320.843	97.79
321.057	87.55
321.27	65.02
321.483	-6.66
321.697	9.73
321.91	-0.51
322.124	97.79
322.337	101.89
322.55	40.45
322.763	26.11
322.977	17.92
323.19	26.11
323.403	40.45
323.617	30.21
323.83	7.68
324.043	7.68
324.256	52.74
324.469	24.06
324.683	103.93
324.896	26.11
325.109	54.78
325.322	-33.28
325.535	-35.33
325.748	60.93
325.962	-14.85
326.175	28.16
326.388	93.69
326.601	-12.8
326.814	40.45
327.027	11.78
327.24	71.17
327.453	-49.66
327.666	22.02
327.879	48.64
328.092	34.3
328.305	52.74
328.518	36.35
328.731	7.68
328.944	-0.51
329.157	22.02
329.37	52.74
329.583	65.02
329.796	13.82
330.009	34.3
330.222	-25.09
330.435	48.64
330.648	-25.09
330.861	-31.23
331.073	22.02
331.286	128.51
331.499	56.83
331.712	-23.04
331.925	28.16
332.138	75.26
332.35	97.79
332.563	-14.85
332.776	58.88
332.989	30.21
333.202	28.16
333.414	60.93
333.627	87.55
333.84	42.5
334.053	-20.99
334.265	52.74
334.478	19.97
334.691	54.78
334.903	50.69
335.116	-20.99
335.329	60.93
335.541	81.41
335.754	42.5
335.966	42.5
336.179	50.69
336.392	105.98
336.604	54.78
336.817	91.65
337.029	60.93
337.242	-37.38
337.454	5.63
337.667	-0.51
337.88	79.36
338.092	40.45
338.305	19.97
338.517	-33.28
338.729	-4.61
338.942	9.73
339.154	58.88
339.367	-31.23
339.579	-6.66
339.792	-10.75
340.004	44.54
340.217	11.78
340.429	9.73
340.641	36.35
340.854	38.4
341.066	24.06
341.278	52.74
341.491	60.93
341.703	38.4
341.915	17.92
342.128	36.35
342.34	65.02
342.552	19.97
342.764	1.54
342.977	101.89
343.189	38.4
343.401	79.36
343.613	26.11
343.826	-14.85
344.038	-14.85
344.25	-20.99
344.462	30.21
344.674	60.93
344.886	40.45
345.099	91.65
345.311	26.11
345.523	52.74
345.735	73.21
345.947	26.11
346.159	17.92
346.371	24.06
346.583	91.65
346.795	105.98
347.007	65.02
347.219	26.11
347.431	56.83
347.643	144.89
347.855	40.45
348.067	128.51
348.279	58.88
348.491	46.59
348.703	34.3
348.915	24.06
349.127	56.83
349.339	42.5
349.551	13.82
349.763	-2.56
349.975	85.5
350.187	24.06
350.399	24.06
350.61	114.17
350.822	-0.51
351.034	54.78
351.246	40.45
351.458	26.11
351.669	34.3
351.881	40.45
352.093	54.78
352.305	62.98
352.517	36.35
352.728	97.79
352.94	91.65
353.152	36.35
353.363	3.58
353.575	67.07
353.787	60.93
353.999	28.16
354.21	44.54
354.422	-14.85
354.633	46.59
354.845	73.21
355.057	93.69
355.268	22.02
355.48	3.58
355.692	50.69
355.903	73.21
356.115	81.41
356.326	22.02
356.538	69.12
356.749	42.5
356.961	-2.56
357.172	19.97
357.384	-39.42
357.595	110.08
357.807	28.16
358.018	-20.99
358.23	22.02
358.441	54.78
358.653	54.78
358.864	17.92
359.075	65.02
359.287	40.45
359.498	40.45
359.709	5.63
359.921	38.4
360.132	-6.66
360.344	11.78
360.555	81.41
360.766	28.16
360.977	22.02
361.189	22.02
361.4	24.06
361.611	77.31
361.823	116.22
362.034	116.22
362.245	-31.23
362.456	42.5
362.667	-33.28
362.879	26.11
363.09	116.22
363.301	91.65
363.512	87.55
363.723	56.83
363.935	11.78
364.146	-10.75
364.357	95.74
364.568	60.93
364.779	60.93
364.99	95.74
365.201	5.63
365.412	48.64
365.623	124.41
365.834	56.83
366.045	83.45
366.256	93.69
366.467	101.89
366.678	69.12
366.889	-0.51
367.1	38.4
367.311	116.22
367.522	-8.7
367.733	40.45
367.944	153.09
368.155	9.73
368.366	65.02
368.577	91.65
368.788	95.74
368.999	42.5
369.209	48.64
369.42	42.5
369.631	62.98
369.842	38.4
370.053	-14.85
370.264	46.59
370.474	73.21
370.685	34.3
370.896	9.73
371.107	71.17
371.317	24.06
371.528	15.87
371.739	128.51
371.95	13.82
372.16	69.12
372.371	17.92
372.582	58.88
372.792	71.17
373.003	32.26
373.214	40.45
373.424	50.69
373.635	62.98
373.846	101.89
374.056	-25.09
374.267	54.78
374.477	34.3
374.688	-12.8
374.898	67.07
375.109	13.82
375.319	-2.56
375.53	11.78
375.74	42.5
375.951	28.16
376.161	91.65
376.372	97.79
376.582	42.5
376.793	5.63
377.003	83.45
377.214	36.35
377.424	67.07
377.635	17.92
377.845	54.78
378.055	42.5
378.266	54.78
378.476	62.98
378.686	30.21
378.897	62.98
379.107	71.17
379.317	3.58
379.528	46.59
379.738	101.89
379.948	65.02
380.158	-6.66
380.369	73.21
380.579	22.02
380.789	22.02
380.999	67.07
381.21	81.41
381.42	95.74
381.63	54.78
381.84	38.4
382.05	46.59
382.261	128.51
382.471	-0.51
382.681	58.88
382.891	13.82
383.101	67.07
383.311	75.26
383.521	65.02
383.731	26.11
383.941	93.69
384.151	93.69
384.361	28.16
384.571	118.27
384.781	95.74
384.991	56.83
385.201	101.89
385.411	87.55
385.621	73.21
385.831	112.13
386.041	44.54
386.251	101.89
386.461	122.37
386.671	54.78
386.881	71.17
387.091	77.31
387.301	-0.51
387.511	65.02
387.72	75.26
387.93	46.59
388.14	5.63
388.35	85.5
388.56	48.64
388.769	77.31
388.979	79.36
389.189	-0.51
389.399	52.74
389.609	118.27
389.818	22.02
390.028	42.5
390.238	42.5
390.447	85.5
390.657	124.41
390.867	19.97
391.076	77.31
391.286	79.36
391.496	34.3
391.705	110.08
391.915	116.22
392.125	58.88
392.334	50.69
392.544	36.35
392.753	-4.61
392.963	95.74
393.172	36.35
393.382	67.07
393.591	62.98
393.801	153.09
394.01	118.27
394.22	65.02
394.429	103.93
394.639	99.84
394.848	75.26
395.058	79.36
395.267	40.45
395.477	69.12
395.686	173.57
395.895	103.93
396.105	165.37
396.314	89.6
396.524	71.17
396.733	120.32
396.942	138.75
397.152	87.55
397.361	120.32
397.57	62.98
397.78	114.17
397.989	40.45
398.198	52.74
398.407	114.17
398.617	124.41
398.826	85.5
399.035	95.74
399.244	116.22
399.453	114.17
399.663	116.22
399.872	101.89
400.081	-14.85
400.29	165.37
400.499	116.22
400.708	103.93
400.917	83.45
401.127	103.93
401.336	99.84
401.545	108.03
401.754	79.36
401.963	167.42
402.172	60.93
402.381	144.89
402.59	103.93
402.799	146.94
403.008	93.69
403.217	110.08
403.426	97.79
403.635	155.13
403.844	175.61
404.053	73.21
404.262	173.57
404.471	101.89
404.68	103.93
404.888	171.52
405.097	116.22
405.306	140.8
405.515	153.09
405.724	118.27
405.933	200.19
406.142	212.48
406.35	161.28
406.559	210.43
406.768	171.52
406.977	232.96
407.185	173.57
407.394	171.52
407.603	185.85
407.812	189.95
408.02	175.61
408.229	247.29
408.438	247.29
408.646	185.85
408.855	329.21
409.064	345.59
409.272	314.88
409.481	267.77
409.69	253.44
409.898	280.06
410.107	304.64
410.315	425.47
410.524	312.83
410.733	388.6
410.941	292.35
411.15	384.51
411.358	361.98
411.567	439.8
411.775	423.42
411.984	452.09
412.192	439.8
412.401	560.63
412.609	507.38
412.818	497.14
413.026	534.01
413.234	441.85
413.443	534.01
413.651	536.06
413.86	628.21
414.068	681.46
414.276	673.27
414.485	579.06
414.693	656.89
414.901	716.28
415.11	706.04
415.318	785.91
415.526	880.11
415.734	833.01
415.943	814.58
416.151	945.65
416.359	919.03
416.567	990.7
416.776	980.47
416.984	1025.52
417.192	1052.14
417.4	1050.1
417.608	1080.82
417.817	1068.53
418.025	1230.32
418.233	1351.15
418.441	1177.07
418.649	1166.83
418.857	1336.81
419.065	1367.53
419.273	1324.52
419.481	1506.79
419.689	1545.7
419.897	1570.28
420.105	1594.86
420.313	1523.18
420.521	1701.35
420.729	1773.03
420.937	1768.93
421.145	1877.48
421.353	1877.48
421.561	1957.35
421.769	2000.35
421.977	2121.18
422.185	2141.66
422.393	2377.18
422.601	2407.9
422.809	2313.69
423.017	2430.43
423.224	2526.68
423.432	2584.02
423.64	2696.66
423.848	2842.07
424.056	2747.86
424.263	2923.99
424.471	3132.88
424.679	3177.94
424.887	3306.96
425.094	3313.1
425.302	3251.66
425.51	3362.25
425.718	3640.78
425.925	3616.2
426.133	3775.94
426.341	4001.22
426.548	4048.32
426.756	4126.15
426.964	4230.59
427.171	4568.51
427.379	4541.88
427.586	4572.6
427.794	4658.62
428.001	5072.31
428.209	5199.28
428.417	5023.16
428.624	5434.8
428.832	5506.48
429.039	5547.44
429.247	5428.65
429.454	6184.35
429.662	6342.05
429.869	5922.21
430.076	6296.99
430.284	6249.89
430.491	6489.5
430.699	6813.08
430.906	6897.05
431.114	6931.86
431.321	7110.04
431.528	7363.98
431.736	7738.76
431.943	8074.63
432.15	8111.49
432.358	8074.63
432.565	8478.08
432.772	8531.33
432.979	8850.81
433.187	8975.74
433.394	9155.96
433.601	9676.14
433.808	9563.5
434.016	9639.28
434.223	9897.32
434.43	10517.86
434.637	10454.37
434.844	11035.99
435.052	11457.87
435.259	11083.09
435.466	11425.11
435.673	11124.05
435.88	12115.27
436.087	12733.76
436.294	12680.51
436.501	12250.44
436.708	12692.8
436.915	12920.12
437.122	13813.04
437.329	13659.44
437.537	13878.57
437.743	14458.15
437.95	14245.16
438.157	14904.6
438.364	15369.49
438.571	15420.69
438.778	15312.15
438.985	16954.62
439.192	16223.5
439.399	16930.05
439.606	16387.33
439.813	17157.37
440.02	18103.53
440.227	17800.43
440.433	17986.8
440.64	18124.01
440.847	18220.27
441.054	18750.69
441.261	20061.39
441.467	19760.34
441.674	19993.81
441.881	20833.47
442.088	20731.08
442.294	20765.89
442.501	20970.69
442.708	21814.45
442.914	22316.2
443.121	23356.57
443.328	22727.85
443.534	24628.36
443.741	23735.45
443.948	23362.72
444.154	25156.74
444.361	24824.97
444.568	25113.73
444.774	24962.18
444.981	25453.69
445.187	25947.25
445.394	27098.21
445.6	27163.75
445.807	29613.12
446.013	28099.67
446.22	28814.41
446.426	29979.7
446.633	30022.71
446.839	31292.45
447.046	29609.02
447.252	31456.29
447.459	31550.49
447.665	31120.42
447.871	32812.04
448.078	34147.32
448.284	32539.66
448.491	33340.42
448.697	34814.96
448.903	35189.74
449.11	35236.84
449.316	34790.38
449.522	35576.8
449.728	36529.11
449.935	36647.89
450.141	36682.7
450.347	37360.58
450.553	36443.09
450.76	36905.93
450.966	38210.49
451.172	37678.02
451.378	38532.02
451.584	37596.1
451.791	38765.49
451.997	38493.11
452.203	39492.52
452.409	39367.59
452.615	39052.2
452.821	37557.19
453.027	37346.25
453.233	39543.72
453.44	38198.2
453.646	38136.76
453.852	38335.42
454.058	39107.5
454.264	37632.96
454.47	38865.84
454.676	37567.43
454.882	38575.03
455.088	35884
455.294	36578.26
455.5	36502.48
455.705	37288.9
455.911	35632.1
456.117	34829.29
456.323	34319.35
456.529	32689.17
456.735	34137.08
456.941	33094.66
457.147	32443.41
457.352	31511.58
457.558	31368.23
457.764	31271.97
457.97	30897.19
458.176	29785.15
458.381	29938.74
458.587	28630.09
458.793	28609.61
458.999	27040.87
459.204	28972.1
459.41	28435.53
459.616	26350.7
459.821	26489.96
460.027	26182.77
460.233	25664.63
460.438	24175.76
460.644	24847.49
460.85	23739.54
461.055	23434.39
461.261	23065.76
461.466	21372.09
461.672	21075.13
461.878	22564.01
462.083	20696.26
462.289	20301
462.494	20341.96
462.7	19494.1
462.905	18625.76
463.111	19637.46
463.316	19748.05
463.522	18957.53
463.727	19035.36
463.932	19156.19
464.138	19111.13
464.343	18906.34
464.549	18263.27
464.754	18969.82
464.959	18730.21
465.165	19037.41
465.37	18167.02
465.575	17476.85
465.781	18281.71
465.986	18199.79
466.191	17640.69
466.397	17368.31
466.602	16370.95
466.807	16985.34
467.012	17140.99
467.218	16768.26
467.423	17052.92
467.628	16940.29
467.833	17657.07
468.038	16989.44
468.244	16268.55
468.449	17321.21
468.654	16348.42
468.859	16344.33
469.064	16540.93
469.269	15922.45
469.474	15895.82
469.679	16141.58
469.885	15875.34
470.09	15717.65
470.295	15758.61
470.5	15475.99
470.705	15643.92
470.91	14941.47
471.115	14951.71
471.32	15187.22
471.525	15166.74
471.73	14763.29
471.935	14636.32
472.139	14402.85
472.344	14470.44
472.549	14226.73
472.754	14017.83
472.959	13784.37
473.164	13348.15
473.369	13292.85
473.574	13925.68
473.778	13901.1
473.983	13710.64
474.188	13573.42
474.393	12963.13
474.598	13016.38
474.802	12778.81
475.007	12862.78
475.212	12791.1
475.417	12401.99
475.621	12377.41
475.826	12442.95
476.031	12264.77
476.235	11838.8
476.44	12021.06
476.645	11664.72
476.849	11863.37
477.054	11717.97
477.259	11642.19
477.463	11593.04
477.668	11212.12
477.872	11357.52
478.077	11224.4
478.282	10917.21
478.486	10982.74
478.691	10741.08
478.895	10786.14
479.1	10739.04
479.304	10575.2
479.509	10480.99
479.713	10442.08
479.918	10311.01
480.122	10304.87
480.326	10343.78
480.531	10241.38
480.735	10282.34
480.94	9973.1
481.144	10388.83
481.348	10003.82
481.553	9919.85
481.757	9977.19
481.961	10165.6
482.166	10067.3
482.37	10022.25
482.574	9854.31
482.778	9790.83
482.983	10100.07
483.187	9790.83
483.391	9942.38
483.595	9973.1
483.8	9686.38
484.004	9946.47
484.208	10112.36
484.412	9866.6
484.616	9784.68
484.821	9930.09
485.025	9616.75
485.229	9946.47
485.433	9547.12
485.637	9780.59
485.841	9749.87
486.045	9643.37
486.249	9762.16
486.453	9692.52
486.657	9778.54
486.861	10001.77
487.065	9622.89
487.269	9753.96
487.473	9676.14
487.677	9667.95
487.881	9700.72
488.085	9862.51
488.289	9950.57
488.493	9782.63
488.697	9829.74
488.901	10003.82
489.105	9880.94
489.309	9977.19
489.512	9903.46
489.716	9864.55
489.92	9917.8
490.124	9979.24
490.328	9858.41
490.531	10018.15
490.735	9993.58
490.939	10175.84
491.143	10245.48
491.346	10012.01
491.55	10331.49
491.754	10380.64
491.958	10423.65
492.161	10384.74
492.365	10327.39
492.569	10341.73
492.772	10382.69
492.976	10536.29
493.18	10485.09
493.383	10761.56
493.587	10693.98
493.79	10896.73
493.994	10478.94
494.197	10745.18
494.401	10839.39
494.605	10884.44
494.808	11234.64
495.012	11154.77
495.215	11146.58
495.419	11384.15
495.622	11224.4
495.825	11679.05
496.029	11337.04
496.232	11541.84
496.436	11414.87
496.639	12057.93
496.843	11801.93
497.046	12180.81
497.249	12186.95
497.453	12047.69
497.656	12410.18
497.859	12369.22
498.063	12373.32
498.266	12698.94
498.469	12690.75
498.673	12916.03
498.876	13172.02
499.079	13081.91
499.282	13124.92
499.485	13542.71
499.689	13673.78
499.892	14155.05
500.095	13767.98
500.298	14183.72
500.501	14017.83
500.705	14304.55
500.908	14558.5
501.111	14464.29
501.314	14767.39
501.517	14908.7
501.72	15164.7
501.923	15062.3
502.126	15367.45
502.329	15793.42
502.532	15707.41
502.735	15861.01
502.938	15969.55
503.141	16178.44
503.344	16536.84
503.547	16340.23
503.75	16956.67
503.953	16917.76
504.156	17163.51
504.359	17130.75
504.562	17272.06
504.765	17571.06
504.968	17931.5
505.17	18113.77
505.373	18291.94
505.576	18293.99
505.779	18453.73
505.982	19057.89
506.185	19211.48
506.387	19025.12
506.59	19303.64
506.793	19754.19
506.996	19350.74
507.198	19997.9
507.401	20014.29
507.604	20245.71
507.807	20927.68
508.009	20772.04
508.212	21089.47
508.415	21492.92
508.617	21378.23
508.82	21671.09
509.022	21456.06
509.225	22109.36
509.428	22328.49
509.63	22383.79
509.833	22619.3
510.035	22932.64
510.238	23067.81
510.44	23215.26
510.643	23831.7
510.845	23559.32
511.048	23573.66
511.25	24259.73
511.453	24138.9
511.655	25040
511.858	24833.16
512.06	24925.32
512.262	25097.35
512.465	25306.24
512.667	25820.28
512.87	25881.72
513.072	25873.53
513.274	26481.77
513.477	26981.48
513.679	27042.92
513.881	27139.17
514.084	27333.73
514.286	27358.3
514.488	27472.99
514.69	28654.67
514.893	28513.36
515.095	28451.92
515.297	28816.46
515.499	29133.89
515.701	29512.77
515.904	30010.42
516.106	30170.16
516.308	30274.61
516.51	30567.47
516.712	30628.91
516.914	30913.58
517.116	31263.78
517.318	31652.89
517.52	31595.55
517.722	31714.33
517.925	32189.46
518.127	32484.37
518.329	32967.69
518.531	32824.33
518.733	33104.9
518.935	33426.43
519.136	33588.22
519.338	33981.43
519.54	34104.31
519.742	34638.83
519.944	34853.87
520.146	35652.58
520.348	35441.64
520.55	35654.62
520.752	35603.42
520.954	36660.18
521.155	36023.26
521.357	36621.27
521.559	36731.86
521.761	37538.76
521.963	37293
522.164	37549
522.366	37661.63
522.568	38177.72
522.77	38177.72
522.971	38867.89
523.173	38548.4
523.375	39269.29
523.576	39035.82
523.778	39324.58
523.98	39754.66
524.181	39693.22
524.383	39883.68
524.584	40319.9
524.786	40350.62
524.988	40360.86
525.189	41132.94
525.391	40850.32
525.592	41511.81
525.794	41737.09
525.995	41442.18
526.197	41704.32
526.398	41931.65
526.6	42357.63
526.801	42328.95
527.003	42277.75
527.204	42505.08
527.406	42961.78
527.607	42765.17
527.808	43350.89
528.01	42752.88
528.211	43234.16
528.412	43637.61
528.614	43651.94
528.815	43703.14
529.016	43561.83
529.218	43764.58
529.419	43881.31
529.62	44241.76
529.822	43948.9
530.023	44206.94
530.224	43873.12
530.425	44538.71
530.626	43944.8
530.828	44057.44
531.029	45005.65
531.23	44139.36
531.431	44723.03
531.632	44874.58
531.833	44815.19
532.035	44854.1
532.236	44657.49
532.437	45110.1
532.638	44919.63
532.839	44833.62
533.04	45351.76
533.241	44827.48
533.442	45658.95
533.643	45067.09
533.844	45167.44
534.045	45407.05
534.246	44837.72
534.447	45798.21
534.648	45091.66
534.849	45331.28
535.05	45228.88
535.251	45501.26
535.451	45198.16
535.652	45755.21
535.853	45167.44
536.054	45454.15
536.255	45591.37
536.456	45232.97
536.657	45695.81
536.857	45568.84
537.058	45110.1
537.259	45523.79
537.46	45767.49
537.66	45493.07
537.861	45212.49
538.062	45462.35
538.263	45521.74
538.463	45253.45
538.664	45132.62
538.865	45857.6
539.065	45529.93
539.266	44850
539.466	45902.66
539.667	45431.63
539.868	45908.8
540.068	45560.65
540.269	44903.25
540.469	45994.82
540.67	45296.46
540.87	45347.66
541.071	45292.36
541.271	45497.16
541.472	45517.64
541.672	45001.55
541.873	45189.97
542.073	45116.24
542.274	45736.77
542.474	44809.04
542.675	45486.92
542.875	45859.65
543.075	45161.29
543.276	44718.93
543.476	45755.21
543.676	45275.98
543.877	45192.01
544.077	45534.03
544.277	45599.56
544.478	45275.98
544.678	45503.31
544.878	45079.38
545.078	45321.04
545.279	44903.25
545.479	45007.7
545.679	45171.53
545.879	45216.59
546.079	44786.52
546.28	45194.06
546.48	44776.28
546.68	45130.58
546.88	45429.58
547.08	45312.84
547.28	45171.53
547.48	45140.82
547.68	45265.74
547.88	44688.21
548.081	45390.67
548.281	45427.53
548.481	44800.85
548.681	45056.85
548.881	44657.49
549.081	45466.44
549.28	44761.94
549.48	44976.98
549.68	44727.13
549.88	45523.79
550.08	44841.81
550.28	45167.44
550.48	44604.25
550.68	45179.73
550.88	44921.68
551.08	44739.41
551.279	44665.69
551.479	44378.97
551.679	45065.04
551.879	44776.28
552.079	44976.98
552.278	44690.26
552.478	44780.37
552.678	44831.57
552.878	44725.08
553.077	44518.23
553.277	44288.86
553.477	45269.84
553.676	44528.47
553.876	45038.42
554.076	44145.5
554.275	44378.97
554.475	44106.59
554.674	44637.01
554.874	44534.62
555.074	44297.05
555.273	44577.62
555.473	44532.57
555.672	44213.09
555.872	44256.09
556.071	44321.63
556.271	44536.66
556.47	43723.62
556.67	43486.06
556.869	44206.94
557.068	44235.61
557.268	43803.49
557.467	43592.55
557.667	43627.37
557.866	43764.58
558.065	44086.11
558.265	43897.7
558.464	43576.17
558.663	44186.46
558.863	43342.7
559.062	44229.47
559.261	43330.41
559.461	43758.44
559.66	43361.13
559.859	43592.55
560.058	43211.63
560.258	43389.8
560.457	42820.47
560.656	43021.17
560.855	43058.03
561.054	43291.5
561.253	42744.69
561.453	43029.36
561.652	42732.4
561.851	42785.65
562.05	42644.34
562.249	42587
562.448	42562.42
562.647	42273.66
562.846	42462.07
563.045	42531.7
563.244	41763.71
563.443	42912.63
563.642	41884.54
563.841	42146.68
564.04	42038.14
564.239	42271.61
564.438	41667.46
564.637	41814.91
564.836	42222.46
565.035	41247.63
565.234	41573.25
565.432	41401.22
565.631	41515.91
565.83	41341.83
566.029	41204.62
566.228	41005.97
566.427	40985.49
566.625	40895.38
566.824	40362.9
567.023	41501.57
567.222	40315.8
567.42	40973.2
567.619	40666
567.818	40594.32
568.016	40129.44
568.215	40522.65
568.414	40463.25
568.612	40399.77
568.811	39877.54
569.01	40407.96
569.208	39783.33
569.407	40186.78
569.605	39586.72
569.804	39857.06
570.002	39367.59
570.201	40008.61
570.4	39003.05
570.598	38929.33
570.797	39355.3
570.995	39035.82
571.193	38859.7
571.392	39312.3
571.59	38771.63
571.789	38849.46
571.987	38325.18
572.186	38261.69
572.384	38394.81
572.582	38808.5
572.781	38779.82
572.979	37866.43
573.177	38101.95
573.376	38218.68
573.574	37921.73
573.772	38319.03
573.971	37895.1
574.169	37761.98
574.367	37315.53
574.565	37571.52
574.763	37407.69
574.962	37194.7
575.16	36746.19
575.358	37469.12
575.556	36680.66
575.754	37090.25
575.952	36830.16
576.151	36785.1
576.349	36578.26
576.547	36676.56
576.745	36594.64
576.943	36350.93
577.141	36395.99
577.339	36649.94
577.537	36383.7
577.735	36133.85
577.933	35382.24
578.131	36064.22
578.329	35771.36
578.527	35492.83
578.725	35501.03
578.923	36148.18
579.121	35331.04
579.319	35679.2
579.516	35259.37
579.714	35619.81
579.912	35161.06
580.11	35251.17
580.308	35060.71
580.506	34870.25
580.704	34538.48
580.901	34440.18
581.099	34798.57
581.297	34563.06
581.495	34460.66
581.692	34630.64
581.89	33715.2
582.088	34663.41
582.285	33940.47
582.483	34507.76
582.681	34237.43
582.878	33969.15
583.076	33569.79
583.274	34012.15
583.471	33088.52
583.669	33424.39
583.866	33176.58
584.064	33436.67
584.262	33186.82
584.459	33281.03
584.657	33078.28
584.854	33383.43
585.052	32515.09
585.249	33020.94
585.447	32908.3
585.644	32291.86
585.841	32601.1
586.039	32842.76
586.236	32326.67
586.434	32107.54
586.631	32173.08
586.828	32021.53
587.026	32107.54
587.223	32246.8
587.42	32001.05
587.618	31501.34
587.815	31380.51
588.012	31329.31
588.21	31437.86
588.407	31771.68
588.604	31124.52
588.801	31347.75
588.999	31116.33
589.196	30538.8
589.393	30923.82
589.59	30778.41
589.787	30800.94
589.984	30628.91
590.182	30432.3
590.379	30682.16
590.576	30467.12
590.773	30303.28
590.97	30131.25
591.167	30247.99
591.364	29850.68
591.561	30075.96
591.758	29580.35
591.955	29844.54
592.152	29746.23
592.349	29461.57
592.546	29660.22
592.743	29416.51
592.94	28802.12
593.137	29424.7
593.334	29379.65
593.531	28513.36
593.727	29299.78
593.924	28927.05
594.121	28593.23
594.318	28769.35
594.515	28724.3
594.712	28771.4
594.908	28542.03
595.105	28556.36
595.302	27982.93
595.499	28482.64
595.696	28292.18
595.892	27790.42
596.089	28179.54
596.286	28453.97
596.482	27972.69
596.679	27925.59
596.876	27933.78
597.072	27706.46
597.269	27792.47
597.466	27227.23
597.662	27421.79
597.859	27552.86
598.055	27579.48
598.252	27100.26
598.448	27128.93
598.645	26940.52
598.841	27112.55
599.038	26999.91
599.234	27104.35
599.431	26723.43
599.627	26446.96
599.824	26520.68
600.02	26680.42
600.217	26465.39
600.413	25951.35
600.609	26174.58
600.806	26096.75
601.002	25992.31
601.198	25926.77
601.395	25912.44
601.591	26004.6
601.787	25713.78
601.984	25244.8
602.18	25889.91
602.376	25404.54
602.572	25222.27
602.769	25394.3
602.965	25267.33
603.161	25334.91
603.357	24784.01
603.553	25029.76
603.75	24978.56
603.946	24894.6
604.142	25042.05
604.338	24405.13
604.534	24956.04
604.73	24362.12
604.926	24810.63
605.122	24517.77
605.318	24427.66
605.514	24480.91
605.71	24087.7
605.906	23989.39
606.102	24183.95
606.298	24046.74
606.494	23964.82
606.69	23848.08
606.886	24005.78
607.082	23637.14
607.278	23852.18
607.474	23422.11
607.67	23823.51
607.866	23590.04
608.062	23657.62
608.257	23452.83
608.453	23407.77
608.649	23370.91
608.845	23311.52
609.041	23170.21
609.236	23254.17
609.432	23325.85
609.628	23182.49
609.824	23235.74
610.019	23002.27
610.215	23221.41
610.411	23018.66
610.606	22764.71
610.802	22766.76
610.998	22803.62
611.193	22721.7
611.389	22813.86
611.584	22445.23
611.78	22193.33
611.976	22412.46
612.171	22516.9
612.367	22377.64
612.562	22256.81
612.758	22142.13
612.953	21996.72
613.149	22310.06
613.344	22076.59
613.539	22582.44
613.735	22144.17
613.93	22140.08
614.126	21902.51
614.321	21879.99
614.517	21882.03
614.712	21753.01
614.907	21488.82
615.103	22025.39
615.298	21667
615.493	21939.38
615.688	21367.99
615.884	21836.98
616.079	21404.86
616.274	21718.2
616.47	21458.1
616.665	21611.7
616.86	21423.29
617.055	21290.17
617.25	21513.4
617.445	21396.67
617.641	21234.88
617.836	20868.29
618.031	21054.65
618.226	21218.49
618.421	20815.04
618.616	21093.57
618.811	20479.18
619.006	20931.78
619.201	20557
619.396	20470.98
619.591	20301
619.786	20438.22
619.981	20028.62
620.176	20243.66
620.371	20145.36
620.566	20094.16
620.761	19807.44
620.956	20075.73
621.151	19836.11
621.346	19975.38
621.541	19635.41
621.735	19602.64
621.93	19262.68
622.125	19430.62
622.32	19070.17
622.515	18953.44
622.709	18828.51
622.904	19080.41
623.099	18726.11
623.294	18902.24
623.488	18525.41
623.683	18654.44
623.878	18453.73
624.072	18439.4
624.267	18236.65
624.462	18361.58
624.656	18033.9
624.851	18154.73
625.046	17921.26
625.24	17790.19
625.435	17720.56
625.629	17700.08
625.824	17472.76
626.018	17515.76
626.213	17202.43
626.407	17353.98
626.602	17458.42
626.796	17276.15
626.991	16952.57
627.185	16975.1
627.38	16555.27
627.574	16676.1
627.768	16479.49
627.963	16751.87
628.157	16385.29
628.352	16686.34
628.546	16014.6
628.74	16172.3
628.935	16133.39
629.129	16018.7
629.323	15719.7
629.517	15861.01
629.712	15641.87
629.906	15861.01
630.1	15682.83
630.294	15727.89
630.489	15420.69
630.683	15527.19
630.877	15217.94
631.071	15033.63
631.265	15349.01
631.459	15072.54
631.653	15021.34
631.848	15056.15
632.042	14816.54
632.236	14820.64
632.43	14757.15
632.624	14722.34
632.818	14531.87
633.012	14304.55
633.206	14298.41
633.4	14380.32
633.594	13974.83
633.788	14226.73
633.982	14112.04
634.176	14175.53
634.369	13931.82
634.563	13993.26
634.757	13546.8
634.951	14001.45
635.145	13548.85
635.339	13784.37
635.533	13729.07
635.726	13511.99
635.92	13243.7
636.114	13219.13
636.308	13464.88
636.501	13313.33
636.695	13022.52
636.889	13114.68
637.083	12856.64
637.276	12913.98
637.47	12969.27
637.664	12852.54
637.857	12766.53
638.051	12772.67
638.244	12440.9
638.438	12541.25
638.632	12426.56
638.825	12449.09
639.019	12256.58
639.212	12148.04
639.406	12246.34
639.599	12135.75
639.793	12068.17
639.986	11963.72
640.18	11881.8
640.373	12088.65
640.567	11593.04
640.76	11652.43
640.954	11386.19
641.147	11525.46
641.34	11500.88
641.534	11515.22
641.727	11631.95
641.92	11257.17
642.114	11359.57
642.307	11318.61
642.5	11046.23
642.694	11208.02
642.887	11003.22
643.08	11140.44
643.273	10972.5
643.467	10945.88
643.66	10773.85
643.853	10780
644.046	10728.8
644.239	10640.73
644.432	10530.14
644.626	10626.4
644.819	10622.3
645.012	10515.81
645.205	10311.01
645.398	10208.61
645.591	10261.86
645.784	10171.75
645.977	9975.14
646.17	10145.13
646.363	9999.72
646.556	9981.29
646.749	9932.14
646.942	9819.5
647.135	9852.27
647.328	9844.07
647.521	9512.3
647.714	9770.35
647.907	9672.04
648.099	9645.42
648.292	9631.09
648.485	9616.75
648.678	9379.18
648.871	9278.83
649.064	9344.37
649.256	9284.98
649.449	9233.78
649.642	9106.81
649.835	9037.17
650.027	9147.76
650.22	9147.76
650.413	8998.26
650.605	8822.14
650.798	8832.38
650.991	8615.29
651.183	8846.71
651.376	8740.22
651.568	8721.79
651.761	8725.88
651.954	8631.68
652.146	8654.2
652.339	8482.17
652.531	8484.22
652.724	8340.86
652.916	8228.23
653.109	8279.43
653.301	8299.91
653.494	8226.18
653.686	8078.72
653.879	8433.02
654.071	8144.26
654.263	7970.18
654.456	8005
654.648	8211.84
654.84	8009.09
655.033	7826.82
655.225	7896.46
655.417	7853.45
655.61	7658.89
655.802	7904.65
655.994	7697.8
656.186	7755.15
656.379	7533.97
656.571	7677.32
656.763	7536.01
656.955	7533.97
657.148	7497.1
657.34	7521.68
657.532	7382.42
657.724	7374.22
657.916	7380.37
658.108	7304.59
658.3	7144.85
658.492	7351.7
658.684	7075.22
658.876	7056.79
659.068	7302.54
659.26	7024.02
659.452	7056.79
659.644	7030.16
659.836	7013.78
660.028	7040.4
660.22	6833.56
660.412	7161.23
660.604	6786.46
660.796	6806.94
660.988	6813.08
661.18	6610.33
661.372	6731.16
661.563	6911.38
661.755	6587.8
661.947	6686.11
662.139	6630.81
662.331	6616.48
662.522	6405.53
662.714	6266.27
662.906	6378.91
663.097	6446.49
663.289	6303.14
663.481	6239.65
663.673	6282.66
663.864	6249.89
664.056	6278.56
664.247	6270.37
664.439	6030.76
664.631	6253.98
664.822	6004.13
665.014	6251.94
665.205	6069.67
665.397	6067.62
665.588	5885.35
665.78	5850.53
665.971	6002.08
666.163	5836.2
666.354	5928.36
666.546	5817.77
666.737	5776.81
666.929	5842.34
667.12	5907.88
667.311	5639.59
667.503	5774.76
667.694	5633.45
667.885	5717.42
668.077	5658.03
668.268	5780.9
668.459	5635.5
668.651	5553.58
668.842	5574.06
669.033	5379.5
669.224	5399.98
669.416	5367.21
669.607	5402.03
669.798	5625.26
669.989	5379.5
670.18	5332.4
670.371	5166.51
670.563	5324.21
670.754	5301.68
670.945	5279.15
671.136	5283.25
671.327	5197.23
671.518	5139.89
671.709	5115.31
671.9	5166.51
672.091	5131.7
672.282	5025.2
672.473	5088.69
672.664	4998.58
672.855	5031.35
673.046	5154.23
673.237	5148.08
673.428	5055.92
673.619	5072.31
673.809	5006.77
674	4849.08
674.191	4920.76
674.382	4937.14
674.573	4890.04
674.764	4967.86
674.954	4910.52
675.145	4779.45
675.336	4812.21
675.527	4789.69
675.717	4926.9
675.908	4736.44
676.099	4769.21
676.289	4826.55
676.48	4767.16
676.671	4703.67
676.861	4693.43
677.052	4646.33
677.243	4601.27
677.433	4572.6
677.624	4588.99
677.814	4586.94
678.005	4574.65
678.195	4613.56
678.386	4675
678.576	4570.55
678.767	4523.45
678.957	4629.95
679.148	4707.77
679.338	4638.14
679.529	4515.26
679.719	4568.51
679.909	4539.83
680.1	4457.92
680.29	4607.42
680.481	4543.93
680.671	4572.6
680.861	4423.1
681.052	4476.35
681.242	4482.49
681.432	4416.96
681.622	4400.57
681.813	4294.08
682.003	4500.92
682.193	4310.46
682.383	4388.29
682.573	4298.17
682.764	4359.61
682.954	4384.19
683.144	4445.63
683.334	4335.04
683.524	4441.53
683.714	4406.72
683.904	4302.27
684.094	4261.31
684.284	4341.18
684.474	4316.61
684.664	4314.56
684.854	4339.13
685.044	4228.54
685.234	4013.51
685.424	4152.77
685.614	4255.17
685.804	4085.19
685.994	4126.15
686.184	4203.97
686.374	4072.9
686.564	4120
686.753	4044.23
686.943	4122.05
687.133	4191.68
687.323	4191.68
687.513	4015.55
687.702	3950.02
687.892	4021.7
688.082	3978.69
688.272	4023.75
688.461	3839.43
688.651	3966.4
688.841	3825.09
689.03	3923.4
689.22	3935.68
689.41	3833.29
689.599	3929.54
689.789	3925.44
689.979	3827.14
690.168	3835.33
690.358	3759.56
690.547	3874.24
690.737	3947.97
690.926	3708.36
691.116	3771.85
691.305	3786.18
691.495	3780.04
691.684	3593.67
691.874	3691.98
692.063	3648.97
692.252	3667.4
692.442	3720.65
692.631	3556.81
692.82	3657.16
693.01	3659.21
693.199	3544.52
693.388	3657.16
693.578	3538.38
693.767	3517.9
693.956	3515.85
694.146	3546.57
694.335	3413.45
694.524	3438.03
694.713	3571.15
694.902	3435.98
695.092	3442.12
695.281	3454.41
695.47	3446.22
695.659	3608.01
695.848	3448.27
696.037	3395.02
696.226	3532.23
696.415	3368.4
696.604	3388.88
696.793	3358.16
696.982	3505.61
697.171	3388.88
697.36	3413.45
697.549	3329.49
697.738	3270.09
697.927	3345.87
698.116	3239.37
698.305	3335.63
698.494	3386.83
698.683	3255.76
698.872	3317.2
699.061	3139.02
699.25	3319.25
699.438	3241.42
699.627	3370.44
699.816	3220.94
700.005	3292.62
700.193	3270.09
700.382	3216.85
700.571	3270.09
700.76	3159.5
700.948	3272.14
701.137	3329.49
701.326	3290.57
701.514	3231.18
701.703	3315.15
701.892	3302.86
702.08	3243.47
702.269	3290.57
702.457	3110.35
702.646	3220.94
702.834	3128.78
703.023	3229.13
703.212	3321.29
703.4	3294.67
703.589	3155.41
703.777	3216.85
703.965	3038.67
704.154	3132.88
704.342	3079.63
704.531	3114.45
704.719	3182.03
704.907	3225.04
705.096	3110.35
705.284	3143.12
705.472	3175.89
705.661	3200.46
705.849	3165.65
706.037	3245.52
706.226	3087.82
706.414	3204.56
706.602	3024.34
706.79	3124.69
706.979	3212.75
707.167	3130.83
707.355	3091.92
707.543	3177.94
707.731	3106.26
707.919	3114.45
708.107	3057.11
708.296	3020.24
708.484	3085.78
708.672	3204.56
708.86	3179.98
709.048	3153.36
709.236	3108.3
709.424	3108.3
709.612	3120.59
709.8	3175.89
709.988	3136.98
710.176	3110.35
710.364	3085.78
710.551	3059.15
710.739	3145.17
710.927	3200.46
711.115	3026.39
711.303	3100.11
711.491	3071.44
711.679	3036.63
711.866	3016.15
712.054	3216.85
712.242	3024.34
712.43	3102.16
712.617	3024.34
712.805	3081.68
712.993	3163.6
713.181	3026.39
713.368	3141.07
713.556	3151.31
713.744	3012.05
713.931	3147.22
714.119	3100.11
714.306	3112.4
714.494	3020.24
714.682	3001.81
714.869	2987.47
715.057	3200.46
715.244	3098.06
715.432	3087.82
715.619	3177.94
715.807	3005.91
715.994	2966.99
716.182	3081.68
716.369	3048.91
716.556	3225.04
716.744	2977.23
716.931	2913.75
717.119	3007.95
717.306	3130.83
717.493	3075.54
717.681	2971.09
717.868	3079.63
718.055	3089.87
718.242	3114.45
718.43	3034.58
718.617	3096.02
718.804	3034.58
718.991	3065.3
719.179	3042.77
719.366	3005.91
719.553	3149.26
719.74	3063.25
719.927	3106.26
720.114	3130.83
720.301	3110.35
720.488	3134.93
720.676	3057.11
720.863	3108.3
721.05	3042.77
721.237	2870.74
721.424	2991.57
721.611	2954.71
721.798	2971.09
721.985	3134.93
722.172	2958.8
722.358	3069.39
722.545	3024.34
722.732	3007.95
722.919	3001.81
723.106	2909.65
723.293	3007.95
723.48	3040.72
723.667	2848.21
723.853	2938.32
724.04	2940.37
724.227	3085.78
724.414	2987.47
724.6	2971.09
724.787	3057.11
724.974	2999.76
725.161	2930.13
725.347	2995.67
725.534	3034.58
725.72	3020.24
725.907	3108.3
726.094	3061.2
726.28	3012.05
726.467	2911.7
726.653	3069.39
726.84	2862.55
727.027	3044.82
727.213	2938.32
727.4	2901.46
727.586	2897.36
727.773	2948.56
727.959	2985.43
728.145	3007.95
728.332	2907.6
728.518	2950.61
728.705	2981.33
728.891	3096.02
729.077	2960.85
729.264	2954.71
729.45	2971.09
729.636	3053.01
729.823	2909.65
730.009	2907.6
730.195	2936.28
730.382	2872.79
730.568	2921.94
730.754	2883.03
730.94	2973.14
731.126	2837.97
731.313	2932.18
731.499	2932.18
731.685	2995.67
731.871	2979.28
732.057	3003.86
732.243	2919.89
732.429	2999.76
732.615	2946.52
732.801	2903.51
732.987	2889.17
733.173	2815.45
733.359	2921.94
733.545	2903.51
733.731	2837.97
733.917	2960.85
734.103	2913.75
734.289	2938.32
734.475	2880.98
734.661	2989.52
734.847	2827.73
735.033	2852.31
735.219	2917.84
735.404	2905.56
735.59	2940.37
735.776	2829.78
735.962	3005.91
736.148	2907.6
736.333	2813.4
736.519	2825.68
736.705	2973.14
736.89	2880.98
737.076	2827.73
737.262	2758.1
737.447	2813.4
737.633	2815.45
737.819	2846.16
738.004	2813.4
738.19	2856.4
738.375	2745.81
738.561	2850.26
738.747	2653.66
738.932	2739.67
739.118	2846.16
739.303	2825.68
739.489	2745.81
739.674	2784.73
739.859	2618.84
740.045	2661.85
740.23	2633.18
740.416	2610.65
740.601	2711
740.786	2684.38
740.972	2686.42
741.157	2731.48
741.342	2627.03
741.528	2706.9
741.713	2606.55
741.898	2653.66
742.084	2545.11
742.269	2647.51
742.454	2635.22
742.639	2653.66
742.824	2446.81
743.01	2536.92
743.195	2639.32
743.38	2661.85
743.565	2432.47
743.75	2620.89
743.935	2559.45
744.12	2567.64
744.305	2524.63
744.49	2467.29
744.675	2530.78
744.86	2418.14
745.045	2336.22
745.23	2409.95
745.415	2450.91
745.6	2377.18
745.785	2364.89
745.97	2491.87
746.155	2336.22
746.34	2444.76
746.525	2311.64
746.71	2448.86
746.895	2344.41
747.079	2297.31
747.264	2244.06
747.449	2377.18
747.634	2317.79
747.819	2338.27
748.003	2221.53
748.188	2295.26
748.373	2207.2
748.557	2254.3
748.742	2248.16
748.927	2256.35
749.111	2143.71
749.296	2133.47
749.481	2147.81
749.665	2090.46
749.85	2135.52
750.034	2264.54
750.219	1977.83
750.404	2117.09
750.588	1998.31
750.773	2022.88
750.957	2039.26
751.141	1998.31
751.326	2014.69
751.51	1994.21
751.695	2008.55
751.879	1981.92
752.064	2031.07
752.248	2053.6
752.432	2035.17
752.617	1881.57
752.801	1877.48
752.985	1869.28
753.17	1926.63
753.354	1897.96
753.538	1840.61
753.722	1854.95
753.907	1873.38
754.091	1830.37
754.275	1857
754.459	1770.98
754.643	1703.4
754.828	1746.41
755.012	1760.74
755.196	1766.89
755.38	1906.15
755.564	1652.2
755.748	1732.07
755.932	1666.53
756.116	1744.36
756.3	1691.11
756.484	1644.01
756.668	1601
756.852	1644.01
757.036	1596.9
757.22	1662.44
757.404	1639.91
757.588	1637.86
757.772	1535.46
757.956	1476.07
758.14	1721.83
758.323	1596.9
758.507	1504.75
758.691	1418.73
758.875	1512.94
759.059	1469.93
759.242	1545.7
759.426	1480.17
759.61	1545.7
759.794	1480.17
759.977	1435.11
760.161	1490.41
760.345	1398.25
760.528	1439.21
760.712	1422.83
760.895	1461.74
761.079	1383.91
761.263	1416.68
761.446	1390.06
761.63	1355.24
761.813	1424.87
761.997	1365.48
762.18	1330.67
762.364	1373.68
762.547	1369.58
762.731	1244.65
762.914	1304.04
763.098	1250.8
763.281	1353.2
763.464	1316.33
763.648	1361.39
763.831	1248.75
764.015	1269.23
764.198	1336.81
764.381	1218.03
764.564	1293.8
764.748	1187.31
764.931	1279.47
765.114	1291.76
765.297	1361.39
765.481	1283.56
765.664	1205.74
765.847	1132.01
766.03	1308.14
766.213	1277.42
766.397	1170.93
766.58	1201.65
766.763	1228.27
766.946	1230.32
767.129	1117.68
767.312	1177.07
767.495	1175.02
767.678	1144.3
767.861	1193.45
768.044	1072.62
768.227	1123.82
768.41	1123.82
768.593	1166.83
768.776	1209.84
768.959	1074.67
769.142	1275.37
769.324	1064.43
769.507	1111.54
769.69	1109.49
769.873	1052.14
770.056	1138.16
770.239	1082.86
770.421	1033.71
770.604	1058.29
770.787	1015.28
770.97	1021.42
771.152	1050.1
771.335	1121.77
771.518	982.51
771.7	1095.15
771.883	1078.77
772.066	968.18
772.248	1086.96
772.431	931.31
772.613	1002.99
772.796	955.89
772.978	1033.71
773.161	1041.9
773.343	1013.23
773.526	982.51
773.708	980.47
773.891	972.27
774.073	990.7
774.256	841.2
774.438	947.7
774.621	884.21
774.803	986.61
774.985	933.36
775.168	947.7
775.35	929.27
775.532	884.21
775.715	925.17
775.897	888.31
776.079	937.46
776.261	814.58
776.444	812.53
776.626	921.07
776.808	867.83
776.99	814.58
777.173	839.16
777.355	828.92
777.537	837.11
777.719	818.68
777.901	763.38
778.083	783.86
778.265	742.9
778.447	777.72
778.629	740.85
778.811	857.59
778.993	796.15
779.175	773.62
779.357	759.28
779.539	747
779.721	734.71
779.903	681.46
780.085	677.37
780.267	792.05
780.449	787.96
780.631	747
780.812	712.18
780.994	697.85
781.176	720.37
781.358	706.04
781.54	683.51
781.721	773.62
781.903	691.7
782.085	648.69
782.267	683.51
782.448	654.84
782.63	656.89
782.812	675.32
782.993	650.74
783.175	595.45
783.357	587.26
783.538	673.27
783.72	687.61
783.901	542.2
784.083	658.93
784.264	540.15
784.446	597.49
784.627	577.02
784.809	603.64
784.99	636.41
785.172	607.73
785.353	501.24
785.535	607.73
785.716	560.63
785.897	562.68
786.079	603.64
786.26	534.01
786.441	558.58
786.623	482.81
786.804	517.62
786.985	523.77
787.167	486.9
787.348	460.28
787.529	581.11
787.71	529.91
787.891	577.02
788.073	456.19
788.254	519.67
788.435	501.24
788.616	558.58
788.797	419.32
788.978	450.04
789.159	466.42
789.34	441.85
789.522	495.1
789.703	462.33
789.884	560.63
790.065	462.33
790.246	531.96
790.427	474.62
790.607	525.82
790.788	464.38
790.969	462.33
791.15	409.08
791.331	415.23
791.512	427.51
791.693	380.41
791.874	456.19
792.054	415.23
792.235	431.61
792.416	368.12
792.597	376.31
792.778	427.51
792.958	380.41
793.139	417.27
793.32	421.37
793.5	355.83
793.681	427.51
793.862	370.17
794.042	417.27
794.223	339.45
794.404	411.13
794.584	329.21
794.765	366.07
794.945	435.71
795.126	318.97
795.306	347.64
795.487	380.41
795.667	321.02
795.848	404.99
796.028	361.98
796.209	402.94
796.389	323.07
796.57	349.69
796.75	378.36
796.93	388.6
797.111	316.92
797.291	392.7
797.471	355.83
797.652	357.88
797.832	361.98
798.012	312.83
798.192	210.43
798.373	292.35
798.553	232.96
798.733	355.83
798.913	296.44
799.093	316.92
799.274	310.78
799.454	286.2
799.634	273.92
799.814	321.02
799.994	288.25
800.174	294.4
800.354	304.64
800.534	357.88
800.714	288.25
800.894	302.59
801.074	251.39
801.254	296.44
801.434	294.4
801.614	292.35
801.794	271.87
801.974	691.7
802.154	310.78
802.334	333.31
802.514	235
802.693	271.87
802.873	179.71
803.053	310.78
803.233	286.2
803.413	329.21
803.592	222.72
803.772	245.24
803.952	208.38
804.131	298.49
804.311	312.83
804.491	292.35
804.67	249.34
804.85	247.29
805.03	312.83
805.209	288.25
805.389	275.96
805.568	304.64
805.748	183.81
805.928	290.3
806.107	132.61
806.287	251.39
806.466	216.57
806.646	226.81
806.825	224.76
807.004	310.78
807.184	198.14
807.363	181.76
807.543	208.38
807.722	208.38
807.901	212.48
808.081	329.21
808.26	189.95
808.439	257.53
808.619	192
808.798	198.14
808.977	237.05
809.156	224.76
809.336	218.62
809.515	290.3
809.694	241.15
809.873	148.99
810.052	216.57
810.231	280.06
810.411	189.95
810.59	192
810.769	163.33
810.948	230.91
811.127	251.39
811.306	140.8
811.485	171.52
811.664	208.38
811.843	218.62
812.022	282.11
812.201	153.09
812.38	204.28
812.559	194.05
812.737	222.72
812.916	144.89
813.095	189.95
813.274	169.47
813.453	218.62
813.632	151.04
813.811	181.76
813.989	140.8
814.168	163.33
814.347	220.67
814.526	183.81
814.704	95.74
814.883	237.05
815.062	222.72
815.24	183.81
815.419	110.08
815.598	175.61
815.776	171.52
815.955	185.85
816.133	105.98
816.312	189.95
816.49	169.47
816.669	179.71
816.847	210.43
817.026	153.09
817.204	144.89
817.383	140.8
817.561	214.52
817.74	179.71
817.918	130.56
818.097	116.22
818.275	46.59
818.453	128.51
818.632	167.42
818.81	105.98
818.988	153.09
819.167	93.69
819.345	208.38
819.523	132.61
819.701	120.32
819.879	155.13
820.058	40.45
820.236	105.98
820.414	142.85
820.592	93.69
820.77	56.83
820.948	173.57
821.127	196.09
821.305	153.09
821.483	144.89
821.661	124.41
821.839	128.51
822.017	46.59
822.195	130.56
822.373	87.55
822.551	101.89
822.729	114.17
822.907	93.69
823.085	169.47
823.262	161.28
823.44	146.94
823.618	122.37
823.796	120.32
823.974	62.98
824.152	108.03
824.329	173.57
824.507	144.89
824.685	134.65
824.863	97.79
825.04	163.33
825.218	93.69
825.396	110.08
825.574	132.61
825.751	118.27
825.929	163.33
826.107	112.13
826.284	165.37
826.462	151.04
826.639	93.69
826.817	140.8
826.994	187.9
827.172	116.22
827.349	146.94
827.527	194.05
827.704	171.52
827.882	77.31
828.059	235
828.237	128.51
828.414	118.27
828.591	71.17
828.769	75.26
828.946	42.5
829.124	157.18
829.301	124.41
829.478	171.52
829.655	95.74
829.833	75.26
830.01	85.5
830.187	142.85
830.364	108.03
830.542	134.65
830.719	128.51
830.896	161.28
831.073	91.65
831.25	161.28
831.427	42.5
831.604	128.51
831.782	77.31
831.959	122.37
832.136	120.32
832.313	87.55
832.49	114.17
832.667	105.98
832.844	79.36
833.021	136.7
833.198	77.31
833.374	91.65
833.551	65.02
833.728	89.6
833.905	93.69
834.082	116.22
834.259	67.07
834.436	116.22
834.612	32.26
834.789	30.21
834.966	122.37
835.143	151.04
835.319	81.41
835.496	67.07
835.673	108.03
835.85	87.55
836.026	118.27
836.203	108.03
836.38	54.78
836.556	148.99
836.733	83.45
836.909	116.22
837.086	118.27
837.262	-25.09
837.439	-25.09
837.616	87.55
837.792	120.32
837.968	101.89
838.145	54.78
838.321	110.08
838.498	42.5
838.674	134.65
838.851	93.69
839.027	87.55
839.203	105.98
839.38	65.02
839.556	83.45
839.732	79.36
839.909	60.93
840.085	42.5
840.261	75.26
840.437	40.45
840.614	-0.51
840.79	99.84
840.966	105.98
841.142	73.21
841.318	83.45
841.494	28.16
841.671	130.56
841.847	38.4
842.023	75.26
842.199	54.78
842.375	50.69
842.551	73.21
842.727	28.16
842.903	108.03
843.079	26.11
843.255	50.69
843.431	32.26
843.607	65.02
843.783	15.87
843.959	62.98
844.134	69.12
844.31	93.69
844.486	105.98
844.662	-12.8
844.838	34.3
845.013	71.17
845.189	40.45
845.365	46.59
845.541	42.5
845.716	69.12
845.892	50.69
846.068	58.88
846.244	48.64
846.419	42.5
846.595	9.73
846.77	-0.51
846.946	114.17
847.122	34.3
847.297	44.54
847.473	112.13
847.648	-12.8
847.824	46.59
847.999	24.06
848.175	15.87
848.35	34.3
848.526	85.5
848.701	128.51
848.876	42.5
849.052	60.93
849.227	26.11
849.403	26.11
849.578	62.98
849.753	24.06
849.929	46.59
850.104	-27.14
850.279	30.21
850.454	65.02
850.63	-0.51
850.805	103.93
850.98	42.5
851.155	87.55
851.33	54.78
851.505	32.26
851.681	79.36
851.856	46.59
852.031	101.89
852.206	48.64
852.381	5.63
852.556	30.21
852.731	-16.9
852.906	65.02
853.081	-2.56
853.256	44.54
853.431	15.87
853.606	97.79
853.781	69.12
853.956	-18.94
854.131	77.31
854.305	40.45
854.48	17.92
854.655	54.78
854.83	34.3
855.005	69.12
855.18	71.17
855.354	65.02
855.529	38.4
855.704	5.63
855.879	56.83
856.053	48.64
856.228	38.4
856.403	95.74
856.577	81.41
856.752	36.35
856.926	73.21
857.101	-20.99
857.276	103.93
857.45	40.45
857.625	54.78
857.799	83.45
857.974	62.98
858.148	24.06
858.323	44.54
858.497	65.02
858.672	11.78
858.846	56.83
859.02	7.68
859.195	-2.56
859.369	-8.7
859.543	30.21
859.718	44.54
859.892	22.02
860.066	105.98
860.241	81.41
860.415	34.3
860.589	62.98
860.763	22.02
860.938	28.16
861.112	5.63
861.286	79.36
861.46	-27.14
861.634	-33.28
861.808	95.74
861.982	-14.85
862.157	46.59
862.331	-27.14
862.505	28.16
862.679	9.73
862.853	46.59
863.027	32.26
863.201	130.56
863.375	-43.52
863.549	40.45
863.722	42.5
863.896	81.41
864.07	-14.85
864.244	-12.8
864.418	95.74
864.592	9.73
864.766	17.92
864.939	75.26
865.113	-0.51
865.287	77.31
865.461	67.07
865.634	24.06
865.808	-35.33
865.982	60.93
866.156	13.82
866.329	36.35
866.503	3.58
866.676	26.11
866.85	-35.33
867.024	-53.76
867.197	-0.51
867.371	116.22
867.544	-8.7
867.718	13.82
867.891	-6.66
868.065	30.21
868.238	-88.57
868.412	50.69
868.585	22.02
868.759	46.59
868.932	46.59
869.105	13.82
869.279	-18.94
869.452	36.35
869.625	9.73
869.799	-12.8
869.972	19.97
870.145	56.83
870.319	48.64
870.492	24.06
870.665	-2.56
870.838	73.21
871.011	7.68
871.185	48.64
871.358	24.06
871.531	42.5
871.704	1.54
871.877	44.54
872.05	-31.23
872.223	38.4
872.396	60.93
872.569	15.87
872.742	28.16
872.915	7.68
873.088	-37.38
873.261	46.59
873.434	75.26
873.607	108.03
873.78	9.73
873.953	40.45
874.126	-20.99
874.299	40.45
874.471	-8.7
874.644	-18.94
874.817	132.61
874.99	112.13
875.163	-64
875.335	44.54
875.508	32.26
875.681	17.92
875.853	11.78
876.026	32.26
876.199	15.87
876.371	40.45
876.544	-12.8
876.717	-14.85
876.889	24.06
877.062	28.16
877.234	-53.76
877.407	52.74
877.579	5.63
877.752	24.06
877.924	60.93
878.097	-2.56
878.269	15.87
878.442	77.31
878.614	11.78
878.786	-2.56
878.959	-14.85
879.131	46.59
879.303	-43.52
879.476	-10.75
879.648	7.68
879.82	-6.66
879.993	50.69
880.165	34.3
880.337	3.58
880.509	28.16
880.681	26.11
880.854	-8.7
881.026	5.63
881.198	-12.8
881.37	67.07
881.542	32.26
881.714	-6.66
881.886	-29.18
882.058	5.63
882.23	-10.75
882.402	-29.18
882.574	71.17
882.746	32.26
882.918	3.58
883.09	11.78
883.262	28.16
883.434	13.82
883.606	-66.05
883.778	17.92
883.95	-31.23
884.122	46.59
884.293	-59.9
884.465	-20.99
884.637	-18.94
884.809	77.31
884.98	15.87
885.152	34.3
885.324	34.3
885.496	-4.61
885.667	-16.9
885.839	-29.18
886.011	65.02
886.182	65.02
886.354	46.59
886.525	7.68
886.697	15.87
886.869	-20.99
887.04	7.68
887.212	-10.75
887.383	75.26
887.555	11.78
887.726	-31.23
887.897	36.35
888.069	9.73
888.24	71.17
888.412	42.5
888.583	11.78
888.754	-39.42
888.926	17.92
889.097	-6.66
889.268	34.3
889.44	3.58
889.611	40.45
889.782	-4.61
889.953	-49.66
890.125	97.79
890.296	13.82
890.467	-4.61
890.638	-29.18
890.809	28.16
890.98	15.87
891.151	-6.66
891.323	50.69
891.494	24.06
891.665	42.5
891.836	11.78
892.007	9.73
892.178	-4.61
892.349	7.68
892.52	42.5
892.691	40.45
892.862	62.98
893.032	11.78
893.203	79.36
893.374	32.26
893.545	-12.8
893.716	-23.04
893.887	81.41
894.057	-16.9
894.228	26.11
894.399	19.97
894.57	58.88
894.74	48.64
894.911	56.83
895.082	-51.71
895.253	-88.57
895.423	19.97
895.594	19.97
895.764	44.54
895.935	17.92
896.106	-23.04
896.276	-6.66
896.447	-0.51
896.617	-4.61
896.788	-25.09
896.958	1.54
897.129	-18.94
897.299	-37.38
897.47	11.78
897.64	-39.42
897.81	-2.56
897.981	-6.66
898.151	-23.04
898.322	19.97
898.492	9.73
898.662	-10.75
898.832	-4.61
899.003	-27.14
899.173	-10.75
899.343	73.21
899.513	-35.33
