Data from USB4F104151__7__11-51-06-491.txt Node

Date: Fri Mar 14 11:51:06 EDT 2025
User: louis
Spectrometer: USB4F10415
Trigger mode: 4
Integration Time (sec): 2.000000E-2
Scans to average: 1
Electric dark correction enabled: true
Nonlinearity correction enabled: false
Boxcar width: 0
XAxis mode: Wavelengths
Number of Pixels in Spectrum: 3648
>>>>>Begin Spectral Data<<<<<
178.204	-43.52
178.424	-43.52
178.644	-43.52
178.864	-158.21
179.084	-102.91
179.304	52.74
179.524	17.92
179.744	-18.94
179.964	30.21
180.184	56.83
180.404	-18.94
180.624	-64
180.844	-96.77
181.064	9.73
181.283	34.3
181.503	-6.66
181.723	3.58
181.943	-49.66
182.163	40.45
182.383	52.74
182.602	30.21
182.822	30.21
183.042	42.5
183.262	28.16
183.482	13.82
183.701	91.65
183.921	60.93
184.141	30.21
184.361	13.82
184.58	-20.99
184.8	44.54
185.02	-6.66
185.239	-35.33
185.459	-39.42
185.679	34.3
185.898	-39.42
186.118	116.22
186.338	3.58
186.557	81.41
186.777	26.11
186.997	73.21
187.216	-2.56
187.436	69.12
187.655	40.45
187.875	17.92
188.095	-33.28
188.314	1.54
188.534	77.31
188.753	81.41
188.973	17.92
189.192	24.06
189.412	-23.04
189.631	54.78
189.851	19.97
190.07	42.5
190.29	7.68
190.509	30.21
190.729	-37.38
190.948	67.07
191.168	99.84
191.387	7.68
191.607	-23.04
191.826	32.26
192.045	19.97
192.265	9.73
192.484	9.73
192.704	-2.56
192.923	-2.56
193.142	77.31
193.362	99.84
193.581	5.63
193.8	15.87
194.02	11.78
194.239	46.59
194.458	24.06
194.678	9.73
194.897	48.64
195.116	52.74
195.335	22.02
195.555	30.21
195.774	26.11
195.993	28.16
196.212	30.21
196.432	38.4
196.651	-45.57
196.87	38.4
197.089	-2.56
197.308	108.03
197.528	91.65
197.747	-70.14
197.966	36.35
198.185	-10.75
198.404	65.02
198.623	15.87
198.842	-14.85
199.062	38.4
199.281	9.73
199.5	30.21
199.719	28.16
199.938	58.88
200.157	40.45
200.376	15.87
200.595	44.54
200.814	19.97
201.033	-6.66
201.252	30.21
201.471	-0.51
201.69	5.63
201.909	67.07
202.128	52.74
202.347	50.69
202.566	81.41
202.785	50.69
203.004	48.64
203.223	52.74
203.442	-18.94
203.661	58.88
203.879	-14.85
204.098	11.78
204.317	-31.23
204.536	62.98
204.755	-27.14
204.974	1.54
205.193	11.78
205.411	112.13
205.63	-6.66
205.849	62.98
206.068	9.73
206.287	58.88
206.505	67.07
206.724	48.64
206.943	-57.86
207.162	-20.99
207.381	11.78
207.599	83.45
207.818	-4.61
208.037	42.5
208.255	-25.09
208.474	-16.9
208.693	7.68
208.911	44.54
209.13	-18.94
209.349	-0.51
209.567	15.87
209.786	9.73
210.005	-37.38
210.223	-39.42
210.442	-23.04
210.661	38.4
210.879	40.45
211.098	-35.33
211.316	44.54
211.535	73.21
211.753	56.83
211.972	40.45
212.191	-8.7
212.409	-2.56
212.628	32.26
212.846	17.92
213.065	87.55
213.283	22.02
213.502	-2.56
213.72	40.45
213.938	-12.8
214.157	40.45
214.375	79.36
214.594	54.78
214.812	73.21
215.031	38.4
215.249	48.64
215.467	32.26
215.686	30.21
215.904	58.88
216.122	62.98
216.341	11.78
216.559	-18.94
216.778	40.45
216.996	-6.66
217.214	-33.28
217.432	36.35
217.651	5.63
217.869	-6.66
218.087	-29.18
218.306	-25.09
218.524	67.07
218.742	15.87
218.96	36.35
219.179	3.58
219.397	-8.7
219.615	62.98
219.833	-10.75
220.051	5.63
220.27	-49.66
220.488	42.5
220.706	19.97
220.924	19.97
221.142	112.13
221.36	-41.47
221.578	24.06
221.796	1.54
222.015	26.11
222.233	-18.94
222.451	46.59
222.669	-33.28
222.887	5.63
223.105	-25.09
223.323	-10.75
223.541	24.06
223.759	-12.8
223.977	9.73
224.195	42.5
224.413	95.74
224.631	77.31
224.849	7.68
225.067	81.41
225.285	-8.7
225.503	79.36
225.721	-0.51
225.939	32.26
226.157	-2.56
226.375	50.69
226.592	-16.9
226.81	81.41
227.028	34.3
227.246	73.21
227.464	-8.7
227.682	7.68
227.9	-6.66
228.117	-25.09
228.335	46.59
228.553	69.12
228.771	24.06
228.989	62.98
229.206	48.64
229.424	1.54
229.642	-57.86
229.86	15.87
230.077	22.02
230.295	-23.04
230.513	3.58
230.731	73.21
230.948	-20.99
231.166	77.31
231.384	-119.29
231.601	-35.33
231.819	54.78
232.037	9.73
232.254	89.6
232.472	40.45
232.689	-51.71
232.907	-4.61
233.125	7.68
233.342	67.07
233.56	17.92
233.777	3.58
233.995	17.92
234.213	-27.14
234.43	40.45
234.648	36.35
234.865	30.21
235.083	65.02
235.3	-4.61
235.518	52.74
235.735	22.02
235.953	105.98
236.17	-2.56
236.388	36.35
236.605	-8.7
236.822	69.12
237.04	30.21
237.257	15.87
237.475	-43.52
237.692	-27.14
237.909	56.83
238.127	52.74
238.344	36.35
238.562	3.58
238.779	-29.18
238.996	38.4
239.214	-6.66
239.431	56.83
239.648	-27.14
239.865	-0.51
240.083	3.58
240.3	-20.99
240.517	40.45
240.735	-76.29
240.952	-0.51
241.169	58.88
241.386	1.54
241.603	5.63
241.821	-35.33
242.038	65.02
242.255	-61.95
242.472	19.97
242.689	-29.18
242.907	5.63
243.124	46.59
243.341	-39.42
243.558	5.63
243.775	-18.94
243.992	19.97
244.209	-68.09
244.426	58.88
244.643	28.16
244.86	17.92
245.078	-18.94
245.295	-0.51
245.512	50.69
245.729	36.35
245.946	50.69
246.163	77.31
246.38	28.16
246.597	48.64
246.814	-16.9
247.031	24.06
247.248	-51.71
247.464	40.45
247.681	30.21
247.898	46.59
248.115	50.69
248.332	-12.8
248.549	36.35
248.766	42.5
248.983	36.35
249.2	-68.09
249.417	52.74
249.633	-0.51
249.85	38.4
250.067	-27.14
250.284	13.82
250.501	71.17
250.717	81.41
250.934	34.3
251.151	1.54
251.368	50.69
251.585	54.78
251.801	3.58
252.018	-0.51
252.235	-20.99
252.451	-12.8
252.668	-41.47
252.885	38.4
253.102	-43.52
253.318	28.16
253.535	-18.94
253.752	-10.75
253.968	-49.66
254.185	11.78
254.401	7.68
254.618	7.68
254.835	-39.42
255.051	105.98
255.268	54.78
255.484	30.21
255.701	67.07
255.917	22.02
256.134	1.54
256.351	32.26
256.567	-59.9
256.784	26.11
257	81.41
257.217	44.54
257.433	40.45
257.65	32.26
257.866	48.64
258.082	-25.09
258.299	28.16
258.515	95.74
258.732	40.45
258.948	22.02
259.165	28.16
259.381	97.79
259.597	40.45
259.814	52.74
260.03	-8.7
260.246	62.98
260.463	-8.7
260.679	11.78
260.895	32.26
261.112	48.64
261.328	65.02
261.544	-12.8
261.761	79.36
261.977	-0.51
262.193	28.16
262.409	108.03
262.626	28.16
262.842	13.82
263.058	-8.7
263.274	-4.61
263.49	62.98
263.707	-2.56
263.923	36.35
264.139	30.21
264.355	22.02
264.571	19.97
264.787	3.58
265.004	56.83
265.22	73.21
265.436	50.69
265.652	3.58
265.868	11.78
266.084	-14.85
266.3	28.16
266.516	13.82
266.732	7.68
266.948	65.02
267.164	28.16
267.38	77.31
267.596	54.78
267.812	24.06
268.028	62.98
268.244	-20.99
268.46	9.73
268.676	-8.7
268.892	93.69
269.108	7.68
269.324	7.68
269.54	24.06
269.756	60.93
269.972	-33.28
270.188	3.58
270.403	13.82
270.619	71.17
270.835	-4.61
271.051	36.35
271.267	-4.61
271.483	-16.9
271.698	22.02
271.914	81.41
272.13	28.16
272.346	65.02
272.562	-8.7
272.777	48.64
272.993	40.45
273.209	17.92
273.425	7.68
273.64	50.69
273.856	32.26
274.072	-57.86
274.287	28.16
274.503	54.78
274.719	19.97
274.934	30.21
275.15	3.58
275.366	40.45
275.581	46.59
275.797	36.35
276.012	71.17
276.228	34.3
276.444	1.54
276.659	40.45
276.875	7.68
277.09	71.17
277.306	46.59
277.521	3.58
277.737	-20.99
277.952	15.87
278.168	30.21
278.383	60.93
278.599	-14.85
278.814	54.78
279.03	54.78
279.245	34.3
279.461	17.92
279.676	54.78
279.892	-23.04
280.107	32.26
280.322	-25.09
280.538	42.5
280.753	7.68
280.969	87.55
281.184	13.82
281.399	77.31
281.615	46.59
281.83	-45.57
282.045	38.4
282.26	-2.56
282.476	58.88
282.691	26.11
282.906	-31.23
283.122	28.16
283.337	44.54
283.552	48.64
283.767	75.26
283.983	69.12
284.198	-31.23
284.413	48.64
284.628	-18.94
284.843	44.54
285.058	79.36
285.274	67.07
285.489	-51.71
285.704	24.06
285.919	-14.85
286.134	85.5
286.349	58.88
286.564	22.02
286.779	103.93
286.995	48.64
287.21	-20.99
287.425	89.6
287.64	-0.51
287.855	46.59
288.07	13.82
288.285	15.87
288.5	48.64
288.715	28.16
288.93	30.21
289.145	17.92
289.36	50.69
289.575	9.73
289.79	-10.75
290.004	-8.7
290.219	42.5
290.434	3.58
290.649	69.12
290.864	30.21
291.079	40.45
291.294	36.35
291.509	-10.75
291.724	-10.75
291.938	24.06
292.153	50.69
292.368	-33.28
292.583	87.55
292.798	85.5
293.012	28.16
293.227	5.63
293.442	1.54
293.657	-76.29
293.871	19.97
294.086	9.73
294.301	79.36
294.516	42.5
294.73	-12.8
294.945	65.02
295.16	22.02
295.374	34.3
295.589	81.41
295.804	5.63
296.018	87.55
296.233	65.02
296.447	34.3
296.662	75.26
296.877	48.64
297.091	79.36
297.306	30.21
297.52	-31.23
297.735	40.45
297.949	-18.94
298.164	62.98
298.378	-16.9
298.593	-39.42
298.807	46.59
299.022	-16.9
299.236	-33.28
299.451	40.45
299.665	54.78
299.88	28.16
300.094	32.26
300.309	42.5
300.523	67.07
300.737	11.78
300.952	58.88
301.166	-10.75
301.381	-12.8
301.595	42.5
301.809	77.31
302.024	30.21
302.238	-45.57
302.452	-51.71
302.667	-12.8
302.881	52.74
303.095	97.79
303.309	48.64
303.524	48.64
303.738	83.45
303.952	-10.75
304.166	67.07
304.381	3.58
304.595	73.21
304.809	-8.7
305.023	46.59
305.237	-33.28
305.452	122.37
305.666	56.83
305.88	48.64
306.094	-2.56
306.308	77.31
306.522	-39.42
306.736	7.68
306.95	17.92
307.164	40.45
307.379	69.12
307.593	28.16
307.807	-16.9
308.021	101.89
308.235	-6.66
308.449	42.5
308.663	-18.94
308.877	122.37
309.091	3.58
309.305	67.07
309.519	24.06
309.733	75.26
309.947	46.59
310.161	67.07
310.374	71.17
310.588	60.93
310.802	-2.56
311.016	48.64
311.23	52.74
311.444	-68.09
311.658	40.45
311.872	-6.66
312.085	15.87
312.299	38.4
312.513	65.02
312.727	30.21
312.941	36.35
313.154	48.64
313.368	58.88
313.582	40.45
313.796	-29.18
314.009	85.5
314.223	-12.8
314.437	36.35
314.651	52.74
314.864	17.92
315.078	79.36
315.292	-6.66
315.505	46.59
315.719	-12.8
315.933	-10.75
316.146	28.16
316.36	34.3
316.573	5.63
316.787	112.13
317.001	17.92
317.214	30.21
317.428	-39.42
317.641	17.92
317.855	15.87
318.068	-25.09
318.282	-12.8
318.495	54.78
318.709	26.11
318.922	73.21
319.136	30.21
319.349	30.21
319.563	26.11
319.776	17.92
319.99	-4.61
320.203	28.16
320.417	17.92
320.63	71.17
320.843	11.78
321.057	5.63
321.27	7.68
321.483	60.93
321.697	54.78
321.91	-4.61
322.124	71.17
322.337	48.64
322.55	60.93
322.763	54.78
322.977	11.78
323.19	46.59
323.403	-0.51
323.617	81.41
323.83	50.69
324.043	-18.94
324.256	-33.28
324.469	-0.51
324.683	46.59
324.896	42.5
325.109	-35.33
325.322	28.16
325.535	50.69
325.748	110.08
325.962	-6.66
326.175	54.78
326.388	40.45
326.601	-18.94
326.814	3.58
327.027	46.59
327.24	38.4
327.453	-16.9
327.666	-0.51
327.879	11.78
328.092	75.26
328.305	48.64
328.518	5.63
328.731	56.83
328.944	22.02
329.157	-4.61
329.37	46.59
329.583	67.07
329.796	132.61
330.009	34.3
330.222	36.35
330.435	30.21
330.648	126.46
330.861	-61.95
331.073	62.98
331.286	75.26
331.499	-49.66
331.712	-29.18
331.925	-4.61
332.138	17.92
332.35	77.31
332.563	1.54
332.776	118.27
332.989	-57.86
333.202	54.78
333.414	52.74
333.627	40.45
333.84	-25.09
334.053	54.78
334.265	77.31
334.478	24.06
334.691	-12.8
334.903	34.3
335.116	-33.28
335.329	38.4
335.541	32.26
335.754	62.98
335.966	-12.8
336.179	30.21
336.392	30.21
336.604	5.63
336.817	105.98
337.029	48.64
337.242	-6.66
337.454	-4.61
337.667	34.3
337.88	95.74
338.092	75.26
338.305	30.21
338.517	17.92
338.729	93.69
338.942	95.74
339.154	75.26
339.367	15.87
339.579	46.59
339.792	17.92
340.004	-10.75
340.217	-61.95
340.429	65.02
340.641	60.93
340.854	42.5
341.066	15.87
341.278	3.58
341.491	56.83
341.703	69.12
341.915	1.54
342.128	97.79
342.34	58.88
342.552	26.11
342.764	99.84
342.977	-14.85
343.189	-18.94
343.401	99.84
343.613	-8.7
343.826	83.45
344.038	-49.66
344.25	118.27
344.462	9.73
344.674	17.92
344.886	-14.85
345.099	40.45
345.311	17.92
345.523	17.92
345.735	5.63
345.947	13.82
346.159	75.26
346.371	36.35
346.583	97.79
346.795	103.93
347.007	7.68
347.219	50.69
347.431	-16.9
347.643	7.68
347.855	-20.99
348.067	108.03
348.279	9.73
348.491	9.73
348.703	34.3
348.915	93.69
349.127	-16.9
349.339	69.12
349.551	7.68
349.763	58.88
349.975	67.07
350.187	99.84
350.399	46.59
350.61	-51.71
350.822	26.11
351.034	38.4
351.246	34.3
351.458	30.21
351.669	7.68
351.881	71.17
352.093	46.59
352.305	99.84
352.517	7.68
352.728	44.54
352.94	-33.28
353.152	75.26
353.363	17.92
353.575	17.92
353.787	89.6
353.999	103.93
354.21	42.5
354.422	32.26
354.633	11.78
354.845	81.41
355.057	50.69
355.268	-16.9
355.48	9.73
355.692	-12.8
355.903	-14.85
356.115	-4.61
356.326	36.35
356.538	-2.56
356.749	44.54
356.961	73.21
357.172	19.97
357.384	52.74
357.595	50.69
357.807	62.98
358.018	17.92
358.23	83.45
358.441	112.13
358.653	17.92
358.864	-29.18
359.075	54.78
359.287	5.63
359.498	65.02
359.709	3.58
359.921	56.83
360.132	50.69
360.344	67.07
360.555	13.82
360.766	36.35
360.977	-25.09
361.189	71.17
361.4	-25.09
361.611	-14.85
361.823	28.16
362.034	44.54
362.245	-0.51
362.456	32.26
362.667	-10.75
362.879	50.69
363.09	11.78
363.301	38.4
363.512	13.82
363.723	40.45
363.935	9.73
364.146	34.3
364.357	-39.42
364.568	65.02
364.779	15.87
364.99	110.08
365.201	13.82
365.412	40.45
365.623	-8.7
365.834	50.69
366.045	128.51
366.256	32.26
366.467	67.07
366.678	26.11
366.889	-10.75
367.1	-4.61
367.311	-4.61
367.522	71.17
367.733	-4.61
367.944	77.31
368.155	42.5
368.366	58.88
368.577	56.83
368.788	24.06
368.999	28.16
369.209	58.88
369.42	69.12
369.631	42.5
369.842	28.16
370.053	26.11
370.264	26.11
370.474	9.73
370.685	7.68
370.896	46.59
371.107	13.82
371.317	19.97
371.528	36.35
371.739	52.74
371.95	24.06
372.16	67.07
372.371	1.54
372.582	34.3
372.792	46.59
373.003	73.21
373.214	1.54
373.424	19.97
373.635	9.73
373.846	79.36
374.056	148.99
374.267	-6.66
374.477	50.69
374.688	62.98
374.898	58.88
375.109	75.26
375.319	58.88
375.53	22.02
375.74	71.17
375.951	62.98
376.161	48.64
376.372	75.26
376.582	-27.14
376.793	75.26
377.003	87.55
377.214	26.11
377.424	65.02
377.635	69.12
377.845	26.11
378.055	26.11
378.266	52.74
378.476	34.3
378.686	50.69
378.897	71.17
379.107	-0.51
379.317	75.26
379.528	99.84
379.738	-2.56
379.948	-18.94
380.158	38.4
380.369	1.54
380.579	42.5
380.789	11.78
380.999	60.93
381.21	52.74
381.42	112.13
381.63	62.98
381.84	69.12
382.05	69.12
382.261	48.64
382.471	77.31
382.681	38.4
382.891	50.69
383.101	89.6
383.311	-14.85
383.521	28.16
383.731	103.93
383.941	54.78
384.151	-2.56
384.361	30.21
384.571	54.78
384.781	69.12
384.991	17.92
385.201	134.65
385.411	5.63
385.621	85.5
385.831	62.98
386.041	54.78
386.251	62.98
386.461	71.17
386.671	7.68
386.881	99.84
387.091	5.63
387.301	101.89
387.511	81.41
387.72	56.83
387.93	93.69
388.14	-12.8
388.35	3.58
388.56	103.93
388.769	93.69
388.979	22.02
389.189	36.35
389.399	65.02
389.609	73.21
389.818	34.3
390.028	83.45
390.238	89.6
390.447	60.93
390.657	-2.56
390.867	58.88
391.076	71.17
391.286	50.69
391.496	38.4
391.705	69.12
391.915	65.02
392.125	60.93
392.334	46.59
392.544	93.69
392.753	56.83
392.963	79.36
393.172	105.98
393.382	134.65
393.591	97.79
393.801	83.45
394.01	71.17
394.22	112.13
394.429	40.45
394.639	32.26
394.848	83.45
395.058	19.97
395.267	87.55
395.477	54.78
395.686	89.6
395.895	65.02
396.105	124.41
396.314	128.51
396.524	85.5
396.733	81.41
396.942	110.08
397.152	118.27
397.361	95.74
397.57	116.22
397.78	67.07
397.989	93.69
398.198	183.81
398.407	75.26
398.617	112.13
398.826	62.98
399.035	179.71
399.244	93.69
399.453	-0.51
399.663	36.35
399.872	79.36
400.081	58.88
400.29	114.17
400.499	83.45
400.708	28.16
400.917	97.79
401.127	108.03
401.336	62.98
401.545	83.45
401.754	95.74
401.963	105.98
402.172	85.5
402.381	148.99
402.59	60.93
402.799	26.11
403.008	142.85
403.217	77.31
403.426	60.93
403.635	108.03
403.844	75.26
404.053	128.51
404.262	114.17
404.471	110.08
404.68	91.65
404.888	110.08
405.097	105.98
405.306	148.99
405.515	67.07
405.724	110.08
405.933	144.89
406.142	134.65
406.35	198.14
406.559	228.86
406.768	173.57
406.977	210.43
407.185	177.66
407.394	214.52
407.603	177.66
407.812	216.57
408.02	169.47
408.229	214.52
408.438	288.25
408.646	165.37
408.855	208.38
409.064	189.95
409.272	292.35
409.481	249.34
409.69	263.68
409.898	179.71
410.107	294.4
410.315	349.69
410.524	318.97
410.733	325.12
410.941	343.55
411.15	380.41
411.358	441.85
411.567	290.3
411.775	306.68
411.984	370.17
412.192	423.42
412.401	310.78
412.609	396.79
412.818	316.92
413.026	437.75
413.234	402.94
413.443	441.85
413.651	525.82
413.86	431.61
414.068	548.34
414.276	486.9
414.485	593.4
414.693	564.73
414.901	624.12
415.11	597.49
415.318	654.84
415.526	681.46
415.734	663.03
415.943	652.79
416.151	671.22
416.359	665.08
416.567	706.04
416.776	830.96
416.984	757.24
417.192	847.35
417.4	898.55
417.608	794.1
417.817	892.4
418.025	1021.42
418.233	990.7
418.441	1021.42
418.649	1074.67
418.857	1064.43
419.065	1132.01
419.273	1138.16
419.481	1228.27
419.689	1306.09
419.897	1351.15
420.105	1322.48
420.313	1338.86
420.521	1345
420.729	1385.96
420.937	1435.11
421.145	1572.33
421.353	1582.57
421.561	1611.24
421.769	1580.52
421.977	1797.6
422.185	1775.08
422.393	1793.51
422.601	2012.64
422.809	2010.59
423.017	2078.18
423.224	2092.51
423.432	2000.35
423.64	2162.14
423.848	2350.56
424.056	2258.4
424.263	2479.58
424.471	2461.15
424.679	2450.91
424.887	2680.28
425.094	2770.39
425.302	2715.09
425.51	2872.79
425.718	2917.84
425.925	2932.18
426.133	3100.11
426.341	3227.09
426.548	3333.58
426.756	3395.02
426.964	3470.8
427.171	3710.41
427.379	3749.32
427.586	3769.8
427.794	3966.4
428.001	4099.52
428.209	4249.02
428.417	4347.33
428.624	4619.71
428.832	4556.22
429.039	4349.37
429.247	4443.58
429.454	4994.48
429.662	5244.34
429.869	4906.42
430.076	5313.97
430.284	4992.44
430.491	5418.41
430.699	5678.51
430.906	5621.16
431.114	5825.96
431.321	5811.62
431.528	6176.16
431.736	6483.36
431.943	6667.67
432.15	6559.13
432.358	6628.76
432.565	6972.82
432.772	6884.76
432.979	7263.63
433.187	7304.59
433.394	7429.52
433.601	8146.31
433.808	7953.8
434.016	7904.65
434.223	8164.74
434.43	8781.18
434.637	8621.44
434.844	8969.59
435.052	9332.08
435.259	9231.73
435.466	9473.39
435.673	9235.83
435.88	9698.67
436.087	10399.07
436.294	10587.49
436.501	10286.44
436.708	10401.12
436.915	10708.32
437.122	11197.78
437.329	11089.24
437.537	11304.28
437.743	11754.83
437.95	11631.95
438.157	12256.58
438.364	12410.18
438.571	12471.62
438.778	12676.41
438.985	13835.56
439.192	13165.88
439.399	13757.74
439.606	13468.98
439.813	14216.49
440.02	14828.83
440.227	14732.58
440.433	14724.38
440.64	15093.02
440.847	14884.12
441.054	15090.97
441.261	16258.31
441.467	16246.02
441.674	16626.95
441.881	17202.43
442.088	16960.77
442.294	16954.62
442.501	17427.7
442.708	17695.99
442.914	18537.7
443.121	19217.63
443.328	18506.98
443.534	19789.01
443.741	19565.78
443.948	19195.1
444.154	20479.18
444.361	20401.35
444.568	20868.29
444.774	20833.47
444.981	20903.11
445.187	21431.48
445.394	22434.99
445.6	21951.67
445.807	24437.9
446.013	23299.23
446.22	23352.48
446.426	24419.47
446.633	24884.36
446.839	25490.56
447.046	24726.66
447.252	25873.53
447.459	25826.42
447.665	25551.99
447.871	26719.34
448.078	27905.11
448.284	27094.11
448.491	27362.4
448.697	28587.08
448.903	28935.24
449.11	29217.86
449.316	28496.97
449.522	28996.68
449.728	29918.26
449.935	30301.23
450.141	30534.7
450.347	30839.85
450.553	29932.6
450.76	29959.22
450.966	31429.66
451.172	30893.1
451.378	31906.84
451.584	31167.52
451.791	31755.29
451.997	31919.13
452.203	32134.17
452.409	32418.83
452.615	32042.01
452.821	30999.59
453.027	30473.26
453.233	32429.07
453.44	31046.69
453.646	31712.28
453.852	31626.27
454.058	31837.21
454.264	31026.21
454.47	31845.4
454.676	30835.75
454.882	32029.72
455.088	29176.9
455.294	29627.45
455.5	30057.53
455.705	30508.08
455.911	29002.82
456.117	28339.28
456.323	28286.03
456.529	26535.02
456.735	27817.05
456.941	27225.18
457.147	26819.69
457.352	25998.45
457.558	25541.75
457.764	25857.14
457.97	25220.22
458.176	24558.73
458.381	24818.82
458.587	23233.69
458.793	23600.28
458.999	22260.91
459.204	24077.46
459.41	23121.06
459.616	21742.77
459.821	21718.2
460.027	21609.65
460.233	21030.08
460.438	20149.45
460.644	20516.04
460.85	19369.18
461.055	18894.05
461.261	18713.83
461.466	17507.57
461.672	16995.58
461.878	18441.45
462.083	17145.08
462.289	16702.72
462.494	16602.37
462.7	16057.61
462.905	15516.95
463.111	16039.18
463.316	15971.6
463.522	15445.27
463.727	15781.14
463.932	15674.64
464.138	15549.71
464.343	15691.02
464.549	15246.62
464.754	15658.26
464.959	15656.21
465.165	15465.75
465.37	14798.11
465.575	14310.69
465.781	14990.62
465.986	14871.84
466.191	14210.34
466.397	14185.77
466.602	13243.7
466.807	14126.38
467.012	13817.13
467.218	13952.3
467.423	13624.62
467.628	13841.71
467.833	14245.16
468.038	13964.59
468.244	13421.88
468.449	13925.68
468.654	13610.29
468.859	13303.09
469.064	13450.55
469.269	12954.94
469.474	12985.66
469.679	12977.47
469.885	12895.55
470.09	12692.8
470.295	12901.69
470.5	12590.4
470.705	12809.53
470.91	12217.67
471.115	12264.77
471.32	12492.1
471.525	12404.03
471.73	12084.55
471.935	11912.52
472.139	11652.43
472.344	11875.66
472.549	11488.59
472.754	11554.13
472.959	11228.5
473.164	11138.39
473.369	10974.55
473.574	11433.3
473.778	11275.6
473.983	10978.65
474.188	11027.8
474.393	10425.7
474.598	10562.91
474.802	10548.58
475.007	10462.56
475.212	10358.11
475.417	9987.43
475.621	10161.51
475.826	10257.76
476.031	9954.66
476.235	9547.12
476.44	9930.09
476.645	9780.59
476.849	9663.85
477.054	9469.3
477.259	9536.88
477.463	9303.41
477.668	8955.26
477.872	9235.83
478.077	9110.9
478.282	8770.94
478.486	8899.96
478.691	8820.09
478.895	8691.07
479.1	8592.76
479.304	8762.75
479.509	8402.3
479.713	8678.78
479.918	8445.31
480.122	8269.19
480.326	8441.22
480.531	8304
480.735	8353.15
480.94	8142.21
481.144	8490.37
481.348	8160.64
481.553	8166.79
481.757	8220.03
481.961	8312.19
482.166	8197.51
482.37	8240.51
482.574	7937.41
482.778	7994.76
482.983	8338.82
483.187	8048.01
483.391	8215.94
483.595	8002.95
483.8	8074.63
484.004	8125.83
484.208	8056.2
484.412	8189.32
484.616	8074.63
484.821	8093.06
485.025	7902.6
485.229	8048.01
485.433	7964.04
485.637	7959.94
485.841	8039.81
486.045	8088.96
486.249	7992.71
486.453	7896.46
486.657	8027.53
486.861	7964.04
487.065	7951.75
487.269	8011.14
487.473	7697.8
487.677	8191.36
487.881	8019.33
488.085	7953.8
488.289	8072.58
488.493	8254.85
488.697	8156.55
488.901	8084.87
489.105	8088.96
489.309	8238.47
489.512	8129.92
489.716	8060.29
489.92	8058.25
490.124	7882.12
490.328	8287.62
490.531	8277.38
490.735	8373.63
490.939	8273.28
491.143	8007.05
491.346	8220.03
491.55	8334.72
491.754	8365.44
491.958	8291.71
492.161	8469.89
492.365	8555.9
492.569	8297.86
492.772	8494.46
492.976	8609.15
493.18	8611.2
493.383	8582.53
493.587	8811.9
493.79	8826.23
493.994	8803.71
494.197	8871.29
494.401	8934.78
494.605	8879.48
494.808	8983.93
495.012	9162.1
495.215	9088.37
495.419	9047.41
495.622	9246.07
495.825	9370.99
496.029	9287.03
496.232	9575.79
496.436	9330.03
496.639	9694.57
496.843	9602.41
497.046	9715.05
497.249	9952.62
497.453	9876.84
497.656	10044.77
497.859	10032.49
498.063	10210.66
498.266	10411.36
498.469	10491.23
498.673	10175.84
498.876	10571.1
499.079	10712.41
499.282	10476.9
499.485	11070.81
499.689	10984.79
499.892	11230.55
500.095	10960.22
500.298	11533.65
500.501	11228.5
500.705	11539.79
500.908	11603.28
501.111	11873.61
501.314	12031.3
501.517	11969.87
501.72	12221.77
501.923	12201.29
502.126	12756.29
502.329	12623.17
502.532	12842.3
502.735	13120.82
502.938	13255.99
503.141	13086.01
503.344	13286.71
503.547	13554.99
503.75	13520.18
503.953	13675.82
504.156	13864.24
504.359	14044.46
504.562	14124.33
504.765	14138.66
504.968	14499.11
505.17	14744.86
505.373	14839.07
505.576	14769.44
505.779	15154.46
505.982	15260.95
506.185	15351.06
506.387	15596.82
506.59	15693.07
506.793	15926.54
506.996	16043.28
507.198	16547.08
507.401	16399.62
507.604	16547.08
507.807	16729.34
508.009	16864.51
508.212	16930.05
508.415	17306.87
508.617	17683.7
508.82	17564.92
509.022	17558.77
509.225	17773.81
509.428	18066.67
509.63	18506.98
509.833	18599.14
510.035	18834.66
510.238	18527.46
510.44	18828.51
510.643	19029.21
510.845	19428.57
511.048	19225.82
511.25	19465.43
511.453	19768.53
511.655	20376.78
511.858	20167.88
512.06	20391.11
512.262	20532.42
512.465	20557
512.667	21068.99
512.87	20948.16
513.072	21173.44
513.274	21482.68
513.477	21669.05
513.679	21734.58
513.881	22232.24
514.084	22058.16
514.286	22092.97
514.488	22437.03
514.69	23303.32
514.893	23112.86
515.095	23057.57
515.297	23444.63
515.499	23465.11
515.701	23872.66
515.904	23948.43
516.106	24075.41
516.308	24542.35
516.51	25064.58
516.712	24781.96
516.914	24953.99
517.116	25437.31
517.318	25547.9
517.52	25668.73
517.722	25676.92
517.925	26035.31
518.127	26406
518.329	27006.05
518.531	26180.72
518.733	26829.93
518.935	27298.91
519.136	27206.75
519.338	27493.47
519.54	27716.7
519.742	27972.69
519.944	27939.93
520.146	28507.21
520.348	28718.15
520.55	28904.52
520.752	28910.66
520.954	29602.88
521.155	29123.65
521.357	29447.23
521.559	30006.33
521.761	30133.3
521.963	30102.58
522.164	30202.93
522.366	30403.63
522.568	30827.56
522.77	31003.69
522.971	31589.41
523.173	31394.85
523.375	31630.37
523.576	31605.79
523.778	31745.05
523.98	32119.83
524.181	32203.8
524.383	32341.01
524.584	32744.46
524.786	32810
524.988	32943.11
525.189	32969.74
525.391	33311.75
525.592	33362.95
525.794	33479.68
525.995	33743.87
526.197	33453.06
526.398	33514.5
526.6	34104.31
526.801	34094.07
527.003	34366.45
527.204	34546.67
527.406	34419.7
527.607	34452.47
527.808	34941.93
528.01	34423.79
528.211	34546.67
528.412	35122.15
528.614	34984.94
528.815	34943.98
529.016	35480.55
529.218	35199.97
529.419	35394.53
529.62	35228.65
529.822	35154.92
530.023	35644.38
530.224	35943.39
530.425	35822.56
530.626	35501.03
530.828	35617.76
531.029	36346.84
531.23	35865.56
531.431	35775.45
531.632	36410.32
531.833	36266.97
532.035	36125.66
532.236	36336.6
532.437	36568.02
532.638	36520.91
532.839	36529.11
533.04	36465.62
533.241	36146.14
533.442	36500.44
533.643	36770.77
533.844	36627.41
534.045	36619.22
534.246	36393.94
534.447	37039.05
534.648	36746.19
534.849	36486.1
535.05	36467.67
535.251	36848.59
535.451	36406.23
535.652	36625.36
535.853	36654.03
536.054	36793.29
536.255	37180.36
536.456	36506.58
536.657	37235.66
536.857	36711.38
537.058	36633.55
537.259	36946.89
537.46	36815.82
537.66	36651.98
537.861	36897.74
538.062	36950.99
538.263	36742.1
538.463	36905.93
538.664	36858.83
538.865	36819.92
539.065	36953.04
539.266	36791.25
539.466	37231.56
539.667	36344.79
539.868	37000.14
540.068	37053.39
540.269	36762.58
540.469	36977.61
540.67	36596.69
540.87	36707.28
541.071	36723.66
541.271	36875.21
541.472	36656.08
541.672	36643.79
541.873	36629.46
542.073	36178.9
542.274	36875.21
542.474	36852.69
542.675	36717.52
542.875	36774.86
543.075	37112.78
543.276	36180.95
543.476	36965.32
543.676	36639.7
543.877	36932.56
544.077	36561.87
544.277	36694.99
544.478	36455.38
544.678	37000.14
544.878	36639.7
545.078	36584.4
545.279	36086.75
545.479	36580.31
545.679	36639.7
545.879	36574.16
546.079	36342.74
546.28	36400.08
546.48	36236.25
546.68	36821.97
546.88	36563.92
547.08	36731.86
547.28	36430.8
547.48	36135.9
547.68	36688.85
547.88	36461.52
548.081	36797.39
548.281	36381.65
548.481	36234.2
548.681	36371.41
548.881	36291.54
549.081	36588.5
549.28	36393.94
549.48	36559.83
549.68	36299.73
549.88	36725.71
550.08	36271.06
550.28	36144.09
550.48	36303.83
550.68	36355.03
550.88	36412.37
551.08	35937.24
551.279	36115.42
551.479	36176.86
551.679	36279.25
551.879	36416.47
552.079	36529.11
552.278	35947.48
552.478	36019.16
552.678	36148.18
552.878	36352.98
553.077	36096.99
553.277	35591.14
553.477	36641.74
553.676	35693.54
553.876	35967.96
554.076	36078.55
554.275	35892.19
554.475	35982.3
554.674	35857.37
554.874	35898.33
555.074	36185.05
555.273	36043.74
555.473	36090.84
555.672	35552.23
555.872	35681.25
556.071	35445.73
556.271	36174.81
556.47	35613.66
556.67	35388.39
556.869	35480.55
557.068	35623.9
557.268	35515.36
557.467	35396.58
557.667	35300.33
557.866	35511.27
558.065	35048.43
558.265	35331.04
558.464	35353.57
558.663	35537.89
558.863	35189.74
559.062	35120.1
559.261	34857.96
559.461	35443.68
559.66	34759.66
559.859	35062.76
560.058	34315.25
560.258	35089.38
560.457	34765.81
560.656	35226.6
560.855	34718.7
561.054	34724.85
561.253	34499.57
561.453	34755.57
561.652	34583.54
561.851	34542.58
562.05	34411.51
562.249	34444.27
562.448	34522.1
562.647	34184.18
562.846	34073.59
563.045	34554.86
563.244	34028.54
563.443	34511.86
563.642	33618.94
563.841	33950.71
564.04	33770.49
564.239	34343.92
564.438	33293.32
564.637	33569.79
564.836	34153.46
565.035	33512.45
565.234	33872.89
565.432	33647.61
565.631	33731.58
565.83	33612.8
566.029	33434.63
566.228	32924.68
566.427	33010.7
566.625	32975.88
566.824	32717.84
567.023	33340.42
567.222	32728.08
567.42	33000.46
567.619	32605.2
567.818	32281.62
568.016	32664.59
568.215	32844.81
568.414	32175.13
568.612	32781.32
568.811	32402.45
569.01	32510.99
569.208	32132.12
569.407	32269.33
569.605	31749.15
569.804	32261.14
570.002	31556.64
570.201	32005.14
570.4	31689.76
570.598	31667.23
570.797	31343.65
570.995	31650.85
571.193	31140.9
571.392	31611.93
571.59	30997.54
571.789	30956.58
571.987	31304.74
572.186	31231.01
572.384	31104.04
572.582	31204.39
572.781	31032.36
572.979	30714.92
573.177	31020.07
573.376	30764.07
573.574	30327.86
573.772	30534.7
573.971	30235.7
574.169	30516.27
574.367	30118.96
574.565	30317.62
574.763	29905.98
574.962	30010.42
575.16	29664.32
575.358	29842.49
575.556	29305.92
575.754	30170.16
575.952	29635.64
576.151	29543.49
576.349	29387.84
576.547	29518.91
576.745	29393.98
576.943	29447.23
577.141	29082.69
577.339	29135.94
577.537	29174.85
577.735	28976.2
577.933	28646.47
578.131	28830.79
578.329	28562.51
578.527	28458.06
578.725	28613.71
578.923	28722.25
579.121	28427.34
579.319	28234.83
579.516	28662.86
579.714	28161.11
579.912	27815
580.11	28042.32
580.308	28027.99
580.506	28023.89
580.704	27407.45
580.901	27880.53
581.099	27855.96
581.297	27561.05
581.495	27606.11
581.692	27612.25
581.89	27354.21
582.088	27606.11
582.285	27325.54
582.483	27278.43
582.681	27634.78
582.878	27343.97
583.076	26737.77
583.274	27173.99
583.471	26940.52
583.669	27042.92
583.866	26672.23
584.064	27075.68
584.262	26481.77
584.459	26741.86
584.657	26612.84
584.854	26545.26
585.052	25947.25
585.249	26537.07
585.447	26528.88
585.644	25773.17
585.841	26147.95
586.039	26362.99
586.236	25869.43
586.434	25912.44
586.631	25924.72
586.828	25871.48
587.026	25652.34
587.223	25326.72
587.42	25367.68
587.618	25394.3
587.815	25451.64
588.012	25339.01
588.21	25136.26
588.407	25447.55
588.604	24904.84
588.801	25080.96
588.999	24919.17
589.196	24810.63
589.393	24775.81
589.59	24753.29
589.787	24683.66
589.984	24632.46
590.182	24267.92
590.379	24628.36
590.576	24194.19
590.773	24474.76
590.97	24069.26
591.167	24210.57
591.364	23817.36
591.561	24089.74
591.758	23721.11
591.955	23973.01
592.152	24239.25
592.349	23610.52
592.546	23876.76
592.743	23813.27
592.94	23268.51
593.137	23581.85
593.334	23315.61
593.531	23395.48
593.727	23407.77
593.924	23510.17
594.121	23217.31
594.318	23323.8
594.515	23000.23
594.712	23100.58
594.908	22944.93
595.105	22635.69
595.302	22729.89
595.499	22703.27
595.696	22963.36
595.892	22652.07
596.089	22914.21
596.286	22285.48
596.482	22414.51
596.679	22281.39
596.876	22678.69
597.072	22029.49
597.269	22467.75
597.466	22185.13
597.662	22064.3
597.859	21929.14
598.055	22119.6
598.252	21853.36
598.448	21611.7
598.645	21806.26
598.841	21396.67
599.038	21599.41
599.234	21617.85
599.431	21206.2
599.627	21200.06
599.824	21644.47
600.02	21122.24
600.217	21384.38
600.413	21118.14
600.609	20917.44
600.806	20786.37
601.002	21066.94
601.198	21013.7
601.395	20557
601.591	20890.82
601.787	20761.8
601.984	20513.99
602.18	20651.2
602.376	20552.9
602.572	20495.56
602.769	20399.3
602.965	20153.55
603.161	20094.16
603.357	20270.28
603.553	19993.81
603.75	20045.01
603.946	20147.4
604.142	20323.53
604.338	19569.88
604.534	20038.86
604.73	19770.58
604.926	19530.97
605.122	19791.06
605.318	19522.77
605.514	19447
605.71	19301.59
605.906	19584.21
606.102	19320.03
606.298	19463.38
606.494	19358.94
606.69	19148
606.886	19389.66
607.082	18826.46
607.278	19328.22
607.474	18758.88
607.67	19021.02
607.866	18752.74
608.062	19090.65
608.257	18842.85
608.453	18773.22
608.649	18939.1
608.845	18777.31
609.041	18658.53
609.236	18564.32
609.432	18646.24
609.628	18484.45
609.824	18402.54
610.019	18447.59
610.215	18318.57
610.411	18552.04
610.606	18191.59
610.802	18496.74
610.998	18164.97
611.193	18457.83
611.389	18013.42
611.584	18081
611.78	18074.86
611.976	18140.4
612.171	18103.53
612.367	18160.87
612.562	18027.76
612.758	17839.34
612.953	17634.55
613.149	18265.32
613.344	17951.98
613.539	17982.7
613.735	17603.83
613.93	17732.85
614.126	17618.16
614.321	17888.5
614.517	17743.09
614.712	17667.31
614.907	17360.12
615.103	17593.59
615.298	17566.96
615.493	17583.35
615.688	17208.57
615.884	17628.4
616.079	17278.2
616.274	17439.99
616.47	17263.86
616.665	17267.96
616.86	17138.94
617.055	17079.55
617.25	17165.56
617.445	17163.51
617.641	16772.35
617.836	17118.46
618.031	16743.68
618.226	16864.51
618.421	16831.74
618.616	16694.53
618.811	16598.27
619.006	16655.62
619.201	16504.07
619.396	16768.26
619.591	16258.31
619.786	16231.69
619.981	16252.17
620.176	16131.34
620.371	16117
620.566	16203.02
620.761	16086.28
620.956	16221.45
621.151	15965.45
621.346	16151.82
621.541	15574.29
621.735	15846.67
621.93	15514.9
622.125	15510.8
622.32	15283.48
622.515	15781.14
622.709	15295.77
622.904	15342.87
623.099	15379.73
623.294	15232.28
623.488	14937.37
623.683	15234.33
623.878	14763.29
624.072	15045.91
624.267	14966.04
624.462	14615.84
624.656	14718.24
624.851	14593.31
625.046	14351.65
625.24	14601.51
625.435	14275.88
625.629	14249.25
625.824	14118.18
626.018	14114.09
626.213	13876.52
626.407	13978.92
626.602	13870.38
626.796	13632.82
626.991	13831.47
627.185	13565.23
627.38	13663.54
627.574	13253.94
627.768	13399.35
627.963	13317.43
628.157	13186.36
628.352	13366.58
628.546	13249.85
628.74	13165.88
628.935	13079.86
629.129	12938.55
629.323	12875.07
629.517	12842.3
629.712	12504.39
629.906	12756.29
630.1	12623.17
630.294	12637.5
630.489	12113.22
630.683	12229.96
630.877	12291.4
631.071	12180.81
631.265	12199.24
631.459	12019.02
631.653	12059.98
631.848	12123.46
632.042	11867.47
632.236	12066.12
632.43	11756.88
632.624	11822.41
632.818	11687.25
633.012	11672.91
633.206	11662.67
633.4	11556.18
633.594	11337.04
633.788	11369.81
633.982	11345.23
634.176	11361.62
634.369	11152.73
634.563	11224.4
634.757	11287.89
634.951	11095.38
635.145	11140.44
635.339	10872.15
635.533	10900.83
635.726	10970.46
635.92	10642.78
636.114	10626.4
636.308	10775.9
636.501	10704.22
636.695	10392.93
636.889	10509.66
637.083	10394.98
637.276	10347.87
637.47	10249.57
637.664	10233.19
637.857	10241.38
638.051	10087.78
638.244	10069.35
638.438	10020.2
638.632	9903.46
638.825	9809.26
639.019	9895.27
639.212	9778.54
639.406	9807.21
639.599	9766.25
639.793	9731.44
639.986	9639.28
640.18	9692.52
640.373	9661.8
640.567	9420.14
640.76	9375.09
640.954	9395.57
641.147	9274.74
641.34	8945.02
641.534	9246.07
641.727	9311.6
641.92	9074.04
642.114	9112.95
642.307	9201.01
642.5	8717.69
642.694	8766.84
642.887	9002.36
643.08	8912.25
643.273	8842.62
643.467	8887.67
643.66	8631.68
643.853	8633.72
644.046	8543.61
644.239	8445.31
644.432	8490.37
644.626	8547.71
644.819	8580.48
645.012	8308.1
645.205	8420.74
645.398	8392.06
645.591	8299.91
645.784	8260.99
645.977	8174.98
646.17	8154.5
646.363	8138.12
646.556	8220.03
646.749	8103.3
646.942	8091.01
647.135	7857.54
647.328	7890.31
647.521	7777.67
647.714	7800.2
647.907	7611.79
648.099	7892.36
648.292	7712.14
648.485	7863.69
648.678	7566.73
648.871	7576.97
649.064	7409.04
649.256	7622.03
649.449	7404.94
649.642	7351.7
649.835	7314.83
650.027	7253.39
650.22	7243.15
650.413	7200.15
650.605	7310.74
650.798	6970.77
650.991	6970.77
651.183	7142.8
651.376	6968.73
651.568	7030.16
651.761	6989.21
651.954	6970.77
652.146	6954.39
652.339	6983.06
652.531	6958.49
652.724	6860.18
652.916	6632.86
653.109	6671.77
653.301	6647.19
653.494	6682.01
653.686	6464.93
653.879	6612.38
654.071	6606.24
654.263	6432.16
654.456	6534.56
654.648	6696.35
654.84	6352.29
655.033	6305.18
655.225	6329.76
655.417	6501.79
655.61	6272.42
655.802	6139.3
655.994	6045.09
656.186	6268.32
656.379	6184.35
656.571	6235.55
656.763	6061.48
656.955	5942.69
657.148	6108.58
657.34	5954.98
657.532	6034.85
657.724	5903.78
657.916	5815.72
658.108	5924.26
658.3	5889.45
658.492	5864.87
658.684	5823.91
658.876	5692.84
659.068	5729.7
659.26	5703.08
659.452	5643.69
659.644	5715.37
659.836	5514.67
660.028	5658.03
660.22	5580.2
660.412	5461.42
660.604	5768.62
660.796	5547.44
660.988	5512.62
661.18	5344.69
661.372	5436.85
661.563	5412.27
661.755	5197.23
661.947	5305.78
662.139	5395.89
662.331	5227.95
662.522	5178.8
662.714	5111.22
662.906	5119.41
663.097	5057.97
663.289	5023.16
663.481	5113.27
663.673	5012.92
663.864	5004.72
664.056	4992.44
664.247	4963.76
664.439	4974
664.631	5060.02
664.822	5076.4
665.014	4951.48
665.205	4787.64
665.397	4957.62
665.588	4877.75
665.78	4971.96
665.971	4773.3
666.163	4912.57
666.354	4818.36
666.546	4840.89
666.737	4646.33
666.929	4568.51
667.12	4703.67
667.311	4756.92
667.503	4658.62
667.694	4718.01
667.885	4523.45
668.077	4543.93
668.268	4437.44
668.459	4664.76
668.651	4449.72
668.842	4300.22
669.033	4427.2
669.224	4398.52
669.416	4445.63
669.607	4466.11
669.798	4378.05
669.989	4437.44
670.18	4359.61
670.371	4447.68
670.563	4265.41
670.754	4484.54
670.945	4322.75
671.136	4246.98
671.327	4310.46
671.518	4081.09
671.709	4212.16
671.9	4318.65
672.091	4222.4
672.282	4312.51
672.473	4163.01
672.664	4169.15
672.855	4101.57
673.046	4249.02
673.237	4173.25
673.428	4062.66
673.619	4025.79
673.809	4081.09
674	4146.62
674.191	4115.91
674.382	4206.02
674.573	3907.01
674.764	4099.52
674.954	4093.38
675.145	3995.08
675.336	4009.41
675.527	4148.67
675.717	3894.72
675.908	3993.03
676.099	3808.71
676.289	3935.68
676.48	3900.87
676.671	3872.2
676.861	3954.12
677.052	3884.48
677.243	3904.96
677.433	3808.71
677.624	3929.54
677.814	3714.5
678.005	3823.05
678.195	3767.75
678.386	3646.92
678.576	3782.09
678.767	3634.63
678.957	3751.37
679.148	3653.06
679.338	3651.02
679.529	3687.88
679.719	3659.21
679.909	3857.86
680.1	3716.55
680.29	3710.41
680.481	3577.29
680.671	3741.13
680.861	3720.65
681.052	3802.57
681.242	3659.21
681.432	3720.65
681.622	3638.73
681.813	3767.75
682.003	3591.63
682.193	3571.15
682.383	3704.26
682.573	3624.39
682.764	3558.86
682.954	3589.58
683.144	3589.58
683.334	3524.04
683.524	3614.15
683.714	3661.26
683.904	3552.71
684.094	3519.95
684.284	3470.8
684.474	3521.99
684.664	3472.84
684.854	3673.54
685.044	3438.03
685.234	3460.56
685.424	3487.18
685.614	3487.18
685.804	3468.75
685.994	3423.69
686.184	3517.9
686.374	3407.31
686.564	3327.44
686.753	3403.21
686.943	3362.25
687.133	3456.46
687.323	3354.06
687.513	3364.3
687.702	3266
687.892	3403.21
688.082	3169.74
688.272	3182.03
688.461	3249.61
688.651	3302.86
688.841	3134.93
689.03	3245.52
689.22	3309.01
689.41	3198.42
689.599	3182.03
689.789	3202.51
689.979	3108.3
690.168	3077.59
690.358	3085.78
690.547	3081.68
690.737	3206.61
690.926	3085.78
691.116	3059.15
691.305	3071.44
691.495	2981.33
691.684	2887.12
691.874	3104.21
692.063	3022.29
692.252	2919.89
692.442	3134.93
692.631	2923.99
692.82	2932.18
693.01	2950.61
693.199	2903.51
693.388	2856.4
693.578	2903.51
693.767	2889.17
693.956	2897.36
694.146	2735.57
694.335	2842.07
694.524	2772.44
694.713	2805.21
694.902	2911.7
695.092	2772.44
695.281	2737.62
695.47	2692.57
695.659	2747.86
695.848	2751.96
696.037	2852.31
696.226	2780.63
696.415	2825.68
696.604	2692.57
696.793	2776.53
696.982	2737.62
697.171	2850.26
697.36	2667.99
697.549	2719.19
697.738	2723.29
697.927	2749.91
698.116	2579.93
698.305	2725.33
698.494	2670.04
698.683	2758.1
698.872	2661.85
699.061	2696.66
699.25	2676.18
699.438	2674.14
699.627	2637.27
699.816	2713.05
700.005	2807.25
700.193	2541.02
700.382	2682.33
700.571	2563.54
700.76	2719.19
700.948	2637.27
701.137	2688.47
701.326	2688.47
701.514	2616.79
701.703	2688.47
701.892	2551.26
702.08	2592.22
702.269	2717.14
702.457	2504.15
702.646	2614.74
702.834	2586.07
703.023	2674.14
703.212	2584.02
703.4	2598.36
703.589	2557.4
703.777	2420.19
703.965	2549.21
704.154	2579.93
704.342	2538.97
704.531	2559.45
704.719	2590.17
704.907	2659.8
705.096	2612.7
705.284	2481.63
705.472	2547.16
705.661	2592.22
705.849	2534.87
706.037	2481.63
706.226	2577.88
706.414	2504.15
706.602	2479.58
706.79	2432.47
706.979	2569.69
707.167	2561.5
707.355	2549.21
707.543	2534.87
707.731	2524.63
707.919	2459.1
708.107	2420.19
708.296	2520.54
708.484	2575.83
708.672	2510.3
708.86	2473.43
709.048	2465.24
709.236	2500.06
709.424	2536.92
709.612	2536.92
709.8	2608.6
709.988	2530.78
710.176	2532.83
710.364	2514.39
710.551	2506.2
710.739	2532.83
710.927	2434.52
711.115	2596.31
711.303	2596.31
711.491	2577.88
711.679	2590.17
711.866	2584.02
712.054	2536.92
712.242	2455
712.43	2627.03
712.617	2592.22
712.805	2612.7
712.993	2559.45
713.181	2604.5
713.368	2606.55
713.556	2700.76
713.744	2524.63
713.931	2551.26
714.119	2592.22
714.306	2498.01
714.494	2475.48
714.682	2512.35
714.869	2416.09
715.057	2604.5
715.244	2461.15
715.432	2596.31
715.619	2717.14
715.807	2592.22
715.994	2622.94
716.182	2620.89
716.369	2514.39
716.556	2536.92
716.744	2534.87
716.931	2518.49
717.119	2639.32
717.306	2530.78
717.493	2555.35
717.681	2633.18
717.868	2561.5
718.055	2561.5
718.242	2655.7
718.43	2598.36
718.617	2641.37
718.804	2608.6
718.991	2561.5
719.179	2676.18
719.366	2590.17
719.553	2655.7
719.74	2649.56
719.927	2397.66
720.114	2631.13
720.301	2577.88
720.488	2590.17
720.676	2610.65
720.863	2627.03
721.05	2674.14
721.237	2684.38
721.424	2565.59
721.611	2569.69
721.798	2584.02
721.985	2524.63
722.172	2622.94
722.358	2700.76
722.545	2524.63
722.732	2518.49
722.919	2541.02
723.106	2588.12
723.293	2532.83
723.48	2575.83
723.667	2534.87
723.853	2516.44
724.04	2629.08
724.227	2543.07
724.414	2471.39
724.6	2651.61
724.787	2563.54
724.974	2641.37
725.161	2643.42
725.347	2530.78
725.534	2637.27
725.72	2592.22
725.907	2688.47
726.094	2586.07
726.28	2624.98
726.467	2561.5
726.653	2522.59
726.84	2729.43
727.027	2665.94
727.213	2555.35
727.4	2645.46
727.586	2618.84
727.773	2659.8
727.959	2676.18
728.145	2682.33
728.332	2594.26
728.518	2557.4
728.705	2725.33
728.891	2651.61
729.077	2663.9
729.264	2665.94
729.45	2561.5
729.636	2655.7
729.823	2532.83
730.009	2737.62
730.195	2723.29
730.382	2645.46
730.568	2672.09
730.754	2590.17
730.94	2686.42
731.126	2735.57
731.313	2674.14
731.499	2684.38
731.685	2729.43
731.871	2543.07
732.057	2676.18
732.243	2706.9
732.429	2702.81
732.615	2635.22
732.801	2784.73
732.987	2713.05
733.173	2672.09
733.359	2694.61
733.545	2708.95
733.731	2555.35
733.917	2590.17
734.103	2661.85
734.289	2641.37
734.475	2610.65
734.661	2692.57
734.847	2581.98
735.033	2612.7
735.219	2700.76
735.404	2590.17
735.59	2518.49
735.776	2586.07
735.962	2612.7
736.148	2530.78
736.333	2579.93
736.519	2600.41
736.705	2661.85
736.89	2561.5
737.076	2612.7
737.262	2522.59
737.447	2594.26
737.633	2561.5
737.819	2620.89
738.004	2598.36
738.19	2588.12
738.375	2493.91
738.561	2586.07
738.747	2485.72
738.932	2530.78
739.118	2571.74
739.303	2481.63
739.489	2514.39
739.674	2428.38
739.859	2479.58
740.045	2588.12
740.23	2551.26
740.416	2477.53
740.601	2516.44
740.786	2534.87
740.972	2334.17
741.157	2502.11
741.342	2342.36
741.528	2342.36
741.713	2364.89
741.898	2446.81
742.084	2424.28
742.269	2387.42
742.454	2450.91
742.639	2346.46
742.824	2473.43
743.01	2309.6
743.195	2420.19
743.38	2289.12
743.565	2412
743.75	2409.95
743.935	2366.94
744.12	2360.8
744.305	2280.93
744.49	2297.31
744.675	2307.55
744.86	2291.17
745.045	2242.01
745.23	2276.83
745.415	2287.07
745.6	2233.82
745.785	2254.3
745.97	2262.49
746.155	2176.48
746.34	2190.81
746.525	2196.96
746.71	2274.78
746.895	2231.77
747.079	2231.77
747.264	2151.9
747.449	2137.57
747.634	2067.94
747.819	2164.19
748.003	2135.52
748.188	2172.38
748.373	2147.81
748.557	2037.22
748.742	1934.82
748.927	1951.2
749.111	1988.07
749.296	2039.26
749.481	2045.41
749.665	1914.34
749.85	1981.92
750.034	2047.46
750.219	1967.59
750.404	1912.29
750.588	1879.52
750.773	1900
750.957	1994.21
751.141	1859.04
751.326	1914.34
751.51	1803.75
751.695	1785.32
751.879	1768.93
752.064	1977.83
752.248	1842.66
752.432	1811.94
752.617	1695.21
752.801	1750.5
752.985	1801.7
753.17	1787.36
753.354	1715.69
753.538	1605.1
753.722	1631.72
753.907	1693.16
754.091	1660.39
754.275	1648.1
754.459	1637.86
754.643	1623.53
754.828	1658.34
755.012	1580.52
755.196	1592.81
755.38	1588.71
755.564	1568.23
755.748	1539.56
755.932	1560.04
756.116	1498.6
756.3	1547.75
756.484	1535.46
756.668	1560.04
756.852	1598.95
757.036	1619.43
757.22	1549.8
757.404	1467.88
757.588	1365.48
757.772	1396.2
757.956	1459.69
758.14	1445.35
758.323	1400.3
758.507	1435.11
758.691	1414.63
758.875	1422.83
759.059	1256.94
759.242	1363.44
759.426	1336.81
759.61	1357.29
759.794	1277.42
759.977	1324.52
760.161	1373.68
760.345	1332.72
760.528	1265.13
760.712	1252.84
760.895	1312.24
761.079	1340.91
761.263	1232.37
761.446	1248.75
761.63	1355.24
761.813	1242.61
761.997	1320.43
762.18	1250.8
762.364	1312.24
762.547	1236.46
762.731	1197.55
762.914	1224.17
763.098	1162.73
763.281	1226.22
763.464	1207.79
763.648	1238.51
763.831	1115.63
764.015	1144.3
764.198	1121.77
764.381	1101.3
764.564	1097.2
764.748	1209.84
764.931	1236.46
765.114	1166.83
765.297	1089.01
765.481	1160.69
765.664	1232.37
765.847	1076.72
766.03	1168.88
766.213	1175.02
766.397	1154.54
766.58	1029.62
766.763	1062.38
766.946	1046
767.129	1062.38
767.312	1105.39
767.495	1043.95
767.678	1070.58
767.861	1039.86
768.044	1031.66
768.227	978.42
768.41	1076.72
768.593	1111.54
768.776	964.08
768.959	1027.57
769.142	1093.1
769.324	1035.76
769.507	1035.76
769.69	1009.14
769.873	933.36
770.056	964.08
770.239	919.03
770.421	1080.82
770.604	959.99
770.787	994.8
770.97	914.93
771.152	949.75
771.335	857.59
771.518	957.94
771.7	921.07
771.883	959.99
772.066	941.55
772.248	964.08
772.431	964.08
772.613	982.51
772.796	1007.09
772.978	996.85
773.161	939.51
773.343	951.79
773.526	1013.23
773.708	871.92
773.891	818.68
774.073	808.44
774.256	943.6
774.438	871.92
774.621	869.87
774.803	865.78
774.985	855.54
775.168	824.82
775.35	929.27
775.532	824.82
775.715	865.78
775.897	851.44
776.079	714.23
776.261	726.52
776.444	718.33
776.626	765.43
776.808	714.23
776.99	703.99
777.173	710.13
777.355	816.63
777.537	785.91
777.719	714.23
777.901	687.61
778.083	691.7
778.265	681.46
778.447	790
778.629	783.86
778.811	734.71
778.993	722.42
779.175	632.31
779.357	710.13
779.539	701.94
779.721	642.55
779.903	771.57
780.085	658.93
780.267	681.46
780.449	640.5
780.631	749.04
780.812	708.09
780.994	740.85
781.176	718.33
781.358	697.85
781.54	675.32
781.721	634.36
781.903	589.3
782.085	636.41
782.267	648.69
782.448	538.1
782.63	589.3
782.812	550.39
782.993	624.12
783.175	499.19
783.357	566.78
783.538	603.64
783.72	486.9
783.901	695.8
784.083	605.69
784.264	495.1
784.446	562.68
784.627	511.48
784.809	507.38
784.99	517.62
785.172	523.77
785.353	562.68
785.535	531.96
785.716	470.52
785.897	605.69
786.079	548.34
786.26	540.15
786.441	501.24
786.623	505.34
786.804	437.75
786.985	480.76
787.167	513.53
787.348	437.75
787.529	474.62
787.71	474.62
787.891	423.42
788.073	482.81
788.254	488.95
788.435	486.9
788.616	468.47
788.797	433.66
788.978	431.61
789.159	450.04
789.34	472.57
789.522	427.51
789.703	474.62
789.884	464.38
790.065	382.46
790.246	431.61
790.427	386.55
790.607	501.24
790.788	421.37
790.969	359.93
791.15	378.36
791.331	443.9
791.512	415.23
791.693	370.17
791.874	396.79
792.054	325.12
792.235	368.12
792.416	390.65
792.597	290.3
792.778	376.31
792.958	384.51
793.139	429.56
793.32	364.03
793.5	329.21
793.681	364.03
793.862	359.93
794.042	396.79
794.223	396.79
794.404	359.93
794.584	329.21
794.765	284.16
794.945	306.68
795.126	345.59
795.306	341.5
795.487	341.5
795.667	271.87
795.848	380.41
796.028	355.83
796.209	388.6
796.389	321.02
796.57	368.12
796.75	253.44
796.93	335.35
797.111	265.72
797.291	298.49
797.471	290.3
797.652	306.68
797.832	273.92
798.012	304.64
798.192	261.63
798.373	333.31
798.553	314.88
798.733	280.06
798.913	232.96
799.093	271.87
799.274	296.44
799.454	222.72
799.634	224.76
799.814	243.2
799.994	333.31
800.174	286.2
800.354	235
800.534	265.72
800.714	329.21
800.894	255.48
801.074	224.76
801.254	259.58
801.434	290.3
801.614	220.67
801.794	278.01
801.974	714.23
802.154	261.63
802.334	247.29
802.514	239.1
802.693	216.57
802.873	259.58
803.053	247.29
803.233	253.44
803.413	269.82
803.592	194.05
803.772	280.06
803.952	263.68
804.131	218.62
804.311	212.48
804.491	255.48
804.67	241.15
804.85	192
805.03	138.75
805.209	298.49
805.389	216.57
805.568	275.96
805.748	220.67
805.928	224.76
806.107	237.05
806.287	253.44
806.466	284.16
806.646	218.62
806.825	273.92
807.004	187.9
807.184	208.38
807.363	273.92
807.543	237.05
807.722	198.14
807.901	222.72
808.081	226.81
808.26	226.81
808.439	187.9
808.619	237.05
808.798	146.94
808.977	169.47
809.156	171.52
809.336	183.81
809.515	220.67
809.694	116.22
809.873	237.05
810.052	230.91
810.231	243.2
810.411	155.13
810.59	259.58
810.769	163.33
810.948	157.18
811.127	161.28
811.306	157.18
811.485	171.52
811.664	175.61
811.843	171.52
812.022	245.24
812.201	214.52
812.38	183.81
812.559	140.8
812.737	161.28
812.916	169.47
813.095	171.52
813.274	148.99
813.453	177.66
813.632	87.55
813.811	202.24
813.989	108.03
814.168	153.09
814.347	77.31
814.526	159.23
814.704	230.91
814.883	153.09
815.062	124.41
815.24	136.7
815.419	187.9
815.598	179.71
815.776	97.79
815.955	177.66
816.133	136.7
816.312	175.61
816.49	169.47
816.669	206.33
816.847	204.28
817.026	132.61
817.204	134.65
817.383	122.37
817.561	89.6
817.74	148.99
817.918	196.09
818.097	224.76
818.275	173.57
818.453	194.05
818.632	171.52
818.81	73.21
818.988	134.65
819.167	118.27
819.345	144.89
819.523	132.61
819.701	134.65
819.879	167.42
820.058	52.74
820.236	75.26
820.414	99.84
820.592	200.19
820.77	142.85
820.948	118.27
821.127	56.83
821.305	116.22
821.483	108.03
821.661	128.51
821.839	157.18
822.017	142.85
822.195	101.89
822.373	118.27
822.551	116.22
822.729	187.9
822.907	58.88
823.085	116.22
823.262	99.84
823.44	136.7
823.618	83.45
823.796	169.47
823.974	118.27
824.152	116.22
824.329	134.65
824.507	167.42
824.685	87.55
824.863	83.45
825.04	151.04
825.218	85.5
825.396	79.36
825.574	62.98
825.751	124.41
825.929	175.61
826.107	73.21
826.284	71.17
826.462	144.89
826.639	110.08
826.817	81.41
826.994	130.56
827.172	95.74
827.349	159.23
827.527	67.07
827.704	118.27
827.882	124.41
828.059	110.08
828.237	101.89
828.414	99.84
828.591	-0.51
828.769	148.99
828.946	110.08
829.124	134.65
829.301	126.46
829.478	60.93
829.655	24.06
829.833	151.04
830.01	50.69
830.187	73.21
830.364	110.08
830.542	116.22
830.719	175.61
830.896	85.5
831.073	26.11
831.25	71.17
831.427	157.18
831.604	130.56
831.782	97.79
831.959	181.76
832.136	60.93
832.313	105.98
832.49	42.5
832.667	81.41
832.844	93.69
833.021	148.99
833.198	52.74
833.374	73.21
833.551	58.88
833.728	5.63
833.905	108.03
834.082	69.12
834.259	71.17
834.436	130.56
834.612	58.88
834.789	87.55
834.966	48.64
835.143	181.76
835.319	50.69
835.496	89.6
835.673	99.84
835.85	146.94
836.026	48.64
836.203	44.54
836.38	60.93
836.556	65.02
836.733	56.83
836.909	85.5
837.086	48.64
837.262	46.59
837.439	103.93
837.616	112.13
837.792	120.32
837.968	11.78
838.145	42.5
838.321	-4.61
838.498	52.74
838.674	97.79
838.851	91.65
839.027	146.94
839.203	120.32
839.38	93.69
839.556	87.55
839.732	132.61
839.909	48.64
840.085	95.74
840.261	9.73
840.437	36.35
840.614	54.78
840.79	114.17
840.966	69.12
841.142	24.06
841.318	81.41
841.494	79.36
841.671	42.5
841.847	52.74
842.023	83.45
842.199	97.79
842.375	46.59
842.551	34.3
842.727	-29.18
842.903	48.64
843.079	101.89
843.255	54.78
843.431	83.45
843.607	103.93
843.783	42.5
843.959	22.02
844.134	62.98
844.31	71.17
844.486	81.41
844.662	112.13
844.838	28.16
845.013	42.5
845.189	112.13
845.365	26.11
845.541	67.07
845.716	120.32
845.892	32.26
846.068	32.26
846.244	-8.7
846.419	24.06
846.595	26.11
846.77	22.02
846.946	-35.33
847.122	48.64
847.297	46.59
847.473	95.74
847.648	24.06
847.824	67.07
847.999	40.45
848.175	19.97
848.35	91.65
848.526	87.55
848.701	52.74
848.876	60.93
849.052	71.17
849.227	71.17
849.403	22.02
849.578	83.45
849.753	79.36
849.929	46.59
850.104	67.07
850.279	40.45
850.454	-2.56
850.63	40.45
850.805	19.97
850.98	73.21
851.155	44.54
851.33	50.69
851.505	48.64
851.681	99.84
851.856	79.36
852.031	95.74
852.206	58.88
852.381	65.02
852.556	81.41
852.731	65.02
852.906	22.02
853.081	79.36
853.256	11.78
853.431	19.97
853.606	50.69
853.781	52.74
853.956	13.82
854.131	3.58
854.305	44.54
854.48	-4.61
854.655	-0.51
854.83	-14.85
855.005	-23.04
855.18	28.16
855.354	44.54
855.529	73.21
855.704	99.84
855.879	42.5
856.053	42.5
856.228	71.17
856.403	62.98
856.577	32.26
856.752	32.26
856.926	1.54
857.101	73.21
857.276	65.02
857.45	40.45
857.625	3.58
857.799	-8.7
857.974	7.68
858.148	-0.51
858.323	11.78
858.497	81.41
858.672	26.11
858.846	-0.51
859.02	52.74
859.195	-12.8
859.369	-18.94
859.543	28.16
859.718	-12.8
859.892	-12.8
860.066	60.93
860.241	36.35
860.415	44.54
860.589	-43.52
860.763	-2.56
860.938	52.74
861.112	-20.99
861.286	-29.18
861.46	71.17
861.634	42.5
861.808	-0.51
861.982	114.17
862.157	-31.23
862.331	46.59
862.505	-33.28
862.679	5.63
862.853	-31.23
863.027	-14.85
863.201	73.21
863.375	69.12
863.549	97.79
863.722	85.5
863.896	7.68
864.07	-16.9
864.244	34.3
864.418	46.59
864.592	58.88
864.766	38.4
864.939	-6.66
865.113	-33.28
865.287	-47.62
865.461	17.92
865.634	-12.8
865.808	36.35
865.982	36.35
866.156	24.06
866.329	9.73
866.503	46.59
866.676	36.35
866.85	3.58
867.024	-10.75
867.197	83.45
867.371	42.5
867.544	26.11
867.718	-27.14
867.891	-31.23
868.065	-25.09
868.238	5.63
868.412	73.21
868.585	83.45
868.759	-8.7
868.932	-14.85
869.105	-45.57
869.279	52.74
869.452	30.21
869.625	56.83
869.799	71.17
869.972	-2.56
870.145	-10.75
870.319	11.78
870.492	36.35
870.665	22.02
870.838	9.73
871.011	-84.48
871.185	44.54
871.358	89.6
871.531	22.02
871.704	69.12
871.877	13.82
872.05	-25.09
872.223	22.02
872.396	5.63
872.569	13.82
872.742	-23.04
872.915	36.35
873.088	19.97
873.261	-0.51
873.434	-14.85
873.607	48.64
873.78	116.22
873.953	3.58
874.126	93.69
874.299	-0.51
874.471	-16.9
874.644	22.02
874.817	19.97
874.99	-6.66
875.163	-61.95
875.335	50.69
875.508	-16.9
875.681	52.74
875.853	7.68
876.026	3.58
876.199	81.41
876.371	-39.42
876.544	28.16
876.717	30.21
876.889	71.17
877.062	26.11
877.234	3.58
877.407	-51.71
877.579	-37.38
877.752	15.87
877.924	15.87
878.097	-33.28
878.269	-12.8
878.442	42.5
878.614	3.58
878.786	-6.66
878.959	-12.8
879.131	56.83
879.303	13.82
879.476	-49.66
879.648	50.69
879.82	-31.23
879.993	54.78
880.165	3.58
880.337	-4.61
880.509	40.45
880.681	32.26
880.854	-16.9
881.026	-2.56
881.198	32.26
881.37	34.3
881.542	44.54
881.714	-0.51
881.886	-18.94
882.058	-59.9
882.23	-43.52
882.402	-2.56
882.574	-20.99
882.746	15.87
882.918	62.98
883.09	28.16
883.262	73.21
883.434	-8.7
883.606	-23.04
883.778	87.55
883.95	40.45
884.122	26.11
884.293	-29.18
884.465	5.63
884.637	52.74
884.809	3.58
884.98	54.78
885.152	-6.66
885.324	3.58
885.496	5.63
885.667	-23.04
885.839	-0.51
886.011	38.4
886.182	73.21
886.354	36.35
886.525	-20.99
886.697	24.06
886.869	-4.61
887.04	-43.52
887.212	-45.57
887.383	46.59
887.555	28.16
887.726	-6.66
887.897	30.21
888.069	42.5
888.24	-10.75
888.412	75.26
888.583	-0.51
888.754	40.45
888.926	-14.85
889.097	-4.61
889.268	-39.42
889.44	22.02
889.611	-10.75
889.782	79.36
889.953	11.78
890.125	3.58
890.296	-23.04
890.467	-76.29
890.638	40.45
890.809	-12.8
890.98	3.58
891.151	5.63
891.323	32.26
891.494	-29.18
891.665	26.11
891.836	-107.01
892.007	-8.7
892.178	50.69
892.349	30.21
892.52	73.21
892.691	-0.51
892.862	46.59
893.032	-10.75
893.203	3.58
893.374	-20.99
893.545	-29.18
893.716	-80.38
893.887	3.58
894.057	-23.04
894.228	7.68
894.399	17.92
894.57	44.54
894.74	-31.23
894.911	56.83
895.082	-31.23
895.253	-2.56
895.423	7.68
895.594	89.6
895.764	19.97
895.935	-55.81
896.106	-90.62
896.276	-31.23
896.447	-16.9
896.617	17.92
896.788	19.97
896.958	9.73
897.129	9.73
897.299	-41.47
897.47	34.3
897.64	93.69
897.81	-16.9
897.981	-6.66
898.151	5.63
898.322	17.92
898.492	5.63
898.662	7.68
898.832	-39.42
899.003	38.4
899.173	-0.51
899.343	-18.94
899.513	42.5
