Data from USB4F104151__70__11-52-39-461.txt Node

Date: Fri Mar 14 11:52:39 EDT 2025
User: louis
Spectrometer: USB4F10415
Trigger mode: 4
Integration Time (sec): 2.000000E-2
Scans to average: 1
Electric dark correction enabled: true
Nonlinearity correction enabled: false
Boxcar width: 0
XAxis mode: Wavelengths
Number of Pixels in Spectrum: 3648
>>>>>Begin Spectral Data<<<<<
178.204	-139.43
178.424	-139.43
178.644	-139.43
178.864	-80.04
179.084	-170.15
179.304	-24.75
179.524	44.88
179.744	1.88
179.964	5.97
180.184	1.88
180.404	-6.31
180.624	24.4
180.844	-12.46
181.064	-34.99
181.283	65.36
181.503	-59.56
181.723	-6.31
181.943	-59.56
182.163	-59.56
182.383	-45.23
182.602	44.88
182.822	-12.46
183.042	48.98
183.262	-49.32
183.482	-14.51
183.701	-22.7
183.921	-84.14
184.141	-47.27
184.361	38.74
184.58	61.27
184.8	10.07
185.02	-41.13
185.239	26.45
185.459	18.26
185.679	3.93
185.898	-26.79
186.118	53.08
186.338	5.97
186.557	44.88
186.777	-30.89
186.997	48.98
187.216	51.03
187.436	34.64
187.655	-12.46
187.875	14.17
188.095	16.21
188.314	81.75
188.534	-65.71
188.753	3.93
188.973	-45.23
189.192	67.41
189.412	40.79
189.631	-16.55
189.851	-10.41
190.07	38.74
190.29	-30.89
190.509	10.07
190.729	20.31
190.948	38.74
191.168	63.32
191.387	87.89
191.607	-53.42
191.826	42.84
192.045	-49.32
192.265	1.88
192.484	34.64
192.704	-55.47
192.923	-102.57
193.142	12.12
193.362	12.12
193.581	48.98
193.8	-14.51
194.02	124.76
194.239	24.4
194.458	91.99
194.678	1.88
194.897	-22.7
195.116	-34.99
195.335	8.02
195.555	12.12
195.774	30.55
195.993	-12.46
196.212	8.02
196.432	-6.31
196.651	5.97
196.87	5.97
197.089	28.5
197.308	38.74
197.528	38.74
197.747	-6.31
197.966	10.07
198.185	8.02
198.404	-16.55
198.623	20.31
198.842	-34.99
199.062	30.55
199.281	-18.6
199.5	-22.7
199.719	-0.17
199.938	16.21
200.157	51.03
200.376	-30.89
200.595	22.36
200.814	-2.22
201.033	32.6
201.252	75.6
201.471	-18.6
201.69	55.12
201.909	-32.94
202.128	-2.22
202.347	20.31
202.566	14.17
202.785	-28.84
203.004	-30.89
203.223	51.03
203.442	-37.03
203.661	-55.47
203.879	85.84
204.098	91.99
204.317	-39.08
204.536	-6.31
204.755	-0.17
204.974	-20.65
205.193	94.04
205.411	89.94
205.63	5.97
205.849	-4.27
206.068	-20.65
206.287	-0.17
206.505	28.5
206.724	-18.6
206.943	16.21
207.162	-12.46
207.381	63.32
207.599	14.17
207.818	-6.31
208.037	44.88
208.255	12.12
208.474	57.17
208.693	-10.41
208.911	59.22
209.13	20.31
209.349	-37.03
209.567	18.26
209.786	65.36
210.005	3.93
210.223	-16.55
210.442	-41.13
210.661	5.97
210.879	-0.17
211.098	-0.17
211.316	16.21
211.535	34.64
211.753	30.55
211.972	-18.6
212.191	36.69
212.409	-14.51
212.628	40.79
212.846	42.84
213.065	-22.7
213.283	30.55
213.502	-18.6
213.72	22.36
213.938	-2.22
214.157	30.55
214.375	-22.7
214.594	14.17
214.812	44.88
215.031	28.5
215.249	36.69
215.467	-6.31
215.686	-10.41
215.904	34.64
216.122	-45.23
216.341	10.07
216.559	14.17
216.778	3.93
216.996	14.17
217.214	28.5
217.432	-65.71
217.651	12.12
217.869	5.97
218.087	-14.51
218.306	-8.36
218.524	14.17
218.742	-30.89
218.96	100.18
219.179	-37.03
219.397	-20.65
219.615	-6.31
219.833	8.02
220.051	-14.51
220.27	46.93
220.488	-4.27
220.706	-10.41
220.924	-28.84
221.142	36.69
221.36	16.21
221.578	8.02
221.796	22.36
222.015	69.46
222.233	-0.17
222.451	26.45
222.669	-63.66
222.887	3.93
223.105	1.88
223.323	-24.75
223.541	-16.55
223.759	61.27
223.977	12.12
224.195	-0.17
224.413	48.98
224.631	28.5
224.849	-2.22
225.067	79.7
225.285	42.84
225.503	46.93
225.721	-59.56
225.939	-12.46
226.157	24.4
226.375	75.6
226.592	-22.7
226.81	-2.22
227.028	-24.75
227.246	20.31
227.464	5.97
227.682	5.97
227.9	-6.31
228.117	20.31
228.335	-53.42
228.553	-57.51
228.771	-14.51
228.989	12.12
229.206	67.41
229.424	12.12
229.642	-26.79
229.86	-32.94
230.077	-0.17
230.295	-10.41
230.513	3.93
230.731	-30.89
230.948	28.5
231.166	87.89
231.384	10.07
231.601	10.07
231.819	12.12
232.037	-0.17
232.254	40.79
232.472	44.88
232.689	-69.8
232.907	34.64
233.125	-37.03
233.342	22.36
233.56	-67.75
233.777	-10.41
233.995	-39.08
234.213	34.64
234.43	20.31
234.648	14.17
234.865	24.4
235.083	18.26
235.3	12.12
235.518	-71.85
235.735	34.64
235.953	-37.03
236.17	-20.65
236.388	-10.41
236.605	-45.23
236.822	89.94
237.04	104.28
237.257	40.79
237.475	5.97
237.692	38.74
237.909	3.93
238.127	-26.79
238.344	-20.65
238.562	-0.17
238.779	26.45
238.996	-26.79
239.214	12.12
239.431	-28.84
239.648	-88.23
239.865	34.64
240.083	44.88
240.3	46.93
240.517	-34.99
240.735	-22.7
240.952	40.79
241.169	34.64
241.386	3.93
241.603	40.79
241.821	26.45
242.038	-47.27
242.255	16.21
242.472	20.31
242.689	26.45
242.907	-41.13
243.124	-37.03
243.341	26.45
243.558	71.51
243.775	42.84
243.992	-2.22
244.209	46.93
244.426	30.55
244.643	30.55
244.86	-61.61
245.078	28.5
245.295	38.74
245.512	8.02
245.729	20.31
245.946	16.21
246.163	-16.55
246.38	79.7
246.597	12.12
246.814	12.12
247.031	-51.37
247.248	-12.46
247.464	112.47
247.681	-10.41
247.898	16.21
248.115	3.93
248.332	-10.41
248.549	-2.22
248.766	10.07
248.983	91.99
249.2	-37.03
249.417	28.5
249.633	36.69
249.85	40.79
250.067	14.17
250.284	-30.89
250.501	26.45
250.717	-6.31
250.934	-39.08
251.151	59.22
251.368	20.31
251.585	79.7
251.801	14.17
252.018	3.93
252.235	18.26
252.451	16.21
252.668	28.5
252.885	-18.6
253.102	-41.13
253.318	-63.66
253.535	-2.22
253.752	10.07
253.968	-4.27
254.185	24.4
254.401	-20.65
254.618	16.21
254.835	22.36
255.051	34.64
255.268	8.02
255.484	34.64
255.701	22.36
255.917	46.93
256.134	18.26
256.351	26.45
256.567	46.93
256.784	-75.95
257	-45.23
257.217	-4.27
257.433	3.93
257.65	-45.23
257.866	-2.22
258.082	-71.85
258.299	18.26
258.515	20.31
258.732	1.88
258.948	40.79
259.165	26.45
259.381	-24.75
259.597	46.93
259.814	38.74
260.03	-59.56
260.246	-41.13
260.463	3.93
260.679	102.23
260.895	-10.41
261.112	-45.23
261.328	-18.6
261.544	57.17
261.761	61.27
261.977	-4.27
262.193	-39.08
262.409	24.4
262.626	-47.27
262.842	59.22
263.058	1.88
263.274	46.93
263.49	53.08
263.707	-6.31
263.923	-71.85
264.139	-41.13
264.355	-12.46
264.571	34.64
264.787	16.21
265.004	-6.31
265.22	-6.31
265.436	30.55
265.652	26.45
265.868	61.27
266.084	-41.13
266.3	-24.75
266.516	14.17
266.732	-65.71
266.948	-8.36
267.164	-6.31
267.38	57.17
267.596	8.02
267.812	75.6
268.028	32.6
268.244	61.27
268.46	-18.6
268.676	65.36
268.892	24.4
269.108	-22.7
269.324	-12.46
269.54	-63.66
269.756	36.69
269.972	18.26
270.188	1.88
270.403	-73.9
270.619	55.12
270.835	-2.22
271.051	-24.75
271.267	-57.51
271.483	30.55
271.698	-47.27
271.914	36.69
272.13	-96.43
272.346	34.64
272.562	-2.22
272.777	-16.55
272.993	-4.27
273.209	-0.17
273.425	-51.37
273.64	-16.55
273.856	-18.6
274.072	-4.27
274.287	30.55
274.503	30.55
274.719	10.07
274.934	-41.13
275.15	-96.43
275.366	-4.27
275.581	-26.79
275.797	24.4
276.012	-37.03
276.228	8.02
276.444	-57.51
276.659	-6.31
276.875	-10.41
277.09	51.03
277.306	16.21
277.521	-49.32
277.737	24.4
277.952	34.64
278.168	-30.89
278.383	14.17
278.599	14.17
278.814	28.5
279.03	20.31
279.245	-14.51
279.461	65.36
279.676	32.6
279.892	26.45
280.107	22.36
280.322	-84.14
280.538	-18.6
280.753	3.93
280.969	-39.08
281.184	16.21
281.399	34.64
281.615	44.88
281.83	89.94
282.045	-67.75
282.26	18.26
282.476	59.22
282.691	10.07
282.906	57.17
283.122	81.75
283.337	-32.94
283.552	-0.17
283.767	-22.7
283.983	65.36
284.198	-63.66
284.413	-12.46
284.628	-39.08
284.843	-22.7
285.058	-20.65
285.274	18.26
285.489	14.17
285.704	79.7
285.919	-8.36
286.134	87.89
286.349	-77.99
286.564	-0.17
286.779	38.74
286.995	48.98
287.21	-57.51
287.425	63.32
287.64	18.26
287.855	79.7
288.07	-12.46
288.285	51.03
288.5	32.6
288.715	-18.6
288.93	34.64
289.145	-53.42
289.36	14.17
289.575	63.32
289.79	-8.36
290.004	-4.27
290.219	30.55
290.434	14.17
290.649	-12.46
290.864	110.42
291.079	-8.36
291.294	22.36
291.509	-24.75
291.724	36.69
291.938	61.27
292.153	34.64
292.368	-41.13
292.583	28.5
292.798	-22.7
293.012	53.08
293.227	63.32
293.442	-10.41
293.657	-24.75
293.871	34.64
294.086	5.97
294.301	71.51
294.516	46.93
294.73	61.27
294.945	-63.66
295.16	22.36
295.374	16.21
295.589	-2.22
295.804	12.12
296.018	30.55
296.233	69.46
296.447	1.88
296.662	-55.47
296.877	16.21
297.091	-51.37
297.306	44.88
297.52	-18.6
297.735	48.98
297.949	32.6
298.164	-12.46
298.378	-6.31
298.593	-10.41
298.807	-32.94
299.022	8.02
299.236	32.6
299.451	44.88
299.665	8.02
299.88	-26.79
300.094	75.6
300.309	1.88
300.523	-24.75
300.737	3.93
300.952	42.84
301.166	48.98
301.381	65.36
301.595	-51.37
301.809	8.02
302.024	-18.6
302.238	-24.75
302.452	18.26
302.667	32.6
302.881	14.17
303.095	18.26
303.309	12.12
303.524	16.21
303.738	24.4
303.952	-22.7
304.166	59.22
304.381	1.88
304.595	-28.84
304.809	51.03
305.023	10.07
305.237	30.55
305.452	-37.03
305.666	-6.31
305.88	22.36
306.094	-30.89
306.308	-14.51
306.522	10.07
306.736	83.8
306.95	61.27
307.164	128.85
307.379	-4.27
307.593	14.17
307.807	-22.7
308.021	-69.8
308.235	-28.84
308.449	-4.27
308.663	-2.22
308.877	59.22
309.091	-2.22
309.305	12.12
309.519	-0.17
309.733	10.07
309.947	-16.55
310.161	-39.08
310.374	-4.27
310.588	-8.36
310.802	5.97
311.016	-37.03
311.23	28.5
311.444	3.93
311.658	-57.51
311.872	30.55
312.085	22.36
312.299	8.02
312.513	-14.51
312.727	14.17
312.941	22.36
313.154	-37.03
313.368	16.21
313.582	-37.03
313.796	-22.7
314.009	16.21
314.223	-28.84
314.437	30.55
314.651	75.6
314.864	12.12
315.078	-30.89
315.292	-16.55
315.505	34.64
315.719	-2.22
315.933	5.97
316.146	1.88
316.36	18.26
316.573	69.46
316.787	30.55
317.001	32.6
317.214	-26.79
317.428	53.08
317.641	-10.41
317.855	34.64
318.068	10.07
318.282	-4.27
318.495	18.26
318.709	42.84
318.922	-37.03
319.136	34.64
319.349	-26.79
319.563	34.64
319.776	5.97
319.99	12.12
320.203	-8.36
320.417	30.55
320.63	-37.03
320.843	-41.13
321.057	28.5
321.27	1.88
321.483	42.84
321.697	94.04
321.91	-49.32
322.124	14.17
322.337	-4.27
322.55	71.51
322.763	8.02
322.977	-20.65
323.19	-28.84
323.403	48.98
323.617	65.36
323.83	-14.51
324.043	8.02
324.256	-28.84
324.469	18.26
324.683	77.65
324.896	-39.08
325.109	-2.22
325.322	30.55
325.535	40.79
325.748	-45.23
325.962	-96.43
326.175	55.12
326.388	34.64
326.601	26.45
326.814	-30.89
327.027	16.21
327.24	63.32
327.453	-55.47
327.666	5.97
327.879	-0.17
328.092	3.93
328.305	38.74
328.518	22.36
328.731	67.41
328.944	28.5
329.157	-37.03
329.37	-6.31
329.583	48.98
329.796	61.27
330.009	-57.51
330.222	69.46
330.435	8.02
330.648	42.84
330.861	-45.23
331.073	-37.03
331.286	1.88
331.499	-24.75
331.712	-2.22
331.925	102.23
332.138	3.93
332.35	42.84
332.563	-45.23
332.776	5.97
332.989	-53.42
333.202	-61.61
333.414	-8.36
333.627	-12.46
333.84	-59.56
334.053	24.4
334.265	3.93
334.478	1.88
334.691	-6.31
334.903	-55.47
335.116	-45.23
335.329	-14.51
335.541	53.08
335.754	16.21
335.966	16.21
336.179	-34.99
336.392	-69.8
336.604	44.88
336.817	-4.27
337.029	-4.27
337.242	10.07
337.454	65.36
337.667	-12.46
337.88	67.41
338.092	32.6
338.305	-51.37
338.517	-80.04
338.729	-4.27
338.942	20.31
339.154	10.07
339.367	-10.41
339.579	-30.89
339.792	-84.14
340.004	-24.75
340.217	-69.8
340.429	55.12
340.641	-8.36
340.854	63.32
341.066	-45.23
341.278	46.93
341.491	44.88
341.703	-37.03
341.915	-12.46
342.128	-28.84
342.34	3.93
342.552	-12.46
342.764	63.32
342.977	18.26
343.189	-26.79
343.401	-18.6
343.613	-4.27
343.826	14.17
344.038	8.02
344.25	57.17
344.462	-37.03
344.674	69.46
344.886	16.21
345.099	-47.27
345.311	-6.31
345.523	-20.65
345.735	5.97
345.947	53.08
346.159	-2.22
346.371	8.02
346.583	-24.75
346.795	16.21
347.007	26.45
347.219	75.6
347.431	67.41
347.643	22.36
347.855	3.93
348.067	69.46
348.279	-6.31
348.491	69.46
348.703	-24.75
348.915	61.27
349.127	-0.17
349.339	-45.23
349.551	-59.56
349.763	20.31
349.975	48.98
350.187	30.55
350.399	1.88
350.61	1.88
350.822	-0.17
351.034	102.23
351.246	75.6
351.458	44.88
351.669	3.93
351.881	61.27
352.093	48.98
352.305	14.17
352.517	42.84
352.728	38.74
352.94	-2.22
353.152	63.32
353.363	-18.6
353.575	-34.99
353.787	34.64
353.999	-20.65
354.21	26.45
354.422	32.6
354.633	-10.41
354.845	-55.47
355.057	40.79
355.268	-14.51
355.48	-18.6
355.692	-2.22
355.903	28.5
356.115	71.51
356.326	-57.51
356.538	-0.17
356.749	59.22
356.961	-4.27
357.172	-16.55
357.384	67.41
357.595	10.07
357.807	-26.79
358.018	-37.03
358.23	79.7
358.441	79.7
358.653	28.5
358.864	-0.17
359.075	3.93
359.287	-26.79
359.498	77.65
359.709	-55.47
359.921	-0.17
360.132	10.07
360.344	75.6
360.555	-43.18
360.766	30.55
360.977	48.98
361.189	-12.46
361.4	-47.27
361.611	28.5
361.823	-32.94
362.034	14.17
362.245	-28.84
362.456	-0.17
362.667	42.84
362.879	85.84
363.09	-4.27
363.301	26.45
363.512	26.45
363.723	36.69
363.935	-10.41
364.146	40.79
364.357	1.88
364.568	12.12
364.779	-24.75
364.99	143.19
365.201	24.4
365.412	32.6
365.623	30.55
365.834	-8.36
366.045	85.84
366.256	42.84
366.467	-18.6
366.678	-43.18
366.889	-59.56
367.1	-20.65
367.311	-77.99
367.522	42.84
367.733	18.26
367.944	44.88
368.155	32.6
368.366	-6.31
368.577	18.26
368.788	1.88
368.999	12.12
369.209	-4.27
369.42	83.8
369.631	81.75
369.842	91.99
370.053	-32.94
370.264	10.07
370.474	-51.37
370.685	-12.46
370.896	-0.17
371.107	10.07
371.317	46.93
371.528	44.88
371.739	57.17
371.95	40.79
372.16	22.36
372.371	63.32
372.582	42.84
372.792	-39.08
373.003	-24.75
373.214	-12.46
373.424	55.12
373.635	32.6
373.846	69.46
374.056	8.02
374.267	12.12
374.477	81.75
374.688	-43.18
374.898	-51.37
375.109	79.7
375.319	38.74
375.53	48.98
375.74	46.93
375.951	36.69
376.161	79.7
376.372	14.17
376.582	-55.47
376.793	44.88
377.003	-16.55
377.214	12.12
377.424	5.97
377.635	-0.17
377.845	18.26
378.055	18.26
378.266	-30.89
378.476	61.27
378.686	46.93
378.897	89.94
379.107	-24.75
379.317	-2.22
379.528	-55.47
379.738	14.17
379.948	67.41
380.158	-4.27
380.369	22.36
380.579	98.13
380.789	48.98
380.999	65.36
381.21	34.64
381.42	16.21
381.63	28.5
381.84	32.6
382.05	-30.89
382.261	46.93
382.471	14.17
382.681	-0.17
382.891	53.08
383.101	-12.46
383.311	-28.84
383.521	-4.27
383.731	3.93
383.941	44.88
384.151	-24.75
384.361	3.93
384.571	24.4
384.781	24.4
384.991	38.74
385.201	36.69
385.411	71.51
385.621	-8.36
385.831	-16.55
386.041	46.93
386.251	26.45
386.461	46.93
386.671	32.6
386.881	30.55
387.091	67.41
387.301	89.94
387.511	61.27
387.72	-47.27
387.93	-10.41
388.14	-73.9
388.35	-10.41
388.56	18.26
388.769	30.55
388.979	94.04
389.189	48.98
389.399	-4.27
389.609	24.4
389.818	-14.51
390.028	65.36
390.238	34.64
390.447	18.26
390.657	85.84
390.867	-55.47
391.076	5.97
391.286	-55.47
391.496	-18.6
391.705	-4.27
391.915	20.31
392.125	42.84
392.334	18.26
392.544	96.08
392.753	63.32
392.963	-6.31
393.172	48.98
393.382	1.88
393.591	-12.46
393.801	3.93
394.01	16.21
394.22	42.84
394.429	14.17
394.639	40.79
394.848	-24.75
395.058	30.55
395.267	22.36
395.477	10.07
395.686	24.4
395.895	22.36
396.105	40.79
396.314	73.56
396.524	26.45
396.733	48.98
396.942	48.98
397.152	51.03
397.361	32.6
397.57	24.4
397.78	24.4
397.989	28.5
398.198	75.6
398.407	53.08
398.617	59.22
398.826	83.8
399.035	57.17
399.244	16.21
399.453	59.22
399.663	30.55
399.872	98.13
400.081	51.03
400.29	59.22
400.499	61.27
400.708	128.85
400.917	83.8
401.127	79.7
401.336	-0.17
401.545	116.56
401.754	5.97
401.963	151.38
402.172	-14.51
402.381	5.97
402.59	67.41
402.799	77.65
403.008	89.94
403.217	-14.51
403.426	-28.84
403.635	8.02
403.844	16.21
404.053	26.45
404.262	8.02
404.471	114.52
404.68	61.27
404.888	98.13
405.097	132.95
405.306	132.95
405.515	65.36
405.724	89.94
405.933	26.45
406.142	46.93
406.35	173.91
406.559	83.8
406.768	87.89
406.977	79.7
407.185	63.32
407.394	132.95
407.603	122.71
407.812	122.71
408.02	118.61
408.229	165.71
408.438	118.61
408.646	34.64
408.855	137.04
409.064	114.52
409.272	130.9
409.481	163.67
409.69	112.47
409.898	173.91
410.107	202.58
410.315	237.39
410.524	112.47
410.733	259.92
410.941	180.05
411.15	204.63
411.358	229.2
411.567	266.07
411.775	350.03
411.984	218.96
412.192	272.21
412.401	202.58
412.609	231.25
412.818	214.87
413.026	280.4
413.234	296.78
413.443	218.96
413.651	261.97
413.86	266.07
414.068	266.07
414.276	378.7
414.485	409.42
414.693	448.33
414.901	401.23
415.11	390.99
415.318	384.85
415.526	407.38
415.734	472.91
415.943	497.49
416.151	538.45
416.359	513.87
416.567	491.34
416.776	524.11
416.984	573.26
417.192	575.31
417.4	552.78
417.608	575.31
417.817	642.89
418.025	579.4
418.233	583.5
418.441	632.65
418.649	767.82
418.857	794.44
419.065	765.77
419.273	712.52
419.481	778.06
419.689	819.02
419.897	907.08
420.105	868.17
420.313	882.5
420.521	999.24
420.729	982.85
420.937	962.37
421.145	1042.25
421.353	1046.34
421.561	1140.55
421.769	1134.4
421.977	1240.9
422.185	1156.93
422.393	1255.23
422.601	1310.53
422.809	1324.87
423.017	1357.63
423.224	1402.69
423.432	1396.54
423.64	1392.45
423.848	1554.24
424.056	1568.57
424.263	1695.55
424.471	1652.54
424.679	1703.74
424.887	1673.02
425.094	1810.23
425.302	1863.48
425.51	1933.11
425.718	2015.03
425.925	2168.63
426.133	2084.66
426.341	2187.06
426.548	2213.68
426.756	2330.42
426.964	2457.39
427.171	2424.62
427.379	2586.41
427.586	2621.23
427.794	2737.96
428.001	2811.69
428.209	2873.13
428.417	2873.13
428.624	3079.97
428.832	3100.45
429.039	3067.69
429.247	3071.78
429.454	3243.81
429.662	3741.47
429.869	3499.81
430.076	3473.18
430.284	3401.51
430.491	3598.11
430.699	3759.9
430.906	4026.14
431.114	3919.64
431.321	3960.6
431.528	4114.2
431.736	4228.88
431.943	4480.78
432.15	4298.52
432.358	4478.74
432.565	4849.42
432.772	4566.8
432.979	4876.04
433.187	4894.47
433.394	5068.55
433.601	5410.56
433.808	5441.28
434.016	5459.71
434.223	5793.53
434.43	5842.68
434.637	5791.48
434.844	6166.26
435.052	6127.35
435.259	6391.54
435.466	6301.43
435.673	6348.53
435.88	6618.86
436.087	6911.72
436.294	7141.1
436.501	6766.32
436.708	6926.06
436.915	7263.97
437.122	7560.93
437.329	7632.61
437.537	7874.27
437.743	7986.91
437.95	7896.8
438.157	8355.54
438.364	8726.22
438.571	8580.82
438.778	8611.54
438.985	9404.1
439.192	9154.25
439.399	9459.4
439.606	9141.96
439.813	9537.22
440.02	10030.78
440.227	9774.78
440.433	9977.53
440.64	9897.66
440.847	10176.19
441.054	10297.02
441.261	11095.72
441.467	10942.13
441.674	11167.4
441.881	11628.2
442.088	11742.88
442.294	11308.71
442.501	11919.01
442.708	12117.66
442.914	12553.88
443.121	13145.74
443.328	12631.7
443.534	13766.28
443.741	13485.7
443.948	12947.09
444.154	14044.8
444.361	13897.35
444.568	13895.3
444.774	13952.64
444.981	14186.11
445.187	14605.94
445.394	15208.05
445.6	14931.57
445.807	16651.86
446.013	15810.15
446.22	15949.41
446.426	16512.6
446.633	16787.03
446.839	17440.33
447.046	16797.27
447.252	17716.81
447.459	17794.63
447.665	17550.92
447.871	18429.5
448.078	19303.98
448.284	18323.01
448.491	18927.16
448.697	19793.45
448.903	19750.44
449.11	19975.72
449.316	19742.25
449.522	19973.67
449.728	20676.12
449.935	20715.03
450.141	20733.46
450.347	21001.75
450.553	20610.59
450.76	20651.55
450.966	21554.7
451.172	21308.94
451.378	21505.55
451.584	21351.95
451.791	21868.04
451.997	21831.18
452.203	22076.93
452.409	22113.8
452.615	21751.31
452.821	21380.62
453.027	20821.53
453.233	22101.51
453.44	21216.79
453.646	21804.55
453.852	21841.42
454.058	22162.95
454.264	21511.69
454.47	21865.99
454.676	21472.78
454.882	22085.12
455.088	20170.27
455.294	20553.24
455.5	20633.11
455.705	21071.38
455.911	20274.72
456.117	19813.93
456.323	19371.57
456.529	18351.68
456.735	19209.78
456.941	18789.94
457.147	18605.63
457.352	17751.62
457.558	17796.68
457.764	17739.33
457.97	17487.43
458.176	17161.81
458.381	16983.63
458.587	16330.33
458.793	16195.17
458.999	15482.47
459.204	16647.77
459.41	15933.03
459.616	14986.86
459.821	14870.13
460.027	15130.22
460.233	14761.59
460.438	14032.51
460.644	14167.68
460.85	13571.72
461.055	13088.4
461.261	13094.54
461.466	12267.16
461.672	11699.87
461.878	12975.76
462.083	11722.4
462.289	11820.7
462.494	11638.44
462.7	10997.42
462.905	10651.31
463.111	11173.55
463.316	11075.24
463.522	11003.57
463.727	10819.25
463.932	10915.5
464.138	10632.88
464.343	10782.38
464.549	10333.88
464.754	10653.36
464.959	10575.54
465.165	10712.75
465.37	10045.12
465.575	9875.13
465.781	10456.76
465.986	10323.64
466.191	10073.79
466.397	9803.46
466.602	9201.35
466.807	9709.25
467.012	9785.02
467.218	9731.78
467.423	9508.55
467.628	9682.63
467.833	9979.58
468.038	9328.33
468.244	9438.92
468.449	9635.52
468.654	9354.95
468.859	9250.5
469.064	9211.59
469.269	8756.94
469.474	9041.61
469.679	9225.93
469.885	8885.97
470.09	9004.75
470.295	8965.84
470.5	8660.69
470.705	8722.13
470.91	8480.47
471.115	8459.99
471.32	8546
471.525	8662.74
471.73	8572.63
471.935	8339.16
472.139	7853.79
472.344	8036.06
472.549	8091.35
472.754	8089.31
472.959	7802.59
473.164	7595.75
473.369	7747.3
473.574	7843.55
473.778	7804.64
473.983	7614.18
474.188	7421.67
474.393	7292.65
474.598	7337.7
474.802	7157.48
475.007	7126.76
475.212	7141.1
475.417	6993.64
475.621	7089.9
475.826	7065.32
476.031	7044.84
476.235	6893.29
476.44	6932.2
476.645	6766.32
476.849	6762.22
477.054	6594.29
477.259	6672.11
477.463	6455.03
477.668	6323.96
477.872	6504.18
478.077	6352.63
478.282	6209.27
478.486	6305.53
478.691	6166.26
478.895	6219.51
479.1	6000.38
479.304	6072.06
479.509	5949.18
479.713	6076.15
479.918	5848.83
480.122	5883.64
480.326	5871.36
480.531	5973.75
480.735	5814.01
480.94	5594.88
481.144	5959.42
481.348	5586.69
481.553	5652.22
481.757	5609.22
481.961	5648.13
482.166	5717.76
482.37	5711.61
482.574	5521.15
482.778	5609.22
482.983	5684.99
483.187	5635.84
483.391	5615.36
483.595	5598.98
483.8	5568.26
484.004	5635.84
484.208	5728
484.412	5641.98
484.616	5576.45
484.821	5535.49
485.025	5605.12
485.229	5551.87
485.433	5660.41
485.637	5680.89
485.841	5461.76
486.045	5529.34
486.249	5752.57
486.453	5359.36
486.657	5627.65
486.861	5584.64
487.065	5551.87
487.269	5463.81
487.473	5582.59
487.677	5644.03
487.881	5648.13
488.085	5633.79
488.289	5553.92
488.493	5498.63
488.697	5693.18
488.901	5631.74
489.105	5590.78
489.309	5506.82
489.512	5728
489.716	5549.82
489.92	5605.12
490.124	5779.2
490.328	5750.53
490.531	5748.48
490.735	5664.51
490.939	5668.61
491.143	5844.73
491.346	5652.22
491.55	5973.75
491.754	5836.54
491.958	5867.26
492.161	5781.25
492.365	6039.29
492.569	5777.15
492.772	6045.43
492.976	6139.64
493.18	6059.77
493.383	6045.43
493.587	6006.52
493.79	5949.18
493.994	6127.35
494.197	6070.01
494.401	6039.29
494.605	6311.67
494.808	6332.15
495.012	6262.52
495.215	6346.48
495.419	6487.79
495.622	6326
495.825	6416.12
496.029	6412.02
496.232	6594.29
496.436	6545.14
496.639	6731.5
496.843	6678.26
497.046	6803.18
497.249	7012.07
497.453	7202.54
497.656	7151.34
497.859	6901.48
498.063	7012.07
498.266	7198.44
498.469	7278.31
498.673	7284.45
498.876	7526.11
499.079	7513.83
499.282	7648.99
499.485	7735.01
499.689	7581.41
499.892	7821.02
500.095	7708.38
500.298	7837.41
500.501	7945.95
500.705	8290.01
500.908	8244.95
501.111	8247
501.314	8568.53
501.517	8365.78
501.72	8572.63
501.923	8658.64
502.126	8875.73
502.329	8908.49
502.532	8947.4
502.735	9111.24
502.938	9203.4
503.141	9166.54
503.344	9469.64
503.547	9516.74
503.75	9504.45
503.953	9656
504.156	9766.59
504.359	9735.87
504.562	9768.64
504.765	10094.27
504.968	10139.32
505.17	10208.95
505.373	10221.24
505.576	10641.07
505.779	10704.56
505.982	10757.81
506.185	10946.22
506.387	10927.79
506.59	10972.85
506.793	10946.22
506.996	11062.96
507.198	11642.53
507.401	11402.92
507.604	11615.91
507.807	11783.84
508.009	11970.21
508.212	11769.51
508.415	12039.84
508.617	12244.63
508.82	12132
509.022	12437.14
509.225	12543.64
509.428	12824.21
509.63	12715.67
509.833	12779.15
510.035	13100.69
510.238	13010.57
510.44	13129.36
510.643	13319.82
510.845	13469.32
511.048	13522.57
511.25	13569.67
511.453	13780.61
511.655	14399.1
511.858	13993.6
512.06	14274.17
512.262	14513.78
512.465	14331.51
512.667	14640.76
512.87	14978.67
513.072	14694.01
513.274	14964.34
513.477	15312.49
513.679	15218.29
513.881	15826.53
514.084	15672.93
514.286	15642.21
514.488	15988.32
514.69	16166.49
514.893	16047.71
515.095	16549.46
515.297	16506.46
515.499	16557.66
515.701	16868.95
515.904	16948.82
516.106	17200.72
516.308	17526.35
516.51	17471.05
516.712	17610.31
516.914	17659.46
517.116	18173.5
517.318	18042.43
517.52	17935.94
517.722	18021.95
517.925	18318.91
518.127	18495.04
518.329	18718.26
518.531	18654.78
518.733	19013.17
518.935	19248.69
519.136	19367.47
519.338	19453.48
519.54	19805.74
519.742	19650.09
519.944	19527.21
520.146	20244
520.348	20356.64
520.55	20360.73
520.752	20403.74
520.954	20813.34
521.155	20463.13
521.357	21044.76
521.559	21112.34
521.761	21288.46
521.963	21534.22
522.164	21472.78
522.366	21909
522.568	22128.13
522.77	21954.05
522.971	22365.7
523.173	22060.55
523.375	22601.21
523.576	22396.42
523.778	22531.58
523.98	23090.68
524.181	22963.7
524.383	22844.92
524.584	23272.95
524.786	23467.5
524.988	23315.95
525.189	23389.68
525.391	23657.96
525.592	23821.8
525.794	23858.67
525.995	24026.6
526.197	24329.7
526.398	24016.36
526.6	24278.5
526.801	24548.83
527.003	24651.23
527.204	24477.15
527.406	24847.83
527.607	24509.92
527.808	25120.21
528.01	24638.94
528.211	24798.68
528.412	25415.12
528.614	25169.37
528.815	25312.72
529.016	25484.75
529.218	25128.41
529.419	25337.3
529.62	25732.56
529.822	25245.14
530.023	25417.17
530.224	25609.68
530.425	25437.65
530.626	25628.11
530.828	25501.14
531.029	26015.18
531.23	25617.87
531.431	25556.43
531.632	25869.77
531.833	26174.92
532.035	26244.55
532.236	26179.01
532.437	25963.98
532.638	25918.92
532.839	26256.84
533.04	26398.15
533.241	25931.21
533.442	26674.62
533.643	26488.26
533.844	26418.63
534.045	26473.92
534.246	26068.42
534.447	26402.24
534.648	26463.68
534.849	26320.32
535.05	26211.78
535.251	26432.96
535.451	26156.49
535.652	26711.49
535.853	26578.37
536.054	26451.39
536.255	26721.73
536.456	26641.85
536.657	26834.36
536.857	26385.86
537.058	26639.81
537.259	26512.83
537.46	26580.42
537.66	26643.9
537.861	26553.79
538.062	26529.22
538.263	26754.49
538.463	26566.08
538.664	26578.37
538.865	26611.14
539.065	26617.28
539.266	26615.23
539.466	26887.61
539.667	26394.05
539.868	26803.64
540.068	26582.46
540.269	26738.11
540.469	26627.52
540.67	26367.43
540.87	26529.22
541.071	26860.99
541.271	26727.87
541.472	26805.69
541.672	26473.92
541.873	26514.88
542.073	26088.9
542.274	26586.56
542.474	26473.92
542.675	26361.28
542.875	26914.23
543.075	26869.18
543.276	26248.64
543.476	26598.85
543.676	26625.47
543.877	26654.14
544.077	26572.22
544.277	26488.26
544.478	26478.02
544.678	26576.32
544.878	26449.35
545.078	26674.62
545.279	26242.5
545.479	26328.52
545.679	26650.05
545.879	26533.31
546.079	26553.79
546.28	26314.18
546.48	26201.54
546.68	26631.61
546.88	26566.08
547.08	26662.33
547.28	26607.04
547.48	26131.91
547.68	26281.41
547.88	26113.48
548.081	26535.36
548.281	26432.96
548.481	26252.74
548.681	26549.7
548.881	26518.98
549.081	26314.18
549.28	26531.26
549.48	26564.03
549.68	26531.26
549.88	26813.88
550.08	26170.82
550.28	26545.6
550.48	26279.36
550.68	26641.85
550.88	26082.76
551.08	26316.23
551.279	26514.88
551.479	26037.7
551.679	26590.66
551.879	26461.63
552.079	26535.36
552.278	26142.15
552.478	26101.19
552.678	26105.29
552.878	26174.92
553.077	25935.31
553.277	26074.57
553.477	26392
553.676	25931.21
553.876	26181.06
554.076	26203.59
554.275	26387.91
554.475	25861.58
554.674	26318.28
554.874	26136.01
555.074	26058.18
555.273	25662.93
555.473	26105.29
555.672	25927.11
555.872	25994.7
556.071	26281.41
556.271	26047.94
556.47	25806.28
556.67	25585.1
556.869	25632.21
557.068	25972.17
557.268	25816.52
557.467	26105.29
557.667	25578.96
557.866	25771.47
558.065	25634.25
558.265	25802.19
558.464	25492.94
558.663	25941.45
558.863	25617.87
559.062	25892.3
559.261	25413.07
559.461	25681.36
559.66	25300.44
559.859	25374.16
560.058	25312.72
560.258	25300.44
560.457	25310.68
560.656	25376.21
560.855	25185.75
561.054	25273.81
561.253	24937.94
561.453	25056.73
561.652	24933.85
561.851	25460.18
562.05	25118.17
562.249	24915.42
562.448	25503.18
562.647	25071.06
562.846	24903.13
563.045	24899.03
563.244	24518.11
563.443	25064.92
563.642	24892.89
563.841	24653.28
564.04	24442.34
564.239	24792.54
564.438	24475.1
564.637	24538.59
564.836	24587.74
565.035	24380.9
565.234	24344.03
565.432	24133.09
565.631	24077.8
565.83	24276.45
566.029	24116.71
566.228	23889.38
566.427	23993.83
566.625	23920.1
566.824	23590.38
567.023	24118.76
567.222	23774.7
567.42	24024.55
567.619	23617
567.818	23873
568.016	23379.44
568.215	23672.3
568.414	23301.62
568.612	23606.77
568.811	23520.75
569.01	23428.59
569.208	23219.7
569.407	23299.57
569.605	23248.37
569.804	23547.37
570.002	23049.72
570.201	23193.08
570.4	23029.24
570.598	22648.32
570.797	22734.33
570.995	22967.8
571.193	22408.7
571.392	22752.76
571.59	22730.23
571.789	22593.02
571.987	22394.37
572.186	22466.05
572.384	22261.25
572.582	22488.57
572.781	22513.15
572.979	22009.35
573.177	22085.12
573.376	22322.69
573.574	22119.94
573.772	22074.88
573.971	21880.33
574.169	21884.42
574.367	21909
574.565	21831.18
574.763	21718.54
574.962	21612.04
575.16	21669.39
575.358	21763.59
575.556	21257.74
575.754	21556.75
575.952	21435.92
576.151	21626.38
576.349	20899.35
576.547	21323.28
576.745	21335.57
576.943	21106.2
577.141	21104.15
577.339	21204.5
577.537	21112.34
577.735	20506.14
577.933	21098
578.131	20991.51
578.329	20565.53
578.527	20708.89
578.725	20760.09
578.923	20815.38
579.121	20510.24
579.319	20344.35
579.516	20633.11
579.714	20409.89
579.912	20479.52
580.11	20485.66
580.308	20436.51
580.506	20155.94
580.704	19639.85
580.901	20307.49
581.099	20307.49
581.297	19875.37
581.495	19965.48
581.692	19947.04
581.89	19697.19
582.088	19988
582.285	19738.15
582.483	19717.67
582.681	19590.7
582.878	19676.71
583.076	19471.92
583.274	19621.42
583.471	19230.26
583.669	19322.41
583.866	19566.12
584.064	19459.63
584.262	19107.38
584.459	19310.13
584.657	19111.47
584.854	19142.19
585.052	18787.89
585.249	19009.08
585.447	19033.65
585.644	18763.32
585.841	18884.15
586.039	19025.46
586.236	18527.8
586.434	18535.99
586.631	18845.24
586.828	18409.02
587.026	18429.5
587.223	18648.63
587.42	18449.98
587.618	18355.77
587.815	18277.95
588.012	18267.71
588.21	17876.55
588.407	18200.13
588.604	18040.39
588.801	18040.39
588.999	17993.28
589.196	18136.64
589.393	17792.58
589.59	18015.81
589.787	17688.14
589.984	17788.49
590.182	17653.32
590.379	17696.33
590.576	17505.87
590.773	17503.82
590.97	17389.13
591.167	17565.26
591.364	17466.95
591.561	17426
591.758	17280.59
591.955	17122.9
592.152	17258.06
592.349	17227.34
592.546	17118.8
592.743	17272.4
592.94	17024.59
593.137	16995.92
593.334	16887.38
593.531	16588.38
593.727	17016.4
593.924	16643.67
594.121	16457.31
594.318	16995.92
594.515	16617.05
594.712	16815.7
594.908	16518.75
595.105	16404.06
595.302	16311.9
595.499	16166.49
595.696	16483.93
595.892	16184.93
596.089	16217.69
596.286	16162.4
596.482	16223.84
596.679	16123.49
596.876	16105.06
597.072	15851.11
597.269	15967.84
597.466	15976.03
597.662	15615.59
597.859	15830.63
598.055	15881.83
598.252	15724.13
598.448	15662.69
598.645	15627.88
598.841	15427.18
599.038	15527.53
599.234	15623.78
599.431	15400.55
599.627	15500.9
599.824	15328.88
600.02	15021.68
600.217	15312.49
600.413	15156.85
600.609	15206
600.806	15136.37
601.002	14904.95
601.198	15019.63
601.395	14986.86
601.591	14909.04
601.787	14993.01
601.984	14775.92
602.18	15023.73
602.376	14966.38
602.572	14749.3
602.769	14544.5
602.965	14462.58
603.161	14827.12
603.357	14345.85
603.553	14263.93
603.75	14433.91
603.946	14261.88
604.142	14421.63
604.338	14124.67
604.534	14290.56
604.73	14108.29
604.926	14220.92
605.122	14222.97
605.318	14077.57
605.514	14065.28
605.71	13987.46
605.906	13821.57
606.102	13891.2
606.298	13866.63
606.494	13799.04
606.69	14016.13
606.886	13966.98
607.082	13774.47
607.278	13995.65
607.474	13680.26
607.67	13686.4
607.866	13653.64
608.062	13534.85
608.257	13608.58
608.453	13514.38
608.649	13616.77
608.845	13381.26
609.041	13393.54
609.236	13340.3
609.432	13246.09
609.628	13297.29
609.824	13450.89
610.019	13311.63
610.215	13082.25
610.411	13024.91
610.606	13065.87
610.802	13184.65
610.998	13047.44
611.193	13074.06
611.389	12959.38
611.584	13069.97
611.78	13137.55
611.976	13000.33
612.171	12988.05
612.367	12971.66
612.562	12779.15
612.758	12746.39
612.953	12781.2
613.149	12949.14
613.344	12953.23
613.539	12820.11
613.735	12547.73
613.93	12590.74
614.126	12500.63
614.321	12893.84
614.517	12529.3
614.712	12664.47
614.907	12408.47
615.103	12359.32
615.298	12318.36
615.493	12713.62
615.688	12152.48
615.884	12783.25
616.079	12406.42
616.274	12662.42
616.47	12392.09
616.665	12365.46
616.86	12394.14
617.055	12234.39
617.25	12283.55
617.445	12469.91
617.641	12228.25
617.836	12447.38
618.031	11929.25
618.226	12228.25
618.421	11962.01
618.616	12105.37
618.811	12005.02
619.006	11951.77
619.201	11843.23
619.396	11904.67
619.591	11581.09
619.786	11652.77
619.981	11706.02
620.176	11798.18
620.371	11562.66
620.566	11638.44
620.761	11585.19
620.956	11562.66
621.151	11355.82
621.346	11577
621.541	11351.72
621.735	11404.97
621.93	11142.83
622.125	11046.57
622.32	11183.79
622.515	10929.84
622.709	10882.74
622.904	11062.96
623.099	10774.19
623.294	11069.1
623.488	10819.25
623.683	10790.58
623.878	10583.73
624.072	10669.75
624.267	10393.27
624.462	10454.71
624.656	10337.98
624.851	10495.67
625.046	10415.8
625.24	10225.34
625.435	10225.34
625.629	10352.31
625.824	10213.05
626.018	10145.47
626.213	9969.34
626.407	10010.3
626.602	9875.13
626.796	9989.82
626.991	9772.74
627.185	9649.86
627.38	9936.57
627.574	9754.3
627.768	9500.36
627.963	9619.14
628.157	9541.32
628.352	9549.51
628.546	9363.14
628.74	9486.02
628.935	9232.07
629.129	9187.02
629.323	9238.22
629.517	9088.71
629.712	9133.77
629.906	8928.97
630.1	8722.13
630.294	9119.43
630.489	8775.38
630.683	9006.8
630.877	8589.01
631.071	8787.66
631.265	8756.94
631.459	8650.45
631.653	8609.49
631.848	8658.64
632.042	8613.59
632.236	8519.38
632.43	8607.44
632.624	8232.66
632.818	8552.15
633.012	8261.34
633.206	8353.49
633.4	8371.93
633.594	8283.86
633.788	8304.34
633.982	8201.94
634.176	8169.18
634.369	8165.08
634.563	7771.87
634.757	8001.24
634.951	8054.49
635.145	8128.22
635.339	7919.32
635.533	7907.04
635.726	7835.36
635.92	7581.41
636.114	7646.94
636.308	7519.97
636.501	7532.26
636.695	7577.31
636.889	7409.38
637.083	7608.03
637.276	7532.26
637.47	7362.28
637.664	7444.2
637.857	7341.8
638.051	7253.73
638.244	7249.64
638.438	7167.72
638.632	7036.65
638.825	7114.47
639.019	7073.51
639.212	7061.23
639.406	7026.41
639.599	7061.23
639.793	7040.75
639.986	6962.92
640.18	6905.58
640.373	6919.92
640.567	6684.4
640.76	6745.84
640.954	6764.27
641.147	6907.63
641.34	6641.39
641.534	6686.45
641.727	6721.26
641.92	6549.23
642.114	6645.49
642.307	6536.95
642.5	6538.99
642.694	6354.68
642.887	6571.76
643.08	6381.3
643.273	6217.46
643.467	6362.87
643.66	6409.97
643.853	6289.14
644.046	6076.15
644.239	6270.71
644.432	6063.86
644.626	6203.13
644.819	6086.39
645.012	6051.58
645.205	6016.76
645.398	6143.74
645.591	5932.79
645.784	5922.55
645.977	5658.37
646.17	5854.97
646.363	5904.12
646.556	5797.63
646.749	5619.46
646.942	5762.81
647.135	5631.74
647.328	5617.41
647.521	5654.27
647.714	5588.74
647.907	5627.65
648.099	5517.06
648.292	5578.5
648.485	5558.02
648.678	5318.4
648.871	5478.15
649.064	5342.98
649.256	5273.35
649.449	5349.12
649.642	5244.68
649.835	5285.64
650.027	5299.97
650.22	5093.13
650.413	5297.92
650.605	5183.24
650.798	5089.03
650.991	5111.56
651.183	5146.37
651.376	5031.69
651.568	5005.06
651.761	4937.48
651.954	5005.06
652.146	5095.18
652.339	5173
652.531	4849.42
652.724	4939.53
652.916	4767.5
653.109	4740.88
653.301	4863.76
653.494	4910.86
653.686	4798.22
653.879	4835.08
654.071	4665.1
654.263	4890.38
654.456	4714.25
654.648	4726.54
654.84	4577.04
655.033	4564.75
655.225	4624.14
655.417	4564.75
655.61	4628.24
655.802	4499.22
655.994	4478.74
656.186	4706.06
656.379	4343.57
656.571	4476.69
656.763	4574.99
656.955	4392.72
657.148	4388.63
657.34	4185.88
657.532	4374.29
657.724	4273.94
657.916	4136.73
658.108	4097.81
658.3	4101.91
658.492	4171.54
658.684	4183.83
658.876	4046.62
659.068	4128.53
659.26	4187.93
659.452	4075.29
659.644	4132.63
659.836	4126.49
660.028	3999.51
660.22	4034.33
660.412	4063
660.604	3962.65
660.796	3893.02
660.988	3856.15
661.18	3936.03
661.372	3893.02
661.563	3905.31
661.755	3948.31
661.947	3899.16
662.139	3933.98
662.331	3782.43
662.522	3831.58
662.714	3753.76
662.906	3755.8
663.097	3612.45
663.289	3714.84
663.481	3628.83
663.673	3569.44
663.864	3571.49
664.056	3626.78
664.247	3526.43
664.439	3546.91
664.631	3604.25
664.822	3444.51
665.014	3612.45
665.205	3452.7
665.397	3454.75
665.588	3460.9
665.78	3581.73
665.971	3505.95
666.163	3475.23
666.354	3432.22
666.546	3462.94
666.737	3421.99
666.929	3368.74
667.12	3288.87
667.311	3348.26
667.503	3311.39
667.694	3340.07
667.885	3260.2
668.077	3262.24
668.268	3196.71
668.459	3225.38
668.651	3313.44
668.842	3135.27
669.033	3102.5
669.224	3235.62
669.416	3292.96
669.607	3176.23
669.798	3122.98
669.989	3200.8
670.18	3198.76
670.371	3170.08
670.563	3092.26
670.754	3014.44
670.945	3106.6
671.136	3133.22
671.327	3073.83
671.518	2969.38
671.709	3047.21
671.9	2912.04
672.091	3014.44
672.282	3082.02
672.473	2912.04
672.664	2965.29
672.855	3063.59
673.046	2985.77
673.237	3004.2
673.428	2973.48
673.619	3065.64
673.809	2799.4
674	2998.06
674.191	2991.91
674.382	2826.03
674.573	2965.29
674.764	2909.99
674.954	2932.52
675.145	3036.97
675.336	2826.03
675.527	2795.31
675.717	2883.37
675.908	2823.98
676.099	2850.6
676.289	2807.59
676.48	2842.41
676.671	2836.27
676.861	2858.79
677.052	2764.59
677.243	2823.98
677.433	2721.58
677.624	2803.5
677.814	2690.86
678.005	2858.79
678.195	2682.67
678.386	2705.2
678.576	2836.27
678.767	2821.93
678.957	2617.13
679.148	2676.52
679.338	2752.3
679.529	2764.59
679.719	2795.31
679.909	2819.88
680.1	2690.86
680.29	2688.81
680.481	2682.67
680.671	2737.96
680.861	2776.87
681.052	2750.25
681.242	2602.8
681.432	2633.52
681.622	2666.28
681.813	2658.09
682.003	2643.76
682.193	2576.17
682.383	2596.65
682.573	2543.41
682.764	2594.61
682.954	2613.04
683.144	2559.79
683.334	2567.98
683.524	2608.94
683.714	2633.52
683.904	2643.76
684.094	2582.32
684.284	2608.94
684.474	2481.97
684.664	2576.17
684.854	2645.8
685.044	2496.3
685.234	2447.15
685.424	2492.21
685.614	2561.84
685.804	2621.23
685.994	2561.84
686.184	2584.37
686.374	2537.26
686.564	2510.64
686.753	2465.58
686.943	2418.48
687.133	2408.24
687.323	2385.71
687.513	2469.68
687.702	2434.86
687.892	2365.23
688.082	2477.87
688.272	2420.53
688.461	2445.1
688.651	2400.05
688.841	2326.32
689.03	2250.55
689.22	2311.99
689.41	2297.65
689.599	2309.94
689.789	2330.42
689.979	2342.71
690.168	2299.7
690.358	2174.77
690.547	2127.67
690.737	2180.92
690.926	2268.98
691.116	2172.72
691.305	2201.4
691.495	2158.39
691.684	2346.8
691.874	2076.47
692.063	2092.85
692.252	2203.44
692.442	2144.05
692.631	2119.48
692.82	2127.67
693.01	2123.57
693.199	2178.87
693.388	2099
693.578	2006.84
693.767	2148.15
693.956	2115.38
694.146	2162.48
694.335	2105.14
694.524	2084.66
694.713	2064.18
694.902	2043.7
695.092	2139.96
695.281	2015.03
695.47	2010.93
695.659	1963.83
695.848	2123.57
696.037	2037.56
696.226	2062.13
696.415	1982.26
696.604	1937.21
696.793	2035.51
696.982	1998.65
697.171	2000.69
697.36	1988.41
697.549	1908.54
697.738	1926.97
697.927	1967.93
698.116	1965.88
698.305	2045.75
698.494	1890.1
698.683	1914.68
698.872	1926.97
699.061	1935.16
699.25	1965.88
699.438	1910.58
699.627	1908.54
699.816	1933.11
700.005	1943.35
700.193	1945.4
700.382	1998.65
700.571	1974.07
700.76	1898.3
700.948	1963.83
701.137	1929.02
701.326	1863.48
701.514	1929.02
701.703	1990.45
701.892	1888.06
702.08	1933.11
702.269	1904.44
702.457	1881.91
702.646	1877.82
702.834	1828.67
703.023	1935.16
703.212	1853.24
703.4	1918.78
703.589	1914.68
703.777	1912.63
703.965	1926.97
704.154	2015.03
704.342	1920.82
704.531	1881.91
704.719	1869.62
704.907	1963.83
705.096	1910.58
705.284	1863.48
705.472	1969.98
705.661	1924.92
705.849	1898.3
706.037	1941.3
706.226	1767.23
706.414	1902.39
706.602	1949.5
706.79	1799.99
706.979	1924.92
707.167	2039.61
707.355	1832.76
707.543	1969.98
707.731	1883.96
707.919	1910.58
708.107	1838.91
708.296	1933.11
708.484	1826.62
708.672	1822.52
708.86	1818.43
709.048	1775.42
709.236	1873.72
709.424	1922.87
709.612	1972.02
709.8	1853.24
709.988	1890.1
710.176	1834.81
710.364	1922.87
710.551	1873.72
710.739	1861.43
710.927	1861.43
711.115	1836.86
711.303	1918.78
711.491	1845.05
711.679	1967.93
711.866	1949.5
712.054	1851.19
712.242	1873.72
712.43	2033.46
712.617	1918.78
712.805	1912.63
712.993	2017.08
713.181	1890.1
713.368	1804.09
713.556	1920.82
713.744	1806.14
713.931	1849.15
714.119	2006.84
714.306	1902.39
714.494	1828.67
714.682	1867.58
714.869	1972.02
715.057	1881.91
715.244	1890.1
715.432	1914.68
715.619	1926.97
715.807	1906.49
715.994	1961.78
716.182	1867.58
716.369	1879.86
716.556	1924.92
716.744	1879.86
716.931	1840.95
717.119	1851.19
717.306	1877.82
717.493	1894.2
717.681	1855.29
717.868	2010.93
718.055	1931.06
718.242	1836.86
718.43	1924.92
718.617	1924.92
718.804	1873.72
718.991	1937.21
719.179	1978.17
719.366	1943.35
719.553	1904.44
719.74	1941.3
719.927	1955.64
720.114	2004.79
720.301	1869.62
720.488	1888.06
720.676	1935.16
720.863	2027.32
721.05	1937.21
721.237	1951.54
721.424	1982.26
721.611	1912.63
721.798	1875.77
721.985	1888.06
722.172	2006.84
722.358	1799.99
722.545	2025.27
722.732	1896.25
722.919	1900.34
723.106	1875.77
723.293	1896.25
723.48	1961.78
723.667	1793.85
723.853	1912.63
724.04	1996.6
724.227	1875.77
724.414	1900.34
724.6	1875.77
724.787	1873.72
724.974	1935.16
725.161	1767.23
725.347	1892.15
725.534	1865.53
725.72	1859.38
725.907	1949.5
726.094	2002.74
726.28	1797.95
726.467	1836.86
726.653	1888.06
726.84	1980.22
727.027	1855.29
727.213	1859.38
727.4	1896.25
727.586	1877.82
727.773	1802.04
727.959	1881.91
728.145	1826.62
728.332	1933.11
728.518	1969.98
728.705	1969.98
728.891	1953.59
729.077	1869.62
729.264	1879.86
729.45	1978.17
729.636	1969.98
729.823	1877.82
730.009	1832.76
730.195	1965.88
730.382	1998.65
730.568	1861.43
730.754	1922.87
730.94	1978.17
731.126	1883.96
731.313	1787.71
731.499	1916.73
731.685	1974.07
731.871	1869.62
732.057	1916.73
732.243	1898.3
732.429	1978.17
732.615	1910.58
732.801	1974.07
732.987	1879.86
733.173	1834.81
733.359	1914.68
733.545	1929.02
733.731	1881.91
733.917	1926.97
734.103	1886.01
734.289	1873.72
734.475	1849.15
734.661	1937.21
734.847	2015.03
735.033	1900.34
735.219	1904.44
735.404	1787.71
735.59	1812.28
735.776	1931.06
735.962	1896.25
736.148	1933.11
736.333	1998.65
736.519	1771.32
736.705	1890.1
736.89	1830.71
737.076	1969.98
737.262	1703.74
737.447	1826.62
737.633	1814.33
737.819	1728.31
738.004	1793.85
738.19	1820.47
738.375	1742.65
738.561	1787.71
738.747	1828.67
738.932	1705.79
739.118	1810.23
739.303	1810.23
739.489	1734.46
739.674	1750.84
739.859	1779.51
740.045	1777.47
740.23	1767.23
740.416	1716.03
740.601	1656.64
740.786	1797.95
740.972	1834.81
741.157	1771.32
741.342	1634.11
741.528	1730.36
741.713	1722.17
741.898	1617.72
742.084	1703.74
742.269	1718.08
742.454	1675.07
742.639	1668.92
742.824	1677.12
743.01	1738.55
743.195	1730.36
743.38	1679.16
743.565	1691.45
743.75	1574.72
743.935	1570.62
744.12	1744.7
744.305	1541.95
744.49	1664.83
744.675	1617.72
744.86	1595.2
745.045	1644.35
745.23	1599.29
745.415	1564.48
745.6	1625.92
745.785	1537.85
745.97	1568.57
746.155	1488.7
746.34	1460.03
746.525	1406.78
746.71	1529.66
746.895	1433.41
747.079	1519.42
747.264	1525.57
747.449	1527.61
747.634	1380.16
747.819	1478.46
748.003	1474.37
748.188	1427.26
748.373	1470.27
748.557	1457.98
748.742	1464.13
748.927	1412.93
749.111	1439.55
749.296	1398.59
749.481	1398.59
749.665	1460.03
749.85	1384.26
750.034	1273.67
750.219	1347.39
750.404	1384.26
750.588	1339.2
750.773	1423.17
750.957	1259.33
751.141	1331.01
751.326	1283.91
751.51	1349.44
751.695	1292.1
751.879	1263.43
752.064	1281.86
752.248	1275.71
752.432	1220.42
752.617	1226.56
752.801	1269.57
752.985	1232.71
753.17	1310.53
753.354	1177.41
753.538	1214.27
753.722	1206.08
753.907	1173.32
754.091	1107.78
754.275	1197.89
754.459	1093.44
754.643	1148.74
754.828	1212.23
755.012	1156.93
755.196	1195.84
755.38	1230.66
755.564	1140.55
755.748	1124.16
755.932	1077.06
756.116	1036.1
756.3	1115.97
756.484	1132.36
756.668	1048.39
756.852	1048.39
757.036	1040.2
757.22	1048.39
757.404	1032.01
757.588	1038.15
757.772	1070.92
757.956	1042.25
758.14	945.99
758.323	952.13
758.507	1003.33
758.691	966.47
758.875	978.76
759.059	997.19
759.242	954.18
759.426	978.76
759.61	950.09
759.794	945.99
759.977	933.7
760.161	917.32
760.345	948.04
760.528	909.13
760.712	917.32
760.895	839.5
761.079	896.84
761.263	833.35
761.446	911.18
761.63	835.4
761.813	902.98
761.997	909.13
762.18	913.22
762.364	927.56
762.547	833.35
762.731	804.68
762.914	886.6
763.098	755.53
763.281	896.84
763.464	733
763.648	788.3
763.831	845.64
764.015	876.36
764.198	902.98
764.381	814.92
764.564	751.43
764.748	812.87
764.931	853.83
765.114	814.92
765.297	802.63
765.481	726.86
765.664	851.78
765.847	771.91
766.03	790.35
766.213	718.67
766.397	784.2
766.58	804.68
766.763	739.15
766.946	722.76
767.129	825.16
767.312	735.05
767.495	761.67
767.678	735.05
767.861	782.15
768.044	712.52
768.227	683.85
768.41	771.91
768.593	802.63
768.776	663.37
768.959	675.66
769.142	749.39
769.324	741.19
769.507	702.28
769.69	603.98
769.873	724.81
770.056	726.86
770.239	685.9
770.421	739.15
770.604	784.2
770.787	704.33
770.97	630.6
771.152	718.67
771.335	700.23
771.518	671.56
771.7	563.02
771.883	665.42
772.066	563.02
772.248	722.76
772.431	634.7
772.613	628.56
772.796	704.33
772.978	694.09
773.161	685.9
773.343	515.92
773.526	636.75
773.708	718.67
773.891	558.92
774.073	593.74
774.256	513.87
774.438	700.23
774.621	681.8
774.803	653.13
774.985	622.41
775.168	606.03
775.35	517.97
775.532	550.73
775.715	534.35
775.897	575.31
776.079	507.73
776.261	550.73
776.444	583.5
776.626	614.22
776.808	464.72
776.99	540.49
777.173	524.11
777.355	485.2
777.537	558.92
777.719	458.57
777.901	528.21
778.083	520.01
778.265	382.8
778.447	567.12
778.629	481.1
778.811	458.57
778.993	511.82
779.175	493.39
779.357	499.53
779.539	532.3
779.721	448.33
779.903	470.86
780.085	464.72
780.267	493.39
780.449	440.14
780.631	474.96
780.812	472.91
780.994	421.71
781.176	431.95
781.358	390.99
781.54	411.47
781.721	499.53
781.903	456.53
782.085	450.38
782.267	497.49
782.448	411.47
782.63	380.75
782.812	485.2
782.993	427.85
783.175	491.34
783.357	370.51
783.538	388.94
783.72	360.27
783.901	370.51
784.083	370.51
784.264	382.8
784.446	366.42
784.627	317.26
784.809	370.51
784.99	341.84
785.172	370.51
785.353	345.94
785.535	374.61
785.716	354.13
785.897	368.46
786.079	339.79
786.26	311.12
786.441	288.59
786.623	368.46
786.804	388.94
786.985	378.7
787.167	339.79
787.348	403.28
787.529	329.55
787.71	343.89
787.891	313.17
788.073	358.22
788.254	282.45
788.435	347.98
788.616	345.94
788.797	307.02
788.978	280.4
789.159	257.87
789.34	282.45
789.522	325.46
789.703	182.1
789.884	321.36
790.065	296.78
790.246	323.41
790.427	233.3
790.607	278.35
790.788	272.21
790.969	229.2
791.15	323.41
791.331	272.21
791.512	302.93
791.693	198.48
791.874	235.35
792.054	288.59
792.235	221.01
792.416	261.97
792.597	173.91
792.778	243.54
792.958	239.44
793.139	210.77
793.32	261.97
793.5	251.73
793.681	278.35
793.862	171.86
794.042	225.11
794.223	257.87
794.404	190.29
794.584	182.1
794.765	274.26
794.945	233.3
795.126	202.58
795.306	221.01
795.487	204.63
795.667	255.83
795.848	229.2
796.028	208.72
796.209	175.95
796.389	253.78
796.57	231.25
796.75	225.11
796.93	173.91
797.111	253.78
797.291	180.05
797.471	182.1
797.652	196.43
797.832	151.38
798.012	216.91
798.192	214.87
798.373	237.39
798.553	204.63
798.733	249.68
798.913	132.95
799.093	182.1
799.274	247.63
799.454	122.71
799.634	210.77
799.814	231.25
799.994	163.67
800.174	178
800.354	192.34
800.534	165.71
800.714	204.63
800.894	210.77
801.074	178
801.254	141.14
801.434	169.81
801.614	139.09
801.794	198.48
801.974	575.31
802.154	175.95
802.334	229.2
802.514	130.9
802.693	153.43
802.873	126.8
803.053	198.48
803.233	200.53
803.413	163.67
803.592	132.95
803.772	69.46
803.952	108.37
804.131	126.8
804.311	106.32
804.491	190.29
804.67	223.06
804.85	135
805.03	98.13
805.209	167.76
805.389	175.95
805.568	147.28
805.748	141.14
805.928	137.04
806.107	112.47
806.287	100.18
806.466	153.43
806.646	188.24
806.825	46.93
807.004	100.18
807.184	116.56
807.363	139.09
807.543	141.14
807.722	157.52
807.901	116.56
808.081	73.56
808.26	91.99
808.439	151.38
808.619	91.99
808.798	173.91
808.977	200.53
809.156	169.81
809.336	51.03
809.515	149.33
809.694	57.17
809.873	132.95
810.052	96.08
810.231	143.19
810.411	110.42
810.59	167.76
810.769	147.28
810.948	63.32
811.127	63.32
811.306	132.95
811.485	79.7
811.664	173.91
811.843	159.57
812.022	139.09
812.201	137.04
812.38	135
812.559	108.37
812.737	147.28
812.916	46.93
813.095	147.28
813.274	96.08
813.453	157.52
813.632	180.05
813.811	83.8
813.989	79.7
814.168	110.42
814.347	77.65
814.526	118.61
814.704	118.61
814.883	75.6
815.062	77.65
815.24	100.18
815.419	110.42
815.598	65.36
815.776	104.28
815.955	63.32
816.133	34.64
816.312	71.51
816.49	34.64
816.669	114.52
816.847	137.04
817.026	218.96
817.204	65.36
817.383	89.94
817.561	22.36
817.74	100.18
817.918	135
818.097	147.28
818.275	89.94
818.453	116.56
818.632	36.69
818.81	143.19
818.988	65.36
819.167	141.14
819.345	100.18
819.523	51.03
819.701	106.32
819.879	124.76
820.058	61.27
820.236	81.75
820.414	108.37
820.592	20.31
820.77	100.18
820.948	44.88
821.127	75.6
821.305	135
821.483	63.32
821.661	44.88
821.839	96.08
822.017	69.46
822.195	30.55
822.373	51.03
822.551	46.93
822.729	83.8
822.907	71.51
823.085	173.91
823.262	67.41
823.44	44.88
823.618	96.08
823.796	79.7
823.974	85.84
824.152	91.99
824.329	8.02
824.507	67.41
824.685	51.03
824.863	100.18
825.04	87.89
825.218	112.47
825.396	87.89
825.574	77.65
825.751	83.8
825.929	69.46
826.107	53.08
826.284	100.18
826.462	81.75
826.639	-18.6
826.817	34.64
826.994	34.64
827.172	-10.41
827.349	63.32
827.527	83.8
827.704	100.18
827.882	63.32
828.059	69.46
828.237	1.88
828.414	87.89
828.591	28.5
828.769	71.51
828.946	108.37
829.124	65.36
829.301	38.74
829.478	67.41
829.655	12.12
829.833	48.98
830.01	10.07
830.187	48.98
830.364	75.6
830.542	94.04
830.719	32.6
830.896	57.17
831.073	14.17
831.25	-18.6
831.427	65.36
831.604	22.36
831.782	63.32
831.959	20.31
832.136	-18.6
832.313	87.89
832.49	71.51
832.667	83.8
832.844	14.17
833.021	30.55
833.198	94.04
833.374	61.27
833.551	57.17
833.728	40.79
833.905	42.84
834.082	12.12
834.259	26.45
834.436	112.47
834.612	44.88
834.789	108.37
834.966	81.75
835.143	79.7
835.319	24.4
835.496	71.51
835.673	-34.99
835.85	34.64
836.026	122.71
836.203	85.84
836.38	81.75
836.556	42.84
836.733	-61.61
836.909	73.56
837.086	-34.99
837.262	38.74
837.439	-51.37
837.616	91.99
837.792	40.79
837.968	65.36
838.145	-24.75
838.321	44.88
838.498	75.6
838.674	85.84
838.851	-2.22
839.027	18.26
839.203	-2.22
839.38	34.64
839.556	-20.65
839.732	8.02
839.909	65.36
840.085	85.84
840.261	-4.27
840.437	48.98
840.614	-2.22
840.79	26.45
840.966	-10.41
841.142	26.45
841.318	26.45
841.494	5.97
841.671	55.12
841.847	91.99
842.023	24.4
842.199	-61.61
842.375	40.79
842.551	10.07
842.727	-24.75
842.903	65.36
843.079	5.97
843.255	38.74
843.431	46.93
843.607	-14.51
843.783	55.12
843.959	51.03
844.134	-22.7
844.31	137.04
844.486	34.64
844.662	-22.7
844.838	-30.89
845.013	1.88
845.189	10.07
845.365	71.51
845.541	-10.41
845.716	53.08
845.892	36.69
846.068	83.8
846.244	12.12
846.419	59.22
846.595	-10.41
846.77	18.26
846.946	36.69
847.122	22.36
847.297	16.21
847.473	94.04
847.648	-67.75
847.824	-2.22
847.999	-12.46
848.175	28.5
848.35	-49.32
848.526	34.64
848.701	-2.22
848.876	1.88
849.052	44.88
849.227	22.36
849.403	10.07
849.578	-16.55
849.753	46.93
849.929	44.88
850.104	-43.18
850.279	-12.46
850.454	32.6
850.63	53.08
850.805	36.69
850.98	-0.17
851.155	20.31
851.33	1.88
851.505	-14.51
851.681	-14.51
851.856	1.88
852.031	-10.41
852.206	-4.27
852.381	87.89
852.556	-43.18
852.731	-2.22
852.906	34.64
853.081	40.79
853.256	-4.27
853.431	42.84
853.606	-8.36
853.781	28.5
853.956	42.84
854.131	-14.51
854.305	-24.75
854.48	-41.13
854.655	30.55
854.83	-53.42
855.005	42.84
855.18	42.84
855.354	5.97
855.529	12.12
855.704	-34.99
855.879	-8.36
856.053	-34.99
856.228	16.21
856.403	-39.08
856.577	48.98
856.752	-100.52
856.926	-18.6
857.101	36.69
857.276	-2.22
857.45	-47.27
857.625	-49.32
857.799	3.93
857.974	-14.51
858.148	44.88
858.323	34.64
858.497	57.17
858.672	-26.79
858.846	-104.62
859.02	71.51
859.195	5.97
859.369	28.5
859.543	12.12
859.718	-16.55
859.892	-8.36
860.066	28.5
860.241	-30.89
860.415	-8.36
860.589	18.26
860.763	63.32
860.938	-8.36
861.112	48.98
861.286	20.31
861.46	53.08
861.634	16.21
861.808	-0.17
861.982	-22.7
862.157	-0.17
862.331	-47.27
862.505	-18.6
862.679	1.88
862.853	5.97
863.027	8.02
863.201	-14.51
863.375	-6.31
863.549	-22.7
863.722	-34.99
863.896	20.31
864.07	20.31
864.244	18.26
864.418	-22.7
864.592	18.26
864.766	-53.42
864.939	-12.46
865.113	16.21
865.287	51.03
865.461	-0.17
865.634	28.5
865.808	-22.7
865.982	-6.31
866.156	5.97
866.329	-43.18
866.503	-69.8
866.676	-26.79
866.85	-24.75
867.024	-6.31
867.197	24.4
867.371	26.45
867.544	1.88
867.718	-59.56
867.891	40.79
868.065	-32.94
868.238	-16.55
868.412	-14.51
868.585	51.03
868.759	22.36
868.932	20.31
869.105	55.12
869.279	59.22
869.452	-51.37
869.625	-41.13
869.799	-20.65
869.972	-37.03
870.145	51.03
870.319	8.02
870.492	-10.41
870.665	-49.32
870.838	-6.31
871.011	-10.41
871.185	110.42
871.358	5.97
871.531	65.36
871.704	3.93
871.877	-59.56
872.05	10.07
872.223	10.07
872.396	-24.75
872.569	-51.37
872.742	16.21
872.915	-37.03
873.088	32.6
873.261	-57.51
873.434	40.79
873.607	-12.46
873.78	46.93
873.953	-16.55
874.126	-22.7
874.299	-2.22
874.471	-6.31
874.644	-0.17
874.817	-45.23
874.99	14.17
875.163	-14.51
875.335	-51.37
875.508	-2.22
875.681	12.12
875.853	8.02
876.026	-39.08
876.199	-10.41
876.371	32.6
876.544	28.5
876.717	-94.38
876.889	-41.13
877.062	-14.51
877.234	1.88
877.407	-32.94
877.579	51.03
877.752	-57.51
877.924	34.64
878.097	-43.18
878.269	-67.75
878.442	85.84
878.614	-69.8
878.786	-0.17
878.959	51.03
879.131	24.4
879.303	-51.37
879.476	18.26
879.648	24.4
879.82	5.97
879.993	-4.27
880.165	40.79
880.337	-10.41
880.509	57.17
880.681	-20.65
880.854	-53.42
881.026	16.21
881.198	42.84
881.37	-22.7
881.542	14.17
881.714	-73.9
881.886	8.02
882.058	42.84
882.23	12.12
882.402	-53.42
882.574	-47.27
882.746	-8.36
882.918	-34.99
883.09	3.93
883.262	1.88
883.434	-2.22
883.606	5.97
883.778	-4.27
883.95	-4.27
884.122	-59.56
884.293	77.65
884.465	-10.41
884.637	83.8
884.809	14.17
884.98	36.69
885.152	32.6
885.324	-12.46
885.496	69.46
885.667	67.41
885.839	-2.22
886.011	-8.36
886.182	-18.6
886.354	-24.75
886.525	-63.66
886.697	14.17
886.869	-14.51
887.04	-28.84
887.212	-41.13
887.383	20.31
887.555	-14.51
887.726	-30.89
887.897	-59.56
888.069	20.31
888.24	-34.99
888.412	-12.46
888.583	57.17
888.754	-4.27
888.926	-43.18
889.097	8.02
889.268	5.97
889.44	-14.51
889.611	-32.94
889.782	-90.28
889.953	-0.17
890.125	36.69
890.296	14.17
890.467	-34.99
890.638	-45.23
890.809	-0.17
890.98	-8.36
891.151	26.45
891.323	-59.56
891.494	5.97
891.665	5.97
891.836	42.84
892.007	-6.31
892.178	-34.99
892.349	-8.36
892.52	-10.41
892.691	12.12
892.862	-51.37
893.032	-63.66
893.203	10.07
893.374	-14.51
893.545	1.88
893.716	-47.27
893.887	34.64
894.057	30.55
894.228	5.97
894.399	-53.42
894.57	12.12
894.74	-34.99
894.911	-2.22
895.082	79.7
895.253	-53.42
895.423	-67.75
895.594	-8.36
895.764	28.5
895.935	3.93
896.106	-16.55
896.276	-80.04
896.447	-28.84
896.617	46.93
896.788	-8.36
896.958	28.5
897.129	14.17
897.299	-63.66
897.47	34.64
897.64	51.03
897.81	-16.55
897.981	-84.14
898.151	-2.22
898.322	-20.65
898.492	10.07
898.662	20.31
898.832	-69.8
899.003	-2.22
899.173	-14.51
899.343	22.36
899.513	-59.56
