Data from USB4F104151__40__11-51-45-087.txt Node

Date: Fri Mar 14 11:51:45 EDT 2025
User: louis
Spectrometer: USB4F10415
Trigger mode: 4
Integration Time (sec): 2.000000E-2
Scans to average: 1
Electric dark correction enabled: true
Nonlinearity correction enabled: false
Boxcar width: 0
XAxis mode: Wavelengths
Number of Pixels in Spectrum: 3648
>>>>>Begin Spectral Data<<<<<
178.204	-28.67
178.424	-28.67
178.644	-28.67
178.864	-96.25
179.084	-28.67
179.304	-47.1
179.524	88.06
179.744	4.1
179.964	63.49
180.184	-40.96
180.404	24.58
180.624	-12.29
180.844	4.1
181.064	-61.44
181.283	-38.91
181.503	51.2
181.723	-34.82
181.943	-59.39
182.163	75.77
182.383	83.97
182.602	63.49
182.822	32.77
183.042	45.06
183.262	-26.62
183.482	22.53
183.701	28.67
183.921	75.77
184.141	-28.67
184.361	-16.38
184.58	-26.62
184.8	53.25
185.02	53.25
185.239	34.82
185.459	40.96
185.679	104.45
185.898	61.44
186.118	20.48
186.338	32.77
186.557	-20.48
186.777	63.49
186.997	26.62
187.216	28.67
187.436	88.06
187.655	-10.24
187.875	36.86
188.095	14.34
188.314	14.34
188.534	2.05
188.753	6.14
188.973	-34.82
189.192	63.49
189.412	-2.05
189.631	47.1
189.851	94.21
190.07	20.48
190.29	-12.29
190.509	32.77
190.729	12.29
190.948	36.86
191.168	96.25
191.387	98.3
191.607	-38.91
191.826	-12.29
192.045	12.29
192.265	-20.48
192.484	-32.77
192.704	61.44
192.923	10.24
193.142	4.1
193.362	34.82
193.581	10.24
193.8	51.2
194.02	16.38
194.239	32.77
194.458	6.14
194.678	36.86
194.897	0
195.116	79.87
195.335	53.25
195.555	4.1
195.774	98.3
195.993	-12.29
196.212	12.29
196.432	-10.24
196.651	22.53
196.87	59.39
197.089	61.44
197.308	45.06
197.528	-18.43
197.747	6.14
197.966	26.62
198.185	104.45
198.404	-8.19
198.623	43.01
198.842	16.38
199.062	65.54
199.281	118.78
199.5	26.62
199.719	10.24
199.938	26.62
200.157	51.2
200.376	69.63
200.595	-67.58
200.814	67.58
201.033	-14.34
201.252	32.77
201.471	24.58
201.69	96.25
201.909	24.58
202.128	57.34
202.347	30.72
202.566	51.2
202.785	-18.43
203.004	-6.14
203.223	133.12
203.442	36.86
203.661	-51.2
203.879	18.43
204.098	71.68
204.317	-28.67
204.536	30.72
204.755	-28.67
204.974	96.25
205.193	-6.14
205.411	28.67
205.63	104.45
205.849	6.14
206.068	-4.1
206.287	10.24
206.505	-4.1
206.724	0
206.943	12.29
207.162	2.05
207.381	36.86
207.599	30.72
207.818	16.38
208.037	-45.06
208.255	55.3
208.474	22.53
208.693	124.93
208.911	67.58
209.13	38.91
209.349	86.01
209.567	30.72
209.786	-36.86
210.005	-43.01
210.223	59.39
210.442	59.39
210.661	71.68
210.879	8.19
211.098	77.82
211.316	22.53
211.535	71.68
211.753	-26.62
211.972	-2.05
212.191	65.54
212.409	28.67
212.628	71.68
212.846	38.91
213.065	22.53
213.283	108.54
213.502	38.91
213.72	-2.05
213.938	-12.29
214.157	-16.38
214.375	47.1
214.594	16.38
214.812	67.58
215.031	14.34
215.249	8.19
215.467	12.29
215.686	36.86
215.904	0
216.122	77.82
216.341	26.62
216.559	-14.34
216.778	30.72
216.996	36.86
217.214	-10.24
217.432	-28.67
217.651	-22.53
217.869	8.19
218.087	-45.06
218.306	18.43
218.524	43.01
218.742	-22.53
218.96	18.43
219.179	12.29
219.397	-14.34
219.615	18.43
219.833	122.88
220.051	26.62
220.27	96.25
220.488	69.63
220.706	8.19
220.924	92.16
221.142	10.24
221.36	75.77
221.578	124.93
221.796	-32.77
222.015	14.34
222.233	-32.77
222.451	26.62
222.669	-24.58
222.887	36.86
223.105	10.24
223.323	-16.38
223.541	-10.24
223.759	36.86
223.977	51.2
224.195	63.49
224.413	51.2
224.631	24.58
224.849	36.86
225.067	83.97
225.285	-8.19
225.503	16.38
225.721	12.29
225.939	75.77
226.157	10.24
226.375	61.44
226.592	10.24
226.81	-2.05
227.028	81.92
227.246	75.77
227.464	47.1
227.682	40.96
227.9	88.06
228.117	30.72
228.335	47.1
228.553	26.62
228.771	-10.24
228.989	30.72
229.206	-34.82
229.424	-2.05
229.642	10.24
229.86	-22.53
230.077	98.3
230.295	79.87
230.513	100.35
230.731	-10.24
230.948	120.83
231.166	71.68
231.384	-2.05
231.601	18.43
231.819	122.88
232.037	-43.01
232.254	55.3
232.472	47.1
232.689	28.67
232.907	36.86
233.125	14.34
233.342	-30.72
233.56	65.54
233.777	-90.11
233.995	79.87
234.213	65.54
234.43	-30.72
234.648	12.29
234.865	8.19
235.083	10.24
235.3	67.58
235.518	51.2
235.735	118.78
235.953	45.06
236.17	96.25
236.388	-40.96
236.605	28.67
236.822	34.82
237.04	34.82
237.257	69.63
237.475	2.05
237.692	22.53
237.909	-24.58
238.127	28.67
238.344	53.25
238.562	-10.24
238.779	77.82
238.996	59.39
239.214	26.62
239.431	38.91
239.648	14.34
239.865	32.77
240.083	67.58
240.3	65.54
240.517	-34.82
240.735	36.86
240.952	104.45
241.169	49.15
241.386	10.24
241.603	2.05
241.821	10.24
242.038	49.15
242.255	67.58
242.472	-49.15
242.689	-6.14
242.907	20.48
243.124	57.34
243.341	94.21
243.558	10.24
243.775	53.25
243.992	18.43
244.209	12.29
244.426	34.82
244.643	49.15
244.86	34.82
245.078	24.58
245.295	59.39
245.512	22.53
245.729	-12.29
245.946	65.54
246.163	8.19
246.38	12.29
246.597	-22.53
246.814	-8.19
247.031	36.86
247.248	28.67
247.464	61.44
247.681	71.68
247.898	8.19
248.115	83.97
248.332	22.53
248.549	67.58
248.766	6.14
248.983	47.1
249.2	16.38
249.417	-43.01
249.633	73.73
249.85	51.2
250.067	-36.86
250.284	4.1
250.501	96.25
250.717	18.43
250.934	-2.05
251.151	14.34
251.368	81.92
251.585	-20.48
251.801	-8.19
252.018	-20.48
252.235	38.91
252.451	8.19
252.668	8.19
252.885	55.3
253.102	28.67
253.318	81.92
253.535	-18.43
253.752	14.34
253.968	-8.19
254.185	-26.62
254.401	45.06
254.618	16.38
254.835	-22.53
255.051	22.53
255.268	75.77
255.484	22.53
255.701	-16.38
255.917	0
256.134	-30.72
256.351	49.15
256.567	-30.72
256.784	-32.77
257	2.05
257.217	43.01
257.433	59.39
257.65	-4.1
257.866	2.05
258.082	18.43
258.299	83.97
258.515	-2.05
258.732	-6.14
258.948	36.86
259.165	81.92
259.381	-14.34
259.597	36.86
259.814	28.67
260.03	53.25
260.246	-2.05
260.463	51.2
260.679	12.29
260.895	14.34
261.112	51.2
261.328	77.82
261.544	75.77
261.761	71.68
261.977	-47.1
262.193	-47.1
262.409	49.15
262.626	-6.14
262.842	67.58
263.058	55.3
263.274	28.67
263.49	0
263.707	40.96
263.923	36.86
264.139	94.21
264.355	-6.14
264.571	167.93
264.787	49.15
265.004	-59.39
265.22	4.1
265.436	47.1
265.652	32.77
265.868	49.15
266.084	2.05
266.3	-49.15
266.516	-36.86
266.732	77.82
266.948	47.1
267.164	133.12
267.38	-16.38
267.596	34.82
267.812	30.72
268.028	6.14
268.244	61.44
268.46	38.91
268.676	32.77
268.892	49.15
269.108	10.24
269.324	38.91
269.54	69.63
269.756	20.48
269.972	22.53
270.188	24.58
270.403	38.91
270.619	43.01
270.835	14.34
271.051	32.77
271.267	-18.43
271.483	18.43
271.698	34.82
271.914	-2.05
272.13	22.53
272.346	118.78
272.562	-38.91
272.777	49.15
272.993	-12.29
273.209	8.19
273.425	2.05
273.64	43.01
273.856	0
274.072	45.06
274.287	40.96
274.503	96.25
274.719	79.87
274.934	32.77
275.15	8.19
275.366	88.06
275.581	2.05
275.797	59.39
276.012	43.01
276.228	6.14
276.444	88.06
276.659	30.72
276.875	75.77
277.09	30.72
277.306	2.05
277.521	47.1
277.737	22.53
277.952	53.25
278.168	106.49
278.383	-6.14
278.599	57.34
278.814	69.63
279.03	79.87
279.245	28.67
279.461	24.58
279.676	88.06
279.892	67.58
280.107	34.82
280.322	47.1
280.538	36.86
280.753	141.31
280.969	16.38
281.184	8.19
281.399	53.25
281.615	-30.72
281.83	63.49
282.045	6.14
282.26	53.25
282.476	40.96
282.691	106.49
282.906	-18.43
283.122	10.24
283.337	-40.96
283.552	20.48
283.767	26.62
283.983	63.49
284.198	-4.1
284.413	59.39
284.628	-28.67
284.843	100.35
285.058	16.38
285.274	36.86
285.489	-18.43
285.704	55.3
285.919	30.72
286.134	63.49
286.349	63.49
286.564	47.1
286.779	110.59
286.995	38.91
287.21	12.29
287.425	43.01
287.64	-8.19
287.855	49.15
288.07	16.38
288.285	18.43
288.5	18.43
288.715	57.34
288.93	53.25
289.145	61.44
289.36	20.48
289.575	8.19
289.79	26.62
290.004	8.19
290.219	96.25
290.434	34.82
290.649	59.39
290.864	22.53
291.079	14.34
291.294	16.38
291.509	-98.3
291.724	47.1
291.938	-34.82
292.153	18.43
292.368	-16.38
292.583	0
292.798	102.4
293.012	-8.19
293.227	32.77
293.442	34.82
293.657	34.82
293.871	73.73
294.086	61.44
294.301	83.97
294.516	-16.38
294.73	22.53
294.945	24.58
295.16	47.1
295.374	49.15
295.589	77.82
295.804	-22.53
296.018	2.05
296.233	94.21
296.447	18.43
296.662	20.48
296.877	0
297.091	-2.05
297.306	73.73
297.52	6.14
297.735	53.25
297.949	24.58
298.164	26.62
298.378	28.67
298.593	-6.14
298.807	-8.19
299.022	81.92
299.236	16.38
299.451	36.86
299.665	-16.38
299.88	43.01
300.094	12.29
300.309	51.2
300.523	40.96
300.737	-55.3
300.952	24.58
301.166	81.92
301.381	-16.38
301.595	-8.19
301.809	24.58
302.024	36.86
302.238	61.44
302.452	71.68
302.667	36.86
302.881	88.06
303.095	2.05
303.309	51.2
303.524	61.44
303.738	47.1
303.952	-2.05
304.166	14.34
304.381	30.72
304.595	57.34
304.809	28.67
305.023	-12.29
305.237	16.38
305.452	92.16
305.666	-6.14
305.88	14.34
306.094	69.63
306.308	47.1
306.522	96.25
306.736	71.68
306.95	-32.77
307.164	45.06
307.379	-45.06
307.593	71.68
307.807	67.58
308.021	26.62
308.235	65.54
308.449	32.77
308.663	38.91
308.877	135.17
309.091	43.01
309.305	57.34
309.519	16.38
309.733	38.91
309.947	79.87
310.161	73.73
310.374	108.54
310.588	32.77
310.802	-14.34
311.016	79.87
311.23	24.58
311.444	22.53
311.658	43.01
311.872	98.3
312.085	45.06
312.299	71.68
312.513	55.3
312.727	86.01
312.941	96.25
313.154	14.34
313.368	-6.14
313.582	81.92
313.796	47.1
314.009	-10.24
314.223	92.16
314.437	98.3
314.651	32.77
314.864	-24.58
315.078	30.72
315.292	57.34
315.505	-14.34
315.719	43.01
315.933	18.43
316.146	67.58
316.36	34.82
316.573	88.06
316.787	32.77
317.001	71.68
317.214	20.48
317.428	-6.14
317.641	-22.53
317.855	81.92
318.068	67.58
318.282	53.25
318.495	55.3
318.709	51.2
318.922	28.67
319.136	34.82
319.349	10.24
319.563	22.53
319.776	10.24
319.99	18.43
320.203	47.1
320.417	-14.34
320.63	77.82
320.843	55.3
321.057	55.3
321.27	51.2
321.483	20.48
321.697	86.01
321.91	71.68
322.124	114.69
322.337	-36.86
322.55	30.72
322.763	26.62
322.977	45.06
323.19	81.92
323.403	34.82
323.617	135.17
323.83	45.06
324.043	-26.62
324.256	47.1
324.469	38.91
324.683	51.2
324.896	116.73
325.109	135.17
325.322	-4.1
325.535	12.29
325.748	16.38
325.962	79.87
326.175	79.87
326.388	-12.29
326.601	43.01
326.814	2.05
327.027	40.96
327.24	81.92
327.453	14.34
327.666	51.2
327.879	43.01
328.092	57.34
328.305	18.43
328.518	34.82
328.731	-14.34
328.944	40.96
329.157	24.58
329.37	45.06
329.583	61.44
329.796	88.06
330.009	8.19
330.222	-6.14
330.435	4.1
330.648	86.01
330.861	-24.58
331.073	63.49
331.286	51.2
331.499	34.82
331.712	6.14
331.925	102.4
332.138	38.91
332.35	86.01
332.563	26.62
332.776	77.82
332.989	20.48
333.202	-26.62
333.414	43.01
333.627	-16.38
333.84	14.34
334.053	49.15
334.265	59.39
334.478	-49.15
334.691	36.86
334.903	65.54
335.116	-40.96
335.329	92.16
335.541	18.43
335.754	65.54
335.966	4.1
336.179	18.43
336.392	43.01
336.604	47.1
336.817	108.54
337.029	4.1
337.242	57.34
337.454	36.86
337.667	32.77
337.88	16.38
338.092	-6.14
338.305	79.87
338.517	2.05
338.729	59.39
338.942	100.35
339.154	26.62
339.367	73.73
339.579	88.06
339.792	12.29
340.004	-38.91
340.217	88.06
340.429	30.72
340.641	51.2
340.854	2.05
341.066	55.3
341.278	55.3
341.491	104.45
341.703	59.39
341.915	6.14
342.128	122.88
342.34	26.62
342.552	12.29
342.764	40.96
342.977	-20.48
343.189	0
343.401	47.1
343.613	-22.53
343.826	61.44
344.038	16.38
344.25	2.05
344.462	-6.14
344.674	90.11
344.886	-12.29
345.099	55.3
345.311	10.24
345.523	59.39
345.735	10.24
345.947	36.86
346.159	16.38
346.371	30.72
346.583	36.86
346.795	112.64
347.007	75.77
347.219	61.44
347.431	59.39
347.643	12.29
347.855	114.69
348.067	131.07
348.279	43.01
348.491	69.63
348.703	34.82
348.915	40.96
349.127	-24.58
349.339	22.53
349.551	6.14
349.763	75.77
349.975	79.87
350.187	40.96
350.399	67.58
350.61	10.24
350.822	-36.86
351.034	86.01
351.246	-4.1
351.458	67.58
351.669	53.25
351.881	40.96
352.093	116.73
352.305	51.2
352.517	47.1
352.728	20.48
352.94	75.77
353.152	88.06
353.363	-2.05
353.575	55.3
353.787	18.43
353.999	69.63
354.21	45.06
354.422	16.38
354.633	38.91
354.845	10.24
355.057	49.15
355.268	133.12
355.48	57.34
355.692	49.15
355.903	10.24
356.115	20.48
356.326	-20.48
356.538	55.3
356.749	38.91
356.961	102.4
357.172	16.38
357.384	24.58
357.595	88.06
357.807	73.73
358.018	112.64
358.23	34.82
358.441	81.92
358.653	30.72
358.864	28.67
359.075	57.34
359.287	26.62
359.498	40.96
359.709	55.3
359.921	0
360.132	61.44
360.344	114.69
360.555	-24.58
360.766	63.49
360.977	49.15
361.189	26.62
361.4	63.49
361.611	71.68
361.823	-40.96
362.034	4.1
362.245	26.62
362.456	18.43
362.667	71.68
362.879	-10.24
363.09	-6.14
363.301	45.06
363.512	-30.72
363.723	16.38
363.935	40.96
364.146	88.06
364.357	12.29
364.568	96.25
364.779	47.1
364.99	30.72
365.201	-14.34
365.412	-8.19
365.623	59.39
365.834	69.63
366.045	32.77
366.256	24.58
366.467	18.43
366.678	90.11
366.889	18.43
367.1	129.02
367.311	61.44
367.522	49.15
367.733	96.25
367.944	92.16
368.155	61.44
368.366	88.06
368.577	12.29
368.788	94.21
368.999	57.34
369.209	0
369.42	8.19
369.631	73.73
369.842	59.39
370.053	53.25
370.264	34.82
370.474	106.49
370.685	26.62
370.896	53.25
371.107	14.34
371.317	102.4
371.528	38.91
371.739	100.35
371.95	30.72
372.16	36.86
372.371	47.1
372.582	26.62
372.792	61.44
373.003	79.87
373.214	20.48
373.424	69.63
373.635	-14.34
373.846	122.88
374.056	67.58
374.267	96.25
374.477	18.43
374.688	16.38
374.898	-14.34
375.109	67.58
375.319	40.96
375.53	47.1
375.74	40.96
375.951	102.4
376.161	34.82
376.372	124.93
376.582	36.86
376.793	16.38
377.003	34.82
377.214	57.34
377.424	22.53
377.635	49.15
377.845	16.38
378.055	47.1
378.266	-6.14
378.476	55.3
378.686	30.72
378.897	110.59
379.107	36.86
379.317	32.77
379.528	26.62
379.738	69.63
379.948	126.97
380.158	79.87
380.369	20.48
380.579	38.91
380.789	36.86
380.999	86.01
381.21	0
381.42	112.64
381.63	110.59
381.84	61.44
382.05	51.2
382.261	133.12
382.471	75.77
382.681	59.39
382.891	38.91
383.101	145.41
383.311	34.82
383.521	34.82
383.731	16.38
383.941	22.53
384.151	83.97
384.361	67.58
384.571	67.58
384.781	71.68
384.991	98.3
385.201	114.69
385.411	32.77
385.621	61.44
385.831	51.2
386.041	75.77
386.251	34.82
386.461	108.54
386.671	12.29
386.881	55.3
387.091	-28.67
387.301	49.15
387.511	108.54
387.72	77.82
387.93	49.15
388.14	-34.82
388.35	-28.67
388.56	61.44
388.769	79.87
388.979	38.91
389.189	18.43
389.399	-6.14
389.609	65.54
389.818	-28.67
390.028	12.29
390.238	106.49
390.447	71.68
390.657	139.26
390.867	90.11
391.076	51.2
391.286	-22.53
391.496	55.3
391.705	75.77
391.915	51.2
392.125	69.63
392.334	114.69
392.544	30.72
392.753	83.97
392.963	49.15
393.172	10.24
393.382	0
393.591	71.68
393.801	51.2
394.01	55.3
394.22	67.58
394.429	57.34
394.639	34.82
394.848	108.54
395.058	73.73
395.267	57.34
395.477	73.73
395.686	53.25
395.895	114.69
396.105	139.26
396.314	104.45
396.524	98.3
396.733	36.86
396.942	61.44
397.152	110.59
397.361	124.93
397.57	69.63
397.78	22.53
397.989	75.77
398.198	90.11
398.407	155.65
398.617	38.91
398.826	147.45
399.035	100.35
399.244	55.3
399.453	135.17
399.663	79.87
399.872	88.06
400.081	114.69
400.29	108.54
400.499	36.86
400.708	90.11
400.917	116.73
401.127	96.25
401.336	104.45
401.545	120.83
401.754	90.11
401.963	73.73
402.172	92.16
402.381	139.26
402.59	92.16
402.799	104.45
403.008	79.87
403.217	143.36
403.426	59.39
403.635	79.87
403.844	129.02
404.053	145.41
404.262	139.26
404.471	135.17
404.68	120.83
404.888	118.78
405.097	174.08
405.306	198.65
405.515	141.31
405.724	129.02
405.933	182.27
406.142	137.21
406.35	141.31
406.559	120.83
406.768	202.75
406.977	262.14
407.185	161.79
407.394	184.32
407.603	124.93
407.812	208.89
408.02	147.45
408.229	280.57
408.438	131.07
408.646	274.43
408.855	239.61
409.064	235.52
409.272	180.22
409.481	217.08
409.69	237.56
409.898	356.35
410.107	342.01
410.315	292.86
410.524	221.18
410.733	235.52
410.941	317.44
411.15	391.16
411.358	387.07
411.567	380.92
411.775	333.82
411.984	372.73
412.192	362.49
412.401	331.77
412.609	385.02
412.818	434.17
413.026	419.83
413.234	452.6
413.443	468.98
413.651	491.51
413.86	493.56
414.068	530.42
414.276	600.05
414.485	653.3
414.693	485.37
414.901	653.3
415.11	696.31
415.318	661.49
415.526	718.84
415.734	731.12
415.943	790.52
416.151	811
416.359	782.32
416.567	808.95
416.776	784.37
416.984	845.81
417.192	901.11
417.4	821.24
417.608	870.39
417.817	911.35
418.025	1060.85
418.233	1099.76
418.441	997.36
418.649	1056.75
418.857	1064.94
419.065	1216.49
419.273	1046.51
419.481	1300.46
419.689	1368.04
419.897	1411.05
420.105	1386.47
420.313	1468.39
420.521	1447.91
420.729	1566.7
420.937	1517.54
421.145	1681.38
421.353	1615.85
421.561	1816.55
421.769	1724.39
421.977	1974.24
422.185	1771.49
422.393	2011.11
422.601	2099.17
422.809	2068.45
423.017	2062.3
423.224	2203.61
423.432	2363.36
423.64	2342.88
423.848	2475.99
424.056	2455.51
424.263	2684.89
424.471	2568.15
424.679	2660.31
424.887	2891.73
425.094	2930.64
425.302	2895.83
425.51	2971.6
425.718	3106.77
425.925	3086.29
426.133	3356.62
426.341	3332.05
426.548	3557.32
426.756	3655.62
426.964	3674.06
427.171	3766.21
427.379	4016.07
427.586	3934.15
427.794	4243.39
428.001	4292.54
428.209	4681.66
428.417	4433.85
428.624	4802.49
428.832	4751.29
429.039	4638.65
429.247	4665.27
429.454	5150.64
429.662	5588.91
429.869	5144.5
430.076	5545.9
430.284	5373.87
430.491	5414.83
430.699	5877.67
430.906	6125.47
431.114	5779.37
431.321	6082.47
431.528	6494.11
431.736	6592.41
431.943	7157.65
432.15	6887.32
432.358	6895.51
432.565	7317.39
432.772	7339.92
432.979	7690.12
433.187	7681.93
433.394	7948.17
433.601	8380.29
433.808	8384.38
434.016	8390.53
434.223	8726.39
434.43	9187.19
434.637	9166.71
434.844	9535.34
435.052	9881.45
435.259	9766.76
435.466	9850.73
435.673	9703.28
435.88	10219.36
436.087	10876.76
436.294	10731.36
436.501	10616.67
436.708	10794.84
436.915	11272.02
437.122	11677.52
437.329	11685.71
437.537	12209.99
437.743	12267.33
437.95	12353.35
438.157	12808
438.364	13123.38
438.571	13276.98
438.778	13262.65
438.985	14468.9
439.192	14026.54
439.399	14411.56
439.606	14200.62
439.813	14728.99
440.02	15660.82
440.227	15597.33
440.433	15202.07
440.64	15720.21
440.847	15693.58
441.054	16244.49
441.261	17176.31
441.467	16908.03
441.674	17477.37
441.881	18087.66
442.088	17755.89
442.294	18018.03
442.501	18300.65
442.708	18632.42
442.914	19132.12
443.121	20303.56
443.328	19699.41
443.534	21022.4
443.741	20567.75
443.948	20115.15
444.154	21534.39
444.361	21470.9
444.568	21710.52
444.774	21624.5
444.981	21974.7
445.187	22793.89
445.394	23381.66
445.6	23234.21
445.807	25392.76
446.013	24043.15
446.22	24880.77
446.426	25691.77
446.633	26312.3
446.839	26568.3
447.046	25976.44
447.252	26934.89
447.459	27086.43
447.665	26963.56
447.871	28137.04
448.078	29640.25
448.284	27932.25
448.491	28866.12
448.697	30195.25
448.903	30342.71
449.11	30838.31
449.316	30346.8
449.522	30434.86
449.728	31358.5
449.935	31694.36
450.141	31677.98
450.347	32185.88
450.553	31198.76
450.76	31723.04
450.966	32902.67
451.172	32466.45
451.378	33134.09
451.584	32574.99
451.791	33652.22
451.997	33097.22
452.203	33838.59
452.409	33836.54
452.615	33869.31
452.821	32345.62
453.027	32476.69
453.233	33797.63
453.44	32607.76
453.646	32618
453.852	33070.6
454.058	33648.13
454.264	32304.66
454.47	33193.48
454.676	31901.21
454.882	33080.84
455.088	30498.35
455.294	31176.23
455.5	30871.08
455.705	31696.41
455.911	30336.56
456.117	30033.46
456.323	29269.57
456.529	27872.85
456.735	29232.71
456.941	28225.11
457.147	27758.17
457.352	27233.89
457.558	26787.43
457.764	26617.45
457.97	26408.56
458.176	25583.23
458.381	25577.08
458.587	24577.67
458.793	24549
458.999	23160.48
459.204	24936.07
459.41	24034.96
459.616	22718.12
459.821	22638.25
460.027	22447.79
460.233	21954.22
460.438	21196.48
460.644	21128.89
460.85	20039.37
461.055	19861.2
461.261	19910.35
461.466	18210.54
461.672	17692.4
461.878	19154.65
462.083	17858.29
462.289	17700.59
462.494	17241.85
462.7	16582.4
462.905	16035.6
463.111	16807.68
463.316	16772.86
463.522	16461.57
463.727	16635.65
463.932	16502.53
464.138	16105.23
464.343	16295.69
464.549	15513.36
464.754	16305.93
464.959	16074.51
465.165	16211.72
465.37	15398.68
465.575	15148.82
465.781	15748.88
465.986	15646.48
466.191	15120.15
466.397	14642.98
466.602	14448.42
466.807	14530.34
467.012	14782.24
467.218	14583.59
467.423	14427.94
467.628	14532.39
467.833	15071
468.038	14735.14
468.244	14176.04
468.449	14853.92
468.654	14227.24
468.859	13977.39
469.064	14372.64
469.269	13414.2
469.474	13635.38
469.679	13903.66
469.885	13311.8
470.09	13483.83
470.295	13291.32
470.5	13350.71
470.705	13340.47
470.91	12900.16
471.115	13010.75
471.32	13315.89
471.525	12965.69
471.73	12504.9
471.935	12547.9
472.139	12070.73
472.344	12347.2
472.549	12162.89
472.754	11843.4
472.959	11755.34
473.164	11659.09
473.369	11388.75
473.574	12046.15
473.778	11695.95
473.983	11702.09
474.188	11630.41
474.393	10985.3
474.598	11143
474.802	11102.04
475.007	11011.93
475.212	10991.45
475.417	10583.9
475.621	10659.68
475.826	10635.1
476.031	10223.46
476.235	10067.81
476.44	10399.59
476.645	10141.54
476.849	9889.64
477.054	9910.12
477.259	9824.11
477.463	9971.56
477.668	9576.3
477.872	9584.49
478.077	9594.73
478.282	9254.77
478.486	9312.11
478.691	9301.87
478.895	9185.14
479.1	9144.18
479.304	9222
479.509	8824.7
479.713	9033.59
479.918	8695.68
480.122	8789.88
480.326	8918.9
480.531	8849.27
480.735	8613.76
480.94	8693.63
481.144	8902.52
481.348	8615.8
481.553	8435.58
481.757	8445.82
481.961	8587.13
482.166	8605.56
482.37	8685.44
482.574	8378.24
482.778	8382.34
482.983	8724.35
483.187	8546.17
483.391	8482.69
483.595	8464.25
483.8	8505.21
484.004	8583.04
484.208	8689.53
484.412	8460.16
484.616	8566.65
484.821	8560.51
485.025	8202.11
485.229	8529.79
485.433	8589.18
485.637	8464.25
485.841	8353.66
486.045	8435.58
486.249	8556.41
486.453	8343.42
486.657	8433.54
486.861	8650.62
487.065	8236.93
487.269	8509.31
487.473	8322.94
487.677	8609.66
487.881	8466.3
488.085	8607.61
488.289	8517.5
488.493	8320.9
488.697	8456.06
488.901	8501.12
489.105	8513.41
489.309	8464.25
489.512	8413.06
489.716	8472.45
489.92	8617.85
490.124	8574.85
490.328	8769.4
490.531	8793.98
490.735	8816.51
490.939	8689.53
491.143	8664.96
491.346	8783.74
491.55	8963.96
491.754	8828.79
491.958	8808.31
492.161	8765.31
492.365	8855.42
492.569	8982.39
492.772	8996.73
492.976	8941.43
493.18	9090.93
493.383	9316.21
493.587	9123.7
493.79	9232.24
493.994	9146.23
494.197	9256.82
494.401	9584.49
494.605	9209.72
494.808	9484.14
495.012	9584.49
495.215	9676.65
495.419	9729.9
495.622	9541.49
495.825	9836.39
496.029	9824.11
496.232	9914.22
496.436	9865.07
496.639	10323.81
496.843	10198.88
497.046	10444.64
497.249	10434.4
497.453	10495.84
497.656	10467.17
497.859	10721.12
498.063	10663.77
498.266	10909.53
498.469	10927.96
498.673	11050.84
498.876	11341.65
499.079	11401.04
499.282	11245.4
499.485	11595.6
499.689	11593.55
499.892	11749.2
500.095	11794.25
500.298	12076.87
500.501	12009.29
500.705	12427.07
500.908	12584.77
501.111	12597.06
501.314	12867.39
501.517	12902.2
501.72	12834.62
501.923	12865.34
502.126	13080.38
502.329	13377.33
502.532	13614.9
502.735	13649.71
502.938	13827.88
503.141	13997.87
503.344	14247.72
503.547	14118.7
503.75	14278.44
503.953	14669.6
504.156	14833.44
504.359	14767.9
504.562	14950.17
504.765	15200.02
504.968	15142.68
505.17	15351.57
505.373	15240.98
505.576	15679.25
505.779	16119.56
505.982	15933.2
506.185	16396.04
506.387	16375.56
506.59	16903.93
506.793	16643.84
506.996	16914.17
507.198	17235.71
507.401	17172.22
507.604	17282.81
507.807	17678.07
508.009	17704.69
508.212	17983.21
508.415	18038.51
508.617	18347.75
508.82	18515.69
509.022	18415.33
509.225	19101.4
509.428	19015.39
509.63	19238.62
509.833	19298.01
510.035	19642.07
510.238	19406.55
510.44	19951.31
510.643	20164.3
510.845	20455.11
511.048	20281.03
511.25	20852.42
511.453	21106.37
511.655	21438.14
511.858	21231.29
512.06	21431.99
512.262	21675.7
512.465	21925.55
512.667	22132.4
512.87	22189.74
513.072	22255.28
513.274	22595.24
513.477	22941.35
513.679	23301.79
513.881	23555.74
514.084	23824.02
514.286	23533.21
514.488	23635.61
514.69	24329.87
514.893	24311.44
515.095	24399.5
515.297	24821.38
515.499	24514.19
515.701	25073.28
515.904	25302.65
516.106	25806.45
516.308	25663.1
516.51	26199.66
516.712	25937.52
516.914	26740.33
517.116	27035.24
517.318	26742.38
517.52	27231.84
517.722	26918.5
517.925	27483.74
518.127	28020.31
518.329	27782.74
518.531	27743.83
518.733	28556.88
518.935	28681.8
519.136	28812.87
519.338	29294.14
519.54	29705.79
519.742	29541.95
519.944	29724.22
520.146	30522.93
520.348	30078.52
520.55	30400.05
520.752	30574.13
520.954	31161.89
521.155	30991.91
521.357	31733.28
521.559	31684.12
521.761	31745.56
521.963	31972.89
522.164	32173.59
522.366	32095.77
522.568	32615.95
522.77	32738.83
522.971	33029.64
523.173	32992.78
523.375	33449.47
523.576	33586.69
523.778	33660.41
523.98	34133.5
524.181	34119.16
524.383	34135.54
524.584	34625.01
524.786	34532.85
524.988	34252.28
525.189	34700.78
525.391	35200.49
525.592	35081.7
525.794	35450.34
525.995	35579.36
526.197	35597.79
526.398	35835.36
526.6	36074.97
526.801	35769.82
527.003	36085.21
527.204	36468.18
527.406	36505.04
527.607	36646.35
527.808	36703.7
528.01	36328.92
528.211	36720.08
528.412	37561.79
528.614	37465.54
528.815	37295.56
529.016	37834.17
529.218	37316.04
529.419	37668.29
529.62	38098.36
529.822	37438.92
530.023	37840.32
530.224	38290.87
530.425	38092.22
530.626	37664.19
530.828	37885.37
531.029	38692.27
531.23	37887.42
531.431	37821.89
531.632	38157.75
531.833	38520.24
532.035	38251.96
532.236	38497.72
532.437	38598.07
532.638	38335.93
532.839	38612.4
533.04	38735.28
533.241	38069.69
533.442	38878.64
533.643	38884.78
533.844	38430.13
534.045	38927.79
534.246	38628.79
534.447	39212.46
534.648	38878.64
534.849	38706.61
535.05	38708.66
535.251	38800.82
535.451	38749.62
535.652	39101.87
535.853	39116.2
536.054	38784.43
536.255	39075.24
536.456	38786.48
536.657	39292.33
536.857	38997.42
537.058	38628.79
537.259	39146.92
537.46	39116.2
537.66	38784.43
537.861	39046.57
538.062	38487.48
538.263	39060.91
538.463	39202.22
538.664	38845.87
538.865	38911.41
539.065	39114.16
539.266	38573.49
539.466	38923.69
539.667	38641.07
539.868	39204.27
540.068	39189.93
540.269	38729.14
540.469	39298.47
540.67	38788.53
540.87	38612.4
541.071	38927.79
541.271	38858.16
541.472	39075.24
541.672	38583.73
541.873	38368.69
542.073	38223.29
542.274	39038.38
542.474	38677.94
542.675	38317.5
542.875	38847.92
543.075	38563.25
543.276	38372.79
543.476	38944.17
543.676	38581.68
543.877	38772.14
544.077	38585.78
544.277	38229.43
544.478	38870.45
544.678	38778.29
544.878	38540.72
545.078	38679.99
545.279	38585.78
545.479	38546.87
545.679	38931.89
545.879	38571.44
546.079	38931.89
546.28	38821.3
546.48	38188.47
546.68	38813.1
546.88	38870.45
547.08	38708.66
547.28	38522.29
547.48	38137.27
547.68	38417.85
547.88	38329.78
548.081	38866.35
548.281	38587.83
548.481	38651.31
548.681	38321.59
548.881	38223.29
549.081	38624.69
549.28	38358.45
549.48	38813.1
549.68	38538.68
549.88	38823.34
550.08	38352.31
550.28	38149.56
550.48	38469.04
550.68	38491.57
550.88	38206.9
551.08	38297.02
551.279	38663.6
551.479	37766.59
551.679	38116.79
551.879	38198.71
552.079	38272.44
552.278	38198.71
552.478	38254.01
552.678	38149.56
552.878	38464.95
553.077	38383.03
553.277	37995.96
553.477	38559.16
553.676	37965.24
553.876	38198.71
554.076	37703.1
554.275	37924.29
554.475	37428.68
554.674	37756.35
554.874	37897.66
555.074	37844.41
555.273	37940.67
555.473	37918.14
555.672	37524.93
555.872	37703.1
556.071	37557.7
556.271	37920.19
556.47	37834.17
556.67	37385.67
556.869	37129.67
557.068	37912
557.268	37369.29
557.467	37416.39
557.667	37326.28
557.866	37457.35
558.065	37266.89
558.265	37146.06
558.464	37316.04
558.663	37301.7
558.863	37209.54
559.062	37342.66
559.261	37000.65
559.461	37526.98
559.66	36785.61
559.859	37084.62
560.058	36476.37
560.258	37279.18
560.457	36478.42
560.656	36783.57
560.855	36885.97
561.054	36593.11
561.253	36363.73
561.453	36826.57
561.652	36349.4
561.851	36445.65
562.05	36283.86
562.249	36208.09
562.448	36572.63
562.647	36386.26
562.846	36236.76
563.045	36402.64
563.244	35775.97
563.443	36259.29
563.642	35700.19
563.841	35864.03
564.04	35737.05
564.239	35884.51
564.438	35896.8
564.637	35859.93
564.836	35845.6
565.035	35589.6
565.234	35526.11
565.432	35196.39
565.631	35184.1
565.83	35710.43
566.029	34977.26
566.228	34942.44
566.427	34784.75
566.625	35159.53
566.824	34514.42
567.023	35057.13
567.222	34303.48
567.42	34676.21
567.619	34409.97
567.818	34663.92
568.016	34373.11
568.215	34833.9
568.414	34643.44
568.612	34686.45
568.811	34283
569.01	34309.62
569.208	33863.16
569.407	34065.91
569.605	33803.77
569.804	34135.54
570.002	33732.09
570.201	33730.05
570.4	33312.26
570.598	33445.38
570.797	33416.71
570.995	33453.57
571.193	33201.67
571.392	33451.52
571.59	32947.72
571.789	33119.75
571.987	33043.98
572.186	32902.67
572.384	32704.01
572.582	32947.72
572.781	32908.81
572.979	32359.95
573.177	32452.11
573.376	32779.79
573.574	32405.01
573.772	32476.69
573.971	32378.39
574.169	31931.93
574.367	31682.08
574.565	32171.54
574.763	31737.37
574.962	31761.95
575.16	31434.27
575.358	32167.45
575.556	31215.14
575.754	31899.16
575.952	31393.31
576.151	31630.88
576.349	31405.6
576.547	31047.21
576.745	31262.24
576.943	30973.48
577.141	30918.18
577.339	31155.75
577.537	30570.03
577.735	30705.2
577.933	30514.73
578.131	30828.07
578.329	30860.84
578.527	30574.13
578.725	30654
578.923	30287.41
579.121	30301.75
579.319	30055.99
579.516	30471.73
579.714	29965.88
579.912	29797.95
580.11	30064.18
580.308	30137.91
580.506	29599.29
580.704	29482.56
580.901	29765.18
581.099	29851.19
581.297	29619.77
581.495	29185.6
581.692	29556.28
581.89	29124.16
582.088	29343.3
582.285	28974.66
582.483	29314.62
582.681	29359.68
582.878	28726.86
583.076	28716.62
583.274	28524.11
583.471	28460.62
583.669	28603.98
583.866	28692.04
584.064	28393.04
584.262	28192.34
584.459	28546.64
584.657	28284.5
584.854	28382.8
585.052	27924.05
585.249	28167.76
585.447	27778.65
585.644	27643.48
585.841	27883.09
586.039	27686.49
586.236	27309.66
586.434	27833.94
586.631	27745.88
586.828	27178.59
587.026	27237.98
587.223	27614.81
587.42	27045.48
587.618	27332.19
587.815	26670.7
588.012	27041.38
588.21	26801.77
588.407	26959.46
588.604	26629.74
588.801	26611.31
588.999	26766.95
589.196	26717.8
589.393	26234.48
589.59	26252.91
589.787	26365.55
589.984	26306.16
590.182	25857.65
590.379	26238.58
590.576	26070.64
590.773	25785.97
590.97	25998.96
591.167	25917.04
591.364	25814.65
591.561	25796.21
591.758	25163.39
591.955	25423.48
592.152	25665.14
592.349	25321.09
592.546	25403
592.743	25263.74
592.94	24870.53
593.137	25364.09
593.334	25161.34
593.531	24604.3
593.727	24817.29
593.924	24690.31
594.121	24835.72
594.318	24911.49
594.515	24723.08
594.712	24438.41
594.908	24237.71
595.105	24483.47
595.302	24039.06
595.499	24268.43
595.696	24059.54
595.892	23680.66
596.089	24123.02
596.286	24182.42
596.482	23944.85
596.679	23858.84
596.876	23848.6
597.072	23621.27
597.269	23848.6
597.466	23279.26
597.662	23301.79
597.859	23574.17
598.055	23457.43
598.252	23154.33
598.448	23256.73
598.645	23273.12
598.841	23062.18
599.038	23035.55
599.234	22632.1
599.431	22746.79
599.627	22636.2
599.824	22857.38
600.02	22068.91
600.217	22650.53
600.413	22527.66
600.609	22275.76
600.806	22124.21
601.002	22058.67
601.198	22380.2
601.395	22052.53
601.591	22101.68
601.787	21829.3
601.984	21714.61
602.18	21817.01
602.376	21745.33
602.572	21595.83
602.769	21995.18
602.965	21286.59
603.161	21855.92
603.357	21632.69
603.553	21587.64
603.75	21579.45
603.946	21247.68
604.142	21268.16
604.338	21055.17
604.534	21116.61
604.73	20788.93
604.926	20901.57
605.122	21008.06
605.318	20733.64
605.514	20899.52
605.71	20559.56
605.906	20639.43
606.102	20621
606.298	20500.17
606.494	20387.53
606.69	20487.88
606.886	20557.51
607.082	20041.42
607.278	20530.89
607.474	20188.88
607.67	20252.36
607.866	19916.5
608.062	20223.69
608.257	20240.08
608.453	20213.45
608.649	20248.27
608.845	19533.53
609.041	19793.62
609.236	19805.91
609.432	19969.74
609.628	19898.06
609.824	19617.49
610.019	19533.53
610.215	19535.57
610.411	19873.49
610.606	19404.5
610.802	19396.31
610.998	19613.4
611.193	19263.19
611.389	19312.35
611.584	19330.78
611.78	19377.88
611.976	19183.32
612.171	19472.09
612.367	19027.68
612.562	19074.78
612.758	18732.77
612.953	19146.46
613.149	19291.87
613.344	18982.62
613.539	19226.33
613.735	18976.48
613.93	19033.82
614.126	18589.41
614.321	19021.53
614.517	18915.04
614.712	18581.22
614.907	18583.27
615.103	18917.09
615.298	18597.6
615.493	18937.57
615.688	18394.86
615.884	18919.14
616.079	18706.15
616.274	18966.24
616.47	18558.69
616.665	18523.88
616.86	18484.97
617.055	18159.34
617.25	18104.04
617.445	18396.9
617.641	18161.39
617.836	18255.59
618.031	18185.96
618.226	18194.15
618.421	17995.5
618.616	18202.35
618.811	17712.88
619.006	18196.2
619.201	17772.27
619.396	17854.19
619.591	17518.32
619.786	17665.78
619.981	17379.06
620.176	17503.99
620.371	17209.08
620.566	17207.03
620.761	17159.93
620.956	17397.49
621.151	16942.85
621.346	17311.48
621.541	16983.8
621.735	16889.6
621.93	16715.52
622.125	16811.78
622.32	16426.76
622.515	16729.86
622.709	16389.89
622.904	16289.54
623.099	16437
623.294	16193.29
623.488	16002.83
623.683	16074.51
623.878	15824.65
624.072	15826.7
624.267	15806.22
624.462	15925
624.656	15650.58
624.851	15548.18
625.046	15275.8
625.24	15453.97
625.435	15378.2
625.629	15322.9
625.824	15081.24
626.018	15077.15
626.213	14788.38
626.407	15075.1
626.602	14593.83
626.796	14563.11
626.991	14473
627.185	14739.23
627.38	14446.37
627.574	14429.99
627.768	14358.31
627.963	14176.04
628.157	14104.36
628.352	14186.28
628.546	14124.84
628.74	14102.31
628.935	13979.43
629.129	13717.29
629.323	13651.76
629.517	13655.86
629.712	13522.74
629.906	13676.34
630.1	13367.09
630.294	13549.36
630.489	13393.72
630.683	13262.65
630.877	13221.69
631.071	13078.33
631.265	13137.72
631.459	12885.82
631.653	12764.99
631.848	12785.47
632.042	12691.26
632.236	12922.68
632.43	12822.33
632.624	12711.74
632.818	12562.24
633.012	12224.33
633.206	12316.48
633.4	12355.4
633.594	12060.49
633.788	12040.01
633.982	12107.59
634.176	12169.03
634.369	11910.99
634.563	12091.21
634.757	11833.16
634.951	12035.91
635.145	11927.37
635.339	11921.23
635.533	11839.31
635.726	11648.85
635.92	11343.7
636.114	11505.49
636.308	11433.81
636.501	11585.36
636.695	11274.07
636.889	10995.54
637.083	11181.91
637.276	11009.88
637.47	11122.52
637.664	10962.78
637.857	10948.44
638.051	11005.78
638.244	10874.71
638.438	10831.71
638.632	11036.5
638.825	10676.06
639.019	10684.25
639.212	10403.68
639.406	10567.52
639.599	10522.46
639.793	10356.58
639.986	10375.01
640.18	10227.56
640.373	10096.49
640.567	10299.23
640.76	10141.54
640.954	10071.91
641.147	9942.89
641.34	9865.07
641.534	9996.14
641.727	9942.89
641.92	9955.18
642.114	9809.77
642.307	9594.73
642.5	9561.97
642.694	9586.54
642.887	9535.34
643.08	9549.68
643.273	9377.65
643.467	9342.83
643.66	9351.03
643.853	9183.09
644.046	9097.08
644.239	9252.72
644.432	8996.73
644.626	9101.17
644.819	9125.75
645.012	8949.62
645.205	8988.53
645.398	8994.68
645.591	8855.42
645.784	8802.17
645.977	8720.25
646.17	8750.97
646.363	8599.42
646.556	8542.08
646.749	8660.86
646.942	8572.8
647.135	8550.27
647.328	8472.45
647.521	8525.69
647.714	8128.39
647.907	8200.07
648.099	8255.36
648.292	8322.94
648.485	8243.07
648.678	8165.25
648.871	7886.73
649.064	8062.85
649.256	8075.14
649.449	7915.4
649.642	7894.92
649.835	7741.32
650.027	7841.67
650.22	7739.27
650.413	7741.32
650.605	7673.74
650.798	7655.31
650.991	7524.24
651.183	7589.77
651.376	7577.48
651.568	7573.39
651.761	7493.52
651.954	7344.02
652.146	7440.27
652.339	7315.34
652.531	7382.93
652.724	7174.03
652.916	7253.91
653.109	7118.74
653.301	6944.66
653.494	7298.96
653.686	7065.49
653.879	7196.56
654.071	6979.48
654.263	6883.22
654.456	7032.72
654.648	6983.57
654.84	6952.85
655.033	6746.01
655.225	6897.56
655.417	6670.23
655.61	6645.66
655.802	6858.65
655.994	6610.84
656.186	6746.01
656.379	6723.48
656.571	6569.88
656.763	6471.58
656.955	6739.87
657.148	6543.26
657.34	6594.46
657.532	6246.3
657.724	6309.79
657.916	6363.04
658.108	6602.65
658.3	6377.37
658.492	6266.78
658.684	6133.67
658.876	6004.64
659.068	6152.1
659.26	5971.88
659.452	6123.43
659.644	6016.93
659.836	5857.19
660.028	6043.56
660.22	5865.38
660.412	6088.61
660.604	6039.46
660.796	5889.96
660.988	5857.19
661.18	5871.53
661.372	5668.78
661.563	5846.95
661.755	5814.18
661.947	5687.21
662.139	5506.99
662.331	5762.98
662.522	5566.38
662.714	5562.28
662.906	5558.19
663.097	5584.81
663.289	5412.78
663.481	5576.62
663.673	5425.07
663.864	5439.4
664.056	5492.65
664.247	5269.42
664.439	5402.54
664.631	5326.77
664.822	5298.1
665.014	5300.14
665.205	5347.25
665.397	5271.47
665.588	5189.55
665.78	5072.82
665.971	4960.18
666.163	5277.62
666.354	5130.16
666.546	5056.43
666.737	5111.73
666.929	5089.2
667.12	4904.89
667.311	5085.11
667.503	4992.95
667.694	4843.45
667.885	4839.35
668.077	4892.6
668.268	4820.92
668.459	4933.56
668.651	4712.38
668.842	4847.54
669.033	5007.28
669.224	4777.91
669.416	4835.25
669.607	4693.94
669.798	4634.55
669.989	4646.84
670.18	4698.04
670.371	4655.03
670.563	4523.96
670.754	4718.52
670.945	4497.34
671.136	4800.44
671.327	4669.37
671.518	4706.23
671.709	4536.25
671.9	4566.97
672.091	4507.58
672.282	4452.28
672.473	4485.05
672.664	4460.48
672.855	4513.72
673.046	4413.37
673.237	4538.3
673.428	4360.13
673.619	4276.16
673.809	4323.26
674	4388.8
674.191	4411.32
674.382	4308.93
674.573	4306.88
674.764	4364.22
674.954	4300.73
675.145	4304.83
675.336	4261.82
675.527	4100.03
675.717	4304.83
675.908	4335.55
676.099	4155.33
676.289	4116.42
676.48	4202.43
676.671	4173.76
676.861	4095.94
677.052	4175.81
677.243	4081.6
677.433	3991.49
677.624	4147.14
677.814	4153.28
678.005	4108.23
678.195	3999.68
678.386	4069.31
678.576	3981.25
678.767	4042.69
678.957	4071.36
679.148	4149.18
679.338	3934.15
679.529	4102.08
679.719	3987.4
679.909	4022.21
680.1	3932.1
680.29	4032.45
680.481	3958.72
680.671	3991.49
680.861	3944.39
681.052	3983.3
681.242	3897.28
681.432	3887.04
681.622	3876.8
681.813	3930.05
682.003	3997.64
682.193	3825.61
682.383	4063.17
682.573	3817.41
682.764	3923.91
682.954	3891.14
683.144	3868.61
683.334	3938.24
683.524	3821.51
683.714	3745.73
683.904	3882.95
684.094	3788.74
684.284	3606.47
684.474	3829.7
684.664	3819.46
684.854	3790.79
685.044	3708.87
685.234	3846.09
685.424	3770.31
685.614	3643.34
685.804	3784.65
685.994	3768.26
686.184	3745.73
686.374	3702.73
686.564	3672.01
686.753	3655.62
686.943	3534.79
687.133	3688.39
687.323	3596.23
687.513	3690.44
687.702	3600.33
687.892	3426.25
688.082	3577.8
688.272	3557.32
688.461	3424.2
688.651	3518.41
688.841	3522.51
689.03	3430.35
689.22	3411.92
689.41	3395.53
689.599	3401.68
689.789	3493.83
689.979	3377.1
690.168	3338.19
690.358	3291.09
690.547	3362.76
690.737	3348.43
690.926	3276.75
691.116	3301.33
691.305	3258.32
691.495	3223.5
691.684	3260.37
691.874	3188.69
692.063	3221.45
692.252	3188.69
692.442	3225.55
692.631	3192.78
692.82	3096.53
693.01	3114.96
693.199	3252.17
693.388	3213.26
693.578	3160.02
693.767	3121.1
693.956	3067.86
694.146	3084.24
694.335	3131.34
694.524	3024.85
694.713	3047.38
694.902	2987.99
695.092	2928.6
695.281	2994.13
695.47	2867.16
695.659	2992.08
695.848	2969.55
696.037	2920.4
696.226	2992.08
696.415	2914.26
696.604	2928.6
696.793	2996.18
696.982	3088.34
697.171	2965.46
697.36	3002.32
697.549	2807.77
697.738	2938.84
697.927	2832.34
698.116	3016.66
698.305	2762.71
698.494	2965.46
698.683	2940.88
698.872	2889.68
699.061	2742.23
699.25	2877.4
699.438	2891.73
699.627	2951.12
699.816	2858.96
700.005	2779.09
700.193	2822.1
700.382	2899.92
700.571	2836.44
700.76	2875.35
700.948	2973.65
701.137	2944.98
701.326	3024.85
701.514	2789.33
701.703	2744.28
701.892	2783.19
702.08	3020.75
702.269	2799.57
702.457	2731.99
702.646	2803.67
702.834	2811.86
703.023	2877.4
703.212	2867.16
703.4	2760.66
703.589	2799.57
703.777	2795.48
703.965	2674.65
704.154	2889.68
704.342	2756.57
704.531	2684.89
704.719	2742.23
704.907	2928.6
705.096	2877.4
705.284	2779.09
705.472	2875.35
705.661	2846.68
705.849	2686.93
706.037	2772.95
706.226	2701.27
706.414	2768.85
706.602	2838.48
706.79	2832.34
706.979	2754.52
707.167	2760.66
707.355	2813.91
707.543	2820.05
707.731	2715.61
707.919	2711.51
708.107	2705.37
708.296	2727.89
708.484	2791.38
708.672	2883.54
708.86	2713.56
709.048	2908.12
709.236	2754.52
709.424	2731.99
709.612	2699.22
709.8	2656.22
709.988	2811.86
710.176	2740.18
710.364	2684.89
710.551	2682.84
710.739	2615.26
710.927	2777.05
711.115	2682.84
711.303	2840.53
711.491	2789.33
711.679	2658.26
711.866	2734.04
712.054	2738.13
712.242	2643.93
712.43	2762.71
712.617	2734.04
712.805	2768.85
712.993	2813.91
713.181	2703.32
713.368	2795.48
713.556	2760.66
713.744	2723.8
713.931	2797.53
714.119	2744.28
714.306	2717.65
714.494	2738.13
714.682	2731.99
714.869	2799.57
715.057	2830.29
715.244	2625.5
715.432	2781.14
715.619	2772.95
715.807	2746.33
715.994	2658.26
716.182	2719.7
716.369	2701.27
716.556	2744.28
716.744	2779.09
716.931	2643.93
717.119	2803.67
717.306	2826.2
717.493	2703.32
717.681	2721.75
717.868	2822.1
718.055	2750.42
718.242	2781.14
718.43	2672.6
718.617	2744.28
718.804	2838.48
718.991	2707.41
719.179	2783.19
719.366	2742.23
719.553	2691.03
719.74	2803.67
719.927	2717.65
720.114	2682.84
720.301	2611.16
720.488	2705.37
720.676	2672.6
720.863	2643.93
721.05	2697.17
721.237	2621.4
721.424	2766.81
721.611	2813.91
721.798	2721.75
721.985	2682.84
722.172	2783.19
722.358	2592.73
722.545	2678.74
722.732	2676.7
722.919	2770.9
723.106	2652.12
723.293	2637.78
723.48	2670.55
723.667	2672.6
723.853	2756.57
724.04	2703.32
724.227	2703.32
724.414	2803.67
724.6	2666.46
724.787	2736.09
724.974	2787.29
725.161	2637.78
725.347	2707.41
725.534	2672.6
725.72	2752.47
725.907	2635.74
726.094	2742.23
726.28	2818.01
726.467	2711.51
726.653	2619.35
726.84	2682.84
727.027	2766.81
727.213	2684.89
727.4	2731.99
727.586	2748.37
727.773	2809.81
727.959	2715.61
728.145	2629.59
728.332	2715.61
728.518	2742.23
728.705	2748.37
728.891	2625.5
729.077	2713.56
729.264	2713.56
729.45	2695.13
729.636	2666.46
729.823	2600.92
730.009	2650.07
730.195	2736.09
730.382	2711.51
730.568	2609.11
730.754	2605.02
730.94	2863.06
731.126	2666.46
731.313	2736.09
731.499	2709.46
731.685	2699.22
731.871	2703.32
732.057	2709.46
732.243	2742.23
732.429	2772.95
732.615	2654.17
732.801	2682.84
732.987	2783.19
733.173	2734.04
733.359	2645.98
733.545	2539.48
733.731	2713.56
733.917	2703.32
734.103	2598.87
734.289	2723.8
734.475	2664.41
734.661	2637.78
734.847	2588.63
735.033	2797.53
735.219	2650.07
735.404	2533.34
735.59	2531.29
735.776	2572.25
735.962	2607.06
736.148	2605.02
736.333	2652.12
736.519	2516.95
736.705	2639.83
736.89	2600.92
737.076	2545.63
737.262	2584.54
737.447	2715.61
737.633	2555.86
737.819	2543.58
738.004	2510.81
738.19	2598.87
738.375	2547.67
738.561	2584.54
738.747	2549.72
738.932	2482.14
739.118	2582.49
739.303	2457.56
739.489	2412.51
739.674	2512.86
739.859	2449.37
740.045	2506.71
740.23	2363.36
740.416	2475.99
740.601	2428.89
740.786	2521.05
740.972	2461.66
741.157	2502.62
741.342	2478.04
741.528	2383.84
741.713	2426.84
741.898	2418.65
742.084	2385.88
742.269	2432.99
742.454	2389.98
742.639	2400.22
742.824	2408.41
743.01	2396.12
743.195	2418.65
743.38	2340.83
743.565	2455.51
743.75	2322.4
743.935	2318.3
744.12	2416.6
744.305	2263.01
744.49	2260.96
744.675	2185.18
744.86	2119.65
745.045	2142.18
745.23	2187.23
745.415	2291.68
745.6	2156.51
745.785	2263.01
745.97	2129.89
746.155	2181.09
746.34	2338.78
746.525	2136.03
746.71	2220
746.895	2156.51
747.079	2136.03
747.264	2211.81
747.449	2148.32
747.634	1990.63
747.819	2072.54
748.003	2076.64
748.188	2088.93
748.373	2197.47
748.557	2027.49
748.742	2109.41
748.927	1980.39
749.111	1953.76
749.296	1949.67
749.481	1943.52
749.665	1984.48
749.85	1873.89
750.034	1900.51
750.219	1906.66
750.404	1820.64
750.588	1873.89
750.773	1834.98
750.957	1957.86
751.141	1812.45
751.326	1783.78
751.51	1759.21
751.695	1738.73
751.879	1783.78
752.064	1751.01
752.248	1779.68
752.432	1802.21
752.617	1746.92
752.801	1806.31
752.985	1798.12
753.17	1746.92
753.354	1775.59
753.538	1771.49
753.722	1650.66
753.907	1660.9
754.091	1601.51
754.275	1599.46
754.459	1611.75
754.643	1697.77
754.828	1652.71
755.012	1673.19
755.196	1617.9
755.38	1507.3
755.564	1615.85
755.748	1628.14
755.932	1589.22
756.116	1474.54
756.3	1482.73
756.484	1368.04
756.668	1490.92
756.852	1515.5
757.036	1353.71
757.22	1368.04
757.404	1386.47
757.588	1452.01
757.772	1474.54
757.956	1501.16
758.14	1425.39
758.323	1363.95
758.507	1359.85
758.691	1353.71
758.875	1388.52
759.059	1406.95
759.242	1333.23
759.426	1333.23
759.61	1337.32
759.794	1361.9
759.977	1304.56
760.161	1292.27
760.345	1366
760.528	1308.65
760.712	1304.56
760.895	1376.24
761.079	1273.84
761.263	1273.84
761.446	1329.13
761.63	1222.64
761.813	1314.8
761.997	1200.11
762.18	1181.68
762.364	1218.54
762.547	1130.48
762.731	1255.4
762.914	1232.88
763.098	1204.21
763.281	1120.24
763.464	1251.31
763.648	1126.38
763.831	1198.06
764.015	1116.14
764.198	1167.34
764.381	1212.4
764.564	1167.34
764.748	1130.48
764.931	1234.93
765.114	1193.97
765.297	1136.62
765.481	1023.98
765.664	1171.44
765.847	1107.95
766.03	1114.09
766.213	1023.98
766.397	1058.8
766.58	1140.72
766.763	1124.33
766.946	1028.08
767.129	1159.15
767.312	1013.74
767.495	1091.57
767.678	993.26
767.861	1075.18
768.044	1017.84
768.227	1087.47
768.41	1003.5
768.593	1069.04
768.776	1040.37
768.959	927.73
769.142	1042.42
769.324	993.26
769.507	989.17
769.69	1087.47
769.873	989.17
770.056	1148.91
770.239	1028.08
770.421	1017.84
770.604	974.83
770.787	944.11
770.97	878.58
771.152	890.87
771.335	985.07
771.518	911.35
771.7	997.36
771.883	1007.6
772.066	948.21
772.248	903.15
772.431	862.19
772.613	899.06
772.796	954.35
772.978	974.83
773.161	874.48
773.343	901.11
773.526	1007.6
773.708	839.67
773.891	839.67
774.073	847.86
774.256	925.68
774.438	864.24
774.621	841.72
774.803	872.43
774.985	856.05
775.168	890.87
775.35	849.91
775.532	894.96
775.715	729.08
775.897	856.05
776.079	796.66
776.261	811
776.444	874.48
776.626	829.43
776.808	751.6
776.99	722.93
777.173	708.6
777.355	749.56
777.537	708.6
777.719	727.03
777.901	673.78
778.083	792.56
778.265	677.88
778.447	755.7
778.629	845.81
778.811	712.69
778.993	747.51
779.175	763.89
779.357	690.17
779.539	677.88
779.721	589.82
779.903	671.73
780.085	737.27
780.267	647.16
780.449	626.68
780.631	735.22
780.812	655.35
780.994	620.53
781.176	632.82
781.358	606.2
781.54	571.38
781.721	645.11
781.903	671.73
782.085	606.2
782.267	614.39
782.448	600.05
782.63	598.01
782.812	649.21
782.993	606.2
783.175	579.58
783.357	528.38
783.538	608.25
783.72	624.63
783.901	591.86
784.083	595.96
784.264	538.62
784.446	503.8
784.627	573.43
784.809	460.79
784.99	481.27
785.172	606.2
785.353	511.99
785.535	532.47
785.716	487.42
785.897	509.94
786.079	485.37
786.26	511.99
786.441	489.46
786.623	423.93
786.804	495.61
786.985	520.18
787.167	534.52
787.348	411.64
787.529	514.04
787.71	491.51
787.891	514.04
788.073	481.27
788.254	417.79
788.435	518.14
788.616	471.03
788.797	428.03
788.978	395.26
789.159	417.79
789.34	356.35
789.522	499.7
789.703	417.79
789.884	415.74
790.065	456.7
790.246	497.66
790.427	456.7
790.607	434.17
790.788	405.5
790.969	368.63
791.15	380.92
791.331	370.68
791.512	436.22
791.693	378.87
791.874	389.11
792.054	395.26
792.235	444.41
792.416	299
792.597	329.72
792.778	423.93
792.958	376.83
793.139	339.96
793.32	462.84
793.5	301.05
793.681	323.58
793.862	438.27
794.042	366.59
794.223	442.36
794.404	403.45
794.584	294.91
794.765	401.4
794.945	372.73
795.126	348.15
795.306	370.68
795.487	296.96
795.667	348.15
795.848	380.92
796.028	346.11
796.209	323.58
796.389	337.91
796.57	303.1
796.75	294.91
796.93	309.24
797.111	358.39
797.291	274.43
797.471	258.04
797.652	325.63
797.832	258.04
798.012	327.67
798.192	260.09
798.373	264.19
798.553	258.04
798.733	356.35
798.913	319.48
799.093	282.62
799.274	325.63
799.454	305.15
799.634	313.34
799.814	323.58
799.994	317.44
800.174	299
800.354	247.8
800.534	303.1
800.714	243.71
800.894	200.7
801.074	229.37
801.254	249.85
801.434	249.85
801.614	260.09
801.794	215.04
801.974	702.45
802.154	360.44
802.334	282.62
802.514	315.39
802.693	321.53
802.873	282.62
803.053	301.05
803.233	249.85
803.413	247.8
803.592	282.62
803.772	288.76
803.952	196.61
804.131	235.52
804.311	311.29
804.491	178.17
804.67	253.95
804.85	239.61
805.03	210.94
805.209	221.18
805.389	227.32
805.568	268.28
805.748	243.71
805.928	235.52
806.107	194.56
806.287	270.33
806.466	233.47
806.646	274.43
806.825	204.8
807.004	292.86
807.184	266.24
807.363	253.95
807.543	239.61
807.722	200.7
807.901	284.67
808.081	145.41
808.26	225.28
808.439	278.52
808.619	229.37
808.798	190.46
808.977	233.47
809.156	243.71
809.336	215.04
809.515	174.08
809.694	178.17
809.873	186.37
810.052	268.28
810.231	258.04
810.411	274.43
810.59	217.08
810.769	200.7
810.948	202.75
811.127	210.94
811.306	192.51
811.485	206.84
811.664	243.71
811.843	174.08
812.022	210.94
812.201	114.69
812.38	139.26
812.559	202.75
812.737	186.37
812.916	186.37
813.095	200.7
813.274	188.41
813.453	102.4
813.632	143.36
813.811	131.07
813.989	155.65
814.168	202.75
814.347	108.54
814.526	204.8
814.704	108.54
814.883	141.31
815.062	61.44
815.24	186.37
815.419	98.3
815.598	206.84
815.776	208.89
815.955	174.08
816.133	141.31
816.312	137.21
816.49	190.46
816.669	258.04
816.847	176.13
817.026	147.45
817.204	161.79
817.383	83.97
817.561	141.31
817.74	174.08
817.918	129.02
818.097	124.93
818.275	153.6
818.453	176.13
818.632	139.26
818.81	167.93
818.988	110.59
819.167	188.41
819.345	79.87
819.523	116.73
819.701	192.51
819.879	153.6
820.058	139.26
820.236	192.51
820.414	126.97
820.592	137.21
820.77	202.75
820.948	200.7
821.127	71.68
821.305	126.97
821.483	151.55
821.661	116.73
821.839	157.69
822.017	122.88
822.195	83.97
822.373	106.49
822.551	77.82
822.729	169.98
822.907	129.02
823.085	176.13
823.262	178.17
823.44	61.44
823.618	104.45
823.796	106.49
823.974	120.83
824.152	104.45
824.329	106.49
824.507	145.41
824.685	88.06
824.863	133.12
825.04	65.54
825.218	153.6
825.396	129.02
825.574	133.12
825.751	83.97
825.929	65.54
826.107	53.25
826.284	122.88
826.462	90.11
826.639	100.35
826.817	67.58
826.994	94.21
827.172	118.78
827.349	200.7
827.527	112.64
827.704	79.87
827.882	65.54
828.059	79.87
828.237	126.97
828.414	133.12
828.591	69.63
828.769	104.45
828.946	53.25
829.124	167.93
829.301	122.88
829.478	131.07
829.655	129.02
829.833	79.87
830.01	59.39
830.187	124.93
830.364	133.12
830.542	88.06
830.719	108.54
830.896	131.07
831.073	81.92
831.25	116.73
831.427	124.93
831.604	161.79
831.782	102.4
831.959	141.31
832.136	102.4
832.313	14.34
832.49	53.25
832.667	129.02
832.844	92.16
833.021	129.02
833.198	43.01
833.374	110.59
833.551	20.48
833.728	98.3
833.905	65.54
834.082	88.06
834.259	108.54
834.436	83.97
834.612	98.3
834.789	102.4
834.966	57.34
835.143	20.48
835.319	49.15
835.496	55.3
835.673	108.54
835.85	90.11
836.026	79.87
836.203	149.5
836.38	65.54
836.556	65.54
836.733	45.06
836.909	79.87
837.086	94.21
837.262	71.68
837.439	61.44
837.616	67.58
837.792	51.2
837.968	71.68
838.145	38.91
838.321	145.41
838.498	-18.43
838.674	86.01
838.851	40.96
839.027	59.39
839.203	67.58
839.38	32.77
839.556	43.01
839.732	110.59
839.909	22.53
840.085	92.16
840.261	34.82
840.437	137.21
840.614	79.87
840.79	88.06
840.966	43.01
841.142	71.68
841.318	6.14
841.494	43.01
841.671	114.69
841.847	63.49
842.023	10.24
842.199	79.87
842.375	38.91
842.551	0
842.727	30.72
842.903	135.17
843.079	90.11
843.255	141.31
843.431	55.3
843.607	67.58
843.783	38.91
843.959	6.14
844.134	26.62
844.31	38.91
844.486	-14.34
844.662	34.82
844.838	55.3
845.013	100.35
845.189	10.24
845.365	47.1
845.541	77.82
845.716	49.15
845.892	77.82
846.068	94.21
846.244	32.77
846.419	47.1
846.595	-28.67
846.77	63.49
846.946	51.2
847.122	53.25
847.297	75.77
847.473	124.93
847.648	-2.05
847.824	86.01
847.999	38.91
848.175	49.15
848.35	12.29
848.526	26.62
848.701	71.68
848.876	129.02
849.052	67.58
849.227	47.1
849.403	-6.14
849.578	38.91
849.753	10.24
849.929	96.25
850.104	0
850.279	96.25
850.454	2.05
850.63	124.93
850.805	26.62
850.98	24.58
851.155	34.82
851.33	-8.19
851.505	28.67
851.681	98.3
851.856	-24.58
852.031	26.62
852.206	147.45
852.381	18.43
852.556	20.48
852.731	102.4
852.906	71.68
853.081	26.62
853.256	77.82
853.431	38.91
853.606	51.2
853.781	2.05
853.956	108.54
854.131	106.49
854.305	30.72
854.48	-6.14
854.655	12.29
854.83	22.53
855.005	-30.72
855.18	47.1
855.354	8.19
855.529	65.54
855.704	26.62
855.879	67.58
856.053	40.96
856.228	22.53
856.403	-59.39
856.577	69.63
856.752	49.15
856.926	53.25
857.101	71.68
857.276	49.15
857.45	-38.91
857.625	77.82
857.799	129.02
857.974	24.58
858.148	30.72
858.323	47.1
858.497	6.14
858.672	12.29
858.846	-6.14
859.02	47.1
859.195	-12.29
859.369	32.77
859.543	55.3
859.718	96.25
859.892	40.96
860.066	38.91
860.241	40.96
860.415	20.48
860.589	47.1
860.763	51.2
860.938	6.14
861.112	55.3
861.286	53.25
861.46	40.96
861.634	75.77
861.808	16.38
861.982	30.72
862.157	57.34
862.331	22.53
862.505	79.87
862.679	-4.1
862.853	-8.19
863.027	14.34
863.201	45.06
863.375	26.62
863.549	26.62
863.722	100.35
863.896	79.87
864.07	24.58
864.244	-16.38
864.418	-16.38
864.592	69.63
864.766	2.05
864.939	-14.34
865.113	24.58
865.287	34.82
865.461	-10.24
865.634	77.82
865.808	88.06
865.982	-8.19
866.156	24.58
866.329	-18.43
866.503	-65.54
866.676	28.67
866.85	26.62
867.024	98.3
867.197	0
867.371	32.77
867.544	22.53
867.718	49.15
867.891	24.58
868.065	61.44
868.238	4.1
868.412	20.48
868.585	14.34
868.759	-32.77
868.932	30.72
869.105	34.82
869.279	49.15
869.452	-59.39
869.625	38.91
869.799	-10.24
869.972	-92.16
870.145	-14.34
870.319	24.58
870.492	24.58
870.665	-2.05
870.838	34.82
871.011	0
871.185	77.82
871.358	26.62
871.531	-12.29
871.704	-28.67
871.877	28.67
872.05	34.82
872.223	83.97
872.396	14.34
872.569	14.34
872.742	0
872.915	-20.48
873.088	75.77
873.261	-28.67
873.434	18.43
873.607	16.38
873.78	12.29
873.953	-22.53
874.126	-34.82
874.299	67.58
874.471	30.72
874.644	26.62
874.817	28.67
874.99	34.82
875.163	-40.96
875.335	110.59
875.508	51.2
875.681	65.54
875.853	63.49
876.026	22.53
876.199	-26.62
876.371	-49.15
876.544	-20.48
876.717	61.44
876.889	51.2
877.062	67.58
877.234	8.19
877.407	-10.24
877.579	16.38
877.752	92.16
877.924	43.01
878.097	-8.19
878.269	-34.82
878.442	-26.62
878.614	26.62
878.786	-14.34
878.959	26.62
879.131	90.11
879.303	24.58
879.476	-69.63
879.648	8.19
879.82	-16.38
879.993	43.01
880.165	55.3
880.337	-26.62
880.509	40.96
880.681	30.72
880.854	10.24
881.026	34.82
881.198	81.92
881.37	45.06
881.542	55.3
881.714	90.11
881.886	28.67
882.058	106.49
882.23	90.11
882.402	-81.92
882.574	57.34
882.746	-18.43
882.918	81.92
883.09	49.15
883.262	45.06
883.434	38.91
883.606	36.86
883.778	-26.62
883.95	-4.1
884.122	18.43
884.293	28.67
884.465	2.05
884.637	-47.1
884.809	-6.14
884.98	47.1
885.152	32.77
885.324	34.82
885.496	-10.24
885.667	30.72
885.839	79.87
886.011	59.39
886.182	-8.19
886.354	51.2
886.525	-18.43
886.697	14.34
886.869	69.63
887.04	24.58
887.212	92.16
887.383	32.77
887.555	79.87
887.726	53.25
887.897	38.91
888.069	71.68
888.24	71.68
888.412	-4.1
888.583	-14.34
888.754	22.53
888.926	-34.82
889.097	0
889.268	-73.73
889.44	32.77
889.611	32.77
889.782	49.15
889.953	2.05
890.125	86.01
890.296	-20.48
890.467	73.73
890.638	94.21
890.809	16.38
890.98	-4.1
891.151	-4.1
891.323	-22.53
891.494	32.77
891.665	45.06
891.836	75.77
892.007	16.38
892.178	51.2
892.349	24.58
892.52	-2.05
892.691	-36.86
892.862	4.1
893.032	30.72
893.203	47.1
893.374	-53.25
893.545	32.77
893.716	-57.34
893.887	98.3
894.057	-20.48
894.228	6.14
894.399	-55.3
894.57	28.67
894.74	28.67
894.911	6.14
895.082	-40.96
895.253	0
895.423	-24.58
895.594	18.43
895.764	24.58
895.935	20.48
896.106	-4.1
896.276	-61.44
896.447	4.1
896.617	61.44
896.788	-6.14
896.958	4.1
897.129	-14.34
897.299	112.64
897.47	100.35
897.64	47.1
897.81	-18.43
897.981	38.91
898.151	45.06
898.322	-8.19
898.492	-40.96
898.662	18.43
898.832	12.29
899.003	-6.14
899.173	61.44
899.343	-22.53
899.513	6.14
