Data from USB4F104151__57__11-52-26-762.txt Node

Date: Fri Mar 14 11:52:26 EDT 2025
User: louis
Spectrometer: USB4F10415
Trigger mode: 4
Integration Time (sec): 2.000000E-2
Scans to average: 1
Electric dark correction enabled: true
Nonlinearity correction enabled: false
Boxcar width: 0
XAxis mode: Wavelengths
Number of Pixels in Spectrum: 3648
>>>>>Begin Spectral Data<<<<<
178.204	-149.84
178.424	-149.84
178.644	-149.84
178.864	-135.51
179.084	28.33
179.304	-29.01
179.524	20.14
179.744	-20.82
179.964	40.62
180.184	-20.82
180.404	40.62
180.624	22.19
180.844	32.43
181.064	-47.44
181.283	-2.39
181.503	-20.82
181.723	-14.68
181.943	-18.77
182.163	34.47
182.383	7.85
182.602	-6.49
182.822	-8.53
183.042	20.14
183.262	36.52
183.482	18.09
183.701	5.8
183.921	38.57
184.141	54.95
184.361	59.05
184.58	50.86
184.8	36.52
185.02	52.91
185.239	16.04
185.459	42.67
185.679	-20.82
185.898	-18.77
186.118	7.85
186.338	-10.58
186.557	36.52
186.777	-24.92
186.997	-18.77
187.216	24.23
187.436	69.29
187.655	59.05
187.875	54.95
188.095	3.75
188.314	5.8
188.534	-37.2
188.753	26.28
188.973	28.33
189.192	42.67
189.412	-2.39
189.631	-4.44
189.851	38.57
190.07	46.76
190.29	-31.06
190.509	-12.63
190.729	54.95
190.948	-29.01
191.168	91.82
191.387	22.19
191.607	69.29
191.826	-16.73
192.045	-12.63
192.265	7.85
192.484	63.15
192.704	-65.88
192.923	13.99
193.142	100.01
193.362	-0.34
193.581	46.76
193.8	54.95
194.02	32.43
194.239	-0.34
194.458	13.99
194.678	24.23
194.897	34.47
195.116	-2.39
195.335	63.15
195.555	16.04
195.774	44.71
195.993	20.14
196.212	-20.82
196.432	-31.06
196.651	16.04
196.87	30.38
197.089	89.77
197.308	48.81
197.528	24.23
197.747	-6.49
197.966	75.43
198.185	54.95
198.404	-14.68
198.623	50.86
198.842	-33.11
199.062	11.95
199.281	102.06
199.5	-24.92
199.719	9.9
199.938	-16.73
200.157	44.71
200.376	-0.34
200.595	20.14
200.814	42.67
201.033	32.43
201.252	7.85
201.471	-16.73
201.69	28.33
201.909	69.29
202.128	16.04
202.347	32.43
202.566	-49.49
202.785	89.77
203.004	-8.53
203.223	32.43
203.442	-10.58
203.661	11.95
203.879	13.99
204.098	71.34
204.317	-0.34
204.536	30.38
204.755	34.47
204.974	28.33
205.193	54.95
205.411	42.67
205.63	-4.44
205.849	20.14
206.068	44.71
206.287	-67.92
206.505	34.47
206.724	81.58
206.943	-43.35
207.162	13.99
207.381	-8.53
207.599	1.71
207.818	34.47
208.037	36.52
208.255	-26.96
208.474	42.67
208.693	7.85
208.911	67.24
209.13	11.95
209.349	28.33
209.567	-57.68
209.786	75.43
210.005	48.81
210.223	38.57
210.442	24.23
210.661	11.95
210.879	1.71
211.098	-8.53
211.316	22.19
211.535	11.95
211.753	32.43
211.972	13.99
212.191	18.09
212.409	34.47
212.628	-8.53
212.846	-6.49
213.065	20.14
213.283	18.09
213.502	52.91
213.72	22.19
213.938	57
214.157	-24.92
214.375	11.95
214.594	-4.44
214.812	-29.01
215.031	77.48
215.249	93.87
215.467	126.63
215.686	-14.68
215.904	32.43
216.122	32.43
216.341	50.86
216.559	-22.87
216.778	63.15
216.996	11.95
217.214	59.05
217.432	32.43
217.651	16.04
217.869	7.85
218.087	1.71
218.306	75.43
218.524	-8.53
218.742	-8.53
218.96	11.95
219.179	36.52
219.397	93.87
219.615	81.58
219.833	-4.44
220.051	81.58
220.27	59.05
220.488	3.75
220.706	46.76
220.924	11.95
221.142	85.67
221.36	-26.96
221.578	1.71
221.796	-18.77
222.015	46.76
222.233	3.75
222.451	9.9
222.669	7.85
222.887	54.95
223.105	-59.73
223.323	26.28
223.541	-18.77
223.759	9.9
223.977	34.47
224.195	44.71
224.413	5.8
224.631	73.39
224.849	-22.87
225.067	79.53
225.285	-6.49
225.503	59.05
225.721	-6.49
225.939	95.91
226.157	46.76
226.375	63.15
226.592	-18.77
226.81	46.76
227.028	18.09
227.246	30.38
227.464	-33.11
227.682	9.9
227.9	-0.34
228.117	13.99
228.335	24.23
228.553	-47.44
228.771	52.91
228.989	40.62
229.206	1.71
229.424	50.86
229.642	-6.49
229.86	26.28
230.077	69.29
230.295	38.57
230.513	-41.3
230.731	50.86
230.948	13.99
231.166	91.82
231.384	61.1
231.601	-63.83
231.819	16.04
232.037	-37.2
232.254	48.81
232.472	-31.06
232.689	28.33
232.907	9.9
233.125	20.14
233.342	46.76
233.56	-49.49
233.777	3.75
233.995	46.76
234.213	108.2
234.43	18.09
234.648	16.04
234.865	30.38
235.083	40.62
235.3	79.53
235.518	85.67
235.735	50.86
235.953	-4.44
236.17	1.71
236.388	34.47
236.605	44.71
236.822	95.91
237.04	20.14
237.257	-35.16
237.475	69.29
237.692	36.52
237.909	9.9
238.127	22.19
238.344	77.48
238.562	20.14
238.779	-26.96
238.996	-10.58
239.214	-29.01
239.431	28.33
239.648	-0.34
239.865	63.15
240.083	93.87
240.3	36.52
240.517	-2.39
240.735	32.43
240.952	97.96
241.169	28.33
241.386	59.05
241.603	-10.58
241.821	71.34
242.038	65.19
242.255	77.48
242.472	46.76
242.689	9.9
242.907	-6.49
243.124	5.8
243.341	5.8
243.558	61.1
243.775	50.86
243.992	-61.78
244.209	57
244.426	-78.16
244.643	87.72
244.86	-61.78
245.078	20.14
245.295	-0.34
245.512	108.2
245.729	34.47
245.946	77.48
246.163	67.24
246.38	-2.39
246.597	46.76
246.814	-8.53
247.031	-24.92
247.248	75.43
247.464	40.62
247.681	63.15
247.898	-8.53
248.115	44.71
248.332	7.85
248.549	18.09
248.766	11.95
248.983	95.91
249.2	9.9
249.417	-4.44
249.633	44.71
249.85	71.34
250.067	7.85
250.284	18.09
250.501	63.15
250.717	11.95
250.934	36.52
251.151	34.47
251.368	30.38
251.585	5.8
251.801	32.43
252.018	5.8
252.235	61.1
252.451	34.47
252.668	48.81
252.885	34.47
253.102	-26.96
253.318	32.43
253.535	5.8
253.752	11.95
253.968	32.43
254.185	38.57
254.401	30.38
254.618	-10.58
254.835	-20.82
255.051	87.72
255.268	30.38
255.484	-12.63
255.701	28.33
255.917	61.1
256.134	-55.64
256.351	38.57
256.567	50.86
256.784	36.52
257	22.19
257.217	40.62
257.433	-29.01
257.65	44.71
257.866	7.85
258.082	22.19
258.299	-45.4
258.515	71.34
258.732	-72.02
258.948	65.19
259.165	-33.11
259.381	-4.44
259.597	-8.53
259.814	7.85
260.03	16.04
260.246	40.62
260.463	40.62
260.679	48.81
260.895	30.38
261.112	-29.01
261.328	-24.92
261.544	-16.73
261.761	116.39
261.977	-37.2
262.193	-33.11
262.409	91.82
262.626	54.95
262.842	54.95
263.058	-43.35
263.274	71.34
263.49	26.28
263.707	118.44
263.923	-2.39
264.139	-6.49
264.355	9.9
264.571	83.63
264.787	1.71
265.004	7.85
265.22	26.28
265.436	13.99
265.652	79.53
265.868	1.71
266.084	32.43
266.3	52.91
266.516	20.14
266.732	52.91
266.948	-45.4
267.164	65.19
267.38	-12.63
267.596	40.62
267.812	114.34
268.028	-22.87
268.244	89.77
268.46	93.87
268.676	50.86
268.892	89.77
269.108	42.67
269.324	13.99
269.54	32.43
269.756	73.39
269.972	9.9
270.188	89.77
270.403	-24.92
270.619	-8.53
270.835	5.8
271.051	-59.73
271.267	-29.01
271.483	-20.82
271.698	26.28
271.914	65.19
272.13	16.04
272.346	-37.2
272.562	36.52
272.777	26.28
272.993	-55.64
273.209	26.28
273.425	57
273.64	52.91
273.856	40.62
274.072	24.23
274.287	-10.58
274.503	42.67
274.719	-33.11
274.934	34.47
275.15	-16.73
275.366	38.57
275.581	30.38
275.797	63.15
276.012	32.43
276.228	18.09
276.444	5.8
276.659	52.91
276.875	48.81
277.09	-22.87
277.306	108.2
277.521	13.99
277.737	54.95
277.952	22.19
278.168	26.28
278.383	112.3
278.599	11.95
278.814	110.25
279.03	-20.82
279.245	32.43
279.461	26.28
279.676	40.62
279.892	-0.34
280.107	26.28
280.322	81.58
280.538	13.99
280.753	-4.44
280.969	-31.06
281.184	28.33
281.399	61.1
281.615	22.19
281.83	63.15
282.045	52.91
282.26	65.19
282.476	3.75
282.691	54.95
282.906	3.75
283.122	73.39
283.337	26.28
283.552	36.52
283.767	38.57
283.983	67.24
284.198	28.33
284.413	48.81
284.628	44.71
284.843	-26.96
285.058	24.23
285.274	-33.11
285.489	20.14
285.704	63.15
285.919	3.75
286.134	44.71
286.349	38.57
286.564	9.9
286.779	3.75
286.995	40.62
287.21	-18.77
287.425	-12.63
287.64	11.95
287.855	38.57
288.07	13.99
288.285	32.43
288.5	61.1
288.715	9.9
288.93	-24.92
289.145	-29.01
289.36	100.01
289.575	63.15
289.79	-0.34
290.004	50.86
290.219	57
290.434	81.58
290.649	-4.44
290.864	-14.68
291.079	36.52
291.294	26.28
291.509	52.91
291.724	28.33
291.938	9.9
292.153	57
292.368	81.58
292.583	85.67
292.798	-0.34
293.012	38.57
293.227	-12.63
293.442	26.28
293.657	13.99
293.871	93.87
294.086	-0.34
294.301	48.81
294.516	26.28
294.73	5.8
294.945	1.71
295.16	44.71
295.374	-12.63
295.589	57
295.804	28.33
296.018	65.19
296.233	-18.77
296.447	63.15
296.662	73.39
296.877	63.15
297.091	13.99
297.306	36.52
297.52	26.28
297.735	71.34
297.949	20.14
298.164	59.05
298.378	1.71
298.593	24.23
298.807	36.52
299.022	-12.63
299.236	50.86
299.451	3.75
299.665	-8.53
299.88	59.05
300.094	57
300.309	104.11
300.523	73.39
300.737	24.23
300.952	-29.01
301.166	87.72
301.381	63.15
301.595	11.95
301.809	7.85
302.024	42.67
302.238	5.8
302.452	40.62
302.667	36.52
302.881	-6.49
303.095	46.76
303.309	-18.77
303.524	61.1
303.738	97.96
303.952	-37.2
304.166	100.01
304.381	-6.49
304.595	54.95
304.809	50.86
305.023	5.8
305.237	22.19
305.452	63.15
305.666	-14.68
305.88	22.19
306.094	42.67
306.308	65.19
306.522	7.85
306.736	77.48
306.95	85.67
307.164	-33.11
307.379	-31.06
307.593	81.58
307.807	7.85
308.021	32.43
308.235	7.85
308.449	7.85
308.663	-8.53
308.877	26.28
309.091	9.9
309.305	-33.11
309.519	-4.44
309.733	40.62
309.947	-51.54
310.161	-6.49
310.374	81.58
310.588	7.85
310.802	30.38
311.016	-18.77
311.23	44.71
311.444	65.19
311.658	87.72
311.872	48.81
312.085	-8.53
312.299	26.28
312.513	-2.39
312.727	63.15
312.941	7.85
313.154	97.96
313.368	22.19
313.582	114.34
313.796	9.9
314.009	44.71
314.223	44.71
314.437	24.23
314.651	48.81
314.864	-4.44
315.078	28.33
315.292	11.95
315.505	57
315.719	100.01
315.933	11.95
316.146	100.01
316.36	7.85
316.573	1.71
316.787	57
317.001	24.23
317.214	-115.03
317.428	44.71
317.641	-29.01
317.855	9.9
318.068	16.04
318.282	48.81
318.495	79.53
318.709	71.34
318.922	130.73
319.136	3.75
319.349	-8.53
319.563	-0.34
319.776	5.8
319.99	61.1
320.203	69.29
320.417	34.47
320.63	57
320.843	63.15
321.057	42.67
321.27	34.47
321.483	151.21
321.697	75.43
321.91	40.62
322.124	54.95
322.337	18.09
322.55	-88.4
322.763	5.8
322.977	7.85
323.19	59.05
323.403	75.43
323.617	-12.63
323.83	38.57
324.043	-22.87
324.256	77.48
324.469	13.99
324.683	106.15
324.896	59.05
325.109	97.96
325.322	63.15
325.535	44.71
325.748	61.1
325.962	13.99
326.175	-18.77
326.388	9.9
326.601	46.76
326.814	32.43
327.027	-8.53
327.24	71.34
327.453	-18.77
327.666	75.43
327.879	42.67
328.092	24.23
328.305	-55.64
328.518	24.23
328.731	-2.39
328.944	-51.54
329.157	16.04
329.37	108.2
329.583	63.15
329.796	11.95
330.009	11.95
330.222	63.15
330.435	26.28
330.648	54.95
330.861	77.48
331.073	38.57
331.286	50.86
331.499	36.52
331.712	9.9
331.925	9.9
332.138	38.57
332.35	-2.39
332.563	3.75
332.776	69.29
332.989	-16.73
333.202	9.9
333.414	-20.82
333.627	69.29
333.84	61.1
334.053	42.67
334.265	-22.87
334.478	108.2
334.691	-0.34
334.903	-10.58
335.116	-8.53
335.329	75.43
335.541	28.33
335.754	5.8
335.966	13.99
336.179	40.62
336.392	-18.77
336.604	-0.34
336.817	75.43
337.029	69.29
337.242	7.85
337.454	16.04
337.667	44.71
337.88	32.43
338.092	40.62
338.305	26.28
338.517	40.62
338.729	69.29
338.942	44.71
339.154	-18.77
339.367	18.09
339.579	-33.11
339.792	-22.87
340.004	-18.77
340.217	46.76
340.429	32.43
340.641	54.95
340.854	69.29
341.066	-45.4
341.278	65.19
341.491	104.11
341.703	16.04
341.915	-80.21
342.128	151.21
342.34	-8.53
342.552	46.76
342.764	44.71
342.977	-39.25
343.189	-39.25
343.401	-2.39
343.613	59.05
343.826	136.87
344.038	5.8
344.25	79.53
344.462	28.33
344.674	-24.92
344.886	50.86
345.099	30.38
345.311	-16.73
345.523	54.95
345.735	-0.34
345.947	57
346.159	-14.68
346.371	-4.44
346.583	7.85
346.795	106.15
347.007	18.09
347.219	11.95
347.431	13.99
347.643	28.33
347.855	13.99
348.067	100.01
348.279	5.8
348.491	44.71
348.703	67.24
348.915	61.1
349.127	5.8
349.339	73.39
349.551	81.58
349.763	73.39
349.975	40.62
350.187	89.77
350.399	32.43
350.61	81.58
350.822	59.05
351.034	91.82
351.246	61.1
351.458	42.67
351.669	22.19
351.881	24.23
352.093	50.86
352.305	61.1
352.517	22.19
352.728	52.91
352.94	34.47
353.152	65.19
353.363	61.1
353.575	108.2
353.787	116.39
353.999	81.58
354.21	104.11
354.422	63.15
354.633	128.68
354.845	9.9
355.057	-12.63
355.268	50.86
355.48	22.19
355.692	48.81
355.903	30.38
356.115	69.29
356.326	-49.49
356.538	40.62
356.749	-4.44
356.961	38.57
357.172	50.86
357.384	26.28
357.595	89.77
357.807	75.43
358.018	-26.96
358.23	22.19
358.441	75.43
358.653	100.01
358.864	65.19
359.075	22.19
359.287	59.05
359.498	18.09
359.709	9.9
359.921	-24.92
360.132	42.67
360.344	-45.4
360.555	-6.49
360.766	65.19
360.977	-22.87
361.189	75.43
361.4	46.76
361.611	40.62
361.823	-18.77
362.034	26.28
362.245	28.33
362.456	73.39
362.667	-6.49
362.879	-16.73
363.09	48.81
363.301	69.29
363.512	-0.34
363.723	16.04
363.935	63.15
364.146	7.85
364.357	20.14
364.568	40.62
364.779	16.04
364.99	112.3
365.201	-14.68
365.412	-14.68
365.623	-8.53
365.834	100.01
366.045	71.34
366.256	65.19
366.467	61.1
366.678	-18.77
366.889	24.23
367.1	122.54
367.311	32.43
367.522	-35.16
367.733	13.99
367.944	93.87
368.155	22.19
368.366	106.15
368.577	59.05
368.788	24.23
368.999	40.62
369.209	100.01
369.42	140.97
369.631	61.1
369.842	40.62
370.053	54.95
370.264	77.48
370.474	16.04
370.685	-12.63
370.896	32.43
371.107	40.62
371.317	9.9
371.528	-29.01
371.739	46.76
371.95	63.15
372.16	11.95
372.371	7.85
372.582	67.24
372.792	-2.39
373.003	71.34
373.214	-4.44
373.424	48.81
373.635	-16.73
373.846	34.47
374.056	5.8
374.267	13.99
374.477	75.43
374.688	73.39
374.898	75.43
375.109	67.24
375.319	161.45
375.53	67.24
375.74	95.91
375.951	42.67
376.161	-20.82
376.372	97.96
376.582	36.52
376.793	-8.53
377.003	20.14
377.214	26.28
377.424	87.72
377.635	65.19
377.845	54.95
378.055	89.77
378.266	36.52
378.476	59.05
378.686	32.43
378.897	71.34
379.107	87.72
379.317	22.19
379.528	106.15
379.738	16.04
379.948	38.57
380.158	67.24
380.369	69.29
380.579	91.82
380.789	11.95
380.999	149.16
381.21	163.5
381.42	93.87
381.63	-14.68
381.84	5.8
382.05	59.05
382.261	7.85
382.471	-43.35
382.681	16.04
382.891	46.76
383.101	77.48
383.311	61.1
383.521	48.81
383.731	-37.2
383.941	38.57
384.151	50.86
384.361	71.34
384.571	3.75
384.781	46.76
384.991	50.86
385.201	63.15
385.411	24.23
385.621	77.48
385.831	52.91
386.041	26.28
386.251	83.63
386.461	40.62
386.671	118.44
386.881	16.04
387.091	1.71
387.301	54.95
387.511	3.75
387.72	118.44
387.93	-16.73
388.14	9.9
388.35	50.86
388.56	104.11
388.769	171.69
388.979	44.71
389.189	32.43
389.399	63.15
389.609	57
389.818	75.43
390.028	95.91
390.238	50.86
390.447	50.86
390.657	40.62
390.867	-49.49
391.076	32.43
391.286	48.81
391.496	-0.34
391.705	38.57
391.915	106.15
392.125	67.24
392.334	57
392.544	9.9
392.753	114.34
392.963	1.71
393.172	42.67
393.382	71.34
393.591	52.91
393.801	30.38
394.01	97.96
394.22	83.63
394.429	77.48
394.639	3.75
394.848	114.34
395.058	34.47
395.267	112.3
395.477	130.73
395.686	59.05
395.895	87.72
396.105	71.34
396.314	108.2
396.524	48.81
396.733	69.29
396.942	151.21
397.152	50.86
397.361	28.33
397.57	50.86
397.78	61.1
397.989	28.33
398.198	93.87
398.407	120.49
398.617	-0.34
398.826	26.28
399.035	114.34
399.244	79.53
399.453	112.3
399.663	143.02
399.872	118.44
400.081	50.86
400.29	59.05
400.499	42.67
400.708	153.26
400.917	108.2
401.127	85.67
401.336	40.62
401.545	151.21
401.754	61.1
401.963	177.83
402.172	157.35
402.381	81.58
402.59	91.82
402.799	65.19
403.008	153.26
403.217	112.3
403.426	50.86
403.635	112.3
403.844	140.97
404.053	149.16
404.262	116.39
404.471	67.24
404.68	104.11
404.888	196.26
405.097	102.06
405.306	169.64
405.515	118.44
405.724	149.16
405.933	171.69
406.142	124.58
406.35	218.79
406.559	167.59
406.768	116.39
406.977	202.41
407.185	233.13
407.394	288.42
407.603	177.83
407.812	235.18
408.02	216.74
408.229	214.7
408.438	153.26
408.646	224.94
408.855	231.08
409.064	229.03
409.272	216.74
409.481	313
409.69	263.85
409.898	278.18
410.107	296.61
410.315	267.94
410.524	278.18
410.733	317.09
410.941	329.38
411.15	321.19
411.358	280.23
411.567	370.34
411.775	339.62
411.984	286.37
412.192	351.91
412.401	413.35
412.609	409.25
412.818	511.65
413.026	433.83
413.234	433.83
413.443	515.75
413.651	525.99
413.86	550.56
414.068	507.55
414.276	489.12
414.485	554.66
414.693	577.19
414.901	618.15
415.11	575.14
415.318	571.04
415.526	652.96
415.734	693.92
415.943	698.02
416.151	741.02
416.359	648.86
416.567	751.26
416.776	738.98
416.984	923.29
417.192	761.5
417.4	831.13
417.608	951.96
417.817	949.92
418.025	941.72
418.233	1078.94
418.441	941.72
418.649	1128.09
418.857	1029.79
419.065	1052.31
419.273	1105.56
419.481	1189.53
419.689	1287.83
419.897	1302.17
420.105	1357.46
420.313	1414.81
420.521	1437.33
420.729	1547.92
420.937	1584.79
421.145	1666.71
421.353	1678.99
421.561	1693.33
421.769	1715.86
421.977	1865.36
422.185	1797.78
422.393	1783.44
422.601	1980.04
422.809	1916.56
423.017	2107.02
423.224	2096.78
423.432	2258.57
423.64	2219.66
423.848	2344.58
424.056	2320.01
424.263	2512.52
424.471	2598.53
424.679	2580.1
424.887	2733.7
425.094	2760.32
425.302	2772.61
425.51	2940.54
425.718	3085.95
425.925	3075.71
426.133	3104.38
426.341	3393.14
426.548	3501.69
426.756	3483.25
426.964	3577.46
427.171	3704.43
427.379	3729.01
427.586	3915.37
427.794	4138.6
428.001	4292.2
428.209	4468.33
428.417	4361.83
428.624	4656.74
428.832	4730.47
429.039	4597.35
429.247	4709.99
429.454	4988.51
429.662	5287.51
429.869	5101.15
430.076	5465.69
430.284	5283.42
430.491	5602.9
430.699	5744.21
430.906	5582.42
431.114	5783.12
431.321	6067.79
431.528	6202.96
431.736	6405.7
431.943	6745.67
432.15	6821.44
432.358	6817.35
432.565	7200.32
432.772	7298.62
432.979	7595.57
433.187	7421.5
433.394	7636.53
433.601	8240.68
433.808	8232.49
434.016	8189.49
434.223	8388.14
434.43	9158.17
434.637	8885.8
434.844	9252.38
435.052	9526.81
435.259	9549.34
435.466	9547.29
435.673	9408.03
435.88	9999.89
436.087	10702.34
436.294	10677.77
436.501	10198.54
436.708	10642.95
436.915	11095.55
437.122	11177.47
437.329	11419.13
437.537	11748.86
437.743	12064.24
437.95	12156.4
438.157	12592.62
438.364	12842.47
438.571	12660.2
438.778	13086.18
438.985	14237.14
439.192	13723.1
439.399	14034.39
439.606	13743.58
439.813	14607.82
440.02	15252.93
440.227	15125.96
440.433	15142.34
440.64	15388.1
440.847	15685.05
441.054	15844.79
441.261	16606.64
441.467	16448.94
441.674	16946.6
441.881	17450.4
442.088	17503.65
442.294	17425.82
442.501	17606.05
442.708	18095.51
442.914	19031.43
443.121	19565.95
443.328	18961.8
443.534	20335.99
443.741	19776.89
443.948	19545.47
444.154	21200.23
444.361	21036.39
444.568	21327.21
444.774	21212.52
444.981	21542.24
445.187	22189.4
445.394	22859.09
445.6	22531.41
445.807	24552.76
446.013	23885.12
446.22	24268.09
446.426	25040.17
446.633	25341.22
446.839	26379.54
447.046	25410.85
447.252	26277.15
447.459	26580.25
447.665	26580.25
447.871	27284.75
448.078	28710.13
448.284	27505.93
448.491	27843.84
448.697	29381.87
448.903	29244.65
449.11	29654.25
449.316	29347.05
449.522	30086.37
449.728	30731.48
449.935	30602.46
450.141	30698.71
450.347	31798.47
450.553	30596.31
450.76	31091.92
450.966	31888.58
451.172	31917.25
451.378	32728.25
451.584	31890.63
451.791	32736.44
451.997	32210.11
452.203	32855.22
452.409	33344.69
452.615	32806.07
452.821	31470.79
453.027	31220.94
453.233	33176.75
453.44	31775.94
453.646	31941.83
453.852	32128.19
454.058	32855.22
454.264	31866.05
454.47	32619.7
454.676	31845.57
454.882	32390.33
455.088	29990.11
455.294	30319.84
455.5	30444.76
455.705	31069.39
455.911	29639.91
456.117	28931.31
456.323	28640.5
456.529	27098.38
456.735	28589.3
456.941	27989.25
457.147	27309.32
457.352	26281.24
457.558	26207.51
457.764	26049.82
457.97	25775.39
458.176	25115.95
458.381	25031.98
458.587	23932.22
458.793	23860.54
458.999	22644.05
459.204	24319.29
459.41	23436.61
459.616	22009.18
459.821	22205.78
460.027	22025.56
460.233	21284.2
460.438	20548.98
460.644	20899.18
460.85	19754.37
461.055	19432.83
461.261	19518.85
461.466	18070.93
461.672	17511.84
461.878	18732.43
462.083	17288.61
462.289	17098.15
462.494	16962.98
462.7	16156.08
462.905	15488.45
463.111	16426.42
463.316	16270.77
463.522	16221.62
463.727	15904.18
463.932	15740.35
464.138	16057.78
464.343	15963.58
464.549	15369.66
464.754	15781.31
464.959	15664.57
465.165	15951.29
465.37	14974.41
465.575	14585.29
465.781	15437.25
465.986	15500.73
466.191	14937.54
466.397	14495.18
466.602	13784.54
466.807	14503.37
467.012	14429.65
467.218	14249.43
467.423	14075.35
467.628	14083.54
467.833	14691.79
468.038	14208.47
468.244	13780.44
468.449	14192.08
468.654	13880.79
468.859	13751.77
469.064	13518.3
469.269	13053.41
469.474	13299.17
469.679	13630.94
469.885	13098.47
470.09	13143.52
470.295	13393.37
470.5	12967.4
470.705	12875.24
470.91	12668.39
471.115	12572.14
471.32	12641.77
471.525	12643.82
471.73	12365.29
471.935	12455.4
472.139	12072.43
472.344	12011
472.549	11947.51
472.754	11914.74
472.959	11734.52
473.164	11214.34
473.369	10956.29
473.574	11458.04
473.778	11421.18
473.983	11447.8
474.188	11499
474.393	10958.34
474.598	10917.38
474.802	10737.16
475.007	10683.91
475.212	10692.1
475.417	10300.94
475.621	10255.89
475.826	10313.23
476.031	10169.87
476.235	9887.25
476.44	10188.3
476.645	9827.86
476.849	9854.48
477.054	9836.05
477.259	9635.35
477.463	9860.63
477.668	9608.73
477.872	9522.71
478.077	9272.86
478.282	9090.59
478.486	9139.74
478.691	9012.77
478.895	9152.03
479.1	9020.96
479.304	8789.54
479.509	8697.38
479.713	8840.74
479.918	8588.84
480.122	8670.76
480.326	8660.52
480.531	8515.11
480.735	8609.32
480.94	8492.59
481.144	8728.1
481.348	8154.67
481.553	8433.19
481.757	8164.91
481.961	8338.99
482.166	8609.32
482.37	8455.72
482.574	8119.85
482.778	8402.47
482.983	8390.19
483.187	8500.78
483.391	8212.01
483.595	8443.43
483.8	8242.73
484.004	8308.27
484.208	8535.59
484.412	8371.75
484.616	8326.7
484.821	8130.09
485.025	8216.11
485.229	8279.6
485.433	8205.87
485.637	8203.82
485.841	8316.46
486.045	8279.6
486.249	8359.47
486.453	8121.9
486.657	8152.62
486.861	8273.45
487.065	8072.75
487.269	8164.91
487.473	8029.74
487.677	8396.33
487.881	8349.23
488.085	8312.36
488.289	8263.21
488.493	8295.98
488.697	8447.53
488.901	8437.29
489.105	8295.98
489.309	8275.5
489.512	8400.43
489.716	8433.19
489.92	8418.86
490.124	8384.04
490.328	8631.85
490.531	8451.63
490.735	8545.83
490.939	8484.39
491.143	8658.47
491.346	8547.88
491.55	8633.89
491.754	8633.89
491.958	8715.81
492.161	8588.84
492.365	8799.78
492.569	8771.11
492.772	8672.81
492.976	8750.63
493.18	8707.62
493.383	8984.1
493.587	8969.76
493.79	8973.86
493.994	8883.75
494.197	9135.65
494.401	9221.66
494.605	9217.57
494.808	9354.78
495.012	9231.9
495.215	9309.72
495.419	9549.34
495.622	9453.08
495.825	9682.45
496.029	9641.5
496.232	9891.35
496.436	9719.32
496.639	10169.87
496.843	9944.59
497.046	10122.77
497.249	10173.97
497.453	10165.78
497.656	10395.15
497.859	10378.76
498.063	10556.94
498.266	10878.47
498.469	10565.13
498.673	10651.14
498.876	11058.69
499.079	11169.28
499.282	11101.7
499.485	11326.97
499.689	11460.09
499.892	11580.92
500.095	11609.59
500.298	11953.65
500.501	11630.07
500.705	12097.01
500.908	12195.31
501.111	12402.16
501.314	12479.98
501.517	12549.61
501.72	12654.06
501.923	12520.94
502.126	12910.05
502.329	13123.04
502.532	13026.79
502.735	13241.82
502.938	13161.95
503.141	13372.89
503.344	13755.86
503.547	13716.95
503.75	14081.49
503.953	14532.04
504.156	14278.1
504.359	14538.19
504.562	14400.97
504.765	14953.93
504.968	15035.85
505.17	15048.13
505.373	14931.4
505.576	15592.89
505.779	15646.14
505.982	15732.15
506.185	16182.71
506.387	15982.01
506.59	15857.08
506.793	16715.18
506.996	16362.93
507.198	17102.25
507.401	16838.06
507.604	17096.1
507.807	17511.84
508.009	17337.76
508.212	17708.44
508.415	17958.3
508.617	18017.69
508.82	17991.06
509.022	18341.27
509.225	18529.68
509.428	18605.45
509.63	18826.64
509.833	18982.28
510.035	18892.17
510.238	19281.28
510.44	19447.17
510.643	19916.15
510.845	19756.41
511.048	19838.33
511.25	20190.58
511.453	20315.51
511.655	21095.78
511.858	21040.49
512.06	21296.49
512.262	21341.54
512.465	21505.38
512.667	21366.12
512.87	21996.89
513.072	21697.89
513.274	22314.33
513.477	22558.03
513.679	22498.64
513.881	23004.49
514.084	23188.81
514.286	23237.96
514.488	22994.25
514.69	24067.39
514.893	24155.45
515.095	24124.73
515.297	24421.69
515.499	24157.5
515.701	24661.3
515.904	24919.34
516.106	25165.1
516.308	25163.05
516.51	25644.32
516.712	25609.51
516.914	26219.8
517.116	26373.4
517.318	26371.35
517.52	26539.29
517.722	26629.4
517.925	27172.11
518.127	27354.38
518.329	27643.14
518.531	27493.64
518.733	28052.73
518.935	28226.81
519.136	28503.29
519.338	28609.78
519.54	29091.05
519.742	28826.87
519.944	29113.58
520.146	29586.66
520.348	29512.94
520.55	30018.78
520.752	30168.29
520.954	30567.64
521.155	30266.59
521.357	30905.56
521.559	31202.51
521.761	31857.86
521.963	31581.38
522.164	31593.67
522.366	31763.65
522.568	32167.1
522.77	32341.18
522.971	32775.35
523.173	32355.52
523.375	33086.64
523.576	32625.85
523.778	33088.69
523.98	33477.8
524.181	33649.83
524.383	33922.21
524.584	34041
524.786	34337.95
524.988	33934.5
525.189	34296.99
525.391	34591.9
525.592	34675.87
525.794	34972.82
525.995	35024.02
526.197	35019.92
526.398	35054.74
526.6	35363.98
526.801	35167.38
527.003	35650.7
527.204	35847.3
527.406	35933.32
527.607	36144.26
527.808	36230.27
528.01	36005
528.211	36263.04
528.412	37428.34
528.614	36457.6
528.815	36590.72
529.016	37303.41
529.218	36918.39
529.419	37045.37
529.62	37117.04
529.822	37182.58
530.023	37170.29
530.224	37141.62
530.425	37465.2
530.626	37444.72
530.828	37258.35
531.029	37725.29
531.23	37430.38
531.431	37397.62
531.632	37698.67
531.833	37758.06
532.035	37831.79
532.236	37543.02
532.437	37844.07
532.638	37901.42
532.839	38194.28
533.04	38315.11
533.241	37538.93
533.442	38501.47
533.643	38339.68
533.844	38147.17
534.045	37981.29
534.246	37680.24
534.447	38505.57
534.648	38204.52
534.849	38376.55
535.05	38231.14
535.251	38196.32
535.451	38476.9
535.652	38141.03
535.853	38222.95
536.054	38345.83
536.255	38427.74
536.456	38165.6
536.657	38675.55
536.857	38261.86
537.058	38290.53
537.259	38728.8
537.46	38499.42
537.66	38239.33
537.861	38382.69
538.062	38190.18
538.263	38511.71
538.463	38302.82
538.664	38474.85
538.865	38292.58
539.065	38859.87
539.266	38526.05
539.466	38765.66
539.667	37784.68
539.868	38757.47
540.068	38259.81
540.269	38511.71
540.469	38630.49
540.67	38386.78
540.87	38407.26
541.071	38358.11
541.271	38528.09
541.472	38380.64
541.672	38411.36
541.873	38431.84
542.073	38184.04
542.274	38585.44
542.474	38196.32
542.675	37971.05
542.875	38515.81
543.075	38093.93
543.276	37860.46
543.476	38167.65
543.676	38112.36
543.877	38386.78
544.077	38270.05
544.277	38474.85
544.478	38040.68
544.678	37969
544.878	38265.95
545.078	38073.45
545.279	38024.29
545.479	38032.49
545.679	38454.37
545.879	37977.19
546.079	38225
546.28	38161.51
546.48	37852.27
546.68	38057.06
546.88	38294.63
547.08	38237.28
547.28	38085.73
547.48	37860.46
547.68	38372.45
547.88	37723.24
548.081	38073.45
548.281	37667.95
548.481	38046.82
548.681	38233.19
548.881	37973.1
549.081	38251.62
549.28	37708.91
549.48	38564.96
549.68	37688.43
549.88	38220.9
550.08	37864.55
550.28	37864.55
550.48	38130.79
550.68	37960.81
550.88	37733.48
551.08	37364.85
551.279	37989.48
551.479	37387.38
551.679	37717.1
551.879	37758.06
552.079	37848.17
552.278	37731.43
552.478	37725.29
552.678	37692.52
552.878	37923.94
553.077	37592.17
553.277	37557.36
553.477	37925.99
553.676	37444.72
553.876	37962.86
554.076	37393.52
554.275	37925.99
554.475	37604.46
554.674	37940.33
554.874	37778.54
555.074	37260.4
555.273	37266.55
555.473	37633.13
555.672	37614.7
555.872	37270.64
556.071	37121.14
556.271	37069.94
556.47	37125.24
556.67	36895.86
556.869	37004.41
557.068	37282.93
557.268	36983.93
557.467	36947.06
557.667	37031.03
557.866	37108.85
558.065	36918.39
558.265	37012.6
558.464	36529.28
558.663	37065.85
558.863	36734.07
559.062	37067.89
559.261	36459.65
559.461	36942.97
559.66	36480.13
559.859	36729.98
560.058	36002.95
560.258	36514.94
560.457	36187.27
560.656	36287.62
560.855	36019.33
561.054	36502.65
561.253	36066.44
561.453	35996.81
561.652	36312.19
561.851	35951.75
562.05	35751.05
562.249	35562.64
562.448	36308.1
562.647	35824.78
562.846	35957.89
563.045	35824.78
563.244	35247.25
563.443	35558.54
563.642	35275.92
563.841	35232.91
564.04	35447.95
564.239	35542.16
564.438	35130.51
564.637	35011.73
564.836	35144.85
565.035	34714.78
565.234	35038.36
565.432	34997.4
565.631	34729.11
565.83	34921.62
566.029	34526.36
566.228	34792.6
566.427	34628.76
566.625	34200.74
566.824	34145.44
567.023	34464.92
567.222	33926.31
567.42	34600.09
567.619	34344.09
567.818	33920.17
568.016	33684.65
568.215	34094.24
568.414	33621.16
568.612	33645.74
568.811	33518.76
569.01	34127.01
569.208	33533.1
569.407	33520.81
569.605	33391.79
569.804	33772.71
570.002	33449.13
570.201	32978.1
570.4	32994.48
570.598	32746.68
570.797	33182.9
570.995	32986.29
571.193	32408.76
571.392	33006.77
571.59	32525.5
571.789	32515.26
571.987	32539.83
572.186	32392.38
572.384	32040.13
572.582	32654.52
572.781	32163.01
572.979	31929.54
573.177	31976.64
573.376	31917.25
573.574	31706.31
573.772	32179.39
573.971	31562.95
574.169	31417.55
574.367	31413.45
574.565	31722.69
574.763	31073.49
574.962	31349.96
575.16	31218.89
575.358	31157.46
575.556	30536.92
575.754	31427.79
575.952	30956.75
576.151	30852.31
576.349	30711
576.547	30330.08
576.745	30219.49
576.943	30571.74
577.141	30426.33
577.339	30450.91
577.537	30463.19
577.735	30153.95
577.933	29953.25
578.131	29983.97
578.329	29906.15
578.527	29596.9
578.725	29938.91
578.923	30000.35
579.121	29551.85
579.319	29574.38
579.516	29900
579.714	29553.9
579.912	29289.71
580.11	29598.95
580.308	29258.99
580.506	29289.71
580.704	28646.65
580.901	29269.23
581.099	29416.68
581.297	28853.49
581.495	28630.26
581.692	28966.13
581.89	28527.86
582.088	28783.86
582.285	28538.1
582.483	28568.82
582.681	28603.64
582.878	28144.89
583.076	28067.07
583.274	28482.81
583.471	27655.43
583.669	28146.94
583.866	28120.32
584.064	27858.18
584.262	27366.67
584.459	27614.47
584.657	27862.27
584.854	27727.11
585.052	27284.75
585.249	27688.2
585.447	27110.67
585.644	27102.48
585.841	27561.22
586.039	27536.65
586.236	26909.97
586.434	26987.79
586.631	26598.68
586.828	27155.72
587.026	26799.38
587.223	26774.8
587.42	26400.02
587.618	26483.99
587.815	26311.96
588.012	26420.5
588.21	26133.79
588.407	26289.43
588.604	26234.14
588.801	25947.42
588.999	25832.74
589.196	25976.09
589.393	25842.98
589.59	26191.13
589.787	25664.8
589.984	25736.48
590.182	25623.84
590.379	25578.79
590.576	25294.12
590.773	25249.07
590.97	25220.39
591.167	25228.59
591.364	25199.91
591.561	25007.41
591.758	24442.17
591.955	24919.34
592.152	25097.52
592.349	24683.83
592.546	25029.93
592.743	24581.43
592.94	24417.59
593.137	24546.61
593.334	24644.91
593.531	24323.38
593.727	24444.21
593.924	24071.48
594.121	24241.46
594.318	24147.26
594.515	24026.43
594.712	24212.79
594.908	24003.9
595.105	23878.97
595.302	23774.53
595.499	23715.14
595.696	23440.71
595.892	23151.95
596.089	23551.3
596.286	23530.82
596.482	23299.4
596.679	23266.63
596.876	23383.37
597.072	23229.77
597.269	23047.5
597.466	23029.07
597.662	22910.29
597.859	22885.71
598.055	22879.57
598.252	22467.92
598.448	22760.78
598.645	22437.2
598.841	22218.07
599.038	22316.37
599.234	22545.75
599.431	22187.35
599.627	22156.63
599.824	22320.47
600.02	21820.77
600.217	21896.54
600.413	21867.87
600.609	21720.42
600.806	21708.13
601.002	21785.95
601.198	21726.56
601.395	21558.63
601.591	21740.89
601.787	21646.69
601.984	21417.32
602.18	21409.12
602.376	21534.05
602.572	21202.28
602.769	21331.3
602.965	21177.7
603.161	21296.49
603.357	20954.47
603.553	20815.21
603.75	21075.31
603.946	20591.98
604.142	20755.82
604.338	20522.35
604.534	20804.97
604.73	20477.3
604.926	20432.24
605.122	20673.9
605.318	20335.99
605.514	20077.94
605.71	20139.38
605.906	20516.21
606.102	20024.7
606.298	20254.07
606.494	20151.67
606.69	20036.98
606.886	20252.02
607.082	19717.5
607.278	19770.75
607.474	19783.04
607.67	19977.59
607.866	19592.58
608.062	19627.39
608.257	19623.3
608.453	19682.69
608.649	19414.4
608.845	19461.51
609.041	19291.52
609.236	19754.37
609.432	19182.98
609.628	19453.31
609.824	19244.42
610.019	18761.1
610.215	19023.24
610.411	19252.61
610.606	18933.13
610.802	19056.01
610.998	19150.21
611.193	18961.8
611.389	18888.07
611.584	18793.87
611.78	18986.38
611.976	18740.62
612.171	18687.37
612.367	18720.14
612.562	18660.75
612.758	18425.23
612.953	18357.65
613.149	18863.5
613.344	18408.85
613.539	18668.94
613.735	18621.84
613.93	18580.88
614.126	18261.4
614.321	18658.7
614.517	18386.32
614.712	18224.53
614.907	18353.55
615.103	18165.14
615.298	17995.16
615.493	18337.17
615.688	17948.06
615.884	18421.14
616.079	17690.01
616.274	17972.63
616.47	17831.32
616.665	17882.52
616.86	17843.61
617.055	17859.99
617.25	17651.1
617.445	17941.91
617.641	17565.09
617.836	17710.49
618.031	17452.45
618.226	17628.57
618.421	17264.04
618.616	17571.23
618.811	17309.09
619.006	17266.08
619.201	17005.99
619.396	17333.67
619.591	17216.93
619.786	17343.91
619.981	16696.75
620.176	16856.49
620.371	16702.89
620.566	16762.28
620.761	16672.17
620.956	16557.49
621.151	16446.9
621.346	16416.18
621.541	16450.99
621.735	16473.52
621.93	15996.34
622.125	16334.26
622.32	15895.99
622.515	15904.18
622.709	15945.14
622.904	16018.87
623.099	16020.92
623.294	15742.39
623.488	15746.49
623.683	15631.8
623.878	15261.12
624.072	15289.79
624.267	15416.77
624.462	15457.73
624.656	15023.56
624.851	15310.27
625.046	15123.91
625.24	14998.98
625.435	15015.37
625.629	14777.8
625.824	14767.56
626.018	14814.66
626.213	14530
626.407	14630.35
626.602	14429.65
626.796	14360.02
626.991	14503.37
627.185	14015.96
627.38	14142.93
627.574	13946.33
627.768	13942.23
627.963	13868.5
628.157	13819.35
628.352	13807.06
628.546	13475.29
628.74	13624.79
628.935	13370.85
629.129	13463.01
629.323	13397.47
629.517	13143.52
629.712	13245.92
629.906	13133.28
630.1	13155.81
630.294	12850.66
630.489	13032.93
630.683	12998.12
630.877	12641.77
631.071	12600.81
631.265	12768.74
631.459	12590.57
631.653	12555.76
631.848	12418.54
632.042	12649.96
632.236	12359.15
632.43	12101.11
632.624	12209.65
632.818	12180.98
633.012	11959.8
633.206	12094.96
633.4	12002.8
633.594	11959.8
633.788	11972.08
633.982	11664.89
634.176	11628.03
634.369	11564.54
634.563	11478.52
634.757	11396.6
634.951	11386.36
635.145	11431.42
635.339	11550.2
635.533	11267.58
635.726	11267.58
635.92	11326.97
636.114	11048.45
636.308	11044.35
636.501	11232.77
636.695	11075.07
636.889	10896.9
637.083	10745.35
637.276	10886.66
637.47	10831.37
637.664	10761.73
637.857	10778.12
638.051	10614.28
638.244	10565.13
638.438	10370.57
638.632	10565.13
638.825	10262.03
639.019	10393.1
639.212	10259.98
639.406	10092.05
639.599	10323.47
639.793	10151.44
639.986	9903.64
640.18	9956.88
640.373	9917.97
640.567	9788.95
640.76	9745.94
640.954	9958.93
641.147	9784.85
641.34	9422.36
641.534	9688.6
641.727	9623.06
641.92	9668.12
642.114	9279.01
642.307	9530.91
642.5	9444.89
642.694	9176.61
642.887	9338.4
643.08	9307.68
643.273	9205.28
643.467	9088.54
643.66	9152.03
643.853	9027.1
644.046	8939.04
644.239	8853.03
644.432	8846.88
644.626	8920.61
644.819	8836.64
645.012	8570.41
645.205	8867.36
645.398	8855.08
645.591	8685.09
645.784	8521.26
645.977	8302.12
646.17	8515.11
646.363	8470.06
646.556	8381.99
646.749	8429.1
646.942	8455.72
647.135	8277.55
647.328	8416.81
647.521	8115.76
647.714	7984.69
647.907	8031.79
648.099	7966.26
648.292	8091.18
648.485	7919.15
648.678	7908.91
648.871	7906.87
649.064	7745.08
649.256	7863.86
649.449	7728.69
649.642	7624.25
649.835	7575.1
650.027	7616.05
650.22	7534.14
650.413	7429.69
650.605	7495.22
650.798	7542.33
650.991	7319.1
651.183	7454.26
651.376	7319.1
651.568	7368.25
651.761	7263.8
651.954	7224.89
652.146	7282.24
652.339	7253.56
652.531	7224.89
652.724	7087.68
652.916	7030.34
653.109	6938.18
653.301	6927.94
653.494	6934.08
653.686	6911.55
653.879	6925.89
654.071	6774.34
654.263	6919.75
654.456	6698.56
654.648	6719.04
654.84	6596.17
655.033	6786.63
655.225	6688.32
655.417	6528.58
655.61	6585.93
655.802	6424.14
655.994	6536.77
656.186	6393.42
656.379	6325.83
656.571	6260.3
656.763	6309.45
656.955	6334.03
657.148	6252.11
657.34	6426.18
657.532	6090.32
657.724	6078.03
657.916	6202.96
658.108	6159.95
658.3	6133.33
658.492	5916.24
658.684	5883.47
658.876	5826.13
659.068	5975.63
659.26	5985.87
659.452	6035.02
659.644	6041.17
659.836	5873.23
660.028	5951.06
660.22	5797.46
660.412	5711.44
660.604	5666.39
660.796	5811.79
660.988	5740.12
661.18	5678.68
661.372	5654.1
661.563	5750.35
661.755	5557.85
661.947	5527.13
662.139	5580.37
662.331	5699.16
662.522	5377.62
662.714	5459.54
662.906	5326.43
663.097	5355.1
663.289	5267.03
663.481	5246.55
663.673	5363.29
663.864	5271.13
664.056	5187.16
664.247	5355.1
664.439	5133.92
664.631	5187.16
664.822	5158.49
665.014	5121.63
665.205	5021.28
665.397	5148.25
665.588	4974.17
665.78	5015.13
665.971	4968.03
666.163	5037.66
666.354	5107.29
666.546	4904.54
666.737	4974.17
666.929	4955.74
667.12	4906.59
667.311	4910.69
667.503	4826.72
667.694	4933.22
667.885	4908.64
668.077	4855.39
668.268	4664.93
668.459	4722.27
668.651	4703.84
668.842	4765.28
669.033	4525.67
669.224	4599.4
669.416	4691.56
669.607	4611.68
669.798	4636.26
669.989	4634.21
670.18	4531.81
670.371	4449.89
670.563	4488.81
670.754	4423.27
670.945	4509.29
671.136	4609.64
671.327	4501.09
671.518	4603.49
671.709	4288.11
671.9	4384.36
672.091	4171.37
672.282	4314.73
672.473	4388.46
672.664	4378.22
672.855	4351.59
673.046	4265.58
673.237	4273.77
673.428	4337.26
673.619	4359.78
673.809	4308.58
674	4296.3
674.191	4216.43
674.382	4251.24
674.573	4265.58
674.764	4089.45
674.954	4216.43
675.145	4212.33
675.336	4157.04
675.527	4269.67
675.717	4060.78
675.908	4079.21
676.099	3999.34
676.289	4001.39
676.48	3980.91
676.671	3931.76
676.861	4152.94
677.052	3931.76
677.243	3946.09
677.433	3956.33
677.624	3874.42
677.814	3980.91
678.005	3927.66
678.195	3962.48
678.386	4005.49
678.576	3976.81
678.767	3931.76
678.957	3866.22
679.148	4005.49
679.338	3976.81
679.529	3888.75
679.719	3925.61
679.909	3878.51
680.1	3829.36
680.29	3915.37
680.481	3917.42
680.671	3980.91
680.861	3882.61
681.052	3874.42
681.242	3898.99
681.432	3790.45
681.622	3784.3
681.813	3739.25
682.003	3976.81
682.193	3841.65
682.383	3841.65
682.573	3878.51
682.764	3712.63
682.954	3743.35
683.144	3806.83
683.334	3821.17
683.524	3643
683.714	3729.01
683.904	3774.07
684.094	3702.39
684.284	3563.12
684.474	3692.15
684.664	3561.08
684.854	3616.37
685.044	3567.22
685.234	3575.41
685.424	3606.13
685.614	3597.94
685.804	3739.25
685.994	3616.37
686.184	3765.87
686.374	3579.51
686.564	3563.12
686.753	3556.98
686.943	3483.25
687.133	3448.44
687.323	3475.06
687.513	3538.55
687.702	3393.14
687.892	3440.25
688.082	3520.12
688.272	3407.48
688.461	3438.2
688.651	3423.86
688.841	3315.32
689.03	3276.41
689.22	3255.93
689.41	3470.97
689.599	3327.61
689.789	3307.13
689.979	3243.64
690.168	3284.6
690.358	3176.06
690.547	3192.44
690.737	3212.92
690.926	3274.36
691.116	3120.76
691.305	3214.97
691.495	3180.15
691.684	3065.47
691.874	3165.82
692.063	3188.35
692.252	3075.71
692.442	3081.85
692.631	3098.24
692.82	3098.24
693.01	3006.08
693.199	3047.04
693.388	3100.28
693.578	3110.52
693.767	3104.38
693.956	2973.31
694.146	2922.11
694.335	3034.75
694.524	2821.76
694.713	2911.87
694.902	2846.34
695.092	2948.73
695.281	2979.45
695.47	2903.68
695.659	2948.73
695.848	2944.64
696.037	2860.67
696.226	2956.93
696.415	2791.04
696.604	2856.58
696.793	2766.46
696.982	2854.53
697.171	2938.49
697.36	2842.24
697.549	2844.29
697.738	2743.94
697.927	2815.62
698.116	2766.46
698.305	2752.13
698.494	2840.19
698.683	2780.8
698.872	2813.57
699.061	2811.52
699.25	2844.29
699.438	2809.47
699.627	2729.6
699.816	2825.86
700.005	2764.42
700.193	2721.41
700.382	2815.62
700.571	2713.22
700.76	2725.51
700.948	2850.43
701.137	2797.18
701.326	2875.01
701.514	2649.73
701.703	2745.98
701.892	2670.21
702.08	2690.69
702.269	2788.99
702.457	2676.35
702.646	2760.32
702.834	2659.97
703.023	2567.81
703.212	2717.31
703.4	2762.37
703.589	2743.94
703.777	2702.98
703.965	2641.54
704.154	2641.54
704.342	2678.4
704.531	2743.94
704.719	2639.49
704.907	2653.83
705.096	2735.74
705.284	2633.35
705.472	2686.59
705.661	2709.12
705.849	2729.6
706.037	2659.97
706.226	2635.39
706.414	2610.82
706.602	2676.35
706.79	2760.32
706.979	2760.32
707.167	2619.01
707.355	2666.11
707.543	2705.03
707.731	2821.76
707.919	2655.87
708.107	2694.79
708.296	2621.06
708.484	2741.89
708.672	2729.6
708.86	2680.45
709.048	2666.11
709.236	2649.73
709.424	2737.79
709.612	2705.03
709.8	2670.21
709.988	2766.46
710.176	2731.65
710.364	2678.4
710.551	2594.44
710.739	2653.83
710.927	2655.87
711.115	2627.2
711.303	2711.17
711.491	2764.42
711.679	2662.02
711.866	2664.07
712.054	2592.39
712.242	2502.28
712.43	2623.11
712.617	2637.44
712.805	2555.52
712.993	2561.67
713.181	2576
713.368	2702.98
713.556	2580.1
713.744	2481.8
713.931	2678.4
714.119	2623.11
714.306	2727.55
714.494	2629.25
714.682	2705.03
714.869	2682.5
715.057	2750.08
715.244	2690.69
715.432	2698.88
715.619	2686.59
715.807	2692.74
715.994	2662.02
716.182	2719.36
716.369	2666.11
716.556	2619.01
716.744	2745.98
716.931	2635.39
717.119	2750.08
717.306	2682.5
717.493	2627.2
717.681	2723.46
717.868	2702.98
718.055	2676.35
718.242	2690.69
718.43	2678.4
718.617	2748.03
718.804	2606.72
718.991	2588.29
719.179	2688.64
719.366	2559.62
719.553	2643.59
719.74	2727.55
719.927	2608.77
720.114	2530.95
720.301	2680.45
720.488	2621.06
720.676	2653.83
720.863	2698.88
721.05	2526.85
721.237	2700.93
721.424	2666.11
721.611	2653.83
721.798	2668.16
721.985	2616.96
722.172	2633.35
722.358	2600.58
722.545	2616.96
722.732	2594.44
722.919	2707.07
723.106	2633.35
723.293	2676.35
723.48	2752.13
723.667	2627.2
723.853	2592.39
724.04	2725.51
724.227	2762.37
724.414	2762.37
724.6	2604.67
724.787	2686.59
724.974	2600.58
725.161	2762.37
725.347	2586.24
725.534	2657.92
725.72	2692.74
725.907	2707.07
726.094	2748.03
726.28	2496.13
726.467	2567.81
726.653	2647.68
726.84	2684.55
727.027	2700.93
727.213	2530.95
727.4	2616.96
727.586	2664.07
727.773	2707.07
727.959	2709.12
728.145	2717.31
728.332	2696.83
728.518	2684.55
728.705	2694.79
728.891	2655.87
729.077	2657.92
729.264	2672.26
729.45	2612.87
729.636	2754.18
729.823	2619.01
730.009	2717.31
730.195	2688.64
730.382	2684.55
730.568	2616.96
730.754	2612.87
730.94	2616.96
731.126	2719.36
731.313	2739.84
731.499	2635.39
731.685	2772.61
731.871	2541.19
732.057	2600.58
732.243	2670.21
732.429	2590.34
732.615	2567.81
732.801	2625.15
732.987	2530.95
733.173	2635.39
733.359	2690.69
733.545	2762.37
733.731	2604.67
733.917	2625.15
734.103	2637.44
734.289	2614.91
734.475	2686.59
734.661	2586.24
734.847	2600.58
735.033	2702.98
735.219	2514.56
735.404	2539.14
735.59	2727.55
735.776	2627.2
735.962	2670.21
736.148	2653.83
736.333	2571.91
736.519	2645.63
736.705	2528.9
736.89	2590.34
737.076	2571.91
737.262	2489.99
737.447	2600.58
737.633	2520.71
737.819	2545.28
738.004	2446.98
738.19	2657.92
738.375	2461.32
738.561	2477.7
738.747	2561.67
738.932	2401.93
739.118	2535.04
739.303	2537.09
739.489	2477.7
739.674	2455.17
739.859	2432.65
740.045	2549.38
740.23	2553.48
740.416	2342.53
740.601	2440.84
740.786	2549.38
740.972	2463.37
741.157	2371.21
741.342	2410.12
741.528	2510.47
741.713	2432.65
741.898	2469.51
742.084	2461.32
742.269	2412.17
742.454	2408.07
742.639	2479.75
742.824	2412.17
743.01	2326.15
743.195	2469.51
743.38	2432.65
743.565	2387.59
743.75	2256.52
743.935	2332.3
744.12	2293.38
744.305	2301.58
744.49	2297.48
744.675	2401.93
744.86	2285.19
745.045	2299.53
745.23	2180.75
745.415	2274.95
745.6	2152.07
745.785	2182.79
745.97	2190.99
746.155	2172.55
746.34	2178.7
746.525	2227.85
746.71	2178.7
746.895	2051.72
747.079	2145.93
747.264	2074.25
747.449	2117.26
747.634	2137.74
747.819	2178.7
748.003	1982.09
748.188	2084.49
748.373	2096.78
748.557	1998.48
748.742	1986.19
748.927	1986.19
749.111	2016.91
749.296	1912.46
749.481	2021
749.665	1945.23
749.85	1887.89
750.034	1986.19
750.219	1924.75
750.404	1908.37
750.588	1902.22
750.773	1728.14
750.957	1834.64
751.141	1848.97
751.326	1844.88
751.51	1840.78
751.695	1726.1
751.879	1859.21
752.064	1783.44
752.248	1773.2
752.432	1859.21
752.617	1777.3
752.801	1715.86
752.985	1674.9
753.17	1734.29
753.354	1787.54
753.538	1771.15
753.722	1605.27
753.907	1709.71
754.091	1670.8
754.275	1576.59
754.459	1582.74
754.643	1666.71
754.828	1564.31
755.012	1586.83
755.196	1496.72
755.38	1576.59
755.564	1588.88
755.748	1506.96
755.932	1566.35
756.116	1488.53
756.3	1574.55
756.484	1492.63
756.668	1570.45
756.852	1392.28
757.036	1504.92
757.22	1423
757.404	1451.67
757.588	1412.76
757.772	1351.32
757.956	1408.66
758.14	1486.48
758.323	1314.45
758.507	1318.55
758.691	1449.62
758.875	1433.24
759.059	1398.42
759.242	1423
759.426	1353.37
759.61	1367.7
759.794	1253.02
759.977	1396.37
760.161	1353.37
760.345	1328.79
760.528	1353.37
760.712	1322.65
760.895	1281.69
761.079	1291.93
761.263	1201.82
761.446	1273.5
761.63	1218.2
761.813	1265.3
761.997	1169.05
762.18	1269.4
762.364	1296.02
762.547	1136.28
762.731	1273.5
762.914	1216.15
763.098	1226.39
763.281	1248.92
763.464	1199.77
763.648	1179.29
763.831	1185.43
764.015	1195.67
764.198	1154.71
764.381	1115.8
764.564	1064.6
764.748	1181.34
764.931	1212.06
765.114	1154.71
765.297	1130.14
765.481	1109.66
765.664	1093.27
765.847	1136.28
766.03	1218.2
766.213	1154.71
766.397	1099.42
766.58	1052.31
766.763	1113.75
766.946	1080.99
767.129	1066.65
767.312	1095.32
767.495	1119.9
767.678	992.92
767.861	1046.17
768.044	1040.03
768.227	1177.24
768.41	947.87
768.593	1056.41
768.776	964.25
768.959	1060.51
769.142	1033.88
769.324	986.78
769.507	1052.31
769.69	937.63
769.873	1025.69
770.056	1025.69
770.239	1023.64
770.421	902.81
770.604	1007.26
770.787	997.02
770.97	1035.93
771.152	927.39
771.335	1019.55
771.518	943.77
771.7	960.16
771.883	929.44
772.066	902.81
772.248	976.54
772.431	941.72
772.613	937.63
772.796	906.91
772.978	931.48
773.161	1009.31
773.343	937.63
773.526	935.58
773.708	851.61
773.891	736.93
774.073	898.72
774.256	808.61
774.438	937.63
774.621	878.24
774.803	890.53
774.985	855.71
775.168	908.96
775.35	890.53
775.532	870.05
775.715	784.03
775.897	863.9
776.079	784.03
776.261	851.61
776.444	831.13
776.626	722.59
776.808	831.13
776.99	808.61
777.173	769.69
777.355	812.7
777.537	792.22
777.719	777.89
777.901	708.26
778.083	714.4
778.265	689.82
778.447	716.45
778.629	775.84
778.811	677.54
778.993	712.35
779.175	775.84
779.357	691.87
779.539	700.06
779.721	792.22
779.903	671.39
780.085	626.34
780.267	720.54
780.449	632.48
780.631	652.96
780.812	638.62
780.994	632.48
781.176	648.86
781.358	564.9
781.54	667.3
781.721	616.1
781.903	689.82
782.085	622.24
782.267	661.15
782.448	581.28
782.63	607.91
782.812	550.56
782.993	652.96
783.175	540.32
783.357	532.13
783.538	568.99
783.72	429.73
783.901	509.6
784.083	534.18
784.264	564.9
784.446	550.56
784.627	523.94
784.809	544.42
784.99	587.43
785.172	517.79
785.353	491.17
785.535	546.47
785.716	552.61
785.897	536.23
786.079	482.98
786.26	528.03
786.441	525.99
786.623	470.69
786.804	485.03
786.985	425.64
787.167	462.5
787.348	499.36
787.529	581.28
787.71	446.12
787.891	523.94
788.073	493.22
788.254	364.2
788.435	552.61
788.616	468.64
788.797	421.54
788.978	415.4
789.159	313
789.34	444.07
789.522	362.15
789.703	405.16
789.884	482.98
790.065	517.79
790.246	421.54
790.427	450.21
790.607	470.69
790.788	415.4
790.969	415.4
791.15	425.64
791.331	403.11
791.512	360.1
791.693	415.4
791.874	376.48
792.054	442.02
792.235	435.88
792.416	313
792.597	345.77
792.778	415.4
792.958	392.87
793.139	362.15
793.32	409.25
793.5	327.33
793.681	425.64
793.862	433.83
794.042	343.72
794.223	317.09
794.404	356.01
794.584	319.14
794.765	308.9
794.945	269.99
795.126	333.48
795.306	313
795.487	323.24
795.667	317.09
795.848	356.01
796.028	300.71
796.209	235.18
796.389	411.3
796.57	366.25
796.75	341.67
796.93	292.52
797.111	315.05
797.291	390.82
797.471	335.53
797.652	259.75
797.832	337.57
798.012	290.47
798.192	276.13
798.373	317.09
798.553	247.46
798.733	304.81
798.913	323.24
799.093	298.66
799.274	286.37
799.454	278.18
799.634	335.53
799.814	341.67
799.994	251.56
800.174	319.14
800.354	200.36
800.534	286.37
800.714	220.84
800.894	261.8
801.074	157.35
801.254	192.17
801.434	302.76
801.614	253.61
801.794	212.65
801.974	689.82
802.154	200.36
802.334	274.09
802.514	276.13
802.693	265.89
802.873	272.04
803.053	310.95
803.233	282.28
803.413	200.36
803.592	265.89
803.772	214.7
803.952	138.92
804.131	202.41
804.311	204.46
804.491	190.12
804.67	179.88
804.85	214.7
805.03	192.17
805.209	269.99
805.389	265.89
805.568	210.6
805.748	165.54
805.928	218.79
806.107	288.42
806.287	243.37
806.466	216.74
806.646	175.78
806.825	253.61
807.004	233.13
807.184	116.39
807.363	151.21
807.543	235.18
807.722	212.65
807.901	226.98
808.081	218.79
808.26	151.21
808.439	118.44
808.619	161.45
808.798	186.02
808.977	224.94
809.156	175.78
809.336	165.54
809.515	175.78
809.694	181.93
809.873	202.41
810.052	188.07
810.231	210.6
810.411	143.02
810.59	216.74
810.769	204.46
810.948	140.97
811.127	138.92
811.306	151.21
811.485	257.7
811.664	220.84
811.843	157.35
812.022	126.63
812.201	210.6
812.38	173.74
812.559	222.89
812.737	198.31
812.916	79.53
813.095	220.84
813.274	108.2
813.453	233.13
813.632	153.26
813.811	210.6
813.989	75.43
814.168	196.26
814.347	194.22
814.526	153.26
814.704	128.68
814.883	171.69
815.062	163.5
815.24	200.36
815.419	124.58
815.598	85.67
815.776	100.01
815.955	159.4
816.133	175.78
816.312	171.69
816.49	104.11
816.669	114.34
816.847	91.82
817.026	202.41
817.204	208.55
817.383	130.73
817.561	196.26
817.74	171.69
817.918	167.59
818.097	196.26
818.275	130.73
818.453	79.53
818.632	188.07
818.81	140.97
818.988	140.97
819.167	65.19
819.345	108.2
819.523	167.59
819.701	126.63
819.879	147.11
820.058	145.06
820.236	167.59
820.414	120.49
820.592	149.16
820.77	194.22
820.948	73.39
821.127	54.95
821.305	130.73
821.483	155.3
821.661	118.44
821.839	126.63
822.017	81.58
822.195	210.6
822.373	147.11
822.551	120.49
822.729	128.68
822.907	61.1
823.085	143.02
823.262	40.62
823.44	63.15
823.618	145.06
823.796	106.15
823.974	89.77
824.152	140.97
824.329	149.16
824.507	235.18
824.685	175.78
824.863	190.12
825.04	157.35
825.218	79.53
825.396	81.58
825.574	130.73
825.751	112.3
825.929	93.87
826.107	61.1
826.284	112.3
826.462	106.15
826.639	100.01
826.817	83.63
826.994	91.82
827.172	147.11
827.349	165.54
827.527	108.2
827.704	112.3
827.882	95.91
828.059	73.39
828.237	155.3
828.414	114.34
828.591	18.09
828.769	108.2
828.946	61.1
829.124	175.78
829.301	57
829.478	118.44
829.655	112.3
829.833	104.11
830.01	83.63
830.187	116.39
830.364	110.25
830.542	61.1
830.719	102.06
830.896	59.05
831.073	40.62
831.25	124.58
831.427	85.67
831.604	73.39
831.782	110.25
831.959	5.8
832.136	61.1
832.313	120.49
832.49	87.72
832.667	118.44
832.844	102.06
833.021	110.25
833.198	134.82
833.374	38.57
833.551	18.09
833.728	122.54
833.905	61.1
834.082	73.39
834.259	89.77
834.436	102.06
834.612	46.76
834.789	136.87
834.966	42.67
835.143	81.58
835.319	97.96
835.496	-4.44
835.673	108.2
835.85	81.58
836.026	24.23
836.203	42.67
836.38	104.11
836.556	63.15
836.733	16.04
836.909	206.5
837.086	59.05
837.262	24.23
837.439	40.62
837.616	52.91
837.792	126.63
837.968	44.71
838.145	52.91
838.321	52.91
838.498	114.34
838.674	114.34
838.851	136.87
839.027	61.1
839.203	46.76
839.38	126.63
839.556	50.86
839.732	102.06
839.909	-2.39
840.085	63.15
840.261	93.87
840.437	34.47
840.614	46.76
840.79	54.95
840.966	24.23
841.142	71.34
841.318	-0.34
841.494	108.2
841.671	89.77
841.847	91.82
842.023	57
842.199	114.34
842.375	36.52
842.551	26.28
842.727	93.87
842.903	28.33
843.079	-74.07
843.255	73.39
843.431	106.15
843.607	75.43
843.783	28.33
843.959	54.95
844.134	83.63
844.31	104.11
844.486	108.2
844.662	77.48
844.838	85.67
845.013	120.49
845.189	143.02
845.365	108.2
845.541	-8.53
845.716	32.43
845.892	132.78
846.068	59.05
846.244	40.62
846.419	79.53
846.595	9.9
846.77	52.91
846.946	69.29
847.122	13.99
847.297	-8.53
847.473	120.49
847.648	40.62
847.824	63.15
847.999	34.47
848.175	30.38
848.35	-0.34
848.526	61.1
848.701	114.34
848.876	48.81
849.052	75.43
849.227	91.82
849.403	-16.73
849.578	16.04
849.753	48.81
849.929	97.96
850.104	11.95
850.279	59.05
850.454	63.15
850.63	26.28
850.805	50.86
850.98	20.14
851.155	-33.11
851.33	93.87
851.505	50.86
851.681	54.95
851.856	13.99
852.031	75.43
852.206	46.76
852.381	67.24
852.556	-2.39
852.731	46.76
852.906	71.34
853.081	16.04
853.256	-6.49
853.431	52.91
853.606	24.23
853.781	30.38
853.956	-22.87
854.131	-45.4
854.305	-24.92
854.48	89.77
854.655	7.85
854.83	100.01
855.005	57
855.18	32.43
855.354	20.14
855.529	48.81
855.704	102.06
855.879	-0.34
856.053	22.19
856.228	54.95
856.403	-10.58
856.577	73.39
856.752	48.81
856.926	48.81
857.101	-37.2
857.276	61.1
857.45	-0.34
857.625	32.43
857.799	40.62
857.974	57
858.148	-4.44
858.323	5.8
858.497	65.19
858.672	11.95
858.846	63.15
859.02	24.23
859.195	3.75
859.369	16.04
859.543	24.23
859.718	69.29
859.892	52.91
860.066	46.76
860.241	-55.64
860.415	75.43
860.589	-37.2
860.763	13.99
860.938	71.34
861.112	69.29
861.286	69.29
861.46	40.62
861.634	34.47
861.808	-31.06
861.982	75.43
862.157	-51.54
862.331	-2.39
862.505	61.1
862.679	30.38
862.853	1.71
863.027	-4.44
863.201	108.2
863.375	1.71
863.549	3.75
863.722	75.43
863.896	48.81
864.07	30.38
864.244	-65.88
864.418	24.23
864.592	-14.68
864.766	34.47
864.939	-26.96
865.113	50.86
865.287	67.24
865.461	77.48
865.634	-8.53
865.808	-14.68
865.982	24.23
866.156	-16.73
866.329	24.23
866.503	16.04
866.676	118.44
866.85	-6.49
867.024	3.75
867.197	30.38
867.371	28.33
867.544	50.86
867.718	11.95
867.891	34.47
868.065	-39.25
868.238	9.9
868.412	26.28
868.585	-0.34
868.759	9.9
868.932	61.1
869.105	24.23
869.279	57
869.452	-20.82
869.625	81.58
869.799	-41.3
869.972	-37.2
870.145	50.86
870.319	34.47
870.492	44.71
870.665	65.19
870.838	-24.92
871.011	-47.44
871.185	-12.63
871.358	30.38
871.531	46.76
871.704	1.71
871.877	46.76
872.05	9.9
872.223	22.19
872.396	-76.12
872.569	-10.58
872.742	-12.63
872.915	-51.54
873.088	-6.49
873.261	-14.68
873.434	18.09
873.607	28.33
873.78	38.57
873.953	-37.2
874.126	-33.11
874.299	67.24
874.471	13.99
874.644	38.57
874.817	-37.2
874.99	32.43
875.163	71.34
875.335	61.1
875.508	-8.53
875.681	26.28
875.853	-43.35
876.026	18.09
876.199	-47.44
876.371	36.52
876.544	-6.49
876.717	11.95
876.889	44.71
877.062	81.58
877.234	-41.3
877.407	-18.77
877.579	-12.63
877.752	63.15
877.924	30.38
878.097	-0.34
878.269	-76.12
878.442	7.85
878.614	11.95
878.786	20.14
878.959	-55.64
879.131	-20.82
879.303	32.43
879.476	7.85
879.648	7.85
879.82	-20.82
879.993	-12.63
880.165	52.91
880.337	-39.25
880.509	9.9
880.681	-18.77
880.854	42.67
881.026	30.38
881.198	20.14
881.37	-22.87
881.542	-16.73
881.714	-8.53
881.886	52.91
882.058	-29.01
882.23	38.57
882.402	32.43
882.574	-14.68
882.746	-12.63
882.918	118.44
883.09	20.14
883.262	-10.58
883.434	67.24
883.606	65.19
883.778	-39.25
883.95	36.52
884.122	36.52
884.293	5.8
884.465	44.71
884.637	-20.82
884.809	-37.2
884.98	-49.49
885.152	67.24
885.324	30.38
885.496	13.99
885.667	46.76
885.839	-76.12
886.011	-39.25
886.182	30.38
886.354	42.67
886.525	46.76
886.697	63.15
886.869	7.85
887.04	93.87
887.212	36.52
887.383	-22.87
887.555	20.14
887.726	-22.87
887.897	61.1
888.069	24.23
888.24	16.04
888.412	16.04
888.583	5.8
888.754	30.38
888.926	28.33
889.097	40.62
889.268	-20.82
889.44	7.85
889.611	-43.35
889.782	11.95
889.953	-43.35
890.125	52.91
890.296	18.09
890.467	13.99
890.638	5.8
890.809	-14.68
890.98	-49.49
891.151	34.47
891.323	5.8
891.494	104.11
891.665	-12.63
891.836	-33.11
892.007	18.09
892.178	-0.34
892.349	54.95
892.52	-67.92
892.691	-8.53
892.862	-24.92
893.032	-35.16
893.203	-6.49
893.374	13.99
893.545	13.99
893.716	-2.39
893.887	38.57
894.057	-14.68
894.228	48.81
894.399	-61.78
894.57	-41.3
894.74	-12.63
894.911	114.34
895.082	30.38
895.253	-16.73
895.423	-10.58
895.594	11.95
895.764	-10.58
895.935	-16.73
896.106	16.04
896.276	-8.53
896.447	1.71
896.617	28.33
896.788	-43.35
896.958	-59.73
897.129	61.1
897.299	34.47
897.47	63.15
897.64	-8.53
897.81	-43.35
897.981	-0.34
898.151	-33.11
898.322	93.87
898.492	9.9
898.662	11.95
898.832	34.47
899.003	44.71
899.173	-6.49
899.343	-98.64
899.513	-33.11
