Data from USB4F104151__32__11-51-38-730.txt Node

Date: Fri Mar 14 11:51:38 EDT 2025
User: louis
Spectrometer: USB4F10415
Trigger mode: 4
Integration Time (sec): 2.000000E-2
Scans to average: 1
Electric dark correction enabled: true
Nonlinearity correction enabled: false
Boxcar width: 0
XAxis mode: Wavelengths
Number of Pixels in Spectrum: 3648
>>>>>Begin Spectral Data<<<<<
178.204	-2.39
178.424	-2.39
178.644	-2.39
178.864	-127.32
179.084	-53.59
179.304	52.91
179.524	-18.77
179.744	-88.4
179.964	57
180.184	48.81
180.404	-20.82
180.624	38.57
180.844	-45.4
181.064	-29.01
181.283	36.52
181.503	-96.6
181.723	65.19
181.943	-59.73
182.163	81.58
182.383	59.05
182.602	22.19
182.822	57
183.042	87.72
183.262	13.99
183.482	95.91
183.701	18.09
183.921	30.38
184.141	11.95
184.361	32.43
184.58	11.95
184.8	57
185.02	-0.34
185.239	38.57
185.459	42.67
185.679	102.06
185.898	-22.87
186.118	87.72
186.338	18.09
186.557	52.91
186.777	30.38
186.997	38.57
187.216	71.34
187.436	-10.58
187.655	44.71
187.875	44.71
188.095	81.58
188.314	83.63
188.534	50.86
188.753	36.52
188.973	-45.4
189.192	71.34
189.412	65.19
189.631	100.01
189.851	13.99
190.07	50.86
190.29	-37.2
190.509	11.95
190.729	9.9
190.948	-39.25
191.168	108.2
191.387	120.49
191.607	9.9
191.826	50.86
192.045	9.9
192.265	-14.68
192.484	57
192.704	36.52
192.923	22.19
193.142	110.25
193.362	61.1
193.581	89.77
193.8	22.19
194.02	59.05
194.239	54.95
194.458	28.33
194.678	24.23
194.897	40.62
195.116	-6.49
195.335	22.19
195.555	-18.77
195.774	54.95
195.993	85.67
196.212	1.71
196.432	-96.6
196.651	34.47
196.87	52.91
197.089	52.91
197.308	-0.34
197.528	50.86
197.747	-18.77
197.966	34.47
198.185	50.86
198.404	67.24
198.623	46.76
198.842	30.38
199.062	7.85
199.281	50.86
199.5	38.57
199.719	108.2
199.938	3.75
200.157	-12.63
200.376	20.14
200.595	100.01
200.814	-4.44
201.033	42.67
201.252	34.47
201.471	91.82
201.69	73.39
201.909	34.47
202.128	18.09
202.347	18.09
202.566	-4.44
202.785	5.8
203.004	-2.39
203.223	52.91
203.442	16.04
203.661	-12.63
203.879	71.34
204.098	38.57
204.317	5.8
204.536	-45.4
204.755	65.19
204.974	106.15
205.193	-8.53
205.411	5.8
205.63	40.62
205.849	18.09
206.068	97.96
206.287	13.99
206.505	24.23
206.724	13.99
206.943	-63.83
207.162	-33.11
207.381	1.71
207.599	42.67
207.818	20.14
208.037	7.85
208.255	20.14
208.474	81.58
208.693	-0.34
208.911	50.86
209.13	13.99
209.349	9.9
209.567	-22.87
209.786	97.96
210.005	52.91
210.223	-2.39
210.442	-12.63
210.661	-14.68
210.879	48.81
211.098	22.19
211.316	57
211.535	102.06
211.753	48.81
211.972	48.81
212.191	36.52
212.409	22.19
212.628	-6.49
212.846	3.75
213.065	30.38
213.283	48.81
213.502	-8.53
213.72	42.67
213.938	18.09
214.157	34.47
214.375	22.19
214.594	7.85
214.812	26.28
215.031	85.67
215.249	5.8
215.467	20.14
215.686	-22.87
215.904	65.19
216.122	-4.44
216.341	114.34
216.559	75.43
216.778	42.67
216.996	-8.53
217.214	1.71
217.432	-18.77
217.651	11.95
217.869	-22.87
218.087	65.19
218.306	32.43
218.524	18.09
218.742	46.76
218.96	20.14
219.179	5.8
219.397	54.95
219.615	-20.82
219.833	81.58
220.051	-8.53
220.27	42.67
220.488	28.33
220.706	120.49
220.924	71.34
221.142	16.04
221.36	26.28
221.578	3.75
221.796	9.9
222.015	30.38
222.233	28.33
222.451	50.86
222.669	-10.58
222.887	-24.92
223.105	-14.68
223.323	18.09
223.541	-14.68
223.759	36.52
223.977	59.05
224.195	-41.3
224.413	18.09
224.631	97.96
224.849	34.47
225.067	52.91
225.285	-18.77
225.503	-8.53
225.721	-49.49
225.939	85.67
226.157	63.15
226.375	44.71
226.592	50.86
226.81	-8.53
227.028	87.72
227.246	-20.82
227.464	11.95
227.682	50.86
227.9	9.9
228.117	1.71
228.335	-0.34
228.553	32.43
228.771	-8.53
228.989	26.28
229.206	42.67
229.424	28.33
229.642	18.09
229.86	-14.68
230.077	85.67
230.295	102.06
230.513	50.86
230.731	52.91
230.948	91.82
231.166	34.47
231.384	28.33
231.601	34.47
231.819	83.63
232.037	36.52
232.254	40.62
232.472	30.38
232.689	-10.58
232.907	77.48
233.125	5.8
233.342	34.47
233.56	22.19
233.777	1.71
233.995	30.38
234.213	-39.25
234.43	40.62
234.648	46.76
234.865	24.23
235.083	54.95
235.3	16.04
235.518	54.95
235.735	79.53
235.953	22.19
236.17	-43.35
236.388	20.14
236.605	-86.36
236.822	54.95
237.04	59.05
237.257	-16.73
237.475	77.48
237.692	54.95
237.909	54.95
238.127	83.63
238.344	24.23
238.562	34.47
238.779	-33.11
238.996	24.23
239.214	-16.73
239.431	22.19
239.648	-4.44
239.865	28.33
240.083	-0.34
240.3	16.04
240.517	1.71
240.735	16.04
240.952	63.15
241.169	145.06
241.386	1.71
241.603	20.14
241.821	-10.58
242.038	44.71
242.255	46.76
242.472	50.86
242.689	38.57
242.907	-4.44
243.124	69.29
243.341	36.52
243.558	28.33
243.775	11.95
243.992	-31.06
244.209	48.81
244.426	-4.44
244.643	50.86
244.86	-35.16
245.078	1.71
245.295	-0.34
245.512	32.43
245.729	11.95
245.946	61.1
246.163	-35.16
246.38	83.63
246.597	-63.83
246.814	-33.11
247.031	44.71
247.248	106.15
247.464	40.62
247.681	9.9
247.898	54.95
248.115	42.67
248.332	13.99
248.549	52.91
248.766	54.95
248.983	100.01
249.2	-16.73
249.417	93.87
249.633	9.9
249.85	44.71
250.067	20.14
250.284	-14.68
250.501	-43.35
250.717	95.91
250.934	20.14
251.151	5.8
251.368	-26.96
251.585	71.34
251.801	46.76
252.018	48.81
252.235	54.95
252.451	-4.44
252.668	28.33
252.885	42.67
253.102	83.63
253.318	7.85
253.535	32.43
253.752	9.9
253.968	52.91
254.185	9.9
254.401	-84.31
254.618	24.23
254.835	-0.34
255.051	48.81
255.268	46.76
255.484	32.43
255.701	26.28
255.917	20.14
256.134	-12.63
256.351	79.53
256.567	11.95
256.784	46.76
257	22.19
257.217	-47.44
257.433	57
257.65	13.99
257.866	9.9
258.082	5.8
258.299	22.19
258.515	3.75
258.732	9.9
258.948	67.24
259.165	40.62
259.381	34.47
259.597	3.75
259.814	13.99
260.03	-0.34
260.246	63.15
260.463	42.67
260.679	16.04
260.895	24.23
261.112	11.95
261.328	71.34
261.544	75.43
261.761	81.58
261.977	-12.63
262.193	11.95
262.409	52.91
262.626	85.67
262.842	36.52
263.058	28.33
263.274	65.19
263.49	38.57
263.707	57
263.923	34.47
264.139	40.62
264.355	97.96
264.571	36.52
264.787	54.95
265.004	124.58
265.22	52.91
265.436	9.9
265.652	67.24
265.868	38.57
266.084	42.67
266.3	22.19
266.516	-84.31
266.732	7.85
266.948	-18.77
267.164	38.57
267.38	63.15
267.596	18.09
267.812	59.05
268.028	75.43
268.244	5.8
268.46	85.67
268.676	57
268.892	112.3
269.108	28.33
269.324	1.71
269.54	-47.44
269.756	-0.34
269.972	-37.2
270.188	73.39
270.403	85.67
270.619	18.09
270.835	40.62
271.051	30.38
271.267	-20.82
271.483	93.87
271.698	34.47
271.914	20.14
272.13	16.04
272.346	50.86
272.562	95.91
272.777	34.47
272.993	40.62
273.209	102.06
273.425	26.28
273.64	44.71
273.856	67.24
274.072	132.78
274.287	57
274.503	5.8
274.719	26.28
274.934	83.63
275.15	-61.78
275.366	67.24
275.581	11.95
275.797	63.15
276.012	9.9
276.228	67.24
276.444	11.95
276.659	34.47
276.875	-33.11
277.09	18.09
277.306	69.29
277.521	65.19
277.737	13.99
277.952	63.15
278.168	26.28
278.383	-33.11
278.599	-4.44
278.814	-4.44
279.03	30.38
279.245	83.63
279.461	16.04
279.676	87.72
279.892	11.95
280.107	-0.34
280.322	-26.96
280.538	79.53
280.753	-16.73
280.969	30.38
281.184	36.52
281.399	-35.16
281.615	67.24
281.83	38.57
282.045	-47.44
282.26	13.99
282.476	26.28
282.691	81.58
282.906	40.62
283.122	79.53
283.337	32.43
283.552	18.09
283.767	9.9
283.983	79.53
284.198	13.99
284.413	46.76
284.628	67.24
284.843	38.57
285.058	50.86
285.274	5.8
285.489	34.47
285.704	18.09
285.919	7.85
286.134	44.71
286.349	54.95
286.564	3.75
286.779	46.76
286.995	93.87
287.21	-24.92
287.425	59.05
287.64	13.99
287.855	48.81
288.07	-43.35
288.285	54.95
288.5	65.19
288.715	32.43
288.93	110.25
289.145	-37.2
289.36	-16.73
289.575	1.71
289.79	3.75
290.004	24.23
290.219	75.43
290.434	7.85
290.649	34.47
290.864	-59.73
291.079	67.24
291.294	9.9
291.509	-16.73
291.724	36.52
291.938	44.71
292.153	46.76
292.368	36.52
292.583	100.01
292.798	38.57
293.012	87.72
293.227	48.81
293.442	16.04
293.657	26.28
293.871	110.25
294.086	79.53
294.301	79.53
294.516	75.43
294.73	54.95
294.945	-45.4
295.16	32.43
295.374	-8.53
295.589	57
295.804	13.99
296.018	18.09
296.233	38.57
296.447	36.52
296.662	-76.12
296.877	52.91
297.091	38.57
297.306	-20.82
297.52	-12.63
297.735	75.43
297.949	46.76
298.164	67.24
298.378	67.24
298.593	7.85
298.807	-14.68
299.022	34.47
299.236	38.57
299.451	13.99
299.665	24.23
299.88	16.04
300.094	-2.39
300.309	32.43
300.523	73.39
300.737	40.62
300.952	13.99
301.166	-16.73
301.381	24.23
301.595	63.15
301.809	65.19
302.024	32.43
302.238	-20.82
302.452	11.95
302.667	34.47
302.881	24.23
303.095	54.95
303.309	87.72
303.524	69.29
303.738	-55.64
303.952	5.8
304.166	46.76
304.381	-8.53
304.595	91.82
304.809	-16.73
305.023	85.67
305.237	30.38
305.452	81.58
305.666	9.9
305.88	61.1
306.094	87.72
306.308	13.99
306.522	75.43
306.736	81.58
306.95	32.43
307.164	104.11
307.379	16.04
307.593	61.1
307.807	36.52
308.021	5.8
308.235	22.19
308.449	-2.39
308.663	69.29
308.877	102.06
309.091	3.75
309.305	3.75
309.519	16.04
309.733	32.43
309.947	-12.63
310.161	61.1
310.374	-14.68
310.588	44.71
310.802	57
311.016	77.48
311.23	-2.39
311.444	26.28
311.658	9.9
311.872	16.04
312.085	95.91
312.299	16.04
312.513	26.28
312.727	26.28
312.941	-6.49
313.154	11.95
313.368	81.58
313.582	54.95
313.796	48.81
314.009	-0.34
314.223	61.1
314.437	61.1
314.651	5.8
314.864	-69.97
315.078	67.24
315.292	75.43
315.505	20.14
315.719	28.33
315.933	54.95
316.146	59.05
316.36	38.57
316.573	24.23
316.787	95.91
317.001	75.43
317.214	75.43
317.428	-22.87
317.641	104.11
317.855	-14.68
318.068	7.85
318.282	-20.82
318.495	42.67
318.709	48.81
318.922	-74.07
319.136	36.52
319.349	34.47
319.563	13.99
319.776	52.91
319.99	5.8
320.203	28.33
320.417	67.24
320.63	46.76
320.843	97.96
321.057	46.76
321.27	65.19
321.483	59.05
321.697	110.25
321.91	44.71
322.124	9.9
322.337	-33.11
322.55	46.76
322.763	95.91
322.977	13.99
323.19	-35.16
323.403	34.47
323.617	57
323.83	77.48
324.043	20.14
324.256	-10.58
324.469	32.43
324.683	7.85
324.896	5.8
325.109	81.58
325.322	18.09
325.535	7.85
325.748	83.63
325.962	63.15
326.175	34.47
326.388	97.96
326.601	65.19
326.814	-14.68
327.027	28.33
327.24	110.25
327.453	-2.39
327.666	71.34
327.879	67.24
328.092	79.53
328.305	9.9
328.518	83.63
328.731	28.33
328.944	118.44
329.157	59.05
329.37	9.9
329.583	3.75
329.796	124.58
330.009	42.67
330.222	26.28
330.435	13.99
330.648	36.52
330.861	32.43
331.073	73.39
331.286	106.15
331.499	32.43
331.712	16.04
331.925	-8.53
332.138	3.75
332.35	69.29
332.563	59.05
332.776	16.04
332.989	44.71
333.202	26.28
333.414	34.47
333.627	77.48
333.84	44.71
334.053	36.52
334.265	5.8
334.478	24.23
334.691	32.43
334.903	3.75
335.116	67.24
335.329	95.91
335.541	44.71
335.754	95.91
335.966	-18.77
336.179	54.95
336.392	11.95
336.604	-29.01
336.817	124.58
337.029	48.81
337.242	-33.11
337.454	91.82
337.667	48.81
337.88	81.58
338.092	44.71
338.305	46.76
338.517	40.62
338.729	67.24
338.942	34.47
339.154	79.53
339.367	13.99
339.579	16.04
339.792	89.77
340.004	30.38
340.217	42.67
340.429	89.77
340.641	50.86
340.854	-2.39
341.066	48.81
341.278	63.15
341.491	-8.53
341.703	44.71
341.915	-4.44
342.128	118.44
342.34	44.71
342.552	50.86
342.764	24.23
342.977	65.19
343.189	65.19
343.401	61.1
343.613	-31.06
343.826	54.95
344.038	-0.34
344.25	63.15
344.462	104.11
344.674	65.19
344.886	61.1
345.099	38.57
345.311	63.15
345.523	16.04
345.735	87.72
345.947	81.58
346.159	52.91
346.371	-4.44
346.583	63.15
346.795	134.82
347.007	30.38
347.219	-22.87
347.431	9.9
347.643	89.77
347.855	-26.96
348.067	71.34
348.279	46.76
348.491	73.39
348.703	32.43
348.915	11.95
349.127	30.38
349.339	5.8
349.551	32.43
349.763	130.73
349.975	54.95
350.187	65.19
350.399	46.76
350.61	128.68
350.822	32.43
351.034	26.28
351.246	63.15
351.458	5.8
351.669	38.57
351.881	61.1
352.093	42.67
352.305	54.95
352.517	-10.58
352.728	30.38
352.94	5.8
353.152	26.28
353.363	13.99
353.575	63.15
353.787	91.82
353.999	54.95
354.21	81.58
354.422	3.75
354.633	89.77
354.845	50.86
355.057	106.15
355.268	130.73
355.48	28.33
355.692	11.95
355.903	32.43
356.115	28.33
356.326	57
356.538	42.67
356.749	-2.39
356.961	100.01
357.172	-20.82
357.384	13.99
357.595	44.71
357.807	48.81
358.018	54.95
358.23	38.57
358.441	59.05
358.653	81.58
358.864	-6.49
359.075	50.86
359.287	93.87
359.498	100.01
359.709	38.57
359.921	79.53
360.132	97.96
360.344	77.48
360.555	42.67
360.766	24.23
360.977	95.91
361.189	69.29
361.4	30.38
361.611	54.95
361.823	122.54
362.034	20.14
362.245	40.62
362.456	-16.73
362.667	65.19
362.879	73.39
363.09	69.29
363.301	13.99
363.512	106.15
363.723	89.77
363.935	57
364.146	46.76
364.357	28.33
364.568	11.95
364.779	32.43
364.99	110.25
365.201	54.95
365.412	97.96
365.623	40.62
365.834	118.44
366.045	28.33
366.256	-12.63
366.467	22.19
366.678	16.04
366.889	13.99
367.1	50.86
367.311	16.04
367.522	7.85
367.733	110.25
367.944	26.28
368.155	34.47
368.366	61.1
368.577	114.34
368.788	22.19
368.999	20.14
369.209	30.38
369.42	122.54
369.631	34.47
369.842	65.19
370.053	83.63
370.264	-16.73
370.474	93.87
370.685	18.09
370.896	104.11
371.107	-2.39
371.317	75.43
371.528	65.19
371.739	42.67
371.95	-10.58
372.16	59.05
372.371	-20.82
372.582	7.85
372.792	69.29
373.003	118.44
373.214	93.87
373.424	48.81
373.635	42.67
373.846	122.54
374.056	89.77
374.267	48.81
374.477	50.86
374.688	22.19
374.898	-14.68
375.109	69.29
375.319	48.81
375.53	63.15
375.74	54.95
375.951	-2.39
376.161	57
376.372	38.57
376.582	-10.58
376.793	69.29
377.003	48.81
377.214	132.78
377.424	138.92
377.635	42.67
377.845	52.91
378.055	34.47
378.266	-18.77
378.476	100.01
378.686	3.75
378.897	126.63
379.107	44.71
379.317	3.75
379.528	85.67
379.738	13.99
379.948	-2.39
380.158	134.82
380.369	73.39
380.579	85.67
380.789	30.38
380.999	71.34
381.21	145.06
381.42	112.3
381.63	67.24
381.84	57
382.05	30.38
382.261	-29.01
382.471	44.71
382.681	36.52
382.891	5.8
383.101	95.91
383.311	3.75
383.521	44.71
383.731	-24.92
383.941	1.71
384.151	69.29
384.361	87.72
384.571	110.25
384.781	7.85
384.991	34.47
385.201	91.82
385.411	102.06
385.621	52.91
385.831	132.78
386.041	124.58
386.251	34.47
386.461	91.82
386.671	59.05
386.881	87.72
387.091	95.91
387.301	100.01
387.511	20.14
387.72	61.1
387.93	104.11
388.14	120.49
388.35	81.58
388.56	-43.35
388.769	91.82
388.979	50.86
389.189	81.58
389.399	77.48
389.609	36.52
389.818	87.72
390.028	71.34
390.238	77.48
390.447	-2.39
390.657	79.53
390.867	89.77
391.076	36.52
391.286	65.19
391.496	100.01
391.705	48.81
391.915	-0.34
392.125	40.62
392.334	54.95
392.544	81.58
392.753	32.43
392.963	77.48
393.172	52.91
393.382	50.86
393.591	97.96
393.801	128.68
394.01	57
394.22	106.15
394.429	50.86
394.639	120.49
394.848	116.39
395.058	57
395.267	87.72
395.477	132.78
395.686	65.19
395.895	71.34
396.105	161.45
396.314	100.01
396.524	38.57
396.733	1.71
396.942	63.15
397.152	122.54
397.361	89.77
397.57	87.72
397.78	186.02
397.989	116.39
398.198	173.74
398.407	177.83
398.617	100.01
398.826	91.82
399.035	65.19
399.244	149.16
399.453	104.11
399.663	95.91
399.872	61.1
400.081	100.01
400.29	97.96
400.499	95.91
400.708	186.02
400.917	59.05
401.127	120.49
401.336	124.58
401.545	93.87
401.754	85.67
401.963	132.78
402.172	136.87
402.381	95.91
402.59	61.1
402.799	95.91
403.008	149.16
403.217	97.96
403.426	151.21
403.635	130.73
403.844	173.74
404.053	149.16
404.262	155.3
404.471	155.3
404.68	118.44
404.888	157.35
405.097	153.26
405.306	192.17
405.515	212.65
405.724	173.74
405.933	177.83
406.142	202.41
406.35	163.5
406.559	159.4
406.768	183.98
406.977	147.11
407.185	169.64
407.394	229.03
407.603	245.41
407.812	179.88
408.02	313
408.229	208.55
408.438	235.18
408.646	241.32
408.855	229.03
409.064	280.23
409.272	212.65
409.481	276.13
409.69	296.61
409.898	327.33
410.107	409.25
410.315	376.48
410.524	306.85
410.733	284.33
410.941	267.94
411.15	364.2
411.358	343.72
411.567	405.16
411.775	421.54
411.984	460.45
412.192	415.4
412.401	442.02
412.609	464.55
412.818	521.89
413.026	558.75
413.234	519.84
413.443	448.16
413.651	581.28
413.86	589.47
414.068	663.2
414.276	648.86
414.485	560.8
414.693	671.39
414.901	743.07
415.11	634.53
415.318	730.78
415.526	806.56
415.734	771.74
415.943	900.76
416.151	874.14
416.359	769.69
416.567	939.68
416.776	1003.16
416.984	1109.66
417.192	1015.45
417.4	978.59
417.608	1011.36
417.817	970.4
418.025	1121.95
418.233	1167
418.441	1128.09
418.649	1291.93
418.857	1279.64
419.065	1373.85
419.273	1369.75
419.481	1443.48
419.689	1525.4
419.897	1615.51
420.105	1625.75
420.313	1556.11
420.521	1738.38
420.729	1656.47
420.937	1765.01
421.145	1752.72
421.353	1887.89
421.561	2027.15
421.769	1926.8
421.977	2027.15
422.185	2119.31
422.393	2246.28
422.601	2342.53
422.809	2346.63
423.017	2315.91
423.224	2559.62
423.432	2666.11
423.64	2537.09
423.848	2870.91
424.056	2709.12
424.263	2950.78
424.471	3059.32
424.679	3051.13
424.887	3165.82
425.094	3272.31
425.302	3255.93
425.51	3550.84
425.718	3643
425.925	3534.45
426.133	3776.11
426.341	3812.98
426.548	4034.16
426.756	3972.72
426.964	4197.99
427.171	4447.85
427.379	4445.8
427.586	4515.43
427.794	4673.12
428.001	4922.98
428.209	5109.34
428.417	4875.87
428.624	5217.88
428.832	5295.71
429.039	5351
429.247	5365.34
429.454	5756.5
429.662	6151.76
429.869	5838.42
430.076	6202.96
430.284	6188.62
430.491	6391.37
430.699	6665.8
430.906	6626.89
431.114	6772.29
431.321	7009.86
431.528	7278.14
431.736	7773.75
431.943	7896.63
432.15	7499.32
432.358	7906.87
432.565	8275.5
432.772	8263.21
432.979	8605.22
433.187	8822.31
433.394	8807.97
433.601	9487.9
433.808	9246.24
434.016	9526.81
434.223	10065.43
434.43	10382.86
434.637	10239.5
434.844	10866.18
435.052	11042.31
435.259	11236.86
435.466	11240.96
435.673	11030.02
435.88	12013.04
436.087	12545.52
436.294	12223.98
436.501	12078.58
436.708	12336.62
436.915	12819.94
437.122	13250.02
437.329	13503.96
437.537	13530.59
437.743	14073.3
437.95	13991.38
438.157	14679.5
438.364	14912.97
438.571	14867.91
438.778	15107.52
438.985	16477.62
439.192	15850.94
439.399	16602.54
439.606	16025.01
439.813	16813.48
440.02	17960.34
440.227	17829.27
440.433	17503.65
440.64	17755.55
440.847	18009.5
441.054	18255.25
441.261	19465.6
441.467	19037.58
441.674	19828.09
441.881	20475.25
442.088	20245.88
442.294	20088.18
442.501	20661.62
442.708	21130.6
442.914	21843.29
443.121	22785.36
443.328	22164.82
443.534	24073.53
443.741	22949.2
443.948	22760.78
444.154	24657.2
444.361	24237.37
444.568	24423.73
444.774	24841.52
444.981	24921.39
445.187	25619.75
445.394	26623.25
445.6	26135.84
445.807	28701.94
446.013	27385.1
446.22	28394.75
446.426	29320.43
446.633	29596.9
446.839	30627.03
447.046	29281.52
447.252	30606.55
447.459	30874.84
447.665	30940.37
447.871	32091.33
448.078	33526.96
448.284	31528.14
448.491	32734.39
448.697	34208.93
448.903	34579.61
449.11	34860.18
449.316	34094.24
449.522	34520.22
449.728	35515.53
449.935	35830.92
450.141	35904.65
450.347	36818.04
450.553	35824.78
450.76	35822.73
450.966	37362.8
451.172	36433.02
451.378	37512.3
451.584	36990.07
451.791	37979.24
451.997	37547.12
452.203	38521.95
452.409	38364.26
452.615	38372.45
452.821	36985.97
453.027	36623.48
453.233	38284.39
453.44	37000.31
453.646	37127.28
453.852	37653.61
454.058	37874.79
454.264	36578.43
454.47	37682.28
454.676	37078.13
454.882	37991.53
455.088	34925.72
455.294	35067.03
455.5	35447.95
455.705	36295.81
455.911	34899.09
456.117	34102.43
456.323	33348.78
456.529	31904.96
456.735	32986.29
456.941	32249.02
457.147	32009.41
457.352	31073.49
457.558	30571.74
457.764	30455
457.97	30215.39
458.176	29445.35
458.381	29385.96
458.587	28108.03
458.793	28282.11
458.999	26440.98
459.204	28390.65
459.41	27585.8
459.616	25679.14
459.821	26115.36
460.027	25908.51
460.233	25214.25
460.438	24167.74
460.644	24225.08
460.85	22732.11
461.055	22902.09
461.261	23027.02
461.466	21050.73
461.672	20237.69
461.878	21931.36
462.083	20475.25
462.289	20166.01
462.494	19799.42
462.7	18976.14
462.905	18515.34
463.111	19336.58
463.316	19078.54
463.522	18759.05
463.727	18967.95
463.932	18460.05
464.138	18281.88
464.343	18492.82
464.549	17976.73
464.754	18685.33
464.959	18156.95
465.165	18253.2
465.37	17608.09
465.575	17237.41
465.781	17888.67
465.986	17411.49
466.191	17182.12
466.397	16856.49
466.602	16035.25
466.807	16547.25
467.012	16645.55
467.218	16442.8
467.423	16246.19
467.628	16465.33
467.833	17057.19
468.038	16498.09
468.244	16289.2
468.449	16852.39
468.654	16119.22
468.859	16123.32
469.064	15842.74
469.269	15318.46
469.474	15414.72
469.679	15912.38
469.885	15295.94
470.09	15670.72
470.295	15490.49
470.5	14902.73
470.705	15226.31
470.91	15031.75
471.115	14702.03
471.32	14773.71
471.525	14663.11
471.73	14357.97
471.935	14425.55
472.139	14007.76
472.344	14144.98
472.549	13768.15
472.754	13784.54
472.959	13501.92
473.164	13241.82
473.369	13063.65
473.574	13589.98
473.778	13237.73
473.983	13374.94
474.188	12998.12
474.393	12533.23
474.598	12678.63
474.802	12654.06
475.007	12506.6
475.212	12475.88
475.417	11965.94
475.621	12129.78
475.826	12160.5
476.031	12058.1
476.235	11757.05
476.44	11941.36
476.645	11404.8
476.849	11566.59
477.054	11515.39
477.259	11359.74
477.463	11339.26
477.668	10929.67
477.872	11238.91
478.077	11089.41
478.282	10663.43
478.486	10499.59
478.691	10511.88
478.895	10532.36
479.1	10534.41
479.304	10358.28
479.509	10133.01
479.713	10384.91
479.918	10053.14
480.122	9821.72
480.326	9934.36
480.531	9891.35
480.735	10042.9
480.94	9733.65
481.144	10266.13
481.348	9565.72
481.553	9838.1
481.757	9448.99
481.961	9760.28
482.166	9725.46
482.37	9778.71
482.574	9487.9
482.778	9686.55
482.983	9600.54
483.187	9698.84
483.391	9516.57
483.595	9596.44
483.8	9309.72
484.004	9565.72
484.208	9567.77
484.412	9553.43
484.616	9762.33
484.821	9600.54
485.025	9502.23
485.229	9614.87
485.433	9588.25
485.637	9604.63
485.841	9588.25
486.045	9436.7
486.249	9762.33
486.453	9487.9
486.657	9670.17
486.861	9592.34
487.065	9293.34
487.269	9528.86
487.473	9522.71
487.677	9821.72
487.881	9727.51
488.085	9631.26
488.289	9682.45
488.493	9643.54
488.697	9661.98
488.901	9580.06
489.105	9463.32
489.309	9731.61
489.512	9723.41
489.716	9772.57
489.92	9598.49
490.124	9754.13
490.328	10192.4
490.531	9926.16
490.735	9877.01
490.939	9936.4
491.143	9838.1
491.346	9754.13
491.55	10155.54
491.754	9967.12
491.958	10040.85
492.161	9987.6
492.365	10085.9
492.569	10030.61
492.772	10176.02
492.976	10335.76
493.18	10034.71
493.383	10262.03
493.587	10309.13
493.79	10507.79
493.994	10341.9
494.197	10454.54
494.401	10612.23
494.605	10509.83
494.808	10741.25
495.012	10601.99
495.215	10919.43
495.419	10950.15
495.622	10874.37
495.825	11212.29
496.029	11355.65
496.232	11245.06
496.436	11298.3
496.639	11728.38
496.843	11427.32
497.046	11570.68
497.249	11658.74
497.453	11845.11
497.656	11976.18
497.859	12180.98
498.063	12203.5
498.266	12445.16
498.469	12469.74
498.673	12443.12
498.876	12652.01
499.079	12938.73
499.282	12821.99
499.485	13118.95
499.689	13061.6
499.892	13207.01
500.095	13358.56
500.298	13651.42
500.501	13696.47
500.705	13960.66
500.908	13995.48
501.111	14028.24
501.314	14292.43
501.517	14376.4
501.72	14857.67
501.923	14534.09
502.126	14960.07
502.329	14851.53
502.532	15285.7
502.735	15502.78
502.938	15578.56
503.141	15541.69
503.344	16031.16
503.547	15820.22
503.75	16162.23
503.953	16479.66
504.156	16682.41
504.359	16600.49
504.562	16911.78
504.765	17431.97
504.968	17216.93
505.17	17362.34
505.373	17749.4
505.576	17821.08
505.779	17989.02
505.982	18183.57
506.185	18382.23
506.387	18638.22
506.59	18439.57
506.793	19015.05
506.996	18775.44
507.198	19369.35
507.401	19219.85
507.604	19563.9
507.807	19903.87
508.009	20112.76
508.212	20116.86
508.415	20788.59
508.617	20325.75
508.82	20874.6
509.022	20905.32
509.225	21433.7
509.428	21546.34
509.63	21775.71
509.833	21900.64
510.035	22261.08
510.238	22187.35
510.44	22291.8
510.643	22711.63
510.845	22783.31
511.048	22988.11
511.25	23332.17
511.453	23366.98
511.655	24218.94
511.858	23936.32
512.06	24157.5
512.262	24657.2
512.465	24599.86
512.667	24849.71
512.87	25027.88
513.072	24997.17
513.274	25666.85
513.477	25605.41
513.679	25974.05
513.881	26516.76
514.084	26729.75
514.286	26316.06
514.488	26531.09
514.69	27352.33
514.893	27108.62
515.095	27776.26
515.297	27727.11
515.499	27829.51
515.701	28331.26
515.904	28493.05
516.106	28620.02
516.308	29148.4
516.51	29461.74
516.712	29474.02
516.914	29971.68
517.116	30100.7
517.318	30209.25
517.52	30274.78
517.722	30444.76
517.925	31161.55
518.127	31288.53
518.329	31636.68
518.531	31767.75
518.733	32203.97
518.935	32201.92
519.136	32226.49
519.338	32642.23
519.54	32730.3
519.742	32842.93
519.944	33762.47
520.146	33516.72
520.348	34108.58
520.55	34135.2
520.752	34407.58
520.954	34796.7
521.155	34495.64
521.357	35388.56
521.559	35273.87
521.761	35724.43
521.963	35785.86
522.164	35687.56
522.366	36199.55
522.568	36291.71
522.77	36625.53
522.971	37336.18
523.173	37141.62
523.375	37336.18
523.576	37444.72
523.778	37801.07
523.98	37923.94
524.181	38241.38
524.383	37907.56
524.584	38288.48
524.786	38841.43
524.988	38536.29
525.189	39330.9
525.391	39001.18
525.592	39562.32
525.794	39601.23
525.995	39824.46
526.197	39984.2
526.398	39748.68
526.6	40381.51
526.801	40121.41
527.003	40516.67
527.204	40631.36
527.406	40893.5
527.607	40870.97
527.808	40901.69
528.01	40504.38
528.211	40971.32
528.412	41745.45
528.614	41544.75
528.815	41489.46
529.016	41989.16
529.218	41327.67
529.419	41821.23
529.62	42204.2
529.822	42001.45
530.023	41921.58
530.224	42044.46
530.425	42171.43
530.626	41749.55
530.828	41933.87
531.029	42837.02
531.23	42511.39
531.431	42224.68
531.632	42531.87
531.833	42839.07
532.035	42591.26
532.236	42644.51
532.437	43330.58
532.638	42445.86
532.839	43242.52
533.04	43230.23
533.241	42615.84
533.442	43752.46
533.643	43461.65
533.844	42816.54
534.045	43299.86
534.246	42734.62
534.447	43383.83
534.648	42722.33
534.849	43398.16
535.05	42912.8
535.251	43293.72
535.451	42701.86
535.652	43365.4
535.853	43236.37
536.054	43242.52
536.255	43060.25
536.456	43191.32
536.657	43666.45
536.857	43306.01
537.058	42853.4
537.259	43584.53
537.46	43453.46
537.66	43490.32
537.861	43496.47
538.062	42847.26
538.263	43062.3
538.463	43492.37
538.664	43465.75
538.865	43316.25
539.065	43650.06
539.266	42767.39
539.466	43314.2
539.667	43007
539.868	43439.12
540.068	43324.44
540.269	43129.88
540.469	43600.91
540.67	42982.43
540.87	43234.33
541.071	43115.54
541.271	43342.87
541.472	42935.32
541.672	43240.47
541.873	43219.99
542.073	42832.93
542.274	43254.81
542.474	43344.92
542.675	42658.85
542.875	43318.29
543.075	43052.06
543.276	42994.71
543.476	43600.91
543.676	42791.97
543.877	43566.1
544.077	43187.22
544.277	43039.77
544.478	42906.65
544.678	43140.12
544.878	42925.08
545.078	42959.9
545.279	42441.76
545.479	42732.57
545.679	42855.45
545.879	42791.97
546.079	42957.85
546.28	43217.94
546.48	42517.54
546.68	43062.3
546.88	42941.47
547.08	43236.37
547.28	42595.36
547.48	42693.66
547.68	42810.4
547.88	42376.23
548.081	43045.91
548.281	43193.37
548.481	42828.83
548.681	43263
548.881	42923.04
549.081	42914.84
549.28	42568.74
549.48	43176.98
549.68	42351.65
549.88	43174.94
550.08	42562.59
550.28	42605.6
550.48	42656.8
550.68	42941.47
550.88	42331.17
551.08	42839.07
551.279	42404.9
551.479	42224.68
551.679	42757.15
551.879	42165.29
552.079	42572.83
552.278	42138.66
552.478	42628.13
552.678	42626.08
552.878	42781.73
553.077	42404.9
553.277	42277.93
553.477	42677.28
553.676	42130.47
553.876	42615.84
554.076	42318.88
554.275	42187.81
554.475	41942.06
554.674	42177.58
554.874	42234.92
555.074	42134.57
555.273	42685.47
555.473	42359.84
555.672	41894.96
555.872	41886.76
556.071	42261.54
556.271	42196.01
556.47	41862.19
556.67	41387.06
556.869	41937.96
557.068	42103.85
557.268	41294.9
557.467	41907.24
557.667	41765.93
557.866	41456.69
558.065	41550.9
558.265	41337.91
558.464	40881.21
558.663	41360.44
558.863	41118.78
559.062	41692.21
559.261	41036.86
559.461	41718.83
559.66	40932.41
559.859	41282.61
560.058	40877.11
560.258	41372.72
560.457	40688.7
560.656	41356.34
560.855	40977.47
561.054	40686.65
561.253	40494.14
561.453	40571.97
561.652	40555.58
561.851	40641.6
562.05	40348.74
562.249	40457.28
562.448	40717.37
562.647	40465.47
562.846	40399.94
563.045	40561.73
563.244	39963.72
563.443	40608.83
563.642	40121.41
563.841	40152.13
564.04	39904.33
564.239	39810.12
564.438	39398.48
564.637	39803.98
564.836	39941.19
565.035	39287.89
565.234	39693.39
565.432	39353.43
565.631	39318.61
565.83	39525.46
566.029	39115.86
566.228	39193.68
566.427	39169.11
566.625	38716.51
566.824	38571.1
567.023	39009.37
567.222	38268
567.42	38704.22
567.619	38548.57
567.818	38526.05
568.016	38491.23
568.215	38777.95
568.414	38184.04
568.612	38358.11
568.811	38007.91
569.01	38083.69
569.208	37704.81
569.407	38048.87
569.605	37624.94
569.804	37827.69
570.002	37399.66
570.201	37661.8
570.4	36973.69
570.598	37340.27
570.797	37293.17
570.995	37024.89
571.193	36648.06
571.392	37405.81
571.59	36844.66
571.789	37184.63
571.987	37057.65
572.186	37092.47
572.384	36416.64
572.582	36897.91
572.781	36689.02
572.979	36287.62
573.177	36357.25
573.376	36328.58
573.574	36052.1
573.772	35966.09
573.971	36011.14
574.169	35916.93
574.367	35871.88
574.565	36064.39
574.763	35634.31
574.962	35843.21
575.16	35071.12
575.358	35542.16
575.556	35034.26
575.754	35536.01
575.952	34800.79
576.151	35239.06
576.349	34671.77
576.547	34872.47
576.745	34851.99
576.943	34845.85
577.141	34835.61
577.339	34636.95
577.537	34520.22
577.735	34282.66
577.933	34028.71
578.131	34495.64
578.329	34165.92
578.527	33922.21
578.725	33887.4
578.923	33785
579.121	33434.8
579.319	33717.42
579.516	33844.39
579.714	33694.89
579.912	33418.41
580.11	33232.05
580.308	33582.25
580.506	33469.61
580.704	32578.75
580.901	33074.35
581.099	33279.15
581.297	33072.31
581.495	32941.24
581.692	32654.52
581.89	32689.34
582.088	32744.63
582.285	32541.88
582.483	32402.62
582.681	32564.41
582.878	32371.9
583.076	32257.21
583.274	32160.96
583.471	31673.54
583.669	32103.62
583.866	31644.87
584.064	32072.9
584.262	31542.47
584.459	31753.41
584.657	31458.51
584.854	31163.6
585.052	31302.86
585.249	31487.18
585.447	31448.27
585.644	31075.54
585.841	31079.63
586.039	31358.16
586.236	30469.34
586.434	30799.06
586.631	30762.2
586.828	30395.61
587.026	30647.51
587.223	30596.31
587.42	30579.93
587.618	30414.04
587.815	30041.31
588.012	30141.66
588.21	29922.53
588.407	30358.75
588.604	29691.11
588.801	29662.44
588.999	29775.08
589.196	29887.71
589.393	29834.47
589.59	29334.76
589.787	29132.01
589.984	29402.35
590.182	29066.48
590.379	29318.38
590.576	29052.14
590.773	29113.58
590.97	28376.31
591.167	28945.65
591.364	28736.76
591.561	28959.98
591.758	28400.89
591.955	28671.22
592.152	28951.79
592.349	28353.79
592.546	28388.6
592.743	28183.8
592.94	27987.2
593.137	28284.16
593.334	28134.65
593.531	27720.96
593.727	27962.62
593.924	27706.63
594.121	27630.85
594.318	27952.38
594.515	27342.09
594.712	27860.23
594.908	27094.29
595.105	27579.65
595.302	26950.93
595.499	27204.88
595.696	27178.25
595.892	27092.24
596.089	27153.68
596.286	26848.53
596.482	26787.09
596.679	26606.87
596.876	26729.75
597.072	26250.52
597.269	26715.41
597.466	26324.25
597.662	26146.08
597.859	26494.23
598.055	25933.09
598.252	26023.2
598.448	25957.66
598.645	25881.89
598.841	25877.79
599.038	25787.68
599.234	25541.92
599.431	25410.85
599.627	25767.2
599.824	25677.09
600.02	25320.74
600.217	25263.4
600.413	25171.24
600.609	24937.77
600.806	24913.2
601.002	25206.06
601.198	25091.37
601.395	24616.24
601.591	24739.12
601.787	24792.37
601.984	24517.94
602.18	24515.89
602.376	24358.2
602.572	24421.69
602.769	24216.89
602.965	24059.2
603.161	24110.39
603.357	24220.99
603.553	23909.69
603.75	23901.5
603.946	23747.9
604.142	24044.86
604.338	23631.17
604.534	23639.36
604.73	23479.62
604.926	23393.61
605.122	23795.01
605.318	23317.83
605.514	23240.01
605.71	23291.21
605.906	22924.62
606.102	23106.89
606.298	23188.81
606.494	23004.49
606.69	23110.99
606.886	22992.2
607.082	22859.09
607.278	23037.26
607.474	22547.79
607.67	22703.44
607.866	22508.88
608.062	22621.52
608.257	22498.64
608.453	22523.22
608.649	22728.02
608.845	22242.65
609.041	22396.24
609.236	22515.03
609.432	22254.94
609.628	22205.78
609.824	22136.15
610.019	21839.2
610.215	22080.86
610.411	21890.4
610.606	21962.08
610.802	22072.67
610.998	21716.32
611.193	21749.09
611.389	21884.25
611.584	21742.94
611.78	21566.82
611.976	21644.64
612.171	21593.44
612.367	21691.74
612.562	21632.35
612.758	21331.3
612.953	21384.55
613.149	21597.54
613.344	21052.78
613.539	21691.74
613.735	21194.09
613.93	21474.66
614.126	21179.75
614.321	21575.01
614.517	21339.49
614.712	21013.87
614.907	20923.76
615.103	21198.18
615.298	21020.01
615.493	21351.78
615.688	20718.96
615.884	21261.67
616.079	20868.46
616.274	20999.53
616.47	20766.06
616.665	20852.08
616.86	20567.41
617.055	20755.82
617.25	20553.07
617.445	20751.73
617.641	20196.73
617.836	20557.17
618.031	20114.81
618.226	20419.96
618.421	20073.85
618.616	20630.9
618.811	19912.06
619.006	20278.65
619.201	19615.1
619.396	20186.49
619.591	19543.42
619.786	19809.66
619.981	19502.47
620.176	20010.36
620.371	19500.42
620.566	19686.78
620.761	19350.92
620.956	19578.24
621.151	19068.3
621.346	19168.65
621.541	19010.95
621.735	19084.68
621.93	18675.09
622.125	18963.85
622.32	18451.86
622.515	18625.93
622.709	18435.47
622.904	18707.85
623.099	18281.88
623.294	18179.48
623.488	18050.46
623.683	18300.31
623.878	17778.08
624.072	17839.51
624.267	17956.25
624.462	17642.91
624.656	17673.63
624.851	17466.78
625.046	17573.28
625.24	17427.87
625.435	17184.16
625.629	17194.4
625.824	17108.39
626.018	17063.33
626.213	16461.23
626.407	17049
626.602	16817.58
626.796	16711.08
626.991	16688.56
627.185	16418.22
627.38	16434.61
627.574	16086.45
627.768	15830.46
627.963	15953.34
628.157	15732.15
628.352	16094.65
628.546	15586.75
628.74	16029.11
628.935	15562.17
629.129	15674.81
629.323	15355.33
629.517	15433.15
629.712	15396.29
629.906	15103.43
630.1	14966.21
630.294	15021.51
630.489	14974.41
630.683	14976.45
630.877	14532.04
631.071	14689.74
631.265	14847.43
631.459	14704.07
631.653	14546.38
631.848	14472.65
632.042	14302.67
632.236	14214.61
632.43	14380.5
632.624	14079.44
632.818	14067.16
633.012	13913.56
633.206	13882.84
633.4	13759.96
633.594	13624.79
633.788	13659.61
633.982	13749.72
634.176	13673.95
634.369	13252.06
634.563	13311.46
634.757	13315.55
634.951	13360.61
635.145	13211.11
635.339	13293.02
635.533	13153.76
635.726	12948.97
635.92	12858.85
636.114	13213.15
636.308	12733.93
636.501	12625.39
636.695	12883.43
636.889	12533.23
637.083	12490.22
637.276	12533.23
637.47	12330.48
637.664	12461.55
637.857	12295.66
638.051	12148.21
638.244	12273.14
638.438	12256.75
638.632	11996.66
638.825	11771.38
639.019	12113.39
639.212	11798.01
639.406	11845.11
639.599	11623.93
639.793	11611.64
639.986	11580.92
640.18	11703.8
640.373	11564.54
640.567	11404.8
640.76	11312.64
640.954	11365.89
641.147	11128.32
641.34	11193.86
641.534	10960.39
641.727	11126.27
641.92	11056.64
642.114	11025.92
642.307	11007.49
642.5	10731.01
642.694	10780.17
642.887	10556.94
643.08	10794.5
643.273	10673.67
643.467	10481.16
643.66	10423.82
643.853	10354.19
644.046	10376.72
644.239	10270.22
644.432	10343.95
644.626	10032.66
644.819	9948.69
645.012	10173.97
645.205	10032.66
645.398	9877.01
645.591	9854.48
645.784	10003.99
645.977	9848.34
646.17	9831.96
646.363	9551.38
646.556	9500.19
646.749	9788.95
646.942	9782.81
647.135	9420.31
647.328	9578.01
647.521	9432.6
647.714	9309.72
647.907	9416.22
648.099	9209.37
648.292	9283.1
648.485	9215.52
648.678	9020.96
648.871	9025.06
649.064	8945.19
649.256	9018.91
649.449	8945.19
649.642	8912.42
649.835	8701.48
650.027	8762.92
650.22	8721.96
650.413	8830.5
650.605	8650.28
650.798	8644.13
650.991	8601.13
651.183	8508.97
651.376	8453.67
651.568	8494.63
651.761	8449.58
651.954	8318.51
652.146	8322.6
652.339	8369.71
652.531	8207.92
652.724	8244.78
652.916	7956.02
653.109	8091.18
653.301	8117.81
653.494	8011.31
653.686	7870
653.879	8183.34
654.071	7933.49
654.263	7849.52
654.456	8009.26
654.648	7755.32
654.84	7792.18
655.033	7652.92
655.225	7745.08
655.417	7552.57
655.61	7749.17
655.802	7634.49
655.994	7507.51
656.186	7646.77
656.379	7374.39
656.571	7517.75
656.763	7284.28
656.955	7190.08
657.148	7337.53
657.34	7081.53
657.532	7192.12
657.724	7165.5
657.916	7122.49
658.108	7048.77
658.3	7054.91
658.492	7050.82
658.684	7083.58
658.876	6970.94
659.068	7138.88
659.26	6792.77
659.452	6954.56
659.644	6983.23
659.836	6684.23
660.028	6745.67
660.22	6723.14
660.412	6614.6
660.604	6604.36
660.796	6776.39
660.988	6538.82
661.18	6577.73
661.372	6391.37
661.563	6559.3
661.755	6493.77
661.947	6329.93
662.139	6389.32
662.331	6428.23
662.522	6282.83
662.714	6295.11
662.906	6227.53
663.097	6352.46
663.289	6231.63
663.481	6129.23
663.673	6116.94
663.864	6055.5
664.056	5951.06
664.247	6045.26
664.439	5959.25
664.631	5858.9
664.822	6069.84
665.014	6110.8
665.205	5850.71
665.397	5912.14
665.588	5805.65
665.78	5711.44
665.971	5850.71
666.163	5760.59
666.354	5852.75
666.546	5686.87
666.737	5822.03
666.929	5566.04
667.12	5617.24
667.311	5641.81
667.503	5684.82
667.694	5656.15
667.885	5443.16
668.077	5609.05
668.268	5367.38
668.459	5490.26
668.651	5510.74
668.842	5301.85
669.033	5371.48
669.224	5211.74
669.416	5385.82
669.607	5320.28
669.798	5256.79
669.989	5174.88
670.18	5234.27
670.371	5236.31
670.563	5158.49
670.754	5115.48
670.945	5228.12
671.136	5197.4
671.327	5107.29
671.518	5217.88
671.709	5004.89
671.9	5052
672.091	5107.29
672.282	5054.05
672.473	4970.08
672.664	4908.64
672.855	5035.61
673.046	4914.78
673.237	5086.81
673.428	4941.41
673.619	4839.01
673.809	4970.08
674	4855.39
674.191	4830.82
674.382	4812.39
674.573	4802.15
674.764	4865.63
674.954	4877.92
675.145	4693.6
675.336	4740.71
675.527	4834.91
675.717	4814.43
675.908	4820.58
676.099	4619.88
676.289	4675.17
676.48	4673.12
676.671	4722.27
676.861	4703.84
677.052	4540.01
677.243	4607.59
677.433	4425.32
677.624	4570.72
677.814	4722.27
678.005	4521.57
678.195	4591.2
678.386	4601.44
678.576	4497
678.767	4398.7
678.957	4476.52
679.148	4494.95
679.338	4540.01
679.529	4521.57
679.719	4544.1
679.909	4351.59
680.1	4384.36
680.29	4464.23
680.481	4343.4
680.671	4402.79
680.861	4331.11
681.052	4281.96
681.242	4560.49
681.432	4435.56
681.622	4374.12
681.813	4329.06
682.003	4220.52
682.193	4353.64
682.383	4370.02
682.573	4275.82
682.764	4296.3
682.954	4212.33
683.144	4275.82
683.334	4171.37
683.524	4208.23
683.714	4118.12
683.904	4169.32
684.094	4206.19
684.284	4200.04
684.474	4081.26
684.664	3978.86
684.854	4046.44
685.044	3997.29
685.234	4187.75
685.424	4068.97
685.614	4025.97
685.804	4128.36
685.994	4097.64
686.184	4054.64
686.374	4134.51
686.564	4083.31
686.753	4105.84
686.943	3978.86
687.133	4040.3
687.323	4011.63
687.513	3993.2
687.702	4019.82
687.892	3888.75
688.082	3747.44
688.272	3827.31
688.461	3888.75
688.651	3987.05
688.841	3868.27
689.03	3808.88
689.22	3845.74
689.41	3798.64
689.599	3694.19
689.789	3815.02
689.979	3743.35
690.168	3757.68
690.358	3706.48
690.547	3692.15
690.737	3739.25
690.926	3581.56
691.116	3606.13
691.305	3532.4
691.495	3628.66
691.684	3606.13
691.874	3522.16
692.063	3567.22
692.252	3589.75
692.442	3565.17
692.631	3477.11
692.82	3421.81
693.01	3307.13
693.199	3343.99
693.388	3393.14
693.578	3350.14
693.767	3317.37
693.956	3282.55
694.146	3391.09
694.335	3284.6
694.524	3362.42
694.713	3305.08
694.902	3417.72
695.092	3305.08
695.281	3321.46
695.47	3225.21
695.659	3200.63
695.848	3237.5
696.037	3163.77
696.226	3260.02
696.415	3212.92
696.604	3204.73
696.793	3262.07
696.982	3245.69
697.171	3174.01
697.36	3239.55
697.549	3145.34
697.738	3217.02
697.927	3110.52
698.116	3171.96
698.305	3217.02
698.494	3198.59
698.683	3141.24
698.872	3163.77
699.061	3057.28
699.25	3122.81
699.438	3204.73
699.627	3118.72
699.816	3088
700.005	3341.94
700.193	3169.91
700.382	3081.85
700.571	3264.12
700.76	3055.23
700.948	3198.59
701.137	3102.33
701.326	3069.56
701.514	3182.2
701.703	3141.24
701.892	3167.87
702.08	3141.24
702.269	3083.9
702.457	2934.4
702.646	3036.8
702.834	3061.37
703.023	3047.04
703.212	3128.95
703.4	2967.17
703.589	3059.32
703.777	3100.28
703.965	3137.15
704.154	3147.39
704.342	2930.3
704.531	3094.14
704.719	3044.99
704.907	3044.99
705.096	2969.21
705.284	3051.13
705.472	3167.87
705.661	3131
705.849	3090.04
706.037	2981.5
706.226	3108.48
706.414	3147.39
706.602	3059.32
706.79	3010.17
706.979	3018.36
707.167	3042.94
707.355	2961.02
707.543	2928.25
707.731	2995.84
707.919	3020.41
708.107	2907.77
708.296	2961.02
708.484	2934.4
708.672	2973.31
708.86	2913.92
709.048	2981.5
709.236	2958.97
709.424	3026.56
709.612	3038.84
709.8	2969.21
709.988	2936.45
710.176	2860.67
710.364	2977.41
710.551	2989.69
710.739	3135.1
710.927	2950.78
711.115	2975.36
711.303	2963.07
711.491	2872.96
711.679	3063.42
711.866	2870.91
712.054	3044.99
712.242	2977.41
712.43	2995.84
712.617	3020.41
712.805	2885.25
712.993	2985.6
713.181	2903.68
713.368	2940.54
713.556	3020.41
713.744	2907.77
713.931	3061.37
714.119	3004.03
714.306	3116.67
714.494	3018.36
714.682	2991.74
714.869	2827.9
715.057	2909.82
715.244	2872.96
715.432	2946.69
715.619	2924.16
715.807	2926.21
715.994	2875.01
716.182	2926.21
716.369	2969.21
716.556	2913.92
716.744	2973.31
716.931	2965.12
717.119	2967.17
717.306	2891.39
717.493	3010.17
717.681	2950.78
717.868	2920.06
718.055	3030.65
718.242	2918.01
718.43	3053.18
718.617	3067.52
718.804	3075.71
718.991	2932.35
719.179	2915.97
719.366	2965.12
719.553	2993.79
719.74	3006.08
719.927	3061.37
720.114	2909.82
720.301	3008.12
720.488	2940.54
720.676	3102.33
720.863	3036.8
721.05	3008.12
721.237	2909.82
721.424	2920.06
721.611	2815.62
721.798	2889.34
721.985	2922.11
722.172	2836.1
722.358	2930.3
722.545	2979.45
722.732	2944.64
722.919	2901.63
723.106	2883.2
723.293	3075.71
723.48	2864.77
723.667	2897.53
723.853	2909.82
724.04	2995.84
724.227	2895.49
724.414	2948.73
724.6	2901.63
724.787	2922.11
724.974	2946.69
725.161	2879.1
725.347	2934.4
725.534	2920.06
725.72	2952.83
725.907	2958.97
726.094	2889.34
726.28	2862.72
726.467	2977.41
726.653	2801.28
726.84	2930.3
727.027	2991.74
727.213	2948.73
727.4	3012.22
727.586	2901.63
727.773	2920.06
727.959	2928.25
728.145	2870.91
728.332	2909.82
728.518	2901.63
728.705	2991.74
728.891	2788.99
729.077	2848.38
729.264	2823.81
729.45	2969.21
729.636	2965.12
729.823	2932.35
730.009	2999.93
730.195	2944.64
730.382	2950.78
730.568	2989.69
730.754	2825.86
730.94	3024.51
731.126	2844.29
731.313	2756.22
731.499	2922.11
731.685	2879.1
731.871	2942.59
732.057	2877.05
732.243	2928.25
732.429	2915.97
732.615	2807.42
732.801	2799.23
732.987	2858.62
733.173	2868.86
733.359	3016.32
733.545	2788.99
733.731	2842.24
733.917	2825.86
734.103	2879.1
734.289	2868.86
734.475	2846.34
734.661	2836.1
734.847	2834.05
735.033	2860.67
735.219	2893.44
735.404	2803.33
735.59	2768.51
735.776	2788.99
735.962	2877.05
736.148	2809.47
736.333	2811.52
736.519	2682.5
736.705	2844.29
736.89	2688.64
737.076	2752.13
737.262	2805.38
737.447	2776.7
737.633	2676.35
737.819	2791.04
738.004	2903.68
738.19	2782.85
738.375	2825.86
738.561	2756.22
738.747	2666.11
738.932	2723.46
739.118	2778.75
739.303	2821.76
739.489	2733.7
739.674	2764.42
739.859	2594.44
740.045	2690.69
740.23	2727.55
740.416	2758.27
740.601	2729.6
740.786	2682.5
740.972	2666.11
741.157	2662.02
741.342	2510.47
741.528	2543.24
741.713	2608.77
741.898	2637.44
742.084	2696.83
742.269	2633.35
742.454	2631.3
742.639	2535.04
742.824	2596.48
743.01	2522.76
743.195	2535.04
743.38	2594.44
743.565	2528.9
743.75	2594.44
743.935	2467.46
744.12	2641.54
744.305	2496.13
744.49	2479.75
744.675	2455.17
744.86	2502.28
745.045	2408.07
745.23	2412.17
745.415	2436.74
745.6	2412.17
745.785	2332.3
745.97	2330.25
746.155	2397.83
746.34	2410.12
746.525	2320.01
746.71	2375.3
746.895	2397.83
747.079	2258.57
747.264	2303.62
747.449	2322.06
747.634	2279.05
747.819	2313.86
748.003	2348.68
748.188	2213.51
748.373	2190.99
748.557	2221.7
748.742	2078.35
748.927	2186.89
749.111	2102.92
749.296	2184.84
749.481	2207.37
749.665	2145.93
749.85	2119.31
750.034	2037.39
750.219	2018.96
750.404	2057.87
750.588	2012.81
750.773	2037.39
750.957	2051.72
751.141	1982.09
751.326	1945.23
751.51	1891.98
751.695	2066.06
751.879	1902.22
752.064	2055.82
752.248	1887.89
752.432	1918.61
752.617	1932.94
752.801	1844.88
752.985	1846.93
753.17	1871.5
753.354	1943.18
753.538	1967.76
753.722	1783.44
753.907	1662.61
754.091	1803.92
754.275	1795.73
754.459	1799.82
754.643	1754.77
754.828	1756.82
755.012	1705.62
755.196	1623.7
755.38	1687.18
755.564	1656.47
755.748	1640.08
755.932	1652.37
756.116	1572.5
756.3	1691.28
756.484	1615.51
756.668	1625.75
756.852	1529.49
757.036	1568.4
757.22	1576.59
757.404	1523.35
757.588	1595.03
757.772	1578.64
757.956	1502.87
758.14	1535.64
758.323	1463.96
758.507	1578.64
758.691	1455.76
758.875	1494.68
759.059	1541.78
759.242	1466
759.426	1457.81
759.61	1437.33
759.794	1414.81
759.977	1406.61
760.161	1468.05
760.345	1410.71
760.528	1369.75
760.712	1406.61
760.895	1322.65
761.079	1410.71
761.263	1308.31
761.446	1304.21
761.63	1343.13
761.813	1357.46
761.997	1369.75
762.18	1318.55
762.364	1287.83
762.547	1289.88
762.731	1322.65
762.914	1345.17
763.098	1304.21
763.281	1355.41
763.464	1351.32
763.648	1316.5
763.831	1248.92
764.015	1339.03
764.198	1287.83
764.381	1244.82
764.564	1205.91
764.748	1271.45
764.931	1248.92
765.114	1169.05
765.297	1257.11
765.481	1220.25
765.664	1158.81
765.847	1250.97
766.03	1275.54
766.213	1167
766.397	1080.99
766.58	1226.39
766.763	1154.71
766.946	1134.23
767.129	1040.03
767.312	1195.67
767.495	1177.24
767.678	1201.82
767.861	1158.81
768.044	1085.08
768.227	1193.62
768.41	1050.27
768.593	1103.51
768.776	1050.27
768.959	1113.75
769.142	1054.36
769.324	1033.88
769.507	1089.18
769.69	1148.57
769.873	935.58
770.056	1058.46
770.239	1070.75
770.421	1048.22
770.604	1083.03
770.787	947.87
770.97	1021.6
771.152	923.29
771.335	997.02
771.518	1087.13
771.7	1003.16
771.883	1015.45
772.066	1050.27
772.248	1046.17
772.431	1015.45
772.613	980.64
772.796	954.01
772.978	945.82
773.161	968.35
773.343	1083.03
773.526	917.15
773.708	1060.51
773.891	931.48
774.073	986.78
774.256	929.44
774.438	986.78
774.621	929.44
774.803	949.92
774.985	839.33
775.168	808.61
775.35	827.04
775.532	894.62
775.715	919.2
775.897	882.33
776.079	888.48
776.261	964.25
776.444	913.05
776.626	861.85
776.808	818.85
776.99	771.74
777.173	849.57
777.355	868
777.537	822.94
777.719	790.17
777.901	779.93
778.083	806.56
778.265	784.03
778.447	790.17
778.629	738.98
778.811	771.74
778.993	798.37
779.175	822.94
779.357	745.12
779.539	720.54
779.721	726.69
779.903	681.63
780.085	757.41
780.267	736.93
780.449	757.41
780.631	759.46
780.812	784.03
780.994	747.17
781.176	677.54
781.358	702.11
781.54	597.67
781.721	663.2
781.903	712.35
782.085	722.59
782.267	659.1
782.448	773.79
782.63	706.21
782.812	669.34
782.993	585.38
783.175	614.05
783.357	603.81
783.538	593.57
783.72	589.47
783.901	597.67
784.083	540.32
784.264	560.8
784.446	538.27
784.627	583.33
784.809	605.86
784.99	628.39
785.172	638.62
785.353	517.79
785.535	499.36
785.716	634.53
785.897	523.94
786.079	409.25
786.26	583.33
786.441	566.95
786.623	468.64
786.804	544.42
786.985	583.33
787.167	503.46
787.348	532.13
787.529	601.76
787.71	571.04
787.891	534.18
788.073	403.11
788.254	515.75
788.435	435.88
788.616	536.23
788.797	495.27
788.978	444.07
789.159	444.07
789.34	437.92
789.522	476.84
789.703	485.03
789.884	401.06
790.065	478.88
790.246	478.88
790.427	409.25
790.607	505.51
790.788	442.02
790.969	454.31
791.15	396.96
791.331	437.92
791.512	364.2
791.693	396.96
791.874	411.3
792.054	509.6
792.235	388.77
792.416	435.88
792.597	401.06
792.778	392.87
792.958	356.01
793.139	448.16
793.32	390.82
793.5	333.48
793.681	425.64
793.862	339.62
794.042	347.81
794.223	403.11
794.404	431.78
794.584	343.72
794.765	366.25
794.945	358.05
795.126	366.25
795.306	409.25
795.487	356.01
795.667	347.81
795.848	353.96
796.028	405.16
796.209	372.39
796.389	405.16
796.57	337.57
796.75	405.16
796.93	300.71
797.111	284.33
797.291	282.28
797.471	335.53
797.652	276.13
797.832	292.52
798.012	335.53
798.192	282.28
798.373	290.47
798.553	327.33
798.733	313
798.913	288.42
799.093	243.37
799.274	276.13
799.454	261.8
799.634	317.09
799.814	267.94
799.994	255.65
800.174	280.23
800.354	233.13
800.534	294.57
800.714	298.66
800.894	235.18
801.074	251.56
801.254	313
801.434	288.42
801.614	226.98
801.794	255.65
801.974	726.69
802.154	261.8
802.334	364.2
802.514	218.79
802.693	233.13
802.873	237.22
803.053	321.19
803.233	276.13
803.413	245.41
803.592	255.65
803.772	290.47
803.952	239.27
804.131	249.51
804.311	257.7
804.491	249.51
804.67	272.04
804.85	229.03
805.03	313
805.209	335.53
805.389	226.98
805.568	198.31
805.748	210.6
805.928	173.74
806.107	222.89
806.287	169.64
806.466	173.74
806.646	143.02
806.825	161.45
807.004	284.33
807.184	274.09
807.363	188.07
807.543	255.65
807.722	241.32
807.901	196.26
808.081	233.13
808.26	173.74
808.439	226.98
808.619	171.69
808.798	235.18
808.977	251.56
809.156	249.51
809.336	210.6
809.515	177.83
809.694	192.17
809.873	226.98
810.052	157.35
810.231	210.6
810.411	222.89
810.59	241.32
810.769	149.16
810.948	229.03
811.127	190.12
811.306	169.64
811.485	161.45
811.664	222.89
811.843	155.3
812.022	220.84
812.201	188.07
812.38	231.08
812.559	198.31
812.737	302.76
812.916	229.03
813.095	212.65
813.274	198.31
813.453	167.59
813.632	278.18
813.811	194.22
813.989	183.98
814.168	151.21
814.347	130.73
814.526	175.78
814.704	188.07
814.883	190.12
815.062	196.26
815.24	186.02
815.419	165.54
815.598	233.13
815.776	147.11
815.955	208.55
816.133	145.06
816.312	153.26
816.49	165.54
816.669	163.5
816.847	118.44
817.026	161.45
817.204	138.92
817.383	140.97
817.561	206.5
817.74	167.59
817.918	173.74
818.097	163.5
818.275	104.11
818.453	161.45
818.632	143.02
818.81	118.44
818.988	220.84
819.167	165.54
819.345	116.39
819.523	161.45
819.701	110.25
819.879	132.78
820.058	130.73
820.236	118.44
820.414	114.34
820.592	145.06
820.77	69.29
820.948	124.58
821.127	91.82
821.305	155.3
821.483	91.82
821.661	130.73
821.839	165.54
822.017	145.06
822.195	136.87
822.373	140.97
822.551	145.06
822.729	106.15
822.907	118.44
823.085	194.22
823.262	89.77
823.44	153.26
823.618	134.82
823.796	161.45
823.974	104.11
824.152	159.4
824.329	85.67
824.507	132.78
824.685	140.97
824.863	87.72
825.04	186.02
825.218	153.26
825.396	104.11
825.574	143.02
825.751	110.25
825.929	226.98
826.107	126.63
826.284	79.53
826.462	136.87
826.639	83.63
826.817	104.11
826.994	50.86
827.172	22.19
827.349	169.64
827.527	153.26
827.704	59.05
827.882	134.82
828.059	97.96
828.237	106.15
828.414	200.36
828.591	40.62
828.769	104.11
828.946	100.01
829.124	61.1
829.301	32.43
829.478	116.39
829.655	67.24
829.833	126.63
830.01	63.15
830.187	110.25
830.364	59.05
830.542	100.01
830.719	112.3
830.896	128.68
831.073	34.47
831.25	134.82
831.427	128.68
831.604	173.74
831.782	81.58
831.959	71.34
832.136	102.06
832.313	97.96
832.49	75.43
832.667	153.26
832.844	118.44
833.021	63.15
833.198	75.43
833.374	93.87
833.551	22.19
833.728	36.52
833.905	104.11
834.082	65.19
834.259	134.82
834.436	91.82
834.612	143.02
834.789	95.91
834.966	87.72
835.143	85.67
835.319	40.62
835.496	3.75
835.673	106.15
835.85	87.72
836.026	16.04
836.203	134.82
836.38	77.48
836.556	87.72
836.733	-16.73
836.909	104.11
837.086	50.86
837.262	102.06
837.439	67.24
837.616	73.39
837.792	97.96
837.968	40.62
838.145	67.24
838.321	-0.34
838.498	36.52
838.674	104.11
838.851	50.86
839.027	77.48
839.203	30.38
839.38	171.69
839.556	61.1
839.732	18.09
839.909	61.1
840.085	118.44
840.261	48.81
840.437	63.15
840.614	69.29
840.79	100.01
840.966	26.28
841.142	95.91
841.318	57
841.494	120.49
841.671	46.76
841.847	83.63
842.023	28.33
842.199	48.81
842.375	124.58
842.551	57
842.727	30.38
842.903	89.77
843.079	28.33
843.255	52.91
843.431	81.58
843.607	75.43
843.783	-20.82
843.959	89.77
844.134	40.62
844.31	128.68
844.486	63.15
844.662	147.11
844.838	24.23
845.013	114.34
845.189	83.63
845.365	118.44
845.541	59.05
845.716	75.43
845.892	54.95
846.068	102.06
846.244	57
846.419	36.52
846.595	-10.58
846.77	106.15
846.946	24.23
847.122	100.01
847.297	59.05
847.473	57
847.648	36.52
847.824	1.71
847.999	38.57
848.175	-4.44
848.35	1.71
848.526	83.63
848.701	36.52
848.876	28.33
849.052	44.71
849.227	11.95
849.403	71.34
849.578	136.87
849.753	71.34
849.929	77.48
850.104	75.43
850.279	120.49
850.454	42.67
850.63	22.19
850.805	118.44
850.98	24.23
851.155	75.43
851.33	79.53
851.505	7.85
851.681	87.72
851.856	50.86
852.031	32.43
852.206	118.44
852.381	65.19
852.556	136.87
852.731	40.62
852.906	20.14
853.081	36.52
853.256	108.2
853.431	13.99
853.606	102.06
853.781	18.09
853.956	-16.73
854.131	9.9
854.305	102.06
854.48	-22.87
854.655	50.86
854.83	20.14
855.005	71.34
855.18	71.34
855.354	44.71
855.529	59.05
855.704	52.91
855.879	83.63
856.053	-41.3
856.228	59.05
856.403	-29.01
856.577	63.15
856.752	-2.39
856.926	54.95
857.101	18.09
857.276	18.09
857.45	38.57
857.625	48.81
857.799	-6.49
857.974	61.1
858.148	36.52
858.323	61.1
858.497	3.75
858.672	48.81
858.846	-29.01
859.02	63.15
859.195	22.19
859.369	65.19
859.543	132.78
859.718	73.39
859.892	81.58
860.066	118.44
860.241	-24.92
860.415	26.28
860.589	44.71
860.763	-6.49
860.938	16.04
861.112	34.47
861.286	54.95
861.46	57
861.634	9.9
861.808	3.75
861.982	63.15
862.157	3.75
862.331	7.85
862.505	44.71
862.679	50.86
862.853	50.86
863.027	22.19
863.201	89.77
863.375	-37.2
863.549	61.1
863.722	38.57
863.896	59.05
864.07	-18.77
864.244	-4.44
864.418	20.14
864.592	-14.68
864.766	71.34
864.939	26.28
865.113	34.47
865.287	32.43
865.461	7.85
865.634	75.43
865.808	22.19
865.982	77.48
866.156	11.95
866.329	16.04
866.503	32.43
866.676	46.76
866.85	-22.87
867.024	5.8
867.197	30.38
867.371	46.76
867.544	85.67
867.718	-33.11
867.891	100.01
868.065	26.28
868.238	50.86
868.412	36.52
868.585	40.62
868.759	22.19
868.932	63.15
869.105	28.33
869.279	48.81
869.452	34.47
869.625	46.76
869.799	50.86
869.972	-16.73
870.145	54.95
870.319	42.67
870.492	-26.96
870.665	61.1
870.838	40.62
871.011	9.9
871.185	-31.06
871.358	83.63
871.531	52.91
871.704	9.9
871.877	1.71
872.05	-22.87
872.223	48.81
872.396	59.05
872.569	50.86
872.742	48.81
872.915	34.47
873.088	5.8
873.261	54.95
873.434	120.49
873.607	18.09
873.78	18.09
873.953	-43.35
874.126	-24.92
874.299	18.09
874.471	-8.53
874.644	-0.34
874.817	9.9
874.99	52.91
875.163	-8.53
875.335	-41.3
875.508	-26.96
875.681	83.63
875.853	34.47
876.026	42.67
876.199	57
876.371	85.67
876.544	40.62
876.717	13.99
876.889	16.04
877.062	38.57
877.234	-49.49
877.407	-45.4
877.579	11.95
877.752	1.71
877.924	81.58
878.097	-31.06
878.269	-76.12
878.442	140.97
878.614	87.72
878.786	24.23
878.959	-18.77
879.131	-37.2
879.303	-22.87
879.476	5.8
879.648	7.85
879.82	22.19
879.993	-4.44
880.165	-26.96
880.337	26.28
880.509	50.86
880.681	-24.92
880.854	42.67
881.026	-2.39
881.198	87.72
881.37	48.81
881.542	36.52
881.714	-100.69
881.886	-33.11
882.058	9.9
882.23	32.43
882.402	-14.68
882.574	50.86
882.746	5.8
882.918	-6.49
883.09	-26.96
883.262	7.85
883.434	-16.73
883.606	-26.96
883.778	3.75
883.95	-0.34
884.122	-37.2
884.293	22.19
884.465	28.33
884.637	67.24
884.809	-24.92
884.98	28.33
885.152	73.39
885.324	-4.44
885.496	-31.06
885.667	3.75
885.839	48.81
886.011	61.1
886.182	9.9
886.354	28.33
886.525	-55.64
886.697	38.57
886.869	-4.44
887.04	30.38
887.212	71.34
887.383	97.96
887.555	-10.58
887.726	-4.44
887.897	-10.58
888.069	69.29
888.24	16.04
888.412	-18.77
888.583	69.29
888.754	71.34
888.926	-49.49
889.097	18.09
889.268	1.71
889.44	-37.2
889.611	-20.82
889.782	38.57
889.953	75.43
890.125	26.28
890.296	13.99
890.467	34.47
890.638	36.52
890.809	-10.58
890.98	42.67
891.151	16.04
891.323	65.19
891.494	38.57
891.665	67.24
891.836	26.28
892.007	-4.44
892.178	-4.44
892.349	1.71
892.52	-31.06
892.691	32.43
892.862	73.39
893.032	-43.35
893.203	30.38
893.374	34.47
893.545	11.95
893.716	-2.39
893.887	1.71
894.057	34.47
894.228	32.43
894.399	32.43
894.57	106.15
894.74	77.48
894.911	26.28
895.082	32.43
895.253	11.95
895.423	1.71
895.594	5.8
895.764	1.71
895.935	-20.82
896.106	63.15
896.276	-33.11
896.447	5.8
896.617	-35.16
896.788	54.95
896.958	22.19
897.129	-8.53
897.299	13.99
897.47	79.53
897.64	13.99
897.81	30.38
897.981	9.9
898.151	-41.3
898.322	-2.39
898.492	18.09
898.662	34.47
898.832	-39.25
899.003	-18.77
899.173	-49.49
899.343	59.05
899.513	-10.58
