Data from USB4F104151__20__11-51-18-970.txt Node

Date: Fri Mar 14 11:51:18 EDT 2025
User: louis
Spectrometer: USB4F10415
Trigger mode: 4
Integration Time (sec): 2.000000E-2
Scans to average: 1
Electric dark correction enabled: true
Nonlinearity correction enabled: false
Boxcar width: 0
XAxis mode: Wavelengths
Number of Pixels in Spectrum: 3648
>>>>>Begin Spectral Data<<<<<
178.204	-61.95
178.424	-61.95
178.644	-61.95
178.864	-59.9
179.084	-27.14
179.304	87.55
179.524	19.97
179.744	-6.66
179.964	-10.75
180.184	-27.14
180.404	15.87
180.624	-31.23
180.844	15.87
181.064	-55.81
181.283	9.73
181.503	-18.94
181.723	1.54
181.943	-20.99
182.163	13.82
182.383	11.78
182.602	11.78
182.822	56.83
183.042	52.74
183.262	5.63
183.482	87.55
183.701	-23.04
183.921	108.03
184.141	77.31
184.361	101.89
184.58	42.5
184.8	38.4
185.02	-8.7
185.239	1.54
185.459	73.21
185.679	38.4
185.898	-39.42
186.118	52.74
186.338	13.82
186.557	-23.04
186.777	-12.8
186.997	38.4
187.216	32.26
187.436	46.59
187.655	-6.66
187.875	-18.94
188.095	42.5
188.314	13.82
188.534	32.26
188.753	56.83
188.973	-2.56
189.192	-20.99
189.412	-2.56
189.631	-18.94
189.851	28.16
190.07	24.06
190.29	-6.66
190.509	17.92
190.729	-0.51
190.948	81.41
191.168	89.6
191.387	5.63
191.607	-18.94
191.826	1.54
192.045	54.78
192.265	-35.33
192.484	67.07
192.704	9.73
192.923	73.21
193.142	-4.61
193.362	34.3
193.581	54.78
193.8	-43.52
194.02	77.31
194.239	-43.52
194.458	50.69
194.678	22.02
194.897	40.45
195.116	-4.61
195.335	26.11
195.555	-14.85
195.774	36.35
195.993	87.55
196.212	13.82
196.432	-0.51
196.651	-12.8
196.87	-39.42
197.089	85.5
197.308	26.11
197.528	-37.38
197.747	-33.28
197.966	32.26
198.185	83.45
198.404	69.12
198.623	19.97
198.842	112.13
199.062	32.26
199.281	19.97
199.5	50.69
199.719	73.21
199.938	26.11
200.157	77.31
200.376	13.82
200.595	44.54
200.814	1.54
201.033	11.78
201.252	19.97
201.471	54.78
201.69	71.17
201.909	65.02
202.128	-78.33
202.347	52.74
202.566	-18.94
202.785	32.26
203.004	-59.9
203.223	108.03
203.442	17.92
203.661	26.11
203.879	5.63
204.098	34.3
204.317	-23.04
204.536	36.35
204.755	79.36
204.974	22.02
205.193	83.45
205.411	58.88
205.63	32.26
205.849	32.26
206.068	-29.18
206.287	7.68
206.505	69.12
206.724	44.54
206.943	5.63
207.162	22.02
207.381	26.11
207.599	-27.14
207.818	62.98
208.037	9.73
208.255	89.6
208.474	-37.38
208.693	32.26
208.911	26.11
209.13	67.07
209.349	-2.56
209.567	67.07
209.786	56.83
210.005	-4.61
210.223	40.45
210.442	28.16
210.661	58.88
210.879	56.83
211.098	15.87
211.316	-8.7
211.535	75.26
211.753	26.11
211.972	50.69
212.191	50.69
212.409	-53.76
212.628	26.11
212.846	56.83
213.065	-27.14
213.283	19.97
213.502	67.07
213.72	38.4
213.938	60.93
214.157	26.11
214.375	62.98
214.594	26.11
214.812	46.59
215.031	-20.99
215.249	3.58
215.467	60.93
215.686	11.78
215.904	22.02
216.122	56.83
216.341	44.54
216.559	67.07
216.778	19.97
216.996	7.68
217.214	62.98
217.432	-57.86
217.651	36.35
217.869	-37.38
218.087	7.68
218.306	9.73
218.524	52.74
218.742	-0.51
218.96	56.83
219.179	-18.94
219.397	-12.8
219.615	81.41
219.833	77.31
220.051	-2.56
220.27	13.82
220.488	40.45
220.706	24.06
220.924	-14.85
221.142	32.26
221.36	15.87
221.578	60.93
221.796	58.88
222.015	11.78
222.233	-16.9
222.451	28.16
222.669	3.58
222.887	-12.8
223.105	-31.23
223.323	-72.19
223.541	-10.75
223.759	46.59
223.977	13.82
224.195	95.74
224.413	44.54
224.631	67.07
224.849	62.98
225.067	85.5
225.285	1.54
225.503	93.69
225.721	-37.38
225.939	5.63
226.157	44.54
226.375	48.64
226.592	65.02
226.81	5.63
227.028	5.63
227.246	56.83
227.464	67.07
227.682	3.58
227.9	95.74
228.117	-31.23
228.335	71.17
228.553	11.78
228.771	-2.56
228.989	-25.09
229.206	-16.9
229.424	56.83
229.642	-0.51
229.86	22.02
230.077	22.02
230.295	19.97
230.513	42.5
230.731	-10.75
230.948	-14.85
231.166	48.64
231.384	50.69
231.601	-18.94
231.819	-16.9
232.037	-27.14
232.254	114.17
232.472	32.26
232.689	9.73
232.907	65.02
233.125	85.5
233.342	108.03
233.56	15.87
233.777	58.88
233.995	77.31
234.213	17.92
234.43	108.03
234.648	46.59
234.865	-10.75
235.083	22.02
235.3	11.78
235.518	93.69
235.735	7.68
235.953	1.54
236.17	-18.94
236.388	32.26
236.605	11.78
236.822	60.93
237.04	-45.57
237.257	52.74
237.475	17.92
237.692	91.65
237.909	9.73
238.127	19.97
238.344	50.69
238.562	60.93
238.779	52.74
238.996	95.74
239.214	44.54
239.431	-4.61
239.648	13.82
239.865	75.26
240.083	-20.99
240.3	-6.66
240.517	-6.66
240.735	50.69
240.952	54.78
241.169	7.68
241.386	17.92
241.603	17.92
241.821	-76.29
242.038	79.36
242.255	15.87
242.472	-16.9
242.689	-10.75
242.907	71.17
243.124	17.92
243.341	32.26
243.558	9.73
243.775	110.08
243.992	62.98
244.209	85.5
244.426	91.65
244.643	95.74
244.86	13.82
245.078	13.82
245.295	34.3
245.512	32.26
245.729	30.21
245.946	-39.42
246.163	48.64
246.38	69.12
246.597	26.11
246.814	-2.56
247.031	-6.66
247.248	9.73
247.464	48.64
247.681	65.02
247.898	50.69
248.115	3.58
248.332	-16.9
248.549	22.02
248.766	19.97
248.983	-6.66
249.2	79.36
249.417	7.68
249.633	58.88
249.85	17.92
250.067	50.69
250.284	15.87
250.501	3.58
250.717	50.69
250.934	9.73
251.151	71.17
251.368	-10.75
251.585	101.89
251.801	-14.85
252.018	42.5
252.235	56.83
252.451	67.07
252.668	-0.51
252.885	81.41
253.102	40.45
253.318	26.11
253.535	13.82
253.752	-8.7
253.968	-20.99
254.185	-53.76
254.401	-6.66
254.618	79.36
254.835	5.63
255.051	69.12
255.268	40.45
255.484	11.78
255.701	30.21
255.917	-43.52
256.134	-51.71
256.351	-2.56
256.567	38.4
256.784	58.88
257	-27.14
257.217	38.4
257.433	52.74
257.65	34.3
257.866	38.4
258.082	-59.9
258.299	-68.09
258.515	26.11
258.732	5.63
258.948	-18.94
259.165	5.63
259.381	-20.99
259.597	5.63
259.814	54.78
260.03	19.97
260.246	-18.94
260.463	22.02
260.679	32.26
260.895	11.78
261.112	77.31
261.328	-16.9
261.544	-16.9
261.761	87.55
261.977	91.65
262.193	-10.75
262.409	3.58
262.626	17.92
262.842	50.69
263.058	50.69
263.274	-0.51
263.49	-16.9
263.707	99.84
263.923	1.54
264.139	54.78
264.355	15.87
264.571	38.4
264.787	26.11
265.004	5.63
265.22	112.13
265.436	-25.09
265.652	48.64
265.868	52.74
266.084	1.54
266.3	48.64
266.516	50.69
266.732	99.84
266.948	56.83
267.164	17.92
267.38	85.5
267.596	22.02
267.812	95.74
268.028	36.35
268.244	110.08
268.46	36.35
268.676	62.98
268.892	50.69
269.108	42.5
269.324	11.78
269.54	-2.56
269.756	73.21
269.972	52.74
270.188	9.73
270.403	-10.75
270.619	-41.47
270.835	19.97
271.051	-14.85
271.267	7.68
271.483	-23.04
271.698	46.59
271.914	40.45
272.13	40.45
272.346	71.17
272.562	-25.09
272.777	48.64
272.993	-0.51
273.209	11.78
273.425	7.68
273.64	97.79
273.856	132.61
274.072	58.88
274.287	5.63
274.503	11.78
274.719	93.69
274.934	62.98
275.15	36.35
275.366	13.82
275.581	32.26
275.797	58.88
276.012	89.6
276.228	5.63
276.444	32.26
276.659	54.78
276.875	-10.75
277.09	36.35
277.306	34.3
277.521	36.35
277.737	46.59
277.952	42.5
278.168	56.83
278.383	-10.75
278.599	15.87
278.814	99.84
279.03	46.59
279.245	103.93
279.461	15.87
279.676	38.4
279.892	9.73
280.107	19.97
280.322	26.11
280.538	-43.52
280.753	15.87
280.969	108.03
281.184	32.26
281.399	19.97
281.615	-31.23
281.83	99.84
282.045	5.63
282.26	-76.29
282.476	32.26
282.691	73.21
282.906	-35.33
283.122	-0.51
283.337	58.88
283.552	101.89
283.767	75.26
283.983	28.16
284.198	-8.7
284.413	46.59
284.628	32.26
284.843	-10.75
285.058	-2.56
285.274	46.59
285.489	5.63
285.704	-20.99
285.919	9.73
286.134	56.83
286.349	89.6
286.564	56.83
286.779	67.07
286.995	79.36
287.21	-66.05
287.425	62.98
287.64	17.92
287.855	-8.7
288.07	30.21
288.285	38.4
288.5	-25.09
288.715	26.11
288.93	44.54
289.145	52.74
289.36	-25.09
289.575	54.78
289.79	85.5
290.004	56.83
290.219	89.6
290.434	34.3
290.649	15.87
290.864	7.68
291.079	40.45
291.294	108.03
291.509	56.83
291.724	54.78
291.938	19.97
292.153	-2.56
292.368	-31.23
292.583	48.64
292.798	11.78
293.012	26.11
293.227	48.64
293.442	22.02
293.657	54.78
293.871	71.17
294.086	19.97
294.301	50.69
294.516	89.6
294.73	-0.51
294.945	26.11
295.16	32.26
295.374	75.26
295.589	93.69
295.804	1.54
296.018	11.78
296.233	24.06
296.447	54.78
296.662	7.68
296.877	46.59
297.091	36.35
297.306	22.02
297.52	19.97
297.735	-23.04
297.949	62.98
298.164	42.5
298.378	60.93
298.593	24.06
298.807	22.02
299.022	19.97
299.236	17.92
299.451	3.58
299.665	7.68
299.88	-4.61
300.094	15.87
300.309	56.83
300.523	-47.62
300.737	32.26
300.952	26.11
301.166	48.64
301.381	15.87
301.595	87.55
301.809	54.78
302.024	32.26
302.238	-4.61
302.452	9.73
302.667	101.89
302.881	46.59
303.095	52.74
303.309	91.65
303.524	105.98
303.738	17.92
303.952	26.11
304.166	62.98
304.381	7.68
304.595	69.12
304.809	5.63
305.023	-12.8
305.237	67.07
305.452	95.74
305.666	15.87
305.88	87.55
306.094	91.65
306.308	60.93
306.522	42.5
306.736	83.45
306.95	71.17
307.164	75.26
307.379	54.78
307.593	71.17
307.807	85.5
308.021	65.02
308.235	58.88
308.449	9.73
308.663	17.92
308.877	40.45
309.091	-2.56
309.305	67.07
309.519	9.73
309.733	58.88
309.947	34.3
310.161	-18.94
310.374	54.78
310.588	75.26
310.802	-39.42
311.016	30.21
311.23	58.88
311.444	40.45
311.658	-12.8
311.872	56.83
312.085	36.35
312.299	128.51
312.513	91.65
312.727	34.3
312.941	1.54
313.154	99.84
313.368	3.58
313.582	26.11
313.796	60.93
314.009	99.84
314.223	103.93
314.437	65.02
314.651	28.16
314.864	58.88
315.078	28.16
315.292	-10.75
315.505	-23.04
315.719	-23.04
315.933	48.64
316.146	42.5
316.36	-43.52
316.573	42.5
316.787	30.21
317.001	58.88
317.214	1.54
317.428	62.98
317.641	-27.14
317.855	-49.66
318.068	28.16
318.282	89.6
318.495	67.07
318.709	15.87
318.922	-2.56
319.136	110.08
319.349	58.88
319.563	-27.14
319.776	108.03
319.99	40.45
320.203	13.82
320.417	-18.94
320.63	79.36
320.843	24.06
321.057	62.98
321.27	30.21
321.483	26.11
321.697	46.59
321.91	42.5
322.124	38.4
322.337	34.3
322.55	-16.9
322.763	54.78
322.977	83.45
323.19	3.58
323.403	52.74
323.617	38.4
323.83	79.36
324.043	26.11
324.256	26.11
324.469	99.84
324.683	52.74
324.896	22.02
325.109	-14.85
325.322	22.02
325.535	65.02
325.748	3.58
325.962	15.87
326.175	36.35
326.388	34.3
326.601	30.21
326.814	42.5
327.027	54.78
327.24	-31.23
327.453	-2.56
327.666	69.12
327.879	101.89
328.092	85.5
328.305	99.84
328.518	34.3
328.731	24.06
328.944	7.68
329.157	9.73
329.37	36.35
329.583	11.78
329.796	138.75
330.009	-59.9
330.222	-25.09
330.435	24.06
330.648	9.73
330.861	40.45
331.073	48.64
331.286	17.92
331.499	67.07
331.712	9.73
331.925	134.65
332.138	81.41
332.35	60.93
332.563	-10.75
332.776	79.36
332.989	-4.61
333.202	89.6
333.414	50.69
333.627	95.74
333.84	42.5
334.053	3.58
334.265	93.69
334.478	38.4
334.691	101.89
334.903	44.54
335.116	-25.09
335.329	-20.99
335.541	103.93
335.754	30.21
335.966	38.4
336.179	7.68
336.392	77.31
336.604	128.51
336.817	5.63
337.029	67.07
337.242	58.88
337.454	75.26
337.667	52.74
337.88	-20.99
338.092	87.55
338.305	128.51
338.517	-0.51
338.729	15.87
338.942	44.54
339.154	32.26
339.367	67.07
339.579	-0.51
339.792	60.93
340.004	13.82
340.217	50.69
340.429	24.06
340.641	-2.56
340.854	58.88
341.066	-29.18
341.278	22.02
341.491	13.82
341.703	22.02
341.915	1.54
342.128	7.68
342.34	91.65
342.552	-2.56
342.764	62.98
342.977	11.78
343.189	-0.51
343.401	54.78
343.613	-4.61
343.826	60.93
344.038	44.54
344.25	52.74
344.462	1.54
344.674	136.7
344.886	42.5
345.099	89.6
345.311	95.74
345.523	32.26
345.735	48.64
345.947	50.69
346.159	24.06
346.371	75.26
346.583	36.35
346.795	134.65
347.007	-12.8
347.219	44.54
347.431	52.74
347.643	91.65
347.855	46.59
348.067	67.07
348.279	42.5
348.491	54.78
348.703	52.74
348.915	34.3
349.127	36.35
349.339	120.32
349.551	54.78
349.763	95.74
349.975	26.11
350.187	89.6
350.399	81.41
350.61	65.02
350.822	-16.9
351.034	52.74
351.246	36.35
351.458	81.41
351.669	116.22
351.881	19.97
352.093	73.21
352.305	108.03
352.517	22.02
352.728	79.36
352.94	58.88
353.152	40.45
353.363	56.83
353.575	62.98
353.787	62.98
353.999	-61.95
354.21	73.21
354.422	-12.8
354.633	52.74
354.845	9.73
355.057	48.64
355.268	17.92
355.48	46.59
355.692	-12.8
355.903	-20.99
356.115	58.88
356.326	19.97
356.538	30.21
356.749	50.69
356.961	71.17
357.172	11.78
357.384	30.21
357.595	116.22
357.807	-8.7
358.018	69.12
358.23	60.93
358.441	42.5
358.653	50.69
358.864	11.78
359.075	87.55
359.287	103.93
359.498	48.64
359.709	50.69
359.921	108.03
360.132	26.11
360.344	67.07
360.555	65.02
360.766	28.16
360.977	42.5
361.189	52.74
361.4	48.64
361.611	42.5
361.823	71.17
362.034	7.68
362.245	114.17
362.456	5.63
362.667	48.64
362.879	58.88
363.09	-2.56
363.301	44.54
363.512	46.59
363.723	13.82
363.935	62.98
364.146	60.93
364.357	79.36
364.568	79.36
364.779	30.21
364.99	22.02
365.201	-10.75
365.412	44.54
365.623	7.68
365.834	65.02
366.045	65.02
366.256	32.26
366.467	65.02
366.678	13.82
366.889	3.58
367.1	44.54
367.311	50.69
367.522	48.64
367.733	71.17
367.944	95.74
368.155	50.69
368.366	73.21
368.577	65.02
368.788	11.78
368.999	52.74
369.209	54.78
369.42	99.84
369.631	26.11
369.842	30.21
370.053	42.5
370.264	52.74
370.474	46.59
370.685	34.3
370.896	48.64
371.107	89.6
371.317	5.63
371.528	48.64
371.739	67.07
371.95	93.69
372.16	28.16
372.371	-4.61
372.582	42.5
372.792	69.12
373.003	75.26
373.214	9.73
373.424	93.69
373.635	38.4
373.846	28.16
374.056	81.41
374.267	75.26
374.477	46.59
374.688	19.97
374.898	62.98
375.109	50.69
375.319	32.26
375.53	108.03
375.74	62.98
375.951	36.35
376.161	38.4
376.372	5.63
376.582	81.41
376.793	28.16
377.003	-12.8
377.214	40.45
377.424	-2.56
377.635	28.16
377.845	17.92
378.055	114.17
378.266	-10.75
378.476	79.36
378.686	48.64
378.897	46.59
379.107	62.98
379.317	50.69
379.528	42.5
379.738	5.63
379.948	71.17
380.158	128.51
380.369	69.12
380.579	-14.85
380.789	46.59
380.999	34.3
381.21	110.08
381.42	15.87
381.63	87.55
381.84	26.11
382.05	46.59
382.261	62.98
382.471	99.84
382.681	-23.04
382.891	-2.56
383.101	22.02
383.311	28.16
383.521	3.58
383.731	28.16
383.941	22.02
384.151	67.07
384.361	-10.75
384.571	5.63
384.781	46.59
384.991	91.65
385.201	116.22
385.411	65.02
385.621	67.07
385.831	95.74
386.041	52.74
386.251	103.93
386.461	26.11
386.671	79.36
386.881	36.35
387.091	15.87
387.301	9.73
387.511	87.55
387.72	81.41
387.93	22.02
388.14	15.87
388.35	38.4
388.56	108.03
388.769	93.69
388.979	157.18
389.189	38.4
389.399	85.5
389.609	108.03
389.818	38.4
390.028	28.16
390.238	46.59
390.447	-45.57
390.657	67.07
390.867	50.69
391.076	50.69
391.286	7.68
391.496	155.13
391.705	56.83
391.915	79.36
392.125	58.88
392.334	114.17
392.544	48.64
392.753	83.45
392.963	34.3
393.172	19.97
393.382	71.17
393.591	120.32
393.801	34.3
394.01	103.93
394.22	22.02
394.429	26.11
394.639	75.26
394.848	54.78
395.058	50.69
395.267	116.22
395.477	132.61
395.686	118.27
395.895	48.64
396.105	153.09
396.314	9.73
396.524	48.64
396.733	91.65
396.942	81.41
397.152	81.41
397.361	101.89
397.57	-10.75
397.78	77.31
397.989	62.98
398.198	134.65
398.407	97.79
398.617	175.61
398.826	85.5
399.035	101.89
399.244	91.65
399.453	97.79
399.663	144.89
399.872	73.21
400.081	83.45
400.29	181.76
400.499	44.54
400.708	99.84
400.917	116.22
401.127	120.32
401.336	140.8
401.545	136.7
401.754	132.61
401.963	224.76
402.172	77.31
402.381	177.66
402.59	132.61
402.799	146.94
403.008	136.7
403.217	235
403.426	128.51
403.635	85.5
403.844	155.13
404.053	99.84
404.262	114.17
404.471	157.18
404.68	196.09
404.888	161.28
405.097	198.14
405.306	198.14
405.515	142.85
405.724	177.66
405.933	155.13
406.142	206.33
406.35	200.19
406.559	128.51
406.768	304.64
406.977	245.24
407.185	200.19
407.394	273.92
407.603	179.71
407.812	165.37
408.02	245.24
408.229	318.97
408.438	218.62
408.646	204.28
408.855	222.72
409.064	206.33
409.272	290.3
409.481	345.59
409.69	337.4
409.898	388.6
410.107	364.03
410.315	314.88
410.524	243.2
410.733	433.66
410.941	364.03
411.15	380.41
411.358	355.83
411.567	333.31
411.775	386.55
411.984	372.22
412.192	470.52
412.401	456.19
412.609	441.85
412.818	493.05
413.026	568.82
413.234	538.1
413.443	484.86
413.651	458.23
413.86	574.97
414.068	677.37
414.276	703.99
414.485	665.08
414.693	656.89
414.901	683.51
415.11	706.04
415.318	687.61
415.526	753.14
415.734	845.3
415.943	863.73
416.151	798.2
416.359	847.35
416.567	835.06
416.776	941.55
416.984	986.61
417.192	1050.1
417.4	994.8
417.608	998.9
417.817	1101.3
418.025	1195.5
418.233	1144.3
418.441	1164.78
418.649	1220.08
418.857	1222.13
419.065	1263.08
419.273	1351.15
419.481	1406.44
419.689	1504.75
419.897	1605.1
420.105	1557.99
420.313	1617.38
420.521	1680.87
420.729	1697.25
420.937	1756.65
421.145	1801.7
421.353	1924.58
421.561	1902.05
421.769	2039.26
421.977	2033.12
422.185	2026.98
422.393	2117.09
422.601	2483.67
422.809	2352.6
423.017	2407.9
423.224	2475.48
423.432	2549.21
423.64	2481.63
423.848	2842.07
424.056	2686.42
424.263	2997.71
424.471	2901.46
424.679	3102.16
424.887	3253.71
425.094	3214.8
425.302	3343.82
425.51	3427.79
425.718	3458.51
425.925	3548.62
426.133	3657.16
426.341	3837.38
426.548	3913.16
426.756	4033.99
426.964	4052.42
427.171	4337.09
427.379	4492.73
427.586	4410.81
427.794	4724.15
428.001	4746.68
428.209	5154.23
428.417	4896.18
428.624	5258.67
428.832	5436.85
429.039	5340.59
429.247	5264.82
429.454	5940.65
429.662	6098.34
429.869	5735.85
430.076	6088.1
430.284	6000.04
430.491	6397.34
430.699	6571.42
430.906	6802.84
431.114	6796.7
431.321	6983.06
431.528	7136.66
431.736	7593.36
431.943	7923.08
432.15	7701.9
432.358	7871.88
432.565	8185.22
432.772	8029.57
432.979	8662.4
433.187	8824.19
433.394	8734.07
433.601	9418.1
433.808	9284.98
434.016	9352.56
434.223	9758.06
434.43	10388.83
434.637	10323.3
434.844	10855.77
435.052	11054.42
435.259	11085.14
435.466	11048.28
435.673	10990.94
435.88	11685.2
436.087	12326.21
436.294	12283.2
436.501	11916.62
436.708	12254.53
436.915	12455.23
437.122	12991.8
437.329	13360.44
437.537	13489.46
437.743	13757.74
437.95	13825.33
438.157	14531.87
438.364	14701.86
438.571	15082.78
438.778	14812.45
438.985	16411.91
439.192	15803.66
439.399	16246.02
439.606	15824.14
439.813	17034.49
440.02	17581.3
440.227	17290.49
440.433	17448.18
440.64	17784.05
440.847	17708.27
441.054	18302.18
441.261	19295.45
441.467	19205.34
441.674	19754.19
441.881	20090.06
442.088	20145.36
442.294	20040.91
442.501	20542.66
442.708	20919.49
442.914	21777.59
443.121	22547.62
443.328	22244.52
443.534	23653.53
443.741	22953.12
443.948	22629.54
444.154	24458.38
444.361	24282.25
444.568	24472.71
444.774	24095.89
444.981	24573.07
445.187	25531.51
445.394	26436.72
445.6	26076.27
445.807	28677.19
446.013	27372.64
446.22	28058.71
446.426	29045.83
446.633	29123.65
446.839	30061.62
447.046	28922.95
447.252	30829.61
447.459	30350.38
447.665	30387.25
447.871	31493.15
448.078	33373.19
448.284	31554.59
448.491	32599.05
448.697	33913.85
448.903	34143.22
449.11	34362.36
449.316	33838.08
449.522	34331.64
449.728	35343.33
449.935	35587.04
450.141	35435.49
450.347	36191.19
450.553	35355.62
450.76	35734.49
450.966	37022.67
451.172	36455.38
451.378	37430.21
451.584	36719.57
451.791	37540.8
451.997	37153.74
452.203	38040.51
452.409	38032.32
452.615	38046.65
452.821	36252.63
453.027	35967.96
453.233	38069.18
453.44	36553.68
453.646	36932.56
453.852	37352.39
454.058	37825.47
454.264	36277.21
454.47	37323.72
454.676	36346.84
454.882	37630.91
455.088	34180.09
455.294	35064.81
455.5	35566.56
455.705	35697.63
455.911	34089.98
456.117	33588.22
456.323	33162.25
456.529	31839.26
456.735	32730.12
456.941	31794.2
457.147	31519.78
457.352	30559.28
457.558	30284.85
457.764	30479.41
457.97	29588.54
458.176	29252.67
458.381	28963.91
458.587	27513.95
458.793	27583.58
458.999	26496.11
459.204	28314.7
459.41	27262.05
459.616	25658.49
459.821	25181.31
460.027	25009.28
460.233	25040
460.438	23839.89
460.644	24165.52
460.85	22848.68
461.055	22631.59
461.261	22510.76
461.466	20991.17
461.672	20131.02
461.878	21746.87
462.083	19954.9
462.289	20020.43
462.494	19600.6
462.7	18703.59
462.905	18111.72
463.111	19002.59
463.316	19139.8
463.522	18672.87
463.727	18756.83
463.932	18455.78
464.138	18453.73
464.343	18459.88
464.549	17859.82
464.754	18449.64
464.959	18287.85
465.165	18189.55
465.37	17497.33
465.575	16944.38
465.781	17667.31
465.986	17601.78
466.191	17134.84
466.397	16844.03
466.602	16020.75
466.807	16737.54
467.012	16725.25
467.218	16338.18
467.423	16364.81
467.628	16366.85
467.833	16956.67
468.038	16383.24
468.244	15756.56
468.449	16635.14
468.654	16084.23
468.859	15971.6
469.064	15752.46
469.269	15318.29
469.474	15383.83
469.679	15584.53
469.885	14937.37
470.09	15432.98
470.295	15252.76
470.5	14777.63
470.705	15000.86
470.91	14628.13
471.115	14351.65
471.32	14765.34
471.525	14777.63
471.73	14351.65
471.935	14452
472.139	13815.09
472.344	13854
472.549	13835.56
472.754	13942.06
472.959	13479.22
473.164	12954.94
473.369	12901.69
473.574	13626.67
473.778	13509.94
473.983	13108.54
474.188	13002.04
474.393	12514.63
474.598	12895.55
474.802	12453.19
475.007	12361.03
475.212	12311.88
475.417	11881.8
475.621	11871.56
475.826	12055.88
476.031	11642.19
476.235	11656.53
476.44	11642.19
476.645	11574.61
476.849	11584.85
477.054	11347.28
477.259	11343.19
477.463	11240.79
477.668	11040.09
477.872	11033.94
478.077	10814.81
478.282	10495.33
478.486	10358.11
478.691	10327.39
478.895	10407.27
479.1	10382.69
479.304	10265.96
479.509	10306.91
479.713	10214.76
479.918	10026.34
480.122	9942.38
480.326	9995.62
480.531	10026.34
480.735	9686.38
480.94	9692.52
481.144	10149.22
481.348	9563.5
481.553	9606.51
481.757	9549.17
481.961	9684.33
482.166	9950.57
482.37	9639.28
482.574	9442.67
482.778	9475.44
482.983	9735.53
483.187	9704.81
483.391	9606.51
483.595	9622.89
483.8	9409.9
484.004	9454.96
484.208	9655.66
484.412	9592.17
484.616	9680.24
484.821	9602.41
485.025	9565.55
485.229	9626.99
485.433	9581.93
485.637	9637.23
485.841	9583.98
486.045	9612.65
486.249	9545.07
486.453	9491.82
486.657	9551.21
486.861	9579.89
487.065	9391.47
487.269	9555.31
487.473	9608.56
487.677	9663.85
487.881	9704.81
488.085	9393.52
488.289	9618.8
488.493	9485.68
488.697	9649.52
488.901	9602.41
489.105	9600.37
489.309	9655.66
489.512	9745.77
489.716	9561.45
489.92	9551.21
490.124	9604.46
490.328	9811.31
490.531	9688.43
490.735	9792.87
490.939	9772.39
491.143	9727.34
491.346	9921.9
491.55	10038.63
491.754	9952.62
491.958	10077.54
492.161	10179.94
492.365	10087.78
492.569	10042.73
492.772	10022.25
492.976	10018.15
493.18	10184.04
493.383	10337.63
493.587	10304.87
493.79	10319.2
493.994	10362.21
494.197	10661.21
494.401	10634.59
494.605	10476.9
494.808	10704.22
495.012	10892.63
495.215	10913.11
495.419	10784.09
495.622	10855.77
495.825	10945.88
496.029	11158.87
496.232	11439.44
496.436	11158.87
496.639	11482.45
496.843	11627.85
497.046	11711.82
497.249	11758.92
497.453	11763.02
497.656	11744.59
497.859	11871.56
498.063	12086.6
498.266	12346.69
498.469	12320.07
498.673	12543.3
498.876	12514.63
499.079	12629.31
499.282	12547.39
499.485	13002.04
499.689	13129.02
499.892	13102.39
500.095	13241.65
500.298	13663.54
500.501	13489.46
500.705	13894.96
500.908	14124.33
501.111	14087.47
501.314	14216.49
501.517	14365.99
501.72	14406.95
501.923	14544.16
502.126	15058.2
502.329	15252.76
502.532	15426.84
502.735	15424.79
502.938	15695.12
503.141	15885.58
503.344	15981.84
503.547	16037.13
503.75	16231.69
503.953	16340.23
504.156	16512.26
504.359	16751.87
504.562	16758.02
504.765	17075.45
504.968	17231.1
505.17	17470.71
505.373	17714.42
505.576	17861.87
505.779	18201.83
505.982	17855.73
506.185	18478.31
506.387	18326.76
506.59	18535.65
506.793	19203.29
506.996	18814.18
507.198	19412.18
507.401	19418.33
507.604	19412.18
507.807	19862.74
508.009	19860.69
508.212	20262.09
508.415	20425.93
508.617	20765.89
508.82	20985.02
509.022	20774.08
509.225	21454.01
509.428	21411
509.63	21626.04
509.833	21769.4
510.035	22414.51
510.238	22172.85
510.44	22318.25
510.643	22842.53
510.845	22858.92
511.048	22871.2
511.25	23137.44
511.453	23504.03
511.655	24032.4
511.858	23809.17
512.06	24077.46
512.262	24339.6
512.465	24294.54
512.667	24906.88
512.87	25021.57
513.072	25185.41
513.274	25175.17
513.477	25525.37
513.679	25791.61
513.881	26188.91
514.084	26369.13
514.286	26575.98
514.488	26973.28
514.69	27196.51
514.893	27145.31
515.095	27853.91
515.297	28154.96
515.499	27831.38
515.701	28515.4
515.904	28431.44
516.106	29121.6
516.308	28902.47
516.51	29162.56
516.712	29094.98
516.914	29463.61
517.116	30110.77
517.318	30116.92
517.52	30370.86
517.722	30499.89
517.925	30985.26
518.127	31499.3
518.329	31550.49
518.531	31403.04
518.733	31923.22
518.935	32220.18
519.136	32443.41
519.338	32748.56
519.54	32711.69
519.742	33113.09
519.944	33383.43
520.146	34307.06
520.348	33958.91
520.55	34143.22
520.752	34182.13
520.954	34896.88
521.155	34542.58
521.357	35312.61
521.559	35357.67
521.761	36010.97
521.963	35705.82
522.164	36201.43
522.366	35986.39
522.568	36455.38
522.77	36893.65
522.971	37362.63
523.173	36862.93
523.375	37333.96
523.576	37045.19
523.778	37417.93
523.98	38110.14
524.181	38095.8
524.383	38419.38
524.584	38480.82
524.786	38534.07
524.988	38591.41
525.189	39269.29
525.391	39572.39
525.592	39336.87
525.794	39791.52
525.995	39592.87
526.197	39881.63
526.398	40317.85
526.6	40002.46
526.801	40391.58
527.003	40375.19
527.204	40065.95
527.406	40776.59
527.607	41063.31
527.808	40934.29
528.01	40297.37
528.211	40795.03
528.412	42154.88
528.614	41458.57
528.815	41612.17
529.016	41765.76
529.218	41444.23
529.419	42183.55
529.62	42220.41
529.822	42335.1
530.023	42337.15
530.224	42173.31
530.425	42498.94
530.626	41823.11
530.828	42222.46
531.029	43180.91
531.23	42349.43
531.431	42785.65
531.632	42810.23
531.833	42920.82
532.035	42638.2
532.236	42679.16
532.437	43250.54
532.638	42353.53
532.839	43346.79
533.04	43137.9
533.241	43066.22
533.442	43764.58
533.643	42836.85
533.844	43453.29
534.045	43289.45
534.246	43101.04
534.447	43631.46
534.648	43197.29
534.849	43447.15
535.05	42937.2
535.251	43557.74
535.451	42918.77
535.652	43154.29
535.853	42873.71
536.054	43494.25
536.255	43627.37
536.456	43166.57
536.657	43754.34
536.857	43457.38
537.058	43221.87
537.259	43561.83
537.46	43701.09
537.66	43211.63
537.861	43350.89
538.062	43643.75
538.263	43766.63
538.463	43350.89
538.664	43197.29
538.865	43764.58
539.065	43803.49
539.266	43541.35
539.466	43805.54
539.667	43058.03
539.868	44194.65
540.068	43549.54
540.269	43484.01
540.469	43551.59
540.67	42926.96
540.87	43131.76
541.071	43105.13
541.271	43588.45
541.472	43506.54
541.672	43119.47
541.873	43256.68
542.073	42955.63
542.274	43594.6
542.474	43148.14
542.675	43416.43
542.875	43596.65
543.075	43203.44
543.276	42990.45
543.476	43590.5
543.676	43365.23
543.877	43330.41
544.077	43273.07
544.277	43072.37
544.478	42863.47
544.678	43025.26
544.878	43393.9
545.078	43279.21
545.279	42617.72
545.479	42767.22
545.679	43260.78
545.879	42754.93
546.079	43174.77
546.28	42857.33
546.48	42625.91
546.68	43203.44
546.88	43436.91
547.08	42957.68
547.28	43078.51
547.48	42656.63
547.68	43133.81
547.88	42605.43
548.081	42949.49
548.281	42890.1
548.481	42875.76
548.681	43510.63
548.881	42984.3
549.081	42658.68
549.28	42982.26
549.48	42906.48
549.68	42824.56
549.88	43645.8
550.08	42627.96
550.28	43219.82
550.48	42814.32
550.68	43080.56
550.88	42591.09
551.08	42861.43
551.279	42947.44
551.479	42347.39
551.679	42580.85
551.879	42287.99
552.079	43076.46
552.278	42382.2
552.478	42527.61
552.678	42605.43
552.878	42683.25
553.077	42429.3
553.277	42222.46
553.477	43062.13
553.676	42361.72
553.876	42480.5
554.076	42687.35
554.275	42011.52
554.475	42079.1
554.674	42572.66
554.874	42734.45
555.074	41937.79
555.273	42394.49
555.473	42322.81
555.672	42124.16
555.872	41827.2
556.071	42113.92
556.271	42423.16
556.47	41849.73
556.67	41630.6
556.869	42054.53
557.068	42058.62
557.268	41898.88
557.467	41954.18
557.667	41816.96
557.866	41646.98
558.065	41079.69
558.265	41218.96
558.464	41657.22
558.663	41966.46
558.863	41091.98
559.062	41802.63
559.261	40852.37
559.461	41886.59
559.66	41298.83
559.859	41249.67
560.058	40709.01
560.258	41192.33
560.457	40467.35
560.656	41204.62
560.855	40995.73
561.054	40874.9
561.253	40893.33
561.453	40872.85
561.652	40823.7
561.851	41368.46
562.05	40358.81
562.249	40176.54
562.448	40692.63
562.647	40414.1
562.846	40422.3
563.045	39945.12
563.244	40065.95
563.443	40426.39
563.642	39601.06
563.841	39799.71
564.04	40070.04
564.239	40297.37
564.438	39459.75
564.637	39975.84
564.836	40020.89
565.035	39246.76
565.234	40166.3
565.432	39461.8
565.631	39017.39
565.83	39586.72
566.029	39152.55
566.228	38984.62
566.427	38869.93
566.625	39078.83
566.824	38564.79
567.023	39097.26
567.222	38433.72
567.42	38884.27
567.619	38525.88
567.818	38335.42
568.016	38679.47
568.215	38663.09
568.414	38222.78
568.612	38345.65
568.811	38046.65
569.01	37923.77
569.208	37989.31
569.407	37970.88
569.605	37643.2
569.804	37827.52
570.002	37700.54
570.201	37559.23
570.4	37229.51
570.598	37585.86
570.797	37247.94
570.995	37071.82
571.193	36895.69
571.392	37254.09
571.59	36893.65
571.789	37018.57
571.987	36942.8
572.186	36676.56
572.384	36744.14
572.582	36803.53
572.781	36723.66
572.979	36217.82
573.177	36289.49
573.376	36791.25
573.574	35679.2
573.772	36275.16
573.971	35640.29
574.169	35998.68
574.367	35433.44
574.565	35709.92
574.763	35675.1
574.962	35572.71
575.16	35521.51
575.358	35797.98
575.556	35027.95
575.754	35843.04
575.952	35376.1
576.151	35204.07
576.349	34986.99
576.547	35212.26
576.745	34837.48
576.943	34753.52
577.141	34446.32
577.339	34761.71
577.537	34548.72
577.735	34499.57
577.933	34135.03
578.131	34284.53
578.329	34155.51
578.527	33905.66
578.725	33854.46
578.923	34030.58
579.121	33885.18
579.319	33655.81
579.516	34001.91
579.714	33762.3
579.912	33807.36
580.11	33295.36
580.308	33295.36
580.506	33240.07
580.704	32869.39
580.901	33270.79
581.099	33393.67
581.297	32674.83
581.495	32740.36
581.692	32721.93
581.89	32316.43
582.088	32904.2
582.285	32326.67
582.483	32631.82
582.681	32306.2
582.878	32453.65
583.076	32367.63
583.274	32181.27
583.471	32046.1
583.669	32078.87
583.866	31747.1
584.064	31761.44
584.262	31427.62
584.459	32175.13
584.657	31228.96
584.854	31347.75
585.052	30907.43
585.249	31302.69
585.447	31128.61
585.644	31222.82
585.841	31108.13
586.039	30862.38
586.236	30520.37
586.434	30805.03
586.631	30837.8
586.828	30829.61
587.026	30647.34
587.223	30747.69
587.42	30256.18
587.618	30458.93
587.815	29967.41
588.012	30024.76
588.21	29908.02
588.407	30188.6
588.604	29756.47
588.801	29563.96
588.999	29998.13
589.196	29613.12
589.393	29774.91
589.59	29643.84
589.787	29621.31
589.984	29119.56
590.182	29219.91
590.379	29264.96
590.576	29199.43
590.773	29072.45
590.97	28564.56
591.167	28716.11
591.364	28531.79
591.561	28603.47
591.758	28183.63
591.955	28968.01
592.152	28662.86
592.349	28093.52
592.546	28279.89
592.743	28310.61
592.94	27579.48
593.137	28218.45
593.334	28173.39
593.531	27749.46
593.727	27858.01
593.924	27741.27
594.121	27202.66
594.318	27825.24
594.515	27092.07
594.712	27581.53
594.908	27247.71
595.105	27444.32
595.302	27204.7
595.499	27204.7
595.696	27149.41
595.892	26737.77
596.089	27278.43
596.286	26813.54
596.482	26774.63
596.679	26494.06
596.876	26358.89
597.072	26406
597.269	26535.02
597.466	26162.29
597.662	25908.34
597.859	26057.84
598.055	25984.12
598.252	25846.9
598.448	26023.03
598.645	25896.05
598.841	25633.91
599.038	25633.91
599.234	25826.42
599.431	25336.96
599.627	25027.71
599.824	25648.25
600.02	25033.86
600.217	25259.13
600.413	25308.29
600.609	25042.05
600.806	24808.58
601.002	24853.64
601.198	24804.49
601.395	24820.87
601.591	24679.56
601.787	24636.55
601.984	24425.61
602.18	24851.59
602.376	24292.49
602.572	24595.59
602.769	24274.06
602.965	24106.13
603.161	24331.4
603.357	24067.22
603.553	24183.95
603.75	23927.95
603.946	23585.94
604.142	23776.41
604.338	23690.39
604.534	23987.35
604.73	23317.66
604.926	23628.95
605.122	23389.34
605.318	23362.72
605.514	23241.89
605.71	23440.54
605.906	23497.88
606.102	23147.68
606.298	23317.66
606.494	22748.32
606.69	23049.38
606.886	23065.76
607.082	22643.88
607.278	22869.16
607.474	22521
607.67	22682.79
607.866	22504.62
608.062	22768.8
608.257	22228.14
608.453	22486.18
608.649	22379.69
608.845	22242.48
609.041	22297.77
609.236	22545.58
609.432	22219.95
609.628	22095.02
609.824	22234.28
610.019	21906.61
610.215	22111.41
610.411	21843.12
610.606	22181.04
610.802	21914.8
610.998	21839.03
611.193	21976.24
611.389	21585.08
611.584	21771.44
611.78	21294.27
611.976	21640.37
612.171	21748.92
612.367	21957.81
612.562	21601.46
612.758	21492.92
612.953	21437.62
613.149	21161.15
613.344	21255.36
613.539	21451.96
613.735	21060.8
613.93	21097.66
614.126	21005.5
614.321	21259.45
614.517	21200.06
614.712	20995.26
614.907	20991.17
615.103	21343.42
615.298	20823.23
615.493	20970.69
615.688	20513.99
615.884	21073.09
616.079	20423.88
616.274	20583.62
616.47	20632.77
616.665	20690.12
616.86	20563.14
617.055	20538.57
617.25	20335.82
617.445	20571.33
617.641	20284.62
617.836	20669.64
618.031	20290.76
618.226	20622.53
618.421	20061.39
618.616	20085.97
618.811	19864.78
619.006	20186.32
619.201	19752.15
619.396	19823.83
619.591	19625.17
619.786	19829.97
619.981	19244.25
620.176	19444.95
620.371	19459.29
620.566	19543.25
620.761	19217.63
620.956	19526.87
621.151	19086.56
621.346	19248.35
621.541	18744.55
621.735	18869.47
621.93	18578.66
622.125	18771.17
622.32	18476.26
622.515	18549.99
622.709	18205.93
622.904	18242.79
623.099	18296.04
623.294	18152.68
623.488	17994.99
623.683	18007.28
623.878	17612.02
624.072	17693.94
624.267	17925.36
624.462	17513.72
624.656	17321.21
624.851	17763.57
625.046	17272.06
625.24	17093.88
625.435	17032.44
625.629	16958.72
625.824	16827.65
626.018	16930.05
626.213	16452.87
626.407	16690.43
626.602	16518.4
626.796	16665.86
626.991	16319.75
627.185	16360.71
627.38	15914.25
627.574	16002.32
627.768	15942.92
627.963	16055.56
628.157	15783.18
628.352	16098.57
628.546	15465.75
628.74	15625.49
628.935	15430.93
629.129	15488.28
629.323	15240.47
629.517	15263
629.712	15404.31
629.906	15355.16
630.1	14953.76
630.294	14912.8
630.489	14777.63
630.683	15097.11
630.877	14755.1
631.071	14533.92
631.265	14761.25
631.459	14642.46
631.653	14732.58
631.848	14322.98
632.042	14196.01
632.236	14351.65
632.43	14245.16
632.624	14081.32
632.818	14159.14
633.012	13993.26
633.206	13954.35
633.4	13874.48
633.594	13454.64
633.788	13784.37
633.982	13860.14
634.176	13618.48
634.369	13202.74
634.563	13466.93
634.757	13202.74
634.951	13116.73
635.145	13241.65
635.339	13053.24
635.533	12834.11
635.726	12987.71
635.92	12883.26
636.114	12830.01
636.308	12606.78
636.501	12739.9
636.695	12895.55
636.889	12670.27
637.083	12287.3
637.276	12381.51
637.47	12100.94
637.664	12404.03
637.857	12172.61
638.051	12189
638.244	12133.7
638.438	12160.33
638.632	11867.47
638.825	11910.47
639.019	11902.28
639.212	11672.91
639.406	11853.13
639.599	11623.76
639.793	11720.01
639.986	11394.39
640.18	11527.5
640.373	11418.96
640.567	11535.7
640.76	11554.13
640.954	11384.15
641.147	11019.61
641.34	11298.13
641.534	10931.55
641.727	11187.54
641.92	11146.58
642.114	10896.73
642.307	10941.79
642.5	10806.62
642.694	10634.59
642.887	10693.98
643.08	10683.74
643.273	10550.62
643.467	10519.9
643.66	10435.94
643.853	10333.54
644.046	10098.02
644.239	10405.22
644.432	10288.48
644.626	10288.48
644.819	10141.03
645.012	9952.62
645.205	9844.07
645.398	10110.31
645.591	9794.92
645.784	9756.01
645.977	9631.09
646.17	9727.34
646.363	9774.44
646.556	9520.49
646.749	9551.21
646.942	9459.06
647.135	9618.8
647.328	9452.91
647.521	9274.74
647.714	9076.09
647.907	9264.5
648.099	9112.95
648.292	9244.02
648.485	9172.34
648.678	9037.17
648.871	9069.94
649.064	9076.09
649.256	9037.17
649.449	8942.97
649.642	8902.01
649.835	8893.82
650.027	8648.06
650.22	8762.75
650.413	8717.69
650.605	8590.72
650.798	8793.47
650.991	8441.22
651.183	8566.14
651.376	8375.68
651.568	8508.8
651.761	8371.58
651.954	8394.11
652.146	8228.23
652.339	8326.53
652.531	8285.57
652.724	8134.02
652.916	7896.46
653.109	8207.75
653.301	8060.29
653.494	8168.84
653.686	8035.72
653.879	7968.13
654.071	7921.03
654.263	7652.75
654.456	7931.27
654.648	7966.09
654.84	7646.6
655.033	7613.84
655.225	7724.43
655.417	7773.58
655.61	7644.56
655.802	7599.5
655.994	7476.62
656.186	7732.62
656.379	7452.05
656.571	7288.21
656.763	7337.36
656.955	7282.06
657.148	7292.3
657.34	7146.9
657.532	6997.4
657.724	7220.63
657.916	7325.07
658.108	7028.12
658.3	7036.31
658.492	7050.64
658.684	6991.25
658.876	6970.77
659.068	6923.67
659.26	6831.51
659.452	6874.52
659.644	6700.44
659.836	6718.87
660.028	6905.24
660.22	6579.61
660.412	6802.84
660.604	6477.21
660.796	6542.75
660.988	6559.13
661.18	6639
661.372	6477.21
661.563	6288.8
661.755	6528.41
661.947	6294.94
662.139	6335.9
662.331	6448.54
662.522	6217.12
662.714	6296.99
662.906	6198.69
663.097	6012.32
663.289	6178.21
663.481	5948.84
663.673	6149.54
663.864	6002.08
664.056	5967.27
664.247	5944.74
664.439	5844.39
664.631	5821.86
664.822	5936.55
665.014	6014.37
665.205	5989.8
665.397	5832.1
665.588	5887.4
665.78	5873.06
665.971	5748.14
666.163	5842.34
666.354	5750.18
666.546	5643.69
666.737	5633.45
666.929	5404.08
667.12	5764.52
667.311	5594.54
667.503	5588.39
667.694	5475.76
667.885	5545.39
668.077	5588.39
668.268	5514.67
668.459	5459.37
668.651	5414.32
668.842	5352.88
669.033	5281.2
669.224	5105.07
669.416	5238.19
669.607	5256.62
669.798	5277.1
669.989	5328.3
670.18	5266.86
670.371	5213.62
670.563	5236.14
670.754	5246.38
670.945	5037.49
671.136	5096.88
671.327	5135.79
671.518	4980.15
671.709	5211.57
671.9	5025.2
672.091	5060.02
672.282	4990.39
672.473	5057.97
672.664	4965.81
672.855	4861.37
673.046	4988.34
673.237	4916.66
673.428	4894.13
673.619	5006.77
673.809	4808.12
674	5100.98
674.191	4887.99
674.382	4797.88
674.573	4728.25
674.764	4701.62
674.954	4810.17
675.145	4838.84
675.336	4695.48
675.527	4947.38
675.717	4842.93
675.908	4838.84
676.099	4699.58
676.289	4701.62
676.48	4588.99
676.671	4619.71
676.861	4631.99
677.052	4470.2
677.243	4550.07
677.433	4521.4
677.624	4601.27
677.814	4529.59
678.005	4617.66
678.195	4603.32
678.386	4523.45
678.576	4441.53
678.767	4627.9
678.957	4591.03
679.148	4523.45
679.338	4462.01
679.529	4494.78
679.719	4539.83
679.909	4447.68
680.1	4447.68
680.29	4435.39
680.481	4529.59
680.671	4382.14
680.861	4416.96
681.052	4388.29
681.242	4449.72
681.432	4371.9
681.622	4365.76
681.813	4267.45
682.003	4376
682.193	4240.83
682.383	4345.28
682.573	4236.74
682.764	4185.54
682.954	4357.57
683.144	4345.28
683.334	4330.94
683.524	4400.57
683.714	4171.2
683.904	4222.4
684.094	4294.08
684.284	4257.22
684.474	4142.53
684.664	4183.49
684.854	4115.91
685.044	4015.55
685.234	4212.16
685.424	4177.34
685.614	4054.47
685.804	4099.52
685.994	4085.19
686.184	4046.27
686.374	4048.32
686.564	4052.42
686.753	4013.51
686.943	4052.42
687.133	4023.75
687.323	4023.75
687.513	3972.55
687.702	3904.96
687.892	3982.79
688.082	3907.01
688.272	3898.82
688.461	4005.31
688.651	3866.05
688.841	3886.53
689.03	3798.47
689.22	3737.03
689.41	3751.37
689.599	3849.67
689.789	3777.99
689.979	3730.89
690.168	3753.41
690.358	3622.34
690.547	3732.94
690.737	3628.49
690.926	3745.22
691.116	3540.43
691.305	3706.31
691.495	3577.29
691.684	3565
691.874	3681.74
692.063	3681.74
692.252	3511.75
692.442	3601.87
692.631	3483.08
692.82	3421.64
693.01	3476.94
693.199	3521.99
693.388	3339.73
693.578	3427.79
693.767	3495.37
693.956	3349.96
694.146	3364.3
694.335	3335.63
694.524	3352.01
694.713	3317.2
694.902	3407.31
695.092	3282.38
695.281	3329.49
695.47	3405.26
695.659	3216.85
695.848	3245.52
696.037	3364.3
696.226	3413.45
696.415	3243.47
696.604	3378.64
696.793	3218.89
696.982	3096.02
697.171	3263.95
697.36	3339.73
697.549	3247.57
697.738	3175.89
697.927	3153.36
698.116	3048.91
698.305	3093.97
698.494	3173.84
698.683	3237.33
698.872	3053.01
699.061	3222.99
699.25	3110.35
699.438	3216.85
699.627	3200.46
699.816	3202.51
700.005	3126.74
700.193	3145.17
700.382	3143.12
700.571	3184.08
700.76	3003.86
700.948	3200.46
701.137	3108.3
701.326	3096.02
701.514	3073.49
701.703	3157.46
701.892	3044.82
702.08	3108.3
702.269	3157.46
702.457	3077.59
702.646	3075.54
702.834	2973.14
703.023	3087.82
703.212	3055.06
703.4	2948.56
703.589	3110.35
703.777	3055.06
703.965	3012.05
704.154	3016.15
704.342	3071.44
704.531	3063.25
704.719	3014.1
704.907	3108.3
705.096	2975.19
705.284	3046.87
705.472	2905.56
705.661	2975.19
705.849	3053.01
706.037	2977.23
706.226	2919.89
706.414	2960.85
706.602	3003.86
706.79	2919.89
706.979	3022.29
707.167	3050.96
707.355	3065.3
707.543	3012.05
707.731	3028.43
707.919	3010
708.107	3010
708.296	2971.09
708.484	2991.57
708.672	2905.56
708.86	2946.52
709.048	2987.47
709.236	2874.84
709.424	3063.25
709.612	3026.39
709.8	2991.57
709.988	3026.39
710.176	2999.76
710.364	2954.71
710.551	3022.29
710.739	2989.52
710.927	3167.7
711.115	3104.21
711.303	2942.42
711.491	2964.95
711.679	2948.56
711.866	2923.99
712.054	2950.61
712.242	2966.99
712.43	3028.43
712.617	2979.28
712.805	3046.87
712.993	2946.52
713.181	2915.8
713.368	2909.65
713.556	3061.2
713.744	2917.84
713.931	3065.3
714.119	2993.62
714.306	2956.75
714.494	3026.39
714.682	2876.88
714.869	3057.11
715.057	2944.47
715.244	3026.39
715.432	3173.84
715.619	3010
715.807	3065.3
715.994	3112.4
716.182	2973.14
716.369	3122.64
716.556	3028.43
716.744	2848.21
716.931	2917.84
717.119	2962.9
717.306	2969.04
717.493	2874.84
717.681	3048.91
717.868	2989.52
718.055	2991.57
718.242	3048.91
718.43	3155.41
718.617	3007.95
718.804	2903.51
718.991	3020.24
719.179	3057.11
719.366	3024.34
719.553	3036.63
719.74	2958.8
719.927	3067.35
720.114	2999.76
720.301	3048.91
720.488	3034.58
720.676	2940.37
720.863	3057.11
721.05	2991.57
721.237	2997.71
721.424	2960.85
721.611	2979.28
721.798	2989.52
721.985	3001.81
722.172	3059.15
722.358	2823.64
722.545	2977.23
722.732	2848.21
722.919	2979.28
723.106	3018.19
723.293	2901.46
723.48	3065.3
723.667	3026.39
723.853	2919.89
724.04	3016.15
724.227	3026.39
724.414	2938.32
724.6	3087.82
724.787	3042.77
724.974	2971.09
725.161	3077.59
725.347	2954.71
725.534	3079.63
725.72	2989.52
725.907	3005.91
726.094	3030.48
726.28	2989.52
726.467	3016.15
726.653	2993.62
726.84	2907.6
727.027	3214.8
727.213	2926.04
727.4	3038.67
727.586	3028.43
727.773	3091.92
727.959	3063.25
728.145	3091.92
728.332	2956.75
728.518	2872.79
728.705	3040.72
728.891	2915.8
729.077	2958.8
729.264	2991.57
729.45	3050.96
729.636	2995.67
729.823	3001.81
730.009	2995.67
730.195	3063.25
730.382	3028.43
730.568	3061.2
730.754	2887.12
730.94	3036.63
731.126	3079.63
731.313	2966.99
731.499	2852.31
731.685	2989.52
731.871	2858.45
732.057	3028.43
732.243	3010
732.429	2983.38
732.615	2893.27
732.801	2971.09
732.987	2901.46
733.173	2977.23
733.359	3014.1
733.545	3010
733.731	2985.43
733.917	3014.1
734.103	3134.93
734.289	2975.19
734.475	2956.75
734.661	3063.25
734.847	2846.16
735.033	2921.94
735.219	2794.97
735.404	3075.54
735.59	2932.18
735.776	2917.84
735.962	3173.84
736.148	3028.43
736.333	2969.04
736.519	2993.62
736.705	3083.73
736.89	2923.99
737.076	2956.75
737.262	2915.8
737.447	2856.4
737.633	2969.04
737.819	2792.92
738.004	2905.56
738.19	3024.34
738.375	2866.64
738.561	2915.8
738.747	2854.36
738.932	2880.98
739.118	2905.56
739.303	2880.98
739.489	2878.93
739.674	2794.97
739.859	2958.8
740.045	2766.29
740.23	2915.8
740.416	2747.86
740.601	2762.2
740.786	2780.63
740.972	2741.72
741.157	2831.83
741.342	2805.21
741.528	2727.38
741.713	2721.24
741.898	2811.35
742.084	2659.8
742.269	2563.54
742.454	2784.73
742.639	2708.95
742.824	2618.84
743.01	2672.09
743.195	2637.27
743.38	2696.66
743.565	2633.18
743.75	2745.81
743.935	2694.61
744.12	2590.17
744.305	2604.5
744.49	2610.65
744.675	2651.61
744.86	2463.19
745.045	2645.46
745.23	2637.27
745.415	2545.11
745.6	2665.94
745.785	2635.22
745.97	2579.93
746.155	2500.06
746.34	2561.5
746.525	2397.66
746.71	2477.53
746.895	2455
747.079	2481.63
747.264	2356.7
747.449	2465.24
747.634	2399.71
747.819	2311.64
748.003	2323.93
748.188	2270.69
748.373	2280.93
748.557	2338.27
748.742	2201.05
748.927	2248.16
749.111	2221.53
749.296	2268.64
749.481	2282.97
749.665	2106.85
749.85	2190.81
750.034	2242.01
750.219	2235.87
750.404	2268.64
750.588	2219.49
750.773	2092.51
750.957	2153.95
751.141	2088.42
751.326	2176.48
751.51	1967.59
751.695	2115.04
751.879	2098.66
752.064	2115.04
752.248	2000.35
752.432	2051.55
752.617	2029.03
752.801	2035.17
752.985	2022.88
753.17	1953.25
753.354	1906.15
753.538	1977.83
753.722	1900
753.907	1863.14
754.091	1967.59
754.275	1885.67
754.459	1779.17
754.643	1846.76
754.828	1818.08
755.012	1865.19
755.196	1928.67
755.38	1791.46
755.564	1750.5
755.748	1727.97
755.932	1871.33
756.116	1699.3
756.3	1707.49
756.484	1674.73
756.668	1750.5
756.852	1695.21
757.036	1701.35
757.22	1535.46
757.404	1654.25
757.588	1641.96
757.772	1695.21
757.956	1560.04
758.14	1635.82
758.323	1551.85
758.507	1662.44
758.691	1619.43
758.875	1523.18
759.059	1635.82
759.242	1521.13
759.426	1596.9
759.61	1627.62
759.794	1527.27
759.977	1535.46
760.161	1418.73
760.345	1486.31
760.528	1549.8
760.712	1547.75
760.895	1437.16
761.079	1482.22
761.263	1420.78
761.446	1422.83
761.63	1414.63
761.813	1390.06
761.997	1498.6
762.18	1392.11
762.364	1404.39
762.547	1406.44
762.731	1390.06
762.914	1355.24
763.098	1447.4
763.281	1424.87
763.464	1410.54
763.648	1271.28
763.831	1340.91
764.015	1431.02
764.198	1265.13
764.381	1250.8
764.564	1267.18
764.748	1392.11
764.931	1312.24
765.114	1322.48
765.297	1359.34
765.481	1252.84
765.664	1228.27
765.847	1250.8
766.03	1250.8
766.213	1230.32
766.397	1226.22
766.58	1318.38
766.763	1261.04
766.946	1105.39
767.129	1201.65
767.312	1111.54
767.495	1201.65
767.678	1246.7
767.861	1211.89
768.044	1195.5
768.227	1177.07
768.41	1220.08
768.593	1181.17
768.776	1138.16
768.959	1119.73
769.142	1181.17
769.324	1189.36
769.507	1144.3
769.69	1146.35
769.873	1105.39
770.056	1187.31
770.239	1127.92
770.421	1195.5
770.604	1160.69
770.787	1121.77
770.97	1064.43
771.152	1119.73
771.335	1027.57
771.518	1029.62
771.7	1125.87
771.883	1183.21
772.066	1037.81
772.248	1089.01
772.431	1076.72
772.613	1052.14
772.796	990.7
772.978	1070.58
773.161	1111.54
773.343	1000.94
773.526	1033.71
773.708	978.42
773.891	1011.18
774.073	1019.38
774.256	1025.52
774.438	1025.52
774.621	953.84
774.803	951.79
774.985	900.59
775.168	888.31
775.35	888.31
775.532	931.31
775.715	906.74
775.897	998.9
776.079	894.45
776.261	894.45
776.444	906.74
776.626	810.48
776.808	867.83
776.99	822.77
777.173	945.65
777.355	861.68
777.537	783.86
777.719	785.91
777.901	814.58
778.083	822.77
778.265	828.92
778.447	804.34
778.629	865.78
778.811	757.24
778.993	771.57
779.175	835.06
779.357	841.2
779.539	847.35
779.721	771.57
779.903	816.63
780.085	779.76
780.267	761.33
780.449	681.46
780.631	742.9
780.812	792.05
780.994	663.03
781.176	812.53
781.358	792.05
781.54	650.74
781.721	826.87
781.903	769.52
782.085	681.46
782.267	726.52
782.448	685.56
782.63	679.41
782.812	712.18
782.993	710.13
783.175	663.03
783.357	652.79
783.538	669.17
783.72	620.02
783.901	650.74
784.083	622.07
784.264	579.06
784.446	560.63
784.627	687.61
784.809	560.63
784.99	546.3
785.172	599.54
785.353	585.21
785.535	529.91
785.716	591.35
785.897	595.45
786.079	605.69
786.26	597.49
786.441	517.62
786.623	519.67
786.804	568.82
786.985	513.53
787.167	495.1
787.348	495.1
787.529	607.73
787.71	556.54
787.891	540.15
788.073	454.14
788.254	443.9
788.435	488.95
788.616	480.76
788.797	472.57
788.978	513.53
789.159	404.99
789.34	507.38
789.522	579.06
789.703	458.23
789.884	517.62
790.065	460.28
790.246	534.01
790.427	445.95
790.607	445.95
790.788	527.86
790.969	497.14
791.15	447.99
791.331	468.47
791.512	460.28
791.693	400.89
791.874	484.86
792.054	474.62
792.235	419.32
792.416	443.9
792.597	431.61
792.778	425.47
792.958	482.81
793.139	431.61
793.32	454.14
793.5	456.19
793.681	368.12
793.862	407.03
794.042	433.66
794.223	390.65
794.404	404.99
794.584	347.64
794.765	280.06
794.945	325.12
795.126	382.46
795.306	359.93
795.487	361.98
795.667	345.59
795.848	497.14
796.028	361.98
796.209	366.07
796.389	421.37
796.57	374.27
796.75	345.59
796.93	312.83
797.111	306.68
797.291	376.31
797.471	298.49
797.652	312.83
797.832	302.59
798.012	400.89
798.192	349.69
798.373	312.83
798.553	282.11
798.733	329.21
798.913	357.88
799.093	294.4
799.274	427.51
799.454	343.55
799.634	345.59
799.814	343.55
799.994	308.73
800.174	429.56
800.354	396.79
800.534	306.68
800.714	321.02
800.894	200.19
801.074	329.21
801.254	216.57
801.434	286.2
801.614	275.96
801.794	331.26
801.974	816.63
802.154	316.92
802.334	280.06
802.514	267.77
802.693	280.06
802.873	288.25
803.053	278.01
803.233	267.77
803.413	333.31
803.592	259.58
803.772	210.43
803.952	255.48
804.131	335.35
804.311	267.77
804.491	261.63
804.67	327.16
804.85	296.44
805.03	210.43
805.209	310.78
805.389	208.38
805.568	298.49
805.748	271.87
805.928	273.92
806.107	261.63
806.287	288.25
806.466	224.76
806.646	321.02
806.825	241.15
807.004	298.49
807.184	224.76
807.363	271.87
807.543	249.34
807.722	241.15
807.901	341.5
808.081	175.61
808.26	210.43
808.439	278.01
808.619	167.42
808.798	220.67
808.977	194.05
809.156	189.95
809.336	185.85
809.515	261.63
809.694	245.24
809.873	278.01
810.052	263.68
810.231	216.57
810.411	245.24
810.59	200.19
810.769	212.48
810.948	187.9
811.127	198.14
811.306	257.53
811.485	161.28
811.664	222.72
811.843	179.71
812.022	132.61
812.201	177.66
812.38	230.91
812.559	230.91
812.737	171.52
812.916	177.66
813.095	185.85
813.274	204.28
813.453	220.67
813.632	222.72
813.811	165.37
813.989	148.99
814.168	210.43
814.347	200.19
814.526	206.33
814.704	194.05
814.883	120.32
815.062	183.81
815.24	173.57
815.419	245.24
815.598	185.85
815.776	167.42
815.955	222.72
816.133	173.57
816.312	130.56
816.49	75.26
816.669	194.05
816.847	60.93
817.026	130.56
817.204	120.32
817.383	148.99
817.561	179.71
817.74	189.95
817.918	132.61
818.097	146.94
818.275	101.89
818.453	171.52
818.632	202.24
818.81	91.65
818.988	181.76
819.167	206.33
819.345	142.85
819.523	110.08
819.701	181.76
819.879	194.05
820.058	93.69
820.236	202.24
820.414	212.48
820.592	181.76
820.77	140.8
820.948	165.37
821.127	159.23
821.305	165.37
821.483	163.33
821.661	71.17
821.839	146.94
822.017	128.51
822.195	56.83
822.373	120.32
822.551	112.13
822.729	157.18
822.907	144.89
823.085	151.04
823.262	177.66
823.44	103.93
823.618	173.57
823.796	148.99
823.974	163.33
824.152	153.09
824.329	75.26
824.507	103.93
824.685	177.66
824.863	122.37
825.04	140.8
825.218	99.84
825.396	114.17
825.574	165.37
825.751	91.65
825.929	97.79
826.107	75.26
826.284	105.98
826.462	187.9
826.639	136.7
826.817	132.61
826.994	126.46
827.172	110.08
827.349	235
827.527	77.31
827.704	132.61
827.882	91.65
828.059	101.89
828.237	132.61
828.414	83.45
828.591	142.85
828.769	97.79
828.946	79.36
829.124	17.92
829.301	112.13
829.478	153.09
829.655	118.27
829.833	103.93
830.01	159.23
830.187	97.79
830.364	93.69
830.542	142.85
830.719	130.56
830.896	116.22
831.073	132.61
831.25	112.13
831.427	65.02
831.604	73.21
831.782	128.51
831.959	116.22
832.136	79.36
832.313	140.8
832.49	83.45
832.667	73.21
832.844	93.69
833.021	142.85
833.198	132.61
833.374	85.5
833.551	173.57
833.728	77.31
833.905	71.17
834.082	77.31
834.259	95.74
834.436	67.07
834.612	71.17
834.789	146.94
834.966	77.31
835.143	79.36
835.319	40.45
835.496	99.84
835.673	126.46
835.85	50.69
836.026	81.41
836.203	165.37
836.38	9.73
836.556	105.98
836.733	28.16
836.909	181.76
837.086	54.78
837.262	50.69
837.439	85.5
837.616	30.21
837.792	155.13
837.968	132.61
838.145	36.35
838.321	120.32
838.498	71.17
838.674	140.8
838.851	93.69
839.027	105.98
839.203	9.73
839.38	126.46
839.556	124.41
839.732	97.79
839.909	71.17
840.085	130.56
840.261	54.78
840.437	103.93
840.614	36.35
840.79	99.84
840.966	-2.56
841.142	34.3
841.318	36.35
841.494	122.37
841.671	81.41
841.847	48.64
842.023	48.64
842.199	85.5
842.375	24.06
842.551	85.5
842.727	77.31
842.903	128.51
843.079	50.69
843.255	65.02
843.431	38.4
843.607	34.3
843.783	50.69
843.959	146.94
844.134	50.69
844.31	99.84
844.486	40.45
844.662	28.16
844.838	26.11
845.013	58.88
845.189	60.93
845.365	138.75
845.541	60.93
845.716	95.74
845.892	85.5
846.068	95.74
846.244	48.64
846.419	81.41
846.595	40.45
846.77	-25.09
846.946	46.59
847.122	19.97
847.297	30.21
847.473	54.78
847.648	97.79
847.824	146.94
847.999	-14.85
848.175	13.82
848.35	46.59
848.526	67.07
848.701	81.41
848.876	124.41
849.052	58.88
849.227	26.11
849.403	24.06
849.578	-14.85
849.753	89.6
849.929	65.02
850.104	-37.38
850.279	40.45
850.454	103.93
850.63	69.12
850.805	24.06
850.98	36.35
851.155	-16.9
851.33	50.69
851.505	-14.85
851.681	42.5
851.856	30.21
852.031	28.16
852.206	-12.8
852.381	56.83
852.556	52.74
852.731	128.51
852.906	62.98
853.081	103.93
853.256	38.4
853.431	13.82
853.606	19.97
853.781	-10.75
853.956	5.63
854.131	62.98
854.305	30.21
854.48	58.88
854.655	34.3
854.83	28.16
855.005	77.31
855.18	99.84
855.354	32.26
855.529	22.02
855.704	89.6
855.879	93.69
856.053	36.35
856.228	65.02
856.403	13.82
856.577	56.83
856.752	48.64
856.926	48.64
857.101	48.64
857.276	73.21
857.45	28.16
857.625	56.83
857.799	73.21
857.974	-20.99
858.148	24.06
858.323	17.92
858.497	62.98
858.672	40.45
858.846	5.63
859.02	22.02
859.195	-20.99
859.369	65.02
859.543	56.83
859.718	48.64
859.892	-43.52
860.066	58.88
860.241	11.78
860.415	17.92
860.589	69.12
860.763	-6.66
860.938	32.26
861.112	69.12
861.286	52.74
861.46	22.02
861.634	17.92
861.808	56.83
861.982	-23.04
862.157	52.74
862.331	34.3
862.505	17.92
862.679	48.64
862.853	54.78
863.027	26.11
863.201	28.16
863.375	69.12
863.549	110.08
863.722	3.58
863.896	46.59
864.07	42.5
864.244	-2.56
864.418	58.88
864.592	50.69
864.766	46.59
864.939	46.59
865.113	28.16
865.287	3.58
865.461	38.4
865.634	40.45
865.808	-18.94
865.982	-31.23
866.156	-20.99
866.329	19.97
866.503	40.45
866.676	48.64
866.85	11.78
867.024	38.4
867.197	108.03
867.371	32.26
867.544	73.21
867.718	-18.94
867.891	1.54
868.065	28.16
868.238	99.84
868.412	99.84
868.585	11.78
868.759	38.4
868.932	1.54
869.105	50.69
869.279	54.78
869.452	-10.75
869.625	-4.61
869.799	-86.53
869.972	34.3
870.145	26.11
870.319	44.54
870.492	46.59
870.665	30.21
870.838	26.11
871.011	-4.61
871.185	-55.81
871.358	9.73
871.531	9.73
871.704	87.55
871.877	56.83
872.05	60.93
872.223	58.88
872.396	22.02
872.569	81.41
872.742	40.45
872.915	-0.51
873.088	-0.51
873.261	-37.38
873.434	-41.47
873.607	54.78
873.78	36.35
873.953	83.45
874.126	81.41
874.299	38.4
874.471	89.6
874.644	48.64
874.817	79.36
874.99	46.59
875.163	-2.56
875.335	28.16
875.508	24.06
875.681	-14.85
875.853	1.54
876.026	69.12
876.199	38.4
876.371	24.06
876.544	26.11
876.717	-35.33
876.889	-14.85
877.062	58.88
877.234	1.54
877.407	-14.85
877.579	-8.7
877.752	13.82
877.924	24.06
878.097	24.06
878.269	52.74
878.442	-2.56
878.614	-16.9
878.786	13.82
878.959	34.3
879.131	-6.66
879.303	-27.14
879.476	-0.51
879.648	7.68
879.82	26.11
879.993	-6.66
880.165	44.54
880.337	38.4
880.509	28.16
880.681	-49.66
880.854	-14.85
881.026	-18.94
881.198	81.41
881.37	-8.7
881.542	36.35
881.714	46.59
881.886	54.78
882.058	-16.9
882.23	7.68
882.402	13.82
882.574	28.16
882.746	-12.8
882.918	79.36
883.09	11.78
883.262	-41.47
883.434	-25.09
883.606	32.26
883.778	52.74
883.95	15.87
884.122	-27.14
884.293	44.54
884.465	5.63
884.637	65.02
884.809	19.97
884.98	9.73
885.152	-53.76
885.324	13.82
885.496	-14.85
885.667	11.78
885.839	3.58
886.011	-0.51
886.182	-6.66
886.354	32.26
886.525	-6.66
886.697	5.63
886.869	-43.52
887.04	11.78
887.212	44.54
887.383	17.92
887.555	28.16
887.726	19.97
887.897	-72.19
888.069	28.16
888.24	34.3
888.412	-37.38
888.583	26.11
888.754	34.3
888.926	26.11
889.097	1.54
889.268	42.5
889.44	52.74
889.611	-31.23
889.782	-0.51
889.953	-86.53
890.125	99.84
890.296	-2.56
890.467	-51.71
890.638	-14.85
890.809	-59.9
890.98	13.82
891.151	69.12
891.323	54.78
891.494	-8.7
891.665	28.16
891.836	42.5
892.007	-18.94
892.178	3.58
892.349	-35.33
892.52	-0.51
892.691	15.87
892.862	15.87
893.032	22.02
893.203	50.69
893.374	-31.23
893.545	56.83
893.716	-23.04
893.887	52.74
894.057	-16.9
894.228	-6.66
894.399	-4.61
894.57	-4.61
894.74	73.21
894.911	79.36
895.082	-8.7
895.253	-76.29
895.423	46.59
895.594	87.55
895.764	32.26
895.935	-45.57
896.106	22.02
896.276	-39.42
896.447	-113.15
896.617	1.54
896.788	-25.09
896.958	26.11
897.129	58.88
897.299	-2.56
897.47	22.02
897.64	-49.66
897.81	11.78
897.981	42.5
898.151	-90.62
898.322	-61.95
898.492	36.35
898.662	19.97
898.832	-14.85
899.003	-20.99
899.173	22.02
899.343	-14.85
899.513	-94.72
