Data from USB4F104151__46__11-51-52-786.txt Node

Date: Fri Mar 14 11:51:52 EDT 2025
User: louis
Spectrometer: USB4F10415
Trigger mode: 4
Integration Time (sec): 2.000000E-2
Scans to average: 1
Electric dark correction enabled: true
Nonlinearity correction enabled: false
Boxcar width: 0
XAxis mode: Wavelengths
Number of Pixels in Spectrum: 3648
>>>>>Begin Spectral Data<<<<<
178.204	-127.49
178.424	-127.49
178.644	-127.49
178.864	-80.38
179.084	-113.15
179.304	24.06
179.524	67.07
179.744	-12.8
179.964	13.82
180.184	-20.99
180.404	-70.14
180.624	42.5
180.844	-33.28
181.064	-47.62
181.283	-20.99
181.503	-29.18
181.723	87.55
181.943	83.45
182.163	30.21
182.383	-49.66
182.602	60.93
182.822	95.74
183.042	42.5
183.262	19.97
183.482	-18.94
183.701	40.45
183.921	-0.51
184.141	-20.99
184.361	79.36
184.58	26.11
184.8	7.68
185.02	-16.9
185.239	-16.9
185.459	103.93
185.679	46.59
185.898	-33.28
186.118	89.6
186.338	-23.04
186.557	54.78
186.777	-53.76
186.997	40.45
187.216	-2.56
187.436	52.74
187.655	19.97
187.875	75.26
188.095	9.73
188.314	52.74
188.534	79.36
188.753	-41.47
188.973	30.21
189.192	-10.75
189.412	-18.94
189.631	-8.7
189.851	52.74
190.07	-29.18
190.29	-10.75
190.509	32.26
190.729	-0.51
190.948	36.35
191.168	67.07
191.387	99.84
191.607	15.87
191.826	-4.61
192.045	3.58
192.265	71.17
192.484	17.92
192.704	44.54
192.923	7.68
193.142	58.88
193.362	34.3
193.581	101.89
193.8	32.26
194.02	91.65
194.239	-43.52
194.458	52.74
194.678	-10.75
194.897	-4.61
195.116	-14.85
195.335	38.4
195.555	30.21
195.774	38.4
195.993	15.87
196.212	1.54
196.432	32.26
196.651	-0.51
196.87	-4.61
197.089	77.31
197.308	62.98
197.528	93.69
197.747	13.82
197.966	89.6
198.185	30.21
198.404	3.58
198.623	32.26
198.842	13.82
199.062	99.84
199.281	65.02
199.5	79.36
199.719	46.59
199.938	44.54
200.157	58.88
200.376	-68.09
200.595	13.82
200.814	-25.09
201.033	69.12
201.252	30.21
201.471	58.88
201.69	-4.61
201.909	-14.85
202.128	-31.23
202.347	7.68
202.566	-41.47
202.785	-0.51
203.004	60.93
203.223	122.37
203.442	-37.38
203.661	-31.23
203.879	89.6
204.098	81.41
204.317	-6.66
204.536	81.41
204.755	71.17
204.974	50.69
205.193	-20.99
205.411	140.8
205.63	34.3
205.849	5.63
206.068	60.93
206.287	24.06
206.505	-10.75
206.724	42.5
206.943	65.02
207.162	-12.8
207.381	-18.94
207.599	97.79
207.818	48.64
208.037	-16.9
208.255	5.63
208.474	-2.56
208.693	28.16
208.911	22.02
209.13	19.97
209.349	-41.47
209.567	95.74
209.786	17.92
210.005	11.78
210.223	26.11
210.442	-47.62
210.661	87.55
210.879	-14.85
211.098	48.64
211.316	60.93
211.535	65.02
211.753	46.59
211.972	81.41
212.191	17.92
212.409	36.35
212.628	50.69
212.846	26.11
213.065	32.26
213.283	-8.7
213.502	56.83
213.72	44.54
213.938	-6.66
214.157	24.06
214.375	-12.8
214.594	38.4
214.812	65.02
215.031	15.87
215.249	26.11
215.467	22.02
215.686	50.69
215.904	-14.85
216.122	3.58
216.341	52.74
216.559	-10.75
216.778	69.12
216.996	36.35
217.214	-39.42
217.432	40.45
217.651	42.5
217.869	-12.8
218.087	67.07
218.306	69.12
218.524	42.5
218.742	-0.51
218.96	112.13
219.179	-61.95
219.397	67.07
219.615	17.92
219.833	83.45
220.051	17.92
220.27	56.83
220.488	60.93
220.706	32.26
220.924	-45.57
221.142	48.64
221.36	-25.09
221.578	-16.9
221.796	-29.18
222.015	17.92
222.233	69.12
222.451	48.64
222.669	-14.85
222.887	58.88
223.105	24.06
223.323	52.74
223.541	-27.14
223.759	30.21
223.977	19.97
224.195	83.45
224.413	-4.61
224.631	50.69
224.849	1.54
225.067	42.5
225.285	-66.05
225.503	58.88
225.721	-4.61
225.939	-6.66
226.157	22.02
226.375	95.74
226.592	-55.81
226.81	54.78
227.028	87.55
227.246	52.74
227.464	50.69
227.682	89.6
227.9	11.78
228.117	69.12
228.335	15.87
228.553	3.58
228.771	-37.38
228.989	91.65
229.206	30.21
229.424	30.21
229.642	44.54
229.86	71.17
230.077	114.17
230.295	-8.7
230.513	28.16
230.731	30.21
230.948	32.26
231.166	79.36
231.384	-2.56
231.601	62.98
231.819	48.64
232.037	95.74
232.254	1.54
232.472	22.02
232.689	19.97
232.907	32.26
233.125	69.12
233.342	79.36
233.56	52.74
233.777	22.02
233.995	19.97
234.213	38.4
234.43	42.5
234.648	67.07
234.865	11.78
235.083	11.78
235.3	19.97
235.518	69.12
235.735	46.59
235.953	34.3
236.17	97.79
236.388	62.98
236.605	28.16
236.822	67.07
237.04	36.35
237.257	48.64
237.475	32.26
237.692	42.5
237.909	-10.75
238.127	42.5
238.344	5.63
238.562	87.55
238.779	-20.99
238.996	73.21
239.214	79.36
239.431	54.78
239.648	65.02
239.865	15.87
240.083	7.68
240.3	22.02
240.517	-25.09
240.735	97.79
240.952	56.83
241.169	46.59
241.386	-0.51
241.603	-39.42
241.821	48.64
242.038	19.97
242.255	50.69
242.472	1.54
242.689	38.4
242.907	-12.8
243.124	-37.38
243.341	-16.9
243.558	9.73
243.775	34.3
243.992	36.35
244.209	17.92
244.426	108.03
244.643	67.07
244.86	28.16
245.078	-14.85
245.295	69.12
245.512	19.97
245.729	-6.66
245.946	11.78
246.163	48.64
246.38	48.64
246.597	40.45
246.814	44.54
247.031	17.92
247.248	81.41
247.464	40.45
247.681	38.4
247.898	-0.51
248.115	17.92
248.332	11.78
248.549	36.35
248.766	60.93
248.983	-45.57
249.2	9.73
249.417	-33.28
249.633	-51.71
249.85	11.78
250.067	-0.51
250.284	9.73
250.501	3.58
250.717	38.4
250.934	-12.8
251.151	13.82
251.368	50.69
251.585	38.4
251.801	40.45
252.018	28.16
252.235	46.59
252.451	9.73
252.668	73.21
252.885	48.64
253.102	60.93
253.318	-2.56
253.535	-25.09
253.752	3.58
253.968	-8.7
254.185	-4.61
254.401	11.78
254.618	7.68
254.835	-29.18
255.051	44.54
255.268	26.11
255.484	-55.81
255.701	26.11
255.917	-0.51
256.134	-18.94
256.351	105.98
256.567	52.74
256.784	24.06
257	50.69
257.217	46.59
257.433	60.93
257.65	79.36
257.866	54.78
258.082	30.21
258.299	-39.42
258.515	34.3
258.732	-2.56
258.948	48.64
259.165	-16.9
259.381	-4.61
259.597	-4.61
259.814	58.88
260.03	-27.14
260.246	15.87
260.463	54.78
260.679	15.87
260.895	-23.04
261.112	91.65
261.328	50.69
261.544	34.3
261.761	118.27
261.977	28.16
262.193	-16.9
262.409	34.3
262.626	7.68
262.842	17.92
263.058	28.16
263.274	79.36
263.49	-10.75
263.707	48.64
263.923	60.93
264.139	-49.66
264.355	9.73
264.571	105.98
264.787	38.4
265.004	62.98
265.22	15.87
265.436	13.82
265.652	54.78
265.868	58.88
266.084	-23.04
266.3	48.64
266.516	-20.99
266.732	-31.23
266.948	-2.56
267.164	58.88
267.38	-0.51
267.596	38.4
267.812	54.78
268.028	-31.23
268.244	87.55
268.46	79.36
268.676	56.83
268.892	60.93
269.108	-47.62
269.324	36.35
269.54	50.69
269.756	79.36
269.972	46.59
270.188	112.13
270.403	22.02
270.619	-47.62
270.835	-10.75
271.051	-29.18
271.267	108.03
271.483	46.59
271.698	40.45
271.914	58.88
272.13	9.73
272.346	73.21
272.562	93.69
272.777	7.68
272.993	-23.04
273.209	5.63
273.425	93.69
273.64	-0.51
273.856	40.45
274.072	11.78
274.287	-55.81
274.503	56.83
274.719	128.51
274.934	11.78
275.15	-14.85
275.366	50.69
275.581	32.26
275.797	3.58
276.012	34.3
276.228	62.98
276.444	22.02
276.659	28.16
276.875	17.92
277.09	15.87
277.306	36.35
277.521	-33.28
277.737	58.88
277.952	69.12
278.168	38.4
278.383	3.58
278.599	77.31
278.814	46.59
279.03	56.83
279.245	118.27
279.461	83.45
279.676	24.06
279.892	-20.99
280.107	-0.51
280.322	19.97
280.538	67.07
280.753	-29.18
280.969	50.69
281.184	-2.56
281.399	81.41
281.615	46.59
281.83	50.69
282.045	46.59
282.26	-18.94
282.476	-31.23
282.691	77.31
282.906	48.64
283.122	-12.8
283.337	48.64
283.552	15.87
283.767	60.93
283.983	-18.94
284.198	50.69
284.413	58.88
284.628	-66.05
284.843	28.16
285.058	93.69
285.274	-14.85
285.489	34.3
285.704	3.58
285.919	32.26
286.134	-4.61
286.349	32.26
286.564	-37.38
286.779	116.22
286.995	69.12
287.21	19.97
287.425	48.64
287.64	32.26
287.855	95.74
288.07	9.73
288.285	44.54
288.5	26.11
288.715	112.13
288.93	36.35
289.145	44.54
289.36	81.41
289.575	24.06
289.79	30.21
290.004	69.12
290.219	32.26
290.434	60.93
290.649	62.98
290.864	-20.99
291.079	-0.51
291.294	56.83
291.509	46.59
291.724	34.3
291.938	-12.8
292.153	99.84
292.368	89.6
292.583	46.59
292.798	19.97
293.012	-2.56
293.227	-33.28
293.442	32.26
293.657	50.69
293.871	-68.09
294.086	48.64
294.301	38.4
294.516	62.98
294.73	32.26
294.945	-18.94
295.16	-16.9
295.374	42.5
295.589	26.11
295.804	13.82
296.018	58.88
296.233	5.63
296.447	56.83
296.662	40.45
296.877	69.12
297.091	42.5
297.306	7.68
297.52	48.64
297.735	128.51
297.949	48.64
298.164	7.68
298.378	65.02
298.593	24.06
298.807	13.82
299.022	17.92
299.236	56.83
299.451	50.69
299.665	-8.7
299.88	-0.51
300.094	19.97
300.309	54.78
300.523	32.26
300.737	62.98
300.952	34.3
301.166	89.6
301.381	71.17
301.595	-18.94
301.809	85.5
302.024	1.54
302.238	44.54
302.452	7.68
302.667	124.41
302.881	13.82
303.095	19.97
303.309	79.36
303.524	34.3
303.738	-31.23
303.952	7.68
304.166	87.55
304.381	9.73
304.595	83.45
304.809	60.93
305.023	-23.04
305.237	13.82
305.452	30.21
305.666	9.73
305.88	67.07
306.094	50.69
306.308	19.97
306.522	50.69
306.736	-16.9
306.95	19.97
307.164	83.45
307.379	-2.56
307.593	56.83
307.807	28.16
308.021	60.93
308.235	83.45
308.449	-61.95
308.663	87.55
308.877	101.89
309.091	87.55
309.305	148.99
309.519	-0.51
309.733	-14.85
309.947	-12.8
310.161	87.55
310.374	105.98
310.588	26.11
310.802	65.02
311.016	5.63
311.23	54.78
311.444	38.4
311.658	42.5
311.872	28.16
312.085	36.35
312.299	34.3
312.513	44.54
312.727	17.92
312.941	-12.8
313.154	93.69
313.368	-2.56
313.582	58.88
313.796	-23.04
314.009	73.21
314.223	24.06
314.437	-33.28
314.651	46.59
314.864	54.78
315.078	-51.71
315.292	11.78
315.505	73.21
315.719	97.79
315.933	-12.8
316.146	95.74
316.36	7.68
316.573	-8.7
316.787	69.12
317.001	48.64
317.214	30.21
317.428	116.22
317.641	-27.14
317.855	60.93
318.068	42.5
318.282	-49.66
318.495	48.64
318.709	71.17
318.922	-47.62
319.136	91.65
319.349	67.07
319.563	44.54
319.776	62.98
319.99	1.54
320.203	73.21
320.417	3.58
320.63	60.93
320.843	73.21
321.057	-64
321.27	36.35
321.483	75.26
321.697	85.5
321.91	91.65
322.124	-33.28
322.337	36.35
322.55	11.78
322.763	32.26
322.977	-2.56
323.19	-25.09
323.403	24.06
323.617	81.41
323.83	89.6
324.043	54.78
324.256	101.89
324.469	5.63
324.683	54.78
324.896	28.16
325.109	73.21
325.322	7.68
325.535	67.07
325.748	38.4
325.962	11.78
326.175	-4.61
326.388	48.64
326.601	87.55
326.814	65.02
327.027	15.87
327.24	73.21
327.453	3.58
327.666	-29.18
327.879	34.3
328.092	140.8
328.305	22.02
328.518	-61.95
328.731	42.5
328.944	24.06
329.157	85.5
329.37	32.26
329.583	22.02
329.796	73.21
330.009	-33.28
330.222	120.32
330.435	103.93
330.648	110.08
330.861	103.93
331.073	110.08
331.286	87.55
331.499	-8.7
331.712	87.55
331.925	26.11
332.138	50.69
332.35	46.59
332.563	38.4
332.776	71.17
332.989	38.4
333.202	71.17
333.414	5.63
333.627	34.3
333.84	3.58
334.053	52.74
334.265	42.5
334.478	11.78
334.691	62.98
334.903	62.98
335.116	-78.33
335.329	1.54
335.541	-12.8
335.754	50.69
335.966	1.54
336.179	56.83
336.392	34.3
336.604	50.69
336.817	1.54
337.029	36.35
337.242	19.97
337.454	42.5
337.667	38.4
337.88	48.64
338.092	26.11
338.305	89.6
338.517	3.58
338.729	60.93
338.942	-12.8
339.154	30.21
339.367	-6.66
339.579	42.5
339.792	-33.28
340.004	67.07
340.217	26.11
340.429	85.5
340.641	56.83
340.854	24.06
341.066	-16.9
341.278	13.82
341.491	65.02
341.703	19.97
341.915	-0.51
342.128	-4.61
342.34	62.98
342.552	7.68
342.764	-20.99
342.977	36.35
343.189	13.82
343.401	7.68
343.613	40.45
343.826	87.55
344.038	15.87
344.25	-4.61
344.462	-4.61
344.674	60.93
344.886	38.4
345.099	1.54
345.311	32.26
345.523	13.82
345.735	28.16
345.947	38.4
346.159	52.74
346.371	17.92
346.583	40.45
346.795	50.69
347.007	1.54
347.219	24.06
347.431	38.4
347.643	65.02
347.855	38.4
348.067	38.4
348.279	11.78
348.491	-4.61
348.703	60.93
348.915	54.78
349.127	36.35
349.339	69.12
349.551	52.74
349.763	56.83
349.975	71.17
350.187	52.74
350.399	52.74
350.61	-12.8
350.822	54.78
351.034	60.93
351.246	7.68
351.458	52.74
351.669	95.74
351.881	60.93
352.093	69.12
352.305	52.74
352.517	87.55
352.728	28.16
352.94	3.58
353.152	38.4
353.363	15.87
353.575	7.68
353.787	50.69
353.999	3.58
354.21	52.74
354.422	89.6
354.633	26.11
354.845	50.69
355.057	-55.81
355.268	83.45
355.48	65.02
355.692	9.73
355.903	75.26
356.115	-12.8
356.326	-8.7
356.538	54.78
356.749	30.21
356.961	48.64
357.172	56.83
357.384	34.3
357.595	40.45
357.807	77.31
358.018	89.6
358.23	-12.8
358.441	73.21
358.653	-0.51
358.864	28.16
359.075	40.45
359.287	17.92
359.498	-12.8
359.709	36.35
359.921	19.97
360.132	87.55
360.344	19.97
360.555	52.74
360.766	-29.18
360.977	65.02
361.189	7.68
361.4	110.08
361.611	67.07
361.823	99.84
362.034	67.07
362.245	50.69
362.456	69.12
362.667	44.54
362.879	62.98
363.09	77.31
363.301	-0.51
363.512	-16.9
363.723	15.87
363.935	30.21
364.146	-0.51
364.357	93.69
364.568	65.02
364.779	83.45
364.99	60.93
365.201	50.69
365.412	118.27
365.623	-96.77
365.834	62.98
366.045	44.54
366.256	67.07
366.467	30.21
366.678	132.61
366.889	-4.61
367.1	85.5
367.311	-12.8
367.522	79.36
367.733	65.02
367.944	52.74
368.155	62.98
368.366	58.88
368.577	46.59
368.788	110.08
368.999	89.6
369.209	77.31
369.42	13.82
369.631	62.98
369.842	65.02
370.053	87.55
370.264	105.98
370.474	46.59
370.685	48.64
370.896	3.58
371.107	58.88
371.317	62.98
371.528	34.3
371.739	40.45
371.95	97.79
372.16	73.21
372.371	108.03
372.582	32.26
372.792	1.54
373.003	79.36
373.214	26.11
373.424	30.21
373.635	62.98
373.846	105.98
374.056	3.58
374.267	32.26
374.477	60.93
374.688	7.68
374.898	22.02
375.109	142.85
375.319	91.65
375.53	42.5
375.74	22.02
375.951	19.97
376.161	97.79
376.372	48.64
376.582	52.74
376.793	56.83
377.003	40.45
377.214	15.87
377.424	3.58
377.635	101.89
377.845	15.87
378.055	65.02
378.266	48.64
378.476	15.87
378.686	58.88
378.897	24.06
379.107	46.59
379.317	48.64
379.528	46.59
379.738	77.31
379.948	30.21
380.158	77.31
380.369	50.69
380.579	24.06
380.789	38.4
380.999	34.3
381.21	103.93
381.42	144.89
381.63	19.97
381.84	144.89
382.05	26.11
382.261	62.98
382.471	112.13
382.681	60.93
382.891	103.93
383.101	38.4
383.311	-47.62
383.521	22.02
383.731	42.5
383.941	95.74
384.151	13.82
384.361	13.82
384.571	28.16
384.781	30.21
384.991	103.93
385.201	114.17
385.411	54.78
385.621	54.78
385.831	-33.28
386.041	87.55
386.251	62.98
386.461	65.02
386.671	5.63
386.881	50.69
387.091	105.98
387.301	110.08
387.511	77.31
387.72	36.35
387.93	11.78
388.14	54.78
388.35	69.12
388.56	32.26
388.769	91.65
388.979	-61.95
389.189	54.78
389.399	83.45
389.609	-4.61
389.818	75.26
390.028	101.89
390.238	81.41
390.447	30.21
390.657	79.36
390.867	44.54
391.076	24.06
391.286	77.31
391.496	60.93
391.705	-16.9
391.915	112.13
392.125	44.54
392.334	73.21
392.544	91.65
392.753	56.83
392.963	7.68
393.172	52.74
393.382	48.64
393.591	69.12
393.801	85.5
394.01	99.84
394.22	62.98
394.429	89.6
394.639	75.26
394.848	54.78
395.058	54.78
395.267	62.98
395.477	40.45
395.686	38.4
395.895	85.5
396.105	112.13
396.314	65.02
396.524	122.37
396.733	87.55
396.942	71.17
397.152	93.69
397.361	114.17
397.57	112.13
397.78	122.37
397.989	52.74
398.198	93.69
398.407	134.65
398.617	30.21
398.826	79.36
399.035	89.6
399.244	83.45
399.453	81.41
399.663	7.68
399.872	83.45
400.081	48.64
400.29	122.37
400.499	65.02
400.708	177.66
400.917	95.74
401.127	118.27
401.336	73.21
401.545	116.22
401.754	103.93
401.963	148.99
402.172	108.03
402.381	91.65
402.59	85.5
402.799	89.6
403.008	97.79
403.217	114.17
403.426	148.99
403.635	103.93
403.844	91.65
404.053	81.41
404.262	58.88
404.471	153.09
404.68	136.7
404.888	91.65
405.097	97.79
405.306	60.93
405.515	151.04
405.724	122.37
405.933	103.93
406.142	175.61
406.35	126.46
406.559	249.34
406.768	183.81
406.977	220.67
407.185	128.51
407.394	124.41
407.603	79.36
407.812	161.28
408.02	134.65
408.229	241.15
408.438	148.99
408.646	228.86
408.855	243.2
409.064	175.61
409.272	206.33
409.481	263.68
409.69	267.77
409.898	202.24
410.107	286.2
410.315	218.62
410.524	316.92
410.733	286.2
410.941	306.68
411.15	325.12
411.358	353.79
411.567	423.42
411.775	294.4
411.984	312.83
412.192	447.99
412.401	364.03
412.609	443.9
412.818	486.9
413.026	464.38
413.234	476.66
413.443	409.08
413.651	400.89
413.86	493.05
414.068	462.33
414.276	517.62
414.485	607.73
414.693	548.34
414.901	603.64
415.11	660.98
415.318	534.01
415.526	560.63
415.734	632.31
415.943	624.12
416.151	667.13
416.359	716.28
416.567	736.76
416.776	749.04
416.984	777.72
417.192	837.11
417.4	837.11
417.608	861.68
417.817	859.63
418.025	939.51
418.233	1046
418.441	921.07
418.649	1089.01
418.857	1048.05
419.065	1080.82
419.273	1041.9
419.481	1107.44
419.689	1199.6
419.897	1215.98
420.105	1279.47
420.313	1265.13
420.521	1297.9
420.729	1232.37
420.937	1347.05
421.145	1508.84
421.353	1564.14
421.561	1631.72
421.769	1596.9
421.977	1682.92
422.185	1777.12
422.393	1785.32
422.601	1867.24
422.809	1865.19
423.017	1967.59
423.224	2037.22
423.432	1922.53
423.64	1998.31
423.848	2282.97
424.056	2239.97
424.263	2364.89
424.471	2305.5
424.679	2325.98
424.887	2489.82
425.094	2588.12
425.302	2553.31
425.51	2686.42
425.718	2893.27
425.925	2708.95
426.133	2893.27
426.341	3089.87
426.548	3186.13
426.756	3292.62
426.964	3296.72
427.171	3376.59
427.379	3620.3
427.586	3575.24
427.794	3769.8
428.001	3864.01
428.209	4025.79
428.417	3925.44
428.624	4175.3
428.832	4296.13
429.039	4099.52
429.247	4419
429.454	4736.44
429.662	5037.49
429.869	4726.2
430.076	5002.68
430.284	4865.46
430.491	5029.3
430.699	5273.01
430.906	5350.83
431.114	5479.85
431.321	5606.83
431.528	5664.17
431.736	6008.23
431.943	6303.14
432.15	6188.45
432.358	6329.76
432.565	6557.08
432.772	6657.43
432.979	6849.94
433.187	6999.45
433.394	7214.48
433.601	7601.55
433.808	7615.88
434.016	7400.85
434.223	7855.5
434.43	8312.19
434.637	8154.5
434.844	8512.89
435.052	8691.07
435.259	8885.62
435.466	8813.95
435.673	8656.25
435.88	9422.19
436.087	9973.1
436.294	9819.5
436.501	9577.84
436.708	9827.69
436.915	10059.11
437.122	10509.66
437.329	10530.14
437.537	11185.49
437.743	11138.39
437.95	10925.4
438.157	11570.51
438.364	11896.14
438.571	11973.96
438.778	11828.56
438.985	13204.79
439.192	12557.63
439.399	13141.3
439.606	12760.38
439.813	13419.83
440.02	14284.07
440.227	13890.86
440.433	13864.24
440.64	14392.61
440.847	14153
441.054	14609.7
441.261	15258.9
441.467	15416.6
441.674	15607.06
441.881	16346.37
442.088	16170.25
442.294	15920.4
442.501	16461.06
442.708	16995.58
442.914	17444.09
443.121	18050.28
443.328	17822.96
443.534	18924.77
443.741	18511.08
443.948	18349.29
444.154	19633.36
444.361	19604.69
444.568	19383.51
444.774	19367.13
444.981	19760.34
445.187	20247.76
445.394	21034.18
445.6	21292.22
445.807	23125.15
446.013	21771.44
446.22	22217.9
446.426	23104.67
446.633	23510.17
446.839	24263.82
447.046	23137.44
447.252	24700.04
447.459	24589.45
447.665	24431.76
447.871	25730.17
448.078	26483.82
448.284	25410.68
448.491	26141.81
448.697	26961
448.903	27552.86
449.11	27663.45
449.316	27329.63
449.522	27638.87
449.728	28546.12
449.935	28550.22
450.141	28712.01
450.347	29072.45
450.553	28357.71
450.76	28912.71
450.966	29985.85
451.172	29635.64
451.378	29824.06
451.584	29307.97
451.791	30334
451.997	30078.01
452.203	30473.26
452.409	30665.77
452.615	30202.93
452.821	29117.51
453.027	29189.19
453.233	30436.4
453.44	29594.68
453.646	29735.99
453.852	29676.6
454.058	30471.22
454.264	29766.71
454.47	30344.24
454.676	29230.15
454.882	30317.62
455.088	27728.98
455.294	28130.39
455.5	28447.82
455.705	28718.15
455.911	27450.46
456.117	26780.78
456.323	26668.14
456.529	25500.79
456.735	26160.24
456.941	25396.35
457.147	25130.11
457.352	24425.61
457.558	24222.86
457.764	24337.55
457.97	23669.91
458.176	23213.21
458.381	23155.87
458.587	22170.8
458.793	21884.08
458.999	20960.45
459.204	22582.44
459.41	21808.31
459.616	20393.16
459.821	20337.87
460.027	20391.11
460.233	19739.86
460.438	19051.74
460.644	19309.79
460.85	18230.51
461.055	18068.72
461.261	17890.54
461.466	16528.64
461.672	15977.74
461.878	17411.32
462.083	15893.77
462.289	15783.18
462.494	15742.22
462.7	15004.96
462.905	14564.64
463.111	15021.34
463.316	15187.22
463.522	14720.29
463.727	14566.69
463.932	14837.02
464.138	14900.51
464.343	14689.57
464.549	14398.76
464.754	14683.42
464.959	14378.28
465.165	14347.56
465.37	13823.28
465.575	13411.64
465.781	14134.57
465.986	14202.15
466.191	13638.96
466.397	13434.16
466.602	12612.93
466.807	13276.47
467.012	13313.33
467.218	13188.41
467.423	12942.65
467.628	13040.95
467.833	13796.65
468.038	13221.17
468.244	12715.33
468.449	12893.5
468.654	12787
468.859	12752.19
469.064	12805.44
469.269	12313.92
469.474	12430.66
469.679	12381.51
469.885	12442.95
470.09	12193.09
470.295	12236.1
470.5	11992.39
470.705	12170.57
470.91	11939.15
471.115	11744.59
471.32	11871.56
471.525	11822.41
471.73	11541.84
471.935	11468.11
472.139	10986.84
472.344	11289.94
472.549	11017.56
472.754	11027.8
472.959	10853.72
473.164	10620.25
473.369	10442.08
473.574	10671.45
473.778	10585.44
473.983	10644.83
474.188	10499.42
474.393	10075.49
474.598	9983.34
474.802	10018.15
475.007	9917.8
475.212	9907.56
475.417	9649.52
475.621	9631.09
475.826	9545.07
476.031	9368.95
476.235	9024.89
476.44	9500.02
476.645	9248.11
476.849	8899.96
477.054	9037.17
477.259	9043.32
477.463	8981.88
477.668	8547.71
477.872	8908.15
478.077	8871.29
478.282	8504.7
478.486	8488.32
478.691	8447.36
478.895	8455.55
479.1	8363.39
479.304	8181.12
479.509	8119.68
479.713	8248.71
479.918	7951.75
480.122	8011.14
480.326	8066.44
480.531	8088.96
480.735	7925.13
480.94	7818.63
481.144	8119.68
481.348	7882.12
481.553	7744.91
481.757	7755.15
481.961	7818.63
482.166	7800.2
482.37	7796.11
482.574	7576.97
482.778	7609.74
482.983	7830.92
483.187	7662.99
483.391	7759.24
483.595	7665.04
483.8	7722.38
484.004	7724.43
484.208	7681.42
484.412	7673.23
484.616	7810.44
484.821	7595.4
485.025	7613.84
485.229	7734.67
485.433	7560.59
485.637	7599.5
485.841	7646.6
486.045	7875.98
486.249	7687.56
486.453	7673.23
486.657	7636.36
486.861	7687.56
487.065	7566.73
487.269	7527.82
487.473	7542.16
487.677	7957.89
487.881	7785.87
488.085	7515.53
488.289	7787.91
488.493	7576.97
488.697	7757.19
488.901	7822.73
489.105	7873.93
489.309	7667.08
489.512	7722.38
489.716	7847.3
489.92	7812.49
490.124	7794.06
490.328	7937.41
490.531	7806.34
490.735	7794.06
490.939	7824.78
491.143	7822.73
491.346	7937.41
491.55	7947.65
491.754	8074.63
491.958	7972.23
492.161	7978.37
492.365	8070.53
492.569	8199.55
492.772	8009.09
492.976	8111.49
493.18	8129.92
493.383	8267.14
493.587	8322.43
493.79	8545.66
493.994	8490.37
494.197	8578.43
494.401	8471.93
494.605	8609.15
494.808	8744.31
495.012	8916.34
495.215	8719.74
495.419	8721.79
495.622	8779.13
495.825	8940.92
496.029	8969.59
496.232	9227.64
496.436	9127.28
496.639	9340.27
496.843	9205.11
497.046	9323.89
497.249	9555.31
497.453	9475.44
497.656	9614.7
497.859	9651.56
498.063	9715.05
498.266	9938.28
498.469	10069.35
498.673	9987.43
498.876	10112.36
499.079	10284.39
499.282	10298.72
499.485	10704.22
499.689	10394.98
499.892	10847.58
500.095	10818.91
500.298	11564.37
500.501	10917.21
500.705	11457.87
500.908	11263.32
501.111	11218.26
501.314	11476.3
501.517	11668.81
501.72	11812.17
501.923	11875.66
502.126	11978.06
502.329	12258.63
502.532	12356.93
502.735	12492.1
502.938	12600.64
503.141	12406.08
503.344	12922.17
503.547	12938.55
503.75	13114.68
503.953	13354.29
504.156	13428.02
504.359	13468.98
504.562	13548.85
504.765	13724.97
504.968	14001.45
505.17	14036.27
505.373	14054.7
505.576	14191.91
505.779	14525.73
505.982	14646.56
506.185	15002.91
506.387	14822.69
506.59	15226.14
506.793	15426.84
506.996	15181.08
507.198	15752.46
507.401	15842.57
507.604	15734.03
507.807	16291.08
508.009	16313.61
508.212	16397.57
508.415	16542.98
508.617	16809.22
508.82	16815.36
509.022	17065.21
509.225	17147.13
509.428	17325.3
509.63	17769.71
509.833	17923.31
510.035	17984.75
510.238	18234.6
510.44	17988.85
510.643	18406.63
510.845	18625.76
511.048	18568.42
511.25	18951.39
511.453	19231.96
511.655	19772.63
511.858	19375.32
512.06	19649.75
512.262	19682.52
512.465	19915.98
512.667	20221.13
512.87	20233.42
513.072	20507.85
513.274	20690.12
513.477	21048.51
513.679	21189.82
513.881	21619.89
514.084	21705.91
514.286	21558.46
514.488	21877.94
514.69	22615.21
514.893	22398.12
515.095	22092.97
515.297	22979.75
515.499	22854.82
515.701	23168.16
515.904	23471.26
516.106	23696.53
516.308	23542.94
516.51	24056.98
516.712	23975.06
516.914	24235.15
517.116	24730.76
517.318	24851.59
517.52	24980.61
517.722	25312.38
517.925	25255.04
518.127	25607.29
518.329	25613.43
518.531	25807.99
518.733	26332.27
518.935	26184.82
519.136	26328.17
519.338	26729.58
519.54	27167.84
519.742	27173.99
519.944	27286.62
520.146	27915.35
520.348	27851.86
520.55	28017.75
520.752	28345.42
520.954	28542.03
521.155	28505.17
521.357	28679.24
521.559	29348.93
521.761	29434.94
521.963	29398.08
522.164	29762.62
522.366	29740.09
522.568	30057.53
522.77	30305.33
522.971	30794.79
523.173	30239.79
523.375	30901.29
523.576	30770.22
523.778	31159.33
523.98	31581.21
524.181	31650.85
524.383	31503.39
524.584	31974.42
524.786	32199.7
524.988	31896.6
525.189	32371.73
525.391	32652.3
525.592	32635.92
525.794	32951.31
525.995	32863.24
526.197	32642.06
526.398	33297.41
526.6	33340.42
526.801	33192.97
527.003	33686.53
527.204	33803.26
527.406	33899.51
527.607	34087.93
527.808	34016.25
528.01	33723.39
528.211	34051.06
528.412	34864.11
528.614	34315.25
528.815	34581.49
529.016	34593.78
529.218	34460.66
529.419	34911.21
529.62	35152.87
529.822	34780.14
530.023	35165.16
530.224	35521.51
530.425	35062.76
530.626	34948.07
530.828	35032.04
531.029	35742.69
531.23	35034.09
531.431	34927.6
531.632	35529.7
531.833	35634.14
532.035	35853.28
532.236	35638.24
532.437	35738.59
532.638	35134.44
532.839	36209.62
533.04	36021.21
533.241	35269.61
533.442	35783.65
533.643	36053.98
533.844	35539.94
534.045	36074.46
534.246	35279.85
534.447	36021.21
534.648	35984.35
534.849	35838.94
535.05	35566.56
535.251	36197.34
535.451	36201.43
535.652	36160.47
535.853	35836.89
536.054	36084.7
536.255	36070.36
536.456	36230.1
536.657	36277.21
536.857	35767.26
537.058	35746.78
537.259	36086.75
537.46	36262.87
537.66	35941.34
537.861	36027.35
538.062	35970.01
538.263	36287.45
538.463	35775.45
538.664	36322.26
538.865	36053.98
539.065	36205.53
539.266	35795.93
539.466	36467.67
539.667	35748.83
539.868	36836.3
540.068	35998.68
540.269	35814.37
540.469	35957.72
540.67	36027.35
540.87	35859.42
541.071	35955.68
541.271	36119.51
541.472	35812.32
541.672	35955.68
541.873	36084.7
542.073	35779.55
542.274	36246.49
542.474	35933.15
542.675	35711.97
542.875	36250.58
543.075	35922.91
543.276	35658.72
543.476	36187.1
543.676	35578.85
543.877	35888.09
544.077	36150.23
544.277	35929.05
544.478	36047.83
544.678	35959.77
544.878	35603.42
545.078	35933.15
545.279	35890.14
545.479	36013.02
545.679	36017.11
545.879	35877.85
546.079	35808.22
546.28	35802.08
546.48	35531.75
546.68	36082.65
546.88	35939.29
547.08	35546.08
547.28	35773.41
547.48	35654.62
547.68	35922.91
547.88	35828.7
548.081	35902.43
548.281	35675.1
548.481	35597.28
548.681	35879.9
548.881	35957.72
549.081	35613.66
549.28	35664.86
549.48	35904.48
549.68	35501.03
549.88	36023.26
550.08	35476.45
550.28	36133.85
550.48	35544.03
550.68	35703.78
550.88	35638.24
551.08	35736.54
551.279	35650.53
551.479	35363.81
551.679	35922.91
551.879	35415.01
552.079	35929.05
552.278	35750.88
552.478	35419.11
552.678	35513.31
552.878	35609.57
553.077	35013.61
553.277	35292.13
553.477	35789.79
553.676	35320.81
553.876	35226.6
554.076	35236.84
554.275	35021.8
554.475	34821.1
554.674	35093.48
554.874	35109.86
555.074	35120.1
555.273	35560.42
555.473	35331.04
555.672	35204.07
555.872	35118.06
556.071	35204.07
556.271	35238.89
556.47	34870.25
556.67	34886.64
556.869	34870.25
557.068	35236.84
557.268	34817
557.467	34726.89
557.667	35017.71
557.866	34796.53
558.065	34495.47
558.265	34733.04
558.464	34583.54
558.663	34808.81
558.863	34104.31
559.062	34784.24
559.261	34345.97
559.461	34771.95
559.66	34092.02
559.859	34448.37
560.058	33995.77
560.258	34401.27
560.457	34268.15
560.656	34466.8
560.855	34335.73
561.054	34022.39
561.253	33760.25
561.453	34223.09
561.652	34087.93
561.851	34122.74
562.05	33725.44
562.249	33661.95
562.448	33772.54
562.647	33819.64
562.846	33494.02
563.045	33188.87
563.244	33381.38
563.443	33676.29
563.642	33620.99
563.841	33326.08
564.04	32883.72
564.239	33571.84
564.438	32943.11
564.637	32777.23
564.836	32832.52
565.035	32807.95
565.234	33154.05
565.432	32674.83
565.631	32398.35
565.83	33102.85
566.029	32488.46
566.228	32703.5
566.427	32637.97
566.625	32467.98
566.824	31839.26
567.023	32484.37
567.222	31900.7
567.42	32740.36
567.619	31941.66
567.818	32203.8
568.016	31880.22
568.215	32033.82
568.414	31732.76
568.612	31923.22
568.811	31364.13
569.01	31620.13
569.208	31499.3
569.407	31622.17
569.605	31116.33
569.804	31523.87
570.002	31093.8
570.201	31368.23
570.4	31101.99
570.598	31079.46
570.797	31116.33
570.995	30923.82
571.193	30379.06
571.392	31241.25
571.59	30491.69
571.789	30653.48
571.987	30329.91
572.186	30135.35
572.384	30295.09
572.582	30598.19
572.781	30313.52
572.979	29897.78
573.177	30260.27
573.376	30135.35
573.574	29738.04
573.772	29977.65
573.971	29946.94
574.169	29465.66
574.367	29256.77
574.565	29594.68
574.763	29297.73
574.962	29606.97
575.16	29226.05
575.358	29236.29
575.556	28877.9
575.754	29396.03
575.952	28736.59
576.151	29271.11
576.349	28879.94
576.547	28669
576.745	28773.45
576.943	28527.69
577.141	28697.67
577.339	28701.77
577.537	28320.85
577.735	28607.56
577.933	28165.2
578.131	28253.26
578.329	28046.42
578.527	27946.07
578.725	28007.51
578.923	27980.89
579.121	27771.99
579.319	27858.01
579.516	27462.75
579.714	27790.42
579.912	27548.76
580.11	27460.7
580.308	27249.76
580.506	27487.32
580.704	26971.24
580.901	27331.68
581.099	27475.04
581.297	26891.37
581.495	26948.71
581.692	27180.13
581.89	26981.48
582.088	27096.16
582.285	26784.87
582.483	26870.89
582.681	26645.61
582.878	26815.59
583.076	26084.47
583.274	26600.55
583.471	25916.53
583.669	26053.75
583.866	26057.84
584.064	26305.65
584.262	26109.04
584.459	26121.33
584.657	25640.06
584.854	25855.09
585.052	25545.85
585.249	25744.5
585.447	25728.12
585.644	25359.49
585.841	25687.16
586.039	25824.37
586.236	25152.64
586.434	25064.58
586.631	25244.8
586.828	25343.1
587.026	25185.41
587.223	25123.97
587.42	25031.81
587.618	24982.66
587.815	24611.98
588.012	24689.8
588.21	24632.46
588.407	24456.33
588.604	24683.66
588.801	24353.93
588.999	24419.47
589.196	24165.52
589.393	24403.08
589.59	24118.42
589.787	24163.47
589.984	24138.9
590.182	23917.72
590.379	24300.69
590.576	24126.61
590.773	23753.88
590.97	23657.62
591.167	23854.23
591.364	23712.92
591.561	23411.87
591.758	23418.01
591.955	23420.06
592.152	23708.82
592.349	23035.04
592.546	23424.15
592.743	23198.88
592.94	22897.83
593.137	23225.5
593.334	23217.31
593.531	22676.65
593.727	22746.28
593.924	22932.64
594.121	22498.47
594.318	22635.69
594.515	22377.64
594.712	22697.13
594.908	22439.08
595.105	22328.49
595.302	22135.98
595.499	22305.96
595.696	22084.78
595.892	21669.05
596.089	22049.97
596.286	22172.85
596.482	21701.81
596.679	22031.54
596.876	22049.97
597.072	21773.49
597.269	21638.33
597.466	21449.91
597.662	21540.02
597.859	21273.79
598.055	21460.15
598.252	21365.95
598.448	21318.84
598.645	21052.61
598.841	20901.06
599.038	21503.16
599.234	21193.92
599.431	20618.44
599.627	20710.6
599.824	20903.11
600.02	20450.5
600.217	20710.6
600.413	20749.51
600.609	20464.84
600.806	20161.74
601.002	20561.09
601.198	20628.68
601.395	20245.71
601.591	20442.31
601.787	20294.86
601.984	20094.16
602.18	20292.81
602.376	20153.55
602.572	19967.18
602.769	19901.65
602.965	19750.1
603.161	20110.54
603.357	19299.55
603.553	19582.17
603.75	19799.25
603.946	19559.64
604.142	19354.84
604.338	19254.49
604.534	19338.46
604.73	19447
604.926	19086.56
605.122	19414.23
605.318	19137.76
605.514	19047.65
605.71	19059.93
605.906	18967.77
606.102	18961.63
606.298	18859.23
606.494	18609.38
606.69	18830.56
606.886	18982.11
607.082	18560.23
607.278	18855.14
607.474	18556.13
607.67	18664.68
607.866	18273.51
608.062	18988.25
608.257	18367.72
608.453	18357.48
608.649	18435.3
608.845	18441.45
609.041	18287.85
609.236	18212.07
609.432	18429.16
609.628	18189.55
609.824	18121.96
610.019	18083.05
610.215	17890.54
610.411	18224.36
610.606	17769.71
610.802	17980.65
610.998	17970.41
611.193	17964.27
611.389	18050.28
611.584	17876.21
611.78	17751.28
611.976	17464.57
612.171	17644.79
612.367	17802.48
612.562	17612.02
612.758	17308.92
612.953	17306.87
613.149	17605.88
613.344	17376.5
613.539	17747.19
613.735	17452.28
613.93	17360.12
614.126	17194.23
614.321	17546.48
614.517	17366.26
614.712	17155.32
614.907	17358.07
615.103	17290.49
615.298	17009.92
615.493	17380.6
615.688	16803.07
615.884	17112.31
616.079	16942.33
616.274	16999.68
616.47	16839.94
616.665	17077.5
616.86	16626.95
617.055	16774.4
617.25	16764.16
617.445	16983.29
617.641	16633.09
617.836	16880.89
618.031	16327.94
618.226	16665.86
618.421	16592.13
618.616	16473.35
618.811	16256.26
619.006	16628.99
619.201	16190.73
619.396	16000.27
619.591	16100.62
619.786	16033.04
619.981	15908.11
620.176	16176.39
620.371	15818
620.566	15959.31
620.761	15758.61
620.956	15932.68
621.151	15541.52
621.346	15402.26
621.541	15559.95
621.735	15752.46
621.93	15113.5
622.125	15090.97
622.32	15088.92
622.515	14988.57
622.709	14904.6
622.904	15045.91
623.099	15031.58
623.294	14955.8
623.488	14677.28
623.683	14767.39
623.878	14523.68
624.072	14505.25
624.267	14621.98
624.462	14349.61
624.656	14353.7
624.851	14411.04
625.046	14107.94
625.24	14044.46
625.435	14073.13
625.629	13858.09
625.824	13819.18
626.018	13800.75
626.213	13559.09
626.407	13614.38
626.602	13430.07
626.796	13348.15
626.991	13604.14
627.185	13569.33
627.38	13335.86
627.574	13122.87
627.768	12971.32
627.963	13053.24
628.157	12916.03
628.352	12801.34
628.546	12797.24
628.74	12922.17
628.935	12578.11
629.129	12684.61
629.323	12619.07
629.517	12629.31
629.712	12340.55
629.906	12424.51
630.1	12483.91
630.294	12291.4
630.489	12207.43
630.683	12307.78
630.877	12059.98
631.071	12016.97
631.265	12199.24
631.459	11867.47
631.653	12019.02
631.848	11625.81
632.042	11810.12
632.236	11478.35
632.43	11588.94
632.624	11523.41
632.818	11599.18
633.012	11033.94
633.206	11369.81
633.4	11324.76
633.594	11089.24
633.788	11154.77
633.982	11257.17
634.176	11201.88
634.369	10847.58
634.563	10831.19
634.757	10802.52
634.951	10673.5
635.145	10880.35
635.339	10792.28
635.533	10564.96
635.726	10601.82
635.92	10421.6
636.114	10546.53
636.308	10444.13
636.501	10181.99
636.695	10437.98
636.889	10296.67
637.083	10153.32
637.276	10249.57
637.47	10233.19
637.664	10018.15
637.857	10104.17
638.051	10046.82
638.244	9903.46
638.438	9876.84
638.632	9856.36
638.825	9651.56
639.019	9647.47
639.212	9622.89
639.406	9653.61
639.599	9354.61
639.793	9620.85
639.986	9231.73
640.18	9528.69
640.373	9434.48
640.567	9133.43
640.76	9248.11
640.954	9026.93
641.147	9037.17
641.34	8967.54
641.534	9149.81
641.727	8779.13
641.92	8924.54
642.114	8840.57
642.307	8859
642.5	8809.85
642.694	8652.16
642.887	8713.6
643.08	8539.52
643.273	8738.17
643.467	8596.86
643.66	8695.16
643.853	8533.37
644.046	8494.46
644.239	8576.38
644.432	8236.42
644.626	8275.33
644.819	8390.02
645.012	8234.37
645.205	8254.85
645.398	8113.54
645.591	7980.42
645.784	8238.47
645.977	7908.74
646.17	8105.35
646.363	7931.27
646.556	7841.16
646.749	7701.9
646.942	7726.47
647.135	7771.53
647.328	7697.8
647.521	7742.86
647.714	7675.27
647.907	7699.85
648.099	7531.92
648.292	7548.3
648.485	7556.49
648.678	7398.8
648.871	7413.13
649.064	7351.7
649.256	7355.79
649.449	7388.56
649.642	7165.33
649.835	7212.43
650.027	7171.47
650.22	7120.28
650.413	7097.75
650.605	7060.88
650.798	7124.37
650.991	6942.1
651.183	7005.59
651.376	6856.09
651.568	6806.94
651.761	6860.18
651.954	6741.4
652.146	6774.17
652.339	6753.69
652.531	6657.43
652.724	6495.64
652.916	6507.93
653.109	6690.2
653.301	6548.89
653.494	6628.76
653.686	6421.92
653.879	6600.09
654.071	6395.29
654.263	6350.24
654.456	6278.56
654.648	6227.36
654.84	6143.39
655.033	6260.13
655.225	6411.68
655.417	6002.08
655.61	6153.63
655.802	6106.53
655.994	6049.19
656.186	6100.39
656.379	6002.08
656.571	6061.48
656.763	5993.89
656.955	5903.78
657.148	5920.17
657.34	5879.21
657.532	5918.12
657.724	5828.01
657.916	5952.93
658.108	5862.82
658.3	5664.17
658.492	5754.28
658.684	5612.97
658.876	5672.36
659.068	5762.47
659.26	5514.67
659.452	5549.48
659.644	5584.3
659.836	5559.72
660.028	5553.58
660.22	5381.55
660.412	5381.55
660.604	5299.63
660.796	5391.79
660.988	5426.61
661.18	5330.35
661.372	5180.85
661.563	5445.04
661.755	5256.62
661.947	5281.2
662.139	5215.66
662.331	5180.85
662.522	5021.11
662.714	5123.51
662.906	5055.92
663.097	4969.91
663.289	4896.18
663.481	4931
663.673	5051.83
663.864	4926.9
664.056	5012.92
664.247	4910.52
664.439	4918.71
664.631	4818.36
664.822	4752.82
665.014	4883.89
665.205	4900.28
665.397	4844.98
665.588	4771.26
665.78	4742.58
665.971	4617.66
666.163	4894.13
666.354	4599.23
666.546	4603.32
666.737	4470.2
666.929	4652.47
667.12	4648.38
667.311	4607.42
667.503	4617.66
667.694	4558.27
667.885	4441.53
668.077	4550.07
668.268	4304.32
668.459	4318.65
668.651	4568.51
668.842	4453.82
669.033	4470.2
669.224	4361.66
669.416	4349.37
669.607	4302.27
669.798	4412.86
669.989	4326.85
670.18	4160.96
670.371	4341.18
670.563	4271.55
670.754	4320.7
670.945	4201.92
671.136	4132.29
671.327	4228.54
671.518	4081.09
671.709	4160.96
671.9	4189.63
672.091	4019.65
672.282	4113.86
672.473	4191.68
672.664	3933.64
672.855	4130.24
673.046	4007.36
673.237	4169.15
673.428	3974.6
673.619	3986.88
673.809	4036.03
674	3911.11
674.191	4042.18
674.382	3978.69
674.573	4007.36
674.764	3933.64
674.954	3868.1
675.145	3847.62
675.336	3919.3
675.527	3907.01
675.717	3853.77
675.908	3868.1
676.099	3872.2
676.289	4003.27
676.48	3798.47
676.671	3868.1
676.861	3790.28
677.052	3599.82
677.243	3835.33
677.433	3745.22
677.624	3753.41
677.814	3763.65
678.005	3831.24
678.195	3775.94
678.386	3730.89
678.576	3737.03
678.767	3751.37
678.957	3759.56
679.148	3665.35
679.338	3726.79
679.529	3687.88
679.719	3603.91
679.909	3763.65
680.1	3618.25
680.29	3653.06
680.481	3657.16
680.671	3546.57
680.861	3671.5
681.052	3734.98
681.242	3587.53
681.432	3712.46
681.622	3601.87
681.813	3653.06
682.003	3651.02
682.193	3614.15
682.383	3618.25
682.573	3622.34
682.764	3560.91
682.954	3495.37
683.144	3472.84
683.334	3468.75
683.524	3431.88
683.714	3460.56
683.904	3474.89
684.094	3616.2
684.284	3454.41
684.474	3597.77
684.664	3392.97
684.854	3450.32
685.044	3356.11
685.234	3409.36
685.424	3325.39
685.614	3423.69
685.804	3288.53
685.994	3370.44
686.184	3331.53
686.374	3345.87
686.564	3483.08
686.753	3317.2
686.943	3212.75
687.133	3306.96
687.323	3323.34
687.513	3403.21
687.702	3243.47
687.892	3356.11
688.082	3186.13
688.272	3259.85
688.461	3218.89
688.651	3243.47
688.841	3110.35
689.03	3233.23
689.22	3218.89
689.41	3091.92
689.599	3057.11
689.789	3196.37
689.979	2997.71
690.168	3073.49
690.358	3108.3
690.547	3110.35
690.737	3159.5
690.926	2987.47
691.116	2975.19
691.305	2969.04
691.495	2917.84
691.684	2971.09
691.874	2926.04
692.063	3042.77
692.252	3042.77
692.442	2907.6
692.631	2858.45
692.82	2895.32
693.01	2907.6
693.199	2891.22
693.388	2762.2
693.578	2983.38
693.767	2891.22
693.956	2770.39
694.146	2817.49
694.335	2880.98
694.524	2819.54
694.713	2856.4
694.902	2711
695.092	2815.45
695.281	2706.9
695.47	2911.7
695.659	2829.78
695.848	2844.12
696.037	2825.68
696.226	2739.67
696.415	2733.53
696.604	2835.92
696.793	2799.06
696.982	2854.36
697.171	2725.33
697.36	2674.14
697.549	2676.18
697.738	2633.18
697.927	2711
698.116	2741.72
698.305	2708.95
698.494	2764.25
698.683	2586.07
698.872	2698.71
699.061	2618.84
699.25	2659.8
699.438	2680.28
699.627	2635.22
699.816	2706.9
700.005	2624.98
700.193	2495.96
700.382	2643.42
700.571	2633.18
700.76	2530.78
700.948	2694.61
701.137	2706.9
701.326	2639.32
701.514	2698.71
701.703	2715.09
701.892	2534.87
702.08	2547.16
702.269	2590.17
702.457	2588.12
702.646	2659.8
702.834	2551.26
703.023	2676.18
703.212	2692.57
703.4	2665.94
703.589	2612.7
703.777	2553.31
703.965	2561.5
704.154	2588.12
704.342	2526.68
704.531	2614.74
704.719	2502.11
704.907	2567.64
705.096	2532.83
705.284	2510.3
705.472	2477.53
705.661	2520.54
705.849	2643.42
706.037	2573.78
706.226	2610.65
706.414	2653.66
706.602	2594.26
706.79	2586.07
706.979	2491.87
707.167	2510.3
707.355	2608.6
707.543	2543.07
707.731	2645.46
707.919	2694.61
708.107	2627.03
708.296	2508.25
708.484	2573.78
708.672	2477.53
708.86	2500.06
709.048	2600.41
709.236	2491.87
709.424	2543.07
709.612	2614.74
709.8	2577.88
709.988	2536.92
710.176	2594.26
710.364	2624.98
710.551	2633.18
710.739	2614.74
710.927	2491.87
711.115	2491.87
711.303	2567.64
711.491	2483.67
711.679	2530.78
711.866	2495.96
712.054	2608.6
712.242	2629.08
712.43	2602.46
712.617	2635.22
712.805	2588.12
712.993	2504.15
713.181	2534.87
713.368	2645.46
713.556	2592.22
713.744	2596.31
713.931	2491.87
714.119	2590.17
714.306	2577.88
714.494	2559.45
714.682	2561.5
714.869	2618.84
715.057	2559.45
715.244	2532.83
715.432	2573.78
715.619	2588.12
715.807	2557.4
715.994	2522.59
716.182	2620.89
716.369	2512.35
716.556	2616.79
716.744	2543.07
716.931	2444.76
717.119	2491.87
717.306	2465.24
717.493	2518.49
717.681	2559.45
717.868	2500.06
718.055	2596.31
718.242	2530.78
718.43	2555.35
718.617	2522.59
718.804	2543.07
718.991	2579.93
719.179	2577.88
719.366	2565.59
719.553	2622.94
719.74	2543.07
719.927	2596.31
720.114	2624.98
720.301	2688.47
720.488	2479.58
720.676	2571.74
720.863	2629.08
721.05	2639.32
721.237	2598.36
721.424	2667.99
721.611	2577.88
721.798	2444.76
721.985	2504.15
722.172	2579.93
722.358	2473.43
722.545	2534.87
722.732	2590.17
722.919	2563.54
723.106	2592.22
723.293	2586.07
723.48	2559.45
723.667	2405.85
723.853	2561.5
724.04	2645.46
724.227	2477.53
724.414	2563.54
724.6	2465.24
724.787	2532.83
724.974	2545.11
725.161	2524.63
725.347	2543.07
725.534	2475.48
725.72	2436.57
725.907	2518.49
726.094	2475.48
726.28	2575.83
726.467	2565.59
726.653	2412
726.84	2489.82
727.027	2520.54
727.213	2549.21
727.4	2498.01
727.586	2528.73
727.773	2620.89
727.959	2489.82
728.145	2573.78
728.332	2530.78
728.518	2508.25
728.705	2579.93
728.891	2487.77
729.077	2608.6
729.264	2477.53
729.45	2555.35
729.636	2522.59
729.823	2491.87
730.009	2616.79
730.195	2475.48
730.382	2504.15
730.568	2491.87
730.754	2575.83
730.94	2422.24
731.126	2549.21
731.313	2416.09
731.499	2436.57
731.685	2483.67
731.871	2612.7
732.057	2444.76
732.243	2452.95
732.429	2448.86
732.615	2571.74
732.801	2450.91
732.987	2471.39
733.173	2489.82
733.359	2584.02
733.545	2538.97
733.731	2553.31
733.917	2485.72
734.103	2526.68
734.289	2532.83
734.475	2446.81
734.661	2446.81
734.847	2399.71
735.033	2551.26
735.219	2446.81
735.404	2389.47
735.59	2379.23
735.776	2479.58
735.962	2487.77
736.148	2446.81
736.333	2455
736.519	2463.19
736.705	2483.67
736.89	2588.12
737.076	2438.62
737.262	2440.67
737.447	2328.03
737.633	2383.32
737.819	2524.63
738.004	2420.19
738.19	2387.42
738.375	2371.04
738.561	2440.67
738.747	2395.61
738.932	2297.31
739.118	2319.84
739.303	2407.9
739.489	2268.64
739.674	2303.45
739.859	2368.99
740.045	2342.36
740.23	2256.35
740.416	2260.45
740.601	2328.03
740.786	2313.69
740.972	2301.4
741.157	2248.16
741.342	2264.54
741.528	2237.92
741.713	2307.55
741.898	2153.95
742.084	2291.17
742.269	2354.65
742.454	2301.4
742.639	2264.54
742.824	2199.01
743.01	2311.64
743.195	2192.86
743.38	2162.14
743.565	2211.29
743.75	2205.15
743.935	2305.5
744.12	2172.38
744.305	2129.38
744.49	2137.57
744.675	2176.48
744.86	2123.23
745.045	2151.9
745.23	2149.86
745.415	2110.94
745.6	2063.84
745.785	2110.94
745.97	2082.27
746.155	2090.46
746.34	2051.55
746.525	2016.74
746.71	2000.35
746.895	1926.63
747.079	2082.27
747.264	2014.69
747.449	1981.92
747.634	1983.97
747.819	1940.96
748.003	1957.35
748.188	1983.97
748.373	1930.72
748.557	1947.11
748.742	1846.76
748.927	1920.48
749.111	1820.13
749.296	1895.91
749.481	1893.86
749.665	1746.41
749.85	1824.23
750.034	1777.12
750.219	1824.23
750.404	1770.98
750.588	1809.89
750.773	1775.08
750.957	1770.98
751.141	1609.19
751.326	1672.68
751.51	1662.44
751.695	1770.98
751.879	1705.45
752.064	1701.35
752.248	1654.25
752.432	1641.96
752.617	1684.97
752.801	1594.86
752.985	1557.99
753.17	1539.56
753.354	1572.33
753.538	1586.66
753.722	1617.38
753.907	1611.24
754.091	1592.81
754.275	1547.75
754.459	1560.04
754.643	1578.47
754.828	1549.8
755.012	1453.55
755.196	1431.02
755.38	1433.07
755.564	1474.03
755.748	1488.36
755.932	1412.59
756.116	1431.02
756.3	1420.78
756.484	1349.1
756.668	1400.3
756.852	1383.91
757.036	1492.46
757.22	1404.39
757.404	1336.81
757.588	1394.15
757.772	1293.8
757.956	1369.58
758.14	1267.18
758.323	1349.1
758.507	1322.48
758.691	1316.33
758.875	1394.15
759.059	1308.14
759.242	1222.13
759.426	1162.73
759.61	1318.38
759.794	1295.85
759.977	1238.51
760.161	1232.37
760.345	1195.5
760.528	1127.92
760.712	1254.89
760.895	1181.17
761.079	1224.17
761.263	1230.32
761.446	1142.25
761.63	1185.26
761.813	1160.69
761.997	1213.93
762.18	1142.25
762.364	1222.13
762.547	1175.02
762.731	1261.04
762.914	1175.02
763.098	1150.45
763.281	1050.1
763.464	1115.63
763.648	1095.15
763.831	1072.62
764.015	1070.58
764.198	1086.96
764.381	1097.2
764.564	1052.14
764.748	1113.58
764.931	1060.34
765.114	1021.42
765.297	998.9
765.481	1023.47
765.664	1109.49
765.847	1082.86
766.03	941.55
766.213	1037.81
766.397	1035.76
766.58	962.03
766.763	966.13
766.946	1060.34
767.129	994.8
767.312	1066.48
767.495	1046
767.678	990.7
767.861	1015.28
768.044	980.47
768.227	1060.34
768.41	986.61
768.593	916.98
768.776	931.31
768.959	988.66
769.142	962.03
769.324	882.16
769.507	974.32
769.69	914.93
769.873	923.12
770.056	990.7
770.239	937.46
770.421	910.83
770.604	959.99
770.787	927.22
770.97	878.07
771.152	882.16
771.335	959.99
771.518	933.36
771.7	951.79
771.883	781.81
772.066	929.27
772.248	873.97
772.431	888.31
772.613	761.33
772.796	781.81
772.978	898.55
773.161	900.59
773.343	747
773.526	849.4
773.708	787.96
773.891	718.33
774.073	863.73
774.256	738.8
774.438	835.06
774.621	663.03
774.803	703.99
774.985	714.23
775.168	779.76
775.35	806.39
775.532	755.19
775.715	714.23
775.897	767.48
776.079	796.15
776.261	890.35
776.444	740.85
776.626	665.08
776.808	714.23
776.99	693.75
777.173	708.09
777.355	726.52
777.537	667.13
777.719	744.95
777.901	734.71
778.083	722.42
778.265	798.2
778.447	613.88
778.629	669.17
778.811	640.5
778.993	675.32
779.175	718.33
779.357	640.5
779.539	697.85
779.721	679.41
779.903	658.93
780.085	699.89
780.267	636.41
780.449	534.01
780.631	609.78
780.812	581.11
780.994	605.69
781.176	597.49
781.358	650.74
781.54	566.78
781.721	507.38
781.903	650.74
782.085	513.53
782.267	499.19
782.448	527.86
782.63	589.3
782.812	595.45
782.993	495.1
783.175	542.2
783.357	536.06
783.538	536.06
783.72	509.43
783.901	540.15
784.083	577.02
784.264	480.76
784.446	503.29
784.627	474.62
784.809	493.05
784.99	534.01
785.172	527.86
785.353	505.34
785.535	540.15
785.716	450.04
785.897	534.01
786.079	443.9
786.26	454.14
786.441	495.1
786.623	404.99
786.804	497.14
786.985	394.75
787.167	531.96
787.348	409.08
787.529	394.75
787.71	486.9
787.891	404.99
788.073	378.36
788.254	394.75
788.435	474.62
788.616	441.85
788.797	384.51
788.978	398.84
789.159	357.88
789.34	441.85
789.522	419.32
789.703	349.69
789.884	425.47
790.065	292.35
790.246	404.99
790.427	392.7
790.607	345.59
790.788	437.75
790.969	357.88
791.15	353.79
791.331	415.23
791.512	404.99
791.693	378.36
791.874	355.83
792.054	361.98
792.235	382.46
792.416	411.13
792.597	329.21
792.778	384.51
792.958	400.89
793.139	288.25
793.32	345.59
793.5	345.59
793.681	376.31
793.862	384.51
794.042	366.07
794.223	357.88
794.404	329.21
794.584	220.67
794.765	304.64
794.945	310.78
795.126	257.53
795.306	351.74
795.487	304.64
795.667	361.98
795.848	296.44
796.028	304.64
796.209	288.25
796.389	275.96
796.57	290.3
796.75	241.15
796.93	331.26
797.111	351.74
797.291	286.2
797.471	349.69
797.652	202.24
797.832	314.88
798.012	294.4
798.192	294.4
798.373	300.54
798.553	255.48
798.733	339.45
798.913	226.81
799.093	267.77
799.274	327.16
799.454	239.1
799.634	271.87
799.814	300.54
799.994	288.25
800.174	284.16
800.354	366.07
800.534	292.35
800.714	202.24
800.894	261.63
801.074	284.16
801.254	210.43
801.434	220.67
801.614	308.73
801.794	222.72
801.974	630.26
802.154	263.68
802.334	232.96
802.514	261.63
802.693	218.62
802.873	255.48
803.053	228.86
803.233	144.89
803.413	232.96
803.592	271.87
803.772	208.38
803.952	177.66
804.131	161.28
804.311	245.24
804.491	224.76
804.67	253.44
804.85	218.62
805.03	230.91
805.209	296.44
805.389	173.57
805.568	175.61
805.748	259.58
805.928	206.33
806.107	165.37
806.287	222.72
806.466	151.04
806.646	181.76
806.825	206.33
807.004	247.29
807.184	216.57
807.363	202.24
807.543	249.34
807.722	226.81
807.901	220.67
808.081	249.34
808.26	183.81
808.439	241.15
808.619	200.19
808.798	253.44
808.977	169.47
809.156	200.19
809.336	189.95
809.515	157.18
809.694	144.89
809.873	155.13
810.052	136.7
810.231	128.51
810.411	167.42
810.59	198.14
810.769	224.76
810.948	212.48
811.127	110.08
811.306	194.05
811.485	202.24
811.664	200.19
811.843	138.75
812.022	200.19
812.201	230.91
812.38	206.33
812.559	140.8
812.737	247.29
812.916	196.09
813.095	185.85
813.274	196.09
813.453	241.15
813.632	175.61
813.811	216.57
813.989	144.89
814.168	181.76
814.347	132.61
814.526	144.89
814.704	251.39
814.883	228.86
815.062	138.75
815.24	165.37
815.419	140.8
815.598	138.75
815.776	183.81
815.955	167.42
816.133	179.71
816.312	192
816.49	110.08
816.669	153.09
816.847	134.65
817.026	103.93
817.204	48.64
817.383	148.99
817.561	128.51
817.74	148.99
817.918	112.13
818.097	169.47
818.275	161.28
818.453	73.21
818.632	146.94
818.81	163.33
818.988	103.93
819.167	48.64
819.345	134.65
819.523	134.65
819.701	118.27
819.879	192
820.058	101.89
820.236	120.32
820.414	151.04
820.592	118.27
820.77	93.69
820.948	101.89
821.127	38.4
821.305	142.85
821.483	85.5
821.661	169.47
821.839	112.13
822.017	171.52
822.195	185.85
822.373	105.98
822.551	161.28
822.729	136.7
822.907	124.41
823.085	97.79
823.262	173.57
823.44	112.13
823.618	42.5
823.796	204.28
823.974	112.13
824.152	87.55
824.329	81.41
824.507	114.17
824.685	75.26
824.863	142.85
825.04	69.12
825.218	142.85
825.396	148.99
825.574	157.18
825.751	87.55
825.929	167.42
826.107	99.84
826.284	112.13
826.462	159.23
826.639	17.92
826.817	19.97
826.994	187.9
827.172	142.85
827.349	130.56
827.527	69.12
827.704	118.27
827.882	60.93
828.059	48.64
828.237	122.37
828.414	103.93
828.591	79.36
828.769	124.41
828.946	85.5
829.124	40.45
829.301	189.95
829.478	83.45
829.655	65.02
829.833	91.65
830.01	73.21
830.187	42.5
830.364	155.13
830.542	142.85
830.719	112.13
830.896	167.42
831.073	44.54
831.25	65.02
831.427	93.69
831.604	89.6
831.782	56.83
831.959	77.31
832.136	108.03
832.313	52.74
832.49	67.07
832.667	38.4
832.844	91.65
833.021	13.82
833.198	87.55
833.374	-8.7
833.551	122.37
833.728	159.23
833.905	105.98
834.082	81.41
834.259	62.98
834.436	85.5
834.612	44.54
834.789	36.35
834.966	118.27
835.143	13.82
835.319	30.21
835.496	99.84
835.673	75.26
835.85	99.84
836.026	44.54
836.203	73.21
836.38	67.07
836.556	99.84
836.733	71.17
836.909	99.84
837.086	144.89
837.262	22.02
837.439	52.74
837.616	69.12
837.792	24.06
837.968	60.93
838.145	120.32
838.321	75.26
838.498	118.27
838.674	69.12
838.851	105.98
839.027	77.31
839.203	134.65
839.38	-4.61
839.556	44.54
839.732	50.69
839.909	163.33
840.085	105.98
840.261	62.98
840.437	50.69
840.614	73.21
840.79	116.22
840.966	22.02
841.142	89.6
841.318	-20.99
841.494	79.36
841.671	95.74
841.847	24.06
842.023	67.07
842.199	24.06
842.375	91.65
842.551	3.58
842.727	28.16
842.903	38.4
843.079	67.07
843.255	-2.56
843.431	116.22
843.607	54.78
843.783	-72.19
843.959	87.55
844.134	24.06
844.31	56.83
844.486	81.41
844.662	118.27
844.838	58.88
845.013	-2.56
845.189	32.26
845.365	112.13
845.541	28.16
845.716	26.11
845.892	110.08
846.068	73.21
846.244	32.26
846.419	17.92
846.595	65.02
846.77	52.74
846.946	56.83
847.122	48.64
847.297	-16.9
847.473	110.08
847.648	1.54
847.824	52.74
847.999	48.64
848.175	73.21
848.35	9.73
848.526	67.07
848.701	134.65
848.876	32.26
849.052	114.17
849.227	7.68
849.403	11.78
849.578	120.32
849.753	-16.9
849.929	73.21
850.104	30.21
850.279	132.61
850.454	-8.7
850.63	99.84
850.805	71.17
850.98	77.31
851.155	22.02
851.33	87.55
851.505	-51.71
851.681	62.98
851.856	52.74
852.031	-0.51
852.206	46.59
852.381	83.45
852.556	-14.85
852.731	54.78
852.906	19.97
853.081	48.64
853.256	17.92
853.431	54.78
853.606	60.93
853.781	56.83
853.956	52.74
854.131	52.74
854.305	46.59
854.48	48.64
854.655	28.16
854.83	50.69
855.005	46.59
855.18	75.26
855.354	19.97
855.529	-0.51
855.704	50.69
855.879	71.17
856.053	-41.47
856.228	62.98
856.403	-0.51
856.577	38.4
856.752	9.73
856.926	-33.28
857.101	32.26
857.276	-41.47
857.45	19.97
857.625	77.31
857.799	32.26
857.974	5.63
858.148	-41.47
858.323	56.83
858.497	-10.75
858.672	24.06
858.846	42.5
859.02	122.37
859.195	69.12
859.369	48.64
859.543	-8.7
859.718	36.35
859.892	36.35
860.066	40.45
860.241	60.93
860.415	1.54
860.589	114.17
860.763	7.68
860.938	13.82
861.112	-0.51
861.286	46.59
861.46	-4.61
861.634	5.63
861.808	17.92
861.982	28.16
862.157	30.21
862.331	-37.38
862.505	52.74
862.679	19.97
862.853	36.35
863.027	13.82
863.201	38.4
863.375	-16.9
863.549	-14.85
863.722	22.02
863.896	56.83
864.07	73.21
864.244	32.26
864.418	13.82
864.592	26.11
864.766	-12.8
864.939	-0.51
865.113	15.87
865.287	60.93
865.461	-25.09
865.634	50.69
865.808	-29.18
865.982	13.82
866.156	5.63
866.329	-51.71
866.503	24.06
866.676	-27.14
866.85	62.98
867.024	-29.18
867.197	142.85
867.371	58.88
867.544	81.41
867.718	-4.61
867.891	60.93
868.065	17.92
868.238	50.69
868.412	32.26
868.585	34.3
868.759	19.97
868.932	-20.99
869.105	-84.48
869.279	50.69
869.452	19.97
869.625	24.06
869.799	-0.51
869.972	-4.61
870.145	-23.04
870.319	-37.38
870.492	-0.51
870.665	5.63
870.838	-31.23
871.011	9.73
871.185	38.4
871.358	17.92
871.531	3.58
871.704	-4.61
871.877	83.45
872.05	11.78
872.223	13.82
872.396	58.88
872.569	38.4
872.742	-25.09
872.915	36.35
873.088	3.58
873.261	9.73
873.434	15.87
873.607	1.54
873.78	19.97
873.953	-53.76
874.126	65.02
874.299	56.83
874.471	11.78
874.644	-35.33
874.817	13.82
874.99	73.21
875.163	56.83
875.335	-10.75
875.508	93.69
875.681	77.31
875.853	-53.76
876.026	-49.66
876.199	85.5
876.371	-2.56
876.544	-27.14
876.717	36.35
876.889	38.4
877.062	58.88
877.234	-10.75
877.407	-6.66
877.579	65.02
877.752	46.59
877.924	5.63
878.097	73.21
878.269	48.64
878.442	-45.57
878.614	36.35
878.786	19.97
878.959	-31.23
879.131	65.02
879.303	81.41
879.476	69.12
879.648	46.59
879.82	5.63
879.993	30.21
880.165	71.17
880.337	48.64
880.509	46.59
880.681	44.54
880.854	-4.61
881.026	9.73
881.198	95.74
881.37	19.97
881.542	81.41
881.714	-29.18
881.886	28.16
882.058	36.35
882.23	26.11
882.402	52.74
882.574	71.17
882.746	9.73
882.918	17.92
883.09	-27.14
883.262	32.26
883.434	60.93
883.606	7.68
883.778	13.82
883.95	11.78
884.122	11.78
884.293	65.02
884.465	7.68
884.637	-8.7
884.809	9.73
884.98	48.64
885.152	13.82
885.324	44.54
885.496	-8.7
885.667	46.59
885.839	3.58
886.011	7.68
886.182	60.93
886.354	15.87
886.525	-6.66
886.697	24.06
886.869	22.02
887.04	1.54
887.212	54.78
887.383	62.98
887.555	19.97
887.726	-0.51
887.897	22.02
888.069	13.82
888.24	17.92
888.412	-16.9
888.583	60.93
888.754	32.26
888.926	-16.9
889.097	30.21
889.268	-4.61
889.44	-35.33
889.611	-14.85
889.782	-6.66
889.953	-47.62
890.125	24.06
890.296	30.21
890.467	28.16
890.638	-33.28
890.809	44.54
890.98	50.69
891.151	13.82
891.323	1.54
891.494	24.06
891.665	-27.14
891.836	17.92
892.007	69.12
892.178	-18.94
892.349	9.73
892.52	-16.9
892.691	-49.66
892.862	1.54
893.032	-70.14
893.203	28.16
893.374	52.74
893.545	-59.9
893.716	3.58
893.887	69.12
894.057	-10.75
894.228	71.17
894.399	-20.99
894.57	40.45
894.74	-27.14
894.911	-37.38
895.082	40.45
895.253	28.16
895.423	-53.76
895.594	108.03
895.764	32.26
895.935	-0.51
896.106	9.73
896.276	-8.7
896.447	-20.99
896.617	-6.66
896.788	-49.66
896.958	24.06
897.129	19.97
897.299	60.93
897.47	-0.51
897.64	36.35
897.81	3.58
897.981	44.54
898.151	15.87
898.322	110.08
898.492	7.68
898.662	5.63
898.832	22.02
899.003	22.02
899.173	42.5
899.343	34.3
899.513	69.12
