Data from USB4F104151__99__11-53-02-886.txt Node

Date: Fri Mar 14 11:53:02 EDT 2025
User: louis
Spectrometer: USB4F10415
Trigger mode: 4
Integration Time (sec): 2.000000E-2
Scans to average: 1
Electric dark correction enabled: true
Nonlinearity correction enabled: false
Boxcar width: 0
XAxis mode: Wavelengths
Number of Pixels in Spectrum: 3648
>>>>>Begin Spectral Data<<<<<
178.204	-101.37
178.424	-101.37
178.644	-101.37
178.864	-136.19
179.084	-5.12
179.304	-7.17
179.524	-19.46
179.744	-13.31
179.964	41.98
180.184	19.46
180.404	-11.26
180.624	39.94
180.844	-1.02
181.064	-5.12
181.283	-5.12
181.503	-48.13
181.723	9.22
181.943	17.41
182.163	-7.17
182.383	54.27
182.602	72.7
182.822	21.5
183.042	13.31
183.262	31.74
183.482	31.74
183.701	-17.41
183.921	-7.17
184.141	17.41
184.361	52.22
184.58	19.46
184.8	37.89
185.02	-5.12
185.239	82.94
185.459	13.31
185.679	25.6
185.898	-15.36
186.118	23.55
186.338	62.46
186.557	39.94
186.777	-5.12
186.997	-3.07
187.216	66.56
187.436	78.85
187.655	37.89
187.875	64.51
188.095	-1.02
188.314	48.13
188.534	41.98
188.753	5.12
188.973	25.6
189.192	9.22
189.412	37.89
189.631	-5.12
189.851	82.94
190.07	60.42
190.29	-52.22
190.509	7.17
190.729	-13.31
190.948	-15.36
191.168	93.18
191.387	48.13
191.607	1.02
191.826	19.46
192.045	-9.22
192.265	35.84
192.484	41.98
192.704	41.98
192.923	-13.31
193.142	115.71
193.362	23.55
193.581	1.02
193.8	72.7
194.02	19.46
194.239	99.33
194.458	62.46
194.678	35.84
194.897	52.22
195.116	7.17
195.335	41.98
195.555	27.65
195.774	-17.41
195.993	37.89
196.212	-27.65
196.432	50.18
196.651	44.03
196.87	-13.31
197.089	136.19
197.308	-15.36
197.528	29.7
197.747	-35.84
197.966	-46.08
198.185	56.32
198.404	37.89
198.623	-13.31
198.842	58.37
199.062	76.8
199.281	66.56
199.5	48.13
199.719	44.03
199.938	37.89
200.157	84.99
200.376	33.79
200.595	35.84
200.814	-39.94
201.033	-44.03
201.252	23.55
201.471	82.94
201.69	66.56
201.909	107.52
202.128	33.79
202.347	52.22
202.566	35.84
202.785	41.98
203.004	56.32
203.223	74.75
203.442	31.74
203.661	29.7
203.879	50.18
204.098	27.65
204.317	31.74
204.536	56.32
204.755	117.76
204.974	15.36
205.193	3.07
205.411	91.13
205.63	-5.12
205.849	39.94
206.068	19.46
206.287	-7.17
206.505	105.47
206.724	50.18
206.943	29.7
207.162	58.37
207.381	-5.12
207.599	13.31
207.818	60.42
208.037	64.51
208.255	70.65
208.474	44.03
208.693	103.42
208.911	-3.07
209.13	74.75
209.349	82.94
209.567	107.52
209.786	140.29
210.005	21.5
210.223	37.89
210.442	3.07
210.661	66.56
210.879	21.5
211.098	-23.55
211.316	-44.03
211.535	19.46
211.753	7.17
211.972	84.99
212.191	-37.89
212.409	39.94
212.628	33.79
212.846	130.05
213.065	35.84
213.283	9.22
213.502	-29.7
213.72	54.27
213.938	35.84
214.157	31.74
214.375	1.02
214.594	17.41
214.812	44.03
215.031	-9.22
215.249	23.55
215.467	41.98
215.686	31.74
215.904	56.32
216.122	9.22
216.341	25.6
216.559	-29.7
216.778	68.61
216.996	87.04
217.214	39.94
217.432	82.94
217.651	1.02
217.869	21.5
218.087	41.98
218.306	13.31
218.524	-3.07
218.742	68.61
218.96	-9.22
219.179	29.7
219.397	52.22
219.615	66.56
219.833	60.42
220.051	13.31
220.27	99.33
220.488	35.84
220.706	95.23
220.924	25.6
221.142	27.65
221.36	58.37
221.578	5.12
221.796	-33.79
222.015	-21.5
222.233	17.41
222.451	82.94
222.669	3.07
222.887	17.41
223.105	-44.03
223.323	13.31
223.541	-68.61
223.759	78.85
223.977	52.22
224.195	78.85
224.413	9.22
224.631	15.36
224.849	-70.65
225.067	54.27
225.285	-46.08
225.503	39.94
225.721	50.18
225.939	29.7
226.157	39.94
226.375	82.94
226.592	-19.46
226.81	72.7
227.028	35.84
227.246	58.37
227.464	44.03
227.682	-7.17
227.9	58.37
228.117	-15.36
228.335	23.55
228.553	-54.27
228.771	35.84
228.989	19.46
229.206	17.41
229.424	-15.36
229.642	-31.74
229.86	39.94
230.077	35.84
230.295	33.79
230.513	39.94
230.731	29.7
230.948	35.84
231.166	7.17
231.384	33.79
231.601	23.55
231.819	31.74
232.037	93.18
232.254	-13.31
232.472	60.42
232.689	17.41
232.907	-3.07
233.125	66.56
233.342	-41.98
233.56	-1.02
233.777	58.37
233.995	35.84
234.213	156.67
234.43	50.18
234.648	62.46
234.865	-23.55
235.083	-19.46
235.3	-21.5
235.518	-7.17
235.735	19.46
235.953	39.94
236.17	5.12
236.388	68.61
236.605	25.6
236.822	60.42
237.04	25.6
237.257	-17.41
237.475	46.08
237.692	41.98
237.909	62.46
238.127	48.13
238.344	52.22
238.562	-11.26
238.779	-9.22
238.996	-27.65
239.214	58.37
239.431	87.04
239.648	15.36
239.865	76.8
240.083	46.08
240.3	7.17
240.517	37.89
240.735	56.32
240.952	62.46
241.169	60.42
241.386	23.55
241.603	48.13
241.821	58.37
242.038	115.71
242.255	29.7
242.472	15.36
242.689	-19.46
242.907	35.84
243.124	39.94
243.341	-29.7
243.558	62.46
243.775	33.79
243.992	-17.41
244.209	58.37
244.426	11.26
244.643	31.74
244.86	-27.65
245.078	105.47
245.295	23.55
245.512	17.41
245.729	-9.22
245.946	54.27
246.163	72.7
246.38	60.42
246.597	-35.84
246.814	119.81
247.031	50.18
247.248	105.47
247.464	80.89
247.681	3.07
247.898	23.55
248.115	35.84
248.332	37.89
248.549	48.13
248.766	105.47
248.983	13.31
249.2	70.65
249.417	62.46
249.633	-27.65
249.85	13.31
250.067	13.31
250.284	41.98
250.501	19.46
250.717	31.74
250.934	1.02
251.151	-68.61
251.368	21.5
251.585	48.13
251.801	9.22
252.018	11.26
252.235	-13.31
252.451	-29.7
252.668	70.65
252.885	93.18
253.102	60.42
253.318	109.57
253.535	46.08
253.752	41.98
253.968	80.89
254.185	25.6
254.401	-62.46
254.618	9.22
254.835	13.31
255.051	107.52
255.268	39.94
255.484	25.6
255.701	138.24
255.917	128
256.134	-50.18
256.351	25.6
256.567	15.36
256.784	41.98
257	3.07
257.217	33.79
257.433	21.5
257.65	91.13
257.866	-46.08
258.082	15.36
258.299	41.98
258.515	82.94
258.732	15.36
258.948	-7.17
259.165	91.13
259.381	35.84
259.597	52.22
259.814	41.98
260.03	70.65
260.246	78.85
260.463	54.27
260.679	80.89
260.895	13.31
261.112	-23.55
261.328	70.65
261.544	-11.26
261.761	113.66
261.977	72.7
262.193	-21.5
262.409	64.51
262.626	9.22
262.842	-66.56
263.058	41.98
263.274	72.7
263.49	-33.79
263.707	15.36
263.923	82.94
264.139	54.27
264.355	13.31
264.571	33.79
264.787	17.41
265.004	9.22
265.22	17.41
265.436	27.65
265.652	-9.22
265.868	76.8
266.084	17.41
266.3	64.51
266.516	-5.12
266.732	48.13
266.948	35.84
267.164	1.02
267.38	60.42
267.596	62.46
267.812	66.56
268.028	68.61
268.244	15.36
268.46	23.55
268.676	15.36
268.892	1.02
269.108	44.03
269.324	39.94
269.54	-91.13
269.756	1.02
269.972	-25.6
270.188	5.12
270.403	-62.46
270.619	-21.5
270.835	13.31
271.051	9.22
271.267	-44.03
271.483	5.12
271.698	35.84
271.914	58.37
272.13	3.07
272.346	33.79
272.562	19.46
272.777	62.46
272.993	5.12
273.209	-46.08
273.425	78.85
273.64	15.36
273.856	25.6
274.072	41.98
274.287	-56.32
274.503	41.98
274.719	54.27
274.934	25.6
275.15	-48.13
275.366	54.27
275.581	15.36
275.797	-19.46
276.012	5.12
276.228	21.5
276.444	62.46
276.659	-23.55
276.875	-9.22
277.09	97.28
277.306	46.08
277.521	7.17
277.737	15.36
277.952	-29.7
278.168	48.13
278.383	76.8
278.599	58.37
278.814	72.7
279.03	50.18
279.245	-7.17
279.461	33.79
279.676	11.26
279.892	-5.12
280.107	13.31
280.322	29.7
280.538	23.55
280.753	13.31
280.969	91.13
281.184	17.41
281.399	91.13
281.615	37.89
281.83	29.7
282.045	-27.65
282.26	44.03
282.476	23.55
282.691	-13.31
282.906	23.55
283.122	-9.22
283.337	-46.08
283.552	17.41
283.767	3.07
283.983	72.7
284.198	39.94
284.413	17.41
284.628	3.07
284.843	66.56
285.058	-37.89
285.274	76.8
285.489	1.02
285.704	48.13
285.919	-27.65
286.134	25.6
286.349	54.27
286.564	23.55
286.779	54.27
286.995	15.36
287.21	9.22
287.425	50.18
287.64	35.84
287.855	23.55
288.07	-19.46
288.285	70.65
288.5	115.71
288.715	23.55
288.93	87.04
289.145	25.6
289.36	1.02
289.575	-9.22
289.79	19.46
290.004	-13.31
290.219	39.94
290.434	-1.02
290.649	50.18
290.864	-23.55
291.079	93.18
291.294	89.09
291.509	-46.08
291.724	48.13
291.938	60.42
292.153	84.99
292.368	11.26
292.583	17.41
292.798	48.13
293.012	11.26
293.227	-11.26
293.442	44.03
293.657	13.31
293.871	72.7
294.086	44.03
294.301	74.75
294.516	48.13
294.73	52.22
294.945	33.79
295.16	5.12
295.374	35.84
295.589	9.22
295.804	31.74
296.018	66.56
296.233	78.85
296.447	58.37
296.662	33.79
296.877	37.89
297.091	-7.17
297.306	-13.31
297.52	39.94
297.735	101.37
297.949	78.85
298.164	29.7
298.378	-11.26
298.593	33.79
298.807	-5.12
299.022	39.94
299.236	-11.26
299.451	56.32
299.665	-3.07
299.88	35.84
300.094	-7.17
300.309	58.37
300.523	17.41
300.737	48.13
300.952	5.12
301.166	103.42
301.381	-7.17
301.595	39.94
301.809	3.07
302.024	41.98
302.238	39.94
302.452	-33.79
302.667	-44.03
302.881	56.32
303.095	-3.07
303.309	66.56
303.524	9.22
303.738	89.09
303.952	105.47
304.166	-25.6
304.381	-72.7
304.595	68.61
304.809	-60.42
305.023	41.98
305.237	-27.65
305.452	-7.17
305.666	25.6
305.88	31.74
306.094	46.08
306.308	62.46
306.522	52.22
306.736	95.23
306.95	84.99
307.164	3.07
307.379	33.79
307.593	41.98
307.807	37.89
308.021	-7.17
308.235	-17.41
308.449	-3.07
308.663	-23.55
308.877	111.61
309.091	9.22
309.305	62.46
309.519	5.12
309.733	15.36
309.947	13.31
310.161	17.41
310.374	-5.12
310.588	44.03
310.802	56.32
311.016	13.31
311.23	44.03
311.444	9.22
311.658	44.03
311.872	41.98
312.085	58.37
312.299	27.65
312.513	52.22
312.727	60.42
312.941	39.94
313.154	87.04
313.368	-17.41
313.582	17.41
313.796	50.18
314.009	68.61
314.223	1.02
314.437	93.18
314.651	84.99
314.864	58.37
315.078	66.56
315.292	37.89
315.505	7.17
315.719	9.22
315.933	-3.07
316.146	35.84
316.36	68.61
316.573	103.42
316.787	19.46
317.001	13.31
317.214	-25.6
317.428	91.13
317.641	-50.18
317.855	35.84
318.068	41.98
318.282	58.37
318.495	54.27
318.709	-39.94
318.922	21.5
319.136	15.36
319.349	31.74
319.563	-9.22
319.776	9.22
319.99	1.02
320.203	-1.02
320.417	54.27
320.63	39.94
320.843	17.41
321.057	72.7
321.27	3.07
321.483	41.98
321.697	50.18
321.91	1.02
322.124	64.51
322.337	50.18
322.55	64.51
322.763	74.75
322.977	-19.46
323.19	3.07
323.403	1.02
323.617	19.46
323.83	44.03
324.043	3.07
324.256	31.74
324.469	-5.12
324.683	72.7
324.896	19.46
325.109	58.37
325.322	-46.08
325.535	17.41
325.748	5.12
325.962	17.41
326.175	35.84
326.388	68.61
326.601	74.75
326.814	37.89
327.027	35.84
327.24	119.81
327.453	93.18
327.666	-1.02
327.879	52.22
328.092	-1.02
328.305	48.13
328.518	13.31
328.731	9.22
328.944	17.41
329.157	-7.17
329.37	78.85
329.583	46.08
329.796	37.89
330.009	-44.03
330.222	1.02
330.435	-39.94
330.648	89.09
330.861	58.37
331.073	58.37
331.286	9.22
331.499	37.89
331.712	91.13
331.925	-37.89
332.138	-7.17
332.35	5.12
332.563	-3.07
332.776	27.65
332.989	29.7
333.202	68.61
333.414	-1.02
333.627	48.13
333.84	66.56
334.053	37.89
334.265	95.23
334.478	23.55
334.691	-3.07
334.903	66.56
335.116	54.27
335.329	41.98
335.541	33.79
335.754	93.18
335.966	-5.12
336.179	203.77
336.392	-46.08
336.604	37.89
336.817	70.65
337.029	72.7
337.242	21.5
337.454	19.46
337.667	-3.07
337.88	50.18
338.092	97.28
338.305	-19.46
338.517	35.84
338.729	46.08
338.942	74.75
339.154	27.65
339.367	27.65
339.579	80.89
339.792	9.22
340.004	91.13
340.217	60.42
340.429	78.85
340.641	35.84
340.854	17.41
341.066	21.5
341.278	58.37
341.491	64.51
341.703	97.28
341.915	11.26
342.128	50.18
342.34	74.75
342.552	33.79
342.764	-7.17
342.977	74.75
343.189	56.32
343.401	97.28
343.613	-3.07
343.826	107.52
344.038	19.46
344.25	19.46
344.462	25.6
344.674	76.8
344.886	64.51
345.099	48.13
345.311	52.22
345.523	-27.65
345.735	-56.32
345.947	54.27
346.159	60.42
346.371	25.6
346.583	35.84
346.795	144.38
347.007	39.94
347.219	95.23
347.431	54.27
347.643	68.61
347.855	27.65
348.067	91.13
348.279	-9.22
348.491	-25.6
348.703	91.13
348.915	64.51
349.127	7.17
349.339	56.32
349.551	52.22
349.763	5.12
349.975	33.79
350.187	68.61
350.399	25.6
350.61	52.22
350.822	37.89
351.034	99.33
351.246	68.61
351.458	-15.36
351.669	82.94
351.881	44.03
352.093	41.98
352.305	70.65
352.517	17.41
352.728	74.75
352.94	58.37
353.152	23.55
353.363	37.89
353.575	1.02
353.787	80.89
353.999	1.02
354.21	109.57
354.422	140.29
354.633	76.8
354.845	46.08
355.057	82.94
355.268	50.18
355.48	19.46
355.692	23.55
355.903	68.61
356.115	44.03
356.326	9.22
356.538	82.94
356.749	44.03
356.961	119.81
357.172	39.94
357.384	37.89
357.595	48.13
357.807	3.07
358.018	70.65
358.23	58.37
358.441	46.08
358.653	68.61
358.864	39.94
359.075	46.08
359.287	33.79
359.498	27.65
359.709	144.38
359.921	25.6
360.132	-11.26
360.344	33.79
360.555	72.7
360.766	-11.26
360.977	33.79
361.189	-3.07
361.4	58.37
361.611	68.61
361.823	41.98
362.034	76.8
362.245	39.94
362.456	35.84
362.667	78.85
362.879	68.61
363.09	31.74
363.301	23.55
363.512	25.6
363.723	91.13
363.935	17.41
364.146	25.6
364.357	97.28
364.568	-11.26
364.779	-39.94
364.99	74.75
365.201	-11.26
365.412	117.76
365.623	33.79
365.834	76.8
366.045	72.7
366.256	97.28
366.467	50.18
366.678	9.22
366.889	111.61
367.1	-35.84
367.311	46.08
367.522	52.22
367.733	146.43
367.944	87.04
368.155	29.7
368.366	66.56
368.577	46.08
368.788	19.46
368.999	97.28
369.209	62.46
369.42	78.85
369.631	105.47
369.842	5.12
370.053	58.37
370.264	31.74
370.474	-50.18
370.685	25.6
370.896	3.07
371.107	70.65
371.317	5.12
371.528	1.02
371.739	1.02
371.95	60.42
372.16	50.18
372.371	-1.02
372.582	31.74
372.792	74.75
373.003	76.8
373.214	41.98
373.424	25.6
373.635	44.03
373.846	105.47
374.056	-25.6
374.267	21.5
374.477	91.13
374.688	5.12
374.898	84.99
375.109	25.6
375.319	46.08
375.53	29.7
375.74	60.42
375.951	109.57
376.161	19.46
376.372	46.08
376.582	-50.18
376.793	5.12
377.003	17.41
377.214	60.42
377.424	62.46
377.635	27.65
377.845	27.65
378.055	52.22
378.266	29.7
378.476	-11.26
378.686	37.89
378.897	72.7
379.107	31.74
379.317	46.08
379.528	62.46
379.738	13.31
379.948	91.13
380.158	82.94
380.369	35.84
380.579	87.04
380.789	41.98
380.999	33.79
381.21	70.65
381.42	87.04
381.63	-37.89
381.84	80.89
382.05	19.46
382.261	54.27
382.471	93.18
382.681	48.13
382.891	119.81
383.101	-21.5
383.311	89.09
383.521	25.6
383.731	50.18
383.941	37.89
384.151	99.33
384.361	80.89
384.571	54.27
384.781	64.51
384.991	99.33
385.201	82.94
385.411	68.61
385.621	54.27
385.831	17.41
386.041	15.36
386.251	132.09
386.461	56.32
386.671	117.76
386.881	-9.22
387.091	23.55
387.301	62.46
387.511	-11.26
387.72	58.37
387.93	93.18
388.14	23.55
388.35	50.18
388.56	125.95
388.769	107.52
388.979	54.27
389.189	101.37
389.399	87.04
389.609	54.27
389.818	31.74
390.028	78.85
390.238	78.85
390.447	60.42
390.657	62.46
390.867	56.32
391.076	-11.26
391.286	58.37
391.496	119.81
391.705	15.36
391.915	91.13
392.125	125.95
392.334	35.84
392.544	19.46
392.753	19.46
392.963	68.61
393.172	29.7
393.382	66.56
393.591	-7.17
393.801	-5.12
394.01	50.18
394.22	46.08
394.429	70.65
394.639	48.13
394.848	80.89
395.058	80.89
395.267	101.37
395.477	132.09
395.686	87.04
395.895	84.99
396.105	52.22
396.314	113.66
396.524	44.03
396.733	89.09
396.942	140.29
397.152	87.04
397.361	74.75
397.57	66.56
397.78	1.02
397.989	82.94
398.198	72.7
398.407	54.27
398.617	99.33
398.826	19.46
399.035	68.61
399.244	84.99
399.453	21.5
399.663	97.28
399.872	156.67
400.081	37.89
400.29	111.61
400.499	107.52
400.708	46.08
400.917	97.28
401.127	54.27
401.336	27.65
401.545	228.35
401.754	68.61
401.963	52.22
402.172	142.33
402.381	95.23
402.59	152.57
402.799	113.66
403.008	78.85
403.217	150.53
403.426	138.24
403.635	136.19
403.844	119.81
404.053	64.51
404.262	95.23
404.471	130.05
404.68	171.01
404.888	105.47
405.097	109.57
405.306	119.81
405.515	177.15
405.724	154.62
405.933	132.09
406.142	140.29
406.35	119.81
406.559	123.9
406.768	128
406.977	142.33
407.185	181.25
407.394	109.57
407.603	166.91
407.812	138.24
408.02	175.1
408.229	121.85
408.438	136.19
408.646	105.47
408.855	154.62
409.064	224.25
409.272	183.29
409.481	234.49
409.69	168.96
409.898	195.58
410.107	269.31
410.315	214.01
410.524	261.12
410.733	214.01
410.941	209.92
411.15	336.89
411.358	209.92
411.567	328.7
411.775	242.68
411.984	363.51
412.192	308.22
412.401	357.37
412.609	386.04
412.818	291.84
413.026	377.85
413.234	388.09
413.443	394.23
413.651	379.9
413.86	431.1
414.068	539.64
414.276	435.19
414.485	447.48
414.693	476.15
414.901	445.43
415.11	549.88
415.318	402.43
415.526	517.11
415.734	568.31
415.943	629.75
416.151	660.47
416.359	531.45
416.567	623.61
416.776	615.41
416.984	664.57
417.192	723.96
417.4	758.77
417.608	705.53
417.817	678.9
418.025	683
418.233	898.03
418.441	812.02
418.649	844.79
418.857	930.8
419.065	926.71
419.273	938.99
419.481	928.75
419.689	1010.67
419.897	1033.2
420.105	1121.26
420.313	1070.06
420.521	1231.85
420.729	1207.28
420.937	1231.85
421.145	1186.8
421.353	1242.09
421.561	1350.64
421.769	1377.26
421.977	1467.37
422.185	1428.46
422.393	1555.43
422.601	1586.15
422.809	1602.54
423.017	1573.86
423.224	1590.25
423.432	1754.09
423.64	1745.89
423.848	1965.03
424.056	1887.2
424.263	1960.93
424.471	2020.32
424.679	2067.42
424.887	2094.05
425.094	2188.25
425.302	2149.34
425.51	2249.69
425.718	2317.28
425.925	2319.32
426.133	2481.11
426.341	2554.84
426.548	2767.83
426.756	2630.62
426.964	2831.32
427.171	2814.93
427.379	2948.05
427.586	3013.59
427.794	3044.31
428.001	3281.87
428.209	3298.25
428.417	3292.11
428.624	3470.28
428.832	3578.83
429.039	3595.21
429.247	3613.64
429.454	3916.74
429.662	4105.15
429.869	3945.41
430.076	4172.74
430.284	4019.14
430.491	4205.5
430.699	4436.92
430.906	4463.55
431.114	4506.56
431.321	4613.05
431.528	4848.57
431.736	5020.6
431.943	5241.78
432.15	5202.86
432.358	5299.12
432.565	5606.31
432.772	5442.48
432.979	5786.54
433.187	5835.69
433.394	5753.77
433.601	6294.43
433.808	6206.37
434.016	6146.98
434.223	6396.83
434.43	6937.49
434.637	6720.41
434.844	7160.72
435.052	7400.34
435.259	7334.8
435.466	7605.13
435.673	7304.08
435.88	7949.19
436.087	8149.89
436.294	8098.69
436.501	7951.24
436.708	8190.85
436.915	8422.27
437.122	8739.71
437.329	8876.92
437.537	8907.64
437.743	9194.36
437.95	9055.09
438.157	9558.89
438.364	9927.53
438.571	9905
438.778	9915.24
438.985	10898.27
439.192	10564.45
439.399	10922.84
439.606	10693.47
439.813	11209.56
440.02	11973.45
440.227	11651.92
440.433	11357.01
440.64	11787.08
440.847	11723.6
441.054	12127.05
441.261	12954.43
441.467	12800.83
441.674	13116.22
441.881	13683.5
442.088	13566.77
442.294	13275.96
442.501	13642.54
442.708	13916.97
442.914	14621.47
443.121	15151.9
443.328	14773.02
443.534	15778.58
443.741	15153.94
443.948	15110.94
444.154	16149.26
444.361	16032.52
444.568	16360.2
444.774	16239.37
444.981	16296.71
445.187	16904.96
445.394	17558.26
445.6	17439.48
445.807	19106.52
446.013	18471.65
446.22	18567.91
446.426	19485.4
446.633	19477.21
446.839	20265.67
447.046	19466.97
447.252	20533.96
447.459	20636.36
447.665	20325.07
447.871	21082.81
448.078	22254.25
448.284	21181.12
448.491	21658.29
448.697	22784.68
448.903	22909.6
449.11	23046.82
449.316	22547.11
449.522	22985.38
449.728	23616.15
449.935	24179.34
450.141	23751.32
450.347	24457.87
450.553	23714.45
450.76	24089.23
450.966	24631.94
451.172	24375.95
451.378	25096.83
451.584	24691.34
451.791	25447.04
451.997	25254.53
452.203	25627.26
452.409	25793.14
452.615	25729.66
452.821	24656.52
453.027	24394.38
453.233	25475.71
453.44	24480.39
453.646	25156.22
453.852	25084.55
454.058	25666.17
454.264	24334.99
454.47	25217.66
454.676	24939.14
454.882	25356.93
455.088	23138.97
455.294	23833.24
455.5	24046.23
455.705	24373.9
455.911	23169.69
456.117	22852.26
456.323	22659.75
456.529	21519.03
456.735	22459.05
456.941	21672.63
457.147	21064.38
457.352	20865.73
457.558	20570.82
457.764	20511.43
457.97	20230.86
458.176	19634.9
458.381	19661.52
458.587	18936.54
458.793	19061.47
458.999	17844.98
459.204	18995.93
459.41	18637.54
459.616	17412.85
459.821	17609.46
460.027	17214.2
460.233	16874.24
460.438	16114.44
460.644	16136.97
460.85	15667.98
461.055	15196.95
461.261	15395.61
461.466	14289.7
461.672	13724.46
461.878	14877.47
462.083	13497.14
462.289	13687.6
462.494	13366.07
462.7	12782.4
462.905	12743.49
463.111	12925.75
463.316	12917.56
463.522	12577.6
463.727	12448.58
463.932	12460.87
464.138	12315.46
464.343	12350.28
464.549	12305.22
464.754	12381
464.959	12471.11
465.165	12266.31
465.37	11678.54
465.575	11416.4
465.781	12086.09
465.986	12010.31
466.191	11705.17
466.397	11557.71
466.602	10849.11
466.807	11150.17
467.012	11340.63
467.218	11123.54
467.423	11152.21
467.628	11129.69
467.833	11543.38
468.038	11066.2
468.244	10785.63
468.449	11076.44
468.654	10881.88
468.859	10875.74
469.064	10832.73
469.269	10210.15
469.474	10421.09
469.679	10668.89
469.885	10158.95
470.09	10509.15
470.295	10339.17
470.5	10142.57
470.705	10285.92
470.91	10058.6
471.115	9859.95
471.32	9937.77
471.525	9898.86
471.73	9757.55
471.935	9597.81
472.139	9372.53
472.344	9425.78
472.549	9534.32
472.754	9374.58
472.959	9114.48
473.164	8860.54
473.369	8887.16
473.574	9184.12
473.778	9106.29
473.983	8991.61
474.188	8844.15
474.393	8524.67
474.598	8571.77
474.802	8399.74
475.007	8342.4
475.212	8383.36
475.417	8199.04
475.621	8131.46
475.826	8186.76
476.031	8127.36
476.235	7736.2
476.44	7961.48
476.645	7850.89
476.849	7760.78
477.054	7594.89
477.259	7617.42
477.463	7805.83
477.668	7353.23
477.872	7406.48
478.077	7420.81
478.282	7029.65
478.486	7130
478.691	7064.47
478.895	6935.45
479.1	6978.45
479.304	7050.13
479.509	6783.9
479.713	7054.23
479.918	6658.97
480.122	6724.51
480.326	6908.82
480.531	6833.05
480.735	6701.98
480.94	6646.68
481.144	6923.16
481.348	6480.8
481.553	6544.28
481.757	6400.93
481.961	6433.69
482.166	6611.87
482.37	6665.11
482.574	6243.23
482.778	6491.04
482.983	6355.87
483.187	6513.56
483.391	6597.53
483.595	6495.13
483.8	6355.87
484.004	6398.88
484.208	6591.39
484.412	6558.62
484.616	6429.6
484.821	6400.93
485.025	6302.62
485.229	6536.09
485.433	6441.89
485.637	6405.02
485.841	6378.4
486.045	6415.26
486.249	6396.83
486.453	6294.43
486.657	6542.24
486.861	6331.3
487.065	6257.57
487.269	6452.13
487.473	6251.42
487.677	6656.92
487.881	6464.41
488.085	6505.37
488.289	6484.89
488.493	6433.69
488.697	6507.42
488.901	6466.46
489.105	6462.37
489.309	6579.1
489.512	6515.61
489.716	6599.58
489.92	6603.68
490.124	6491.04
490.328	6734.75
490.531	6575
490.735	6689.69
490.939	6458.27
491.143	6517.66
491.346	6726.55
491.55	6734.75
491.754	6681.5
491.958	6734.75
492.161	6808.47
492.365	6820.76
492.569	6667.16
492.772	6781.85
492.976	7041.94
493.18	6892.44
493.383	7136.15
493.587	6994.84
493.79	7140.24
493.994	6896.53
494.197	7115.67
494.401	7121.81
494.605	7054.23
494.808	7285.65
495.012	7293.84
495.215	7283.6
495.419	7308.18
495.622	7412.62
495.825	7535.5
496.029	7576.46
496.232	7666.57
496.436	7668.62
496.639	7807.88
496.843	7662.48
497.046	7781.26
497.249	7932.81
497.453	7850.89
497.656	8065.92
497.859	8014.73
498.063	8278.91
498.266	8403.84
498.469	8303.49
498.673	8350.59
498.876	8571.77
499.079	8721.27
499.282	8524.67
499.485	8915.83
499.689	8833.91
499.892	8938.36
500.095	9180.02
500.298	9186.16
500.501	9184.12
500.705	9276.27
500.908	9384.82
501.111	9698.16
501.314	9640.81
501.517	9649
501.72	9673.58
501.923	9698.16
502.126	10283.88
502.329	10027.88
502.532	10208.1
502.735	10302.31
502.938	10552.16
503.141	10486.62
503.344	10734.43
503.547	10664.8
503.75	10840.92
503.953	11049.82
504.156	11238.23
504.359	11074.39
504.562	11299.67
504.765	11670.35
504.968	11508.56
505.17	11885.39
505.373	11621.2
505.576	12155.72
505.779	12440.39
505.982	11936.59
506.185	12454.72
506.387	12593.98
506.59	12626.75
506.793	12712.77
506.996	12837.69
507.198	13275.96
507.401	13065.02
507.604	13241.14
507.807	13505.33
508.009	13701.93
508.212	13527.86
508.415	13925.16
508.617	13935.4
508.82	14154.54
509.022	14084.91
509.225	14471.97
509.428	14545.7
509.63	14785.31
509.833	14932.76
510.035	14861.09
510.238	15094.55
510.44	15328.02
510.643	15235.86
510.845	15467.28
511.048	15250.2
511.25	15672.08
511.453	15659.79
511.655	16331.53
511.858	16061.19
512.06	16313.1
512.262	16370.44
512.465	16565
512.667	16454.4
512.87	16784.13
513.072	16988.92
513.274	17251.06
513.477	17560.31
513.679	17636.08
513.881	17859.31
514.084	17963.76
514.286	17971.95
514.488	18399.98
514.69	18514.66
514.893	18590.44
515.095	18797.28
515.297	18954.97
515.499	18981.6
515.701	19061.47
515.904	19509.97
516.106	19372.76
516.308	19575.51
516.51	19794.64
516.712	19815.12
516.914	20269.77
517.116	20333.26
517.318	20740.8
517.52	20658.88
517.722	20734.66
517.925	21252.8
518.127	21285.56
518.329	21633.72
518.531	21410.49
518.733	21570.23
518.935	22024.88
519.136	21758.64
519.338	22227.63
519.54	22303.4
519.742	22512.3
519.944	22751.91
520.146	23190.17
520.348	23001.76
520.55	23147.17
520.752	23067.3
520.954	23947.92
521.155	23321.24
521.357	24199.82
521.559	24171.15
521.761	24423.05
521.963	24480.39
522.164	24517.26
522.366	24615.56
522.568	24939.14
522.77	25049.73
522.971	25397.88
523.173	24789.64
523.375	25436.8
523.576	25352.83
523.778	25633.4
523.98	26026.61
524.181	26198.64
524.383	25926.26
524.584	26591.85
524.786	26233.46
524.988	26354.29
525.189	26468.97
525.391	26745.45
525.592	27019.88
525.794	26823.27
525.995	27161.19
526.197	27028.07
526.398	27419.23
526.6	27576.92
526.801	27726.42
527.003	27605.59
527.204	27771.48
527.406	27802.2
527.607	28219.99
527.808	28160.59
528.01	27961.94
528.211	28371.54
528.412	28609.1
528.614	28660.3
528.815	28664.39
529.016	29170.24
529.218	28545.61
529.419	28764.75
529.62	28805.7
529.822	28537.42
530.023	29006.41
530.224	29080.13
530.425	28983.88
530.626	28815.94
530.828	28922.44
531.029	29915.7
531.23	28936.77
531.431	29207.11
531.632	29696.57
531.833	29553.21
532.035	29411.9
532.236	29295.17
532.437	29397.57
532.638	29651.52
532.839	29467.2
533.04	29948.47
533.241	29198.91
533.442	30298.67
533.643	29538.88
533.844	29669.95
534.045	29647.42
534.246	29641.28
534.447	29686.33
534.648	29897.27
534.849	30165.56
535.05	29446.72
535.251	30177.84
535.451	29782.59
535.652	29891.13
535.853	29856.31
536.054	30028.34
536.255	30104.12
536.456	30071.35
536.657	30419.5
536.857	29749.82
537.058	30063.16
537.259	30401.07
537.46	30030.39
537.66	29927.99
537.861	29981.24
538.062	30081.59
538.263	30034.49
538.463	30143.03
538.664	29790.78
538.865	30077.49
539.065	30319.15
539.266	29712.95
539.466	30167.6
539.667	29749.82
539.868	30267.95
540.068	30048.82
540.269	29858.36
540.469	30370.35
540.67	29993.53
540.87	29872.7
541.071	30220.85
541.271	30192.18
541.472	29850.17
541.672	29903.42
541.873	29971
542.073	29512.25
542.274	30212.66
542.474	30106.16
542.675	29878.84
542.875	30106.16
543.075	29817.4
543.276	29667.9
543.476	30009.91
543.676	30024.25
543.877	29987.38
544.077	30020.15
544.277	29786.68
544.478	29973.05
544.678	30073.4
544.878	30083.64
545.078	29813.31
545.279	29700.67
545.479	29807.16
545.679	29663.8
545.879	29784.63
546.079	29733.43
546.28	29911.61
546.48	29751.87
546.68	30167.6
546.88	29946.42
547.08	29788.73
547.28	29917.75
547.48	29477.44
547.68	29805.11
547.88	29837.88
548.081	30018.1
548.281	29647.42
548.481	29833.78
548.681	29764.15
548.881	29684.28
549.081	30034.49
549.28	29579.84
549.48	30091.83
549.68	29661.76
549.88	29936.18
550.08	29712.95
550.28	29676.09
550.48	29962.81
550.68	29809.21
550.88	29700.67
551.08	29616.7
551.279	29422.14
551.479	29323.84
551.679	29944.38
551.879	29561.4
552.079	29991.48
552.278	29491.77
552.478	29430.33
552.678	29665.85
552.878	29846.07
553.077	29571.64
553.277	29399.62
553.477	30192.18
553.676	29532.73
553.876	29690.43
554.076	30007.86
554.275	28949.06
554.475	29186.63
554.674	29473.34
554.874	29524.54
555.074	29452.86
555.273	29389.38
555.473	29563.45
555.672	29076.04
555.872	29416
556.071	29368.9
556.271	29665.85
556.47	29014.6
556.67	28938.82
556.869	28967.49
557.068	29334.08
557.268	29192.77
557.467	29049.41
557.667	28785.22
557.866	28830.28
558.065	28916.29
558.265	28631.63
558.464	28777.03
558.663	29073.99
558.863	28762.7
559.062	29086.28
559.261	28729.93
559.461	29008.45
559.66	28342.86
559.859	28811.85
560.058	28416.59
560.258	28961.35
560.457	28254.8
560.656	28600.91
560.855	28152.4
561.054	28369.49
561.253	28645.96
561.453	28240.47
561.652	28609.1
561.851	28516.94
562.05	28381.77
562.249	27738.71
562.448	28228.18
562.647	28054.1
562.846	27851.35
563.045	28078.68
563.244	27892.31
563.443	28121.68
563.642	27452
563.841	27824.73
564.04	27652.7
564.239	27755.1
564.438	27492.96
564.637	27779.67
564.836	27730.52
565.035	27273.82
565.234	27871.83
565.432	27531.87
565.631	27509.34
565.83	27212.38
566.029	27454.05
566.228	27085.41
566.427	27282.02
566.625	26989.16
566.824	26858.09
567.023	26702.44
567.222	26337.9
567.42	26841.7
567.619	26632.81
567.818	26634.86
568.016	26727.02
568.215	26853.99
568.414	26458.73
568.612	26653.29
568.811	26206.83
569.01	26679.91
569.208	25971.32
569.407	26188.4
569.605	25883.25
569.804	26657.39
570.002	26114.67
570.201	26022.51
570.4	26137.2
570.598	25598.59
570.797	25821.81
570.995	25709.18
571.193	25246.33
571.392	25545.34
571.59	25401.98
571.789	25176.7
571.987	25631.35
572.186	25399.93
572.384	25477.76
572.582	25381.5
572.781	25444.99
572.979	24990.34
573.177	25289.34
573.376	24959.62
573.574	24752.77
573.772	24855.17
573.971	24990.34
574.169	24638.09
574.367	24799.88
574.565	24756.87
574.763	24470.15
574.962	24380.04
575.16	24423.05
575.358	24263.31
575.556	23978.64
575.754	24590.98
575.952	24101.52
576.151	24429.2
576.349	24124.05
576.547	23968.4
576.745	24091.28
576.943	24326.8
577.141	23962.26
577.339	23876.24
577.537	23958.16
577.735	23673.49
577.933	23847.57
578.131	23597.72
578.329	23335.58
578.527	23343.77
578.725	23532.18
578.923	23487.13
579.121	23231.13
579.319	23224.99
579.516	23534.23
579.714	23126.69
579.912	23042.72
580.11	22887.07
580.308	22852.26
580.506	22864.55
580.704	22676.13
580.901	22692.52
581.099	22770.34
581.297	22555.3
581.495	22653.61
581.692	22741.67
581.89	22334.12
582.088	22246.06
582.285	22151.85
582.483	22155.95
582.681	22327.98
582.878	22278.83
583.076	21746.36
583.274	22184.62
583.471	22076.08
583.669	21861.04
583.866	21598.9
584.064	21721.78
584.262	21641.91
584.459	22102.7
584.657	21684.92
584.854	21637.81
585.052	21576.37
585.249	21715.64
585.447	21574.33
585.644	21365.43
585.841	21123.77
586.039	21408.44
586.236	21205.69
586.434	21037.76
586.631	21095.1
586.828	21080.77
587.026	21209.79
587.223	21127.87
587.42	20857.54
587.618	20882.11
587.815	20890.31
588.012	20667.08
588.21	20531.91
588.407	20916.93
588.604	20277.96
588.801	20622.02
588.999	20564.68
589.196	20306.63
589.393	20261.58
589.59	20118.22
589.787	20308.68
589.984	20144.84
590.182	20095.69
590.379	20142.8
590.576	19864.27
590.773	19935.95
590.97	19610.32
591.167	19892.94
591.364	19266.27
591.561	19765.97
591.758	19376.86
591.955	19362.52
592.152	19675.86
592.349	19348.18
592.546	19301.08
592.743	19356.38
592.94	19108.57
593.137	19139.29
593.334	19243.74
593.531	19116.76
593.727	19272.41
593.924	19114.72
594.121	18782.95
594.318	18959.07
594.515	19077.85
594.712	19043.04
594.908	18672.36
595.105	18676.45
595.302	18621.16
595.499	18791.14
595.696	18590.44
595.892	18471.65
596.089	18430.69
596.286	18547.43
596.482	18533.09
596.679	18277.1
596.876	18342.63
597.072	18354.92
597.269	18168.55
597.466	18025.2
597.662	17906.41
597.859	17982.19
598.055	18049.77
598.252	17785.58
598.448	17797.87
598.645	17644.27
598.841	17779.44
599.038	17470.2
599.234	17525.49
599.431	17466.1
599.627	17416.95
599.824	17351.42
600.02	17267.45
600.217	17304.31
600.413	17167.1
600.609	17072.89
600.806	17375.99
601.002	17234.68
601.198	16915.2
601.395	17103.61
601.591	17093.37
601.787	16939.77
601.984	16769.79
602.18	17109.75
602.376	16868.09
602.572	16777.98
602.769	16730.88
602.965	16286.47
603.161	16614.15
603.357	16786.18
603.553	16470.79
603.75	16374.53
603.946	16235.27
604.142	16726.78
604.338	16182.03
604.534	16206.6
604.73	16188.17
604.926	16003.85
605.122	16315.14
605.318	15977.23
605.514	15858.45
605.71	15774.48
605.906	15848.21
606.102	15985.42
606.298	15905.55
606.494	15555.35
606.69	15606.55
606.886	15643.41
607.082	15526.68
607.278	15717.14
607.474	15479.57
607.67	15446.8
607.866	15393.56
608.062	15463.19
608.257	15420.18
608.453	15323.93
608.649	15538.96
608.845	15227.67
609.041	15442.71
609.236	15020.83
609.432	15272.73
609.628	15215.38
609.824	15147.8
610.019	15076.12
610.215	14934.81
610.411	15201.05
610.606	15082.27
610.802	14922.52
610.998	14850.85
611.193	14981.92
611.389	14863.13
611.584	15010.59
611.78	14637.86
611.976	14742.3
612.171	14826.27
612.367	14789.41
612.562	14619.42
612.758	14527.27
612.953	14408.48
613.149	14590.75
613.344	14474.02
613.539	14496.55
613.735	14369.57
613.93	14529.31
614.126	14381.86
614.321	14547.75
614.517	14224.17
614.712	14299.94
614.907	14193.45
615.103	14357.28
615.298	14039.85
615.493	14154.54
615.688	13880.11
615.884	14373.67
616.079	13904.68
616.274	14164.78
616.47	14125.86
616.665	14220.07
616.86	13910.83
617.055	13849.39
617.25	13898.54
617.445	14035.75
617.641	13712.17
617.836	13749.04
618.031	13749.04
618.226	13726.51
618.421	13546.29
618.616	13638.45
618.811	13542.19
619.006	13720.37
619.201	13361.97
619.396	13550.39
619.591	13390.64
619.786	13439.79
619.981	13341.49
620.176	13191.99
620.371	13075.26
620.566	13171.51
620.761	13153.08
620.956	13114.17
621.151	12897.08
621.346	13024.06
621.541	12997.43
621.735	12897.08
621.93	12522.3
622.125	12860.22
622.32	12331.84
622.515	12673.85
622.709	12421.95
622.904	12618.56
623.099	12483.39
623.294	12225.35
623.488	12223.3
623.683	12139.33
623.878	12020.55
624.072	12200.77
624.267	12161.86
624.462	12118.86
624.656	11961.16
624.851	12000.07
625.046	11852.62
625.24	11905.87
625.435	11696.97
625.629	11508.56
625.824	11373.39
626.018	11541.33
626.213	11268.95
626.407	11395.92
626.602	11301.72
626.796	11309.91
626.991	11279.19
627.185	10984.28
627.38	11125.59
627.574	10908.51
627.768	10931.03
627.963	10994.52
628.157	10816.35
628.352	10804.06
628.546	10632.03
628.74	10834.78
628.935	10468.19
629.129	10662.75
629.323	10675.04
629.517	10447.71
629.712	10427.23
629.906	10537.82
630.1	10390.37
630.294	10257.25
630.489	10333.03
630.683	10111.85
630.877	10242.92
631.071	9905
631.265	10167.14
631.459	9900.9
631.653	9771.88
631.848	9927.53
632.042	9909.1
632.236	9827.18
632.43	9657.2
632.624	9786.22
632.818	9642.86
633.012	9593.71
633.206	9503.6
633.4	9610.09
633.594	9411.44
633.788	9569.13
633.982	9358.19
634.176	9237.36
634.369	8985.46
634.563	9247.6
634.757	9071.48
634.951	9225.08
635.145	8930.17
635.339	9122.68
635.533	8899.45
635.726	9036.66
635.92	8719.23
636.114	8887.16
636.308	8653.69
636.501	8745.85
636.695	8612.73
636.889	8504.19
637.083	8739.71
637.276	8539.01
637.47	8450.94
637.664	8534.91
637.857	8516.48
638.051	8295.3
638.244	8358.78
638.438	8098.69
638.632	8115.08
638.825	8205.19
639.019	7971.72
639.212	8270.72
639.406	8149.89
639.599	7906.18
639.793	8074.12
639.986	7691.15
640.18	7955.33
640.373	7779.21
640.567	7742.35
640.76	7795.59
640.954	7848.84
641.147	7635.85
641.34	7619.47
641.534	7482.25
641.727	7642
641.92	7590.8
642.114	7367.57
642.307	7547.79
642.5	7361.42
642.694	7175.06
642.887	7351.18
643.08	7150.48
643.273	7308.18
643.467	7240.59
643.66	6984.6
643.853	7054.23
644.046	6970.26
644.239	7332.75
644.432	7146.39
644.626	7029.65
644.819	6966.17
645.012	6978.45
645.205	6970.26
645.398	7011.22
645.591	6761.37
645.784	6785.94
645.977	6679.45
646.17	6677.4
646.363	6681.5
646.556	6585.24
646.749	6572.96
646.942	6683.55
647.135	6511.52
647.328	6646.68
647.521	6484.89
647.714	6300.58
647.907	6468.51
648.099	6441.89
648.292	6376.35
648.485	6198.18
648.678	6343.58
648.871	6325.15
649.064	6296.48
649.256	6245.28
649.449	6159.27
649.642	6003.62
649.835	6144.93
650.027	6087.59
650.22	6044.58
650.413	6101.92
650.605	6009.76
650.798	5792.68
650.991	5823.4
651.183	5669.8
651.376	5751.72
651.568	5874.6
651.761	5819.3
651.954	5757.86
652.146	5624.75
652.339	5628.84
652.531	5655.47
652.724	5602.22
652.916	5514.16
653.109	5460.91
653.301	5450.67
653.494	5622.7
653.686	5348.27
653.879	5514.16
654.071	5387.18
654.263	5241.78
654.456	5424.05
654.648	5354.41
654.84	5086.13
655.033	5331.89
655.225	5088.18
655.417	5260.21
655.61	5131.19
655.802	5202.86
655.994	5213.1
656.186	5249.97
656.379	5094.32
656.571	5243.82
656.763	4936.63
656.955	5049.27
657.148	5016.5
657.34	4912.05
657.532	4944.82
657.724	4867
657.916	5036.98
658.108	4981.68
658.3	4912.05
658.492	5057.46
658.684	4803.51
658.876	4713.4
659.068	4662.2
659.26	4723.64
659.452	4826.04
659.644	4684.73
659.836	4643.77
660.028	4707.26
660.22	4574.14
660.412	4449.21
660.604	4654.01
660.796	4651.96
660.988	4619.19
661.18	4387.77
661.372	4475.84
661.563	4344.77
661.755	4529.08
661.947	4379.58
662.139	4369.34
662.331	4252.61
662.522	4367.29
662.714	4273.09
662.906	4328.38
663.097	4275.13
663.289	4205.5
663.481	4203.46
663.673	4328.38
663.864	4133.82
664.056	4053.95
664.247	4215.74
664.439	4029.38
664.631	4211.65
664.822	4197.31
665.014	4094.91
665.205	4113.35
665.397	4103.11
665.588	4068.29
665.78	3976.13
665.971	4015.04
666.163	3937.22
666.354	3994.56
666.546	3935.17
666.737	3873.73
666.929	3900.36
667.12	3974.08
667.311	3910.6
667.503	3748.81
667.694	3863.49
667.885	3830.73
668.077	3838.92
668.268	3716.04
668.459	3886.02
668.651	3785.67
668.842	3953.6
669.033	3707.85
669.224	3742.66
669.416	3625.93
669.607	3603.4
669.798	3582.92
669.989	3595.21
670.18	3548.11
670.371	3849.16
670.563	3595.21
670.754	3664.84
670.945	3501
671.136	3609.54
671.327	3552.2
671.518	3560.39
671.709	3562.44
671.9	3468.24
672.091	3517.39
672.282	3468.24
672.473	3445.71
672.664	3527.63
672.855	3425.23
673.046	3595.21
673.237	3380.17
673.428	3496.91
673.619	3263.44
673.809	3417.04
674	3371.98
674.191	3341.26
674.382	3351.5
674.573	3412.94
674.764	3380.17
674.954	3337.17
675.145	3298.25
675.336	3273.68
675.527	3435.47
675.717	3333.07
675.908	3191.76
676.099	3347.4
676.289	3247.05
676.48	3189.71
676.671	3259.34
676.861	3341.26
677.052	3308.49
677.243	3193.81
677.433	3234.77
677.624	3220.43
677.814	3288.01
678.005	3081.17
678.195	3177.42
678.386	3126.22
678.576	3161.04
678.767	3062.74
678.957	3027.92
679.148	3142.61
679.338	3113.94
679.529	3230.67
679.719	3023.83
679.909	3113.94
680.1	3222.48
680.29	3144.66
680.481	3152.85
680.671	3064.79
680.861	3107.79
681.052	3132.37
681.242	3183.57
681.432	3056.59
681.622	2972.63
681.813	3050.45
682.003	3206.1
682.193	3023.83
682.383	3070.93
682.573	3130.32
682.764	3011.54
682.954	3072.98
683.144	3097.55
683.334	3013.59
683.524	3054.55
683.714	3025.87
683.904	2980.82
684.094	3093.46
684.284	3015.63
684.474	3023.83
684.664	3085.26
684.854	2991.06
685.044	3027.92
685.234	2980.82
685.424	2972.63
685.614	2872.28
685.804	2962.39
685.994	2915.28
686.184	2882.52
686.374	2962.39
686.564	2933.72
686.753	2878.42
686.943	2898.9
687.133	2876.37
687.323	2829.27
687.513	2866.13
687.702	2773.97
687.892	2737.11
688.082	2847.7
688.272	2780.12
688.461	2806.74
688.651	2810.84
688.841	2665.43
689.03	2706.39
689.22	2642.9
689.41	2632.66
689.599	2571.22
689.789	2724.82
689.979	2655.19
690.168	2620.38
690.358	2583.51
690.547	2718.68
690.737	2560.98
690.926	2595.8
691.116	2606.04
691.305	2472.92
691.495	2536.41
691.684	2497.5
691.874	2685.91
692.063	2528.22
692.252	2544.6
692.442	2608.09
692.631	2544.6
692.82	2603.99
693.01	2472.92
693.199	2474.97
693.388	2450.39
693.578	2515.93
693.767	2515.93
693.956	2391
694.146	2448.35
694.335	2409.44
694.524	2474.97
694.713	2350.04
694.902	2436.06
695.092	2481.11
695.281	2413.53
695.47	2386.91
695.659	2249.69
695.848	2319.32
696.037	2298.84
696.226	2259.93
696.415	2352.09
696.604	2427.87
696.793	2343.9
696.982	2348
697.171	2284.51
697.36	2208.73
697.549	2282.46
697.738	2325.47
697.927	2216.93
698.116	2397.15
698.305	2261.98
698.494	2204.64
698.683	2407.39
698.872	2327.52
699.061	2280.41
699.25	2257.89
699.438	2307.04
699.627	2317.28
699.816	2307.04
700.005	2337.76
700.193	2304.99
700.382	2307.04
700.571	2210.78
700.76	2143.2
700.948	2249.69
701.137	2223.07
701.326	2210.78
701.514	2261.98
701.703	2212.83
701.892	2233.31
702.08	2245.6
702.269	2304.99
702.457	2266.08
702.646	2321.37
702.834	2184.16
703.023	2159.58
703.212	2180.06
703.4	2108.38
703.589	2126.82
703.777	2214.88
703.965	2264.03
704.154	2368.48
704.342	2237.41
704.531	2159.58
704.719	2114.53
704.907	2272.22
705.096	2147.3
705.284	2075.62
705.472	2264.03
705.661	2247.65
705.849	2378.72
706.037	2376.67
706.226	2194.4
706.414	2288.61
706.602	2245.6
706.79	2339.8
706.979	2194.4
707.167	2171.87
707.355	2139.1
707.543	2253.79
707.731	2329.56
707.919	2243.55
708.107	2225.12
708.296	2112.48
708.484	2223.07
708.672	2200.54
708.86	2210.78
709.048	2319.32
709.236	2190.3
709.424	2147.3
709.612	2147.3
709.8	2032.61
709.988	2167.77
710.176	2137.06
710.364	2171.87
710.551	2171.87
710.739	2106.34
710.927	2182.11
711.115	2251.74
711.303	2194.4
711.491	2251.74
711.679	2122.72
711.866	2206.69
712.054	2145.25
712.242	2087.9
712.43	2161.63
712.617	2008.03
712.805	2206.69
712.993	2290.65
713.181	2075.62
713.368	2141.15
713.556	2153.44
713.744	2296.8
713.931	2221.02
714.119	2212.83
714.306	2184.16
714.494	2171.87
714.682	2304.99
714.869	2245.6
715.057	2200.54
715.244	2124.77
715.432	2239.45
715.619	2161.63
715.807	2233.31
715.994	2317.28
716.182	2198.49
716.369	2227.17
716.556	2208.73
716.744	2286.56
716.931	2128.86
717.119	2190.3
717.306	2204.64
717.493	2343.9
717.681	2165.73
717.868	2231.26
718.055	2257.89
718.242	2223.07
718.43	2231.26
718.617	2284.51
718.804	2206.69
718.991	2321.37
719.179	2253.79
719.366	2292.7
719.553	2169.82
719.74	2214.88
719.927	2325.47
720.114	2200.54
720.301	2304.99
720.488	2278.37
720.676	2231.26
720.863	2147.3
721.05	2288.61
721.237	2229.21
721.424	2257.89
721.611	2182.11
721.798	2227.17
721.985	2214.88
722.172	2169.82
722.358	2376.67
722.545	2229.21
722.732	2264.03
722.919	2143.2
723.106	2253.79
723.293	2204.64
723.48	2218.97
723.667	2204.64
723.853	2237.41
724.04	2231.26
724.227	2253.79
724.414	2255.84
724.6	2290.65
724.787	2218.97
724.974	2278.37
725.161	2216.93
725.347	2145.25
725.534	2235.36
725.72	2171.87
725.907	2247.65
726.094	2231.26
726.28	2214.88
726.467	2270.17
726.653	2239.45
726.84	2294.75
727.027	2190.3
727.213	2178.01
727.4	2333.66
727.586	2208.73
727.773	2163.68
727.959	2253.79
728.145	2229.21
728.332	2352.09
728.518	2143.2
728.705	2264.03
728.891	2286.56
729.077	2200.54
729.264	2192.35
729.45	2337.76
729.636	2317.28
729.823	2159.58
730.009	2302.94
730.195	2245.6
730.382	2200.54
730.568	2329.56
730.754	2192.35
730.94	2227.17
731.126	2345.95
731.313	2294.75
731.499	2266.08
731.685	2171.87
731.871	2180.06
732.057	2218.97
732.243	2190.3
732.429	2313.18
732.615	2261.98
732.801	2231.26
732.987	2255.84
733.173	2175.97
733.359	2284.51
733.545	2192.35
733.731	2147.3
733.917	2182.11
734.103	2165.73
734.289	2180.06
734.475	2143.2
734.661	2153.44
734.847	2227.17
735.033	2137.06
735.219	2130.91
735.404	2155.49
735.59	2237.41
735.776	2233.31
735.962	2210.78
736.148	2163.68
736.333	2157.54
736.519	2223.07
736.705	2284.51
736.89	2135.01
737.076	2206.69
737.262	2128.86
737.447	2122.72
737.633	2171.87
737.819	2184.16
738.004	2083.81
738.19	2120.67
738.375	2112.48
738.561	2169.82
738.747	2089.95
738.932	2081.76
739.118	2071.52
739.303	2104.29
739.489	2098.14
739.674	2085.86
739.859	2028.51
740.045	2139.1
740.23	2079.71
740.416	1975.27
740.601	2024.42
740.786	2034.66
740.972	1969.12
741.157	2104.29
741.342	2077.66
741.528	2016.23
741.713	1954.79
741.898	2145.25
742.084	1969.12
742.269	2147.3
742.454	2055.14
742.639	1917.92
742.824	2053.09
743.01	2022.37
743.195	1958.88
743.38	2079.71
743.565	1975.27
743.75	1885.16
743.935	1969.12
744.12	1897.44
744.305	1821.67
744.49	1936.35
744.675	1962.98
744.86	1754.09
745.045	1932.26
745.23	1891.3
745.415	1784.8
745.6	1848.29
745.785	1897.44
745.97	1991.65
746.155	1887.2
746.34	1770.47
746.525	1819.62
746.71	1829.86
746.895	1864.68
747.079	1749.99
747.264	1760.23
747.449	1680.36
747.634	1811.43
747.819	1768.42
748.003	1858.53
748.188	1717.22
748.373	1797.09
748.557	1842.15
748.742	1735.65
748.927	1737.7
749.111	1733.61
749.296	1657.83
749.481	1653.73
749.665	1651.69
749.85	1602.54
750.034	1610.73
750.219	1549.29
750.404	1625.06
750.588	1620.97
750.773	1655.78
750.957	1678.31
751.141	1598.44
751.326	1575.91
751.51	1580.01
751.695	1514.47
751.879	1563.62
752.064	1475.56
752.248	1524.71
752.432	1475.56
752.617	1465.32
752.801	1518.57
752.985	1446.89
753.17	1543.14
753.354	1418.22
753.538	1405.93
753.722	1340.4
753.907	1350.64
754.091	1352.68
754.275	1246.19
754.459	1375.21
754.643	1414.12
754.828	1420.27
755.012	1319.92
755.196	1307.63
755.38	1362.92
755.564	1307.63
755.748	1268.72
755.932	1346.54
756.116	1258.48
756.3	1276.91
756.484	1217.52
756.668	1283.05
756.852	1106.93
757.036	1184.75
757.22	1201.13
757.404	1285.1
757.588	1213.42
757.772	1231.85
757.956	1297.39
758.14	1221.61
758.323	1199.09
758.507	1211.37
758.691	1168.37
758.875	1201.13
759.059	1260.52
759.242	1135.6
759.426	1141.74
759.61	996.34
759.794	1209.33
759.977	1098.74
760.161	1281
760.345	1119.21
760.528	1100.78
760.712	1100.78
760.895	1133.55
761.079	1043.44
761.263	998.38
761.446	992.24
761.63	1000.43
761.813	969.71
761.997	996.34
762.18	1035.25
762.364	953.33
762.547	930.8
762.731	969.71
762.914	1010.67
763.098	1037.3
763.281	1068.02
763.464	1053.68
763.648	1027.06
763.831	1047.54
764.015	922.61
764.198	977.91
764.381	979.95
764.564	953.33
764.748	1037.3
764.931	1043.44
765.114	900.08
765.297	914.42
765.481	930.8
765.664	955.38
765.847	877.55
766.03	945.14
766.213	1014.77
766.397	961.52
766.58	926.71
766.763	971.76
766.946	936.95
767.129	871.41
767.312	893.94
767.495	887.79
767.678	904.18
767.861	871.41
768.044	873.46
768.227	893.94
768.41	914.42
768.593	889.84
768.776	941.04
768.959	879.6
769.142	877.55
769.324	857.07
769.507	816.12
769.69	760.82
769.873	744.44
770.056	869.36
770.239	799.73
770.421	771.06
770.604	867.31
770.787	762.87
770.97	859.12
771.152	859.12
771.335	842.74
771.518	799.73
771.7	826.36
771.883	791.54
772.066	832.5
772.248	750.58
772.431	760.82
772.613	738.29
772.796	799.73
772.978	756.72
773.161	707.57
773.343	695.29
773.526	820.21
773.708	795.64
773.891	773.11
774.073	752.63
774.256	660.47
774.438	654.33
774.621	607.22
774.803	721.91
774.985	691.19
775.168	721.91
775.35	670.71
775.532	740.34
775.715	625.65
775.897	631.8
776.079	676.85
776.261	703.48
776.444	658.42
776.626	646.13
776.808	599.03
776.99	605.17
777.173	607.22
777.355	615.41
777.537	646.13
777.719	658.42
777.901	576.5
778.083	537.59
778.265	504.82
778.447	625.65
778.629	539.64
778.811	547.83
778.993	605.17
779.175	605.17
779.357	596.98
779.539	599.03
779.721	672.76
779.903	566.26
780.085	564.22
780.267	539.64
780.449	513.02
780.631	551.93
780.812	590.84
780.994	543.74
781.176	568.31
781.358	562.17
781.54	490.49
781.721	568.31
781.903	547.83
782.085	556.02
782.267	533.5
782.448	467.96
782.63	517.11
782.812	500.73
782.993	494.58
783.175	584.7
783.357	465.91
783.538	496.63
783.72	470.01
783.901	386.04
784.083	472.06
784.264	476.15
784.446	513.02
784.627	424.95
784.809	513.02
784.99	498.68
785.172	431.1
785.353	412.67
785.535	445.43
785.716	461.82
785.897	363.51
786.079	400.38
786.26	429.05
786.441	445.43
786.623	443.39
786.804	420.86
786.985	388.09
787.167	484.34
787.348	394.23
787.529	408.57
787.71	459.77
787.891	408.57
788.073	467.96
788.254	398.33
788.435	457.72
788.616	467.96
788.797	349.18
788.978	330.75
789.159	316.41
789.34	398.33
789.522	345.08
789.703	392.19
789.884	332.79
790.065	338.94
790.246	267.26
790.427	386.04
790.607	359.42
790.788	386.04
790.969	373.75
791.15	369.66
791.331	322.56
791.512	322.56
791.693	281.6
791.874	332.79
792.054	383.99
792.235	304.12
792.416	310.27
792.597	338.94
792.778	275.45
792.958	326.65
793.139	400.38
793.32	359.42
793.5	289.79
793.681	334.84
793.862	275.45
794.042	291.84
794.223	226.3
794.404	283.64
794.584	324.6
794.765	232.44
794.945	259.07
795.126	439.29
795.306	322.56
795.487	310.27
795.667	269.31
795.848	330.75
796.028	242.68
796.209	238.59
796.389	291.84
796.57	291.84
796.75	246.78
796.93	285.69
797.111	275.45
797.291	318.46
797.471	164.86
797.652	259.07
797.832	216.06
798.012	250.88
798.192	326.65
798.373	267.26
798.553	242.68
798.733	226.3
798.913	189.44
799.093	263.16
799.274	156.67
799.454	201.72
799.634	343.03
799.814	197.63
799.994	234.49
800.174	250.88
800.354	181.25
800.534	265.21
800.714	267.26
800.894	285.69
801.074	201.72
801.254	226.3
801.434	269.31
801.614	236.54
801.794	279.55
801.974	607.22
802.154	238.59
802.334	263.16
802.514	220.16
802.693	273.4
802.873	152.57
803.053	281.6
803.233	236.54
803.413	248.83
803.592	168.96
803.772	175.1
803.952	195.58
804.131	162.81
804.311	203.77
804.491	195.58
804.67	150.53
804.85	185.34
805.03	166.91
805.209	234.49
805.389	140.29
805.568	128
805.748	257.02
805.928	181.25
806.107	201.72
806.287	238.59
806.466	168.96
806.646	181.25
806.825	214.01
807.004	201.72
807.184	181.25
807.363	181.25
807.543	187.39
807.722	168.96
807.901	218.11
808.081	222.2
808.26	144.38
808.439	97.28
808.619	162.81
808.798	158.72
808.977	160.77
809.156	144.38
809.336	181.25
809.515	140.29
809.694	197.63
809.873	113.66
810.052	222.2
810.231	209.92
810.411	152.57
810.59	209.92
810.769	214.01
810.948	173.05
811.127	197.63
811.306	183.29
811.485	144.38
811.664	195.58
811.843	130.05
812.022	207.87
812.201	132.09
812.38	162.81
812.559	164.86
812.737	226.3
812.916	80.89
813.095	234.49
813.274	156.67
813.453	121.85
813.632	160.77
813.811	189.44
813.989	168.96
814.168	144.38
814.347	105.47
814.526	166.91
814.704	220.16
814.883	156.67
815.062	146.43
815.24	113.66
815.419	72.7
815.598	181.25
815.776	111.61
815.955	138.24
816.133	117.76
816.312	115.71
816.49	142.33
816.669	84.99
816.847	166.91
817.026	142.33
817.204	84.99
817.383	199.68
817.561	121.85
817.74	125.95
817.918	128
818.097	171.01
818.275	56.32
818.453	72.7
818.632	154.62
818.81	119.81
818.988	68.61
819.167	41.98
819.345	84.99
819.523	140.29
819.701	111.61
819.879	136.19
820.058	150.53
820.236	150.53
820.414	171.01
820.592	87.04
820.77	128
820.948	52.22
821.127	58.37
821.305	156.67
821.483	68.61
821.661	78.85
821.839	52.22
822.017	144.38
822.195	115.71
822.373	168.96
822.551	64.51
822.729	99.33
822.907	146.43
823.085	140.29
823.262	101.37
823.44	152.57
823.618	50.18
823.796	39.94
823.974	48.13
824.152	105.47
824.329	78.85
824.507	150.53
824.685	142.33
824.863	119.81
825.04	84.99
825.218	130.05
825.396	162.81
825.574	134.14
825.751	132.09
825.929	168.96
826.107	54.27
826.284	89.09
826.462	87.04
826.639	91.13
826.817	91.13
826.994	74.75
827.172	37.89
827.349	146.43
827.527	82.94
827.704	154.62
827.882	56.32
828.059	84.99
828.237	109.57
828.414	62.46
828.591	19.46
828.769	103.42
828.946	93.18
829.124	84.99
829.301	111.61
829.478	76.8
829.655	50.18
829.833	48.13
830.01	5.12
830.187	156.67
830.364	64.51
830.542	144.38
830.719	101.37
830.896	84.99
831.073	89.09
831.25	146.43
831.427	68.61
831.604	117.76
831.782	46.08
831.959	62.46
832.136	64.51
832.313	56.32
832.49	50.18
832.667	115.71
832.844	60.42
833.021	84.99
833.198	136.19
833.374	117.76
833.551	132.09
833.728	93.18
833.905	29.7
834.082	101.37
834.259	74.75
834.436	46.08
834.612	-7.17
834.789	148.48
834.966	9.22
835.143	23.55
835.319	52.22
835.496	107.52
835.673	80.89
835.85	46.08
836.026	142.33
836.203	66.56
836.38	15.36
836.556	-15.36
836.733	62.46
836.909	78.85
837.086	140.29
837.262	74.75
837.439	13.31
837.616	25.6
837.792	39.94
837.968	37.89
838.145	78.85
838.321	27.65
838.498	39.94
838.674	64.51
838.851	9.22
839.027	130.05
839.203	60.42
839.38	89.09
839.556	-7.17
839.732	99.33
839.909	82.94
840.085	52.22
840.261	41.98
840.437	95.23
840.614	50.18
840.79	87.04
840.966	41.98
841.142	70.65
841.318	50.18
841.494	39.94
841.671	109.57
841.847	11.26
842.023	35.84
842.199	97.28
842.375	62.46
842.551	13.31
842.727	82.94
842.903	82.94
843.079	70.65
843.255	119.81
843.431	82.94
843.607	80.89
843.783	21.5
843.959	27.65
844.134	91.13
844.31	175.1
844.486	62.46
844.662	46.08
844.838	58.37
845.013	44.03
845.189	58.37
845.365	50.18
845.541	13.31
845.716	56.32
845.892	64.51
846.068	66.56
846.244	52.22
846.419	91.13
846.595	19.46
846.77	66.56
846.946	56.32
847.122	52.22
847.297	33.79
847.473	115.71
847.648	78.85
847.824	74.75
847.999	52.22
848.175	29.7
848.35	21.5
848.526	117.76
848.701	52.22
848.876	58.37
849.052	58.37
849.227	46.08
849.403	66.56
849.578	50.18
849.753	46.08
849.929	27.65
850.104	-5.12
850.279	101.37
850.454	35.84
850.63	19.46
850.805	-19.46
850.98	39.94
851.155	52.22
851.33	132.09
851.505	3.07
851.681	144.38
851.856	48.13
852.031	93.18
852.206	44.03
852.381	74.75
852.556	-7.17
852.731	35.84
852.906	27.65
853.081	31.74
853.256	64.51
853.431	-13.31
853.606	68.61
853.781	39.94
853.956	41.98
854.131	62.46
854.305	27.65
854.48	-11.26
854.655	23.55
854.83	58.37
855.005	76.8
855.18	62.46
855.354	15.36
855.529	7.17
855.704	11.26
855.879	80.89
856.053	21.5
856.228	19.46
856.403	-3.07
856.577	41.98
856.752	78.85
856.926	97.28
857.101	-33.79
857.276	89.09
857.45	58.37
857.625	68.61
857.799	27.65
857.974	70.65
858.148	-41.98
858.323	91.13
858.497	56.32
858.672	1.02
858.846	46.08
859.02	48.13
859.195	-82.94
859.369	27.65
859.543	9.22
859.718	29.7
859.892	33.79
860.066	52.22
860.241	17.41
860.415	58.37
860.589	25.6
860.763	46.08
860.938	5.12
861.112	74.75
861.286	48.13
861.46	84.99
861.634	-33.79
861.808	50.18
861.982	60.42
862.157	29.7
862.331	64.51
862.505	-17.41
862.679	41.98
862.853	84.99
863.027	37.89
863.201	70.65
863.375	-7.17
863.549	25.6
863.722	33.79
863.896	66.56
864.07	-44.03
864.244	33.79
864.418	29.7
864.592	27.65
864.766	-1.02
864.939	64.51
865.113	3.07
865.287	101.37
865.461	21.5
865.634	-21.5
865.808	41.98
865.982	33.79
866.156	-9.22
866.329	13.31
866.503	-13.31
866.676	52.22
866.85	-1.02
867.024	1.02
867.197	29.7
867.371	41.98
867.544	33.79
867.718	58.37
867.891	15.36
868.065	-13.31
868.238	35.84
868.412	121.85
868.585	-27.65
868.759	19.46
868.932	39.94
869.105	52.22
869.279	89.09
869.452	-1.02
869.625	44.03
869.799	46.08
869.972	78.85
870.145	41.98
870.319	103.42
870.492	31.74
870.665	66.56
870.838	62.46
871.011	-74.75
871.185	54.27
871.358	19.46
871.531	9.22
871.704	58.37
871.877	-11.26
872.05	-11.26
872.223	82.94
872.396	31.74
872.569	-44.03
872.742	11.26
872.915	72.7
873.088	-44.03
873.261	21.5
873.434	41.98
873.607	48.13
873.78	80.89
873.953	-29.7
874.126	9.22
874.299	46.08
874.471	-3.07
874.644	31.74
874.817	68.61
874.99	89.09
875.163	19.46
875.335	-15.36
875.508	44.03
875.681	125.95
875.853	-27.65
876.026	95.23
876.199	15.36
876.371	23.55
876.544	74.75
876.717	-13.31
876.889	-7.17
877.062	101.37
877.234	-29.7
877.407	35.84
877.579	54.27
877.752	93.18
877.924	5.12
878.097	78.85
878.269	-50.18
878.442	119.81
878.614	68.61
878.786	-58.37
878.959	-11.26
879.131	21.5
879.303	25.6
879.476	52.22
879.648	-11.26
879.82	7.17
879.993	-35.84
880.165	7.17
880.337	58.37
880.509	-5.12
880.681	-68.61
880.854	-7.17
881.026	37.89
881.198	5.12
881.37	23.55
881.542	56.32
881.714	27.65
881.886	21.5
882.058	-33.79
882.23	11.26
882.402	9.22
882.574	-15.36
882.746	37.89
882.918	101.37
883.09	72.7
883.262	48.13
883.434	62.46
883.606	15.36
883.778	-56.32
883.95	70.65
884.122	-29.7
884.293	46.08
884.465	-3.07
884.637	74.75
884.809	70.65
884.98	3.07
885.152	17.41
885.324	50.18
885.496	37.89
885.667	15.36
885.839	-11.26
886.011	17.41
886.182	64.51
886.354	13.31
886.525	44.03
886.697	132.09
886.869	72.7
887.04	-13.31
887.212	140.29
887.383	37.89
887.555	78.85
887.726	-3.07
887.897	29.7
888.069	7.17
888.24	35.84
888.412	41.98
888.583	11.26
888.754	-3.07
888.926	-31.74
889.097	-17.41
889.268	5.12
889.44	39.94
889.611	29.7
889.782	82.94
889.953	-58.37
890.125	23.55
890.296	-31.74
890.467	-37.89
890.638	-7.17
890.809	84.99
890.98	11.26
891.151	-21.5
891.323	60.42
891.494	11.26
891.665	-19.46
891.836	48.13
892.007	-31.74
892.178	11.26
892.349	23.55
892.52	-1.02
892.691	15.36
892.862	-35.84
893.032	-39.94
893.203	11.26
893.374	95.23
893.545	41.98
893.716	-50.18
893.887	7.17
894.057	41.98
894.228	-1.02
894.399	25.6
894.57	48.13
894.74	-39.94
894.911	-33.79
895.082	-46.08
895.253	-39.94
895.423	-56.32
895.594	52.22
895.764	56.32
895.935	19.46
896.106	123.9
896.276	29.7
896.447	3.07
896.617	-19.46
896.788	11.26
896.958	-7.17
897.129	1.02
897.299	101.37
897.47	50.18
897.64	-21.5
897.81	-15.36
897.981	-29.7
898.151	17.41
898.322	23.55
898.492	27.65
898.662	103.42
898.832	-17.41
899.003	64.51
899.173	21.5
899.343	48.13
899.513	-74.75
