Data from USB4F104151__48__11-51-53-546.txt Node

Date: Fri Mar 14 11:51:53 EDT 2025
User: louis
Spectrometer: USB4F10415
Trigger mode: 4
Integration Time (sec): 2.000000E-2
Scans to average: 1
Electric dark correction enabled: true
Nonlinearity correction enabled: false
Boxcar width: 0
XAxis mode: Wavelengths
Number of Pixels in Spectrum: 3648
>>>>>Begin Spectral Data<<<<<
178.204	-20.82
178.424	-20.82
178.644	-20.82
178.864	-72.02
179.084	-31.06
179.304	-33.11
179.524	-45.4
179.744	-53.59
179.964	26.28
180.184	36.52
180.404	34.47
180.624	16.04
180.844	-12.63
181.064	-45.4
181.283	104.11
181.503	-33.11
181.723	5.8
181.943	20.14
182.163	122.54
182.383	40.62
182.602	-29.01
182.822	61.1
183.042	65.19
183.262	16.04
183.482	48.81
183.701	87.72
183.921	1.71
184.141	57
184.361	63.15
184.58	-37.2
184.8	50.86
185.02	-4.44
185.239	57
185.459	-18.77
185.679	42.67
185.898	-51.54
186.118	52.91
186.338	54.95
186.557	-2.39
186.777	9.9
186.997	100.01
187.216	48.81
187.436	63.15
187.655	50.86
187.875	13.99
188.095	7.85
188.314	93.87
188.534	106.15
188.753	5.8
188.973	20.14
189.192	104.11
189.412	-2.39
189.631	22.19
189.851	124.58
190.07	-41.3
190.29	-2.39
190.509	-29.01
190.729	20.14
190.948	50.86
191.168	85.67
191.387	32.43
191.607	34.47
191.826	24.23
192.045	-0.34
192.265	50.86
192.484	7.85
192.704	1.71
192.923	36.52
193.142	89.77
193.362	24.23
193.581	20.14
193.8	130.73
194.02	20.14
194.239	11.95
194.458	114.34
194.678	44.71
194.897	13.99
195.116	42.67
195.335	48.81
195.555	61.1
195.774	28.33
195.993	-6.49
196.212	71.34
196.432	-45.4
196.651	32.43
196.87	87.72
197.089	87.72
197.308	104.11
197.528	3.75
197.747	1.71
197.966	57
198.185	132.78
198.404	1.71
198.623	7.85
198.842	3.75
199.062	9.9
199.281	11.95
199.5	44.71
199.719	112.3
199.938	93.87
200.157	91.82
200.376	46.76
200.595	24.23
200.814	30.38
201.033	32.43
201.252	42.67
201.471	87.72
201.69	-41.3
201.909	85.67
202.128	16.04
202.347	32.43
202.566	18.09
202.785	28.33
203.004	61.1
203.223	188.07
203.442	-4.44
203.661	61.1
203.879	-29.01
204.098	54.95
204.317	34.47
204.536	69.29
204.755	20.14
204.974	48.81
205.193	85.67
205.411	134.82
205.63	-8.53
205.849	13.99
206.068	77.48
206.287	18.09
206.505	63.15
206.724	26.28
206.943	13.99
207.162	24.23
207.381	28.33
207.599	42.67
207.818	-47.44
208.037	100.01
208.255	5.8
208.474	22.19
208.693	81.58
208.911	22.19
209.13	75.43
209.349	71.34
209.567	61.1
209.786	1.71
210.005	63.15
210.223	63.15
210.442	20.14
210.661	16.04
210.879	48.81
211.098	5.8
211.316	-10.58
211.535	59.05
211.753	-18.77
211.972	77.48
212.191	52.91
212.409	-20.82
212.628	22.19
212.846	134.82
213.065	32.43
213.283	112.3
213.502	59.05
213.72	116.39
213.938	13.99
214.157	48.81
214.375	124.58
214.594	65.19
214.812	54.95
215.031	52.91
215.249	32.43
215.467	13.99
215.686	28.33
215.904	48.81
216.122	48.81
216.341	118.44
216.559	42.67
216.778	18.09
216.996	57
217.214	44.71
217.432	5.8
217.651	52.91
217.869	40.62
218.087	-0.34
218.306	85.67
218.524	3.75
218.742	44.71
218.96	81.58
219.179	-6.49
219.397	30.38
219.615	79.53
219.833	89.77
220.051	79.53
220.27	57
220.488	-6.49
220.706	69.29
220.924	-37.2
221.142	69.29
221.36	81.58
221.578	22.19
221.796	11.95
222.015	32.43
222.233	32.43
222.451	54.95
222.669	44.71
222.887	40.62
223.105	26.28
223.323	11.95
223.541	-33.11
223.759	114.34
223.977	61.1
224.195	89.77
224.413	46.76
224.631	167.59
224.849	116.39
225.067	102.06
225.285	16.04
225.503	36.52
225.721	-33.11
225.939	11.95
226.157	67.24
226.375	93.87
226.592	-16.73
226.81	57
227.028	46.76
227.246	71.34
227.464	11.95
227.682	106.15
227.9	63.15
228.117	118.44
228.335	11.95
228.553	46.76
228.771	46.76
228.989	16.04
229.206	116.39
229.424	5.8
229.642	11.95
229.86	7.85
230.077	69.29
230.295	93.87
230.513	67.24
230.731	50.86
230.948	-8.53
231.166	63.15
231.384	-35.16
231.601	9.9
231.819	40.62
232.037	-6.49
232.254	-45.4
232.472	18.09
232.689	69.29
232.907	22.19
233.125	13.99
233.342	42.67
233.56	32.43
233.777	36.52
233.995	79.53
234.213	50.86
234.43	73.39
234.648	22.19
234.865	65.19
235.083	20.14
235.3	24.23
235.518	136.87
235.735	91.82
235.953	24.23
236.17	3.75
236.388	46.76
236.605	40.62
236.822	38.57
237.04	44.71
237.257	-2.39
237.475	-20.82
237.692	-8.53
237.909	65.19
238.127	38.57
238.344	38.57
238.562	18.09
238.779	50.86
238.996	34.47
239.214	26.28
239.431	32.43
239.648	-10.58
239.865	50.86
240.083	-29.01
240.3	20.14
240.517	11.95
240.735	63.15
240.952	108.2
241.169	48.81
241.386	28.33
241.603	-20.82
241.821	22.19
242.038	-2.39
242.255	38.57
242.472	40.62
242.689	42.67
242.907	-61.78
243.124	18.09
243.341	22.19
243.558	36.52
243.775	81.58
243.992	65.19
244.209	26.28
244.426	83.63
244.643	52.91
244.86	61.1
245.078	24.23
245.295	-10.58
245.512	32.43
245.729	-14.68
245.946	5.8
246.163	100.01
246.38	34.47
246.597	11.95
246.814	-10.58
247.031	38.57
247.248	24.23
247.464	149.16
247.681	63.15
247.898	26.28
248.115	34.47
248.332	-14.68
248.549	34.47
248.766	95.91
248.983	157.35
249.2	7.85
249.417	30.38
249.633	5.8
249.85	22.19
250.067	79.53
250.284	65.19
250.501	54.95
250.717	73.39
250.934	24.23
251.151	32.43
251.368	36.52
251.585	38.57
251.801	40.62
252.018	-14.68
252.235	42.67
252.451	54.95
252.668	-14.68
252.885	85.67
253.102	75.43
253.318	22.19
253.535	36.52
253.752	5.8
253.968	-20.82
254.185	42.67
254.401	40.62
254.618	54.95
254.835	91.82
255.051	28.33
255.268	50.86
255.484	24.23
255.701	50.86
255.917	44.71
256.134	-4.44
256.351	38.57
256.567	30.38
256.784	36.52
257	16.04
257.217	-20.82
257.433	20.14
257.65	59.05
257.866	36.52
258.082	18.09
258.299	-0.34
258.515	38.57
258.732	59.05
258.948	40.62
259.165	-16.73
259.381	-18.77
259.597	57
259.814	-22.87
260.03	-0.34
260.246	9.9
260.463	57
260.679	79.53
260.895	143.02
261.112	26.28
261.328	30.38
261.544	26.28
261.761	97.96
261.977	34.47
262.193	108.2
262.409	50.86
262.626	5.8
262.842	122.54
263.058	16.04
263.274	44.71
263.49	108.2
263.707	134.82
263.923	11.95
264.139	-10.58
264.355	-39.25
264.571	79.53
264.787	57
265.004	54.95
265.22	16.04
265.436	38.57
265.652	34.47
265.868	24.23
266.084	-4.44
266.3	-29.01
266.516	48.81
266.732	73.39
266.948	65.19
267.164	26.28
267.38	63.15
267.596	83.63
267.812	134.82
268.028	159.4
268.244	46.76
268.46	69.29
268.676	-0.34
268.892	11.95
269.108	38.57
269.324	5.8
269.54	-37.2
269.756	40.62
269.972	7.85
270.188	34.47
270.403	36.52
270.619	46.76
270.835	34.47
271.051	-12.63
271.267	79.53
271.483	24.23
271.698	73.39
271.914	83.63
272.13	28.33
272.346	32.43
272.562	85.67
272.777	-10.58
272.993	-6.49
273.209	93.87
273.425	30.38
273.64	40.62
273.856	32.43
274.072	-33.11
274.287	-0.34
274.503	28.33
274.719	69.29
274.934	63.15
275.15	-33.11
275.366	18.09
275.581	32.43
275.797	63.15
276.012	11.95
276.228	-2.39
276.444	28.33
276.659	75.43
276.875	42.67
277.09	54.95
277.306	22.19
277.521	26.28
277.737	100.01
277.952	9.9
278.168	11.95
278.383	67.24
278.599	9.9
278.814	28.33
279.03	26.28
279.245	48.81
279.461	7.85
279.676	24.23
279.892	-37.2
280.107	42.67
280.322	102.06
280.538	28.33
280.753	128.68
280.969	52.91
281.184	3.75
281.399	28.33
281.615	42.67
281.83	65.19
282.045	-31.06
282.26	-12.63
282.476	112.3
282.691	52.91
282.906	30.38
283.122	3.75
283.337	104.11
283.552	16.04
283.767	65.19
283.983	67.24
284.198	38.57
284.413	11.95
284.628	-8.53
284.843	114.34
285.058	75.43
285.274	46.76
285.489	54.95
285.704	71.34
285.919	34.47
286.134	40.62
286.349	38.57
286.564	116.39
286.779	63.15
286.995	91.82
287.21	-0.34
287.425	46.76
287.64	16.04
287.855	75.43
288.07	42.67
288.285	112.3
288.5	36.52
288.715	138.92
288.93	97.96
289.145	69.29
289.36	50.86
289.575	-10.58
289.79	114.34
290.004	52.91
290.219	69.29
290.434	13.99
290.649	65.19
290.864	54.95
291.079	18.09
291.294	34.47
291.509	54.95
291.724	54.95
291.938	48.81
292.153	-35.16
292.368	7.85
292.583	44.71
292.798	79.53
293.012	75.43
293.227	65.19
293.442	42.67
293.657	5.8
293.871	-24.92
294.086	73.39
294.301	-10.58
294.516	100.01
294.73	140.97
294.945	59.05
295.16	44.71
295.374	-16.73
295.589	67.24
295.804	9.9
296.018	9.9
296.233	79.53
296.447	-10.58
296.662	34.47
296.877	38.57
297.091	95.91
297.306	40.62
297.52	120.49
297.735	22.19
297.949	54.95
298.164	81.58
298.378	44.71
298.593	-29.01
298.807	65.19
299.022	69.29
299.236	59.05
299.451	32.43
299.665	59.05
299.88	-18.77
300.094	52.91
300.309	52.91
300.523	71.34
300.737	38.57
300.952	69.29
301.166	11.95
301.381	26.28
301.595	83.63
301.809	18.09
302.024	26.28
302.238	11.95
302.452	50.86
302.667	87.72
302.881	89.77
303.095	122.54
303.309	65.19
303.524	65.19
303.738	3.75
303.952	50.86
304.166	110.25
304.381	44.71
304.595	5.8
304.809	-6.49
305.023	30.38
305.237	20.14
305.452	20.14
305.666	-24.92
305.88	-2.39
306.094	11.95
306.308	110.25
306.522	50.86
306.736	30.38
306.95	67.24
307.164	77.48
307.379	63.15
307.593	28.33
307.807	36.52
308.021	57
308.235	18.09
308.449	32.43
308.663	89.77
308.877	85.67
309.091	85.67
309.305	42.67
309.519	16.04
309.733	91.82
309.947	1.71
310.161	59.05
310.374	48.81
310.588	122.54
310.802	116.39
311.016	22.19
311.23	38.57
311.444	-18.77
311.658	46.76
311.872	91.82
312.085	28.33
312.299	100.01
312.513	22.19
312.727	110.25
312.941	-39.25
313.154	50.86
313.368	24.23
313.582	147.11
313.796	54.95
314.009	20.14
314.223	85.67
314.437	54.95
314.651	26.28
314.864	5.8
315.078	40.62
315.292	42.67
315.505	9.9
315.719	20.14
315.933	42.67
316.146	59.05
316.36	36.52
316.573	24.23
316.787	69.29
317.001	69.29
317.214	28.33
317.428	18.09
317.641	3.75
317.855	59.05
318.068	26.28
318.282	-10.58
318.495	118.44
318.709	124.58
318.922	28.33
319.136	106.15
319.349	61.1
319.563	26.28
319.776	63.15
319.99	26.28
320.203	75.43
320.417	91.82
320.63	77.48
320.843	132.78
321.057	77.48
321.27	102.06
321.483	28.33
321.697	104.11
321.91	42.67
322.124	77.48
322.337	30.38
322.55	-0.34
322.763	61.1
322.977	50.86
323.19	75.43
323.403	13.99
323.617	54.95
323.83	83.63
324.043	81.58
324.256	108.2
324.469	18.09
324.683	50.86
324.896	16.04
325.109	69.29
325.322	-22.87
325.535	149.16
325.748	81.58
325.962	16.04
326.175	16.04
326.388	48.81
326.601	30.38
326.814	34.47
327.027	-14.68
327.24	128.68
327.453	-10.58
327.666	77.48
327.879	52.91
328.092	52.91
328.305	57
328.518	30.38
328.731	63.15
328.944	-10.58
329.157	69.29
329.37	26.28
329.583	48.81
329.796	24.23
330.009	52.91
330.222	79.53
330.435	-65.88
330.648	26.28
330.861	16.04
331.073	40.62
331.286	75.43
331.499	28.33
331.712	-16.73
331.925	97.96
332.138	67.24
332.35	112.3
332.563	61.1
332.776	36.52
332.989	-14.68
333.202	26.28
333.414	26.28
333.627	59.05
333.84	36.52
334.053	85.67
334.265	16.04
334.478	20.14
334.691	26.28
334.903	69.29
335.116	102.06
335.329	71.34
335.541	67.24
335.754	42.67
335.966	73.39
336.179	28.33
336.392	50.86
336.604	42.67
336.817	16.04
337.029	63.15
337.242	-0.34
337.454	30.38
337.667	28.33
337.88	5.8
338.092	26.28
338.305	65.19
338.517	3.75
338.729	46.76
338.942	22.19
339.154	-29.01
339.367	-24.92
339.579	42.67
339.792	114.34
340.004	75.43
340.217	59.05
340.429	65.19
340.641	-0.34
340.854	9.9
341.066	11.95
341.278	106.15
341.491	165.54
341.703	44.71
341.915	-31.06
342.128	73.39
342.34	18.09
342.552	42.67
342.764	-12.63
342.977	-4.44
343.189	42.67
343.401	5.8
343.613	40.62
343.826	-33.11
344.038	65.19
344.25	85.67
344.462	73.39
344.674	48.81
344.886	97.96
345.099	32.43
345.311	52.91
345.523	77.48
345.735	-37.2
345.947	-31.06
346.159	7.85
346.371	24.23
346.583	63.15
346.795	95.91
347.007	79.53
347.219	67.24
347.431	36.52
347.643	112.3
347.855	-2.39
348.067	38.57
348.279	114.34
348.491	44.71
348.703	22.19
348.915	71.34
349.127	-2.39
349.339	26.28
349.551	40.62
349.763	22.19
349.975	36.52
350.187	75.43
350.399	69.29
350.61	54.95
350.822	42.67
351.034	75.43
351.246	11.95
351.458	67.24
351.669	-0.34
351.881	36.52
352.093	40.62
352.305	97.96
352.517	11.95
352.728	65.19
352.94	65.19
353.152	81.58
353.363	26.28
353.575	28.33
353.787	95.91
353.999	128.68
354.21	95.91
354.422	93.87
354.633	16.04
354.845	73.39
355.057	106.15
355.268	46.76
355.48	36.52
355.692	-31.06
355.903	40.62
356.115	65.19
356.326	11.95
356.538	48.81
356.749	77.48
356.961	59.05
357.172	-0.34
357.384	71.34
357.595	59.05
357.807	75.43
358.018	34.47
358.23	22.19
358.441	26.28
358.653	102.06
358.864	-24.92
359.075	57
359.287	79.53
359.498	67.24
359.709	-16.73
359.921	77.48
360.132	38.57
360.344	-18.77
360.555	-8.53
360.766	36.52
360.977	-4.44
361.189	87.72
361.4	93.87
361.611	95.91
361.823	89.77
362.034	26.28
362.245	34.47
362.456	24.23
362.667	24.23
362.879	77.48
363.09	104.11
363.301	48.81
363.512	57
363.723	116.39
363.935	77.48
364.146	85.67
364.357	59.05
364.568	24.23
364.779	93.87
364.99	18.09
365.201	65.19
365.412	28.33
365.623	63.15
365.834	95.91
366.045	71.34
366.256	134.82
366.467	36.52
366.678	54.95
366.889	20.14
367.1	11.95
367.311	36.52
367.522	57
367.733	42.67
367.944	26.28
368.155	-2.39
368.366	126.63
368.577	77.48
368.788	13.99
368.999	1.71
369.209	112.3
369.42	-0.34
369.631	108.2
369.842	110.25
370.053	36.52
370.264	16.04
370.474	32.43
370.685	120.49
370.896	18.09
371.107	198.31
371.317	102.06
371.528	36.52
371.739	169.64
371.95	48.81
372.16	79.53
372.371	9.9
372.582	38.57
372.792	34.47
373.003	95.91
373.214	30.38
373.424	77.48
373.635	18.09
373.846	77.48
374.056	95.91
374.267	91.82
374.477	106.15
374.688	79.53
374.898	61.1
375.109	30.38
375.319	52.91
375.53	26.28
375.74	42.67
375.951	85.67
376.161	73.39
376.372	36.52
376.582	67.24
376.793	36.52
377.003	34.47
377.214	38.57
377.424	116.39
377.635	32.43
377.845	30.38
378.055	54.95
378.266	54.95
378.476	-6.49
378.686	46.76
378.897	59.05
379.107	42.67
379.317	63.15
379.528	75.43
379.738	34.47
379.948	48.81
380.158	59.05
380.369	20.14
380.579	116.39
380.789	59.05
380.999	71.34
381.21	38.57
381.42	71.34
381.63	52.91
381.84	46.76
382.05	73.39
382.261	106.15
382.471	93.87
382.681	85.67
382.891	50.86
383.101	65.19
383.311	11.95
383.521	7.85
383.731	59.05
383.941	163.5
384.151	57
384.361	143.02
384.571	61.1
384.781	95.91
384.991	93.87
385.201	67.24
385.411	1.71
385.621	59.05
385.831	106.15
386.041	93.87
386.251	52.91
386.461	50.86
386.671	24.23
386.881	61.1
387.091	116.39
387.301	106.15
387.511	100.01
387.72	65.19
387.93	57
388.14	65.19
388.35	16.04
388.56	124.58
388.769	3.75
388.979	75.43
389.189	36.52
389.399	-20.82
389.609	132.78
389.818	106.15
390.028	179.88
390.238	65.19
390.447	46.76
390.657	61.1
390.867	97.96
391.076	104.11
391.286	44.71
391.496	32.43
391.705	71.34
391.915	134.82
392.125	38.57
392.334	110.25
392.544	106.15
392.753	104.11
392.963	57
393.172	52.91
393.382	50.86
393.591	122.54
393.801	69.29
394.01	114.34
394.22	108.2
394.429	114.34
394.639	61.1
394.848	71.34
395.058	91.82
395.267	110.25
395.477	30.38
395.686	136.87
395.895	136.87
396.105	114.34
396.314	85.67
396.524	52.91
396.733	85.67
396.942	83.63
397.152	93.87
397.361	93.87
397.57	65.19
397.78	50.86
397.989	106.15
398.198	116.39
398.407	79.53
398.617	77.48
398.826	71.34
399.035	114.34
399.244	128.68
399.453	44.71
399.663	83.63
399.872	151.21
400.081	18.09
400.29	97.96
400.499	145.06
400.708	124.58
400.917	120.49
401.127	79.53
401.336	106.15
401.545	149.16
401.754	44.71
401.963	136.87
402.172	106.15
402.381	181.93
402.59	63.15
402.799	128.68
403.008	198.31
403.217	126.63
403.426	147.11
403.635	52.91
403.844	163.5
404.053	126.63
404.262	124.58
404.471	188.07
404.68	91.82
404.888	155.3
405.097	59.05
405.306	102.06
405.515	128.68
405.724	108.2
405.933	108.2
406.142	169.64
406.35	212.65
406.559	151.21
406.768	231.08
406.977	159.4
407.185	208.55
407.394	163.5
407.603	173.74
407.812	220.84
408.02	167.59
408.229	235.18
408.438	186.02
408.646	155.3
408.855	198.31
409.064	280.23
409.272	278.18
409.481	239.27
409.69	192.17
409.898	167.59
410.107	253.61
410.315	308.9
410.524	282.28
410.733	306.85
410.941	327.33
411.15	319.14
411.358	290.47
411.567	413.35
411.775	378.53
411.984	343.72
412.192	376.48
412.401	341.67
412.609	495.27
412.818	448.16
413.026	429.73
413.234	425.64
413.443	460.45
413.651	476.84
413.86	501.41
414.068	470.69
414.276	550.56
414.485	566.95
414.693	626.34
414.901	571.04
415.11	659.1
415.318	626.34
415.526	634.53
415.734	661.15
415.943	679.58
416.151	675.49
416.359	622.24
416.567	736.93
416.776	747.17
416.984	851.61
417.192	851.61
417.4	861.85
417.608	788.13
417.817	847.52
418.025	919.2
418.233	1023.64
418.441	921.24
418.649	1015.45
418.857	1113.75
419.065	1138.33
419.273	1035.93
419.481	1087.13
419.689	1158.81
419.897	1226.39
420.105	1293.97
420.313	1216.15
420.521	1373.85
420.729	1443.48
420.937	1375.89
421.145	1488.53
421.353	1543.83
421.561	1615.51
421.769	1662.61
421.977	1683.09
422.185	1640.08
422.393	1801.87
422.601	1937.04
422.809	1808.02
423.017	1875.6
423.224	1904.27
423.432	2137.74
423.64	2092.68
423.848	2205.32
424.056	2231.94
424.263	2363.01
424.471	2379.4
424.679	2453.13
424.887	2543.24
425.094	2649.73
425.302	2643.59
425.51	2653.83
425.718	2782.85
425.925	2805.38
426.133	2991.74
426.341	3067.52
426.548	3260.02
426.756	3229.31
426.964	3278.46
427.171	3591.8
427.379	3653.23
427.586	3411.57
427.794	3718.77
428.001	3855.98
428.209	4187.75
428.417	3931.76
428.624	4343.4
428.832	4284.01
429.039	4200.04
429.247	4228.71
429.454	4681.32
429.662	5015.13
429.869	4556.39
430.076	4920.93
430.284	4894.3
430.491	5125.72
430.699	5404.25
430.906	5418.58
431.114	5336.67
431.321	5654.1
431.528	5733.97
431.736	6135.37
431.943	6426.18
432.15	6239.82
432.358	6323.79
432.565	6575.69
432.772	6538.82
432.979	6948.42
433.187	7112.25
433.394	6983.23
433.601	7511.61
433.808	7632.44
434.016	7476.79
434.223	7747.12
434.43	8310.32
434.637	8062.51
434.844	8715.81
435.052	8740.39
435.259	8799.78
435.466	8881.7
435.673	8705.57
435.88	9569.82
436.087	9850.39
436.294	9958.93
436.501	9487.9
436.708	9686.55
436.915	10157.58
437.122	10620.42
437.329	10448.4
437.537	10817.03
437.743	10995.2
437.95	11138.56
438.157	11709.94
438.364	11937.27
438.571	11771.38
438.778	12006.9
438.985	13118.95
439.192	12643.82
439.399	13012.45
439.606	12860.9
439.813	13389.28
440.02	14357.97
440.227	13991.38
440.433	13921.75
440.64	14380.5
440.847	14351.82
441.054	14552.52
441.261	15742.39
441.467	15242.69
441.674	15738.3
441.881	15924.66
442.088	16238
442.294	15918.52
442.501	16698.8
442.708	16686.51
442.914	17384.87
443.121	18288.02
443.328	17657.25
443.534	18963.85
443.741	18515.34
443.948	18029.98
444.154	19619.2
444.361	19508.61
444.568	19690.88
444.774	19735.93
444.981	19635.58
445.187	20422
445.394	21097.83
445.6	20753.77
445.807	22881.61
446.013	22066.52
446.22	22469.97
446.426	23186.76
446.633	23371.08
446.839	24237.37
447.046	23252.3
447.252	24565.04
447.459	24681.78
447.665	24458.55
447.871	25361.7
448.078	26946.83
448.284	25644.32
448.491	26395.93
448.697	26971.41
448.903	27358.47
449.11	27573.51
449.316	27051.28
449.522	27624.71
449.728	28296.44
449.935	28679.41
450.141	28603.64
450.347	29252.84
450.553	28237.05
450.76	28982.51
450.966	29598.95
451.172	29420.78
451.378	29904.1
451.584	29443.31
451.791	30483.67
451.997	30026.98
452.203	30510.3
452.409	30868.69
452.615	30149.85
452.821	29537.51
453.027	29000.94
453.233	30506.2
453.44	29601
453.646	29418.73
453.852	29537.51
454.058	30037.22
454.264	29218.03
454.47	29877.47
454.676	29603.05
454.882	30121.18
455.088	27510.02
455.294	27714.82
455.5	28316.92
455.705	28480.76
455.911	27088.14
456.117	26922.26
456.323	26580.25
456.529	25070.89
456.735	26268.95
456.941	25390.38
457.147	25017.64
457.352	24364.34
457.558	24292.66
457.764	24112.44
457.97	24132.92
458.176	23061.83
458.381	23192.9
458.587	22199.64
458.793	22031.71
458.999	20831.6
459.204	22445.4
459.41	21630.3
459.616	20387.19
459.821	20323.7
460.027	20444.53
460.233	19862.91
460.438	18853.26
460.644	19137.93
460.85	18265.49
461.055	18101.65
461.261	17970.58
461.466	16623.02
461.672	16072.12
461.878	17442.21
462.083	16113.08
462.289	15867.32
462.494	15541.69
462.7	14788.04
462.905	14767.56
463.111	15062.47
463.316	15066.56
463.522	14742.99
463.727	14921.16
463.932	14837.19
464.138	14650.83
464.343	14771.66
464.549	14286.29
464.754	14654.92
464.959	14579.15
465.165	14601.68
465.37	14011.86
465.575	13663.71
465.781	14237.14
465.986	14065.11
466.191	13886.93
466.397	13295.07
466.602	12623.34
466.807	13227.49
467.012	13293.02
467.218	13034.98
467.423	12957.16
467.628	13014.5
467.833	13762.01
468.038	13084.13
468.244	12668.39
468.449	13186.53
468.654	12756.46
468.859	12729.83
469.064	12602.86
469.269	12178.93
469.474	12416.49
469.679	12398.06
469.885	12154.35
470.09	12371.44
470.295	12066.29
470.5	11947.51
470.705	12080.63
470.91	11832.82
471.115	11714.04
471.32	11787.77
471.525	11771.38
471.73	11462.14
471.935	11292.16
472.139	11236.86
472.344	11173.38
472.549	11093.51
472.754	11040.26
472.959	10743.3
473.164	10493.45
473.369	10380.81
473.574	10653.19
473.778	10599.94
473.983	10567.18
474.188	10563.08
474.393	10096.14
474.598	9960.98
474.802	9932.31
475.007	9836.05
475.212	9881.11
475.417	9483.8
475.621	9395.74
475.826	9537.05
476.031	9428.51
476.235	9391.64
476.44	9408.03
476.645	9213.47
476.849	9498.14
477.054	8953.38
477.259	8986.15
477.463	8859.17
477.668	8605.22
477.872	8830.5
478.077	8724.01
478.282	8338.99
478.486	8414.76
478.691	8502.82
478.895	8320.56
479.1	8320.56
479.304	8353.32
479.509	8115.76
479.713	8302.12
479.918	8033.84
480.122	7867.95
480.326	7925.3
480.531	7953.97
480.735	7857.71
480.94	7675.45
481.144	8072.75
481.348	7667.25
481.553	7865.91
481.757	7538.23
481.961	7753.27
482.166	7863.86
482.37	7636.53
482.574	7710.26
482.778	7757.36
482.983	7878.19
483.187	7618.1
483.391	7595.57
483.595	7720.5
483.8	7499.32
484.004	7530.04
484.208	7798.32
484.412	7749.17
484.616	7794.23
484.821	7763.51
485.025	7519.8
485.229	7775.8
485.433	7808.56
485.637	7530.04
485.841	7618.1
486.045	7702.07
486.249	7835.19
486.453	7566.9
486.657	7820.85
486.861	7689.78
487.065	7407.16
487.269	7605.81
487.473	7411.26
487.677	7786.04
487.881	7747.12
488.085	7675.45
488.289	7732.79
488.493	7634.49
488.697	7728.69
488.901	7779.89
489.105	7642.68
489.309	7607.86
489.512	7650.87
489.716	7867.95
489.92	7794.23
490.124	7800.37
490.328	7876.15
490.531	7697.97
490.735	8070.7
490.939	7857.71
491.143	7980.59
491.346	7790.13
491.55	8031.79
491.754	7917.11
491.958	8126
492.161	8033.84
492.365	8164.91
492.569	8279.6
492.772	8207.92
492.976	8181.29
493.18	8293.93
493.383	8222.25
493.587	8588.84
493.79	8412.71
493.994	8492.59
494.197	8468.01
494.401	8586.79
494.605	8566.31
494.808	8810.02
495.012	8646.18
495.215	8681
495.419	8965.67
495.622	8805.92
495.825	8916.51
496.029	9051.68
496.232	9367.07
496.436	8980
496.639	9238.05
496.843	9188.89
497.046	9580.06
497.249	9455.13
497.453	9668.12
497.656	9569.82
497.859	9543.19
498.063	9690.65
498.266	9977.36
498.469	9893.4
498.673	10198.54
498.876	10259.98
499.079	10266.13
499.282	10270.22
499.485	10468.87
499.689	10425.87
499.892	10698.25
500.095	10898.95
500.298	11030.02
500.501	10804.74
500.705	11378.17
500.908	11429.37
501.111	11394.56
501.314	11580.92
501.517	11552.25
501.72	11800.05
501.923	11742.71
502.126	11843.06
502.329	12355.05
502.532	12170.74
502.735	12353.01
502.938	12688.87
503.141	12455.4
503.344	12912.1
503.547	12840.42
503.75	13012.45
503.953	13151.71
504.156	13252.06
504.359	13882.84
504.562	13530.59
504.765	13919.7
504.968	13837.78
505.17	14077.4
505.373	14237.14
505.576	14421.45
505.779	14599.63
505.982	14546.38
506.185	15070.66
506.387	15027.65
506.59	15128
506.793	15396.29
506.996	15246.79
507.198	15734.2
507.401	15691.2
507.604	15922.62
507.807	16453.04
508.009	15992.25
508.212	16430.51
508.415	16596.4
508.617	16926.12
508.82	16719.28
509.022	16868.78
509.225	17159.59
509.428	17479.07
509.63	17474.98
509.833	17540.51
510.035	17960.34
510.238	17943.96
510.44	18304.4
510.643	18331.03
510.845	18458
511.048	18386.32
511.25	18650.51
511.453	19096.97
511.655	19434.88
511.858	19400.07
512.06	19686.78
512.262	19867
512.465	19893.63
512.667	20061.56
512.87	20401.52
513.072	20313.46
513.274	20456.82
513.477	21177.7
513.679	21405.03
513.881	21550.43
514.084	21464.42
514.286	21857.63
514.488	21726.56
514.69	22363.48
514.893	22340.95
515.095	22527.31
515.297	23002.44
515.499	22629.71
515.701	23203.14
515.904	23475.52
516.106	23487.81
516.308	23508.29
516.51	24192.31
516.712	24192.31
516.914	24352.06
517.116	24628.53
517.318	24743.22
517.52	25091.37
517.722	24991.02
517.925	25373.99
518.127	25482.53
518.329	25834.78
518.531	25750.82
518.733	26283.29
518.935	26289.43
519.136	26307.87
519.338	27014.41
519.54	27161.87
519.742	27180.3
519.944	27385.1
520.146	27772.16
520.348	28067.07
520.55	28148.99
520.752	28454.14
520.954	28538.1
521.155	28411.13
521.357	29076.72
521.559	29191.41
521.761	29762.79
521.963	29588.71
522.164	29695.21
522.366	29854.95
522.568	30115.04
522.77	30434.52
522.971	30831.83
523.173	30319.84
523.375	30721.24
523.576	30708.95
523.778	30661.85
523.98	31444.17
524.181	31368.4
524.383	31462.6
524.584	32122.05
524.786	31853.76
524.988	32003.27
525.189	32193.73
525.391	32634.04
525.592	32808.12
525.794	32578.75
525.995	33092.79
526.197	33160.37
526.398	33154.22
526.6	33395.89
526.801	33522.86
527.003	33916.07
527.204	33436.84
527.406	33766.57
527.607	33946.79
527.808	34540.7
528.01	33873.06
528.211	34075.81
528.412	34464.92
528.614	34471.07
528.815	34442.4
529.016	34722.97
529.218	34452.64
529.419	34862.23
529.62	34737.3
529.822	34870.42
530.023	35069.08
530.224	34780.31
530.425	35099.8
530.626	34790.55
530.828	34849.94
531.029	35845.26
531.23	35050.64
531.431	35400.85
531.632	35329.17
531.833	35642.51
532.035	35785.86
532.236	35613.84
532.437	35910.79
532.638	35849.35
532.839	35857.54
533.04	35878.02
533.241	35902.6
533.442	36398.21
533.643	35779.72
533.844	35566.73
534.045	36252.8
534.246	35943.56
534.447	36213.89
534.648	35771.53
534.849	36230.27
535.05	35923.08
535.251	35970.18
535.451	36062.34
535.652	36078.72
535.853	35890.31
536.054	35949.7
536.255	36117.64
536.456	35734.67
536.657	36453.5
536.857	36074.63
537.058	35878.02
537.259	36027.52
537.46	36230.27
537.66	36082.82
537.861	35980.42
538.062	36103.3
538.263	36279.43
538.463	36058.24
538.664	36287.62
538.865	36277.38
539.065	36508.8
539.266	36050.05
539.466	36476.03
539.667	35839.11
539.868	36387.97
540.068	36435.07
540.269	36304
540.469	35974.28
540.67	35939.46
540.87	36033.67
541.071	35931.27
541.271	36091.01
541.472	36134.02
541.672	35525.77
541.873	35955.85
542.073	35316.88
542.274	36297.86
542.474	36295.81
542.675	36066.44
542.875	36580.48
543.075	36091.01
543.276	35474.57
543.476	36211.84
543.676	35839.11
543.877	36207.75
544.077	36164.74
544.277	35927.17
544.478	35654.79
544.678	36152.45
544.878	35984.52
545.078	36011.14
545.279	35538.06
545.479	35875.98
545.679	35968.13
545.879	36082.82
546.079	36095.11
546.28	35669.13
546.48	35521.68
546.68	36187.27
546.88	35841.16
547.08	35591.31
547.28	35945.61
547.48	35382.41
547.68	35505.29
547.88	35640.46
548.081	36115.59
548.281	35468.43
548.481	35742.86
548.681	35765.38
548.881	35400.85
549.081	35619.98
549.28	35626.12
549.48	35808.39
549.68	35814.54
549.88	36129.92
550.08	35374.22
550.28	35339.41
550.48	35386.51
550.68	36013.19
550.88	35538.06
551.08	35996.81
551.279	35927.17
551.479	35341.46
551.679	35591.31
551.879	35335.31
552.079	35646.6
552.278	35351.7
552.478	35734.67
552.678	35579.02
552.878	35777.67
553.077	35368.08
553.277	35097.75
553.477	35636.36
553.676	35339.41
553.876	35232.91
554.076	35220.63
554.275	35107.99
554.475	34776.22
554.674	35261.58
554.874	35194
555.074	34985.11
555.273	35263.63
555.473	35234.96
555.672	35007.64
555.872	35218.58
556.071	35284.11
556.271	35026.07
556.47	34796.7
556.67	34647.19
556.869	34602.14
557.068	35335.31
557.268	34778.26
557.467	34811.03
557.667	34788.5
557.866	34772.12
558.065	35073.17
558.265	34208.93
558.464	34630.81
558.663	35026.07
558.863	34430.11
559.062	35230.87
559.261	34159.78
559.461	34661.53
559.66	33954.98
559.859	34317.47
560.058	34526.36
560.258	34479.26
560.457	33887.4
560.656	34301.09
560.855	34139.3
561.054	34116.77
561.253	33795.24
561.453	34053.28
561.652	34063.52
561.851	33684.65
562.05	33905.83
562.249	33881.25
562.448	33920.17
562.647	33787.05
562.846	33617.07
563.045	33518.76
563.244	33029.3
563.443	33602.73
563.642	33133.75
563.841	33479.85
564.04	33207.47
564.239	33451.18
564.438	33336.49
564.637	33242.29
564.836	32861.37
565.035	32609.47
565.234	32875.7
565.432	32365.76
565.631	32980.15
565.83	32914.61
566.029	32292.03
566.228	32353.47
566.427	32609.47
566.625	32462.01
566.824	32138.43
567.023	32206.02
567.222	31536.33
567.42	32304.32
567.619	32132.29
567.818	31857.86
568.016	32058.56
568.215	32369.85
568.414	31507.66
568.612	31968.45
568.811	31878.34
569.01	31634.63
569.208	31227.09
569.407	31661.26
569.605	31427.79
569.804	32015.55
570.002	30878.93
570.201	31347.92
570.4	30891.22
570.598	30762.2
570.797	30729.43
570.995	30813.4
571.193	30579.93
571.392	30858.45
571.59	30475.48
571.789	30502.11
571.987	30381.28
572.186	30420.19
572.384	30246.11
572.582	30162.14
572.781	30231.77
572.979	30102.75
573.177	30065.89
573.376	29922.53
573.574	29519.08
573.772	29660.39
573.971	29719.78
574.169	29609.19
574.367	29351.15
574.565	29711.59
574.763	29277.42
574.962	29263.08
575.16	29258.99
575.358	29285.61
575.556	28916.98
575.754	29486.31
575.952	28714.23
576.151	29089.01
576.349	28456.18
576.547	28701.94
576.745	28689.65
576.943	28822.77
577.141	28724.47
577.339	28204.28
577.537	28460.28
577.735	28415.23
577.933	28263.68
578.131	28267.77
578.329	28284.16
578.527	28224.76
578.725	28171.52
578.923	28267.77
579.121	27729.16
579.319	27548.93
579.516	27878.66
579.714	27596.04
579.912	27553.03
580.11	27436.3
580.308	27827.46
580.506	27415.82
580.704	26651.92
580.901	27145.48
581.099	27407.62
581.297	27149.58
581.495	26807.57
581.692	27006.22
581.89	26623.25
582.088	27051.28
582.285	26772.75
582.483	26782.99
582.681	26723.6
582.878	26549.53
583.076	26213.66
583.274	26461.46
583.471	26090.78
583.669	26115.36
583.866	26225.95
584.064	26475.8
584.262	25969.95
584.459	26031.39
584.657	25734.43
584.854	26021.15
585.052	25578.79
585.249	25855.26
585.447	26027.29
585.644	25474.34
585.841	25505.06
586.039	25781.54
586.236	25290.02
586.434	25036.08
586.631	24892.72
586.828	25158.95
587.026	25054.51
587.223	24919.34
587.42	25173.29
587.618	24702.26
587.815	24634.67
588.012	24601.91
588.21	24470.84
588.407	24823.09
588.604	24560.95
588.801	24180.03
588.999	24452.41
589.196	24393.01
589.393	24577.33
589.59	24159.55
589.787	24128.83
589.984	24180.03
590.182	23971.13
590.379	24485.17
590.576	23887.17
590.773	23776.58
590.97	23655.75
591.167	23870.78
591.364	23344.45
591.561	23401.8
591.758	23287.11
591.955	23401.8
592.152	23319.88
592.349	22943.05
592.546	23010.64
592.743	23156.04
592.94	22650.19
593.137	23029.07
593.334	22912.33
593.531	22627.67
593.727	22906.19
593.924	22703.44
594.121	22646.1
594.318	22801.74
594.515	22396.24
594.712	22666.58
594.908	22519.12
595.105	22486.36
595.302	22125.91
595.499	22226.26
595.696	22273.37
595.892	21900.64
596.089	22000.99
596.286	22037.85
596.482	21775.71
596.679	21941.6
596.876	21822.81
597.072	21677.41
597.269	21923.16
597.466	21669.22
597.662	21495.14
597.859	21396.84
598.055	21357.92
598.252	21138.79
598.448	21271.91
598.645	21273.96
598.841	20972.91
599.038	21241.19
599.234	21558.63
599.431	20614.51
599.627	20852.08
599.824	21056.87
600.02	20542.83
600.217	20688.24
600.413	20780.4
600.609	20411.76
600.806	20428.15
601.002	20477.3
601.198	20479.35
601.395	20290.93
601.591	20487.54
601.787	20325.75
601.984	20049.27
602.18	20282.74
602.376	19977.59
602.572	20018.55
602.769	19842.43
602.965	19707.26
603.161	19801.47
603.357	19406.21
603.553	19553.66
603.75	19688.83
603.946	19469.7
604.142	19705.21
604.338	19307.91
604.534	19484.03
604.73	19228.04
604.926	19013
605.122	19207.56
605.318	19094.92
605.514	18691.47
605.71	19051.91
605.906	19010.95
606.102	18761.1
606.298	18779.53
606.494	19043.72
606.69	18818.44
606.886	18695.57
607.082	18539.92
607.278	18675.09
607.474	18337.17
607.67	18863.5
607.866	18310.55
608.062	18648.46
608.257	18443.67
608.453	18443.67
608.649	18511.25
608.845	18042.26
609.041	18406.8
609.236	18441.62
609.432	18208.15
609.628	18161.05
609.824	18142.61
610.019	18089.37
610.215	18097.56
610.411	17849.75
610.606	17958.3
610.802	18027.93
610.998	17962.39
611.193	17681.82
611.389	17786.27
611.584	17651.1
611.78	17517.98
611.976	17872.28
612.171	18081.17
612.367	17649.05
612.562	17671.58
612.758	17286.56
612.953	17173.92
613.149	17536.42
613.344	17378.72
613.539	17589.66
613.735	17345.95
613.93	17671.58
614.126	17403.3
614.321	17608.09
614.517	17348
614.712	17221.03
614.907	17206.69
615.103	17311.14
615.298	16965.03
615.493	17063.33
615.688	16741.8
615.884	17311.14
616.079	16819.63
616.274	16942.5
616.47	17178.02
616.665	17069.48
616.86	16616.88
617.055	16776.62
617.25	16807.34
617.445	16825.77
617.641	16332.21
617.836	16969.13
618.031	16522.67
618.226	16825.77
618.421	16537.01
618.616	16590.25
618.811	16219.57
619.006	16428.46
619.201	16037.3
619.396	16350.64
619.591	15906.23
619.786	16180.66
619.981	15754.68
620.176	16084.41
620.371	16057.78
620.566	15828.41
620.761	15726.01
620.956	15922.62
621.151	15605.18
621.346	15689.15
621.541	15277.51
621.735	15754.68
621.93	15232.45
622.125	15007.17
622.32	15085
622.515	15039.94
622.709	14939.59
622.904	14855.62
623.099	14845.38
623.294	14816.71
623.488	14861.77
623.683	14534.09
623.878	14589.39
624.072	14599.63
624.267	14575.05
624.462	14304.72
624.656	14101.97
624.851	14329.3
625.046	14190.03
625.24	14214.61
625.435	14085.59
625.629	14054.87
625.824	14101.97
626.018	13667.8
626.213	13512.16
626.407	13538.78
626.602	13551.07
626.796	13491.68
626.991	13792.73
627.185	13166.05
627.38	13272.54
627.574	13123.04
627.768	13057.51
627.963	13100.51
628.157	12889.57
628.352	13102.56
628.546	12674.54
628.74	12750.31
628.935	12729.83
629.129	12576.23
629.323	12490.22
629.517	12445.16
629.712	12623.34
629.906	12514.8
630.1	12381.68
630.294	12277.23
630.489	12105.2
630.683	12269.04
630.877	12090.87
631.071	11869.69
631.265	12060.15
631.459	11896.31
631.653	11724.28
631.848	11644.41
632.042	11726.33
632.236	11752.95
632.43	11304.45
632.624	11531.77
632.818	11550.2
633.012	11324.93
633.206	11417.08
633.4	11433.47
633.594	11132.42
633.788	11212.29
633.982	11216.38
634.176	11013.63
634.369	10964.48
634.563	10892.8
634.757	10909.19
634.951	10905.09
635.145	10679.82
635.339	10806.79
635.533	10575.37
635.726	10536.46
635.92	10698.25
636.114	10579.47
636.308	10491.4
636.501	10354.19
636.695	10331.66
636.889	10169.87
637.083	10264.08
637.276	10016.27
637.47	9915.92
637.664	10130.96
637.857	10073.62
638.051	9848.34
638.244	10038.8
638.438	10016.27
638.632	9719.32
638.825	9594.39
639.019	9682.45
639.212	9575.96
639.406	9553.43
639.599	9664.02
639.793	9653.78
639.986	9440.79
640.18	9477.66
640.373	9444.89
640.567	9305.63
640.76	9008.67
640.954	9088.54
641.147	9076.26
641.34	8969.76
641.534	9068.06
641.727	8961.57
641.92	8816.16
642.114	8900.13
642.307	8906.27
642.5	8855.08
642.694	8760.87
642.887	8590.89
643.08	8611.37
643.273	8713.77
643.467	8441.39
643.66	8459.82
643.853	8357.42
644.046	8408.62
644.239	8302.12
644.432	8304.17
644.626	8338.99
644.819	8326.7
645.012	8267.31
645.205	8291.88
645.398	8187.44
645.591	8037.94
645.784	8099.38
645.977	7900.72
646.17	8093.23
646.363	7831.09
646.556	7745.08
646.749	7726.64
646.942	7824.95
647.135	7714.36
647.328	7753.27
647.521	7798.32
647.714	7507.51
647.907	7671.35
648.099	7433.79
648.292	7568.95
648.485	7419.45
648.678	7370.3
648.871	7335.48
649.064	7312.96
649.256	7294.52
649.449	7343.67
649.642	7269.95
649.835	7177.79
650.027	7147.07
650.22	7089.73
650.413	7274.04
650.605	6975.04
650.798	6975.04
650.991	6968.9
651.183	6925.89
651.376	6966.85
651.568	7056.96
651.761	6823.49
651.954	6657.61
652.146	6757.96
652.339	6620.74
652.531	6526.54
652.724	6417.99
652.916	6458.95
653.109	6618.69
653.301	6491.72
653.494	6559.3
653.686	6327.88
653.879	6491.72
654.071	6422.09
654.263	6477.38
654.456	6372.94
654.648	6401.61
654.84	6213.2
655.033	6221.39
655.225	6293.07
655.417	6012.49
655.61	6125.13
655.802	6092.37
655.994	5998.16
656.186	6149.71
656.379	5838.42
656.571	5973.58
656.763	5793.36
656.955	5981.78
657.148	5971.54
657.34	5867.09
657.532	5836.37
657.724	5873.23
657.916	5848.66
658.108	5738.07
658.3	5836.37
658.492	5594.71
658.684	5678.68
658.876	5594.71
659.068	5652.05
659.26	5664.34
659.452	5643.86
659.644	5588.57
659.836	5506.65
660.028	5680.72
660.22	5504.6
660.412	5406.3
660.604	5357.14
660.796	5324.38
660.988	5353.05
661.18	5353.05
661.372	5301.85
661.563	5314.14
661.755	5428.82
661.947	5238.36
662.139	5226.07
662.331	5248.6
662.522	5146.2
662.714	5189.21
662.906	5142.11
663.097	5185.12
663.289	5011.04
663.481	5146.2
663.673	5002.85
663.864	4877.92
664.056	5078.62
664.247	4910.69
664.439	4781.67
664.631	4869.73
664.822	4906.59
665.014	4886.11
665.205	4777.57
665.397	4664.93
665.588	4646.5
665.78	4675.17
665.971	4675.17
666.163	4718.18
666.354	4509.29
666.546	4636.26
666.737	4583.01
666.929	4404.84
667.12	4642.4
667.311	4535.91
667.503	4542.05
667.694	4533.86
667.885	4497
668.077	4564.58
668.268	4458.09
668.459	4560.49
668.651	4535.91
668.842	4472.42
669.033	4220.52
669.224	4359.78
669.416	4423.27
669.607	4302.44
669.798	4372.07
669.989	4349.54
670.18	4273.77
670.371	4316.78
670.563	4370.02
670.754	4212.33
670.945	4419.18
671.136	4259.43
671.327	4197.99
671.518	4226.67
671.709	4044.4
671.9	4122.22
672.091	4103.79
672.282	4146.8
672.473	4089.45
672.664	4015.73
672.855	4054.64
673.046	4111.98
673.237	4105.84
673.428	3968.62
673.619	4007.53
673.809	3915.37
674	4046.44
674.191	4083.31
674.382	3939.95
674.573	3921.52
674.764	3962.48
674.954	3876.46
675.145	3911.28
675.336	3964.53
675.527	3855.98
675.717	3749.49
675.908	3999.34
676.099	3898.99
676.289	3923.57
676.48	3866.22
676.671	3878.51
676.861	3772.02
677.052	3800.69
677.243	3669.62
677.433	3880.56
677.624	3763.83
677.814	3806.83
678.005	3698.29
678.195	3645.04
678.386	3724.91
678.576	3751.54
678.767	3894.9
678.957	3628.66
679.148	3630.71
679.338	3708.53
679.529	3597.94
679.719	3657.33
679.909	3716.72
680.1	3698.29
680.29	3763.83
680.481	3774.07
680.671	3673.71
680.861	3581.56
681.052	3788.4
681.242	3645.04
681.432	3819.12
681.622	3599.99
681.813	3589.75
682.003	3636.85
682.193	3481.21
682.383	3475.06
682.573	3608.18
682.764	3479.16
682.954	3571.32
683.144	3550.84
683.334	3505.78
683.524	3401.33
683.714	3634.8
683.904	3413.62
684.094	3485.3
684.284	3423.86
684.474	3501.69
684.664	3536.5
684.854	3456.63
685.044	3458.68
685.234	3413.62
685.424	3548.79
685.614	3294.84
685.804	3362.42
685.994	3438.2
686.184	3493.49
686.374	3391.09
686.564	3309.18
686.753	3294.84
686.943	3337.85
687.133	3403.38
687.323	3280.5
687.513	3346.04
687.702	3276.41
687.892	3333.75
688.082	3223.16
688.272	3229.31
688.461	3188.35
688.651	3413.62
688.841	3151.48
689.03	3227.26
689.22	3147.39
689.41	3188.35
689.599	3122.81
689.789	3059.32
689.979	3059.32
690.168	3085.95
690.358	3085.95
690.547	3044.99
690.737	3071.61
690.926	3038.84
691.116	3014.27
691.305	3190.39
691.495	2918.01
691.684	3067.52
691.874	3038.84
692.063	2999.93
692.252	3053.18
692.442	2963.07
692.631	2993.79
692.82	2954.88
693.01	2883.2
693.199	2909.82
693.388	2825.86
693.578	2946.69
693.767	2788.99
693.956	2807.42
694.146	2821.76
694.335	2901.63
694.524	2823.81
694.713	2934.4
694.902	2854.53
695.092	2791.04
695.281	2756.22
695.47	2719.36
695.659	2760.32
695.848	2743.94
696.037	2840.19
696.226	2879.1
696.415	2819.71
696.604	2866.81
696.793	2711.17
696.982	2731.65
697.171	2840.19
697.36	2731.65
697.549	2723.46
697.738	2694.79
697.927	2657.92
698.116	2702.98
698.305	2844.29
698.494	2563.72
698.683	2571.91
698.872	2674.31
699.061	2651.78
699.25	2641.54
699.438	2674.31
699.627	2684.55
699.816	2745.98
700.005	2670.21
700.193	2643.59
700.382	2739.84
700.571	2602.63
700.76	2662.02
700.948	2717.31
701.137	2535.04
701.326	2846.34
701.514	2637.44
701.703	2590.34
701.892	2639.49
702.08	2846.34
702.269	2655.87
702.457	2627.2
702.646	2678.4
702.834	2608.77
703.023	2696.83
703.212	2745.98
703.4	2629.25
703.589	2555.52
703.777	2680.45
703.965	2629.25
704.154	2692.74
704.342	2637.44
704.531	2598.53
704.719	2432.65
704.907	2590.34
705.096	2446.98
705.284	2598.53
705.472	2635.39
705.661	2600.58
705.849	2604.67
706.037	2489.99
706.226	2666.11
706.414	2639.49
706.602	2559.62
706.79	2539.14
706.979	2723.46
707.167	2688.64
707.355	2637.44
707.543	2539.14
707.731	2684.55
707.919	2518.66
708.107	2629.25
708.296	2606.72
708.484	2576
708.672	2700.93
708.86	2616.96
709.048	2516.61
709.236	2651.78
709.424	2586.24
709.612	2655.87
709.8	2559.62
709.988	2641.54
710.176	2518.66
710.364	2530.95
710.551	2614.91
710.739	2496.13
710.927	2504.32
711.115	2514.56
711.303	2666.11
711.491	2604.67
711.679	2606.72
711.866	2504.32
712.054	2578.05
712.242	2477.7
712.43	2533
712.617	2631.3
712.805	2549.38
712.993	2582.15
713.181	2477.7
713.368	2598.53
713.556	2576
713.744	2416.26
713.931	2649.73
714.119	2619.01
714.306	2576
714.494	2567.81
714.682	2516.61
714.869	2547.33
715.057	2588.29
715.244	2549.38
715.432	2692.74
715.619	2668.16
715.807	2614.91
715.994	2533
716.182	2571.91
716.369	2719.36
716.556	2578.05
716.744	2590.34
716.931	2596.48
717.119	2555.52
717.306	2584.2
717.493	2535.04
717.681	2602.63
717.868	2489.99
718.055	2553.48
718.242	2514.56
718.43	2666.11
718.617	2516.61
718.804	2504.32
718.991	2475.65
719.179	2674.31
719.366	2510.47
719.553	2526.85
719.74	2713.22
719.927	2676.35
720.114	2608.77
720.301	2483.84
720.488	2469.51
720.676	2528.9
720.863	2668.16
721.05	2596.48
721.237	2549.38
721.424	2627.2
721.611	2561.67
721.798	2524.8
721.985	2422.41
722.172	2559.62
722.358	2522.76
722.545	2473.6
722.732	2569.86
722.919	2588.29
723.106	2604.67
723.293	2520.71
723.48	2555.52
723.667	2508.42
723.853	2616.96
724.04	2520.71
724.227	2569.86
724.414	2563.72
724.6	2473.6
724.787	2576
724.974	2535.04
725.161	2492.04
725.347	2655.87
725.534	2506.37
725.72	2586.24
725.907	2600.58
726.094	2616.96
726.28	2569.86
726.467	2559.62
726.653	2522.76
726.84	2543.24
727.027	2580.1
727.213	2535.04
727.4	2647.68
727.586	2539.14
727.773	2559.62
727.959	2522.76
728.145	2639.49
728.332	2557.57
728.518	2627.2
728.705	2502.28
728.891	2496.13
729.077	2594.44
729.264	2578.05
729.45	2563.72
729.636	2518.66
729.823	2584.2
730.009	2549.38
730.195	2580.1
730.382	2569.86
730.568	2510.47
730.754	2520.71
730.94	2514.56
731.126	2530.95
731.313	2489.99
731.499	2424.45
731.685	2520.71
731.871	2614.91
732.057	2500.23
732.243	2592.39
732.429	2473.6
732.615	2492.04
732.801	2481.8
732.987	2422.41
733.173	2449.03
733.359	2512.52
733.545	2387.59
733.731	2510.47
733.917	2535.04
734.103	2539.14
734.289	2518.66
734.475	2510.47
734.661	2516.61
734.847	2426.5
735.033	2457.22
735.219	2377.35
735.404	2508.42
735.59	2528.9
735.776	2471.56
735.962	2506.37
736.148	2512.52
736.333	2520.71
736.519	2418.31
736.705	2334.34
736.89	2543.24
737.076	2406.02
737.262	2520.71
737.447	2459.27
737.633	2477.7
737.819	2489.99
738.004	2459.27
738.19	2430.6
738.375	2377.35
738.561	2397.83
738.747	2395.78
738.932	2414.21
739.118	2518.66
739.303	2442.89
739.489	2338.44
739.674	2401.93
739.859	2334.34
740.045	2301.58
740.23	2416.26
740.416	2209.42
740.601	2336.39
740.786	2356.87
740.972	2358.92
741.157	2227.85
741.342	2385.54
741.528	2315.91
741.713	2334.34
741.898	2289.29
742.084	2301.58
742.269	2252.42
742.454	2182.79
742.639	2315.91
742.824	2250.38
743.01	2207.37
743.195	2340.49
743.38	2223.75
743.565	2217.61
743.75	2154.12
743.935	2078.35
744.12	2217.61
744.305	2172.55
744.49	2217.61
744.675	2119.31
744.86	2121.35
745.045	2107.02
745.23	2068.11
745.415	2018.96
745.6	2104.97
745.785	2064.01
745.97	2100.87
746.155	2059.92
746.34	2082.44
746.525	1992.33
746.71	2129.55
746.895	2059.92
747.079	2035.34
747.264	2008.72
747.449	2012.81
747.634	1900.17
747.819	1918.61
748.003	1945.23
748.188	1924.75
748.373	1877.65
748.557	2027.15
748.742	1916.56
748.927	1926.8
749.111	1949.32
749.296	1779.34
749.481	1969.8
749.665	1781.39
749.85	1664.66
750.034	1732.24
750.219	1840.78
750.404	1781.39
750.588	1775.25
750.773	1859.21
750.957	1773.2
751.141	1748.62
751.326	1767.06
751.51	1707.66
751.695	1765.01
751.879	1687.18
752.064	1701.52
752.248	1701.52
752.432	1693.33
752.617	1545.88
752.801	1666.71
752.985	1613.46
753.17	1654.42
753.354	1547.92
753.538	1605.27
753.722	1515.16
753.907	1574.55
754.091	1629.84
754.275	1601.17
754.459	1578.64
754.643	1529.49
754.828	1601.17
755.012	1525.4
755.196	1517.2
755.38	1480.34
755.564	1568.4
755.748	1406.61
755.932	1470.1
756.116	1435.28
756.3	1429.14
756.484	1490.58
756.668	1420.95
756.852	1416.85
757.036	1410.71
757.22	1371.8
757.404	1423
757.588	1420.95
757.772	1371.8
757.956	1359.51
758.14	1289.88
758.323	1371.8
758.507	1336.98
758.691	1318.55
758.875	1347.22
759.059	1332.89
759.242	1138.33
759.426	1298.07
759.61	1199.77
759.794	1218.2
759.977	1267.35
760.161	1320.6
760.345	1183.38
760.528	1187.48
760.712	1212.06
760.895	1277.59
761.079	1238.68
761.263	1140.38
761.446	1167
761.63	1169.05
761.813	1222.3
761.997	1123.99
762.18	1177.24
762.364	1099.42
762.547	1089.18
762.731	1162.9
762.914	1107.61
763.098	1140.38
763.281	1099.42
763.464	1150.62
763.648	1087.13
763.831	1031.83
764.015	1083.03
764.198	1160.86
764.381	1152.67
764.564	1054.36
764.748	1068.7
764.931	1212.06
765.114	1070.75
765.297	1054.36
765.481	1025.69
765.664	1128.09
765.847	1054.36
766.03	1144.47
766.213	1025.69
766.397	1031.83
766.58	1058.46
766.763	1019.55
766.946	1013.4
767.129	1035.93
767.312	1050.27
767.495	1052.31
767.678	1058.46
767.861	1123.99
768.044	997.02
768.227	1017.5
768.41	1009.31
768.593	960.16
768.776	896.67
768.959	964.25
769.142	974.49
769.324	949.92
769.507	941.72
769.69	935.58
769.873	949.92
770.056	976.54
770.239	835.23
770.421	980.64
770.604	915.1
770.787	941.72
770.97	911
771.152	859.81
771.335	884.38
771.518	902.81
771.7	1005.21
771.883	951.96
772.066	843.42
772.248	876.19
772.431	822.94
772.613	908.96
772.796	870.05
772.978	863.9
773.161	911
773.343	904.86
773.526	847.52
773.708	763.55
773.891	878.24
774.073	814.75
774.256	820.89
774.438	810.65
774.621	773.79
774.803	894.62
774.985	788.13
775.168	777.89
775.35	777.89
775.532	820.89
775.715	704.16
775.897	851.61
776.079	745.12
776.261	863.9
776.444	747.17
776.626	714.4
776.808	671.39
776.99	691.87
777.173	749.22
777.355	720.54
777.537	745.12
777.719	759.46
777.901	738.98
778.083	708.26
778.265	671.39
778.447	681.63
778.629	775.84
778.811	648.86
778.993	638.62
779.175	708.26
779.357	714.4
779.539	679.58
779.721	714.4
779.903	693.92
780.085	689.82
780.267	638.62
780.449	667.3
780.631	628.39
780.812	663.2
780.994	632.48
781.176	685.73
781.358	599.71
781.54	616.1
781.721	566.95
781.903	607.91
782.085	595.62
782.267	634.53
782.448	612
782.63	589.47
782.812	534.18
782.993	536.23
783.175	497.32
783.357	560.8
783.538	562.85
783.72	536.23
783.901	538.27
784.083	562.85
784.264	548.51
784.446	499.36
784.627	480.93
784.809	536.23
784.99	573.09
785.172	554.66
785.353	534.18
785.535	487.08
785.716	491.17
785.897	460.45
786.079	444.07
786.26	482.98
786.441	468.64
786.623	458.4
786.804	458.4
786.985	452.26
787.167	499.36
787.348	439.97
787.529	401.06
787.71	478.88
787.891	493.22
788.073	466.6
788.254	411.3
788.435	474.79
788.616	396.96
788.797	421.54
788.978	399.01
789.159	423.59
789.34	509.6
789.522	470.69
789.703	394.92
789.884	358.05
790.065	507.55
790.246	356.01
790.427	331.43
790.607	425.64
790.788	452.26
790.969	362.15
791.15	382.63
791.331	396.96
791.512	417.44
791.693	429.73
791.874	454.31
792.054	462.5
792.235	413.35
792.416	290.47
792.597	339.62
792.778	390.82
792.958	437.92
793.139	358.05
793.32	358.05
793.5	282.28
793.681	378.53
793.862	313
794.042	317.09
794.223	325.29
794.404	368.29
794.584	345.77
794.765	356.01
794.945	333.48
795.126	310.95
795.306	407.2
795.487	362.15
795.667	300.71
795.848	310.95
796.028	272.04
796.209	249.51
796.389	319.14
796.57	286.37
796.75	306.85
796.93	269.99
797.111	339.62
797.291	353.96
797.471	265.89
797.652	319.14
797.832	327.33
798.012	310.95
798.192	251.56
798.373	304.81
798.553	247.46
798.733	351.91
798.913	255.65
799.093	327.33
799.274	315.05
799.454	317.09
799.634	274.09
799.814	257.7
799.994	294.57
800.174	261.8
800.354	280.23
800.534	186.02
800.714	325.29
800.894	288.42
801.074	327.33
801.254	292.52
801.434	325.29
801.614	229.03
801.794	265.89
801.974	620.19
802.154	245.41
802.334	198.31
802.514	255.65
802.693	233.13
802.873	339.62
803.053	263.85
803.233	265.89
803.413	239.27
803.592	173.74
803.772	247.46
803.952	231.08
804.131	263.85
804.311	315.05
804.491	261.8
804.67	284.33
804.85	165.54
805.03	194.22
805.209	267.94
805.389	274.09
805.568	200.36
805.748	181.93
805.928	241.32
806.107	263.85
806.287	251.56
806.466	257.7
806.646	163.5
806.825	237.22
807.004	153.26
807.184	224.94
807.363	206.5
807.543	194.22
807.722	202.41
807.901	269.99
808.081	188.07
808.26	241.32
808.439	267.94
808.619	190.12
808.798	194.22
808.977	173.74
809.156	226.98
809.336	188.07
809.515	220.84
809.694	214.7
809.873	190.12
810.052	224.94
810.231	210.6
810.411	255.65
810.59	212.65
810.769	257.7
810.948	202.41
811.127	200.36
811.306	179.88
811.485	196.26
811.664	200.36
811.843	102.06
812.022	134.82
812.201	169.64
812.38	130.73
812.559	134.82
812.737	188.07
812.916	222.89
813.095	116.39
813.274	245.41
813.453	147.11
813.632	175.78
813.811	208.55
813.989	183.98
814.168	177.83
814.347	159.4
814.526	126.63
814.704	118.44
814.883	204.46
815.062	75.43
815.24	202.41
815.419	149.16
815.598	161.45
815.776	151.21
815.955	155.3
816.133	79.53
816.312	163.5
816.49	118.44
816.669	155.3
816.847	149.16
817.026	212.65
817.204	130.73
817.383	130.73
817.561	226.98
817.74	155.3
817.918	175.78
818.097	183.98
818.275	112.3
818.453	161.45
818.632	208.55
818.81	202.41
818.988	114.34
819.167	128.68
819.345	136.87
819.523	161.45
819.701	173.74
819.879	120.49
820.058	167.59
820.236	179.88
820.414	112.3
820.592	149.16
820.77	77.48
820.948	112.3
821.127	173.74
821.305	110.25
821.483	91.82
821.661	118.44
821.839	93.87
822.017	130.73
822.195	128.68
822.373	130.73
822.551	188.07
822.729	143.02
822.907	149.16
823.085	165.54
823.262	83.63
823.44	149.16
823.618	93.87
823.796	75.43
823.974	81.58
824.152	97.96
824.329	145.06
824.507	118.44
824.685	116.39
824.863	81.58
825.04	120.49
825.218	134.82
825.396	132.78
825.574	89.77
825.751	222.89
825.929	69.29
826.107	57
826.284	136.87
826.462	149.16
826.639	57
826.817	106.15
826.994	169.64
827.172	61.1
827.349	138.92
827.527	89.77
827.704	93.87
827.882	59.05
828.059	140.97
828.237	159.4
828.414	118.44
828.591	57
828.769	102.06
828.946	52.91
829.124	169.64
829.301	149.16
829.478	122.54
829.655	114.34
829.833	112.3
830.01	59.05
830.187	97.96
830.364	77.48
830.542	54.95
830.719	126.63
830.896	136.87
831.073	83.63
831.25	102.06
831.427	151.21
831.604	138.92
831.782	97.96
831.959	120.49
832.136	85.67
832.313	161.45
832.49	143.02
832.667	126.63
832.844	126.63
833.021	159.4
833.198	116.39
833.374	61.1
833.551	112.3
833.728	100.01
833.905	108.2
834.082	40.62
834.259	93.87
834.436	89.77
834.612	124.58
834.789	106.15
834.966	97.96
835.143	130.73
835.319	67.24
835.496	136.87
835.673	149.16
835.85	100.01
836.026	65.19
836.203	32.43
836.38	50.86
836.556	108.2
836.733	61.1
836.909	77.48
837.086	57
837.262	130.73
837.439	3.75
837.616	63.15
837.792	124.58
837.968	61.1
838.145	71.34
838.321	48.81
838.498	85.67
838.674	134.82
838.851	42.67
839.027	42.67
839.203	50.86
839.38	42.67
839.556	112.3
839.732	89.77
839.909	110.25
840.085	118.44
840.261	18.09
840.437	81.58
840.614	85.67
840.79	106.15
840.966	102.06
841.142	81.58
841.318	61.1
841.494	89.77
841.671	26.28
841.847	108.2
842.023	97.96
842.199	118.44
842.375	63.15
842.551	79.53
842.727	54.95
842.903	179.88
843.079	57
843.255	73.39
843.431	38.57
843.607	108.2
843.783	16.04
843.959	110.25
844.134	48.81
844.31	110.25
844.486	63.15
844.662	26.28
844.838	-8.53
845.013	77.48
845.189	100.01
845.365	36.52
845.541	85.67
845.716	83.63
845.892	85.67
846.068	-0.34
846.244	20.14
846.419	73.39
846.595	145.06
846.77	108.2
846.946	91.82
847.122	38.57
847.297	34.47
847.473	91.82
847.648	65.19
847.824	149.16
847.999	40.62
848.175	102.06
848.35	124.58
848.526	95.91
848.701	110.25
848.876	114.34
849.052	91.82
849.227	65.19
849.403	-10.58
849.578	93.87
849.753	95.91
849.929	161.45
850.104	32.43
850.279	-22.87
850.454	-8.53
850.63	122.54
850.805	69.29
850.98	57
851.155	-6.49
851.33	57
851.505	42.67
851.681	73.39
851.856	73.39
852.031	120.49
852.206	57
852.381	48.81
852.556	32.43
852.731	48.81
852.906	38.57
853.081	65.19
853.256	48.81
853.431	20.14
853.606	63.15
853.781	-24.92
853.956	30.38
854.131	40.62
854.305	22.19
854.48	9.9
854.655	34.47
854.83	61.1
855.005	36.52
855.18	28.33
855.354	-18.77
855.529	61.1
855.704	7.85
855.879	20.14
856.053	26.28
856.228	26.28
856.403	40.62
856.577	59.05
856.752	-53.59
856.926	97.96
857.101	38.57
857.276	46.76
857.45	-33.11
857.625	59.05
857.799	42.67
857.974	34.47
858.148	30.38
858.323	38.57
858.497	30.38
858.672	11.95
858.846	-33.11
859.02	67.24
859.195	20.14
859.369	122.54
859.543	-4.44
859.718	52.91
859.892	77.48
860.066	106.15
860.241	46.76
860.415	46.76
860.589	81.58
860.763	44.71
860.938	40.62
861.112	75.43
861.286	61.1
861.46	18.09
861.634	-12.63
861.808	20.14
861.982	32.43
862.157	77.48
862.331	44.71
862.505	-16.73
862.679	30.38
862.853	46.76
863.027	48.81
863.201	97.96
863.375	5.8
863.549	24.23
863.722	50.86
863.896	59.05
864.07	-14.68
864.244	13.99
864.418	-0.34
864.592	-0.34
864.766	104.11
864.939	7.85
865.113	24.23
865.287	73.39
865.461	-18.77
865.634	28.33
865.808	9.9
865.982	11.95
866.156	24.23
866.329	38.57
866.503	132.78
866.676	85.67
866.85	40.62
867.024	87.72
867.197	26.28
867.371	44.71
867.544	-4.44
867.718	79.53
867.891	-2.39
868.065	-2.39
868.238	28.33
868.412	65.19
868.585	46.76
868.759	-6.49
868.932	26.28
869.105	-0.34
869.279	85.67
869.452	48.81
869.625	61.1
869.799	38.57
869.972	5.8
870.145	-4.44
870.319	32.43
870.492	-10.58
870.665	22.19
870.838	-14.68
871.011	-41.3
871.185	50.86
871.358	-2.39
871.531	34.47
871.704	28.33
871.877	57
872.05	13.99
872.223	40.62
872.396	40.62
872.569	-22.87
872.742	5.8
872.915	38.57
873.088	-53.59
873.261	1.71
873.434	48.81
873.607	5.8
873.78	54.95
873.953	5.8
874.126	-2.39
874.299	52.91
874.471	102.06
874.644	26.28
874.817	-26.96
874.99	67.24
875.163	-4.44
875.335	13.99
875.508	-10.58
875.681	63.15
875.853	-2.39
876.026	81.58
876.199	52.91
876.371	16.04
876.544	110.25
876.717	30.38
876.889	34.47
877.062	22.19
877.234	28.33
877.407	87.72
877.579	26.28
877.752	11.95
877.924	-16.73
878.097	38.57
878.269	65.19
878.442	65.19
878.614	89.77
878.786	61.1
878.959	-22.87
879.131	85.67
879.303	-37.2
879.476	-24.92
879.648	46.76
879.82	54.95
879.993	11.95
880.165	-51.54
880.337	22.19
880.509	3.75
880.681	-47.44
880.854	13.99
881.026	40.62
881.198	50.86
881.37	5.8
881.542	16.04
881.714	-53.59
881.886	22.19
882.058	48.81
882.23	38.57
882.402	65.19
882.574	-0.34
882.746	-33.11
882.918	13.99
883.09	61.1
883.262	3.75
883.434	-0.34
883.606	9.9
883.778	42.67
883.95	77.48
884.122	-49.49
884.293	77.48
884.465	-8.53
884.637	61.1
884.809	-6.49
884.98	28.33
885.152	16.04
885.324	-31.06
885.496	46.76
885.667	67.24
885.839	-26.96
886.011	57
886.182	18.09
886.354	36.52
886.525	77.48
886.697	-20.82
886.869	24.23
887.04	5.8
887.212	59.05
887.383	24.23
887.555	30.38
887.726	95.91
887.897	-16.73
888.069	-8.53
888.24	20.14
888.412	-8.53
888.583	-33.11
888.754	59.05
888.926	18.09
889.097	20.14
889.268	44.71
889.44	40.62
889.611	-6.49
889.782	-37.2
889.953	7.85
890.125	91.82
890.296	20.14
890.467	65.19
890.638	-24.92
890.809	-6.49
890.98	61.1
891.151	26.28
891.323	-12.63
891.494	18.09
891.665	20.14
891.836	40.62
892.007	24.23
892.178	32.43
892.349	38.57
892.52	-37.2
892.691	16.04
892.862	59.05
893.032	28.33
893.203	52.91
893.374	-35.16
893.545	28.33
893.716	-20.82
893.887	67.24
894.057	-49.49
894.228	-16.73
894.399	-10.58
894.57	18.09
894.74	52.91
894.911	26.28
895.082	-24.92
895.253	-63.83
895.423	40.62
895.594	69.29
895.764	5.8
895.935	-16.73
896.106	38.57
896.276	9.9
896.447	28.33
896.617	63.15
896.788	67.24
896.958	52.91
897.129	-33.11
897.299	-14.68
897.47	18.09
897.64	46.76
897.81	102.06
897.981	13.99
898.151	16.04
898.322	34.47
898.492	18.09
898.662	69.29
898.832	69.29
899.003	-35.16
899.173	-35.16
899.343	57
899.513	7.85
