Data from USB4F104151__18__11-51-18-050.txt Node

Date: Fri Mar 14 11:51:18 EDT 2025
User: louis
Spectrometer: USB4F10415
Trigger mode: 4
Integration Time (sec): 2.000000E-2
Scans to average: 1
Electric dark correction enabled: true
Nonlinearity correction enabled: false
Boxcar width: 0
XAxis mode: Wavelengths
Number of Pixels in Spectrum: 3648
>>>>>Begin Spectral Data<<<<<
178.204	-96.6
178.424	-96.6
178.644	-96.6
178.864	-80.21
179.084	-31.06
179.304	-92.5
179.524	16.04
179.744	63.15
179.964	-0.34
180.184	3.75
180.404	-35.16
180.624	-67.92
180.844	38.57
181.064	20.14
181.283	22.19
181.503	-2.39
181.723	34.47
181.943	-33.11
182.163	50.86
182.383	-4.44
182.602	50.86
182.822	-2.39
183.042	65.19
183.262	7.85
183.482	-37.2
183.701	30.38
183.921	3.75
184.141	50.86
184.361	54.95
184.58	-39.25
184.8	26.28
185.02	-8.53
185.239	63.15
185.459	-82.26
185.679	20.14
185.898	-22.87
186.118	71.34
186.338	18.09
186.557	42.67
186.777	3.75
186.997	-12.63
187.216	63.15
187.436	83.63
187.655	7.85
187.875	124.58
188.095	-51.54
188.314	67.24
188.534	97.96
188.753	-41.3
188.973	-14.68
189.192	46.76
189.412	106.15
189.631	116.39
189.851	93.87
190.07	40.62
190.29	7.85
190.509	3.75
190.729	38.57
190.948	11.95
191.168	118.44
191.387	26.28
191.607	44.71
191.826	102.06
192.045	9.9
192.265	52.91
192.484	-45.4
192.704	-41.3
192.923	9.9
193.142	52.91
193.362	59.05
193.581	38.57
193.8	71.34
194.02	69.29
194.239	-12.63
194.458	69.29
194.678	-14.68
194.897	-12.63
195.116	-14.68
195.335	24.23
195.555	1.71
195.774	71.34
195.993	81.58
196.212	46.76
196.432	28.33
196.651	26.28
196.87	50.86
197.089	85.67
197.308	61.1
197.528	93.87
197.747	16.04
197.966	36.52
198.185	124.58
198.404	1.71
198.623	85.67
198.842	71.34
199.062	61.1
199.281	73.39
199.5	36.52
199.719	61.1
199.938	-2.39
200.157	59.05
200.376	7.85
200.595	57
200.814	52.91
201.033	30.38
201.252	69.29
201.471	20.14
201.69	26.28
201.909	104.11
202.128	71.34
202.347	59.05
202.566	3.75
202.785	-22.87
203.004	16.04
203.223	83.63
203.442	42.67
203.661	38.57
203.879	24.23
204.098	54.95
204.317	44.71
204.536	87.72
204.755	65.19
204.974	32.43
205.193	7.85
205.411	95.91
205.63	3.75
205.849	69.29
206.068	42.67
206.287	3.75
206.505	44.71
206.724	28.33
206.943	48.81
207.162	46.76
207.381	13.99
207.599	65.19
207.818	50.86
208.037	7.85
208.255	120.49
208.474	-43.35
208.693	87.72
208.911	-4.44
209.13	91.82
209.349	-35.16
209.567	1.71
209.786	110.25
210.005	40.62
210.223	63.15
210.442	36.52
210.661	13.99
210.879	59.05
211.098	3.75
211.316	16.04
211.535	54.95
211.753	91.82
211.972	130.73
212.191	-4.44
212.409	42.67
212.628	120.49
212.846	22.19
213.065	7.85
213.283	-12.63
213.502	20.14
213.72	42.67
213.938	-12.63
214.157	85.67
214.375	63.15
214.594	30.38
214.812	50.86
215.031	83.63
215.249	24.23
215.467	116.39
215.686	44.71
215.904	13.99
216.122	3.75
216.341	-0.34
216.559	-6.49
216.778	32.43
216.996	24.23
217.214	13.99
217.432	-6.49
217.651	-12.63
217.869	-18.77
218.087	44.71
218.306	28.33
218.524	42.67
218.742	-47.44
218.96	59.05
219.179	30.38
219.397	11.95
219.615	24.23
219.833	18.09
220.051	-35.16
220.27	100.01
220.488	87.72
220.706	40.62
220.924	24.23
221.142	54.95
221.36	52.91
221.578	57
221.796	28.33
222.015	48.81
222.233	22.19
222.451	16.04
222.669	-51.54
222.887	-14.68
223.105	16.04
223.323	63.15
223.541	5.8
223.759	46.76
223.977	28.33
224.195	30.38
224.413	30.38
224.631	97.96
224.849	59.05
225.067	67.24
225.285	-12.63
225.503	95.91
225.721	1.71
225.939	26.28
226.157	36.52
226.375	136.87
226.592	59.05
226.81	22.19
227.028	46.76
227.246	54.95
227.464	50.86
227.682	16.04
227.9	5.8
228.117	54.95
228.335	-24.92
228.553	132.78
228.771	91.82
228.989	59.05
229.206	97.96
229.424	85.67
229.642	40.62
229.86	79.53
230.077	34.47
230.295	1.71
230.513	71.34
230.731	79.53
230.948	69.29
231.166	89.77
231.384	42.67
231.601	16.04
231.819	83.63
232.037	1.71
232.254	3.75
232.472	48.81
232.689	-45.4
232.907	30.38
233.125	69.29
233.342	48.81
233.56	13.99
233.777	28.33
233.995	59.05
234.213	54.95
234.43	11.95
234.648	40.62
234.865	61.1
235.083	36.52
235.3	-12.63
235.518	104.11
235.735	93.87
235.953	75.43
236.17	9.9
236.388	36.52
236.605	-55.64
236.822	75.43
237.04	13.99
237.257	61.1
237.475	3.75
237.692	108.2
237.909	-26.96
238.127	-43.35
238.344	20.14
238.562	61.1
238.779	32.43
238.996	-94.55
239.214	11.95
239.431	42.67
239.648	38.57
239.865	26.28
240.083	28.33
240.3	40.62
240.517	40.62
240.735	50.86
240.952	100.01
241.169	16.04
241.386	1.71
241.603	61.1
241.821	20.14
242.038	112.3
242.255	57
242.472	13.99
242.689	106.15
242.907	18.09
243.124	11.95
243.341	-2.39
243.558	22.19
243.775	-6.49
243.992	-0.34
244.209	20.14
244.426	63.15
244.643	89.77
244.86	7.85
245.078	32.43
245.295	61.1
245.512	50.86
245.729	-61.78
245.946	54.95
246.163	32.43
246.38	114.34
246.597	-2.39
246.814	22.19
247.031	40.62
247.248	77.48
247.464	1.71
247.681	48.81
247.898	-22.87
248.115	-33.11
248.332	34.47
248.549	36.52
248.766	50.86
248.983	42.67
249.2	30.38
249.417	91.82
249.633	22.19
249.85	11.95
250.067	-24.92
250.284	1.71
250.501	34.47
250.717	40.62
250.934	-18.77
251.151	-59.73
251.368	-6.49
251.585	24.23
251.801	42.67
252.018	3.75
252.235	59.05
252.451	57
252.668	-43.35
252.885	-6.49
253.102	122.54
253.318	30.38
253.535	34.47
253.752	48.81
253.968	20.14
254.185	57
254.401	42.67
254.618	40.62
254.835	-31.06
255.051	104.11
255.268	13.99
255.484	85.67
255.701	22.19
255.917	61.1
256.134	-35.16
256.351	73.39
256.567	16.04
256.784	79.53
257	40.62
257.217	42.67
257.433	-6.49
257.65	50.86
257.866	26.28
258.082	30.38
258.299	-35.16
258.515	1.71
258.732	42.67
258.948	9.9
259.165	-12.63
259.381	3.75
259.597	-2.39
259.814	-18.77
260.03	32.43
260.246	59.05
260.463	108.2
260.679	7.85
260.895	42.67
261.112	71.34
261.328	61.1
261.544	42.67
261.761	102.06
261.977	22.19
262.193	40.62
262.409	48.81
262.626	63.15
262.842	22.19
263.058	28.33
263.274	102.06
263.49	7.85
263.707	100.01
263.923	9.9
264.139	30.38
264.355	75.43
264.571	42.67
264.787	18.09
265.004	9.9
265.22	52.91
265.436	20.14
265.652	-26.96
265.868	-8.53
266.084	67.24
266.3	9.9
266.516	16.04
266.732	63.15
266.948	-41.3
267.164	1.71
267.38	34.47
267.596	57
267.812	13.99
268.028	11.95
268.244	36.52
268.46	-0.34
268.676	28.33
268.892	-8.53
269.108	26.28
269.324	9.9
269.54	-45.4
269.756	79.53
269.972	44.71
270.188	3.75
270.403	-24.92
270.619	52.91
270.835	85.67
271.051	26.28
271.267	65.19
271.483	-6.49
271.698	-24.92
271.914	40.62
272.13	34.47
272.346	-24.92
272.562	52.91
272.777	100.01
272.993	42.67
273.209	44.71
273.425	22.19
273.64	59.05
273.856	106.15
274.072	61.1
274.287	44.71
274.503	100.01
274.719	32.43
274.934	26.28
275.15	-6.49
275.366	46.76
275.581	46.76
275.797	18.09
276.012	57
276.228	57
276.444	1.71
276.659	38.57
276.875	20.14
277.09	-6.49
277.306	38.57
277.521	40.62
277.737	38.57
277.952	32.43
278.168	32.43
278.383	38.57
278.599	97.96
278.814	73.39
279.03	-39.25
279.245	85.67
279.461	59.05
279.676	36.52
279.892	5.8
280.107	83.63
280.322	13.99
280.538	85.67
280.753	-24.92
280.969	95.91
281.184	16.04
281.399	67.24
281.615	-4.44
281.83	73.39
282.045	-18.77
282.26	52.91
282.476	5.8
282.691	116.39
282.906	44.71
283.122	57
283.337	77.48
283.552	42.67
283.767	22.19
283.983	18.09
284.198	-4.44
284.413	50.86
284.628	54.95
284.843	77.48
285.058	-16.73
285.274	-14.68
285.489	18.09
285.704	59.05
285.919	44.71
286.134	73.39
286.349	108.2
286.564	-6.49
286.779	104.11
286.995	46.76
287.21	16.04
287.425	18.09
287.64	34.47
287.855	-20.82
288.07	57
288.285	22.19
288.5	57
288.715	52.91
288.93	77.48
289.145	38.57
289.36	69.29
289.575	48.81
289.79	124.58
290.004	1.71
290.219	32.43
290.434	18.09
290.649	-10.58
290.864	1.71
291.079	3.75
291.294	69.29
291.509	48.81
291.724	36.52
291.938	-72.02
292.153	-31.06
292.368	-0.34
292.583	22.19
292.798	52.91
293.012	83.63
293.227	46.76
293.442	38.57
293.657	95.91
293.871	54.95
294.086	18.09
294.301	73.39
294.516	57
294.73	-4.44
294.945	9.9
295.16	61.1
295.374	11.95
295.589	40.62
295.804	7.85
296.018	38.57
296.233	9.9
296.447	36.52
296.662	3.75
296.877	93.87
297.091	22.19
297.306	91.82
297.52	18.09
297.735	81.58
297.949	42.67
298.164	38.57
298.378	48.81
298.593	50.86
298.807	38.57
299.022	44.71
299.236	5.8
299.451	50.86
299.665	9.9
299.88	26.28
300.094	40.62
300.309	18.09
300.523	7.85
300.737	26.28
300.952	46.76
301.166	9.9
301.381	-24.92
301.595	48.81
301.809	87.72
302.024	30.38
302.238	75.43
302.452	36.52
302.667	65.19
302.881	48.81
303.095	59.05
303.309	57
303.524	50.86
303.738	65.19
303.952	69.29
304.166	24.23
304.381	-57.68
304.595	50.86
304.809	63.15
305.023	18.09
305.237	-57.68
305.452	59.05
305.666	85.67
305.88	89.77
306.094	38.57
306.308	34.47
306.522	100.01
306.736	40.62
306.95	-18.77
307.164	20.14
307.379	30.38
307.593	59.05
307.807	32.43
308.021	69.29
308.235	26.28
308.449	-20.82
308.663	24.23
308.877	40.62
309.091	44.71
309.305	52.91
309.519	-18.77
309.733	42.67
309.947	42.67
310.161	46.76
310.374	28.33
310.588	106.15
310.802	59.05
311.016	36.52
311.23	-24.92
311.444	32.43
311.658	-8.53
311.872	24.23
312.085	26.28
312.299	46.76
312.513	-2.39
312.727	38.57
312.941	75.43
313.154	5.8
313.368	26.28
313.582	-22.87
313.796	46.76
314.009	65.19
314.223	87.72
314.437	93.87
314.651	-22.87
314.864	36.52
315.078	40.62
315.292	-2.39
315.505	38.57
315.719	67.24
315.933	-26.96
316.146	-12.63
316.36	-2.39
316.573	89.77
316.787	22.19
317.001	91.82
317.214	24.23
317.428	79.53
317.641	44.71
317.855	67.24
318.068	46.76
318.282	30.38
318.495	36.52
318.709	-20.82
318.922	42.67
319.136	63.15
319.349	1.71
319.563	97.96
319.776	26.28
319.99	57
320.203	22.19
320.417	38.57
320.63	42.67
320.843	95.91
321.057	22.19
321.27	22.19
321.483	112.3
321.697	52.91
321.91	61.1
322.124	118.44
322.337	-2.39
322.55	-31.06
322.763	75.43
322.977	34.47
323.19	-0.34
323.403	85.67
323.617	102.06
323.83	24.23
324.043	24.23
324.256	79.53
324.469	-4.44
324.683	132.78
324.896	34.47
325.109	-8.53
325.322	7.85
325.535	-0.34
325.748	93.87
325.962	18.09
326.175	7.85
326.388	89.77
326.601	-6.49
326.814	18.09
327.027	89.77
327.24	73.39
327.453	-33.11
327.666	63.15
327.879	75.43
328.092	50.86
328.305	110.25
328.518	75.43
328.731	7.85
328.944	57
329.157	87.72
329.37	-45.4
329.583	57
329.796	79.53
330.009	-29.01
330.222	134.82
330.435	18.09
330.648	36.52
330.861	63.15
331.073	5.8
331.286	32.43
331.499	-24.92
331.712	46.76
331.925	100.01
332.138	5.8
332.35	69.29
332.563	75.43
332.776	16.04
332.989	91.82
333.202	61.1
333.414	48.81
333.627	-8.53
333.84	-8.53
334.053	65.19
334.265	54.95
334.478	18.09
334.691	73.39
334.903	20.14
335.116	-8.53
335.329	110.25
335.541	22.19
335.754	106.15
335.966	54.95
336.179	28.33
336.392	11.95
336.604	104.11
336.817	34.47
337.029	-41.3
337.242	16.04
337.454	3.75
337.667	77.48
337.88	81.58
338.092	24.23
338.305	30.38
338.517	50.86
338.729	81.58
338.942	44.71
339.154	42.67
339.367	-4.44
339.579	34.47
339.792	32.43
340.004	57
340.217	-12.63
340.429	30.38
340.641	-20.82
340.854	50.86
341.066	44.71
341.278	22.19
341.491	65.19
341.703	128.68
341.915	22.19
342.128	192.17
342.34	63.15
342.552	89.77
342.764	44.71
342.977	20.14
343.189	38.57
343.401	112.3
343.613	5.8
343.826	91.82
344.038	3.75
344.25	54.95
344.462	20.14
344.674	59.05
344.886	40.62
345.099	75.43
345.311	71.34
345.523	48.81
345.735	-31.06
345.947	-6.49
346.159	32.43
346.371	-53.59
346.583	81.58
346.795	38.57
347.007	48.81
347.219	71.34
347.431	44.71
347.643	59.05
347.855	22.19
348.067	54.95
348.279	-26.96
348.491	61.1
348.703	61.1
348.915	54.95
349.127	1.71
349.339	-47.44
349.551	42.67
349.763	28.33
349.975	32.43
350.187	100.01
350.399	65.19
350.61	16.04
350.822	59.05
351.034	79.53
351.246	69.29
351.458	114.34
351.669	73.39
351.881	22.19
352.093	65.19
352.305	85.67
352.517	59.05
352.728	38.57
352.94	20.14
353.152	50.86
353.363	5.8
353.575	36.52
353.787	61.1
353.999	102.06
354.21	42.67
354.422	108.2
354.633	54.95
354.845	24.23
355.057	-10.58
355.268	87.72
355.48	97.96
355.692	116.39
355.903	57
356.115	85.67
356.326	30.38
356.538	34.47
356.749	71.34
356.961	91.82
357.172	42.67
357.384	38.57
357.595	42.67
357.807	52.91
358.018	7.85
358.23	26.28
358.441	128.68
358.653	83.63
358.864	52.91
359.075	36.52
359.287	40.62
359.498	85.67
359.709	34.47
359.921	42.67
360.132	114.34
360.344	34.47
360.555	61.1
360.766	85.67
360.977	63.15
361.189	122.54
361.4	22.19
361.611	67.24
361.823	69.29
362.034	153.26
362.245	40.62
362.456	18.09
362.667	24.23
362.879	28.33
363.09	-6.49
363.301	54.95
363.512	54.95
363.723	20.14
363.935	102.06
364.146	85.67
364.357	32.43
364.568	38.57
364.779	26.28
364.99	40.62
365.201	61.1
365.412	130.73
365.623	34.47
365.834	34.47
366.045	28.33
366.256	69.29
366.467	73.39
366.678	100.01
366.889	69.29
367.1	46.76
367.311	128.68
367.522	104.11
367.733	69.29
367.944	104.11
368.155	7.85
368.366	77.48
368.577	87.72
368.788	28.33
368.999	24.23
369.209	40.62
369.42	54.95
369.631	100.01
369.842	112.3
370.053	67.24
370.264	16.04
370.474	24.23
370.685	22.19
370.896	36.52
371.107	13.99
371.317	81.58
371.528	7.85
371.739	59.05
371.95	54.95
372.16	40.62
372.371	91.82
372.582	30.38
372.792	38.57
373.003	71.34
373.214	13.99
373.424	91.82
373.635	46.76
373.846	61.1
374.056	52.91
374.267	32.43
374.477	52.91
374.688	81.58
374.898	44.71
375.109	93.87
375.319	95.91
375.53	52.91
375.74	85.67
375.951	102.06
376.161	95.91
376.372	65.19
376.582	69.29
376.793	130.73
377.003	52.91
377.214	46.76
377.424	67.24
377.635	40.62
377.845	-33.11
378.055	124.58
378.266	24.23
378.476	20.14
378.686	54.95
378.897	50.86
379.107	26.28
379.317	91.82
379.528	97.96
379.738	106.15
379.948	16.04
380.158	138.92
380.369	42.67
380.579	130.73
380.789	81.58
380.999	50.86
381.21	30.38
381.42	18.09
381.63	52.91
381.84	120.49
382.05	16.04
382.261	46.76
382.471	85.67
382.681	26.28
382.891	79.53
383.101	112.3
383.311	30.38
383.521	24.23
383.731	147.11
383.941	102.06
384.151	91.82
384.361	97.96
384.571	9.9
384.781	42.67
384.991	57
385.201	126.63
385.411	52.91
385.621	50.86
385.831	89.77
386.041	44.71
386.251	18.09
386.461	97.96
386.671	-53.59
386.881	77.48
387.091	3.75
387.301	59.05
387.511	57
387.72	18.09
387.93	52.91
388.14	22.19
388.35	32.43
388.56	93.87
388.769	100.01
388.979	93.87
389.189	38.57
389.399	36.52
389.609	93.87
389.818	149.16
390.028	77.48
390.238	59.05
390.447	65.19
390.657	48.81
390.867	36.52
391.076	112.3
391.286	67.24
391.496	153.26
391.705	106.15
391.915	114.34
392.125	61.1
392.334	30.38
392.544	134.82
392.753	108.2
392.963	30.38
393.172	50.86
393.382	69.29
393.591	145.06
393.801	83.63
394.01	155.3
394.22	69.29
394.429	28.33
394.639	73.39
394.848	97.96
395.058	77.48
395.267	75.43
395.477	108.2
395.686	108.2
395.895	112.3
396.105	186.02
396.314	5.8
396.524	65.19
396.733	106.15
396.942	134.82
397.152	54.95
397.361	69.29
397.57	114.34
397.78	42.67
397.989	116.39
398.198	210.6
398.407	116.39
398.617	145.06
398.826	108.2
399.035	118.44
399.244	124.58
399.453	89.77
399.663	149.16
399.872	87.72
400.081	116.39
400.29	169.64
400.499	77.48
400.708	167.59
400.917	95.91
401.127	112.3
401.336	52.91
401.545	104.11
401.754	130.73
401.963	102.06
402.172	104.11
402.381	77.48
402.59	-22.87
402.799	77.48
403.008	116.39
403.217	97.96
403.426	110.25
403.635	120.49
403.844	186.02
404.053	171.69
404.262	128.68
404.471	138.92
404.68	77.48
404.888	138.92
405.097	145.06
405.306	134.82
405.515	145.06
405.724	188.07
405.933	257.7
406.142	229.03
406.35	241.32
406.559	186.02
406.768	200.36
406.977	192.17
407.185	194.22
407.394	214.7
407.603	157.35
407.812	196.26
408.02	233.13
408.229	183.98
408.438	245.41
408.646	229.03
408.855	255.65
409.064	255.65
409.272	274.09
409.481	253.61
409.69	267.94
409.898	200.36
410.107	282.28
410.315	339.62
410.524	282.28
410.733	337.57
410.941	351.91
411.15	411.3
411.358	411.3
411.567	405.16
411.775	323.24
411.984	452.26
412.192	515.75
412.401	399.01
412.609	480.93
412.818	536.23
413.026	468.64
413.234	599.71
413.443	568.99
413.651	571.04
413.86	525.99
414.068	661.15
414.276	560.8
414.485	661.15
414.693	667.3
414.901	720.54
415.11	691.87
415.318	738.98
415.526	741.02
415.734	802.46
415.943	851.61
416.151	876.19
416.359	931.48
416.567	968.35
416.776	1021.6
416.984	939.68
417.192	1050.27
417.4	964.25
417.608	958.11
417.817	1046.17
418.025	1099.42
418.233	1212.06
418.441	1177.24
418.649	1271.45
418.857	1312.41
419.065	1375.89
419.273	1367.7
419.481	1457.81
419.689	1496.72
419.897	1545.88
420.105	1537.68
420.313	1623.7
420.521	1601.17
420.729	1722
420.937	1703.57
421.145	1754.77
421.353	1891.98
421.561	1975.95
421.769	1922.7
421.977	2082.44
422.185	2127.5
422.393	2309.77
422.601	2203.27
422.809	2465.41
423.017	2430.6
423.224	2397.83
423.432	2565.76
423.64	2537.09
423.848	2762.37
424.056	2723.46
424.263	2918.01
424.471	2901.63
424.679	2911.87
424.887	3200.63
425.094	3352.18
425.302	3227.26
425.51	3368.57
425.718	3518.07
425.925	3507.83
426.133	3710.58
426.341	3833.46
426.548	4046.44
426.756	4050.54
426.964	4132.46
427.171	4286.06
427.379	4492.9
427.586	4519.53
427.794	4675.17
428.001	4947.55
428.209	5213.79
428.417	4910.69
428.624	5383.77
428.832	5183.07
429.039	5297.75
429.247	5332.57
429.454	5924.43
429.662	6245.96
429.869	5883.47
430.076	6286.92
430.284	6043.21
430.491	6368.84
430.699	6749.76
430.906	6624.84
431.114	6780.48
431.321	6985.28
431.528	7214.65
431.736	7616.05
431.943	8121.9
432.15	7679.54
432.358	7786.04
432.565	8230.45
432.772	8365.61
432.979	8836.64
433.187	8785.44
433.394	8988.19
433.601	9301.53
433.808	9344.54
434.016	9358.88
434.223	9721.37
434.43	10204.69
434.637	10159.63
434.844	10831.37
435.052	10944
435.259	10888.71
435.466	11337.21
435.673	10956.29
435.88	11847.16
436.087	12193.26
436.294	12266.99
436.501	11965.94
436.708	12350.96
436.915	12674.54
437.122	13157.86
437.329	13176.29
437.537	13571.55
437.743	13811.16
437.95	13696.47
438.157	14274
438.364	14949.83
438.571	14937.54
438.778	14804.42
438.985	16309.68
439.192	15730.11
439.399	16209.33
439.606	15797.69
439.813	16862.63
440.02	17980.82
440.227	17378.72
440.433	17376.67
440.64	17833.37
440.847	17778.08
441.054	18339.22
441.261	19467.65
441.467	19139.97
441.674	19342.72
441.881	20090.23
442.088	20315.51
442.294	19987.83
442.501	20559.22
442.708	21079.4
442.914	21720.42
443.121	22623.57
443.328	21849.44
443.534	23848.25
443.741	22938.96
443.948	22474.07
444.154	24333.62
444.361	24161.59
444.568	24538.42
444.774	24558.9
444.981	24667.44
445.187	25355.56
445.394	26473.75
445.6	26105.12
445.807	28491
446.013	27151.63
446.22	27489.54
446.426	29011.18
446.633	29433.07
446.839	30082.27
447.046	28818.67
447.252	30315.74
447.459	30794.96
447.665	30366.94
447.871	31769.8
448.078	33191.09
448.284	31630.54
448.491	31995.07
448.697	33778.86
448.903	34024.61
449.11	34612.38
449.316	33823.91
449.522	34526.36
449.728	35036.31
449.935	35474.57
450.141	35775.62
450.347	36738.17
450.553	35413.13
450.76	35705.99
450.966	36932.73
451.172	36758.65
451.378	37334.13
451.584	36631.68
451.791	37358.7
451.997	37309.55
452.203	37821.55
452.409	38253.67
452.615	37817.45
452.821	36428.93
453.027	35751.05
453.233	38212.71
453.44	36490.37
453.646	36938.87
453.852	37121.14
454.058	37706.86
454.264	36537.47
454.47	37133.43
454.676	36334.72
454.882	37553.26
455.088	34335.9
455.294	34624.67
455.5	35294.35
455.705	35849.35
455.911	34075.81
456.117	33653.93
456.323	33356.97
456.529	31352.01
456.735	32748.73
456.941	32232.64
457.147	31550.67
457.352	30653.65
457.558	30133.47
457.764	30487.77
457.97	29746.4
458.176	28931.31
458.381	29109.49
458.587	27653.38
458.793	27723.01
458.999	26348.82
459.204	28306.68
459.41	27116.81
459.616	25443.62
459.821	25668.9
460.027	25546.02
460.233	24741.17
460.438	23665.99
460.644	24063.29
460.85	22785.36
461.055	22582.61
461.261	22379.86
461.466	20716.91
461.672	20211.06
461.878	21759.33
462.083	20114.81
462.289	20106.62
462.494	19565.95
462.7	18564.5
462.905	18460.05
463.111	19051.91
463.316	18910.6
463.522	18552.21
463.727	18711.95
463.932	18478.48
464.138	18107.8
464.343	18763.15
464.549	17720.73
464.754	18359.7
464.959	18404.75
465.165	18132.37
465.37	17434.02
465.575	16811.43
465.781	17649.05
465.986	17794.46
466.191	16932.26
466.397	16784.81
466.602	15738.3
466.807	16489.9
467.012	16580.01
467.218	16328.11
467.423	16125.36
467.628	16338.35
467.833	17143.21
468.038	16311.73
468.244	15863.22
468.449	16471.47
468.654	16104.88
468.859	15988.15
469.064	15805.88
469.269	15211.97
469.474	15414.72
469.679	15787.45
469.885	15224.26
470.09	15134.15
470.295	15476.16
470.5	14775.75
470.705	14955.97
470.91	14732.75
471.115	14423.5
471.32	14874.06
471.525	14427.6
471.73	14163.41
471.935	14181.84
472.139	13886.93
472.344	14196.18
472.549	13749.72
472.754	13821.4
472.959	13268.45
473.164	13059.56
473.369	13151.71
473.574	13526.49
473.778	13356.51
473.983	13233.63
474.188	13221.34
474.393	12512.75
474.598	12615.15
474.802	12330.48
475.007	12373.49
475.212	12434.92
475.417	12000.76
475.621	11863.54
475.826	12039.67
476.031	11603.45
476.235	11464.19
476.44	11728.38
476.645	11294.21
476.849	11521.53
477.054	11310.59
477.259	11253.25
477.463	11335.17
477.668	10812.93
477.872	11179.52
478.077	10624.52
478.282	10604.04
478.486	10708.49
478.691	10339.85
478.895	10593.8
479.1	10384.91
479.304	10311.18
479.509	9883.16
479.713	10374.67
479.918	9975.31
480.122	9942.55
480.326	9991.7
480.531	10036.75
480.735	9682.45
480.94	9743.89
481.144	9975.31
481.348	9836.05
481.553	9879.06
481.757	9514.52
481.961	9580.06
482.166	9840.15
482.37	9821.72
482.574	9496.09
482.778	9526.81
482.983	9422.36
483.187	9549.34
483.391	9653.78
483.595	9528.86
483.8	9524.76
484.004	9670.17
484.208	9698.84
484.412	9676.31
484.616	9539.1
484.821	9793.05
485.025	9535
485.229	9535
485.433	9446.94
485.637	9401.88
485.841	9340.44
486.045	9741.85
486.249	9637.4
486.453	9684.5
486.657	9723.41
486.861	9627.16
487.065	9373.21
487.269	9614.87
487.473	9420.31
487.677	9600.54
487.881	9754.13
488.085	9362.97
488.289	9637.4
488.493	9723.41
488.697	9551.38
488.901	9483.8
489.105	9604.63
489.309	9393.69
489.512	9567.77
489.716	9805.33
489.92	9578.01
490.124	9553.43
490.328	9782.81
490.531	9825.81
490.735	9786.9
490.939	9655.83
491.143	9854.48
491.346	9747.99
491.55	9944.59
491.754	10008.08
491.958	9952.79
492.161	10081.81
492.365	10198.54
492.569	10090
492.772	10079.76
492.976	10190.35
493.18	9997.84
493.383	10460.68
493.587	10481.16
493.79	10454.54
493.994	10321.42
494.197	10495.5
494.401	10448.4
494.605	10755.59
494.808	10659.34
495.012	10825.22
495.215	10786.31
495.419	11034.11
495.622	10700.3
495.825	10966.53
496.029	10941.96
496.232	11460.09
496.436	11070.98
496.639	11421.18
496.843	11183.62
497.046	11658.74
497.249	11720.18
497.453	11728.38
497.656	11804.15
497.859	12140.02
498.063	12060.15
498.266	12295.66
498.469	12310
498.673	12568.04
498.876	12760.55
499.079	12752.36
499.282	12656.11
499.485	13159.91
499.689	13125.09
499.892	13190.63
500.095	13313.5
500.298	13696.47
500.501	13569.5
500.705	13983.19
500.908	13950.42
501.111	14204.37
501.314	14177.75
501.517	14566.86
501.72	14556.62
501.923	14710.22
502.126	15050.18
502.329	15193.54
502.532	15199.68
502.735	15367.62
502.938	15611.32
503.141	15488.45
503.344	15809.98
503.547	15914.42
503.75	16147.89
503.953	16213.43
504.156	16399.79
504.359	16418.22
504.562	16760.23
504.765	17264.04
504.968	17206.69
505.17	17409.44
505.373	17391.01
505.576	17665.44
505.779	18175.38
505.982	17958.3
506.185	18417.04
506.387	18347.41
506.59	18562.45
506.793	18984.33
506.996	18863.5
507.198	19611.01
507.401	19320.2
507.604	19496.32
507.807	19844.48
508.009	19918.2
508.212	20376.95
508.415	20311.41
508.617	20553.07
508.82	20774.25
509.022	20698.48
509.225	21327.21
509.428	21355.88
509.63	21405.03
509.833	21732.7
510.035	22484.31
510.238	22148.44
510.44	22361.43
510.643	22754.64
510.845	22957.39
511.048	23190.86
511.25	23194.95
511.453	23502.15
511.655	24005.95
511.858	23813.44
512.06	24231.22
512.262	24401.21
512.465	24433.97
512.667	24974.64
512.87	24814.9
513.072	24960.3
513.274	25611.56
513.477	25697.57
513.679	25904.42
513.881	26043.68
514.084	26221.85
514.286	26680.6
514.488	26682.64
514.69	27262.22
514.893	27374.86
515.095	27409.67
515.297	27942.14
515.499	28032.25
515.701	27985.15
515.904	28878.07
516.106	28691.7
516.308	29076.72
516.51	29129.97
516.712	29465.83
516.914	29744.36
517.116	30368.99
517.318	30244.06
517.52	30289.12
517.722	30491.87
517.925	30981.33
518.127	31081.68
518.329	31753.41
518.531	31294.67
518.733	31806.66
518.935	32120
519.136	32132.29
519.338	32484.54
519.54	32820.41
519.742	33213.62
519.944	33287.34
520.146	33932.45
520.348	33901.73
520.55	34067.62
520.752	33903.78
520.954	35060.88
521.155	34503.84
521.357	34901.14
521.559	34895
521.761	35687.56
521.963	35970.18
522.164	35740.81
522.366	36299.9
522.568	36576.38
522.77	36361.34
522.971	37231.73
523.173	36910.2
523.375	37330.03
523.576	37616.75
523.778	37405.81
523.98	37973.1
524.181	38284.39
524.383	37717.1
524.584	38765.66
524.786	38511.71
524.988	38620.25
525.189	39124.05
525.391	39314.51
525.592	39529.55
525.794	39709.77
525.995	39910.47
526.197	39533.65
526.398	40047.69
526.6	40143.94
526.801	40162.37
527.003	40692.8
527.204	40856.64
527.406	40811.58
527.607	41012.28
527.808	41065.53
528.01	40801.34
528.211	40977.47
528.412	41989.16
528.614	41358.39
528.815	41581.62
529.016	41995.31
529.218	41743.41
529.419	41847.85
529.62	41976.87
529.822	41876.52
530.023	42015.79
530.224	42322.98
530.425	41880.62
530.626	41868.33
530.828	42032.17
531.029	42697.76
531.23	42198.05
531.431	42099.75
531.632	42175.53
531.833	42581.02
532.035	42759.2
532.236	43138.07
532.437	42978.33
532.638	43013.15
532.839	43168.79
533.04	43654.16
533.241	42849.31
533.442	43240.47
533.643	43060.25
533.844	43230.23
534.045	43168.79
534.246	42898.46
534.447	43494.42
534.648	43211.8
534.849	43625.49
535.05	42925.08
535.251	43109.4
535.451	43516.95
535.652	43578.39
535.853	43121.69
536.054	42949.66
536.255	43666.45
536.456	42937.37
536.657	43736.08
536.857	43062.3
537.058	43107.35
537.259	43572.24
537.46	43269.14
537.66	43156.5
537.861	43453.46
538.062	43187.22
538.263	43447.32
538.463	43232.28
538.664	43138.07
538.865	43873.29
539.065	43586.58
539.266	43086.87
539.466	43877.39
539.667	43121.69
539.868	43770.89
540.068	42929.18
540.269	43277.33
540.469	43742.22
540.67	43101.21
540.87	43310.1
541.071	43183.13
541.271	43217.94
541.472	43275.29
541.672	43336.73
541.873	43172.89
542.073	42413.09
542.274	43285.53
542.474	42841.12
542.675	42863.64
542.875	43572.24
543.075	42964
543.276	42535.97
543.476	43232.28
543.676	42894.36
543.877	43306.01
544.077	43381.78
544.277	43289.62
544.478	42884.12
544.678	43420.69
544.878	43029.53
545.078	43306.01
545.279	42654.75
545.479	42929.18
545.679	42953.76
545.879	42916.89
546.079	43136.02
546.28	43029.53
546.48	42609.7
546.68	43338.77
546.88	43185.18
547.08	43308.05
547.28	43133.98
547.48	42572.83
547.68	42961.95
547.88	42613.79
548.081	43207.7
548.281	42837.02
548.481	42699.81
548.681	42974.23
548.881	42925.08
549.081	42959.9
549.28	42693.66
549.48	43013.15
549.68	43090.97
549.88	43320.34
550.08	42439.72
550.28	43240.47
550.48	42531.87
550.68	43103.26
550.88	42441.76
551.08	42703.9
551.279	42824.73
551.479	42507.3
551.679	42746.91
551.879	42746.91
552.079	43088.92
552.278	42656.8
552.478	42386.47
552.678	42630.18
552.878	42548.26
553.077	42417.19
553.277	41966.63
553.477	42794.01
553.676	41925.67
553.876	42419.24
554.076	42349.6
554.275	41954.35
554.475	41804.84
554.674	42327.08
554.874	42241.06
555.074	42009.64
555.273	42339.36
555.473	42572.83
555.672	41657.39
555.872	41868.33
556.071	42091.56
556.271	42259.49
556.47	42069.03
556.67	41593.9
556.869	41751.6
557.068	42206.25
557.268	41866.28
557.467	42109.99
557.667	41749.55
557.866	41917.48
558.065	41524.27
558.265	41649.2
558.464	41088.06
558.663	41825.32
558.863	41311.28
559.062	41872.43
559.261	41223.22
559.461	41413.68
559.66	41210.93
559.859	40975.42
560.058	40866.88
560.258	40905.79
560.457	40850.49
560.656	41301.04
560.855	40682.56
561.054	40997.95
561.253	40870.97
561.453	40799.29
561.652	40848.44
561.851	40631.36
562.05	40455.23
562.249	40184.9
562.448	40557.63
562.647	40492.1
562.846	40406.08
563.045	40541.25
563.244	40041.54
563.443	40451.14
563.642	39509.07
563.841	39994.44
564.04	39777.36
564.239	40373.31
564.438	39914.57
564.637	39978.06
564.836	40062.02
565.035	39683.15
565.234	39570.51
565.432	39185.49
565.631	39191.64
565.83	39330.9
566.029	39011.42
566.228	39138.39
566.427	38667.36
566.625	39158.87
566.824	38366.31
567.023	39031.9
567.222	38300.77
567.42	39091.29
567.619	38521.95
567.818	38437.98
568.016	38435.94
568.215	38581.34
568.414	38499.42
568.612	38567.01
568.811	38118.5
569.01	38450.27
569.208	37588.08
569.407	37887.08
569.605	37678.19
569.804	37854.31
570.002	37534.83
570.201	37893.22
570.4	37250.16
570.598	37454.96
570.797	37262.45
570.995	37207.15
571.193	36603
571.392	37092.47
571.59	37125.24
571.789	37110.9
571.987	36482.17
572.186	36623.48
572.384	36560
572.582	36740.22
572.781	36652.16
572.979	36330.62
573.177	36498.56
573.376	36664.44
573.574	36267.14
573.772	36207.75
573.971	35892.36
574.169	35871.88
574.367	35234.96
574.565	36136.07
574.763	35892.36
574.962	35386.51
575.16	35480.72
575.358	35341.46
575.556	35110.03
575.754	35484.81
575.952	34929.81
576.151	34966.68
576.349	34675.87
576.547	34641.05
576.745	34696.35
576.943	34737.3
577.141	34886.81
577.339	34677.91
577.537	34229.41
577.735	34426.01
577.933	34335.9
578.131	34241.7
578.329	33946.79
578.527	33688.74
578.725	34061.47
578.923	33766.57
579.121	33655.98
579.319	33707.18
579.516	33881.25
579.714	33727.66
579.912	33596.59
580.11	33266.86
580.308	33572.01
580.506	33330.35
580.704	32572.6
580.901	33035.44
581.099	33180.85
581.297	32484.54
581.495	32853.17
581.692	32822.45
581.89	32195.78
582.088	32535.74
582.285	32599.23
582.483	32758.97
582.681	32890.04
582.878	32443.58
583.076	31810.76
583.274	32132.29
583.471	31630.54
583.669	32031.94
583.866	31700.17
584.064	31915.2
584.262	31673.54
584.459	31546.57
584.657	31358.16
584.854	31589.58
585.052	30966.99
585.249	31829.19
585.447	31575.24
585.644	31005.91
585.841	31005.91
586.039	31173.84
586.236	30702.81
586.434	30792.92
586.631	30682.33
586.828	30801.11
587.026	30704.85
587.223	30579.93
587.42	30502.11
587.618	30577.88
587.815	30344.41
588.012	29865.19
588.21	29842.66
588.407	30166.24
588.604	29793.51
588.801	29332.72
588.999	29426.92
589.196	29607.14
589.393	29353.19
589.59	29580.52
589.787	29312.24
589.984	29195.5
590.182	29316.33
590.379	29476.07
590.576	29046
590.773	29281.52
590.97	28669.17
591.167	28921.07
591.364	28337.4
591.561	28699.89
591.758	28361.98
591.955	28531.96
592.152	28376.31
592.349	28153.09
592.546	28181.76
592.743	28075.26
592.94	27415.82
593.137	28001.54
593.334	28071.17
593.531	27680
593.727	27593.99
593.924	27608.33
594.121	27399.43
594.318	27501.83
594.515	27141.39
594.712	27391.24
594.908	27331.85
595.105	27499.78
595.302	27108.62
595.499	26985.74
595.696	26893.58
595.892	26701.08
596.089	27120.91
596.286	26895.63
596.482	26965.26
596.679	26686.74
596.876	26551.57
597.072	26596.63
597.269	26475.8
597.466	26418.46
597.662	26021.15
597.859	26207.51
598.055	25859.36
598.252	25908.51
598.448	25902.37
598.645	25847.07
598.841	25535.78
599.038	25740.58
599.234	25951.52
599.431	25554.21
599.627	25253.16
599.824	25423.14
600.02	25173.29
600.217	25427.24
600.413	25163.05
600.609	24835.38
600.806	24724.79
601.002	25085.23
601.198	24624.43
601.395	24548.66
601.591	24876.34
601.787	24546.61
601.984	24456.5
602.18	24732.98
602.376	24413.49
602.572	24280.38
602.769	24452.41
602.965	24005.95
603.161	24040.76
603.357	24030.52
603.553	23975.23
603.75	24112.44
603.946	23602.5
604.142	23909.69
604.338	23670.08
604.534	23776.58
604.73	23450.95
604.926	23506.24
605.122	23577.92
605.318	23428.42
605.514	23127.37
605.71	23078.22
605.906	23502.15
606.102	23209.29
606.298	23246.15
606.494	22756.69
606.69	23020.88
606.886	23092.55
607.082	22869.33
607.278	22809.93
607.474	22429.01
607.67	22510.93
607.866	22424.92
608.062	22652.24
608.257	22361.43
608.453	22328.66
608.649	22299.99
608.845	22435.16
609.041	22426.96
609.236	22414.68
609.432	22461.78
609.628	22242.65
609.824	22392.15
610.019	22029.66
610.215	21697.89
610.411	21892.44
610.606	22011.23
610.802	21923.16
610.998	21480.8
611.193	21687.65
611.389	21673.31
611.584	21693.79
611.78	21364.07
611.976	21460.32
612.171	21699.94
612.367	21716.32
612.562	21325.16
612.758	21015.91
612.953	21450.08
613.149	21527.91
613.344	21179.75
613.539	21568.87
613.735	21171.56
613.93	21194.09
614.126	21206.38
614.321	21251.43
614.517	21153.13
614.712	21337.45
614.907	21065.07
615.103	21118.31
615.298	21228.9
615.493	21331.3
615.688	20813.17
615.884	21091.69
616.079	20839.79
616.274	20974.95
616.47	20444.53
616.665	20800.88
616.86	20804.97
617.055	20651.38
617.25	20516.21
617.445	20604.27
617.641	20143.48
617.836	20581.74
618.031	20290.93
618.226	20155.77
618.421	19940.73
618.616	20053.37
618.811	20004.22
619.006	20079.99
619.201	19596.67
619.396	20014.46
619.591	19389.83
619.786	19664.25
619.981	19451.27
620.176	19684.73
620.371	19338.63
620.566	19670.4
620.761	19152.26
620.956	19400.07
621.151	18838.92
621.346	19096.97
621.541	18703.76
621.735	19107.21
621.93	18750.86
622.125	18607.5
622.32	18435.47
622.515	18673.04
622.709	18253.2
622.904	18306.45
623.099	18154.9
623.294	18089.37
623.488	18075.03
623.683	18050.46
623.878	17837.47
624.072	17782.17
624.267	17647.01
624.462	17718.68
624.656	17354.15
624.851	17458.59
625.046	17395.11
625.24	17268.13
625.435	16977.32
625.629	17073.57
625.824	17051.05
626.018	16907.69
626.213	16401.84
626.407	16504.24
626.602	16266.67
626.796	16438.7
626.991	16510.38
627.185	16268.72
627.38	16061.88
627.574	16348.59
627.768	16123.32
627.963	15887.8
628.157	16119.22
628.352	15805.88
628.546	15617.47
628.74	15556.03
628.935	15359.42
629.129	15416.77
629.323	15101.38
629.517	15123.91
629.712	15222.21
629.906	15201.73
630.1	14839.24
630.294	15009.22
630.489	14849.48
630.683	14769.61
630.877	14523.85
631.071	14714.31
631.265	14769.61
631.459	14468.56
631.653	14431.69
631.848	14509.52
632.042	14208.47
632.236	14208.47
632.43	14032.34
632.624	14116.31
632.818	13948.37
633.012	13805.02
633.206	13657.56
633.4	14001.62
633.594	13743.58
633.788	13884.89
633.982	13424.09
634.176	13338.08
634.369	13446.62
634.563	13336.03
634.757	13503.96
634.951	13313.5
635.145	13221.34
635.339	13100.51
635.533	13182.43
635.726	12908.01
635.92	13112.8
636.114	12905.96
636.308	12742.12
636.501	12766.7
636.695	12617.19
636.889	12473.84
637.083	12363.25
637.276	12271.09
637.47	12191.22
637.664	12434.92
637.857	12363.25
638.051	12320.24
638.244	11945.46
638.438	11877.88
638.632	12031.48
638.825	11898.36
639.019	11789.81
639.212	11787.77
639.406	11730.42
639.599	11767.29
639.793	11660.79
639.986	11300.35
640.18	11535.87
640.373	11503.1
640.567	11453.95
640.76	11288.06
640.954	11275.77
641.147	11066.88
641.34	11081.22
641.534	11138.56
641.727	11048.45
641.92	11152.9
642.114	10671.62
642.307	10892.8
642.5	10767.88
642.694	10655.24
642.887	10513.93
643.08	10769.93
643.273	10485.26
643.467	10497.55
643.66	10360.33
643.853	10380.81
644.046	10454.54
644.239	10452.49
644.432	10288.65
644.626	10266.13
644.819	10214.93
645.012	10122.77
645.205	10012.18
645.398	9952.79
645.591	9965.07
645.784	9772.57
645.977	9766.42
646.17	9729.56
646.363	9578.01
646.556	9535
646.749	9659.93
646.942	9627.16
647.135	9481.75
647.328	9412.12
647.521	9451.03
647.714	9301.53
647.907	9268.77
648.099	9322.01
648.292	9240.09
648.485	9293.34
648.678	9131.55
648.871	9023.01
649.064	9133.6
649.256	8822.31
649.449	9066.02
649.642	9059.87
649.835	8660.52
650.027	8838.69
650.22	8683.05
650.413	8787.49
650.605	8590.89
650.798	8410.67
650.991	8537.64
651.183	8656.42
651.376	8603.18
651.568	8474.15
651.761	8445.48
651.954	8289.84
652.146	8459.82
652.339	8197.68
652.531	8248.88
652.724	8160.81
652.916	7982.64
653.109	8119.85
653.301	8015.41
653.494	8013.36
653.686	7704.12
653.879	7974.45
654.071	7855.67
654.263	7802.42
654.456	7810.61
654.648	7900.72
654.84	7650.87
655.033	7679.54
655.225	7786.04
655.417	7779.89
655.61	7609.91
655.802	7675.45
655.994	7503.42
656.186	7460.41
656.379	7298.62
656.571	7329.34
656.763	7337.53
656.955	7183.93
657.148	7390.78
657.34	7366.2
657.532	7077.44
657.724	7269.95
657.916	7257.66
658.108	7149.12
658.3	6897.22
658.492	7126.59
658.684	7046.72
658.876	6948.42
659.068	6837.83
659.26	6975.04
659.452	6727.24
659.644	6725.19
659.836	6815.3
660.028	6790.72
660.22	6651.46
660.412	6616.65
660.604	6755.91
660.796	6440.52
660.988	6516.3
661.18	6411.85
661.372	6260.3
661.563	6415.94
661.755	6331.98
661.947	6518.34
662.139	6360.65
662.331	6258.25
662.522	6202.96
662.714	6229.58
662.906	6178.38
663.097	6254.16
663.289	6039.12
663.481	6090.32
663.673	6151.76
663.864	6088.27
664.056	6051.41
664.247	5977.68
664.439	6010.45
664.631	5865.04
664.822	5934.67
665.014	5951.06
665.205	5762.64
665.397	5789.27
665.588	5830.23
665.78	5586.52
665.971	5762.64
666.163	5774.93
666.354	5709.4
666.546	5482.07
666.737	5563.99
666.929	5664.34
667.12	5588.57
667.311	5502.55
667.503	5359.19
667.694	5570.13
667.885	5471.83
668.077	5672.53
668.268	5394.01
668.459	5455.45
668.651	5324.38
668.842	5547.61
669.033	5324.38
669.224	5467.74
669.416	5324.38
669.607	5416.54
669.798	5357.14
669.989	5283.42
670.18	5334.62
670.371	5275.23
670.563	5217.88
670.754	5248.6
670.945	5078.62
671.136	5189.21
671.327	5144.16
671.518	4992.61
671.709	5232.22
671.9	5166.68
672.091	5021.28
672.282	5084.77
672.473	4937.31
672.664	5056.09
672.855	5021.28
673.046	4951.65
673.237	5004.89
673.428	4953.7
673.619	4974.17
673.809	5047.9
674	4847.2
674.191	4853.34
674.382	4832.86
674.573	4773.47
674.764	4730.47
674.954	4791.91
675.145	4685.41
675.336	4515.43
675.527	4761.19
675.717	4752.99
675.908	4802.15
676.099	4589.16
676.289	4830.82
676.48	4552.29
676.671	4642.4
676.861	4644.45
677.052	4589.16
677.243	4683.36
677.433	4664.93
677.624	4611.68
677.814	4505.19
678.005	4601.44
678.195	4499.05
678.386	4595.3
678.576	4558.44
678.767	4402.79
678.957	4480.61
679.148	4531.81
679.338	4501.09
679.529	4535.91
679.719	4466.28
679.909	4431.46
680.1	4384.36
680.29	4404.84
680.481	4331.11
680.671	4361.83
680.861	4347.5
681.052	4427.37
681.242	4351.59
681.432	4439.65
681.622	4306.54
681.813	4308.58
682.003	4345.45
682.193	4179.56
682.383	4173.42
682.573	4310.63
682.764	4273.77
682.954	4261.48
683.144	4296.3
683.334	4241
683.524	4257.39
683.714	4228.71
683.904	4077.16
684.094	4310.63
684.284	4251.24
684.474	4161.13
684.664	4124.27
684.854	4273.77
685.044	4197.99
685.234	4144.75
685.424	4128.36
685.614	4013.68
685.804	4056.68
685.994	4204.14
686.184	4023.92
686.374	4085.36
686.564	3952.24
686.753	4210.28
686.943	3991.15
687.133	4075.12
687.323	3909.23
687.513	3919.47
687.702	3866.22
687.892	3782.26
688.082	3896.94
688.272	3812.98
688.461	3784.3
688.651	3839.6
688.841	3882.61
689.03	3741.3
689.22	3876.46
689.41	3819.12
689.599	3903.09
689.789	3702.39
689.979	3774.07
690.168	3765.87
690.358	3757.68
690.547	3706.48
690.737	3591.8
690.926	3700.34
691.116	3538.55
691.305	3640.95
691.495	3690.1
691.684	3585.65
691.874	3497.59
692.063	3509.88
692.252	3647.09
692.442	3503.73
692.631	3513.97
692.82	3446.39
693.01	3577.46
693.199	3516.02
693.388	3323.51
693.578	3419.77
693.767	3485.3
693.956	3354.23
694.146	3415.67
694.335	3378.81
694.524	3405.43
694.713	3305.08
694.902	3395.19
695.092	3411.57
695.281	3401.33
695.47	3292.79
695.659	3325.56
695.848	3255.93
696.037	3305.08
696.226	3237.5
696.415	3202.68
696.604	3274.36
696.793	3155.58
696.982	3315.32
697.171	3311.22
697.36	3235.45
697.549	3327.61
697.738	3264.12
697.927	3270.26
698.116	3227.26
698.305	3182.2
698.494	3311.22
698.683	3085.95
698.872	3024.51
699.061	3331.7
699.25	3108.48
699.438	3126.91
699.627	3090.04
699.816	3200.63
700.005	3131
700.193	3122.81
700.382	3147.39
700.571	2967.17
700.76	3053.18
700.948	3128.95
701.137	3096.19
701.326	3077.76
701.514	3214.97
701.703	3110.52
701.892	3131
702.08	3075.71
702.269	3032.7
702.457	3036.8
702.646	3077.76
702.834	2985.6
703.023	3149.43
703.212	3090.04
703.4	3059.32
703.589	3022.46
703.777	3028.6
703.965	2987.65
704.154	3069.56
704.342	2963.07
704.531	3006.08
704.719	2940.54
704.907	3098.24
705.096	3053.18
705.284	3061.37
705.472	2975.36
705.661	2997.88
705.849	3126.91
706.037	2961.02
706.226	3206.78
706.414	3014.27
706.602	2977.41
706.79	3022.46
706.979	3010.17
707.167	3016.32
707.355	2977.41
707.543	3112.57
707.731	2973.31
707.919	3055.23
708.107	3020.41
708.296	2897.53
708.484	3030.65
708.672	2971.26
708.86	2965.12
709.048	3008.12
709.236	3006.08
709.424	3047.04
709.612	2989.69
709.8	2887.29
709.988	2922.11
710.176	3085.95
710.364	3026.56
710.551	3071.61
710.739	2948.73
710.927	3077.76
711.115	3026.56
711.303	3124.86
711.491	2899.58
711.679	3008.12
711.866	3012.22
712.054	2969.21
712.242	2915.97
712.43	3083.9
712.617	2963.07
712.805	3047.04
712.993	3090.04
713.181	2799.23
713.368	2944.64
713.556	2999.93
713.744	2975.36
713.931	2993.79
714.119	2922.11
714.306	3032.7
714.494	3057.28
714.682	3057.28
714.869	2977.41
715.057	3026.56
715.244	3018.36
715.432	3004.03
715.619	2967.17
715.807	3067.52
715.994	3022.46
716.182	3036.8
716.369	2956.93
716.556	3049.08
716.744	2963.07
716.931	2983.55
717.119	3044.99
717.306	2920.06
717.493	2999.93
717.681	2918.01
717.868	3104.38
718.055	3020.41
718.242	3004.03
718.43	3077.76
718.617	3001.98
718.804	2883.2
718.991	3032.7
719.179	3065.47
719.366	2875.01
719.553	3047.04
719.74	2870.91
719.927	3016.32
720.114	3044.99
720.301	2997.88
720.488	2905.73
720.676	2971.26
720.863	2897.53
721.05	2920.06
721.237	2938.49
721.424	3063.42
721.611	3018.36
721.798	2934.4
721.985	3061.37
722.172	2975.36
722.358	3094.14
722.545	3032.7
722.732	3004.03
722.919	3139.19
723.106	2956.93
723.293	3022.46
723.48	2875.01
723.667	2989.69
723.853	2999.93
724.04	2971.26
724.227	3075.71
724.414	3053.18
724.6	2961.02
724.787	3018.36
724.974	3001.98
725.161	3026.56
725.347	2918.01
725.534	2926.21
725.72	3018.36
725.907	2950.78
726.094	3079.8
726.28	3077.76
726.467	2979.45
726.653	3012.22
726.84	3042.94
727.027	3159.67
727.213	3042.94
727.4	3108.48
727.586	3055.23
727.773	3006.08
727.959	3034.75
728.145	2987.65
728.332	2985.6
728.518	2999.93
728.705	3020.41
728.891	2997.88
729.077	2915.97
729.264	3026.56
729.45	2889.34
729.636	3108.48
729.823	3090.04
730.009	2971.26
730.195	3061.37
730.382	2901.63
730.568	2918.01
730.754	3083.9
730.94	2928.25
731.126	3088
731.313	2979.45
731.499	2856.58
731.685	3135.1
731.871	3022.46
732.057	3141.24
732.243	2961.02
732.429	3051.13
732.615	2926.21
732.801	3071.61
732.987	2969.21
733.173	2956.93
733.359	2985.6
733.545	3010.17
733.731	3020.41
733.917	2946.69
734.103	2983.55
734.289	2967.17
734.475	2915.97
734.661	3014.27
734.847	2956.93
735.033	2942.59
735.219	2899.58
735.404	2999.93
735.59	2924.16
735.776	2979.45
735.962	2979.45
736.148	2920.06
736.333	2881.15
736.519	3004.03
736.705	2961.02
736.89	2958.97
737.076	2948.73
737.262	2963.07
737.447	2877.05
737.633	2926.21
737.819	2963.07
738.004	2969.21
738.19	2887.29
738.375	3032.7
738.561	3006.08
738.747	2870.91
738.932	2909.82
739.118	2854.53
739.303	2866.81
739.489	2889.34
739.674	2875.01
739.859	2780.8
740.045	2915.97
740.23	2786.94
740.416	2780.8
740.601	2854.53
740.786	2748.03
740.972	2797.18
741.157	2846.34
741.342	2856.58
741.528	2721.41
741.713	2723.46
741.898	2651.78
742.084	2799.23
742.269	2825.86
742.454	2752.13
742.639	2784.9
742.824	2715.27
743.01	2739.84
743.195	2686.59
743.38	2666.11
743.565	2764.42
743.75	2629.25
743.935	2727.55
744.12	2625.15
744.305	2576
744.49	2653.83
744.675	2686.59
744.86	2559.62
745.045	2533
745.23	2549.38
745.415	2608.77
745.6	2504.32
745.785	2510.47
745.97	2504.32
746.155	2524.8
746.34	2528.9
746.525	2412.17
746.71	2446.98
746.895	2412.17
747.079	2588.29
747.264	2457.22
747.449	2270.86
747.634	2385.54
747.819	2381.45
748.003	2334.34
748.188	2385.54
748.373	2324.1
748.557	2324.1
748.742	2233.99
748.927	2328.2
749.111	2391.69
749.296	2279.05
749.481	2268.81
749.665	2236.04
749.85	2133.64
750.034	2264.71
750.219	2225.8
750.404	2174.6
750.588	2156.17
750.773	2182.79
750.957	2160.27
751.141	2156.17
751.326	2129.55
751.51	2090.63
751.695	2043.53
751.879	2303.62
752.064	2080.39
752.248	2049.68
752.432	2141.83
752.617	2004.62
752.801	2002.57
752.985	1963.66
753.17	1986.19
753.354	2129.55
753.538	1969.8
753.722	1969.8
753.907	1934.99
754.091	2041.48
754.275	1920.65
754.459	1812.11
754.643	1789.58
754.828	1787.54
755.012	1834.64
755.196	1846.93
755.38	1797.78
755.564	1754.77
755.748	1855.12
755.932	1902.22
756.116	1658.51
756.3	1752.72
756.484	1785.49
756.668	1724.05
756.852	1656.47
757.036	1648.27
757.22	1744.53
757.404	1713.81
757.588	1672.85
757.772	1781.39
757.956	1586.83
758.14	1607.31
758.323	1576.59
758.507	1623.7
758.691	1615.51
758.875	1648.27
759.059	1625.75
759.242	1605.27
759.426	1558.16
759.61	1480.34
759.794	1504.92
759.977	1519.25
760.161	1621.65
760.345	1605.27
760.528	1486.48
760.712	1406.61
760.895	1535.64
761.079	1406.61
761.263	1466
761.446	1498.77
761.63	1375.89
761.813	1476.24
761.997	1445.52
762.18	1453.72
762.364	1461.91
762.547	1375.89
762.731	1400.47
762.914	1406.61
763.098	1326.74
763.281	1377.94
763.464	1406.61
763.648	1394.33
763.831	1449.62
764.015	1306.26
764.198	1355.41
764.381	1328.79
764.564	1291.93
764.748	1302.17
764.931	1420.95
765.114	1306.26
765.297	1310.36
765.481	1220.25
765.664	1244.82
765.847	1359.51
766.03	1265.3
766.213	1199.77
766.397	1222.3
766.58	1238.68
766.763	1218.2
766.946	1263.26
767.129	1210.01
767.312	1261.21
767.495	1250.97
767.678	1246.87
767.861	1181.34
768.044	1246.87
768.227	1250.97
768.41	1230.49
768.593	1222.3
768.776	1197.72
768.959	1089.18
769.142	1171.1
769.324	1255.06
769.507	1128.09
769.69	1056.41
769.873	1109.66
770.056	1130.14
770.239	1113.75
770.421	1173.14
770.604	1142.43
770.787	1119.9
770.97	1070.75
771.152	1052.31
771.335	1144.47
771.518	1040.03
771.7	1123.99
771.883	1068.7
772.066	1009.31
772.248	1183.38
772.431	1095.32
772.613	1042.07
772.796	1029.79
772.978	976.54
773.161	1103.51
773.343	1048.22
773.526	935.58
773.708	1029.79
773.891	956.06
774.073	1019.55
774.256	978.59
774.438	976.54
774.621	1054.36
774.803	960.16
774.985	929.44
775.168	927.39
775.35	997.02
775.532	886.43
775.715	872.09
775.897	984.73
776.079	929.44
776.261	919.2
776.444	898.72
776.626	974.49
776.808	847.52
776.99	839.33
777.173	870.05
777.355	919.2
777.537	802.46
777.719	824.99
777.901	839.33
778.083	820.89
778.265	849.57
778.447	804.51
778.629	886.43
778.811	911
778.993	829.09
779.175	788.13
779.357	745.12
779.539	704.16
779.721	779.93
779.903	814.75
780.085	824.99
780.267	753.31
780.449	730.78
780.631	769.69
780.812	769.69
780.994	732.83
781.176	745.12
781.358	667.3
781.54	747.17
781.721	806.56
781.903	669.34
782.085	661.15
782.267	732.83
782.448	714.4
782.63	652.96
782.812	673.44
782.993	661.15
783.175	652.96
783.357	599.71
783.538	655.01
783.72	667.3
783.901	622.24
784.083	652.96
784.264	579.23
784.446	587.43
784.627	605.86
784.809	698.02
784.99	618.15
785.172	659.1
785.353	593.57
785.535	652.96
785.716	638.62
785.897	609.95
786.079	583.33
786.26	616.1
786.441	568.99
786.623	634.53
786.804	583.33
786.985	476.84
787.167	497.32
787.348	525.99
787.529	528.03
787.71	675.49
787.891	581.28
788.073	464.55
788.254	558.75
788.435	525.99
788.616	458.4
788.797	544.42
788.978	480.93
789.159	511.65
789.34	562.85
789.522	462.5
789.703	528.03
789.884	427.68
790.065	521.89
790.246	501.41
790.427	480.93
790.607	507.55
790.788	536.23
790.969	425.64
791.15	530.08
791.331	407.2
791.512	478.88
791.693	403.11
791.874	450.21
792.054	472.74
792.235	517.79
792.416	431.78
792.597	482.98
792.778	460.45
792.958	501.41
793.139	444.07
793.32	382.63
793.5	417.44
793.681	405.16
793.862	427.68
794.042	394.92
794.223	374.44
794.404	394.92
794.584	382.63
794.765	376.48
794.945	304.81
795.126	462.5
795.306	415.4
795.487	458.4
795.667	407.2
795.848	417.44
796.028	433.83
796.209	396.96
796.389	448.16
796.57	358.05
796.75	370.34
796.93	313
797.111	386.72
797.291	407.2
797.471	325.29
797.652	364.2
797.832	411.3
798.012	413.35
798.192	347.81
798.373	298.66
798.553	413.35
798.733	304.81
798.913	239.27
799.093	310.95
799.274	360.1
799.454	337.57
799.634	374.44
799.814	353.96
799.994	376.48
800.174	284.33
800.354	347.81
800.534	353.96
800.714	235.18
800.894	343.72
801.074	306.85
801.254	288.42
801.434	335.53
801.614	284.33
801.794	231.08
801.974	695.97
802.154	263.85
802.334	284.33
802.514	290.47
802.693	247.46
802.873	233.13
803.053	269.99
803.233	306.85
803.413	280.23
803.592	284.33
803.772	321.19
803.952	313
804.131	290.47
804.311	235.18
804.491	267.94
804.67	251.56
804.85	278.18
805.03	349.86
805.209	284.33
805.389	296.61
805.568	290.47
805.748	269.99
805.928	255.65
806.107	218.79
806.287	247.46
806.466	257.7
806.646	286.37
806.825	167.59
807.004	261.8
807.184	276.13
807.363	194.22
807.543	202.41
807.722	177.83
807.901	208.55
808.081	286.37
808.26	179.88
808.439	241.32
808.619	202.41
808.798	290.47
808.977	286.37
809.156	310.95
809.336	282.28
809.515	257.7
809.694	212.65
809.873	233.13
810.052	212.65
810.231	222.89
810.411	208.55
810.59	226.98
810.769	161.45
810.948	208.55
811.127	181.93
811.306	212.65
811.485	216.74
811.664	229.03
811.843	192.17
812.022	214.7
812.201	202.41
812.38	206.5
812.559	186.02
812.737	204.46
812.916	140.97
813.095	149.16
813.274	179.88
813.453	239.27
813.632	136.87
813.811	196.26
813.989	173.74
814.168	196.26
814.347	231.08
814.526	255.65
814.704	163.5
814.883	226.98
815.062	194.22
815.24	190.12
815.419	188.07
815.598	149.16
815.776	229.03
815.955	169.64
816.133	210.6
816.312	179.88
816.49	130.73
816.669	218.79
816.847	186.02
817.026	175.78
817.204	124.58
817.383	186.02
817.561	108.2
817.74	269.99
817.918	108.2
818.097	163.5
818.275	188.07
818.453	157.35
818.632	200.36
818.81	102.06
818.988	126.63
819.167	161.45
819.345	159.4
819.523	194.22
819.701	179.88
819.879	169.64
820.058	218.79
820.236	224.94
820.414	143.02
820.592	173.74
820.77	134.82
820.948	169.64
821.127	202.41
821.305	157.35
821.483	192.17
821.661	212.65
821.839	157.35
822.017	159.4
822.195	85.67
822.373	181.93
822.551	188.07
822.729	204.46
822.907	177.83
823.085	161.45
823.262	50.86
823.44	118.44
823.618	171.69
823.796	120.49
823.974	235.18
824.152	140.97
824.329	132.78
824.507	104.11
824.685	143.02
824.863	175.78
825.04	134.82
825.218	188.07
825.396	208.55
825.574	181.93
825.751	114.34
825.929	226.98
826.107	136.87
826.284	147.11
826.462	169.64
826.639	183.98
826.817	85.67
826.994	128.68
827.172	120.49
827.349	132.78
827.527	128.68
827.704	124.58
827.882	163.5
828.059	95.91
828.237	52.91
828.414	118.44
828.591	136.87
828.769	75.43
828.946	22.19
829.124	163.5
829.301	100.01
829.478	46.76
829.655	169.64
829.833	159.4
830.01	128.68
830.187	87.72
830.364	118.44
830.542	134.82
830.719	128.68
830.896	112.3
831.073	30.38
831.25	22.19
831.427	124.58
831.604	122.54
831.782	93.87
831.959	81.58
832.136	151.21
832.313	194.22
832.49	132.78
832.667	134.82
832.844	132.78
833.021	149.16
833.198	124.58
833.374	151.21
833.551	167.59
833.728	151.21
833.905	128.68
834.082	59.05
834.259	65.19
834.436	110.25
834.612	138.92
834.789	192.17
834.966	73.39
835.143	104.11
835.319	100.01
835.496	145.06
835.673	136.87
835.85	79.53
836.026	108.2
836.203	196.26
836.38	155.3
836.556	145.06
836.733	42.67
836.909	181.93
837.086	116.39
837.262	79.53
837.439	9.9
837.616	87.72
837.792	118.44
837.968	48.81
838.145	79.53
838.321	79.53
838.498	5.8
838.674	87.72
838.851	75.43
839.027	118.44
839.203	97.96
839.38	61.1
839.556	93.87
839.732	108.2
839.909	63.15
840.085	108.2
840.261	130.73
840.437	136.87
840.614	52.91
840.79	104.11
840.966	65.19
841.142	97.96
841.318	93.87
841.494	69.29
841.671	100.01
841.847	140.97
842.023	44.71
842.199	128.68
842.375	77.48
842.551	79.53
842.727	110.25
842.903	65.19
843.079	59.05
843.255	59.05
843.431	112.3
843.607	75.43
843.783	95.91
843.959	22.19
844.134	52.91
844.31	69.29
844.486	16.04
844.662	57
844.838	52.91
845.013	67.24
845.189	112.3
845.365	67.24
845.541	-0.34
845.716	104.11
845.892	79.53
846.068	81.58
846.244	-24.92
846.419	-4.44
846.595	104.11
846.77	83.63
846.946	116.39
847.122	91.82
847.297	71.34
847.473	75.43
847.648	75.43
847.824	91.82
847.999	22.19
848.175	18.09
848.35	71.34
848.526	28.33
848.701	104.11
848.876	65.19
849.052	87.72
849.227	77.48
849.403	57
849.578	132.78
849.753	65.19
849.929	67.24
850.104	22.19
850.279	48.81
850.454	102.06
850.63	71.34
850.805	100.01
850.98	85.67
851.155	73.39
851.33	77.48
851.505	3.75
851.681	104.11
851.856	89.77
852.031	93.87
852.206	9.9
852.381	5.8
852.556	95.91
852.731	67.24
852.906	18.09
853.081	3.75
853.256	100.01
853.431	36.52
853.606	-4.44
853.781	13.99
853.956	-18.77
854.131	93.87
854.305	97.96
854.48	81.58
854.655	42.67
854.83	57
855.005	102.06
855.18	63.15
855.354	42.67
855.529	24.23
855.704	9.9
855.879	102.06
856.053	65.19
856.228	81.58
856.403	32.43
856.577	32.43
856.752	32.43
856.926	7.85
857.101	65.19
857.276	22.19
857.45	9.9
857.625	79.53
857.799	91.82
857.974	44.71
858.148	50.86
858.323	26.28
858.497	11.95
858.672	22.19
858.846	18.09
859.02	71.34
859.195	9.9
859.369	65.19
859.543	61.1
859.718	34.47
859.892	42.67
860.066	-31.06
860.241	44.71
860.415	-51.54
860.589	9.9
860.763	54.95
860.938	-24.92
861.112	11.95
861.286	5.8
861.46	112.3
861.634	-24.92
861.808	26.28
861.982	85.67
862.157	13.99
862.331	20.14
862.505	75.43
862.679	97.96
862.853	79.53
863.027	34.47
863.201	44.71
863.375	13.99
863.549	44.71
863.722	50.86
863.896	85.67
864.07	30.38
864.244	67.24
864.418	79.53
864.592	24.23
864.766	28.33
864.939	1.71
865.113	34.47
865.287	13.99
865.461	18.09
865.634	61.1
865.808	-26.96
865.982	63.15
866.156	149.16
866.329	1.71
866.503	13.99
866.676	36.52
866.85	71.34
867.024	36.52
867.197	3.75
867.371	36.52
867.544	3.75
867.718	-12.63
867.891	59.05
868.065	18.09
868.238	40.62
868.412	59.05
868.585	54.95
868.759	104.11
868.932	42.67
869.105	32.43
869.279	-4.44
869.452	-22.87
869.625	79.53
869.799	-33.11
869.972	-2.39
870.145	3.75
870.319	59.05
870.492	5.8
870.665	7.85
870.838	26.28
871.011	-35.16
871.185	28.33
871.358	11.95
871.531	42.67
871.704	18.09
871.877	38.57
872.05	28.33
872.223	61.1
872.396	52.91
872.569	118.44
872.742	75.43
872.915	32.43
873.088	-33.11
873.261	-16.73
873.434	-59.73
873.607	-16.73
873.78	20.14
873.953	-43.35
874.126	69.29
874.299	34.47
874.471	59.05
874.644	-0.34
874.817	159.4
874.99	61.1
875.163	57
875.335	-24.92
875.508	-10.58
875.681	104.11
875.853	-29.01
876.026	-4.44
876.199	-8.53
876.371	5.8
876.544	24.23
876.717	5.8
876.889	22.19
877.062	95.91
877.234	-47.44
877.407	24.23
877.579	-0.34
877.752	34.47
877.924	9.9
878.097	75.43
878.269	18.09
878.442	63.15
878.614	54.95
878.786	34.47
878.959	24.23
879.131	93.87
879.303	5.8
879.476	32.43
879.648	-12.63
879.82	22.19
879.993	7.85
880.165	-14.68
880.337	50.86
880.509	34.47
880.681	9.9
880.854	-18.77
881.026	22.19
881.198	30.38
881.37	-22.87
881.542	9.9
881.714	71.34
881.886	-24.92
882.058	3.75
882.23	-2.39
882.402	93.87
882.574	38.57
882.746	71.34
882.918	44.71
883.09	77.48
883.262	-4.44
883.434	28.33
883.606	71.34
883.778	-10.58
883.95	95.91
884.122	20.14
884.293	32.43
884.465	-4.44
884.637	61.1
884.809	81.58
884.98	-0.34
885.152	-8.53
885.324	106.15
885.496	-18.77
885.667	32.43
885.839	-24.92
886.011	77.48
886.182	-65.88
886.354	22.19
886.525	28.33
886.697	-22.87
886.869	69.29
887.04	75.43
887.212	1.71
887.383	46.76
887.555	44.71
887.726	-12.63
887.897	16.04
888.069	32.43
888.24	79.53
888.412	46.76
888.583	13.99
888.754	34.47
888.926	11.95
889.097	-29.01
889.268	-6.49
889.44	16.04
889.611	48.81
889.782	13.99
889.953	-6.49
890.125	46.76
890.296	-4.44
890.467	28.33
890.638	-82.26
890.809	-80.21
890.98	-22.87
891.151	28.33
891.323	116.39
891.494	63.15
891.665	13.99
891.836	-2.39
892.007	-2.39
892.178	77.48
892.349	42.67
892.52	-12.63
892.691	30.38
892.862	5.8
893.032	34.47
893.203	52.91
893.374	40.62
893.545	48.81
893.716	20.14
893.887	16.04
894.057	18.09
894.228	-18.77
894.399	-72.02
894.57	24.23
894.74	46.76
894.911	7.85
895.082	79.53
895.253	71.34
895.423	-16.73
895.594	42.67
895.764	38.57
895.935	3.75
896.106	36.52
896.276	18.09
896.447	-26.96
896.617	18.09
896.788	-18.77
896.958	38.57
897.129	24.23
897.299	-0.34
897.47	13.99
897.64	91.82
897.81	-12.63
897.981	3.75
898.151	-41.3
898.322	-43.35
898.492	24.23
898.662	7.85
898.832	65.19
899.003	42.67
899.173	38.57
899.343	-10.58
899.513	1.71
