Data from USB4F104151__50__11-51-54-306.txt Node

Date: Fri Mar 14 11:51:54 EDT 2025
User: louis
Spectrometer: USB4F10415
Trigger mode: 4
Integration Time (sec): 2.000000E-2
Scans to average: 1
Electric dark correction enabled: true
Nonlinearity correction enabled: false
Boxcar width: 0
XAxis mode: Wavelengths
Number of Pixels in Spectrum: 3648
>>>>>Begin Spectral Data<<<<<
178.204	-75.43
178.424	-75.43
178.644	-75.43
178.864	-34.47
179.084	-65.19
179.304	-73.39
179.524	20.82
179.744	-3.75
179.964	-79.53
180.184	88.4
180.404	33.11
180.624	29.01
180.844	45.4
181.064	-36.52
181.283	14.68
181.503	-5.8
181.723	-32.43
181.943	-9.9
182.163	49.49
182.383	-7.85
182.602	47.44
182.822	37.2
183.042	-1.71
183.262	12.63
183.482	12.63
183.701	-22.19
183.921	53.59
184.141	41.3
184.361	43.35
184.58	39.25
184.8	31.06
185.02	4.44
185.239	31.06
185.459	33.11
185.679	22.87
185.898	47.44
186.118	-24.23
186.338	4.44
186.557	-13.99
186.777	59.73
186.997	96.6
187.216	6.49
187.436	39.25
187.655	6.49
187.875	51.54
188.095	0.34
188.314	59.73
188.534	29.01
188.753	-24.23
188.973	47.44
189.192	65.88
189.412	14.68
189.631	16.73
189.851	10.58
190.07	86.36
190.29	0.34
190.509	24.92
190.729	102.74
190.948	26.96
191.168	108.88
191.387	67.92
191.607	-50.86
191.826	-11.95
192.045	65.88
192.265	26.96
192.484	29.01
192.704	53.59
192.923	-18.09
193.142	90.45
193.362	20.82
193.581	2.39
193.8	-65.19
194.02	78.16
194.239	92.5
194.458	78.16
194.678	49.49
194.897	31.06
195.116	-3.75
195.335	43.35
195.555	-32.43
195.774	20.82
195.993	51.54
196.212	31.06
196.432	2.39
196.651	20.82
196.87	-11.95
197.089	-24.23
197.308	2.39
197.528	10.58
197.747	39.25
197.966	-32.43
198.185	4.44
198.404	53.59
198.623	20.82
198.842	74.07
199.062	-11.95
199.281	47.44
199.5	82.26
199.719	49.49
199.938	33.11
200.157	18.77
200.376	-18.09
200.595	112.98
200.814	55.64
201.033	33.11
201.252	20.82
201.471	53.59
201.69	72.02
201.909	10.58
202.128	4.44
202.347	51.54
202.566	31.06
202.785	16.73
203.004	4.44
203.223	39.25
203.442	37.2
203.661	-18.09
203.879	-9.9
204.098	78.16
204.317	24.92
204.536	78.16
204.755	-95.91
204.974	78.16
205.193	37.2
205.411	76.12
205.63	24.92
205.849	43.35
206.068	-46.76
206.287	-1.71
206.505	39.25
206.724	69.97
206.943	-9.9
207.162	26.96
207.381	115.03
207.599	20.82
207.818	31.06
208.037	8.53
208.255	-1.71
208.474	53.59
208.693	8.53
208.911	90.45
209.13	22.87
209.349	61.78
209.567	41.3
209.786	41.3
210.005	0.34
210.223	88.4
210.442	-48.81
210.661	43.35
210.879	16.73
211.098	14.68
211.316	-9.9
211.535	63.83
211.753	10.58
211.972	43.35
212.191	-11.95
212.409	31.06
212.628	10.58
212.846	-65.19
213.065	20.82
213.283	-36.52
213.502	-1.71
213.72	12.63
213.938	10.58
214.157	-54.95
214.375	10.58
214.594	51.54
214.812	-42.67
215.031	59.73
215.249	4.44
215.467	-34.47
215.686	-3.75
215.904	63.83
216.122	69.97
216.341	-28.33
216.559	69.97
216.778	2.39
216.996	-69.29
217.214	29.01
217.432	2.39
217.651	39.25
217.869	31.06
218.087	-1.71
218.306	65.88
218.524	49.49
218.742	6.49
218.96	-7.85
219.179	-5.8
219.397	82.26
219.615	82.26
219.833	-5.8
220.051	-1.71
220.27	90.45
220.488	49.49
220.706	-34.47
220.924	0.34
221.142	55.64
221.36	-18.09
221.578	90.45
221.796	31.06
222.015	-5.8
222.233	31.06
222.451	61.78
222.669	20.82
222.887	84.31
223.105	10.58
223.323	-24.23
223.541	-46.76
223.759	37.2
223.977	18.77
224.195	78.16
224.413	37.2
224.631	94.55
224.849	26.96
225.067	135.51
225.285	80.21
225.503	-3.75
225.721	16.73
225.939	-13.99
226.157	-26.28
226.375	88.4
226.592	8.53
226.81	29.01
227.028	-1.71
227.246	18.77
227.464	-9.9
227.682	59.73
227.9	4.44
228.117	53.59
228.335	-122.54
228.553	-1.71
228.771	135.51
228.989	57.68
229.206	-54.95
229.424	53.59
229.642	-13.99
229.86	24.92
230.077	115.03
230.295	-7.85
230.513	24.92
230.731	53.59
230.948	76.12
231.166	88.4
231.384	-1.71
231.601	14.68
231.819	78.16
232.037	49.49
232.254	-79.53
232.472	92.5
232.689	18.77
232.907	63.83
233.125	10.58
233.342	59.73
233.56	4.44
233.777	-16.04
233.995	53.59
234.213	49.49
234.43	10.58
234.648	100.69
234.865	29.01
235.083	6.49
235.3	74.07
235.518	45.4
235.735	31.06
235.953	31.06
236.17	18.77
236.388	22.87
236.605	-16.04
236.822	20.82
237.04	55.64
237.257	24.92
237.475	-69.29
237.692	29.01
237.909	-61.1
238.127	-30.38
238.344	74.07
238.562	65.88
238.779	20.82
238.996	-16.04
239.214	53.59
239.431	41.3
239.648	-1.71
239.865	57.68
240.083	61.78
240.3	22.87
240.517	-11.95
240.735	45.4
240.952	16.73
241.169	69.97
241.386	24.92
241.603	-22.19
241.821	51.54
242.038	121.17
242.255	8.53
242.472	-5.8
242.689	-7.85
242.907	-34.47
243.124	-16.04
243.341	4.44
243.558	-13.99
243.775	-3.75
243.992	26.96
244.209	65.88
244.426	26.96
244.643	76.12
244.86	94.55
245.078	67.92
245.295	57.68
245.512	78.16
245.729	37.2
245.946	0.34
246.163	-18.09
246.38	59.73
246.597	22.87
246.814	53.59
247.031	-69.29
247.248	-13.99
247.464	55.64
247.681	31.06
247.898	90.45
248.115	65.88
248.332	31.06
248.549	100.69
248.766	65.88
248.983	26.96
249.2	53.59
249.417	26.96
249.633	8.53
249.85	-9.9
250.067	-7.85
250.284	41.3
250.501	47.44
250.717	45.4
250.934	16.73
251.151	-11.95
251.368	10.58
251.585	18.77
251.801	20.82
252.018	-20.14
252.235	39.25
252.451	20.82
252.668	59.73
252.885	69.97
253.102	82.26
253.318	-57
253.535	-13.99
253.752	33.11
253.968	4.44
254.185	57.68
254.401	-7.85
254.618	65.88
254.835	86.36
255.051	76.12
255.268	-54.95
255.484	4.44
255.701	20.82
255.917	20.82
256.134	51.54
256.351	0.34
256.567	-44.71
256.784	4.44
257	-24.23
257.217	98.64
257.433	-73.39
257.65	-24.23
257.866	20.82
258.082	26.96
258.299	35.16
258.515	20.82
258.732	8.53
258.948	74.07
259.165	86.36
259.381	-9.9
259.597	49.49
259.814	10.58
260.03	-3.75
260.246	72.02
260.463	82.26
260.679	61.78
260.895	4.44
261.112	49.49
261.328	-3.75
261.544	35.16
261.761	12.63
261.977	4.44
262.193	61.78
262.409	61.78
262.626	41.3
262.842	33.11
263.058	-95.91
263.274	4.44
263.49	63.83
263.707	115.03
263.923	-18.09
264.139	-59.05
264.355	8.53
264.571	86.36
264.787	37.2
265.004	86.36
265.22	-57
265.436	33.11
265.652	-11.95
265.868	43.35
266.084	-5.8
266.3	-20.14
266.516	-89.77
266.732	20.82
266.948	55.64
267.164	-13.99
267.38	65.88
267.596	88.4
267.812	29.01
268.028	-16.04
268.244	22.87
268.46	39.25
268.676	-11.95
268.892	31.06
269.108	2.39
269.324	-11.95
269.54	-18.09
269.756	4.44
269.972	22.87
270.188	102.74
270.403	-22.19
270.619	18.77
270.835	-22.19
271.051	0.34
271.267	-52.91
271.483	37.2
271.698	10.58
271.914	37.2
272.13	33.11
272.346	59.73
272.562	-1.71
272.777	47.44
272.993	33.11
273.209	16.73
273.425	45.4
273.64	92.5
273.856	88.4
274.072	10.58
274.287	-7.85
274.503	31.06
274.719	26.96
274.934	0.34
275.15	14.68
275.366	74.07
275.581	-34.47
275.797	63.83
276.012	20.82
276.228	43.35
276.444	-16.04
276.659	55.64
276.875	26.96
277.09	20.82
277.306	-7.85
277.521	110.93
277.737	26.96
277.952	53.59
278.168	26.96
278.383	20.82
278.599	-32.43
278.814	0.34
279.03	-7.85
279.245	49.49
279.461	-22.19
279.676	53.59
279.892	37.2
280.107	8.53
280.322	74.07
280.538	24.92
280.753	14.68
280.969	72.02
281.184	39.25
281.399	108.88
281.615	2.39
281.83	55.64
282.045	-11.95
282.26	4.44
282.476	98.64
282.691	-28.33
282.906	47.44
283.122	-1.71
283.337	47.44
283.552	88.4
283.767	20.82
283.983	0.34
284.198	-71.34
284.413	29.01
284.628	61.78
284.843	82.26
285.058	35.16
285.274	41.3
285.489	2.39
285.704	8.53
285.919	72.02
286.134	74.07
286.349	-42.67
286.564	8.53
286.779	84.31
286.995	10.58
287.21	37.2
287.425	45.4
287.64	26.96
287.855	82.26
288.07	-59.05
288.285	51.54
288.5	12.63
288.715	69.97
288.93	-16.04
289.145	53.59
289.36	31.06
289.575	67.92
289.79	26.96
290.004	55.64
290.219	24.92
290.434	41.3
290.649	65.88
290.864	-3.75
291.079	33.11
291.294	10.58
291.509	72.02
291.724	65.88
291.938	8.53
292.153	29.01
292.368	14.68
292.583	43.35
292.798	-20.14
293.012	-1.71
293.227	59.73
293.442	26.96
293.657	84.31
293.871	72.02
294.086	100.69
294.301	41.3
294.516	31.06
294.73	-5.8
294.945	-34.47
295.16	-7.85
295.374	88.4
295.589	65.88
295.804	12.63
296.018	6.49
296.233	98.64
296.447	51.54
296.662	29.01
296.877	35.16
297.091	-34.47
297.306	33.11
297.52	49.49
297.735	74.07
297.949	-3.75
298.164	2.39
298.378	65.88
298.593	18.77
298.807	74.07
299.022	37.2
299.236	-26.28
299.451	26.96
299.665	10.58
299.88	18.77
300.094	20.82
300.309	14.68
300.523	2.39
300.737	59.73
300.952	47.44
301.166	74.07
301.381	33.11
301.595	6.49
301.809	12.63
302.024	61.78
302.238	18.77
302.452	18.77
302.667	-75.43
302.881	90.45
303.095	69.97
303.309	119.12
303.524	-40.62
303.738	20.82
303.952	-20.14
304.166	22.87
304.381	33.11
304.595	82.26
304.809	90.45
305.023	51.54
305.237	-1.71
305.452	0.34
305.666	-13.99
305.88	14.68
306.094	72.02
306.308	35.16
306.522	29.01
306.736	24.92
306.95	18.77
307.164	-42.67
307.379	-59.05
307.593	-46.76
307.807	-3.75
308.021	80.21
308.235	29.01
308.449	86.36
308.663	-7.85
308.877	74.07
309.091	24.92
309.305	16.73
309.519	-38.57
309.733	67.92
309.947	-20.14
310.161	76.12
310.374	20.82
310.588	-22.19
310.802	41.3
311.016	12.63
311.23	61.78
311.444	39.25
311.658	-13.99
311.872	43.35
312.085	69.97
312.299	39.25
312.513	49.49
312.727	20.82
312.941	37.2
313.154	24.92
313.368	6.49
313.582	100.69
313.796	39.25
314.009	45.4
314.223	-16.04
314.437	53.59
314.651	10.58
314.864	84.31
315.078	-24.23
315.292	-71.34
315.505	4.44
315.719	41.3
315.933	2.39
316.146	10.58
316.36	-22.19
316.573	-42.67
316.787	22.87
317.001	65.88
317.214	33.11
317.428	47.44
317.641	31.06
317.855	39.25
318.068	104.79
318.282	10.58
318.495	86.36
318.709	-1.71
318.922	65.88
319.136	76.12
319.349	51.54
319.563	51.54
319.776	26.96
319.99	-7.85
320.203	86.36
320.417	24.92
320.63	55.64
320.843	51.54
321.057	53.59
321.27	-3.75
321.483	51.54
321.697	125.27
321.91	-26.28
322.124	6.49
322.337	31.06
322.55	84.31
322.763	14.68
322.977	67.92
323.19	108.88
323.403	4.44
323.617	45.4
323.83	67.92
324.043	76.12
324.256	69.97
324.469	45.4
324.683	45.4
324.896	-44.71
325.109	49.49
325.322	-11.95
325.535	18.77
325.748	20.82
325.962	-48.81
326.175	-5.8
326.388	84.31
326.601	29.01
326.814	57.68
327.027	104.79
327.24	51.54
327.453	18.77
327.666	-13.99
327.879	-9.9
328.092	12.63
328.305	78.16
328.518	88.4
328.731	41.3
328.944	29.01
329.157	57.68
329.37	88.4
329.583	0.34
329.796	41.3
330.009	31.06
330.222	69.97
330.435	47.44
330.648	67.92
330.861	78.16
331.073	47.44
331.286	78.16
331.499	31.06
331.712	63.83
331.925	43.35
332.138	18.77
332.35	-5.8
332.563	92.5
332.776	78.16
332.989	-1.71
333.202	12.63
333.414	65.88
333.627	33.11
333.84	-52.91
334.053	-7.85
334.265	-11.95
334.478	67.92
334.691	47.44
334.903	26.96
335.116	82.26
335.329	20.82
335.541	57.68
335.754	-7.85
335.966	72.02
336.179	-18.09
336.392	49.49
336.604	31.06
336.817	0.34
337.029	65.88
337.242	10.58
337.454	63.83
337.667	-3.75
337.88	96.6
338.092	4.44
338.305	35.16
338.517	121.17
338.729	76.12
338.942	41.3
339.154	106.84
339.367	45.4
339.579	12.63
339.792	76.12
340.004	67.92
340.217	22.87
340.429	33.11
340.641	26.96
340.854	123.22
341.066	20.82
341.278	123.22
341.491	72.02
341.703	-22.19
341.915	59.73
342.128	37.2
342.34	100.69
342.552	51.54
342.764	53.59
342.977	41.3
343.189	57.68
343.401	67.92
343.613	10.58
343.826	37.2
344.038	39.25
344.25	31.06
344.462	37.2
344.674	82.26
344.886	-18.09
345.099	-1.71
345.311	2.39
345.523	-32.43
345.735	41.3
345.947	-40.62
346.159	-5.8
346.371	84.31
346.583	10.58
346.795	4.44
347.007	49.49
347.219	205.14
347.431	20.82
347.643	57.68
347.855	12.63
348.067	8.53
348.279	78.16
348.491	92.5
348.703	49.49
348.915	47.44
349.127	-32.43
349.339	106.84
349.551	49.49
349.763	86.36
349.975	84.31
350.187	112.98
350.399	69.97
350.61	65.88
350.822	37.2
351.034	18.77
351.246	41.3
351.458	72.02
351.669	26.96
351.881	-20.14
352.093	106.84
352.305	53.59
352.517	94.55
352.728	78.16
352.94	37.2
353.152	90.45
353.363	57.68
353.575	102.74
353.787	2.39
353.999	-16.04
354.21	8.53
354.422	0.34
354.633	-7.85
354.845	65.88
355.057	22.87
355.268	41.3
355.48	45.4
355.692	-28.33
355.903	82.26
356.115	67.92
356.326	22.87
356.538	14.68
356.749	92.5
356.961	121.17
357.172	-32.43
357.384	98.64
357.595	65.88
357.807	-20.14
358.018	20.82
358.23	4.44
358.441	33.11
358.653	78.16
358.864	-24.23
359.075	-38.57
359.287	55.64
359.498	20.82
359.709	-18.09
359.921	49.49
360.132	0.34
360.344	22.87
360.555	-18.09
360.766	43.35
360.977	53.59
361.189	-48.81
361.4	-7.85
361.611	26.96
361.823	-46.76
362.034	84.31
362.245	-3.75
362.456	-18.09
362.667	61.78
362.879	43.35
363.09	55.64
363.301	69.97
363.512	72.02
363.723	2.39
363.935	33.11
364.146	26.96
364.357	8.53
364.568	-1.71
364.779	102.74
364.99	117.08
365.201	31.06
365.412	31.06
365.623	33.11
365.834	49.49
366.045	63.83
366.256	31.06
366.467	53.59
366.678	69.97
366.889	-13.99
367.1	0.34
367.311	18.77
367.522	45.4
367.733	51.54
367.944	112.98
368.155	59.73
368.366	45.4
368.577	29.01
368.788	96.6
368.999	65.88
369.209	22.87
369.42	65.88
369.631	190.8
369.842	12.63
370.053	-13.99
370.264	121.17
370.474	80.21
370.685	51.54
370.896	69.97
371.107	35.16
371.317	74.07
371.528	20.82
371.739	69.97
371.95	57.68
372.16	14.68
372.371	43.35
372.582	98.64
372.792	31.06
373.003	65.88
373.214	78.16
373.424	10.58
373.635	33.11
373.846	110.93
374.056	47.44
374.267	24.92
374.477	72.02
374.688	31.06
374.898	80.21
375.109	76.12
375.319	74.07
375.53	69.97
375.74	80.21
375.951	41.3
376.161	67.92
376.372	74.07
376.582	49.49
376.793	10.58
377.003	69.97
377.214	-5.8
377.424	45.4
377.635	-26.28
377.845	61.78
378.055	78.16
378.266	72.02
378.476	55.64
378.686	35.16
378.897	76.12
379.107	18.77
379.317	63.83
379.528	55.64
379.738	78.16
379.948	57.68
380.158	-1.71
380.369	72.02
380.579	41.3
380.789	14.68
380.999	39.25
381.21	78.16
381.42	61.78
381.63	-28.33
381.84	59.73
382.05	10.58
382.261	84.31
382.471	82.26
382.681	-3.75
382.891	57.68
383.101	80.21
383.311	49.49
383.521	51.54
383.731	2.39
383.941	-20.14
384.151	39.25
384.361	20.82
384.571	63.83
384.781	45.4
384.991	-28.33
385.201	33.11
385.411	74.07
385.621	65.88
385.831	69.97
386.041	43.35
386.251	69.97
386.461	82.26
386.671	4.44
386.881	74.07
387.091	119.12
387.301	102.74
387.511	65.88
387.72	20.82
387.93	4.44
388.14	90.45
388.35	100.69
388.56	55.64
388.769	72.02
388.979	55.64
389.189	14.68
389.399	10.58
389.609	-69.29
389.818	43.35
390.028	74.07
390.238	51.54
390.447	-1.71
390.657	-11.95
390.867	29.01
391.076	47.44
391.286	55.64
391.496	76.12
391.705	82.26
391.915	115.03
392.125	135.51
392.334	57.68
392.544	69.97
392.753	106.84
392.963	37.2
393.172	69.97
393.382	108.88
393.591	57.68
393.801	61.78
394.01	108.88
394.22	65.88
394.429	41.3
394.639	37.2
394.848	41.3
395.058	86.36
395.267	-9.9
395.477	39.25
395.686	86.36
395.895	151.89
396.105	39.25
396.314	69.97
396.524	47.44
396.733	129.36
396.942	110.93
397.152	108.88
397.361	164.18
397.57	106.84
397.78	133.46
397.989	74.07
398.198	137.56
398.407	90.45
398.617	84.31
398.826	61.78
399.035	53.59
399.244	53.59
399.453	133.46
399.663	78.16
399.872	125.27
400.081	51.54
400.29	108.88
400.499	55.64
400.708	125.27
400.917	45.4
401.127	123.22
401.336	127.32
401.545	149.84
401.754	31.06
401.963	153.94
402.172	65.88
402.381	155.99
402.59	65.88
402.799	139.6
403.008	84.31
403.217	170.32
403.426	149.84
403.635	57.68
403.844	151.89
404.053	196.95
404.262	59.73
404.471	133.46
404.68	88.4
404.888	143.7
405.097	102.74
405.306	153.94
405.515	168.27
405.724	125.27
405.933	196.95
406.142	198.99
406.35	149.84
406.559	178.51
406.768	151.89
406.977	112.98
407.185	201.04
407.394	174.42
407.603	112.98
407.812	182.61
408.02	231.76
408.229	155.99
408.438	242
408.646	201.04
408.855	217.43
409.064	174.42
409.272	244.05
409.481	256.34
409.69	233.81
409.898	256.34
410.107	282.96
410.315	309.58
410.524	217.43
410.733	254.29
410.941	231.76
411.15	411.98
411.358	287.06
411.567	325.97
411.775	391.5
411.984	325.97
412.192	328.02
412.401	344.4
412.609	295.25
412.818	416.08
413.026	328.02
413.234	389.46
413.443	446.8
413.651	432.46
413.86	483.66
414.068	491.85
414.276	465.23
414.485	530.77
414.693	545.1
414.901	543.05
415.11	616.78
415.318	561.48
415.526	620.88
415.734	725.32
415.943	627.02
416.151	704.84
416.359	522.57
416.567	700.75
416.776	741.71
416.984	741.71
417.192	823.62
417.4	801.1
417.608	803.15
417.817	901.45
418.025	942.41
418.233	905.54
418.441	1059.14
418.649	1044.81
418.857	1108.29
419.065	1040.71
419.273	1149.25
419.481	1112.39
419.689	1155.4
419.897	1243.46
420.105	1313.09
420.313	1306.95
420.521	1411.39
420.729	1370.43
420.937	1403.2
421.145	1487.17
421.353	1601.85
421.561	1597.76
421.769	1665.34
421.977	1712.44
422.185	1775.93
422.393	1855.8
422.601	1933.62
422.809	1747.26
423.017	1988.92
423.224	2074.93
423.432	2036.02
423.64	2048.31
423.848	2386.22
424.056	2197.81
424.263	2382.13
424.471	2406.7
424.679	2437.42
424.887	2580.78
425.094	2642.22
425.302	2681.13
425.51	2756.91
425.718	2847.02
425.925	2834.73
426.133	2918.7
426.341	3127.59
426.548	3236.13
426.756	3363.11
426.964	3369.25
427.171	3506.46
427.379	3637.53
427.586	3686.69
427.794	3901.72
428.001	3846.43
428.209	4143.38
428.417	3983.64
428.624	4335.89
428.832	4440.34
429.039	4249.88
429.247	4471.06
429.454	4686.09
429.662	5128.46
429.869	4800.78
430.076	5099.78
430.284	4870.41
430.491	5200.13
430.699	5380.36
430.906	5386.5
431.114	5603.58
431.321	5724.41
431.528	5859.58
431.736	6119.67
431.943	6422.77
432.15	6435.06
432.358	6303.99
432.565	6691.06
432.772	6766.83
432.979	7125.22
433.187	7123.18
433.394	6953.2
433.601	7663.84
433.808	7629.02
434.016	7655.65
434.223	7981.28
434.43	8493.27
434.637	8370.39
434.844	8970.44
435.052	8913.1
435.259	8876.24
435.466	8999.12
435.673	8941.77
435.88	9435.33
436.087	10033.34
436.294	9824.45
436.501	9857.21
436.708	9926.85
436.915	10393.78
437.122	10737.84
437.329	10735.79
437.537	10936.49
437.743	11262.12
437.95	11079.85
438.157	11772.07
438.364	12040.35
438.571	12202.14
438.778	12259.48
438.985	13527.17
439.192	12685.46
439.399	13355.15
439.606	12970.13
439.813	13695.11
440.02	14522.49
440.227	14289.02
440.433	14401.66
440.64	14499.96
440.847	14473.34
441.054	14903.41
441.261	15663.21
441.467	15657.06
441.674	15806.56
441.881	16545.88
442.088	16486.49
442.294	16230.49
442.501	16613.46
442.708	17229.9
442.914	17944.64
443.121	18432.06
443.328	17971.27
443.534	19312.69
443.741	18821.17
443.948	18622.52
444.154	19970.08
444.361	19918.89
444.568	19871.78
444.774	19863.59
444.981	20121.63
445.187	20717.59
445.394	21680.14
445.6	21544.97
445.807	23318.51
446.013	22245.38
446.22	22753.27
446.426	23584.75
446.633	23871.47
446.839	24690.65
447.046	23470.06
447.252	24942.55
447.459	24975.32
447.665	24735.71
447.871	25905.1
448.078	27289.52
448.284	25948.11
448.491	26476.48
448.697	27506.61
448.903	27824.04
449.11	28071.85
449.316	27940.78
449.522	27932.59
449.728	28921.76
449.935	29286.29
450.141	29288.34
450.347	29804.43
450.553	28977.05
450.76	28878.75
450.966	30201.74
451.172	30001.04
451.378	30689.15
451.584	29894.54
451.791	30754.69
451.997	30498.69
452.203	30969.72
452.409	31190.91
452.615	31227.77
452.821	29892.49
453.027	29493.14
453.233	31078.27
453.44	30027.66
453.646	30175.11
453.852	30369.67
454.058	30795.65
454.264	30044.04
454.47	30703.49
454.676	29499.28
454.882	30775.17
455.088	28039.08
455.294	28258.21
455.5	28606.37
455.705	28864.41
455.911	27901.87
456.117	27242.42
456.323	27015.1
456.529	25534.42
456.735	26816.44
456.941	26126.28
457.147	25819.08
457.352	24797.15
457.558	24676.32
457.764	24868.83
457.97	24448.99
458.176	23549.93
458.381	23617.52
458.587	22779.9
458.793	22523.9
458.999	21245.97
459.204	22724.6
459.41	22298.63
459.616	20854.81
459.821	20920.34
460.027	20633.63
460.233	20463.65
460.438	19556.39
460.644	19464.24
460.85	18364.48
461.055	18317.37
461.261	18352.19
461.466	16801.88
461.672	16427.1
461.878	17557.58
462.083	16380
462.289	15972.45
462.494	15894.63
462.7	15083.63
462.905	14653.56
463.111	15388.78
463.316	15628.39
463.522	15161.45
463.727	15222.89
463.932	14956.66
464.138	14758
464.343	15020.14
464.549	14399.61
464.754	15014
464.959	14719.09
465.165	14907.51
465.37	14362.75
465.575	13715.59
465.781	14348.41
465.986	14516.34
466.191	13885.57
466.397	13615.24
466.602	12902.54
466.807	13643.91
467.012	13480.07
467.218	13226.12
467.423	13242.51
467.628	13410.44
467.833	14004.35
468.038	13486.22
468.244	13043.85
468.449	13791.36
468.654	13054.09
468.859	12959.89
469.064	12763.28
469.269	12615.83
469.474	12497.05
469.679	12642.45
469.885	12462.23
470.09	12447.9
470.295	12519.57
470.5	12114.08
470.705	12345.5
470.91	11978.91
471.115	11602.08
471.32	12036.25
471.525	11917.47
471.73	11612.32
471.935	11378.86
472.139	11313.32
472.344	11417.77
472.549	11405.48
472.754	11057.32
472.959	10819.76
473.164	10662.07
473.369	10453.17
473.574	10883.25
473.778	10793.14
473.983	10713.27
474.188	10692.79
474.393	10342.58
474.598	10252.47
474.802	10211.51
475.007	10109.12
475.212	10057.92
475.417	9590.98
475.621	9797.82
475.826	9742.53
476.031	9568.45
476.235	9408.71
476.44	9664.71
476.645	9314.5
476.849	9517.25
477.054	9267.4
477.259	9062.6
477.463	8929.49
477.668	9015.5
477.872	9044.17
478.077	8818.89
478.282	8351.96
478.486	8687.82
478.691	8577.23
478.895	8386.77
479.1	8388.82
479.304	8323.29
479.509	8083.67
479.713	8407.25
479.918	8208.6
480.122	8061.15
480.326	8257.75
480.531	8143.07
480.735	8194.26
480.94	7979.23
481.144	8288.47
481.348	7971.04
481.553	7921.88
481.757	7655.65
481.961	8093.91
482.166	8163.54
482.37	8042.71
482.574	7799.01
482.778	7653.6
482.983	7946.46
483.187	7809.25
483.391	7997.66
483.595	7727.33
483.8	7786.72
484.004	7966.94
484.208	7872.73
484.412	7987.42
484.616	7860.45
484.821	7772.38
485.025	7536.87
485.229	7907.55
485.433	7790.81
485.637	7831.77
485.841	7770.33
486.045	7602.4
486.249	7803.1
486.453	7751.9
486.657	7735.52
486.861	7864.54
487.065	7532.77
487.269	7946.46
487.473	7723.23
487.677	7917.79
487.881	7835.87
488.085	7790.81
488.289	8001.76
488.493	7721.18
488.697	7852.25
488.901	7905.5
489.105	7784.67
489.309	7829.73
489.512	7878.88
489.716	7956.7
489.92	7966.94
490.124	7928.03
490.328	8085.72
490.531	7893.21
490.735	8052.95
490.939	8055
491.143	8063.19
491.346	7987.42
491.55	8196.31
491.754	8036.57
491.958	7983.32
492.161	8370.39
492.365	8194.26
492.569	8171.74
492.772	8347.86
492.976	8270.04
493.18	8315.09
493.383	8394.97
493.587	8564.95
493.79	8528.08
493.994	8454.36
494.197	8591.57
494.401	8671.44
494.605	8747.22
494.808	8880.33
495.012	9003.21
495.215	8859.85
495.419	9044.17
495.622	8798.42
495.825	9109.71
496.029	9093.32
496.232	9287.88
496.436	9341.13
496.639	9412.81
496.843	9289.93
497.046	9769.15
497.249	9752.77
497.453	9650.37
497.656	9920.7
497.859	9873.6
498.063	10037.44
498.266	10285.24
498.469	10252.47
498.673	10328.25
498.876	10369.21
499.079	10328.25
499.282	10608.82
499.485	10905.77
499.689	10875.06
499.892	10993.84
500.095	11079.85
500.298	11219.11
500.501	11079.85
500.705	11456.68
500.908	11341.99
501.111	11659.43
501.314	11757.73
501.517	11913.38
501.72	12040.35
501.923	12093.6
502.126	12363.93
502.329	12331.16
502.532	12458.14
502.735	12693.65
502.938	12837.01
503.141	12957.84
503.344	13316.23
503.547	13199.5
503.75	13553.8
503.953	13594.76
504.156	13539.46
504.359	13707.4
504.562	13889.67
504.765	14018.69
504.968	14241.92
505.17	14313.59
505.373	14467.19
505.576	14753.91
505.779	14753.91
505.982	15171.69
506.185	15065.2
506.387	15300.72
506.59	15380.59
506.793	15554.66
506.996	15497.32
507.198	15753.32
507.401	16035.94
507.604	16124
507.807	16339.04
508.009	16756.82
508.212	16556.12
508.415	16846.93
508.617	17096.78
508.82	17117.26
509.022	17164.37
509.225	17561.67
509.428	17657.93
509.63	17836.1
509.833	17827.91
510.035	18331.71
510.238	18432.06
510.44	18440.25
510.643	18888.76
510.845	19124.27
511.048	18950.2
511.25	19030.07
511.453	19327.02
511.655	19980.32
511.858	19806.25
512.06	19906.6
512.262	20283.42
512.465	19959.84
512.667	20561.95
512.87	20736.02
513.072	20711.45
513.274	20961.3
513.477	21309.46
513.679	21524.49
513.881	21819.4
514.084	21907.46
514.286	21868.55
514.488	22233.09
514.69	23093.24
514.893	22906.87
515.095	22796.28
515.297	23252.98
515.499	23392.24
515.701	23578.61
515.904	23693.29
516.106	23730.16
516.308	24225.76
516.51	24444.9
516.712	24276.96
516.914	24729.56
517.116	25337.81
517.318	24829.91
517.52	25333.71
517.722	25233.36
517.925	25679.82
518.127	26202.05
518.329	26175.43
518.531	26216.39
518.733	26824.64
518.935	26707.9
519.136	26851.26
519.338	27416.5
519.54	27574.19
519.742	27500.47
519.944	27752.37
520.146	28276.65
520.348	28622.75
520.55	28338.08
520.752	28389.28
520.954	28936.09
521.155	28925.85
521.357	29274.01
521.559	29941.64
521.761	30039.95
521.963	29831.05
522.164	30017.42
522.366	30248.84
522.568	30857.09
522.77	30484.36
522.971	31199.1
523.173	30969.72
523.375	31332.22
523.576	31242.1
523.778	31311.74
523.98	31936.37
524.181	31823.73
524.383	32339.82
524.584	32585.57
524.786	32663.39
524.988	32180.07
525.189	32853.86
525.391	33406.81
525.592	33285.98
525.794	33236.83
525.995	33222.49
526.197	33376.09
526.398	33476.44
526.6	34010.96
526.801	34193.23
527.003	34049.87
527.204	34246.47
527.406	34496.33
527.607	34424.65
527.808	35534.65
528.01	34285.39
528.211	34709.32
528.412	35020.61
528.614	34869.06
528.815	34662.21
529.016	35657.53
529.218	34975.55
529.419	35262.27
529.62	35323.71
529.822	35452.73
530.023	35512.12
530.224	35594.04
530.425	35288.89
530.626	35600.18
530.828	35419.96
531.029	36507.43
531.23	35702.58
531.431	35907.38
531.632	36022.06
531.833	36097.84
532.035	36212.52
532.236	36208.43
532.437	36341.55
532.638	36038.45
532.839	36433.71
533.04	36622.12
533.241	36124.46
533.442	36996.9
533.643	36349.74
533.844	36552.49
534.045	36685.61
534.246	36503.34
534.447	36257.58
534.648	36460.33
534.849	36603.69
535.05	36056.88
535.251	36417.32
535.451	36486.95
535.652	36591.4
535.853	36456.23
536.054	36708.13
536.255	36568.87
536.456	36472.62
536.657	36978.47
536.857	36720.42
537.058	36419.37
537.259	36591.4
537.46	36853.54
537.66	36456.23
537.861	36667.17
538.062	36417.32
538.263	36957.99
538.463	36585.26
538.664	36697.89
538.865	36681.51
539.065	37230.37
539.266	36263.72
539.466	36806.44
539.667	36249.39
539.868	37066.53
540.068	36824.87
540.269	36765.48
540.469	36831.01
540.67	36456.23
540.87	36960.03
541.071	36433.71
541.271	36579.11
541.472	36734.76
541.672	36366.12
541.873	36417.32
542.073	35997.49
542.274	36955.94
542.474	36851.49
542.675	36243.24
542.875	36732.71
543.075	36814.63
543.276	36173.61
543.476	36570.92
543.676	36470.57
543.877	36646.69
544.077	36763.43
544.277	36644.65
544.478	36394.79
544.678	36458.28
544.878	36138.8
545.078	36456.23
545.279	36300.59
545.479	35993.39
545.679	36894.5
545.879	36411.18
546.079	36423.47
546.28	36308.78
546.48	36298.54
546.68	36646.69
546.88	36730.66
547.08	36110.13
547.28	36370.22
547.48	36192.05
547.68	36198.19
547.88	36022.06
548.081	36722.47
548.281	36499.24
548.481	36044.59
548.681	36575.02
548.881	36294.44
549.081	36292.4
549.28	36388.65
549.48	36345.64
549.68	36042.54
549.88	36919.07
550.08	35972.91
550.28	36083.5
550.48	36091.69
550.68	36325.16
550.88	36063.02
551.08	36151.09
551.279	36132.65
551.479	35946.29
551.679	36378.41
551.879	36263.72
552.079	36173.61
552.278	36075.31
552.478	36448.04
552.678	36022.06
552.878	36140.85
553.077	35708.72
553.277	35671.86
553.477	36507.43
553.676	36032.3
553.876	35923.76
554.076	35587.89
554.275	35651.38
554.475	35415.86
554.674	35667.77
554.874	35862.32
555.074	35573.56
555.273	35796.79
555.473	35860.27
555.672	35548.98
555.872	35915.57
556.071	35725.11
556.271	35637.05
556.47	35432.25
556.67	35487.54
556.869	35643.19
557.068	35866.42
557.268	35430.2
557.467	35610.42
557.667	35618.61
557.866	35249.98
558.065	35168.06
558.265	35096.38
558.464	35448.63
558.663	35401.53
558.863	35047.23
559.062	35362.62
559.261	35000.13
559.461	35286.84
559.66	34563.91
559.859	34955.07
560.058	34350.92
560.258	34907.97
560.457	34639.68
560.656	34508.61
560.855	34469.7
561.054	34645.83
561.253	34432.84
561.453	33933.14
561.652	34563.91
561.851	34621.25
562.05	34191.18
562.249	33793.87
562.448	34023.25
562.647	34107.21
562.846	34361.16
563.045	34162.51
563.244	33920.85
563.443	34240.33
563.642	33359.7
563.841	33949.52
564.04	33890.13
564.239	33992.53
564.438	33312.6
564.637	33509.21
564.836	33496.92
565.035	33363.8
565.234	33279.83
565.432	33302.36
565.631	33296.22
565.83	33302.36
566.029	32788.32
566.228	33027.93
566.427	33034.08
566.625	32790.37
566.824	32507.75
567.023	33050.46
567.222	32405.35
567.42	32835.42
567.619	32251.75
567.818	32481.13
568.016	32305
568.215	32524.13
568.414	32348.01
568.612	32333.67
568.811	32253.8
569.01	32016.24
569.208	31690.61
569.407	31727.47
569.605	31836.02
569.804	31694.71
570.002	31954.8
570.201	31702.9
570.4	31121.27
570.598	31469.43
570.797	31221.62
570.995	31500.15
571.193	31223.67
571.392	31108.99
571.59	30885.76
571.789	31061.88
571.987	30805.89
572.186	30717.82
572.384	30760.83
572.582	30986.11
572.781	30596.99
572.979	30222.22
573.177	30533.51
573.376	30633.86
573.574	30427.01
573.772	30631.81
573.971	30228.36
574.169	30134.15
574.367	29939.6
574.565	30195.59
574.763	29927.31
574.962	30138.25
575.16	29558.67
575.358	29689.74
575.556	29417.36
575.754	29892.49
575.952	29222.81
576.151	29736.85
576.349	28960.67
576.547	29018.01
576.745	29122.46
576.943	29040.54
577.141	29321.11
577.339	28741.53
577.537	28831.65
577.735	28944.28
577.933	28950.43
578.131	28598.18
578.329	28639.14
578.527	28309.41
578.725	28266.41
578.923	28575.65
579.121	28159.91
579.319	28135.34
579.516	28239.78
579.714	28401.57
579.912	27723.69
580.11	28075.94
580.308	27936.68
580.506	28055.47
580.704	27729.84
580.901	27961.26
581.099	27879.34
581.297	27262.9
581.495	27248.57
581.692	27385.78
581.89	27076.54
582.088	27643.82
582.285	27076.54
582.483	27398.07
582.681	26963.9
582.878	26779.58
583.076	26517.44
583.274	27109.3
583.471	26617.79
583.669	26757.05
583.866	26556.35
584.064	26748.86
584.262	26400.71
584.459	26372.03
584.657	26367.94
584.854	26456
585.052	25958.35
585.249	26040.26
585.447	25995.21
585.644	25829.32
585.841	25937.87
586.039	25763.79
586.236	25708.49
586.434	25823.18
586.631	25513.94
586.828	25681.87
587.026	25534.42
587.223	25567.18
587.42	25421.78
587.618	25470.93
587.815	25149.4
588.012	25137.11
588.21	24889.31
588.407	25100.25
588.604	24823.77
588.801	24731.61
588.999	24748
589.196	24862.68
589.393	24594.4
589.59	24369.12
589.787	24371.17
589.984	24287.2
590.182	24088.55
590.379	24438.75
590.576	24303.59
590.773	24215.52
590.97	23840.75
591.167	24049.64
591.364	23627.76
591.561	23969.77
591.758	23793.64
591.955	23615.47
592.152	23607.28
592.349	23590.89
592.546	23613.42
592.743	23613.42
592.94	22923.26
593.137	23191.54
593.334	23308.27
593.531	22808.57
593.727	23089.14
593.924	23103.48
594.121	23080.95
594.318	23173.11
594.515	22585.34
594.712	22757.37
594.908	22806.52
595.105	22675.45
595.302	22302.72
595.499	22507.52
595.696	22462.46
595.892	22329.34
596.089	22609.92
596.286	22425.6
596.482	22081.54
596.679	21932.04
596.876	22194.18
597.072	21790.73
597.269	21968.9
597.466	22075.4
597.662	21678.09
597.859	21813.26
598.055	21956.61
598.252	21766.15
598.448	21684.23
598.645	21743.63
598.841	21356.56
599.038	21624.84
599.234	21436.43
599.431	20971.54
599.627	21196.82
599.824	21207.06
600.02	21125.14
600.217	21317.65
600.413	21063.7
600.609	20987.93
600.806	20736.02
601.002	20783.13
601.198	20627.48
601.395	20379.68
601.591	20527.13
601.787	20490.27
601.984	20408.35
602.18	20637.72
602.376	20576.28
602.572	20101.15
602.769	20088.87
602.965	20152.35
603.161	20254.75
603.357	20088.87
603.553	19941.41
603.75	20224.03
603.946	19734.57
604.142	19683.37
604.338	19673.13
604.534	19777.58
604.73	19277.87
604.926	19515.44
605.122	19533.87
605.318	19273.78
605.514	19402.8
605.71	19187.76
605.906	19167.28
606.102	19310.64
606.298	19185.71
606.494	19241.01
606.69	19177.52
606.886	18872.37
607.082	18751.54
607.278	19118.13
607.474	18544.7
607.67	18776.12
607.866	18643
608.062	18956.34
608.257	18749.5
608.453	18841.65
608.649	18763.83
608.845	18556.99
609.041	18475.07
609.236	18702.39
609.432	18618.43
609.628	18612.28
609.824	18567.23
610.019	18364.48
610.215	18368.57
610.411	18511.93
610.606	18227.26
610.802	18319.42
610.998	18356.29
611.193	18190.4
611.389	18122.82
611.584	18415.68
611.78	17891.4
611.976	17797.19
612.171	17991.75
612.367	18022.47
612.562	17975.36
612.758	17670.22
612.953	17881.16
613.149	17756.23
613.344	17809.48
613.539	18040.9
613.735	17772.61
613.93	17602.63
614.126	17391.69
614.321	17680.46
614.517	17643.59
614.712	17338.44
614.907	17377.36
615.103	17322.06
615.298	17365.07
615.493	17610.82
615.688	17117.26
615.884	17721.41
616.079	17096.78
616.274	17371.21
616.47	17436.75
616.665	17131.6
616.86	16898.13
617.055	17086.54
617.25	17061.97
617.445	17272.91
617.641	16871.51
617.836	16758.87
618.031	16746.58
618.226	16898.13
618.421	16707.67
618.616	16775.25
618.811	16742.49
619.006	16568.41
619.201	16572.5
619.396	16627.8
619.591	16277.6
619.786	16373.85
619.981	16068.7
620.176	16291.93
620.371	16095.33
620.566	16212.06
620.761	16078.94
620.956	16017.5
621.151	15718.5
621.346	15736.93
621.541	15800.42
621.735	15695.97
621.93	15466.6
622.125	15323.24
622.32	15302.76
622.515	15575.14
622.709	15071.34
622.904	15241.32
623.099	15313
623.294	15229.04
623.488	14983.28
623.683	15020.14
623.878	14628.98
624.072	14682.23
624.267	14475.38
624.462	14565.5
624.656	14483.58
624.851	14692.47
625.046	14428.28
625.24	14194.81
625.435	14110.85
625.629	14329.98
625.824	14110.85
626.018	13865.09
626.213	13695.11
626.407	14061.69
626.602	13439.11
626.796	13658.24
626.991	13838.47
627.185	13535.37
627.38	13373.58
627.574	13670.53
627.768	13144.2
627.963	13416.58
628.157	13054.09
628.352	13197.45
628.546	12896.4
628.74	12902.54
628.935	12877.97
629.129	12853.39
629.323	12626.07
629.517	12722.32
629.712	12495
629.906	12402.84
630.1	12365.98
630.294	12449.94
630.489	12322.97
630.683	12316.83
630.877	12257.43
631.071	12054.69
631.265	12329.11
631.459	12073.12
631.653	12021.92
631.848	11907.23
632.042	11884.7
632.236	11964.57
632.43	11649.19
632.624	11745.44
632.818	11698.34
633.012	11483.3
633.206	11450.53
633.4	11532.45
633.594	11339.94
633.788	11212.97
633.982	11194.54
634.176	11274.41
634.369	11301.03
634.563	11004.08
634.757	10819.76
634.951	10961.07
635.145	10928.3
635.339	10930.35
635.533	10762.42
635.726	10748.08
635.92	10780.85
636.114	10907.82
636.308	10590.39
636.501	10612.92
636.695	10582.2
636.889	10291.38
637.083	10518.71
637.276	10225.85
637.47	10193.08
637.664	10283.19
637.857	10096.83
638.051	10059.96
638.244	10014.91
638.438	10166.46
638.632	10100.92
638.825	9760.96
639.019	9711.81
639.212	9701.57
639.406	9775.3
639.599	9808.06
639.793	9687.23
639.986	9337.03
640.18	9595.07
640.373	9441.48
640.567	9328.84
640.76	9251.02
640.954	9165
641.147	9201.86
641.34	9451.72
641.534	9208.01
641.727	8999.12
641.92	9210.06
642.114	9136.33
642.307	9029.84
642.5	8896.72
642.694	8837.33
642.887	8857.81
643.08	8904.91
643.273	8757.46
643.467	8722.64
643.66	8513.75
643.853	8583.38
644.046	8444.12
644.239	8577.23
644.432	8483.03
644.626	8306.9
644.819	8292.57
645.012	8378.58
645.205	8339.67
645.398	8251.61
645.591	8282.33
645.784	8259.8
645.977	7966.94
646.17	8220.89
646.363	8026.33
646.556	8055
646.749	8077.53
646.942	7774.43
647.135	7932.12
647.328	7831.77
647.521	7737.57
647.714	7792.86
647.907	7674.08
648.099	7653.6
648.292	7592.16
648.485	7606.5
648.678	7381.22
648.871	7588.07
649.064	7405.8
649.256	7729.38
649.449	7301.35
649.642	7366.88
649.835	7213.29
650.027	7244.01
650.22	7237.86
650.413	7186.66
650.605	7274.73
650.798	7160.04
650.991	7010.54
651.183	6990.06
651.376	7069.93
651.568	7020.78
651.761	6854.89
651.954	7049.45
652.146	6750.45
652.339	6977.77
652.531	6994.15
652.724	6668.53
652.916	6775.02
653.109	6693.1
653.301	6529.27
653.494	6564.08
653.686	6570.23
653.879	6527.22
654.071	6549.75
654.263	6445.3
654.456	6613.23
654.648	6498.55
654.84	6347
655.033	6410.48
655.225	6349.04
655.417	6334.71
655.61	6328.56
655.802	6263.03
655.994	6193.4
656.186	6140.15
656.379	6064.38
656.571	6166.78
656.763	5990.65
656.955	6052.09
657.148	5976.31
657.34	5961.98
657.532	5865.72
657.724	5884.16
657.916	5820.67
658.108	6062.33
658.3	5892.35
658.492	5759.23
658.684	5722.37
658.876	5773.57
659.068	5705.98
659.26	5708.03
659.452	5681.41
659.644	5589.25
659.836	5486.85
660.028	5486.85
660.22	5492.99
660.412	5325.06
660.604	5472.51
660.796	5353.73
660.988	5548.29
661.18	5429.51
661.372	5290.24
661.563	5337.35
661.755	5441.79
661.947	5306.63
662.139	5296.39
662.331	5196.04
662.522	5232.9
662.714	5177.61
662.906	5226.76
663.097	5198.09
663.289	5083.4
663.481	5038.34
663.673	5103.88
663.864	5056.78
664.056	4878.6
664.247	4995.34
664.439	5001.48
664.631	4991.24
664.822	5015.82
665.014	4743.44
665.205	5046.54
665.397	4837.64
665.588	4800.78
665.78	4704.53
665.971	4774.16
666.163	4698.38
666.354	4792.59
666.546	4608.27
666.737	4673.81
666.929	4733.2
667.12	4493.58
667.311	4667.66
667.503	4579.6
667.694	4593.94
667.885	4630.8
668.077	4577.55
668.268	4405.52
668.459	4493.58
668.651	4632.85
668.842	4391.19
669.033	4454.67
669.224	4471.06
669.416	4307.22
669.607	4434.19
669.798	4301.08
669.989	4333.84
670.18	4382.99
670.371	4448.53
670.563	4389.14
670.754	4301.08
670.945	4268.31
671.136	4221.2
671.327	4280.6
671.518	4278.55
671.709	4292.88
671.9	4258.07
672.091	4188.44
672.282	4176.15
672.473	4315.41
672.664	4165.91
672.855	4141.33
673.046	4090.13
673.237	4040.98
673.428	4131.09
673.619	4116.76
673.809	4100.37
674	3995.93
674.191	3991.83
674.382	4024.6
674.573	4055.32
674.764	3993.88
674.954	4063.51
675.145	3993.88
675.336	3903.77
675.527	3858.71
675.717	3905.82
675.908	3887.39
676.099	4086.04
676.289	4067.61
676.48	3936.54
676.671	4051.22
676.861	3864.86
677.052	3957.02
677.243	3920.15
677.433	3860.76
677.624	3868.95
677.814	3905.82
678.005	3877.15
678.195	3791.13
678.386	3819.8
678.576	3827.99
678.767	3780.89
678.957	3703.07
679.148	3725.6
679.338	3791.13
679.529	3801.37
679.719	3762.46
679.909	3811.61
680.1	3748.12
680.29	3784.99
680.481	3836.19
680.671	3703.07
680.861	3770.65
681.052	3719.45
681.242	3688.73
681.432	3690.78
681.622	3717.4
681.813	3608.86
682.003	3762.46
682.193	3473.7
682.383	3836.19
682.573	3694.88
682.764	3631.39
682.954	3621.15
683.144	3678.49
683.334	3543.33
683.524	3545.38
683.714	3539.23
683.904	3537.18
684.094	3549.47
684.284	3612.96
684.474	3451.17
684.664	3453.22
684.854	3602.72
685.044	3553.57
685.234	3475.74
685.424	3383.59
685.614	3543.33
685.804	3645.73
685.994	3393.83
686.184	3639.58
686.374	3508.51
686.564	3418.4
686.753	3320.1
686.943	3352.87
687.133	3313.95
687.323	3375.39
687.513	3408.16
687.702	3410.21
687.892	3289.38
688.082	3299.62
688.272	3371.3
688.461	3238.18
688.651	3359.01
688.841	3275.04
689.03	3227.94
689.22	3178.79
689.41	3250.47
689.599	3287.33
689.789	3148.07
689.979	3074.34
690.168	3363.11
690.358	3062.05
690.547	3205.41
690.737	3150.12
690.926	2988.33
691.116	2973.99
691.305	3082.53
691.495	2994.47
691.684	2896.17
691.874	3121.45
692.063	3049.77
692.252	3174.69
692.442	3004.71
692.631	2973.99
692.82	2922.79
693.01	3008.81
693.199	2922.79
693.388	2849.07
693.578	2867.5
693.767	2951.46
693.956	2902.31
694.146	3021.1
694.335	2910.5
694.524	2875.69
694.713	2955.56
694.902	2853.16
695.092	2822.44
695.281	2738.48
695.47	2994.47
695.659	2754.86
695.848	2826.54
696.037	2799.91
696.226	2808.11
696.415	2808.11
696.604	2861.35
696.793	2810.15
696.982	2808.11
697.171	2773.29
697.36	2705.71
697.549	2722.09
697.738	2842.92
697.927	2709.8
698.116	2793.77
698.305	2822.44
698.494	2654.51
698.683	2806.06
698.872	2801.96
699.061	2687.28
699.25	2683.18
699.438	2646.32
699.627	2685.23
699.816	2713.9
700.005	2887.98
700.193	2781.48
700.382	2806.06
700.571	2617.65
700.76	2623.79
700.948	2795.82
701.137	2703.66
701.326	2724.14
701.514	2754.86
701.703	2713.9
701.892	2789.67
702.08	2734.38
702.269	2672.94
702.457	2691.37
702.646	2601.26
702.834	2605.36
703.023	2679.08
703.212	2619.69
703.4	2679.08
703.589	2629.93
703.777	2656.56
703.965	2685.23
704.154	2605.36
704.342	2726.19
704.531	2677.04
704.719	2617.65
704.907	2666.8
705.096	2617.65
705.284	2545.97
705.472	2599.21
705.661	2677.04
705.849	2681.13
706.037	2629.93
706.226	2697.52
706.414	2726.19
706.602	2558.25
706.79	2781.48
706.979	2730.28
707.167	2607.41
707.355	2679.08
707.543	2621.74
707.731	2707.76
707.919	2724.14
708.107	2511.15
708.296	2617.65
708.484	2564.4
708.672	2550.06
708.86	2648.36
709.048	2662.7
709.236	2462
709.424	2646.32
709.612	2601.26
709.8	2658.6
709.988	2627.89
710.176	2615.6
710.364	2629.93
710.551	2570.54
710.739	2761
710.927	2650.41
711.115	2672.94
711.303	2629.93
711.491	2677.04
711.679	2623.79
711.866	2586.93
712.054	2627.89
712.242	2591.02
712.43	2593.07
712.617	2599.21
712.805	2545.97
712.993	2580.78
713.181	2539.82
713.368	2517.29
713.556	2580.78
713.744	2515.25
713.931	2560.3
714.119	2455.86
714.306	2570.54
714.494	2660.65
714.682	2554.16
714.869	2545.97
715.057	2701.61
715.244	2703.66
715.432	2748.72
715.619	2574.64
715.807	2666.8
715.994	2548.01
716.182	2599.21
716.369	2607.41
716.556	2611.5
716.744	2769.2
716.931	2584.88
717.119	2515.25
717.306	2693.42
717.493	2650.41
717.681	2556.21
717.868	2670.89
718.055	2654.51
718.242	2679.08
718.43	2560.3
718.617	2572.59
718.804	2472.24
718.991	2652.46
719.179	2666.8
719.366	2457.9
719.553	2634.03
719.74	2558.25
719.927	2605.36
720.114	2566.45
720.301	2443.57
720.488	2593.07
720.676	2734.38
720.863	2539.82
721.05	2572.59
721.237	2634.03
721.424	2664.75
721.611	2464.05
721.798	2572.59
721.985	2578.73
722.172	2505.01
722.358	2593.07
722.545	2531.63
722.732	2525.49
722.919	2586.93
723.106	2699.56
723.293	2502.96
723.48	2625.84
723.667	2521.39
723.853	2468.14
724.04	2642.22
724.227	2638.13
724.414	2525.49
724.6	2679.08
724.787	2615.6
724.974	2558.25
725.161	2578.73
725.347	2568.49
725.534	2527.53
725.72	2564.4
725.907	2576.69
726.094	2636.08
726.28	2459.95
726.467	2642.22
726.653	2593.07
726.84	2640.17
727.027	2715.95
727.213	2597.17
727.4	2558.25
727.586	2668.84
727.773	2588.97
727.959	2525.49
728.145	2586.93
728.332	2648.36
728.518	2490.67
728.705	2572.59
728.891	2539.82
729.077	2515.25
729.264	2576.69
729.45	2646.32
729.636	2613.55
729.823	2523.44
730.009	2535.73
730.195	2562.35
730.382	2586.93
730.568	2474.29
730.754	2533.68
730.94	2593.07
731.126	2531.63
731.313	2691.37
731.499	2629.93
731.685	2462
731.871	2552.11
732.057	2548.01
732.243	2545.97
732.429	2433.33
732.615	2531.63
732.801	2564.4
732.987	2568.49
733.173	2543.92
733.359	2529.58
733.545	2478.38
733.731	2472.24
733.917	2541.87
734.103	2486.58
734.289	2462
734.475	2472.24
734.661	2488.62
734.847	2607.41
735.033	2484.53
735.219	2611.5
735.404	2523.44
735.59	2490.67
735.776	2498.86
735.962	2453.81
736.148	2498.86
736.333	2572.59
736.519	2410.8
736.705	2511.15
736.89	2490.67
737.076	2529.58
737.262	2509.1
737.447	2441.52
737.633	2462
737.819	2394.42
738.004	2386.22
738.19	2410.8
738.375	2431.28
738.561	2459.95
738.747	2322.74
738.932	2433.33
739.118	2498.86
739.303	2343.22
739.489	2402.61
739.674	2386.22
739.859	2371.89
740.045	2410.8
740.23	2418.99
740.416	2314.55
740.601	2486.58
740.786	2447.66
740.972	2341.17
741.157	2380.08
741.342	2304.31
741.528	2316.59
741.713	2263.35
741.898	2267.44
742.084	2273.59
742.269	2277.68
742.454	2373.94
742.639	2398.51
742.824	2226.48
743.01	2261.3
743.195	2179.38
743.38	2216.24
743.565	2232.63
743.75	2203.96
743.935	2160.95
744.12	2138.42
744.305	2214.2
744.49	2089.27
744.675	2279.73
744.86	2158.9
745.045	2128.18
745.23	2163
745.415	2154.8
745.6	2154.8
745.785	2130.23
745.97	2091.32
746.155	2156.85
746.34	2142.52
746.525	1980.73
746.71	2136.37
746.895	2070.84
747.079	2091.32
747.264	1923.38
747.449	2025.78
747.634	2003.25
747.819	1972.54
748.003	1904.95
748.188	1968.44
748.373	1990.97
748.557	1863.99
748.742	1866.04
748.927	2033.97
749.111	1792.31
749.296	1888.57
749.481	2001.21
749.665	1849.66
749.85	1859.9
750.034	1831.23
750.219	1804.6
750.404	1859.9
750.588	1835.32
750.773	1761.59
750.957	1798.46
751.141	1804.6
751.326	1730.87
751.51	1702.2
751.695	1655.1
751.879	1749.31
752.064	1761.59
752.248	1657.15
752.432	1714.49
752.617	1665.34
752.801	1659.2
752.985	1560.89
753.17	1577.28
753.354	1646.91
753.538	1671.48
753.722	1573.18
753.907	1587.52
754.091	1579.33
754.275	1640.76
754.459	1501.5
754.643	1591.61
754.828	1542.46
755.012	1544.51
755.196	1548.61
755.38	1395.01
755.564	1423.68
755.748	1489.21
755.932	1491.26
756.116	1456.45
756.3	1483.07
756.484	1403.2
756.668	1438.02
756.852	1388.86
757.036	1476.93
757.22	1417.54
757.404	1362.24
757.588	1417.54
757.772	1345.86
757.956	1335.62
758.14	1286.47
758.323	1229.12
758.507	1306.95
758.691	1212.74
758.875	1251.65
759.059	1249.6
759.242	1235.27
759.426	1282.37
759.61	1245.51
759.794	1296.71
759.977	1278.27
760.161	1222.98
760.345	1263.94
760.528	1278.27
760.712	1206.59
760.895	1204.55
761.079	1130.82
761.263	1190.21
761.446	1065.29
761.63	1128.77
761.813	1159.49
761.997	1173.83
762.18	1159.49
762.364	1165.64
762.547	1200.45
762.731	1071.43
762.914	1118.53
763.098	1198.4
763.281	1104.2
763.464	1171.78
763.648	1085.76
763.831	1145.16
764.015	1149.25
764.198	1182.02
764.381	1057.09
764.564	1194.31
764.748	1102.15
764.931	1098.05
765.114	1014.09
765.297	1143.11
765.481	1087.81
765.664	1065.29
765.847	1012.04
766.03	1030.47
766.213	1038.66
766.397	1034.57
766.58	964.93
766.763	1059.14
766.946	1087.81
767.129	1081.67
767.312	989.51
767.495	1009.99
767.678	1026.37
767.861	1014.09
768.044	1003.85
768.227	981.32
768.41	1020.23
768.593	919.88
768.776	1026.37
768.959	962.89
769.142	1030.47
769.324	995.65
769.507	930.12
769.69	954.69
769.873	895.3
770.056	897.35
770.239	932.17
770.421	944.45
770.604	981.32
770.787	917.83
770.97	887.11
771.152	909.64
771.335	840.01
771.518	878.92
771.7	866.63
771.883	979.27
772.066	901.45
772.248	938.31
772.431	923.98
772.613	907.59
772.796	809.29
772.978	876.87
773.161	827.72
773.343	815.43
773.526	813.38
773.708	866.63
773.891	874.82
774.073	823.62
774.256	805.19
774.438	807.24
774.621	831.82
774.803	774.47
774.985	721.23
775.168	860.49
775.35	846.15
775.532	741.71
775.715	719.18
775.897	811.34
776.079	786.76
776.261	735.56
776.444	788.81
776.626	686.41
776.808	756.04
776.99	774.47
777.173	692.55
777.355	717.13
777.537	717.13
777.719	692.55
777.901	657.74
778.083	686.41
778.265	708.94
778.447	655.69
778.629	620.88
778.811	663.88
778.993	629.07
779.175	663.88
779.357	653.64
779.539	590.16
779.721	670.03
779.903	647.5
780.085	663.88
780.267	616.78
780.449	661.84
780.631	692.55
780.812	602.44
780.994	637.26
781.176	588.11
781.358	573.77
781.54	590.16
781.721	498
781.903	618.83
782.085	631.12
782.267	661.84
782.448	543.05
782.63	592.2
782.812	545.1
782.993	489.81
783.175	559.44
783.357	538.96
783.538	549.2
783.72	479.57
783.901	516.43
784.083	495.95
784.264	616.78
784.446	430.41
784.627	528.72
784.809	491.85
784.99	475.47
785.172	555.34
785.353	510.29
785.535	522.57
785.716	530.77
785.897	504.14
786.079	514.38
786.26	338.26
786.441	471.37
786.623	489.81
786.804	405.84
786.985	567.63
787.167	418.13
787.348	422.22
787.529	440.65
787.71	530.77
787.891	502.09
788.073	364.88
788.254	416.08
788.435	444.75
788.616	397.65
788.797	430.41
788.978	454.99
789.159	407.89
789.34	440.65
789.522	477.52
789.703	391.5
789.884	461.13
790.065	414.03
790.246	344.4
790.427	430.41
790.607	473.42
790.788	391.5
790.969	432.46
791.15	346.45
791.331	307.54
791.512	373.07
791.693	438.61
791.874	375.12
792.054	362.83
792.235	446.8
792.416	397.65
792.597	340.3
792.778	311.63
792.958	315.73
793.139	397.65
793.32	323.92
793.5	407.89
793.681	440.65
793.862	360.78
794.042	348.5
794.223	332.11
794.404	289.1
794.584	309.58
794.765	301.39
794.945	315.73
795.126	418.13
795.306	250.19
795.487	313.68
795.667	293.2
795.848	250.19
796.028	352.59
796.209	282.96
796.389	332.11
796.57	379.22
796.75	188.75
796.93	242
797.111	334.16
797.291	307.54
797.471	250.19
797.652	362.83
797.832	285.01
798.012	309.58
798.192	313.68
798.373	192.85
798.553	301.39
798.733	340.3
798.913	291.15
799.093	321.87
799.274	244.05
799.454	192.85
799.634	309.58
799.814	315.73
799.994	272.72
800.174	287.06
800.354	246.1
800.534	244.05
800.714	184.66
800.894	227.67
801.074	242
801.254	295.25
801.434	309.58
801.614	149.84
801.794	209.23
801.974	631.12
802.154	239.95
802.334	215.38
802.514	303.44
802.693	264.53
802.873	196.95
803.053	293.2
803.233	186.71
803.413	190.8
803.592	227.67
803.772	219.47
803.952	299.34
804.131	180.56
804.311	250.19
804.491	268.63
804.67	205.14
804.85	293.2
805.03	217.43
805.209	203.09
805.389	233.81
805.568	276.82
805.748	221.52
805.928	211.28
806.107	225.62
806.287	242
806.466	194.9
806.646	258.39
806.825	205.14
807.004	205.14
807.184	229.71
807.363	229.71
807.543	186.71
807.722	313.68
807.901	201.04
808.081	207.19
808.26	137.56
808.439	235.86
808.619	198.99
808.798	196.95
808.977	262.48
809.156	268.63
809.336	149.84
809.515	172.37
809.694	221.52
809.873	203.09
810.052	145.75
810.231	244.05
810.411	166.23
810.59	162.13
810.769	147.8
810.948	225.62
811.127	190.8
811.306	131.41
811.485	174.42
811.664	143.7
811.843	164.18
812.022	133.46
812.201	131.41
812.38	229.71
812.559	168.27
812.737	254.29
812.916	119.12
813.095	174.42
813.274	149.84
813.453	223.57
813.632	239.95
813.811	108.88
813.989	192.85
814.168	121.17
814.347	137.56
814.526	69.97
814.704	100.69
814.883	229.71
815.062	117.08
815.24	168.27
815.419	131.41
815.598	229.71
815.776	129.36
815.955	137.56
816.133	86.36
816.312	192.85
816.49	174.42
816.669	176.47
816.847	53.59
817.026	198.99
817.204	147.8
817.383	119.12
817.561	115.03
817.74	176.47
817.918	117.08
818.097	145.75
818.275	106.84
818.453	164.18
818.632	94.55
818.81	190.8
818.988	82.26
819.167	180.56
819.345	123.22
819.523	176.47
819.701	149.84
819.879	119.12
820.058	139.6
820.236	129.36
820.414	119.12
820.592	147.8
820.77	112.98
820.948	203.09
821.127	115.03
821.305	168.27
821.483	102.74
821.661	172.37
821.839	139.6
822.017	57.68
822.195	90.45
822.373	143.7
822.551	69.97
822.729	168.27
822.907	90.45
823.085	160.08
823.262	51.54
823.44	145.75
823.618	145.75
823.796	90.45
823.974	155.99
824.152	78.16
824.329	57.68
824.507	190.8
824.685	98.64
824.863	180.56
825.04	84.31
825.218	164.18
825.396	55.64
825.574	31.06
825.751	110.93
825.929	172.37
826.107	72.02
826.284	123.22
826.462	127.32
826.639	88.4
826.817	92.5
826.994	135.51
827.172	84.31
827.349	65.88
827.527	82.26
827.704	78.16
827.882	143.7
828.059	108.88
828.237	92.5
828.414	94.55
828.591	82.26
828.769	90.45
828.946	8.53
829.124	119.12
829.301	67.92
829.478	141.65
829.655	47.44
829.833	80.21
830.01	69.97
830.187	102.74
830.364	82.26
830.542	104.79
830.719	153.94
830.896	61.78
831.073	139.6
831.25	80.21
831.427	168.27
831.604	96.6
831.782	164.18
831.959	72.02
832.136	98.64
832.313	129.36
832.49	65.88
832.667	108.88
832.844	121.17
833.021	41.3
833.198	6.49
833.374	149.84
833.551	80.21
833.728	88.4
833.905	69.97
834.082	53.59
834.259	8.53
834.436	78.16
834.612	65.88
834.789	123.22
834.966	20.82
835.143	72.02
835.319	63.83
835.496	63.83
835.673	29.01
835.85	108.88
836.026	123.22
836.203	53.59
836.38	47.44
836.556	51.54
836.733	80.21
836.909	88.4
837.086	61.78
837.262	31.06
837.439	90.45
837.616	110.93
837.792	53.59
837.968	78.16
838.145	61.78
838.321	10.58
838.498	82.26
838.674	129.36
838.851	57.68
839.027	10.58
839.203	90.45
839.38	69.97
839.556	18.77
839.732	84.31
839.909	29.01
840.085	147.8
840.261	39.25
840.437	127.32
840.614	98.64
840.79	131.41
840.966	74.07
841.142	20.82
841.318	43.35
841.494	45.4
841.671	127.32
841.847	57.68
842.023	43.35
842.199	10.58
842.375	20.82
842.551	-3.75
842.727	20.82
842.903	119.12
843.079	49.49
843.255	51.54
843.431	-24.23
843.607	45.4
843.783	4.44
843.959	69.97
844.134	18.77
844.31	24.92
844.486	82.26
844.662	12.63
844.838	74.07
845.013	29.01
845.189	10.58
845.365	51.54
845.541	55.64
845.716	43.35
845.892	4.44
846.068	47.44
846.244	22.87
846.419	49.49
846.595	20.82
846.77	18.77
846.946	57.68
847.122	-11.95
847.297	69.97
847.473	45.4
847.648	10.58
847.824	35.16
847.999	14.68
848.175	57.68
848.35	43.35
848.526	61.78
848.701	39.25
848.876	61.78
849.052	55.64
849.227	51.54
849.403	-5.8
849.578	22.87
849.753	49.49
849.929	18.77
850.104	80.21
850.279	53.59
850.454	53.59
850.63	53.59
850.805	26.96
850.98	51.54
851.155	33.11
851.33	10.58
851.505	47.44
851.681	41.3
851.856	47.44
852.031	110.93
852.206	57.68
852.381	59.73
852.556	76.12
852.731	69.97
852.906	39.25
853.081	-24.23
853.256	39.25
853.431	55.64
853.606	49.49
853.781	43.35
853.956	-44.71
854.131	2.39
854.305	20.82
854.48	-36.52
854.655	39.25
854.83	110.93
855.005	-28.33
855.18	47.44
855.354	65.88
855.529	55.64
855.704	-20.14
855.879	26.96
856.053	47.44
856.228	47.44
856.403	0.34
856.577	65.88
856.752	55.64
856.926	61.78
857.101	14.68
857.276	-3.75
857.45	14.68
857.625	0.34
857.799	6.49
857.974	-3.75
858.148	12.63
858.323	63.83
858.497	78.16
858.672	53.59
858.846	8.53
859.02	72.02
859.195	31.06
859.369	78.16
859.543	31.06
859.718	76.12
859.892	-7.85
860.066	35.16
860.241	-50.86
860.415	69.97
860.589	-5.8
860.763	86.36
860.938	133.46
861.112	0.34
861.286	-46.76
861.46	8.53
861.634	57.68
861.808	37.2
861.982	-36.52
862.157	24.92
862.331	-22.19
862.505	4.44
862.679	-52.91
862.853	-30.38
863.027	49.49
863.201	151.89
863.375	-46.76
863.549	-1.71
863.722	57.68
863.896	10.58
864.07	-116.39
864.244	39.25
864.418	24.92
864.592	35.16
864.766	47.44
864.939	63.83
865.113	37.2
865.287	-54.95
865.461	16.73
865.634	121.17
865.808	-18.09
865.982	29.01
866.156	-32.43
866.329	-18.09
866.503	47.44
866.676	18.77
866.85	86.36
867.024	24.92
867.197	41.3
867.371	6.49
867.544	47.44
867.718	0.34
867.891	86.36
868.065	-34.47
868.238	12.63
868.412	22.87
868.585	-18.09
868.759	8.53
868.932	8.53
869.105	-16.04
869.279	-9.9
869.452	-5.8
869.625	-18.09
869.799	-30.38
869.972	59.73
870.145	12.63
870.319	14.68
870.492	18.77
870.665	63.83
870.838	43.35
871.011	-54.95
871.185	78.16
871.358	-36.52
871.531	26.96
871.704	6.49
871.877	18.77
872.05	-16.04
872.223	72.02
872.396	39.25
872.569	24.92
872.742	26.96
872.915	12.63
873.088	-28.33
873.261	49.49
873.434	-3.75
873.607	-38.57
873.78	31.06
873.953	39.25
874.126	-18.09
874.299	-22.19
874.471	-11.95
874.644	74.07
874.817	-11.95
874.99	12.63
875.163	20.82
875.335	39.25
875.508	4.44
875.681	4.44
875.853	59.73
876.026	4.44
876.199	14.68
876.371	59.73
876.544	-38.57
876.717	31.06
876.889	-36.52
877.062	47.44
877.234	24.92
877.407	20.82
877.579	-28.33
877.752	49.49
877.924	-24.23
878.097	-28.33
878.269	-9.9
878.442	-1.71
878.614	31.06
878.786	14.68
878.959	20.82
879.131	53.59
879.303	14.68
879.476	74.07
879.648	69.97
879.82	26.96
879.993	-48.81
880.165	29.01
880.337	-11.95
880.509	16.73
880.681	-40.62
880.854	12.63
881.026	76.12
881.198	84.31
881.37	0.34
881.542	-61.1
881.714	51.54
881.886	26.96
882.058	-18.09
882.23	14.68
882.402	59.73
882.574	33.11
882.746	57.68
882.918	49.49
883.09	41.3
883.262	-38.57
883.434	-3.75
883.606	59.73
883.778	0.34
883.95	80.21
884.122	20.82
884.293	-65.19
884.465	12.63
884.637	78.16
884.809	-50.86
884.98	14.68
885.152	39.25
885.324	29.01
885.496	16.73
885.667	-7.85
885.839	-26.28
886.011	112.98
886.182	51.54
886.354	4.44
886.525	-36.52
886.697	-5.8
886.869	16.73
887.04	-42.67
887.212	61.78
887.383	-32.43
887.555	74.07
887.726	-5.8
887.897	12.63
888.069	63.83
888.24	0.34
888.412	-46.76
888.583	29.01
888.754	33.11
888.926	31.06
889.097	47.44
889.268	-11.95
889.44	4.44
889.611	-16.04
889.782	-36.52
889.953	10.58
890.125	4.44
890.296	33.11
890.467	4.44
890.638	-9.9
890.809	76.12
890.98	26.96
891.151	20.82
891.323	41.3
891.494	47.44
891.665	-26.28
891.836	-16.04
892.007	-32.43
892.178	31.06
892.349	55.64
892.52	2.39
892.691	-50.86
892.862	63.83
893.032	-24.23
893.203	33.11
893.374	8.53
893.545	33.11
893.716	41.3
893.887	41.3
894.057	8.53
894.228	78.16
894.399	6.49
894.57	4.44
894.74	-26.28
894.911	69.97
895.082	2.39
895.253	-40.62
895.423	4.44
895.594	135.51
895.764	-38.57
895.935	2.39
896.106	55.64
896.276	57.68
896.447	-3.75
896.617	0.34
896.788	69.97
896.958	4.44
897.129	-32.43
897.299	2.39
897.47	43.35
897.64	6.49
897.81	-75.43
897.981	55.64
898.151	-42.67
898.322	59.73
898.492	-36.52
898.662	84.31
898.832	-93.87
899.003	65.88
899.173	76.12
899.343	26.96
899.513	-44.71
