Data from USB4F104151__0__11-51-01-388.txt Node

Date: Fri Mar 14 11:51:01 EDT 2025
User: louis
Spectrometer: USB4F10415
Trigger mode: 4
Integration Time (sec): 2.000000E-2
Scans to average: 1
Electric dark correction enabled: true
Nonlinearity correction enabled: false
Boxcar width: 0
XAxis mode: Wavelengths
Number of Pixels in Spectrum: 3648
>>>>>Begin Spectral Data<<<<<
178.204	-21.5
178.424	-21.5
178.644	-21.5
178.864	-109.57
179.084	-68.61
179.304	-33.79
179.524	-44.03
179.744	33.79
179.964	74.75
180.184	-17.41
180.404	39.94
180.624	-11.26
180.844	-44.03
181.064	1.02
181.283	27.65
181.503	-37.89
181.723	11.26
181.943	3.07
182.163	27.65
182.383	89.09
182.602	29.7
182.822	-5.12
183.042	111.61
183.262	37.89
183.482	21.5
183.701	23.55
183.921	9.22
184.141	58.37
184.361	68.61
184.58	52.22
184.8	3.07
185.02	-3.07
185.239	148.48
185.459	37.89
185.679	89.09
185.898	29.7
186.118	33.79
186.338	62.46
186.557	84.99
186.777	31.74
186.997	1.02
187.216	44.03
187.436	72.7
187.655	64.51
187.875	52.22
188.095	27.65
188.314	-7.17
188.534	68.61
188.753	25.6
188.973	50.18
189.192	103.42
189.412	-1.02
189.631	74.75
189.851	-33.79
190.07	52.22
190.29	13.31
190.509	99.33
190.729	56.32
190.948	23.55
191.168	115.71
191.387	121.85
191.607	-13.31
191.826	31.74
192.045	60.42
192.265	35.84
192.484	-29.7
192.704	19.46
192.923	13.31
193.142	107.52
193.362	64.51
193.581	74.75
193.8	74.75
194.02	-35.84
194.239	91.13
194.458	58.37
194.678	7.17
194.897	3.07
195.116	93.18
195.335	58.37
195.555	33.79
195.774	35.84
195.993	33.79
196.212	39.94
196.432	95.23
196.651	78.85
196.87	62.46
197.089	95.23
197.308	-31.74
197.528	66.56
197.747	3.07
197.966	35.84
198.185	9.22
198.404	17.41
198.623	17.41
198.842	7.17
199.062	39.94
199.281	66.56
199.5	15.36
199.719	74.75
199.938	-29.7
200.157	9.22
200.376	60.42
200.595	62.46
200.814	-15.36
201.033	9.22
201.252	46.08
201.471	19.46
201.69	15.36
201.909	33.79
202.128	-13.31
202.347	99.33
202.566	64.51
202.785	33.79
203.004	15.36
203.223	29.7
203.442	27.65
203.661	50.18
203.879	29.7
204.098	44.03
204.317	-11.26
204.536	35.84
204.755	91.13
204.974	70.65
205.193	56.32
205.411	142.33
205.63	48.13
205.849	46.08
206.068	17.41
206.287	105.47
206.505	31.74
206.724	84.99
206.943	39.94
207.162	5.12
207.381	95.23
207.599	91.13
207.818	54.27
208.037	21.5
208.255	15.36
208.474	68.61
208.693	70.65
208.911	-9.22
209.13	15.36
209.349	39.94
209.567	3.07
209.786	60.42
210.005	41.98
210.223	31.74
210.442	-17.41
210.661	52.22
210.879	25.6
211.098	44.03
211.316	52.22
211.535	93.18
211.753	21.5
211.972	70.65
212.191	11.26
212.409	70.65
212.628	54.27
212.846	31.74
213.065	41.98
213.283	60.42
213.502	35.84
213.72	17.41
213.938	64.51
214.157	82.94
214.375	5.12
214.594	-19.46
214.812	70.65
215.031	60.42
215.249	60.42
215.467	-3.07
215.686	48.13
215.904	97.28
216.122	-9.22
216.341	50.18
216.559	9.22
216.778	72.7
216.996	62.46
217.214	27.65
217.432	66.56
217.651	11.26
217.869	11.26
218.087	48.13
218.306	9.22
218.524	-15.36
218.742	-5.12
218.96	64.51
219.179	44.03
219.397	21.5
219.615	60.42
219.833	17.41
220.051	31.74
220.27	25.6
220.488	19.46
220.706	58.37
220.924	3.07
221.142	105.47
221.36	35.84
221.578	39.94
221.796	56.32
222.015	97.28
222.233	50.18
222.451	78.85
222.669	-9.22
222.887	41.98
223.105	-13.31
223.323	52.22
223.541	19.46
223.759	62.46
223.977	37.89
224.195	56.32
224.413	5.12
224.631	109.57
224.849	54.27
225.067	58.37
225.285	35.84
225.503	25.6
225.721	9.22
225.939	7.17
226.157	11.26
226.375	97.28
226.592	11.26
226.81	19.46
227.028	99.33
227.246	29.7
227.464	7.17
227.682	52.22
227.9	48.13
228.117	89.09
228.335	60.42
228.553	31.74
228.771	-7.17
228.989	60.42
229.206	60.42
229.424	56.32
229.642	9.22
229.86	15.36
230.077	56.32
230.295	52.22
230.513	50.18
230.731	66.56
230.948	23.55
231.166	-9.22
231.384	68.61
231.601	48.13
231.819	70.65
232.037	-17.41
232.254	-31.74
232.472	87.04
232.689	56.32
232.907	3.07
233.125	25.6
233.342	-23.55
233.56	56.32
233.777	31.74
233.995	-3.07
234.213	33.79
234.43	27.65
234.648	48.13
234.865	-3.07
235.083	21.5
235.3	44.03
235.518	39.94
235.735	21.5
235.953	107.52
236.17	5.12
236.388	111.61
236.605	68.61
236.822	87.04
237.04	58.37
237.257	37.89
237.475	17.41
237.692	80.89
237.909	39.94
238.127	74.75
238.344	44.03
238.562	23.55
238.779	74.75
238.996	25.6
239.214	41.98
239.431	27.65
239.648	-35.84
239.865	39.94
240.083	70.65
240.3	119.81
240.517	13.31
240.735	91.13
240.952	117.76
241.169	64.51
241.386	78.85
241.603	41.98
241.821	74.75
242.038	109.57
242.255	-7.17
242.472	1.02
242.689	84.99
242.907	7.17
243.124	113.66
243.341	111.61
243.558	31.74
243.775	35.84
243.992	3.07
244.209	93.18
244.426	41.98
244.643	76.8
244.86	-9.22
245.078	64.51
245.295	-29.7
245.512	17.41
245.729	78.85
245.946	109.57
246.163	7.17
246.38	15.36
246.597	3.07
246.814	52.22
247.031	39.94
247.248	11.26
247.464	35.84
247.681	44.03
247.898	54.27
248.115	41.98
248.332	35.84
248.549	58.37
248.766	25.6
248.983	-15.36
249.2	52.22
249.417	-7.17
249.633	-7.17
249.85	64.51
250.067	50.18
250.284	-15.36
250.501	111.61
250.717	39.94
250.934	11.26
251.151	44.03
251.368	7.17
251.585	-7.17
251.801	31.74
252.018	15.36
252.235	17.41
252.451	46.08
252.668	31.74
252.885	74.75
253.102	64.51
253.318	82.94
253.535	66.56
253.752	97.28
253.968	52.22
254.185	25.6
254.401	5.12
254.618	89.09
254.835	-25.6
255.051	144.38
255.268	44.03
255.484	82.94
255.701	72.7
255.917	17.41
256.134	39.94
256.351	3.07
256.567	13.31
256.784	74.75
257	-1.02
257.217	3.07
257.433	70.65
257.65	-41.98
257.866	25.6
258.082	-58.37
258.299	39.94
258.515	68.61
258.732	39.94
258.948	72.7
259.165	80.89
259.381	9.22
259.597	82.94
259.814	5.12
260.03	76.8
260.246	66.56
260.463	54.27
260.679	95.23
260.895	97.28
261.112	62.46
261.328	19.46
261.544	27.65
261.761	39.94
261.977	52.22
262.193	-39.94
262.409	23.55
262.626	80.89
262.842	7.17
263.058	58.37
263.274	58.37
263.49	27.65
263.707	29.7
263.923	56.32
264.139	-39.94
264.355	25.6
264.571	125.95
264.787	62.46
265.004	-19.46
265.22	60.42
265.436	35.84
265.652	50.18
265.868	117.76
266.084	44.03
266.3	74.75
266.516	76.8
266.732	-5.12
266.948	7.17
267.164	21.5
267.38	117.76
267.596	-23.55
267.812	119.81
268.028	13.31
268.244	48.13
268.46	-23.55
268.676	7.17
268.892	3.07
269.108	105.47
269.324	-1.02
269.54	-19.46
269.756	37.89
269.972	64.51
270.188	17.41
270.403	-11.26
270.619	84.99
270.835	48.13
271.051	105.47
271.267	7.17
271.483	50.18
271.698	64.51
271.914	27.65
272.13	62.46
272.346	37.89
272.562	31.74
272.777	113.66
272.993	25.6
273.209	76.8
273.425	48.13
273.64	54.27
273.856	17.41
274.072	46.08
274.287	9.22
274.503	74.75
274.719	101.37
274.934	9.22
275.15	9.22
275.366	-13.31
275.581	-35.84
275.797	89.09
276.012	29.7
276.228	23.55
276.444	-1.02
276.659	74.75
276.875	62.46
277.09	25.6
277.306	-3.07
277.521	-17.41
277.737	15.36
277.952	-5.12
278.168	74.75
278.383	-31.74
278.599	-44.03
278.814	72.7
279.03	35.84
279.245	23.55
279.461	54.27
279.676	50.18
279.892	64.51
280.107	58.37
280.322	9.22
280.538	7.17
280.753	-7.17
280.969	78.85
281.184	52.22
281.399	84.99
281.615	35.84
281.83	41.98
282.045	31.74
282.26	15.36
282.476	37.89
282.691	15.36
282.906	46.08
283.122	99.33
283.337	-19.46
283.552	46.08
283.767	5.12
283.983	56.32
284.198	62.46
284.413	154.62
284.628	19.46
284.843	23.55
285.058	60.42
285.274	46.08
285.489	11.26
285.704	72.7
285.919	56.32
286.134	1.02
286.349	78.85
286.564	54.27
286.779	142.33
286.995	44.03
287.21	19.46
287.425	76.8
287.64	35.84
287.855	11.26
288.07	-21.5
288.285	103.42
288.5	76.8
288.715	13.31
288.93	58.37
289.145	66.56
289.36	7.17
289.575	66.56
289.79	105.47
290.004	31.74
290.219	117.76
290.434	109.57
290.649	68.61
290.864	97.28
291.079	72.7
291.294	52.22
291.509	13.31
291.724	19.46
291.938	-7.17
292.153	95.23
292.368	39.94
292.583	60.42
292.798	91.13
293.012	89.09
293.227	66.56
293.442	46.08
293.657	138.24
293.871	58.37
294.086	64.51
294.301	-5.12
294.516	17.41
294.73	29.7
294.945	31.74
295.16	84.99
295.374	64.51
295.589	84.99
295.804	62.46
296.018	101.37
296.233	78.85
296.447	107.52
296.662	25.6
296.877	48.13
297.091	66.56
297.306	48.13
297.52	41.98
297.735	60.42
297.949	87.04
298.164	3.07
298.378	-17.41
298.593	138.24
298.807	29.7
299.022	17.41
299.236	113.66
299.451	66.56
299.665	44.03
299.88	62.46
300.094	68.61
300.309	78.85
300.523	-33.79
300.737	35.84
300.952	-17.41
301.166	54.27
301.381	58.37
301.595	23.55
301.809	3.07
302.024	-17.41
302.238	25.6
302.452	-9.22
302.667	13.31
302.881	66.56
303.095	52.22
303.309	62.46
303.524	25.6
303.738	82.94
303.952	17.41
304.166	48.13
304.381	13.31
304.595	78.85
304.809	13.31
305.023	41.98
305.237	-3.07
305.452	72.7
305.666	31.74
305.88	21.5
306.094	31.74
306.308	74.75
306.522	82.94
306.736	58.37
306.95	109.57
307.164	-25.6
307.379	21.5
307.593	82.94
307.807	1.02
308.021	7.17
308.235	31.74
308.449	17.41
308.663	41.98
308.877	76.8
309.091	27.65
309.305	46.08
309.519	23.55
309.733	41.98
309.947	-7.17
310.161	44.03
310.374	11.26
310.588	54.27
310.802	37.89
311.016	107.52
311.23	60.42
311.444	35.84
311.658	39.94
311.872	33.79
312.085	72.7
312.299	84.99
312.513	95.23
312.727	41.98
312.941	-3.07
313.154	68.61
313.368	117.76
313.582	64.51
313.796	21.5
314.009	54.27
314.223	31.74
314.437	-1.02
314.651	56.32
314.864	15.36
315.078	17.41
315.292	46.08
315.505	33.79
315.719	76.8
315.933	74.75
316.146	54.27
316.36	84.99
316.573	41.98
316.787	72.7
317.001	41.98
317.214	-29.7
317.428	-27.65
317.641	25.6
317.855	105.47
318.068	70.65
318.282	64.51
318.495	87.04
318.709	-3.07
318.922	80.89
319.136	70.65
319.349	56.32
319.563	62.46
319.776	66.56
319.99	9.22
320.203	-25.6
320.417	68.61
320.63	144.38
320.843	68.61
321.057	68.61
321.27	89.09
321.483	-9.22
321.697	154.62
321.91	7.17
322.124	54.27
322.337	41.98
322.55	111.61
322.763	3.07
322.977	52.22
323.19	39.94
323.403	-27.65
323.617	74.75
323.83	107.52
324.043	15.36
324.256	27.65
324.469	60.42
324.683	80.89
324.896	76.8
325.109	-1.02
325.322	1.02
325.535	58.37
325.748	27.65
325.962	99.33
326.175	103.42
326.388	117.76
326.601	87.04
326.814	66.56
327.027	-7.17
327.24	119.81
327.453	21.5
327.666	39.94
327.879	-5.12
328.092	54.27
328.305	17.41
328.518	29.7
328.731	-15.36
328.944	19.46
329.157	68.61
329.37	-33.79
329.583	9.22
329.796	87.04
330.009	95.23
330.222	27.65
330.435	113.66
330.648	84.99
330.861	70.65
331.073	84.99
331.286	62.46
331.499	35.84
331.712	5.12
331.925	60.42
332.138	52.22
332.35	11.26
332.563	62.46
332.776	78.85
332.989	-5.12
333.202	44.03
333.414	35.84
333.627	9.22
333.84	17.41
334.053	29.7
334.265	29.7
334.478	76.8
334.691	60.42
334.903	66.56
335.116	11.26
335.329	97.28
335.541	128
335.754	25.6
335.966	23.55
336.179	80.89
336.392	-7.17
336.604	84.99
336.817	29.7
337.029	66.56
337.242	64.51
337.454	91.13
337.667	72.7
337.88	117.76
338.092	19.46
338.305	68.61
338.517	54.27
338.729	13.31
338.942	97.28
339.154	48.13
339.367	13.31
339.579	-11.26
339.792	23.55
340.004	128
340.217	-5.12
340.429	107.52
340.641	64.51
340.854	41.98
341.066	-25.6
341.278	64.51
341.491	25.6
341.703	-29.7
341.915	31.74
342.128	93.18
342.34	105.47
342.552	60.42
342.764	35.84
342.977	76.8
343.189	48.13
343.401	70.65
343.613	9.22
343.826	60.42
344.038	21.5
344.25	89.09
344.462	17.41
344.674	52.22
344.886	58.37
345.099	111.61
345.311	109.57
345.523	68.61
345.735	84.99
345.947	84.99
346.159	64.51
346.371	-25.6
346.583	35.84
346.795	74.75
347.007	-41.98
347.219	48.13
347.431	-1.02
347.643	70.65
347.855	-19.46
348.067	64.51
348.279	66.56
348.491	68.61
348.703	29.7
348.915	95.23
349.127	87.04
349.339	80.89
349.551	3.07
349.763	76.8
349.975	66.56
350.187	48.13
350.399	105.47
350.61	27.65
350.822	52.22
351.034	56.32
351.246	64.51
351.458	33.79
351.669	7.17
351.881	48.13
352.093	93.18
352.305	13.31
352.517	25.6
352.728	15.36
352.94	115.71
353.152	19.46
353.363	19.46
353.575	76.8
353.787	21.5
353.999	27.65
354.21	56.32
354.422	60.42
354.633	80.89
354.845	84.99
355.057	19.46
355.268	46.08
355.48	87.04
355.692	7.17
355.903	46.08
356.115	113.66
356.326	5.12
356.538	109.57
356.749	134.14
356.961	56.32
357.172	109.57
357.384	80.89
357.595	117.76
357.807	-52.22
358.018	41.98
358.23	9.22
358.441	121.85
358.653	76.8
358.864	62.46
359.075	58.37
359.287	68.61
359.498	134.14
359.709	23.55
359.921	44.03
360.132	74.75
360.344	87.04
360.555	66.56
360.766	52.22
360.977	76.8
361.189	35.84
361.4	72.7
361.611	62.46
361.823	54.27
362.034	44.03
362.245	95.23
362.456	72.7
362.667	66.56
362.879	19.46
363.09	101.37
363.301	39.94
363.512	97.28
363.723	60.42
363.935	39.94
364.146	142.33
364.357	33.79
364.568	50.18
364.779	44.03
364.99	105.47
365.201	74.75
365.412	64.51
365.623	33.79
365.834	60.42
366.045	101.37
366.256	66.56
366.467	39.94
366.678	62.46
366.889	9.22
367.1	7.17
367.311	29.7
367.522	-3.07
367.733	60.42
367.944	21.5
368.155	-31.74
368.366	25.6
368.577	19.46
368.788	74.75
368.999	-25.6
369.209	80.89
369.42	101.37
369.631	29.7
369.842	60.42
370.053	-17.41
370.264	19.46
370.474	58.37
370.685	72.7
370.896	89.09
371.107	89.09
371.317	39.94
371.528	76.8
371.739	80.89
371.95	17.41
372.16	125.95
372.371	80.89
372.582	46.08
372.792	97.28
373.003	76.8
373.214	50.18
373.424	46.08
373.635	7.17
373.846	95.23
374.056	48.13
374.267	93.18
374.477	72.7
374.688	-15.36
374.898	46.08
375.109	27.65
375.319	70.65
375.53	97.28
375.74	7.17
375.951	44.03
376.161	62.46
376.372	87.04
376.582	27.65
376.793	89.09
377.003	95.23
377.214	15.36
377.424	74.75
377.635	68.61
377.845	-25.6
378.055	87.04
378.266	46.08
378.476	84.99
378.686	54.27
378.897	128
379.107	33.79
379.317	41.98
379.528	91.13
379.738	128
379.948	54.27
380.158	54.27
380.369	60.42
380.579	62.46
380.789	13.31
380.999	128
381.21	-25.6
381.42	87.04
381.63	54.27
381.84	82.94
382.05	89.09
382.261	56.32
382.471	11.26
382.681	41.98
382.891	134.14
383.101	-9.22
383.311	19.46
383.521	87.04
383.731	58.37
383.941	66.56
384.151	17.41
384.361	60.42
384.571	105.47
384.781	125.95
384.991	101.37
385.201	154.62
385.411	64.51
385.621	23.55
385.831	109.57
386.041	84.99
386.251	48.13
386.461	11.26
386.671	46.08
386.881	103.42
387.091	111.61
387.301	13.31
387.511	13.31
387.72	64.51
387.93	37.89
388.14	39.94
388.35	46.08
388.56	150.53
388.769	132.09
388.979	-3.07
389.189	-1.02
389.399	1.02
389.609	95.23
389.818	95.23
390.028	44.03
390.238	52.22
390.447	56.32
390.657	60.42
390.867	23.55
391.076	19.46
391.286	117.76
391.496	121.85
391.705	105.47
391.915	-7.17
392.125	72.7
392.334	41.98
392.544	109.57
392.753	48.13
392.963	27.65
393.172	84.99
393.382	7.17
393.591	66.56
393.801	87.04
394.01	111.61
394.22	60.42
394.429	80.89
394.639	41.98
394.848	148.48
395.058	76.8
395.267	52.22
395.477	82.94
395.686	72.7
395.895	134.14
396.105	82.94
396.314	154.62
396.524	91.13
396.733	162.81
396.942	91.13
397.152	84.99
397.361	117.76
397.57	72.7
397.78	91.13
397.989	48.13
398.198	134.14
398.407	76.8
398.617	62.46
398.826	48.13
399.035	58.37
399.244	58.37
399.453	31.74
399.663	111.61
399.872	107.52
400.081	95.23
400.29	119.81
400.499	125.95
400.708	142.33
400.917	154.62
401.127	56.32
401.336	93.18
401.545	150.53
401.754	123.9
401.963	130.05
402.172	82.94
402.381	91.13
402.59	99.33
402.799	84.99
403.008	175.1
403.217	134.14
403.426	76.8
403.635	154.62
403.844	148.48
404.053	187.39
404.262	113.66
404.471	177.15
404.68	128
404.888	142.33
405.097	113.66
405.306	222.2
405.515	156.67
405.724	209.92
405.933	156.67
406.142	199.68
406.35	171.01
406.559	220.16
406.768	140.29
406.977	252.92
407.185	218.11
407.394	134.14
407.603	228.35
407.812	236.54
408.02	189.44
408.229	269.31
408.438	226.3
408.646	152.57
408.855	250.88
409.064	244.73
409.272	199.68
409.481	259.07
409.69	207.87
409.898	304.12
410.107	287.74
410.315	263.16
410.524	222.2
410.733	261.12
410.941	287.74
411.15	312.32
411.358	326.65
411.567	394.23
411.775	343.03
411.984	328.7
412.192	390.14
412.401	351.23
412.609	410.62
412.818	447.48
413.026	478.2
413.234	388.09
413.443	498.68
413.651	449.53
413.86	527.35
414.068	592.89
414.276	513.02
414.485	590.84
414.693	607.22
414.901	654.33
415.11	596.98
415.318	541.69
415.526	633.85
415.734	631.8
415.943	783.35
416.151	676.85
416.359	719.86
416.567	787.44
416.776	750.58
416.984	777.2
417.192	902.13
417.4	832.5
417.608	816.12
417.817	902.13
418.025	926.71
418.233	951.28
418.441	1014.77
418.649	971.76
418.857	1059.82
419.065	1160.17
419.273	1104.88
419.481	1172.46
419.689	1147.89
419.897	1205.23
420.105	1278.96
420.313	1256.43
420.521	1414.12
420.729	1377.26
420.937	1516.52
421.145	1487.85
421.353	1479.66
421.561	1659.88
421.769	1688.55
421.977	1631.21
422.185	1713.13
422.393	1809.38
422.601	2024.42
422.809	1866.72
423.017	1942.5
423.224	2008.03
423.432	2157.54
423.64	2163.68
423.848	2319.32
424.056	2296.8
424.263	2454.49
424.471	2491.35
424.679	2427.87
424.887	2669.53
425.094	2657.24
425.302	2673.62
425.51	2800.6
425.718	2921.43
425.925	2931.67
426.133	2962.39
426.341	3142.61
426.548	3302.35
426.756	3341.26
426.964	3367.88
427.171	3609.54
427.379	3634.12
427.586	3621.83
427.794	3734.47
428.001	3963.84
428.209	4088.77
428.417	4115.39
428.624	4459.45
428.832	4277.18
429.039	4436.92
429.247	4273.09
429.454	4871.09
429.662	4985.78
429.869	4647.87
430.076	5047.22
430.284	4887.48
430.491	5268.4
430.699	5331.89
430.906	5487.53
431.114	5594.03
431.321	5704.62
431.528	5811.11
431.736	6087.59
431.943	6577.05
432.15	6394.78
432.358	6353.82
432.565	6587.29
432.772	6724.51
432.979	6964.12
433.187	7070.61
433.394	7267.22
433.601	7590.8
433.808	7670.67
434.016	7539.6
434.223	7889.8
434.43	8555.39
434.637	8346.5
434.844	8672.12
435.052	8887.16
435.259	9042.81
435.466	9073.53
435.673	8764.28
435.88	9522.03
436.087	10101.61
436.294	10048.36
436.501	9767.79
436.708	10074.98
436.915	10290.02
437.122	10789.72
437.329	10826.59
437.537	11180.89
437.743	11471.7
437.95	11109.21
438.157	11815.76
438.364	12317.51
438.571	12256.07
438.778	12372.8
438.985	13437.75
439.192	12999.48
439.399	13091.64
439.606	12802.88
439.813	13806.38
440.02	14287.65
440.227	14164.78
440.433	14005.03
440.64	14420.77
440.847	14531.36
441.054	14748.45
441.261	15561.49
441.467	15661.84
441.674	15872.78
441.881	16663.3
442.088	16128.78
442.294	16388.87
442.501	16849.66
442.708	16978.68
442.914	17672.95
443.121	18563.81
443.328	17926.89
443.534	19153.63
443.741	18707.17
443.948	18625.25
444.154	19765.97
444.361	19737.3
444.568	19790.55
444.774	19788.5
444.981	20046.54
445.187	20785.86
445.394	21353.15
445.6	21125.82
445.807	23237.28
446.013	22057.65
446.22	22536.87
446.426	23591.58
446.633	23661.21
446.839	24537.74
447.046	23636.63
447.252	25006.72
447.459	24982.15
447.665	24699.53
447.871	26147.44
448.078	27038.31
448.284	25918.07
448.491	26884.71
448.697	27716.19
448.903	28041.81
449.11	28015.19
449.316	27628.12
449.522	27894.36
449.728	28940.87
449.935	29235.78
450.141	29235.78
450.347	29901.37
450.553	28908.1
450.76	29342.27
450.966	30278.19
451.172	29803.07
451.378	30825
451.584	30057.01
451.791	30755.37
451.997	30958.12
452.203	31169.06
452.409	31300.13
452.615	31124.01
452.821	29854.26
453.027	29569.6
453.233	31339.04
453.44	29678.14
453.646	30081.59
453.852	30415.41
454.058	30839.34
454.264	29659.71
454.47	31046.18
454.676	29858.36
454.882	30718.51
455.088	28107.35
455.294	28553.8
455.5	28899.91
455.705	29401.66
455.911	28193.36
456.117	27585.12
456.323	27083.36
456.529	25834.1
456.735	26722.92
456.941	26301.04
457.147	25651.83
457.352	25033.35
457.558	24826.5
457.764	24640.14
457.97	24367.76
458.176	23919.25
458.381	23804.56
458.587	22489.77
458.793	22424.23
458.999	21254.84
459.204	22866.6
459.41	22444.71
459.616	21060.29
459.821	20849.35
460.027	20847.3
460.233	20607.69
460.438	19319.51
460.644	19739.35
460.85	18729.7
461.055	18436.84
461.261	18311.91
461.466	17117.95
461.672	16481.03
461.878	17584.88
462.083	16331.53
462.289	16139.02
462.494	15698.7
462.7	15235.86
462.905	14854.94
463.111	15239.96
463.316	15422.23
463.522	15264.54
463.727	15186.71
463.932	14955.29
464.138	14783.26
464.343	14983.96
464.549	14596.9
464.754	14900
464.959	15012.63
465.165	14834.46
465.37	14213.93
465.575	13667.12
465.781	14492.45
465.986	14322.47
466.191	13869.87
466.397	13587.25
466.602	12690.24
466.807	13357.88
467.012	13384.5
467.218	13351.73
467.423	13263.67
467.628	13497.14
467.833	14056.23
468.038	13378.36
468.244	12991.29
468.449	13349.68
468.654	13005.63
468.859	13124.41
469.064	12757.82
469.269	12337.99
469.474	12434.24
469.679	13003.58
469.885	12356.42
470.09	12469.06
470.295	12501.83
470.5	12145.48
470.705	12116.81
470.91	11930.44
471.115	11813.71
471.32	11957.07
471.525	11903.82
471.73	11821.9
471.935	11754.32
472.139	11164.5
472.344	11414.35
472.549	11389.78
472.754	11066.2
472.959	11209.56
473.164	10789.72
473.369	10640.22
473.574	10974.04
473.778	10750.81
473.983	10857.31
474.188	10859.35
474.393	10083.17
474.598	10285.92
474.802	10083.17
475.007	10201.96
475.212	10097.51
475.417	9665.39
475.621	9714.54
475.826	9950.06
476.031	9571.18
476.235	9679.72
476.44	9616.24
476.645	9474.93
476.849	9341.81
477.054	9306.99
477.259	9155.44
477.463	9259.89
477.668	8807.29
477.872	8944.5
478.077	8733.56
478.282	8774.52
478.486	8598.4
478.691	8399.74
478.895	8633.21
479.1	8471.42
479.304	8504.19
479.509	8094.6
479.713	8201.09
479.918	8182.66
480.122	8055.69
480.326	8172.42
480.531	8106.88
480.735	7885.7
480.94	8110.98
481.144	8199.04
481.348	7969.67
481.553	7889.8
481.757	7893.9
481.961	7981.96
482.166	8055.69
482.37	7897.99
482.574	7889.8
482.778	7803.78
482.983	7887.75
483.187	7910.28
483.391	7941
483.595	7711.63
483.8	7943.05
484.004	7844.74
484.208	8057.73
484.412	7981.96
484.616	7859.08
484.821	7895.94
485.025	7746.44
485.229	7854.98
485.433	7756.68
485.637	7758.73
485.841	7672.71
486.045	7803.78
486.249	7734.15
486.453	7854.98
486.657	7930.76
486.861	7744.39
487.065	7627.66
487.269	7834.5
487.473	7725.96
487.677	7893.9
487.881	7920.52
488.085	7748.49
488.289	7768.97
488.493	7771.02
488.697	7971.72
488.901	7842.7
489.105	7861.13
489.309	8063.88
489.512	7945.09
489.716	7873.42
489.92	7811.98
490.124	7889.8
490.328	8067.97
490.531	7814.02
490.735	7938.95
490.939	8096.64
491.143	7965.57
491.346	8293.25
491.55	8182.66
491.754	8217.47
491.958	8045.45
492.161	8004.49
492.365	8344.45
492.569	8199.04
492.772	8260.48
492.976	8280.96
493.18	8459.13
493.383	8442.75
493.587	8344.45
493.79	8407.94
493.994	8438.66
494.197	8749.95
494.401	8483.71
494.605	8676.22
494.808	9022.33
495.012	8795
495.215	8895.35
495.419	9128.82
495.622	8737.66
495.825	8840.06
496.029	9143.16
496.232	9253.75
496.436	9096.05
496.639	9313.14
496.843	9321.33
497.046	9642.86
497.249	9730.92
497.453	9659.24
497.656	9810.79
497.859	9726.83
498.063	9905
498.266	10011.5
498.469	10003.3
498.673	10187.62
498.876	10367.84
499.079	10380.13
499.282	10402.66
499.485	10580.83
499.689	10617.69
499.892	11035.48
500.095	10867.55
500.298	11316.05
500.501	11180.89
500.705	11279.19
500.908	11721.55
501.111	11764.56
501.314	11561.81
501.517	11762.51
501.72	12016.46
501.923	11819.85
502.126	12127.05
502.329	12301.12
502.532	12526.4
502.735	12342.08
502.938	12581.7
503.141	12819.26
503.344	13169.46
503.547	13040.44
503.75	13093.69
503.953	13368.12
504.156	13531.95
504.359	13503.28
504.562	13620.02
504.765	14222.12
504.968	14025.51
505.17	14254.89
505.373	14129.96
505.576	14574.37
505.779	14818.08
505.982	14902.04
506.185	15278.87
506.387	15180.57
506.59	15219.48
506.793	15469.33
506.996	15344.41
507.198	15854.35
507.401	15872.78
507.604	15872.78
507.807	16382.73
508.009	16329.48
508.212	16261.9
508.415	16511.75
508.617	17033.98
508.82	16970.49
509.022	17021.69
509.225	17160.95
509.428	17380.09
509.63	17691.38
509.833	17529.59
510.035	18047.72
510.238	17902.32
510.44	18223.85
510.643	18504.42
510.845	18553.57
511.048	18549.48
511.25	18977.5
511.453	19278.55
511.655	19389.14
511.858	19448.54
512.06	19677.91
512.262	19747.54
512.465	20003.53
512.667	20243.15
512.87	20509.38
513.072	20275.91
513.274	20986.56
513.477	21066.43
513.679	21490.36
513.881	21248.7
514.084	21762.74
514.286	21539.51
514.488	21988.02
514.69	22457
514.893	22524.58
515.095	22313.64
515.297	22567.59
515.499	22966.95
515.701	23153.31
515.904	23530.14
516.106	23587.48
516.308	23872.15
516.51	24013.46
516.712	23933.59
516.914	24492.68
517.116	24699.53
517.318	24545.93
517.52	24767.11
517.722	24918.66
517.925	25369.21
518.127	25385.6
518.329	25813.62
518.531	25584.25
518.733	26184.3
518.935	26505.84
519.136	26202.74
519.338	26507.88
519.54	26897
519.742	27177.57
519.944	27257.44
520.146	27837.02
520.348	27757.14
520.55	27736.66
520.752	28056.15
520.954	28453.45
521.155	28179.03
521.357	29151.81
521.559	29049.41
521.761	29256.26
521.963	29583.93
522.164	29489.73
522.366	29655.61
522.568	30210.61
522.77	30214.71
522.971	30614.06
523.173	30366.26
523.375	30640.68
523.576	30583.34
523.778	30712.36
523.98	31416.86
524.181	31476.26
524.383	31318.56
524.584	31672.86
524.786	31945.24
524.988	31638.05
525.189	31920.66
525.391	32057.88
525.592	32666.13
525.794	32420.37
525.995	32522.77
526.197	32756.24
526.398	32975.37
526.6	33026.57
526.801	33108.49
527.003	33407.49
527.204	33319.43
527.406	33526.27
527.607	33647.1
527.808	34001.4
528.01	33767.93
528.211	33968.63
528.412	34464.24
528.614	34398.71
528.815	34122.23
529.016	34703.85
529.218	33985.02
529.419	34621.94
529.62	34814.44
529.822	34861.55
530.023	34888.17
530.224	34869.74
530.425	34931.18
530.626	34918.89
530.828	34959.85
531.029	35303.91
531.23	35242.47
531.431	34861.55
531.632	35185.13
531.833	35533.28
532.035	35463.65
532.236	35525.09
532.437	35570.15
532.638	35598.82
532.839	35922.4
533.04	35809.76
533.241	35058.15
533.442	35875.29
533.643	35514.85
533.844	35650.02
534.045	36098.52
534.246	35496.42
534.447	35633.63
534.648	35824.09
534.849	35848.67
535.05	35619.3
535.251	36028.89
535.451	35928.54
535.652	36172.25
535.853	35779.04
536.054	36035.03
536.255	36121.05
536.456	35756.51
536.657	36139.48
536.857	35697.12
537.058	35946.97
537.259	36190.68
537.46	35963.36
537.66	35672.54
537.861	35983.83
538.062	35877.34
538.263	36004.31
538.463	35758.56
538.664	35979.74
538.865	36311.51
539.065	36571.6
539.266	35717.6
539.466	36282.84
539.667	35703.26
539.868	36172.25
540.068	35912.16
540.269	35776.99
540.469	36200.92
540.67	35924.44
540.87	36000.22
541.071	35779.04
541.271	35924.44
541.472	35961.31
541.672	35897.82
541.873	35715.55
542.073	35285.48
542.274	35981.79
542.474	35723.74
542.675	35713.5
542.875	36248.02
543.075	35731.93
543.276	35406.31
543.476	36127.19
543.676	35697.12
543.877	36080.09
544.077	36096.47
544.277	36014.55
544.478	35598.82
544.678	35975.64
544.878	35850.72
545.078	35889.63
545.279	35686.88
545.479	35590.62
545.679	35799.52
545.879	35684.83
546.079	35729.89
546.28	35631.58
546.48	35449.32
546.68	36123.1
546.88	35537.38
547.08	35553.76
547.28	35504.61
547.48	35398.12
547.68	35787.23
547.88	35498.47
548.081	35533.28
548.281	35719.65
548.481	35514.85
548.681	35693.02
548.881	35639.78
549.081	35365.35
549.28	35502.56
549.48	35815.9
549.68	35582.43
549.88	36049.37
550.08	35535.33
550.28	35647.97
550.48	35197.41
550.68	35590.62
550.88	35279.33
551.08	35549.67
551.279	35744.22
551.479	35189.22
551.679	35422.69
551.879	35054.06
552.079	35475.94
552.278	35271.14
552.478	35119.59
552.678	35502.56
552.878	35455.46
553.077	35312.1
553.277	35242.47
553.477	35465.7
553.676	35025.39
553.876	35377.64
554.076	35041.77
554.275	35228.13
554.475	34968.04
554.674	34959.85
554.874	35342.82
555.074	34996.71
555.273	35140.07
555.473	35439.08
555.672	34900.46
555.872	34750.96
556.071	34890.22
556.271	35097.06
556.47	35060.2
556.67	34843.12
556.869	34611.7
557.068	35033.58
557.268	34513.39
557.467	34920.94
557.667	34734.57
557.866	34691.57
558.065	34566.64
558.265	34195.96
558.464	34077.18
558.663	34640.37
558.863	34634.22
559.062	34611.7
559.261	33976.83
559.461	34587.12
559.66	33825.28
559.859	34419.19
560.058	34042.36
560.258	34241.01
560.457	33823.23
560.656	34089.46
560.855	33925.63
561.054	33995.26
561.253	33702.4
561.453	33864.19
561.652	33645.05
561.851	34124.28
562.05	33622.53
562.249	33591.81
562.448	33839.61
562.647	33870.33
562.846	33452.55
563.045	33301
563.244	32989.7
563.443	33358.34
563.642	32815.63
563.841	33522.18
564.04	33051.14
564.239	33483.27
564.438	33001.99
564.637	33401.35
564.836	32807.44
565.035	32717.32
565.234	32582.16
565.432	32547.34
565.631	32602.64
565.83	32590.35
566.029	32551.44
566.228	32309.78
566.427	32352.79
566.625	32291.35
566.824	32047.64
567.023	32336.4
567.222	31636
567.42	32191
567.619	31750.68
567.818	31719.96
568.016	31803.93
568.215	32150.04
568.414	31603.23
568.612	31988.25
568.811	31619.61
569.01	31547.93
569.208	31293.99
569.407	31705.63
569.605	30980.65
569.804	31330.85
570.002	30829.1
570.201	31242.79
570.4	30831.15
570.598	30581.29
570.797	30757.42
570.995	30896.68
571.193	30755.37
571.392	30976.55
571.59	30358.06
571.789	30392.88
571.987	30335.54
572.186	30257.71
572.384	30374.45
572.582	30261.81
572.781	30261.81
572.979	29715
573.177	29536.83
573.376	29975.09
573.574	29469.25
573.772	29821.5
573.971	29643.32
574.169	29768.25
574.367	29301.31
574.565	29602.36
574.763	29389.38
574.962	29233.73
575.16	29327.94
575.358	29327.94
575.556	28996.17
575.754	29356.61
575.952	28740.17
576.151	28885.58
576.349	28709.45
576.547	28760.65
576.745	28738.12
576.943	28541.52
577.141	28750.41
577.339	28645.96
577.537	28623.44
577.735	27972.18
577.933	28056.15
578.131	28371.54
578.329	28203.6
578.527	27830.87
578.725	27826.78
578.923	27949.65
579.121	28123.73
579.319	27370.08
579.516	27990.61
579.714	27507.29
579.912	27374.17
580.11	27533.92
580.308	27574.88
580.506	27173.47
580.704	27265.63
580.901	27216.48
581.099	27443.81
581.297	27034.21
581.495	26753.64
581.692	27083.36
581.89	26888.81
582.088	26716.78
582.285	26659.43
582.483	26784.36
582.681	26622.57
582.878	26643.05
583.076	26391.15
583.274	26446.44
583.471	26116.72
583.669	26321.52
583.866	26260.08
584.064	26266.22
584.262	25791.09
584.459	25758.33
584.657	26065.52
584.854	25889.4
585.052	25479.8
585.249	25430.65
585.447	25432.7
585.644	25557.63
585.841	25395.84
586.039	25989.75
586.236	25064.07
586.434	25270.91
586.631	25148.03
586.828	25107.07
587.026	25145.98
587.223	25287.29
587.42	24873.6
587.618	25039.49
587.815	24883.84
588.012	24537.74
588.21	24808.07
588.407	24771.21
588.604	24351.37
588.801	24277.65
588.999	24242.83
589.196	24375.95
589.393	24347.28
589.59	24142.48
589.787	23765.65
589.984	23788.18
590.182	23749.27
590.379	24455.82
590.576	23730.84
590.773	23589.53
590.97	23689.88
591.167	24025.75
591.364	23356.06
591.561	23696.02
591.758	22844.07
591.955	23646.87
592.152	23331.48
592.349	23366.3
592.546	23241.37
592.743	23251.61
592.94	22880.93
593.137	23102.11
593.334	23030.43
593.531	22717.09
593.727	22817.44
593.924	22780.58
594.121	22684.33
594.318	22483.62
594.515	22629.03
594.712	22579.88
594.908	22457
595.105	22262.44
595.302	22039.22
595.499	22090.41
595.696	22211.25
595.892	22008.5
596.089	22160.05
596.286	22188.72
596.482	21783.22
596.679	21846.71
596.876	21719.73
597.072	21562.04
597.269	21615.29
597.466	21551.8
597.662	21555.9
597.859	21693.11
598.055	21670.58
598.252	21291.71
598.448	21236.41
598.645	21234.36
598.841	21154.49
599.038	21131.97
599.234	21250.75
599.431	20531.91
599.627	20806.34
599.824	20865.73
600.02	20691.65
600.217	20773.57
600.413	20622.02
600.609	20658.88
600.806	20208.33
601.002	20515.53
601.198	20064.97
601.395	20419.27
601.591	20394.7
601.787	20314.83
601.984	19813.07
602.18	20073.17
602.376	20118.22
602.572	20064.97
602.769	20177.61
602.965	19514.07
603.161	20087.5
603.357	19641.04
603.553	19319.51
603.75	19831.51
603.946	19542.74
604.142	19401.43
604.338	19329.75
604.534	19530.45
604.73	19346.14
604.926	19024.61
605.122	19040.99
605.318	19374.81
605.514	19155.68
605.71	18868.96
605.906	18995.93
606.102	19051.23
606.298	18926.3
606.494	18963.17
606.69	18717.41
606.886	18696.93
607.082	18488.04
607.278	18918.11
607.474	18402.02
607.67	18615.01
607.866	18492.13
608.062	18563.81
608.257	18426.6
608.453	18184.94
608.649	18488.04
608.845	18127.6
609.041	18334.44
609.236	18442.98
609.432	18113.26
609.628	18039.53
609.824	18246.38
610.019	17885.94
610.215	18186.99
610.411	18152.17
610.606	17775.34
610.802	18158.31
610.998	17734.39
611.193	17713.91
611.389	17777.39
611.584	17865.46
611.78	17392.37
611.976	17552.12
612.171	17679.09
612.367	17806.06
612.562	17607.41
612.758	17521.4
612.953	17312.5
613.149	17429.24
613.344	17220.35
613.539	17625.84
613.735	17378.04
613.93	17478.39
614.126	17427.19
614.321	17455.86
614.517	17343.22
614.712	17455.86
614.907	17109.75
615.103	17115.9
615.298	17228.54
615.493	17251.06
615.688	17015.55
615.884	17447.67
616.079	16620.29
616.274	17009.4
616.47	17144.57
616.665	16792.32
616.86	16837.38
617.055	16913.15
617.25	16608
617.445	16755.46
617.641	16669.44
617.836	16521.99
618.031	16233.22
618.226	16392.97
618.421	16501.51
618.616	16544.52
618.811	16173.83
619.006	16466.69
619.201	16130.83
619.396	16235.27
619.591	16061.19
619.786	16184.07
619.981	15639.31
620.176	15923.98
620.371	15821.58
620.566	15780.62
620.761	15766.29
620.956	15938.32
621.151	15315.73
621.346	15522.58
621.541	15516.44
621.735	15526.68
621.93	15471.38
622.125	15133.47
622.32	15196.95
622.515	15082.27
622.709	15139.61
622.904	14902.04
623.099	14986.01
623.294	14918.43
623.488	14680.86
623.683	14756.64
623.878	14576.42
624.072	14414.63
624.267	14674.72
624.462	14361.38
624.656	14134.06
624.851	14363.43
625.046	14164.78
625.24	14101.29
625.435	14027.56
625.629	13769.52
625.824	13859.63
626.018	14000.94
626.213	13609.78
626.407	13751.09
626.602	13189.94
626.796	13468.47
626.991	13603.63
627.185	13519.67
627.38	13335.35
627.574	13185.85
627.768	13103.93
627.963	12870.46
628.157	12935.99
628.352	13013.82
628.546	12956.47
628.74	12903.23
628.935	12567.36
629.129	12510.02
629.323	12600.13
629.517	12657.47
629.712	12561.22
629.906	12497.73
630.1	12276.55
630.294	12288.84
630.489	12092.23
630.683	12260.16
630.877	11967.31
631.071	11991.88
631.265	11901.77
631.459	11909.96
631.653	11854.67
631.848	11807.56
632.042	11520.85
632.236	11801.42
632.43	11469.65
632.624	11690.83
632.818	11780.94
633.012	11260.76
633.206	11264.85
633.4	11422.55
633.594	10980.18
633.788	11123.54
633.982	11058.01
634.176	11037.53
634.369	11178.84
634.563	11023.19
634.757	10965.85
634.951	10890.07
635.145	11000.66
635.339	10847.07
635.533	10558.3
635.726	10754.91
635.92	10576.73
636.114	10404.71
636.308	10486.62
636.501	10511.2
636.695	10380.13
636.889	10296.16
637.083	10046.31
637.276	10253.16
637.47	10169.19
637.664	10021.74
637.857	10023.78
638.051	9939.82
638.244	10060.65
638.438	10017.64
638.632	9571.18
638.825	9632.62
639.019	9874.28
639.212	9585.52
639.406	9620.33
639.599	9534.32
639.793	9509.74
639.986	9401.2
640.18	9456.5
640.373	9186.16
640.567	9315.19
640.76	9161.59
640.954	9153.4
641.147	9253.75
641.34	9214.84
641.534	9061.24
641.727	9081.72
641.92	9112.44
642.114	8870.78
642.307	8833.91
642.5	8919.93
642.694	8760.19
642.887	8653.69
643.08	8805.24
643.273	8561.53
643.467	8545.15
643.66	8483.71
643.853	8317.83
644.046	8309.63
644.239	8422.27
644.432	8315.78
644.626	8203.14
644.819	8321.92
645.012	8289.15
645.205	8278.91
645.398	8113.03
645.591	8225.67
645.784	8215.43
645.977	7984.01
646.17	7977.86
646.363	7990.15
646.556	7926.66
646.749	8024.97
646.942	8041.35
647.135	7828.36
647.328	7863.18
647.521	7746.44
647.714	7627.66
647.907	7680.91
648.099	7697.29
648.292	7582.6
648.485	7490.45
648.678	7551.88
648.871	7392.14
649.064	7412.62
649.256	7291.79
649.449	7400.34
649.642	7445.39
649.835	7140.24
650.027	7121.81
650.22	7263.12
650.413	7181.2
650.605	7187.35
650.798	7031.7
650.991	7183.25
651.183	7058.32
651.376	6884.25
651.568	6984.6
651.761	6837.14
651.954	6910.87
652.146	6853.53
652.339	6900.63
652.531	6736.79
652.724	6771.61
652.916	6519.71
653.109	6564.76
653.301	6566.81
653.494	6716.31
653.686	6441.89
653.879	6527.9
654.071	6497.18
654.263	6405.02
654.456	6488.99
654.648	6458.27
654.84	6308.77
655.033	6185.89
655.225	6386.59
655.417	6167.46
655.61	6142.88
655.802	6165.41
655.994	6155.17
656.186	5909.41
656.379	6030.24
656.571	5931.94
656.763	5921.7
656.955	6026.15
657.148	6091.68
657.34	5987.24
657.532	6069.16
657.724	6026.15
657.916	5884.84
658.108	5770.15
658.3	5772.2
658.492	5950.37
658.684	5622.7
658.876	5649.32
659.068	5739.43
659.26	5626.79
659.452	5620.65
659.644	5587.88
659.836	5620.65
660.028	5606.31
660.22	5471.15
660.412	5544.88
660.604	5589.93
660.796	5378.99
660.988	5372.85
661.18	5489.58
661.372	5374.89
661.563	5311.41
661.755	5313.45
661.947	5467.05
662.139	5249.97
662.331	5221.3
662.522	5151.67
662.714	5137.33
662.906	5196.72
663.097	4991.92
663.289	5157.81
663.481	5065.65
663.673	5010.36
663.864	4897.72
664.056	4910.01
664.247	5026.74
664.439	4883.38
664.631	5004.21
664.822	4989.88
665.014	4774.84
665.205	4787.13
665.397	4914.1
665.588	4832.18
665.78	4699.06
665.971	4762.55
666.163	4742.07
666.354	4766.65
666.546	4604.86
666.737	4555.71
666.929	4758.46
667.12	4662.2
667.311	4596.67
667.503	4690.87
667.694	4481.98
667.885	4549.56
668.077	4787.13
668.268	4359.1
668.459	4477.88
668.651	4299.71
668.842	4475.84
669.033	4426.68
669.224	4387.77
669.416	4443.07
669.607	4541.37
669.798	4479.93
669.989	4453.31
670.18	4324.29
670.371	4273.09
670.563	4217.79
670.754	4316.09
670.945	4213.7
671.136	4191.17
671.327	4187.07
671.518	4217.79
671.709	4268.99
671.9	4320.19
672.091	4271.04
672.282	4187.07
672.473	4099.01
672.664	4119.49
672.855	4045.76
673.046	4129.73
673.237	4142.02
673.428	4086.72
673.619	4168.64
673.809	4158.4
674	4066.24
674.191	3933.12
674.382	4039.62
674.573	3902.4
674.764	3974.08
674.954	3931.08
675.145	3996.61
675.336	3902.4
675.527	3800.01
675.717	3824.58
675.908	4017.09
676.099	3832.77
676.289	4002.75
676.48	3816.39
676.671	3705.8
676.861	3931.08
677.052	3789.77
677.243	3873.73
677.433	3824.58
677.624	3857.35
677.814	3894.21
678.005	3937.22
678.195	3886.02
678.386	3687.37
678.576	3840.97
678.767	3681.22
678.957	3877.83
679.148	3732.42
679.338	3687.37
679.529	3759.05
679.719	3806.15
679.909	3630.02
680.1	3775.43
680.29	3572.68
680.481	3746.76
680.671	3691.46
680.861	3720.14
681.052	3777.48
681.242	3705.8
681.432	3662.79
681.622	3625.93
681.813	3636.17
682.003	3607.5
682.193	3558.35
682.383	3533.77
682.573	3703.75
682.764	3644.36
682.954	3564.49
683.144	3621.83
683.334	3537.87
683.524	3589.07
683.714	3527.63
683.904	3675.08
684.094	3711.94
684.284	3634.12
684.474	3548.11
684.664	3597.26
684.854	3625.93
685.044	3421.13
685.234	3455.95
685.424	3386.32
685.614	3464.14
685.804	3505.1
685.994	3429.32
686.184	3537.87
686.374	3310.54
686.564	3318.73
686.753	3431.37
686.943	3388.36
687.133	3390.41
687.323	3345.36
687.513	3347.4
687.702	3324.88
687.892	3331.02
688.082	3279.82
688.272	3382.22
688.461	3367.88
688.651	3369.93
688.841	3232.72
689.03	3249.1
689.22	3277.77
689.41	3283.92
689.599	3146.7
689.789	3185.62
689.979	3126.22
690.168	3199.95
690.358	3367.88
690.547	3115.98
690.737	3050.45
690.926	3079.12
691.116	3050.45
691.305	3202
691.495	2991.06
691.684	3044.31
691.874	3060.69
692.063	2964.43
692.252	2995.15
692.442	3052.5
692.631	2950.1
692.82	2898.9
693.01	2874.32
693.199	2964.43
693.388	2989.01
693.578	2880.47
693.767	2859.99
693.956	2866.13
694.146	2837.46
694.335	2759.64
694.524	2855.89
694.713	2835.41
694.902	2835.41
695.092	2835.41
695.281	2837.46
695.47	2798.55
695.659	2886.61
695.848	2765.78
696.037	2882.52
696.226	2761.69
696.415	2806.74
696.604	2804.69
696.793	2755.54
696.982	2833.36
697.171	2806.74
697.36	2745.3
697.549	2839.51
697.738	2816.98
697.927	2608.09
698.116	2767.83
698.305	2741.21
698.494	2812.89
698.683	2558.94
698.872	2755.54
699.061	2749.4
699.25	2636.76
699.438	2618.33
699.627	2655.19
699.816	2765.78
700.005	2653.14
700.193	2706.39
700.382	2624.47
700.571	2628.57
700.76	2622.42
700.948	2628.57
701.137	2710.49
701.326	2610.14
701.514	2634.71
701.703	2495.45
701.892	2603.99
702.08	2690.01
702.269	2778.07
702.457	2636.76
702.646	2603.99
702.834	2579.42
703.023	2747.35
703.212	2565.08
703.4	2612.18
703.589	2628.57
703.777	2577.37
703.965	2659.29
704.154	2532.31
704.342	2663.38
704.531	2618.33
704.719	2524.12
704.907	2556.89
705.096	2493.4
705.284	2726.87
705.472	2472.92
705.661	2622.42
705.849	2669.53
706.037	2796.5
706.226	2544.6
706.414	2603.99
706.602	2608.09
706.79	2708.44
706.979	2569.18
707.167	2632.66
707.355	2626.52
707.543	2669.53
707.731	2712.53
707.919	2528.22
708.107	2550.75
708.296	2530.27
708.484	2554.84
708.672	2569.18
708.86	2628.57
709.048	2597.85
709.236	2673.62
709.424	2669.53
709.612	2577.37
709.8	2538.46
709.988	2698.2
710.176	2603.99
710.364	2651.1
710.551	2665.43
710.739	2692.05
710.927	2524.12
711.115	2560.98
711.303	2632.66
711.491	2548.7
711.679	2681.82
711.866	2593.75
712.054	2550.75
712.242	2640.86
712.43	2563.03
712.617	2685.91
712.805	2638.81
712.993	2673.62
713.181	2659.29
713.368	2628.57
713.556	2601.94
713.744	2642.9
713.931	2657.24
714.119	2499.55
714.306	2683.86
714.494	2489.31
714.682	2698.2
714.869	2608.09
715.057	2716.63
715.244	2651.1
715.432	2612.18
715.619	2681.82
715.807	2581.46
715.994	2616.28
716.182	2657.24
716.369	2538.46
716.556	2714.58
716.744	2706.39
716.931	2679.77
717.119	2616.28
717.306	2544.6
717.493	2653.14
717.681	2632.66
717.868	2661.34
718.055	2696.15
718.242	2728.92
718.43	2649.05
718.617	2683.86
718.804	2571.22
718.991	2554.84
719.179	2675.67
719.366	2671.58
719.553	2804.69
719.74	2573.27
719.927	2685.91
720.114	2649.05
720.301	2649.05
720.488	2620.38
720.676	2681.82
720.863	2827.22
721.05	2737.11
721.237	2819.03
721.424	2687.96
721.611	2722.77
721.798	2712.53
721.985	2673.62
722.172	2728.92
722.358	2698.2
722.545	2847.7
722.732	2563.03
722.919	2706.39
723.106	2741.21
723.293	2618.33
723.48	2571.22
723.667	2704.34
723.853	2753.49
724.04	2790.36
724.227	2630.62
724.414	2687.96
724.6	2694.1
724.787	2628.57
724.974	2786.26
725.161	2714.58
725.347	2771.93
725.534	2753.49
725.72	2683.86
725.907	2739.16
726.094	2862.04
726.28	2706.39
726.467	2778.07
726.653	2837.46
726.84	2771.93
727.027	2784.21
727.213	2667.48
727.4	2767.83
727.586	2735.06
727.773	2683.86
727.959	2864.08
728.145	2704.34
728.332	2692.05
728.518	2747.35
728.705	2747.35
728.891	2778.07
729.077	2663.38
729.264	2696.15
729.45	2761.69
729.636	2759.64
729.823	2778.07
730.009	2763.73
730.195	2591.7
730.382	2790.36
730.568	2771.93
730.754	2763.73
730.94	2784.21
731.126	2671.58
731.313	2706.39
731.499	2649.05
731.685	2673.62
731.871	2720.73
732.057	2751.45
732.243	2749.4
732.429	2812.89
732.615	2712.53
732.801	2589.66
732.987	2853.84
733.173	2679.77
733.359	2575.32
733.545	2536.41
733.731	2692.05
733.917	2790.36
734.103	2855.89
734.289	2784.21
734.475	2816.98
734.661	2880.47
734.847	2814.93
735.033	2726.87
735.219	2624.47
735.404	2796.5
735.59	2702.29
735.776	2825.17
735.962	2792.41
736.148	2728.92
736.333	2761.69
736.519	2751.45
736.705	2683.86
736.89	2661.34
737.076	2683.86
737.262	2698.2
737.447	2712.53
737.633	2671.58
737.819	2700.25
738.004	2644.95
738.19	2532.31
738.375	2585.56
738.561	2567.13
738.747	2692.05
738.932	2571.22
739.118	2595.8
739.303	2515.93
739.489	2614.23
739.674	2763.73
739.859	2569.18
740.045	2575.32
740.23	2595.8
740.416	2497.5
740.601	2606.04
740.786	2610.14
740.972	2589.66
741.157	2589.66
741.342	2591.7
741.528	2526.17
741.713	2606.04
741.898	2534.36
742.084	2495.45
742.269	2497.5
742.454	2618.33
742.639	2567.13
742.824	2448.35
743.01	2454.49
743.195	2399.2
743.38	2509.79
743.565	2485.21
743.75	2526.17
743.935	2509.79
744.12	2376.67
744.305	2415.58
744.49	2350.04
744.675	2409.44
744.86	2403.29
745.045	2415.58
745.23	2399.2
745.415	2341.85
745.6	2425.82
745.785	2366.43
745.97	2382.81
746.155	2376.67
746.34	2300.89
746.525	2272.22
746.71	2261.98
746.895	2335.71
747.079	2173.92
747.264	2229.21
747.449	2221.02
747.634	2235.36
747.819	2085.86
748.003	2180.06
748.188	2057.18
748.373	2104.29
748.557	2198.49
748.742	2167.77
748.927	2130.91
749.111	2083.81
749.296	2071.52
749.481	2118.62
749.665	2106.34
749.85	2053.09
750.034	2018.27
750.219	1938.4
750.404	2001.89
750.588	2038.75
750.773	2010.08
750.957	2016.23
751.141	1848.29
751.326	1887.2
751.51	1915.87
751.695	1866.72
751.879	1993.7
752.064	1879.01
752.248	1848.29
752.432	1887.2
752.617	1825.76
752.801	1928.16
752.985	1807.33
753.17	1846.24
753.354	1713.13
753.538	1784.8
753.722	1786.85
753.907	1737.7
754.091	1772.52
754.275	1731.56
754.459	1721.32
754.643	1735.65
754.828	1684.45
755.012	1737.7
755.196	1666.02
755.38	1577.96
755.564	1623.02
755.748	1706.98
755.932	1674.21
756.116	1698.79
756.3	1569.77
756.484	1659.88
756.668	1588.2
756.852	1698.79
757.036	1610.73
757.22	1530.86
757.404	1537
757.588	1444.84
757.772	1600.49
757.956	1567.72
758.14	1489.9
758.323	1506.28
758.507	1461.23
758.691	1422.31
758.875	1500.14
759.059	1485.8
759.242	1375.21
759.426	1469.42
759.61	1344.49
759.794	1471.47
759.977	1348.59
760.161	1422.31
760.345	1364.97
760.528	1385.45
760.712	1371.12
760.895	1360.88
761.079	1397.74
761.263	1297.39
761.446	1178.61
761.63	1371.12
761.813	1299.44
761.997	1362.92
762.18	1297.39
762.364	1387.5
762.547	1352.68
762.731	1219.57
762.914	1272.81
763.098	1403.88
763.281	1264.62
763.464	1166.32
763.648	1219.57
763.831	1170.41
764.015	1364.97
764.198	1215.47
764.381	1235.95
764.564	1225.71
764.748	1180.65
764.931	1291.24
765.114	1164.27
765.297	1197.04
765.481	1135.6
765.664	1256.43
765.847	1147.89
766.03	1158.13
766.213	1180.65
766.397	1139.69
766.58	1145.84
766.763	1127.41
766.946	1166.32
767.129	1160.17
767.312	1184.75
767.495	1209.33
767.678	1166.32
767.861	1176.56
768.044	1111.02
768.227	1170.41
768.41	1133.55
768.593	1104.88
768.776	1055.73
768.959	1113.07
769.142	1002.48
769.324	1117.17
769.507	1053.68
769.69	1108.98
769.873	1043.44
770.056	1035.25
770.239	1053.68
770.421	1094.64
770.604	1076.21
770.787	959.47
770.97	1039.34
771.152	1008.62
771.335	1070.06
771.518	922.61
771.7	1006.58
771.883	1061.87
772.066	1053.68
772.248	1086.45
772.431	1041.39
772.613	1035.25
772.796	953.33
772.978	992.24
773.161	1059.82
773.343	916.47
773.526	842.74
773.708	922.61
773.891	891.89
774.073	867.31
774.256	842.74
774.438	947.19
774.621	932.85
774.803	930.8
774.985	789.49
775.168	898.03
775.35	922.61
775.532	834.55
775.715	838.64
775.897	834.55
776.079	826.36
776.261	838.64
776.444	871.41
776.626	830.45
776.808	707.57
776.99	895.99
777.173	891.89
777.355	764.92
777.537	805.88
777.719	836.6
777.901	779.25
778.083	711.67
778.265	748.53
778.447	787.44
778.629	730.1
778.811	736.24
778.993	719.86
779.175	797.68
779.357	658.42
779.539	654.33
779.721	650.23
779.903	799.73
780.085	709.62
780.267	756.72
780.449	779.25
780.631	676.85
780.812	750.58
780.994	658.42
781.176	625.65
781.358	619.51
781.54	644.09
781.721	717.81
781.903	637.94
782.085	631.8
782.267	590.84
782.448	648.18
782.63	652.28
782.812	674.81
782.993	609.27
783.175	603.13
783.357	580.6
783.538	635.89
783.72	619.51
783.901	603.13
784.083	601.08
784.264	625.65
784.446	541.69
784.627	562.17
784.809	644.09
784.99	596.98
785.172	580.6
785.353	617.46
785.535	488.44
785.716	529.4
785.897	539.64
786.079	486.39
786.26	455.67
786.441	531.45
786.623	574.46
786.804	463.86
786.985	484.34
787.167	578.55
787.348	482.3
787.529	523.26
787.71	533.5
787.891	570.36
788.073	502.78
788.254	576.5
788.435	508.92
788.616	517.11
788.797	488.44
788.978	445.43
789.159	474.1
789.34	467.96
789.522	410.62
789.703	441.34
789.884	500.73
790.065	470.01
790.246	537.59
790.427	408.57
790.607	472.06
790.788	533.5
790.969	431.1
791.15	513.02
791.331	373.75
791.512	519.16
791.693	381.95
791.874	410.62
792.054	443.39
792.235	418.81
792.416	316.41
792.597	357.37
792.778	386.04
792.958	465.91
793.139	418.81
793.32	437.24
793.5	474.1
793.681	347.13
793.862	383.99
794.042	386.04
794.223	312.32
794.404	336.89
794.584	279.55
794.765	373.75
794.945	375.8
795.126	332.79
795.306	392.19
795.487	324.6
795.667	334.84
795.848	306.17
796.028	422.91
796.209	293.88
796.389	343.03
796.57	412.67
796.75	365.56
796.93	383.99
797.111	283.64
797.291	285.69
797.471	314.36
797.652	383.99
797.832	312.32
798.012	314.36
798.192	345.08
798.373	312.32
798.553	304.12
798.733	359.42
798.913	285.69
799.093	316.41
799.274	332.79
799.454	367.61
799.634	314.36
799.814	238.59
799.994	289.79
800.174	336.89
800.354	287.74
800.534	238.59
800.714	275.45
800.894	312.32
801.074	195.58
801.254	355.32
801.434	269.31
801.614	283.64
801.794	244.73
801.974	691.19
802.154	300.03
802.334	279.55
802.514	371.71
802.693	308.22
802.873	257.02
803.053	312.32
803.233	289.79
803.413	297.98
803.592	224.25
803.772	207.87
803.952	228.35
804.131	250.88
804.311	238.59
804.491	244.73
804.67	250.88
804.85	244.73
805.03	300.03
805.209	322.56
805.389	285.69
805.568	295.93
805.748	297.98
805.928	297.98
806.107	201.72
806.287	261.12
806.466	316.41
806.646	263.16
806.825	265.21
807.004	248.83
807.184	211.96
807.363	216.06
807.543	199.68
807.722	171.01
807.901	320.51
808.081	279.55
808.26	220.16
808.439	259.07
808.619	293.88
808.798	181.25
808.977	254.97
809.156	228.35
809.336	248.83
809.515	285.69
809.694	236.54
809.873	195.58
810.052	160.77
810.231	302.08
810.411	257.02
810.59	201.72
810.769	324.6
810.948	234.49
811.127	220.16
811.306	222.2
811.485	214.01
811.664	228.35
811.843	175.1
812.022	164.86
812.201	150.53
812.38	189.44
812.559	211.96
812.737	171.01
812.916	205.82
813.095	226.3
813.274	228.35
813.453	179.2
813.632	254.97
813.811	173.05
813.989	218.11
814.168	144.38
814.347	175.1
814.526	189.44
814.704	207.87
814.883	156.67
815.062	166.91
815.24	181.25
815.419	187.39
815.598	181.25
815.776	209.92
815.955	220.16
816.133	179.2
816.312	203.77
816.49	195.58
816.669	146.43
816.847	166.91
817.026	119.81
817.204	183.29
817.383	226.3
817.561	113.66
817.74	191.49
817.918	152.57
818.097	183.29
818.275	187.39
818.453	177.15
818.632	173.05
818.81	166.91
818.988	95.23
819.167	168.96
819.345	130.05
819.523	150.53
819.701	234.49
819.879	171.01
820.058	138.24
820.236	201.72
820.414	150.53
820.592	181.25
820.77	140.29
820.948	183.29
821.127	132.09
821.305	148.48
821.483	203.77
821.661	121.85
821.839	115.71
822.017	148.48
822.195	125.95
822.373	191.49
822.551	197.63
822.729	244.73
822.907	171.01
823.085	154.62
823.262	117.76
823.44	130.05
823.618	148.48
823.796	132.09
823.974	205.82
824.152	146.43
824.329	128
824.507	173.05
824.685	142.33
824.863	87.04
825.04	64.51
825.218	130.05
825.396	123.9
825.574	89.09
825.751	111.61
825.929	195.58
826.107	97.28
826.284	123.9
826.462	173.05
826.639	193.53
826.817	46.08
826.994	80.89
827.172	68.61
827.349	154.62
827.527	158.72
827.704	132.09
827.882	171.01
828.059	105.47
828.237	99.33
828.414	123.9
828.591	89.09
828.769	107.52
828.946	160.77
829.124	41.98
829.301	187.39
829.478	113.66
829.655	97.28
829.833	103.42
830.01	117.76
830.187	107.52
830.364	68.61
830.542	152.57
830.719	103.42
830.896	138.24
831.073	103.42
831.25	109.57
831.427	154.62
831.604	128
831.782	123.9
831.959	105.47
832.136	58.37
832.313	64.51
832.49	64.51
832.667	107.52
832.844	89.09
833.021	117.76
833.198	33.79
833.374	27.65
833.551	166.91
833.728	93.18
833.905	111.61
834.082	64.51
834.259	84.99
834.436	130.05
834.612	134.14
834.789	240.64
834.966	41.98
835.143	70.65
835.319	19.46
835.496	64.51
835.673	187.39
835.85	29.7
836.026	87.04
836.203	205.82
836.38	91.13
836.556	109.57
836.733	156.67
836.909	115.71
837.086	62.46
837.262	128
837.439	68.61
837.616	144.38
837.792	93.18
837.968	64.51
838.145	56.32
838.321	76.8
838.498	87.04
838.674	107.52
838.851	72.7
839.027	89.09
839.203	80.89
839.38	62.46
839.556	41.98
839.732	97.28
839.909	37.89
840.085	62.46
840.261	82.94
840.437	64.51
840.614	89.09
840.79	113.66
840.966	140.29
841.142	54.27
841.318	78.85
841.494	97.28
841.671	76.8
841.847	33.79
842.023	19.46
842.199	21.5
842.375	1.02
842.551	101.37
842.727	33.79
842.903	113.66
843.079	41.98
843.255	64.51
843.431	11.26
843.607	29.7
843.783	68.61
843.959	123.9
844.134	64.51
844.31	72.7
844.486	54.27
844.662	48.13
844.838	3.07
845.013	54.27
845.189	54.27
845.365	80.89
845.541	39.94
845.716	-5.12
845.892	128
846.068	52.22
846.244	72.7
846.419	37.89
846.595	21.5
846.77	50.18
846.946	105.47
847.122	130.05
847.297	87.04
847.473	54.27
847.648	-31.74
847.824	66.56
847.999	39.94
848.175	119.81
848.35	23.55
848.526	107.52
848.701	11.26
848.876	66.56
849.052	107.52
849.227	37.89
849.403	60.42
849.578	37.89
849.753	46.08
849.929	60.42
850.104	-3.07
850.279	91.13
850.454	78.85
850.63	74.75
850.805	60.42
850.98	5.12
851.155	66.56
851.33	93.18
851.505	-5.12
851.681	140.29
851.856	17.41
852.031	66.56
852.206	109.57
852.381	78.85
852.556	68.61
852.731	29.7
852.906	64.51
853.081	72.7
853.256	33.79
853.431	89.09
853.606	33.79
853.781	62.46
853.956	39.94
854.131	29.7
854.305	80.89
854.48	58.37
854.655	82.94
854.83	35.84
855.005	9.22
855.18	80.89
855.354	19.46
855.529	84.99
855.704	37.89
855.879	107.52
856.053	19.46
856.228	50.18
856.403	46.08
856.577	119.81
856.752	-3.07
856.926	78.85
857.101	48.13
857.276	37.89
857.45	-13.31
857.625	11.26
857.799	58.37
857.974	66.56
858.148	3.07
858.323	-3.07
858.497	-13.31
858.672	80.89
858.846	70.65
859.02	80.89
859.195	-15.36
859.369	60.42
859.543	44.03
859.718	72.7
859.892	91.13
860.066	84.99
860.241	-31.74
860.415	74.75
860.589	15.36
860.763	44.03
860.938	39.94
861.112	11.26
861.286	35.84
861.46	-27.65
861.634	-3.07
861.808	136.19
861.982	15.36
862.157	80.89
862.331	-25.6
862.505	5.12
862.679	-31.74
862.853	19.46
863.027	-23.55
863.201	44.03
863.375	48.13
863.549	68.61
863.722	56.32
863.896	76.8
864.07	80.89
864.244	41.98
864.418	97.28
864.592	99.33
864.766	76.8
864.939	107.52
865.113	46.08
865.287	15.36
865.461	113.66
865.634	44.03
865.808	21.5
865.982	111.61
866.156	13.31
866.329	5.12
866.503	39.94
866.676	82.94
866.85	25.6
867.024	39.94
867.197	58.37
867.371	132.09
867.544	25.6
867.718	-37.89
867.891	1.02
868.065	15.36
868.238	1.02
868.412	80.89
868.585	115.71
868.759	-1.02
868.932	-56.32
869.105	-3.07
869.279	5.12
869.452	64.51
869.625	23.55
869.799	78.85
869.972	23.55
870.145	54.27
870.319	54.27
870.492	91.13
870.665	-17.41
870.838	41.98
871.011	-25.6
871.185	-19.46
871.358	103.42
871.531	17.41
871.704	33.79
871.877	60.42
872.05	29.7
872.223	33.79
872.396	95.23
872.569	60.42
872.742	-5.12
872.915	78.85
873.088	-7.17
873.261	19.46
873.434	80.89
873.607	76.8
873.78	84.99
873.953	66.56
874.126	15.36
874.299	70.65
874.471	-13.31
874.644	17.41
874.817	62.46
874.99	60.42
875.163	58.37
875.335	101.37
875.508	23.55
875.681	33.79
875.853	15.36
876.026	56.32
876.199	46.08
876.371	93.18
876.544	109.57
876.717	13.31
876.889	7.17
877.062	25.6
877.234	48.13
877.407	25.6
877.579	39.94
877.752	15.36
877.924	44.03
878.097	68.61
878.269	-17.41
878.442	62.46
878.614	44.03
878.786	35.84
878.959	-15.36
879.131	5.12
879.303	-3.07
879.476	50.18
879.648	33.79
879.82	80.89
879.993	13.31
880.165	-5.12
880.337	-31.74
880.509	-13.31
880.681	44.03
880.854	35.84
881.026	64.51
881.198	27.65
881.37	-27.65
881.542	80.89
881.714	25.6
881.886	21.5
882.058	-9.22
882.23	29.7
882.402	-25.6
882.574	64.51
882.746	-11.26
882.918	54.27
883.09	58.37
883.262	44.03
883.434	64.51
883.606	35.84
883.778	7.17
883.95	70.65
884.122	-13.31
884.293	84.99
884.465	-64.51
884.637	-23.55
884.809	27.65
884.98	-39.94
885.152	31.74
885.324	68.61
885.496	15.36
885.667	31.74
885.839	-60.42
886.011	48.13
886.182	72.7
886.354	37.89
886.525	19.46
886.697	46.08
886.869	11.26
887.04	3.07
887.212	35.84
887.383	66.56
887.555	11.26
887.726	52.22
887.897	3.07
888.069	44.03
888.24	23.55
888.412	13.31
888.583	29.7
888.754	37.89
888.926	13.31
889.097	78.85
889.268	5.12
889.44	31.74
889.611	17.41
889.782	5.12
889.953	-29.7
890.125	52.22
890.296	-13.31
890.467	19.46
890.638	13.31
890.809	11.26
890.98	39.94
891.151	-5.12
891.323	25.6
891.494	-5.12
891.665	-64.51
891.836	13.31
892.007	-19.46
892.178	140.29
892.349	11.26
892.52	15.36
892.691	66.56
892.862	-23.55
893.032	3.07
893.203	5.12
893.374	27.65
893.545	27.65
893.716	-23.55
893.887	39.94
894.057	-15.36
894.228	-11.26
894.399	17.41
894.57	-15.36
894.74	-3.07
894.911	3.07
895.082	-7.17
895.253	-41.98
895.423	-1.02
895.594	89.09
895.764	84.99
895.935	80.89
896.106	103.42
896.276	19.46
896.447	39.94
896.617	-23.55
896.788	-82.94
896.958	33.79
897.129	1.02
897.299	33.79
897.47	70.65
897.64	113.66
897.81	27.65
897.981	9.22
898.151	29.7
898.322	-25.6
898.492	-5.12
898.662	1.02
898.832	-1.02
899.003	25.6
899.173	48.13
899.343	68.61
899.513	-11.26
