Data from USB4F104151__60__11-52-30-962.txt Node

Date: Fri Mar 14 11:52:30 EDT 2025
User: louis
Spectrometer: USB4F10415
Trigger mode: 4
Integration Time (sec): 2.000000E-2
Scans to average: 1
Electric dark correction enabled: true
Nonlinearity correction enabled: false
Boxcar width: 0
XAxis mode: Wavelengths
Number of Pixels in Spectrum: 3648
>>>>>Begin Spectral Data<<<<<
178.204	-123.05
178.424	-123.05
178.644	-123.05
178.864	-30.89
179.084	-57.51
179.304	28.5
179.524	10.07
179.744	-0.17
179.964	1.88
180.184	-28.84
180.404	36.69
180.624	8.02
180.844	-10.41
181.064	-57.51
181.283	-4.27
181.503	-4.27
181.723	20.31
181.943	32.6
182.163	44.88
182.383	-39.08
182.602	61.27
182.822	118.61
183.042	46.93
183.262	98.13
183.482	44.88
183.701	-37.03
183.921	-6.31
184.141	34.64
184.361	30.55
184.58	-24.75
184.8	77.65
185.02	46.93
185.239	77.65
185.459	24.4
185.679	48.98
185.898	-0.17
186.118	59.22
186.338	36.69
186.557	55.12
186.777	-12.46
186.997	-2.22
187.216	81.75
187.436	73.56
187.655	83.8
187.875	26.45
188.095	36.69
188.314	55.12
188.534	98.13
188.753	-45.23
188.973	44.88
189.192	-0.17
189.412	16.21
189.631	18.26
189.851	30.55
190.07	26.45
190.29	-6.31
190.509	5.97
190.729	38.74
190.948	20.31
191.168	83.8
191.387	-12.46
191.607	1.88
191.826	-2.22
192.045	112.47
192.265	85.84
192.484	-10.41
192.704	69.46
192.923	-49.32
193.142	65.36
193.362	-16.55
193.581	36.69
193.8	24.4
194.02	63.32
194.239	-53.42
194.458	20.31
194.678	1.88
194.897	34.64
195.116	-12.46
195.335	-47.27
195.555	53.08
195.774	3.93
195.993	-10.41
196.212	75.6
196.432	38.74
196.651	59.22
196.87	34.64
197.089	65.36
197.308	77.65
197.528	65.36
197.747	10.07
197.966	67.41
198.185	10.07
198.404	-8.36
198.623	91.99
198.842	79.7
199.062	61.27
199.281	46.93
199.5	32.6
199.719	102.23
199.938	120.66
200.157	61.27
200.376	-12.46
200.595	-47.27
200.814	-16.55
201.033	48.98
201.252	30.55
201.471	79.7
201.69	32.6
201.909	79.7
202.128	32.6
202.347	77.65
202.566	48.98
202.785	-41.13
203.004	34.64
203.223	77.65
203.442	65.36
203.661	69.46
203.879	-0.17
204.098	106.32
204.317	-63.66
204.536	30.55
204.755	-55.47
204.974	42.84
205.193	8.02
205.411	71.51
205.63	53.08
205.849	12.12
206.068	8.02
206.287	3.93
206.505	61.27
206.724	-12.46
206.943	44.88
207.162	69.46
207.381	79.7
207.599	36.69
207.818	12.12
208.037	63.32
208.255	3.93
208.474	63.32
208.693	-16.55
208.911	32.6
209.13	36.69
209.349	87.89
209.567	-6.31
209.786	85.84
210.005	48.98
210.223	34.64
210.442	32.6
210.661	63.32
210.879	71.51
211.098	26.45
211.316	65.36
211.535	102.23
211.753	-16.55
211.972	-0.17
212.191	-2.22
212.409	20.31
212.628	16.21
212.846	36.69
213.065	20.31
213.283	28.5
213.502	51.03
213.72	24.4
213.938	-2.22
214.157	94.04
214.375	44.88
214.594	28.5
214.812	36.69
215.031	32.6
215.249	85.84
215.467	104.28
215.686	3.93
215.904	46.93
216.122	20.31
216.341	26.45
216.559	53.08
216.778	40.79
216.996	1.88
217.214	-39.08
217.432	75.6
217.651	44.88
217.869	48.98
218.087	94.04
218.306	106.32
218.524	22.36
218.742	18.26
218.96	59.22
219.179	67.41
219.397	16.21
219.615	132.95
219.833	26.45
220.051	5.97
220.27	42.84
220.488	12.12
220.706	12.12
220.924	-6.31
221.142	16.21
221.36	-0.17
221.578	-0.17
221.796	22.36
222.015	28.5
222.233	-30.89
222.451	51.03
222.669	-30.89
222.887	36.69
223.105	-14.51
223.323	10.07
223.541	14.17
223.759	18.26
223.977	18.26
224.195	40.79
224.413	53.08
224.631	28.5
224.849	26.45
225.067	77.65
225.285	22.36
225.503	-10.41
225.721	-41.13
225.939	16.21
226.157	44.88
226.375	94.04
226.592	3.93
226.81	26.45
227.028	-10.41
227.246	120.66
227.464	73.56
227.682	28.5
227.9	-4.27
228.117	16.21
228.335	1.88
228.553	24.4
228.771	63.32
228.989	-53.42
229.206	30.55
229.424	20.31
229.642	14.17
229.86	16.21
230.077	71.51
230.295	53.08
230.513	-0.17
230.731	75.6
230.948	57.17
231.166	-4.27
231.384	-20.65
231.601	57.17
231.819	114.52
232.037	-37.03
232.254	-24.75
232.472	67.41
232.689	38.74
232.907	51.03
233.125	67.41
233.342	-30.89
233.56	44.88
233.777	63.32
233.995	28.5
234.213	-26.79
234.43	-0.17
234.648	-22.7
234.865	65.36
235.083	112.47
235.3	55.12
235.518	-20.65
235.735	57.17
235.953	104.28
236.17	34.64
236.388	40.79
236.605	16.21
236.822	57.17
237.04	91.99
237.257	28.5
237.475	-18.6
237.692	34.64
237.909	46.93
238.127	20.31
238.344	42.84
238.562	53.08
238.779	-8.36
238.996	-26.79
239.214	40.79
239.431	22.36
239.648	61.27
239.865	110.42
240.083	53.08
240.3	28.5
240.517	57.17
240.735	-53.42
240.952	14.17
241.169	98.13
241.386	65.36
241.603	46.93
241.821	-14.51
242.038	165.71
242.255	79.7
242.472	18.26
242.689	1.88
242.907	36.69
243.124	38.74
243.341	104.28
243.558	26.45
243.775	32.6
243.992	34.64
244.209	20.31
244.426	24.4
244.643	10.07
244.86	14.17
245.078	18.26
245.295	14.17
245.512	14.17
245.729	16.21
245.946	42.84
246.163	20.31
246.38	36.69
246.597	30.55
246.814	44.88
247.031	38.74
247.248	61.27
247.464	73.56
247.681	46.93
247.898	128.85
248.115	-12.46
248.332	28.5
248.549	36.69
248.766	51.03
248.983	46.93
249.2	12.12
249.417	24.4
249.633	-8.36
249.85	98.13
250.067	10.07
250.284	48.98
250.501	46.93
250.717	114.52
250.934	77.65
251.151	-6.31
251.368	-14.51
251.585	30.55
251.801	59.22
252.018	36.69
252.235	30.55
252.451	-20.65
252.668	8.02
252.885	106.32
253.102	26.45
253.318	81.75
253.535	-20.65
253.752	65.36
253.968	-10.41
254.185	34.64
254.401	28.5
254.618	22.36
254.835	-18.6
255.051	32.6
255.268	104.28
255.484	53.08
255.701	79.7
255.917	-69.8
256.134	-8.36
256.351	22.36
256.567	34.64
256.784	32.6
257	38.74
257.217	81.75
257.433	8.02
257.65	40.79
257.866	28.5
258.082	34.64
258.299	-88.23
258.515	-2.22
258.732	59.22
258.948	28.5
259.165	-34.99
259.381	-0.17
259.597	18.26
259.814	75.6
260.03	18.26
260.246	36.69
260.463	8.02
260.679	108.37
260.895	40.79
261.112	-34.99
261.328	-6.31
261.544	-55.47
261.761	126.8
261.977	32.6
262.193	18.26
262.409	87.89
262.626	48.98
262.842	87.89
263.058	-0.17
263.274	94.04
263.49	-24.75
263.707	32.6
263.923	12.12
264.139	-32.94
264.355	28.5
264.571	3.93
264.787	57.17
265.004	12.12
265.22	75.6
265.436	38.74
265.652	16.21
265.868	-26.79
266.084	55.12
266.3	28.5
266.516	10.07
266.732	124.76
266.948	32.6
267.164	53.08
267.38	65.36
267.596	89.94
267.812	42.84
268.028	36.69
268.244	26.45
268.46	57.17
268.676	51.03
268.892	-4.27
269.108	-12.46
269.324	48.98
269.54	-22.7
269.756	57.17
269.972	40.79
270.188	12.12
270.403	30.55
270.619	12.12
270.835	-34.99
271.051	32.6
271.267	44.88
271.483	40.79
271.698	-16.55
271.914	65.36
272.13	5.97
272.346	91.99
272.562	5.97
272.777	102.23
272.993	16.21
273.209	22.36
273.425	57.17
273.64	-12.46
273.856	112.47
274.072	-45.23
274.287	34.64
274.503	26.45
274.719	46.93
274.934	24.4
275.15	8.02
275.366	-18.6
275.581	-20.65
275.797	24.4
276.012	-8.36
276.228	73.56
276.444	61.27
276.659	42.84
276.875	-6.31
277.09	81.75
277.306	-2.22
277.521	42.84
277.737	44.88
277.952	128.85
278.168	71.51
278.383	18.26
278.599	18.26
278.814	55.12
279.03	18.26
279.245	-8.36
279.461	79.7
279.676	5.97
279.892	-4.27
280.107	26.45
280.322	24.4
280.538	44.88
280.753	67.41
280.969	126.8
281.184	32.6
281.399	-16.55
281.615	57.17
281.83	22.36
282.045	-57.51
282.26	3.93
282.476	-16.55
282.691	71.51
282.906	69.46
283.122	81.75
283.337	42.84
283.552	3.93
283.767	14.17
283.983	59.22
284.198	30.55
284.413	42.84
284.628	-6.31
284.843	67.41
285.058	55.12
285.274	48.98
285.489	-24.75
285.704	63.32
285.919	-0.17
286.134	44.88
286.349	94.04
286.564	-26.79
286.779	3.93
286.995	-24.75
287.21	53.08
287.425	26.45
287.64	-18.6
287.855	51.03
288.07	-55.47
288.285	55.12
288.5	61.27
288.715	42.84
288.93	42.84
289.145	-14.51
289.36	30.55
289.575	32.6
289.79	77.65
290.004	89.94
290.219	69.46
290.434	22.36
290.649	16.21
290.864	-12.46
291.079	-20.65
291.294	81.75
291.509	26.45
291.724	22.36
291.938	46.93
292.153	112.47
292.368	26.45
292.583	73.56
292.798	-8.36
293.012	42.84
293.227	30.55
293.442	71.51
293.657	98.13
293.871	24.4
294.086	30.55
294.301	57.17
294.516	98.13
294.73	87.89
294.945	-12.46
295.16	79.7
295.374	59.22
295.589	46.93
295.804	14.17
296.018	63.32
296.233	-4.27
296.447	77.65
296.662	79.7
296.877	63.32
297.091	32.6
297.306	57.17
297.52	28.5
297.735	73.56
297.949	48.98
298.164	55.12
298.378	-0.17
298.593	42.84
298.807	102.23
299.022	46.93
299.236	18.26
299.451	59.22
299.665	130.9
299.88	106.32
300.094	-0.17
300.309	44.88
300.523	-0.17
300.737	-4.27
300.952	10.07
301.166	124.76
301.381	-43.18
301.595	40.79
301.809	69.46
302.024	55.12
302.238	48.98
302.452	102.23
302.667	87.89
302.881	32.6
303.095	77.65
303.309	61.27
303.524	-20.65
303.738	1.88
303.952	18.26
304.166	59.22
304.381	26.45
304.595	48.98
304.809	63.32
305.023	65.36
305.237	3.93
305.452	83.8
305.666	77.65
305.88	57.17
306.094	24.4
306.308	91.99
306.522	71.51
306.736	-14.51
306.95	51.03
307.164	20.31
307.379	10.07
307.593	85.84
307.807	79.7
308.021	44.88
308.235	102.23
308.449	-8.36
308.663	57.17
308.877	98.13
309.091	32.6
309.305	65.36
309.519	-32.94
309.733	77.65
309.947	20.31
310.161	32.6
310.374	-16.55
310.588	108.37
310.802	51.03
311.016	32.6
311.23	14.17
311.444	48.98
311.658	5.97
311.872	55.12
312.085	69.46
312.299	104.28
312.513	-2.22
312.727	16.21
312.941	14.17
313.154	51.03
313.368	55.12
313.582	83.8
313.796	65.36
314.009	-12.46
314.223	100.18
314.437	98.13
314.651	77.65
314.864	28.5
315.078	46.93
315.292	-0.17
315.505	36.69
315.719	87.89
315.933	32.6
316.146	46.93
316.36	38.74
316.573	67.41
316.787	73.56
317.001	102.23
317.214	-34.99
317.428	-4.27
317.641	16.21
317.855	79.7
318.068	42.84
318.282	-10.41
318.495	153.43
318.709	-2.22
318.922	51.03
319.136	77.65
319.349	40.79
319.563	112.47
319.776	36.69
319.99	30.55
320.203	-20.65
320.417	100.18
320.63	59.22
320.843	100.18
321.057	132.95
321.27	100.18
321.483	24.4
321.697	44.88
321.91	102.23
322.124	26.45
322.337	69.46
322.55	14.17
322.763	44.88
322.977	32.6
323.19	55.12
323.403	28.5
323.617	-20.65
323.83	114.52
324.043	51.03
324.256	34.64
324.469	28.5
324.683	83.8
324.896	48.98
325.109	8.02
325.322	14.17
325.535	81.75
325.748	89.94
325.962	34.64
326.175	-0.17
326.388	104.28
326.601	75.6
326.814	22.36
327.027	-0.17
327.24	40.79
327.453	-0.17
327.666	79.7
327.879	10.07
328.092	38.74
328.305	36.69
328.518	122.71
328.731	-16.55
328.944	53.08
329.157	106.32
329.37	28.5
329.583	51.03
329.796	77.65
330.009	-22.7
330.222	89.94
330.435	135
330.648	112.47
330.861	42.84
331.073	1.88
331.286	12.12
331.499	24.4
331.712	18.26
331.925	69.46
332.138	40.79
332.35	-8.36
332.563	32.6
332.776	63.32
332.989	-37.03
333.202	143.19
333.414	-20.65
333.627	55.12
333.84	14.17
334.053	102.23
334.265	38.74
334.478	3.93
334.691	32.6
334.903	32.6
335.116	-6.31
335.329	63.32
335.541	73.56
335.754	51.03
335.966	-2.22
336.179	-10.41
336.392	46.93
336.604	75.6
336.817	55.12
337.029	38.74
337.242	61.27
337.454	48.98
337.667	55.12
337.88	16.21
338.092	106.32
338.305	53.08
338.517	-28.84
338.729	63.32
338.942	67.41
339.154	51.03
339.367	10.07
339.579	48.98
339.792	5.97
340.004	83.8
340.217	38.74
340.429	106.32
340.641	65.36
340.854	75.6
341.066	63.32
341.278	57.17
341.491	71.51
341.703	40.79
341.915	-20.65
342.128	108.37
342.34	34.64
342.552	122.71
342.764	65.36
342.977	34.64
343.189	38.74
343.401	46.93
343.613	34.64
343.826	18.26
344.038	40.79
344.25	63.32
344.462	42.84
344.674	94.04
344.886	40.79
345.099	28.5
345.311	96.08
345.523	116.56
345.735	-28.84
345.947	57.17
346.159	46.93
346.371	51.03
346.583	24.4
346.795	12.12
347.007	48.98
347.219	104.28
347.431	81.75
347.643	30.55
347.855	55.12
348.067	34.64
348.279	-0.17
348.491	46.93
348.703	-2.22
348.915	65.36
349.127	12.12
349.339	73.56
349.551	34.64
349.763	18.26
349.975	30.55
350.187	18.26
350.399	3.93
350.61	5.97
350.822	36.69
351.034	61.27
351.246	26.45
351.458	-4.27
351.669	18.26
351.881	102.23
352.093	32.6
352.305	59.22
352.517	87.89
352.728	40.79
352.94	5.97
353.152	91.99
353.363	69.46
353.575	98.13
353.787	149.33
353.999	3.93
354.21	42.84
354.422	57.17
354.633	38.74
354.845	44.88
355.057	34.64
355.268	42.84
355.48	87.89
355.692	44.88
355.903	-51.37
356.115	28.5
356.326	46.93
356.538	40.79
356.749	-2.22
356.961	116.56
357.172	46.93
357.384	114.52
357.595	65.36
357.807	112.47
358.018	63.32
358.23	69.46
358.441	106.32
358.653	63.32
358.864	-0.17
359.075	42.84
359.287	73.56
359.498	40.79
359.709	38.74
359.921	44.88
360.132	26.45
360.344	22.36
360.555	8.02
360.766	44.88
360.977	26.45
361.189	126.8
361.4	85.84
361.611	40.79
361.823	85.84
362.034	130.9
362.245	38.74
362.456	120.66
362.667	89.94
362.879	42.84
363.09	61.27
363.301	32.6
363.512	20.31
363.723	57.17
363.935	-12.46
364.146	75.6
364.357	112.47
364.568	16.21
364.779	-18.6
364.99	73.56
365.201	-24.75
365.412	38.74
365.623	87.89
365.834	24.4
366.045	87.89
366.256	100.18
366.467	40.79
366.678	8.02
366.889	18.26
367.1	16.21
367.311	46.93
367.522	-4.27
367.733	75.6
367.944	14.17
368.155	48.98
368.366	46.93
368.577	53.08
368.788	175.95
368.999	55.12
369.209	24.4
369.42	149.33
369.631	100.18
369.842	30.55
370.053	63.32
370.264	55.12
370.474	34.64
370.685	3.93
370.896	24.4
371.107	61.27
371.317	65.36
371.528	83.8
371.739	40.79
371.95	-0.17
372.16	83.8
372.371	63.32
372.582	51.03
372.792	59.22
373.003	147.28
373.214	44.88
373.424	65.36
373.635	38.74
373.846	116.56
374.056	-10.41
374.267	69.46
374.477	98.13
374.688	65.36
374.898	180.05
375.109	98.13
375.319	69.46
375.53	69.46
375.74	79.7
375.951	81.75
376.161	61.27
376.372	120.66
376.582	-14.51
376.793	22.36
377.003	-2.22
377.214	75.6
377.424	65.36
377.635	96.08
377.845	3.93
378.055	28.5
378.266	32.6
378.476	32.6
378.686	65.36
378.897	16.21
379.107	51.03
379.317	63.32
379.528	38.74
379.738	28.5
379.948	26.45
380.158	132.95
380.369	48.98
380.579	24.4
380.789	85.84
380.999	65.36
381.21	8.02
381.42	122.71
381.63	65.36
381.84	75.6
382.05	30.55
382.261	-8.36
382.471	18.26
382.681	8.02
382.891	85.84
383.101	83.8
383.311	73.56
383.521	30.55
383.731	46.93
383.941	57.17
384.151	24.4
384.361	100.18
384.571	40.79
384.781	83.8
384.991	96.08
385.201	108.37
385.411	122.71
385.621	65.36
385.831	46.93
386.041	124.76
386.251	30.55
386.461	130.9
386.671	94.04
386.881	63.32
387.091	79.7
387.301	22.36
387.511	53.08
387.72	38.74
387.93	57.17
388.14	53.08
388.35	102.23
388.56	112.47
388.769	73.56
388.979	65.36
389.189	124.76
389.399	48.98
389.609	34.64
389.818	89.94
390.028	75.6
390.238	51.03
390.447	87.89
390.657	87.89
390.867	-34.99
391.076	44.88
391.286	85.84
391.496	104.28
391.705	102.23
391.915	124.76
392.125	110.42
392.334	112.47
392.544	85.84
392.753	102.23
392.963	38.74
393.172	102.23
393.382	63.32
393.591	28.5
393.801	26.45
394.01	126.8
394.22	65.36
394.429	114.52
394.639	83.8
394.848	69.46
395.058	167.76
395.267	122.71
395.477	40.79
395.686	34.64
395.895	102.23
396.105	71.51
396.314	85.84
396.524	126.8
396.733	120.66
396.942	159.57
397.152	186.19
397.361	81.75
397.57	-37.03
397.78	98.13
397.989	120.66
398.198	71.51
398.407	194.39
398.617	104.28
398.826	116.56
399.035	98.13
399.244	120.66
399.453	161.62
399.663	139.09
399.872	190.29
400.081	132.95
400.29	135
400.499	67.41
400.708	147.28
400.917	55.12
401.127	161.62
401.336	106.32
401.545	159.57
401.754	149.33
401.963	163.67
402.172	147.28
402.381	141.14
402.59	139.09
402.799	159.57
403.008	116.56
403.217	137.04
403.426	135
403.635	182.1
403.844	149.33
404.053	143.19
404.262	100.18
404.471	153.43
404.68	194.39
404.888	126.8
405.097	161.62
405.306	204.63
405.515	173.91
405.724	261.97
405.933	169.81
406.142	200.53
406.35	192.34
406.559	229.2
406.768	247.63
406.977	190.29
407.185	178
407.394	200.53
407.603	276.31
407.812	264.02
408.02	302.93
408.229	329.55
408.438	241.49
408.646	233.3
408.855	313.17
409.064	251.73
409.272	345.94
409.481	386.9
409.69	321.36
409.898	323.41
410.107	333.65
410.315	304.98
410.524	337.74
410.733	311.12
410.941	333.65
411.15	358.22
411.358	315.22
411.567	423.76
411.775	462.67
411.984	485.2
412.192	464.72
412.401	462.67
412.609	575.31
412.818	558.92
413.026	497.49
413.234	503.63
413.443	618.32
413.651	571.21
413.86	606.03
414.068	622.41
414.276	681.8
414.485	728.91
414.693	626.51
414.901	847.69
415.11	708.43
415.318	730.95
415.526	790.35
415.734	819.02
415.943	855.88
416.151	880.46
416.359	870.22
416.567	905.03
416.776	982.85
416.984	923.46
417.192	1005.38
417.4	1079.11
417.608	1087.3
417.817	1097.54
418.025	1199.94
418.233	1158.98
418.441	1244.99
418.649	1261.38
418.857	1460.03
419.065	1429.31
419.273	1347.39
419.481	1443.65
419.689	1554.24
419.897	1662.78
420.105	1582.91
420.313	1689.4
420.521	1679.16
420.729	1716.03
420.937	1744.7
421.145	1912.63
421.353	1943.35
421.561	1974.07
421.769	2006.84
421.977	2135.86
422.185	2213.68
422.393	2324.27
422.601	2424.62
422.809	2430.77
423.017	2428.72
423.224	2627.37
423.432	2619.18
423.64	2701.1
423.848	2899.75
424.056	2770.73
424.263	3094.31
424.471	3010.34
424.679	3190.56
424.887	3202.85
425.094	3383.07
425.302	3481.38
425.51	3641.12
425.718	3655.45
425.925	3745.56
426.133	3860.25
426.341	4099.86
426.548	4212.5
426.756	4224.79
426.964	4304.66
427.171	4505.36
427.379	4650.77
427.586	4812.56
427.794	4906.76
428.001	5033.74
428.209	5250.82
428.417	5299.97
428.624	5365.51
428.832	5666.56
429.039	5736.19
429.247	5609.22
429.454	6135.54
429.662	6387.44
429.869	6051.58
430.076	6420.21
430.284	6199.03
430.491	6524.66
430.699	6985.45
430.906	6989.55
431.114	7014.12
431.321	7216.87
431.528	7331.56
431.736	7966.43
431.943	8130.27
432.15	7984.86
432.358	8115.93
432.565	8586.96
432.772	8347.35
432.979	9049.8
433.187	9162.44
433.394	9103.05
433.601	9875.13
433.808	9819.84
434.016	9862.85
434.223	10194.62
434.43	10718.9
434.637	10647.22
434.844	11361.96
435.052	11470.5
435.259	11533.99
435.466	11452.07
435.673	11253.42
435.88	12256.92
436.087	12793.49
436.294	12678.8
436.501	12594.84
436.708	12770.96
436.915	13289.1
437.122	13620.87
437.329	13731.46
437.537	14347.9
437.743	14653.05
437.95	14261.88
438.157	15267.44
438.364	15513.19
438.571	15259.24
438.778	15883.87
438.985	17237.58
439.192	16436.83
439.399	17139.28
439.606	16516.7
439.813	17628.74
440.02	18329.15
440.227	18185.79
440.433	18009.67
440.64	18533.95
440.847	18675.26
441.054	18978.36
441.261	20368.93
441.467	19721.77
441.674	20420.13
441.881	21149.2
442.088	21327.38
442.294	20977.17
442.501	21345.81
442.708	22081.03
442.914	22758.91
443.121	23698.92
443.328	23309.81
443.534	24608.22
443.741	23864.81
443.948	23825.9
444.154	25624.01
444.361	25144.79
444.568	25490.9
444.774	25642.45
444.981	25486.8
445.187	26840.51
445.394	27360.69
445.6	27368.88
445.807	29740.43
446.013	29017.5
446.22	29341.08
446.426	30254.47
446.633	30530.95
446.839	31303.03
447.046	30340.49
447.252	31737.2
447.459	31737.2
447.665	32036.2
447.871	33285.47
448.078	34676.04
448.284	33219.93
448.491	33860.94
448.697	35611.96
448.903	35966.26
449.11	36181.29
449.316	35288.38
449.522	36136.24
449.728	36967.71
449.935	37168.41
450.141	37266.72
450.347	37932.31
450.553	37109.02
450.76	37410.07
450.966	38690.05
451.172	38309.13
451.378	39372.03
451.584	38298.89
451.791	39148.8
451.997	39046.4
452.203	39775.48
452.409	39972.08
452.615	39490.81
452.821	37879.06
453.027	37834
453.233	39890.16
453.44	38075.66
453.646	38413.58
453.852	38825.22
454.058	39632.12
454.264	38315.28
454.47	39220.48
454.676	37760.28
454.882	39830.77
455.088	36017.46
455.294	36478.25
455.5	37158.17
455.705	37551.38
455.911	35706.16
456.117	35325.24
456.323	35155.26
456.529	33066.33
456.735	34256.2
456.941	33680.72
457.147	33158.49
457.352	31978.86
457.558	31599.99
457.764	31628.66
457.97	31010.17
458.176	30682.5
458.381	30879.1
458.587	28947.87
458.793	29177.24
458.999	27356.6
459.204	29592.98
459.41	28683.68
459.616	26998.2
459.821	26475.97
460.027	26480.07
460.233	25927.11
460.438	24751.58
460.644	25060.82
460.85	23596.53
461.055	23447.02
461.261	23600.62
461.466	21915.14
461.672	21327.38
461.878	22486.53
462.083	21077.52
462.289	20917.78
462.494	20389.41
462.7	19535.4
462.905	19252.78
463.111	19854.89
463.316	19942.95
463.522	19416.62
463.727	19330.61
463.932	19328.56
464.138	19428.91
464.343	19095.09
464.549	18683.45
464.754	19306.03
464.959	19258.93
465.165	19138.1
465.37	18120.26
465.575	17884.74
465.781	18703.93
465.986	18609.72
466.191	17907.27
466.397	17428.04
466.602	16752.21
466.807	17077.84
467.012	17229.39
467.218	17272.4
467.423	16887.38
467.628	17108.56
467.833	17950.28
468.038	17135.18
468.244	16383.58
468.449	17264.21
468.654	16780.89
468.859	16639.58
469.064	16594.52
469.269	16090.72
469.474	16088.67
469.679	16563.8
469.885	15916.64
470.09	16098.91
470.295	16008.8
470.5	15992.42
470.705	15814.24
470.91	15310.44
471.115	14900.85
471.32	15488.62
471.525	15412.84
471.73	15105.65
471.935	14890.61
472.139	14503.54
472.344	14655.09
472.549	14538.36
472.754	14263.93
472.959	14386.81
473.164	13377.16
473.369	13565.57
473.574	14188.16
473.778	13874.82
473.983	13629.06
474.188	13661.83
474.393	12967.57
474.598	13244.04
474.802	12940.94
475.007	12899.98
475.212	12992.14
475.417	12496.53
475.621	12598.93
475.826	12603.03
476.031	12195.48
476.235	12117.66
476.44	12306.07
476.645	11810.47
476.849	12160.67
477.054	11951.77
477.259	11605.67
477.463	11722.4
477.668	11396.78
477.872	11620
478.077	11515.56
478.282	11030.19
478.486	10876.59
478.691	10841.78
478.895	11015.85
479.1	10790.58
479.304	10817.2
479.509	10501.81
479.713	10798.77
479.918	10555.06
480.122	10129.08
480.326	10268.34
480.531	10507.96
480.735	10301.11
480.94	10055.36
481.144	10419.89
481.348	10247.86
481.553	10133.18
481.757	9920.19
481.961	10223.29
482.166	10272.44
482.37	10110.65
482.574	9811.65
482.778	10118.84
482.983	10188.47
483.187	10034.88
483.391	10063.55
483.595	9967.29
483.8	9721.54
484.004	10114.75
484.208	9877.18
484.412	9983.68
484.616	9891.52
484.821	10022.59
485.025	9912
485.229	10276.54
485.433	10010.3
485.637	10014.4
485.841	9801.41
486.045	9852.61
486.249	10034.88
486.453	9809.6
486.657	10067.64
486.861	9975.49
487.065	9742.02
487.269	9936.57
487.473	9828.03
487.677	9950.91
487.881	9981.63
488.085	10002.11
488.289	9887.42
488.493	9967.29
488.697	9981.63
488.901	10124.99
489.105	10182.33
489.309	10086.08
489.512	10161.85
489.716	10124.99
489.92	9977.53
490.124	10073.79
490.328	10303.16
490.531	10043.07
490.735	10182.33
490.939	10282.68
491.143	10192.57
491.346	10204.86
491.55	10483.38
491.754	10198.71
491.958	10438.33
492.161	10430.13
492.365	10563.25
492.569	10389.17
492.772	10532.53
492.976	10393.27
493.18	10745.52
493.383	10827.44
493.587	10722.99
493.79	10798.77
493.994	10673.84
494.197	10993.33
494.401	10944.17
494.605	10976.94
494.808	11171.5
495.012	11277.99
495.215	11241.13
495.419	11400.87
495.622	11554.47
495.825	11564.71
496.029	11663.01
496.232	11763.36
496.436	11783.84
496.639	12050.08
496.843	11636.39
497.046	12002.97
497.249	12564.12
497.453	12183.2
497.656	12562.07
497.859	12480.15
498.063	12766.87
498.266	12859.03
498.469	12850.83
498.673	13012.62
498.876	13090.45
499.079	13420.17
499.282	13366.92
499.485	13674.12
499.689	13837.95
499.892	13999.74
500.095	14075.52
500.298	14278.27
500.501	13983.36
500.705	14560.89
500.908	14947.95
501.111	14632.57
501.314	14913.14
501.517	15076.98
501.72	15507.05
501.923	15373.93
502.126	15683.17
502.329	16078.43
502.532	15902.31
502.735	15945.31
502.938	16465.5
503.141	16445.02
503.344	16645.72
503.547	16838.23
503.75	17135.18
503.953	17079.89
504.156	17407.56
504.359	17610.31
504.562	17569.35
504.765	17944.13
504.968	18007.62
505.17	18525.75
505.373	18198.08
505.576	18562.62
505.779	18955.83
505.982	18851.38
506.185	19260.98
506.387	19103.28
506.59	19535.4
506.793	19971.62
506.996	19861.03
507.198	20506.14
507.401	20071.97
507.604	20385.31
507.807	20913.69
508.009	21087.76
508.212	21069.33
508.415	21499.41
508.617	21591.56
508.82	21884.42
509.022	21900.81
509.225	22416.9
509.428	22523.39
509.63	22730.23
509.833	22781.43
510.035	23365.1
510.238	23131.64
510.44	23516.65
510.643	23707.12
510.845	23737.84
511.048	24165.86
511.25	24538.59
511.453	24602.08
511.655	25431.51
511.858	25234.9
512.06	25533.9
512.262	25378.26
512.465	25423.31
512.667	26006.98
512.87	26154.44
513.072	26463.68
513.274	26707.39
513.477	26987.96
513.679	27223.48
513.881	27555.25
514.084	27719.09
514.286	27954.6
514.488	28100.01
514.69	28878.24
514.893	28609.95
515.095	28992.92
515.297	29375.89
515.499	29646.22
515.701	29664.66
515.904	29980.04
516.106	30121.35
516.308	30594.43
516.51	31131
516.712	30721.41
516.914	31331.7
517.116	31612.27
517.318	31581.56
517.52	31817.07
517.722	32154.99
517.925	32468.33
518.127	32750.95
518.329	32826.72
518.531	33109.34
518.733	33688.92
518.935	34186.57
519.136	33697.11
519.338	34366.79
519.54	34602.31
519.742	35009.86
519.944	35011.9
520.146	35493.18
520.348	35685.68
520.55	35466.55
520.752	35706.16
520.954	36617.51
521.155	36560.17
521.357	37031.2
521.559	37326.11
521.761	37897.49
521.963	37627.16
522.164	37563.67
522.366	37934.35
522.568	38511.88
522.77	38860.04
522.971	39267.58
523.173	39156.99
523.375	39316.73
523.576	39507.19
523.778	39525.63
523.98	39722.23
524.181	39929.08
524.383	40131.82
524.584	40846.57
524.786	40578.28
524.988	40563.95
525.189	41135.33
525.391	41475.29
525.592	41391.33
525.794	41764.06
525.995	41942.23
526.197	41813.21
526.398	42020.05
526.6	42259.66
526.801	42392.78
527.003	42478.8
527.204	42628.3
527.406	43214.02
527.607	42941.64
527.808	43746.49
528.01	42573
528.211	43420.86
528.412	44190.9
528.614	43834.55
528.815	43924.66
529.016	44242.1
529.218	43734.2
529.419	44184.76
529.62	44000.44
529.822	44283.06
530.023	44379.31
530.224	44481.71
530.425	44555.44
530.626	44213.43
530.828	44360.88
531.029	45343.91
531.23	44905.64
531.431	44641.45
531.632	45096.1
531.833	44534.96
532.035	44954.79
532.236	45239.46
532.437	45614.24
532.638	45077.67
532.839	45323.43
533.04	45513.89
533.241	44678.32
533.442	45974.68
533.643	45313.19
533.844	45325.47
534.045	45925.53
534.246	45474.98
534.447	45812.89
534.648	45171.88
534.849	45661.34
535.05	45135.01
535.251	45780.12
535.451	45526.17
535.652	45554.85
535.853	46077.08
536.054	45157.54
536.255	45569.18
536.456	45548.7
536.657	46173.33
536.857	45927.58
537.058	45384.86
537.259	45970.58
537.46	45669.53
537.66	45544.61
537.861	45464.74
538.062	45626.53
538.263	46083.22
538.463	45409.44
538.664	45491.36
538.865	45538.46
539.065	46015.64
539.266	45241.51
539.466	46056.6
539.667	45259.94
539.868	46021.78
540.068	45839.51
540.269	45921.43
540.469	45853.85
540.67	45726.88
540.87	45694.11
541.071	45458.59
541.271	45460.64
541.472	45483.17
541.672	45704.35
541.873	45266.08
542.073	45292.71
542.274	45733.02
542.474	45614.24
542.675	45491.36
542.875	45954.2
543.075	45556.89
543.276	45294.75
543.476	45960.34
543.676	45544.61
543.877	46218.39
544.077	45700.25
544.277	45491.36
544.478	45059.24
544.678	45724.83
544.878	45606.05
545.078	45778.07
545.279	45372.58
545.479	45382.82
545.679	45468.83
545.879	45534.37
546.079	45415.58
546.28	44999.85
546.48	45477.02
546.68	45474.98
546.88	45487.26
547.08	45425.82
547.28	45307.04
547.48	44833.96
547.68	45304.99
547.88	44952.74
548.081	45769.88
548.281	45487.26
548.481	45085.86
548.681	45388.96
548.881	45345.95
549.081	45335.71
549.28	45157.54
549.48	45612.19
549.68	44905.64
549.88	45585.57
550.08	45161.64
550.28	45589.66
550.48	44680.36
550.68	45487.26
550.88	44952.74
551.08	45202.6
551.279	45188.26
551.479	45178.02
551.679	45190.31
551.879	45096.1
552.079	45212.84
552.278	45196.45
552.478	45147.3
552.678	45044.9
552.878	45014.18
553.077	45122.72
553.277	44561.58
553.477	45135.01
553.676	44639.4
553.876	45423.78
554.076	44567.73
554.275	44545.2
554.475	44459.18
554.674	44975.27
554.874	44723.37
555.074	44561.58
555.273	44582.06
555.473	44862.63
555.672	43988.15
555.872	44254.39
556.071	44369.07
556.271	44819.63
556.47	43932.85
556.67	43977.91
556.869	44332.21
557.068	44274.87
557.268	44209.33
557.467	44354.74
557.667	44192.95
557.866	44213.43
558.065	43918.52
558.265	43594.94
558.464	43783.35
558.663	44172.47
558.863	43181.25
559.062	44049.59
559.261	43467.97
559.461	43721.91
559.66	43214.02
559.859	43830.46
560.058	43304.13
560.258	43506.88
560.457	43465.92
560.656	43439.29
560.855	43138.24
561.054	43146.43
561.253	42906.82
561.453	43005.13
561.652	43623.61
561.851	43572.41
562.05	42886.34
562.249	42505.42
562.448	42970.31
562.647	42853.58
562.846	42409.17
563.045	42706.12
563.244	41999.57
563.443	42577.1
563.642	42181.84
563.841	42407.12
564.04	42112.21
564.239	42689.74
564.438	41964.76
564.637	42142.93
564.836	41837.78
565.035	41716.95
565.234	41868.5
565.432	41485.53
565.631	41338.08
565.83	41917.65
566.029	41438.43
566.228	41178.34
566.427	41362.65
566.625	40989.92
566.824	40815.85
567.023	41288.93
567.222	40361.2
567.42	41284.83
567.619	40588.52
567.818	40709.35
568.016	40408.3
568.215	40645.87
568.414	40647.91
568.612	40926.44
568.811	40262.89
569.01	40465.64
569.208	39775.48
569.407	40336.62
569.605	39769.33
569.804	40289.52
570.002	40008.95
570.201	39732.47
570.4	39726.33
570.598	39486.71
570.797	39333.12
570.995	39077.12
571.193	39384.32
571.392	39218.43
571.59	38987.01
571.789	39269.63
571.987	38743.3
572.186	38860.04
572.384	38616.33
572.582	38491.4
572.781	38753.54
572.979	38251.79
573.177	38575.37
573.376	38374.67
573.574	38114.58
573.772	38354.19
573.971	37688.6
574.169	38001.94
574.367	37639.45
574.565	37969.17
574.763	37668.12
574.962	37352.73
575.16	36916.51
575.358	37436.7
575.556	36658.47
575.754	37254.43
575.952	36496.68
576.151	36932.9
576.349	36676.9
576.547	36570.41
576.745	36646.18
576.943	36592.93
577.141	36451.63
577.339	36406.57
577.537	36513.06
577.735	36685.09
577.933	36076.85
578.131	36361.51
578.329	35851.57
578.527	35812.66
578.725	36185.39
578.923	35706.16
579.121	35648.82
579.319	35403.07
579.516	35771.7
579.714	35349.82
579.912	35145.02
580.11	35067.2
580.308	35333.43
580.506	35263.8
580.704	34534.73
580.901	34979.14
581.099	35317.05
581.297	34311.5
581.495	34510.15
581.692	34561.35
581.89	34178.38
582.088	34983.23
582.285	34506.05
582.483	34309.45
582.681	34538.82
582.878	34219.34
583.076	33918.29
583.274	34168.14
583.471	33588.56
583.669	33813.84
583.866	33674.58
584.064	33518.93
584.262	33189.21
584.459	33439.06
584.657	33031.52
584.854	33299.8
585.052	32941.41
585.249	33260.89
585.447	33164.64
585.644	32519.53
585.841	33289.56
586.039	32992.61
586.236	32380.26
586.434	32277.86
586.631	32130.41
586.828	32226.67
587.026	32343.4
587.223	32408.93
587.42	31933.81
587.618	32355.69
587.815	31741.3
588.012	31524.21
588.21	31604.08
588.407	32044.4
588.604	31552.88
588.801	31219.06
588.999	31217.02
589.196	31075.71
589.393	31036.8
589.59	30911.87
589.787	30815.62
589.984	30924.16
590.182	30727.55
590.379	30829.95
590.576	30666.11
590.773	30651.78
590.97	30410.12
591.167	30567.81
591.364	30127.5
591.561	30223.75
591.758	29695.38
591.955	29922.7
592.152	30129.55
592.349	29631.89
592.546	30133.64
592.743	29568.4
592.94	29234.58
593.137	29963.66
593.334	29418.9
593.531	29072.79
593.727	29171.1
593.924	29296.02
594.121	29064.6
594.318	29384.08
594.515	28767.65
594.712	29191.58
594.908	28657.06
595.105	28843.42
595.302	28382.63
595.499	28607.9
595.696	28468.64
595.892	28433.83
596.089	28362.15
596.286	28104.1
596.482	28175.78
596.679	28134.82
596.876	27954.6
597.072	27809.2
597.269	27719.09
597.466	27555.25
597.662	27643.31
597.859	27639.22
598.055	27884.97
598.252	27286.96
598.448	27436.47
598.645	26977.72
598.841	27149.75
599.038	27104.7
599.234	27006.39
599.431	26658.24
599.627	26600.9
599.824	26922.43
600.02	26539.46
600.217	26580.42
600.413	26594.75
600.609	26660.29
600.806	26420.67
601.002	26392
601.198	25931.21
601.395	25880.01
601.591	26045.9
601.787	26027.46
601.984	25400.79
602.18	26351.04
602.376	25763.28
602.572	25505.23
602.769	25707.98
602.965	25273.81
603.161	25523.66
603.357	25372.11
603.553	25183.7
603.75	25202.13
603.946	25208.28
604.142	25578.96
604.338	24997.34
604.534	25116.12
604.73	24600.03
604.926	24337.89
605.122	24978.9
605.318	24772.06
605.514	24563.17
605.71	24397.28
605.906	24438.24
606.102	24163.81
606.298	24313.31
606.494	24133.09
606.69	24098.28
606.886	24159.72
607.082	23524.85
607.278	24129
607.474	23469.55
607.67	24069.61
607.866	23471.6
608.062	23850.47
608.257	23492.08
608.453	23762.41
608.649	23498.22
608.845	23487.98
609.041	23408.11
609.236	23344.63
609.432	23119.35
609.628	23272.95
609.824	22896.12
610.019	23305.71
610.215	23047.67
610.411	23528.94
610.606	22828.54
610.802	22941.18
610.998	22588.92
611.193	22930.94
611.389	22339.07
611.584	22869.5
611.78	22636.03
611.976	22605.31
612.171	22652.41
612.367	22738.43
612.562	22539.77
612.758	22394.37
612.953	22195.71
613.149	22601.21
613.344	22238.72
613.539	22423.04
613.735	22314.5
613.93	22531.58
614.126	22162.95
614.321	22384.13
614.517	22273.54
614.712	21870.09
614.907	22011.4
615.103	21841.42
615.298	21927.43
615.493	22011.4
615.688	21558.8
615.884	22240.77
616.079	21599.76
616.274	21667.34
616.47	21513.74
616.665	21841.42
616.86	21466.64
617.055	21345.81
617.25	21341.71
617.445	21573.13
617.641	21067.28
617.836	21149.2
618.031	21079.57
618.226	21374.48
618.421	21067.28
618.616	21134.87
618.811	20911.64
619.006	21073.43
619.201	20524.57
619.396	20753.94
619.591	20411.93
619.786	20647.45
619.981	20231.71
620.176	20467.23
620.371	20411.93
620.566	20338.21
620.761	19830.31
620.956	20250.14
621.151	19768.87
621.346	20016.68
621.541	19617.32
621.735	19949.09
621.93	19492.4
622.125	19473.96
622.32	19488.3
622.515	19469.87
622.709	19181.1
622.904	19246.64
623.099	19088.95
623.294	19201.58
623.488	18898.48
623.683	18910.77
623.878	18376.25
624.072	18361.92
624.267	18515.51
624.462	18404.92
624.656	18355.77
624.851	18447.93
625.046	18011.71
625.24	17919.56
625.435	17950.28
625.629	17804.87
625.824	17585.74
626.018	17669.7
626.213	17288.78
626.407	17532.49
626.602	17108.56
626.796	17014.35
626.991	17213.01
627.185	17143.38
627.38	17213.01
627.574	16668.25
627.768	16887.38
627.963	16778.84
628.157	16539.22
628.352	16514.65
628.546	16223.84
628.74	16756.31
628.935	16156.25
629.129	16320.09
629.323	16029.28
629.517	16186.97
629.712	15933.03
629.906	15844.96
630.1	15722.09
630.294	15615.59
630.489	15595.11
630.683	15740.52
630.877	15269.48
631.071	15640.17
631.265	15312.49
631.459	15122.03
631.653	15015.54
631.848	15083.12
632.042	14954.1
632.236	14863.99
632.43	14861.94
632.624	14734.96
632.818	14386.81
633.012	14425.72
633.206	14511.74
633.4	14562.94
633.594	14276.22
633.788	14464.63
633.982	14200.44
634.176	14091.9
634.369	14294.65
634.563	14016.13
634.757	14179.96
634.951	13938.3
635.145	13829.76
635.339	13747.84
635.533	13680.26
635.726	13518.47
635.92	13371.02
636.114	13379.21
636.308	13426.31
636.501	13430.41
636.695	13295.24
636.889	13090.45
637.083	13078.16
637.276	13016.72
637.47	12994.19
637.664	12852.88
637.857	12846.74
638.051	12768.91
638.244	12666.52
638.438	12598.93
638.632	12467.86
638.825	12398.23
639.019	12340.89
639.212	12191.39
639.406	12277.4
639.599	12308.12
639.793	12437.14
639.986	12007.07
640.18	12252.83
640.373	12041.89
640.567	11945.63
640.76	11738.79
640.954	11638.44
641.147	11757.22
641.34	11609.76
641.534	11499.17
641.727	11568.8
641.92	11507.37
642.114	11359.91
642.307	11374.25
642.5	11325.1
642.694	11214.51
642.887	11069.1
643.08	11040.43
643.273	11407.02
643.467	11062.96
643.66	10942.13
643.853	10913.45
644.046	10761.91
644.239	11019.95
644.432	10741.43
644.626	10743.47
644.819	10383.03
645.012	10497.72
645.205	10464.95
645.398	10391.22
645.591	10290.87
645.784	10352.31
645.977	10190.52
646.17	10049.21
646.363	10061.5
646.556	10071.74
646.749	10010.3
646.942	10024.64
647.135	10006.2
647.328	9930.43
647.521	9770.69
647.714	9649.86
647.907	9729.73
648.099	9711.3
648.292	9688.77
648.485	9735.87
648.678	9492.16
648.871	9297.61
649.064	9283.27
649.256	9371.33
649.449	9176.78
649.642	9258.7
649.835	9221.83
650.027	9154.25
650.22	9066.19
650.413	9117.39
650.605	9053.9
650.798	8959.69
650.991	8736.46
651.183	8849.1
651.376	8849.1
651.568	8685.26
651.761	8845.01
651.954	8738.51
652.146	8515.28
652.339	8564.43
652.531	8597.2
652.724	8546
652.916	8398.55
653.109	8361.69
653.301	8324.82
653.494	8412.88
653.686	8134.36
653.879	8328.92
654.071	8109.79
654.263	8087.26
654.456	8052.44
654.648	8054.49
654.84	8044.25
655.033	8165.08
655.225	8097.5
655.417	8034.01
655.61	7810.78
655.802	7833.31
655.994	7681.76
656.186	7745.25
656.379	7732.96
656.571	7800.54
656.763	7583.46
656.955	7634.66
657.148	7679.71
657.34	7614.18
657.532	7593.7
657.724	7515.87
657.916	7476.96
658.108	7335.65
658.3	7413.48
658.492	7415.52
658.684	7159.53
658.876	7376.61
659.068	7223.02
659.26	7177.96
659.452	7120.62
659.644	7132.9
659.836	6872.81
660.028	7024.36
660.22	6854.38
660.412	6956.78
660.604	6883.05
660.796	6936.3
660.988	6833.9
661.18	6688.5
661.372	6715.12
661.563	6751.98
661.755	6663.92
661.947	6663.92
662.139	6633.2
662.331	6706.93
662.522	6653.68
662.714	6299.38
662.906	6459.12
663.097	6379.25
663.289	6287.09
663.481	6326
663.673	6346.48
663.864	6278.9
664.056	6354.68
664.247	6326
664.439	6096.63
664.631	6174.46
664.822	6108.92
665.014	6141.69
665.205	6201.08
665.397	5994.23
665.588	5983.99
665.78	6065.91
665.971	5990.14
666.163	5922.55
666.354	5940.99
666.546	5908.22
666.737	5986.04
666.929	5910.27
667.12	5920.51
667.311	5926.65
667.503	5625.6
667.694	5691.13
667.885	5740.29
668.077	5648.13
668.268	5521.15
668.459	5781.25
668.651	5482.24
668.842	5541.63
669.033	5570.3
669.224	5512.96
669.416	5488.39
669.607	5543.68
669.798	5529.34
669.989	5402.37
670.18	5367.56
670.371	5396.23
670.563	5347.08
670.754	5383.94
670.945	5431.04
671.136	5365.51
671.327	5142.28
671.518	5390.08
671.709	5162.76
671.9	5216.01
672.091	5256.97
672.282	5226.25
672.473	5216.01
672.664	5066.5
672.855	5203.72
673.046	5060.36
673.237	5177.09
673.428	5082.89
673.619	4955.91
673.809	5035.78
674	4984.59
674.191	5066.5
674.382	5039.88
674.573	4902.67
674.764	4888.33
674.954	4925.19
675.145	4890.38
675.336	4863.76
675.527	4802.32
675.717	4953.87
675.908	4937.48
676.099	4894.47
676.289	4753.16
676.48	4638.48
676.671	4757.26
676.861	4923.15
677.052	4775.69
677.243	4787.98
677.433	4675.34
677.624	4634.38
677.814	4779.79
678.005	4796.17
678.195	4710.16
678.386	4632.33
678.576	4558.61
678.767	4540.18
678.957	4513.55
679.148	4570.9
679.338	4708.11
679.529	4597.52
679.719	4618
679.909	4566.8
680.1	4544.27
680.29	4542.22
680.481	4470.55
680.671	4536.08
680.861	4611.85
681.052	4529.94
681.242	4472.59
681.432	4710.16
681.622	4380.43
681.813	4454.16
682.003	4402.96
682.193	4431.63
682.383	4435.73
682.573	4337.43
682.764	4206.36
682.954	4378.39
683.144	4398.87
683.334	4312.85
683.524	4456.21
683.714	4433.68
683.904	4280.08
684.094	4359.95
684.284	4302.61
684.474	4224.79
684.664	4286.23
684.854	4251.41
685.044	4136.73
685.234	4273.94
685.424	4175.64
685.614	4232.98
685.804	4183.83
685.994	4128.53
686.184	4179.73
686.374	4269.84
686.564	4235.03
686.753	4210.45
686.943	3987.22
687.133	4142.87
687.323	4101.91
687.513	4108.05
687.702	4058.9
687.892	3931.93
688.082	4026.14
688.272	4030.23
688.461	3841.82
688.651	4013.85
688.841	3815.2
689.03	4019.99
689.22	3999.51
689.41	3827.48
689.599	3882.78
689.789	3929.88
689.979	4013.85
690.168	3862.3
690.358	3768.09
690.547	3737.37
690.737	3657.5
690.926	3835.67
691.116	3792.67
691.305	3731.23
691.495	3682.08
691.684	3569.44
691.874	3653.41
692.063	3739.42
692.252	3690.27
692.442	3663.65
692.631	3749.66
692.82	3620.64
693.01	3723.04
693.199	3649.31
693.388	3626.78
693.578	3434.27
693.767	3628.83
693.956	3612.45
694.146	3522.34
694.335	3487.52
694.524	3372.83
694.713	3485.47
694.902	3585.82
695.092	3407.65
695.281	3600.16
695.47	3411.75
695.659	3409.7
695.848	3495.71
696.037	3411.75
696.226	3555.1
696.415	3436.32
696.604	3548.96
696.793	3479.33
696.982	3344.16
697.171	3397.41
697.36	3399.46
697.549	3344.16
697.738	3319.59
697.927	3378.98
698.116	3395.36
698.305	3426.08
698.494	3299.11
698.683	3370.79
698.872	3317.54
699.061	3305.25
699.25	3278.63
699.438	3340.07
699.627	3313.44
699.816	3340.07
700.005	3249.96
700.193	3217.19
700.382	3233.57
700.571	3329.83
700.76	3131.17
700.948	3454.75
701.137	3137.32
701.326	3100.45
701.514	3233.57
701.703	3245.86
701.892	3335.97
702.08	3243.81
702.269	3122.98
702.457	3180.32
702.646	3125.03
702.834	3073.83
703.023	3280.68
703.212	3161.89
703.4	3157.8
703.589	3073.83
703.777	3114.79
703.965	3155.75
704.154	3051.3
704.342	3155.75
704.531	3186.47
704.719	3045.16
704.907	3376.93
705.096	3243.81
705.284	3131.17
705.472	3129.13
705.661	3104.55
705.849	3082.02
706.037	3165.99
706.226	3135.27
706.414	3120.93
706.602	3307.3
706.79	3100.45
706.979	3069.73
707.167	3075.88
707.355	3043.11
707.543	3200.8
707.731	3161.89
707.919	3133.22
708.107	3114.79
708.296	3106.6
708.484	3069.73
708.672	3202.85
708.86	3125.03
709.048	3125.03
709.236	3295.01
709.424	3120.93
709.612	3075.88
709.8	3137.32
709.988	3094.31
710.176	3168.04
710.364	3096.36
710.551	3028.78
710.739	3079.97
710.927	2998.06
711.115	3131.17
711.303	3186.47
711.491	3102.5
711.679	3165.99
711.866	3084.07
712.054	3161.89
712.242	3055.4
712.43	3096.36
712.617	3088.17
712.805	3112.74
712.993	3079.97
713.181	3014.44
713.368	3215.14
713.556	3122.98
713.744	2973.48
713.931	3116.84
714.119	3104.55
714.306	3022.63
714.494	3000.1
714.682	3051.3
714.869	3094.31
715.057	2969.38
715.244	3094.31
715.432	3100.45
715.619	3084.07
715.807	2993.96
715.994	3116.84
716.182	3026.73
716.369	3088.17
716.556	3012.39
716.744	3065.64
716.931	3108.65
717.119	3151.65
717.306	3075.88
717.493	3079.97
717.681	3151.65
717.868	2932.52
718.055	3079.97
718.242	3168.04
718.43	3118.89
718.617	3077.93
718.804	3086.12
718.991	3043.11
719.179	3059.49
719.366	3063.59
719.553	3063.59
719.74	3036.97
719.927	3141.41
720.114	3061.54
720.301	3045.16
720.488	2924.33
720.676	3030.82
720.863	2973.48
721.05	3049.25
721.237	2971.43
721.424	3104.55
721.611	3063.59
721.798	3106.6
721.985	3010.34
722.172	3008.3
722.358	3053.35
722.545	2981.67
722.732	2938.66
722.919	3041.06
723.106	2928.42
723.293	2987.82
723.48	2996.01
723.667	3006.25
723.853	3034.92
724.04	3026.73
724.227	3000.1
724.414	3077.93
724.6	3034.92
724.787	2975.53
724.974	3063.59
725.161	2897.71
725.347	2901.8
725.534	3239.72
725.72	3071.78
725.907	3075.88
726.094	3137.32
726.28	3010.34
726.467	2901.8
726.653	2993.96
726.84	3016.49
727.027	3063.59
727.213	2965.29
727.4	2959.14
727.586	3096.36
727.773	2957.1
727.959	3000.1
728.145	2873.13
728.332	2848.55
728.518	2932.52
728.705	3100.45
728.891	2944.81
729.077	2803.5
729.264	3016.49
729.45	2805.55
729.636	2885.42
729.823	2942.76
730.009	2985.77
730.195	2789.16
730.382	3004.2
730.568	3041.06
730.754	2959.14
730.94	2922.28
731.126	3006.25
731.313	2903.85
731.499	2969.38
731.685	2967.34
731.871	2832.17
732.057	3002.15
732.243	2983.72
732.429	2875.18
732.615	2953
732.801	2959.14
732.987	2959.14
733.173	3014.44
733.359	2860.84
733.545	2920.23
733.731	2961.19
733.917	2918.18
734.103	2893.61
734.289	2879.27
734.475	2914.09
734.661	2981.67
734.847	2989.86
735.033	2926.38
735.219	2930.47
735.404	2959.14
735.59	2838.31
735.776	2799.4
735.962	2985.77
736.148	2871.08
736.333	2844.46
736.519	2928.42
736.705	2815.79
736.89	2862.89
737.076	2977.58
737.262	2744.11
737.447	2805.55
737.633	2848.55
737.819	2727.72
738.004	2752.3
738.19	2901.8
738.375	2735.92
738.561	2907.94
738.747	2830.12
738.932	2744.11
739.118	2977.58
739.303	2762.54
739.489	2801.45
739.674	2815.79
739.859	2811.69
740.045	2721.58
740.23	2701.1
740.416	2658.09
740.601	2821.93
740.786	2752.3
740.972	2697
741.157	2731.82
741.342	2649.9
741.528	2649.9
741.713	2776.87
741.898	2598.7
742.084	2617.13
742.269	2715.44
742.454	2647.85
742.639	2561.84
742.824	2539.31
743.01	2604.85
743.195	2711.34
743.38	2619.18
743.565	2639.66
743.75	2561.84
743.935	2561.84
744.12	2613.04
744.305	2531.12
744.49	2488.11
744.675	2408.24
744.86	2461.49
745.045	2449.2
745.23	2418.48
745.415	2350.9
745.6	2494.26
745.785	2346.8
745.97	2402.1
746.155	2402.1
746.34	2412.34
746.525	2481.97
746.71	2387.76
746.895	2369.33
747.079	2348.85
747.264	2342.71
747.449	2301.75
747.634	2322.23
747.819	2385.71
748.003	2248.5
748.188	2293.55
748.373	2240.31
748.557	2260.79
748.742	2127.67
748.927	2094.9
749.111	2215.73
749.296	2176.82
749.481	2185.01
749.665	2162.48
749.85	2137.91
750.034	2066.23
750.219	2113.33
750.404	2105.14
750.588	2164.53
750.773	1900.34
750.957	2142
751.141	1982.26
751.326	2096.95
751.51	2080.57
751.695	2035.51
751.879	2027.32
752.064	2064.18
752.248	1937.21
752.432	1916.73
752.617	1904.44
752.801	1961.78
752.985	2006.84
753.17	1945.4
753.354	1875.77
753.538	1879.86
753.722	1849.15
753.907	1832.76
754.091	1638.2
754.275	1797.95
754.459	1761.08
754.643	1748.79
754.828	1781.56
755.012	1781.56
755.196	1722.17
755.38	1738.55
755.564	1625.92
755.748	1660.73
755.932	1656.64
756.116	1638.2
756.3	1707.84
756.484	1673.02
756.668	1683.26
756.852	1599.29
757.036	1732.41
757.22	1611.58
757.404	1695.55
757.588	1472.32
757.772	1656.64
757.956	1619.77
758.14	1673.02
758.323	1546.05
758.507	1492.8
758.691	1550.14
758.875	1599.29
759.059	1574.72
759.242	1539.9
759.426	1466.17
759.61	1482.56
759.794	1480.51
759.977	1396.54
760.161	1472.32
760.345	1476.41
760.528	1523.52
760.712	1468.22
760.895	1460.03
761.079	1376.06
761.263	1281.86
761.446	1347.39
761.63	1273.67
761.813	1462.08
761.997	1421.12
762.18	1288
762.364	1308.48
762.547	1322.82
762.731	1374.02
762.914	1306.43
763.098	1261.38
763.281	1273.67
763.464	1265.47
763.648	1269.57
763.831	1292.1
764.015	1285.95
764.198	1328.96
764.381	1302.34
764.564	1257.28
764.748	1312.58
764.931	1369.92
765.114	1238.85
765.297	1230.66
765.481	1304.39
765.664	1232.71
765.847	1244.99
766.03	1216.32
766.213	1124.16
766.397	1302.34
766.58	1244.99
766.763	1138.5
766.946	1175.36
767.129	1214.27
767.312	1230.66
767.495	1066.82
767.678	1146.69
767.861	1257.28
768.044	1191.75
768.227	1165.12
768.41	1156.93
768.593	1197.89
768.776	1152.84
768.959	1064.77
769.142	1163.08
769.324	1099.59
769.507	1062.73
769.69	1036.1
769.873	1105.73
770.056	1122.12
770.239	956.23
770.421	1103.68
770.604	1122.12
770.787	1115.97
770.97	1087.3
771.152	1075.01
771.335	1064.77
771.518	1005.38
771.7	1105.73
771.883	1120.07
772.066	1009.48
772.248	1089.35
772.431	1070.92
772.613	1081.16
772.796	1072.96
772.978	966.47
773.161	1013.57
773.343	991.05
773.526	968.52
773.708	859.98
773.891	927.56
774.073	972.61
774.256	939.85
774.438	993.09
774.621	851.78
774.803	923.46
774.985	911.18
775.168	933.7
775.35	919.37
775.532	909.13
775.715	966.47
775.897	941.89
776.079	847.69
776.261	835.4
776.444	958.28
776.626	948.04
776.808	798.54
776.99	880.46
777.173	933.7
777.355	878.41
777.537	843.59
777.719	845.64
777.901	851.78
778.083	796.49
778.265	790.35
778.447	767.82
778.629	800.59
778.811	808.78
778.993	718.67
779.175	798.54
779.357	724.81
779.539	696.14
779.721	798.54
779.903	704.33
780.085	780.11
780.267	782.15
780.449	827.21
780.631	683.85
780.812	778.06
780.994	771.91
781.176	708.43
781.358	706.38
781.54	689.99
781.721	698.19
781.903	700.23
782.085	659.28
782.267	673.61
782.448	651.08
782.63	753.48
782.812	620.36
782.993	632.65
783.175	646.99
783.357	567.12
783.538	630.6
783.72	620.36
783.901	624.46
784.083	550.73
784.264	546.64
784.446	610.12
784.627	667.47
784.809	565.07
784.99	507.73
785.172	620.36
785.353	563.02
785.535	563.02
785.716	589.64
785.897	540.49
786.079	563.02
786.26	560.97
786.441	595.79
786.623	495.44
786.804	497.49
786.985	548.68
787.167	667.47
787.348	548.68
787.529	526.16
787.71	489.29
787.891	468.81
788.073	505.68
788.254	520.01
788.435	546.64
788.616	548.68
788.797	546.64
788.978	423.76
789.159	460.62
789.34	544.59
789.522	456.53
789.703	466.77
789.884	448.33
790.065	423.76
790.246	472.91
790.427	364.37
790.607	452.43
790.788	474.96
790.969	458.57
791.15	474.96
791.331	378.7
791.512	503.63
791.693	370.51
791.874	462.67
792.054	427.85
792.235	401.23
792.416	526.16
792.597	409.42
792.778	446.29
792.958	409.42
793.139	440.14
793.32	374.61
793.5	393.04
793.681	462.67
793.862	407.38
794.042	390.99
794.223	296.78
794.404	403.28
794.584	294.74
794.765	421.71
794.945	399.18
795.126	366.42
795.306	372.56
795.487	382.8
795.667	401.23
795.848	307.02
796.028	397.14
796.209	331.6
796.389	397.14
796.57	343.89
796.75	278.35
796.93	296.78
797.111	311.12
797.291	364.37
797.471	397.14
797.652	347.98
797.832	300.88
798.012	370.51
798.192	319.31
798.373	286.54
798.553	311.12
798.733	362.32
798.913	300.88
799.093	321.36
799.274	368.46
799.454	321.36
799.634	393.04
799.814	329.55
799.994	302.93
800.174	237.39
800.354	282.45
800.534	257.87
800.714	292.69
800.894	272.21
801.074	251.73
801.254	319.31
801.434	321.36
801.614	290.64
801.794	227.15
801.974	735.05
802.154	321.36
802.334	311.12
802.514	233.3
802.693	309.07
802.873	266.07
803.053	309.07
803.233	311.12
803.413	259.92
803.592	364.37
803.772	280.4
803.952	225.11
804.131	284.5
804.311	313.17
804.491	298.83
804.67	194.39
804.85	282.45
805.03	337.74
805.209	339.79
805.389	218.96
805.568	261.97
805.748	206.67
805.928	255.83
806.107	202.58
806.287	255.83
806.466	253.78
806.646	278.35
806.825	264.02
807.004	288.59
807.184	237.39
807.363	227.15
807.543	245.59
807.722	196.43
807.901	221.01
808.081	294.74
808.26	157.52
808.439	198.48
808.619	153.43
808.798	227.15
808.977	243.54
809.156	214.87
809.336	266.07
809.515	241.49
809.694	194.39
809.873	167.76
810.052	210.77
810.231	282.45
810.411	200.53
810.59	343.89
810.769	233.3
810.948	302.93
811.127	130.9
811.306	196.43
811.485	196.43
811.664	270.16
811.843	188.24
812.022	241.49
812.201	167.76
812.38	278.35
812.559	180.05
812.737	128.85
812.916	171.86
813.095	128.85
813.274	192.34
813.453	178
813.632	190.29
813.811	247.63
813.989	167.76
814.168	221.01
814.347	81.75
814.526	180.05
814.704	194.39
814.883	319.31
815.062	214.87
815.24	157.52
815.419	180.05
815.598	112.47
815.776	167.76
815.955	175.95
816.133	132.95
816.312	157.52
816.49	175.95
816.669	137.04
816.847	173.91
817.026	225.11
817.204	77.65
817.383	135
817.561	108.37
817.74	184.15
817.918	110.42
818.097	155.47
818.275	169.81
818.453	143.19
818.632	192.34
818.81	165.71
818.988	116.56
819.167	153.43
819.345	192.34
819.523	171.86
819.701	178
819.879	194.39
820.058	169.81
820.236	163.67
820.414	180.05
820.592	173.91
820.77	114.52
820.948	122.71
821.127	116.56
821.305	118.61
821.483	118.61
821.661	130.9
821.839	104.28
822.017	128.85
822.195	85.84
822.373	147.28
822.551	147.28
822.729	188.24
822.907	178
823.085	104.28
823.262	118.61
823.44	132.95
823.618	161.62
823.796	163.67
823.974	85.84
824.152	106.32
824.329	112.47
824.507	122.71
824.685	208.72
824.863	118.61
825.04	48.98
825.218	122.71
825.396	130.9
825.574	180.05
825.751	151.38
825.929	128.85
826.107	116.56
826.284	104.28
826.462	55.12
826.639	141.14
826.817	106.32
826.994	116.56
827.172	87.89
827.349	245.59
827.527	159.57
827.704	104.28
827.882	120.66
828.059	120.66
828.237	116.56
828.414	116.56
828.591	180.05
828.769	79.7
828.946	130.9
829.124	91.99
829.301	108.37
829.478	120.66
829.655	116.56
829.833	55.12
830.01	106.32
830.187	145.24
830.364	153.43
830.542	120.66
830.719	102.23
830.896	132.95
831.073	122.71
831.25	73.56
831.427	141.14
831.604	151.38
831.782	63.32
831.959	155.47
832.136	137.04
832.313	108.37
832.49	161.62
832.667	104.28
832.844	102.23
833.021	157.52
833.198	114.52
833.374	120.66
833.551	126.8
833.728	120.66
833.905	102.23
834.082	102.23
834.259	57.17
834.436	112.47
834.612	91.99
834.789	126.8
834.966	102.23
835.143	130.9
835.319	135
835.496	83.8
835.673	151.38
835.85	69.46
836.026	96.08
836.203	165.71
836.38	42.84
836.556	106.32
836.733	53.08
836.909	122.71
837.086	79.7
837.262	79.7
837.439	130.9
837.616	102.23
837.792	89.94
837.968	118.61
838.145	44.88
838.321	65.36
838.498	120.66
838.674	120.66
838.851	128.85
839.027	130.9
839.203	48.98
839.38	87.89
839.556	81.75
839.732	85.84
839.909	108.37
840.085	48.98
840.261	85.84
840.437	96.08
840.614	63.32
840.79	83.8
840.966	57.17
841.142	128.85
841.318	89.94
841.494	87.89
841.671	44.88
841.847	-8.36
842.023	85.84
842.199	110.42
842.375	83.8
842.551	1.88
842.727	116.56
842.903	110.42
843.079	24.4
843.255	91.99
843.431	75.6
843.607	102.23
843.783	61.27
843.959	61.27
844.134	114.52
844.31	67.41
844.486	57.17
844.662	-37.03
844.838	44.88
845.013	94.04
845.189	128.85
845.365	81.75
845.541	48.98
845.716	14.17
845.892	149.33
846.068	48.98
846.244	77.65
846.419	67.41
846.595	110.42
846.77	96.08
846.946	69.46
847.122	-43.18
847.297	102.23
847.473	91.99
847.648	85.84
847.824	118.61
847.999	10.07
848.175	112.47
848.35	81.75
848.526	155.47
848.701	71.51
848.876	42.84
849.052	151.38
849.227	83.8
849.403	46.93
849.578	16.21
849.753	34.64
849.929	42.84
850.104	122.71
850.279	114.52
850.454	53.08
850.63	61.27
850.805	18.26
850.98	120.66
851.155	3.93
851.33	77.65
851.505	-49.32
851.681	114.52
851.856	69.46
852.031	40.79
852.206	32.6
852.381	-12.46
852.556	108.37
852.731	94.04
852.906	118.61
853.081	48.98
853.256	28.5
853.431	18.26
853.606	85.84
853.781	85.84
853.956	26.45
854.131	108.37
854.305	38.74
854.48	-41.13
854.655	57.17
854.83	24.4
855.005	44.88
855.18	71.51
855.354	69.46
855.529	81.75
855.704	22.36
855.879	26.45
856.053	94.04
856.228	32.6
856.403	18.26
856.577	42.84
856.752	38.74
856.926	10.07
857.101	102.23
857.276	61.27
857.45	73.56
857.625	77.65
857.799	40.79
857.974	10.07
858.148	98.13
858.323	44.88
858.497	1.88
858.672	102.23
858.846	75.6
859.02	96.08
859.195	40.79
859.369	94.04
859.543	55.12
859.718	46.93
859.892	-8.36
860.066	59.22
860.241	-49.32
860.415	-53.42
860.589	20.31
860.763	-6.31
860.938	-4.27
861.112	87.89
861.286	32.6
861.46	102.23
861.634	38.74
861.808	44.88
861.982	65.36
862.157	-34.99
862.331	12.12
862.505	20.31
862.679	-49.32
862.853	36.69
863.027	51.03
863.201	61.27
863.375	61.27
863.549	71.51
863.722	83.8
863.896	85.84
864.07	10.07
864.244	5.97
864.418	65.36
864.592	48.98
864.766	8.02
864.939	1.88
865.113	53.08
865.287	8.02
865.461	-4.27
865.634	108.37
865.808	26.45
865.982	-39.08
866.156	-4.27
866.329	48.98
866.503	32.6
866.676	44.88
866.85	-22.7
867.024	46.93
867.197	57.17
867.371	8.02
867.544	22.36
867.718	16.21
867.891	48.98
868.065	36.69
868.238	44.88
868.412	-0.17
868.585	44.88
868.759	-4.27
868.932	20.31
869.105	16.21
869.279	102.23
869.452	8.02
869.625	-20.65
869.799	73.56
869.972	53.08
870.145	44.88
870.319	18.26
870.492	10.07
870.665	55.12
870.838	-16.55
871.011	-34.99
871.185	55.12
871.358	87.89
871.531	22.36
871.704	1.88
871.877	14.17
872.05	-26.79
872.223	-14.51
872.396	40.79
872.569	14.17
872.742	-22.7
872.915	18.26
873.088	48.98
873.261	5.97
873.434	-6.31
873.607	42.84
873.78	75.6
873.953	-41.13
874.126	85.84
874.299	-16.55
874.471	30.55
874.644	32.6
874.817	63.32
874.99	106.32
875.163	57.17
875.335	51.03
875.508	59.22
875.681	20.31
875.853	51.03
876.026	87.89
876.199	44.88
876.371	30.55
876.544	40.79
876.717	26.45
876.889	30.55
877.062	10.07
877.234	14.17
877.407	42.84
877.579	132.95
877.752	26.45
877.924	-47.27
878.097	106.32
878.269	-0.17
878.442	63.32
878.614	53.08
878.786	75.6
878.959	34.64
879.131	14.17
879.303	44.88
879.476	22.36
879.648	3.93
879.82	81.75
879.993	-71.85
880.165	32.6
880.337	-18.6
880.509	61.27
880.681	14.17
880.854	10.07
881.026	46.93
881.198	65.36
881.37	96.08
881.542	3.93
881.714	83.8
881.886	34.64
882.058	-32.94
882.23	16.21
882.402	30.55
882.574	91.99
882.746	32.6
882.918	46.93
883.09	75.6
883.262	59.22
883.434	-0.17
883.606	-14.51
883.778	10.07
883.95	1.88
884.122	26.45
884.293	83.8
884.465	59.22
884.637	67.41
884.809	-88.23
884.98	44.88
885.152	48.98
885.324	-30.89
885.496	10.07
885.667	-0.17
885.839	32.6
886.011	36.69
886.182	-41.13
886.354	53.08
886.525	30.55
886.697	83.8
886.869	18.26
887.04	-2.22
887.212	59.22
887.383	34.64
887.555	59.22
887.726	-34.99
887.897	8.02
888.069	48.98
888.24	16.21
888.412	61.27
888.583	-2.22
888.754	104.28
888.926	34.64
889.097	24.4
889.268	-43.18
889.44	14.17
889.611	-55.47
889.782	-80.04
889.953	34.64
890.125	126.8
890.296	1.88
890.467	-32.94
890.638	42.84
890.809	36.69
890.98	69.46
891.151	22.36
891.323	40.79
891.494	57.17
891.665	-53.42
891.836	1.88
892.007	-6.31
892.178	-2.22
892.349	-49.32
892.52	-51.37
892.691	28.5
892.862	-47.27
893.032	16.21
893.203	-57.51
893.374	24.4
893.545	51.03
893.716	55.12
893.887	-32.94
894.057	-61.61
894.228	26.45
894.399	22.36
894.57	48.98
894.74	89.94
894.911	87.89
895.082	-4.27
895.253	3.93
895.423	-0.17
895.594	40.79
895.764	12.12
895.935	42.84
896.106	24.4
896.276	36.69
896.447	-45.23
896.617	81.75
896.788	63.32
896.958	12.12
897.129	-45.23
897.299	-6.31
897.47	-4.27
897.64	36.69
897.81	-18.6
897.981	-8.36
898.151	34.64
898.322	67.41
898.492	38.74
898.662	-8.36
898.832	-32.94
899.003	112.47
899.173	34.64
899.343	48.98
899.513	-96.43
