Data from USB4F104151__75__11-52-43-540.txt Node

Date: Fri Mar 14 11:52:43 EDT 2025
User: louis
Spectrometer: USB4F10415
Trigger mode: 4
Integration Time (sec): 2.000000E-2
Scans to average: 1
Electric dark correction enabled: true
Nonlinearity correction enabled: false
Boxcar width: 0
XAxis mode: Wavelengths
Number of Pixels in Spectrum: 3648
>>>>>Begin Spectral Data<<<<<
178.204	-95.91
178.424	-95.91
178.644	-95.91
178.864	-124.58
179.084	-71.34
179.304	14.68
179.524	-20.14
179.744	-75.43
179.964	22.87
180.184	-5.8
180.404	59.73
180.624	14.68
180.844	-59.05
181.064	18.77
181.283	45.4
181.503	16.73
181.723	-32.43
181.943	63.83
182.163	51.54
182.383	-36.52
182.602	0.34
182.822	-38.57
183.042	72.02
183.262	43.35
183.482	4.44
183.701	-16.04
183.921	59.73
184.141	4.44
184.361	26.96
184.58	-9.9
184.8	-18.09
185.02	31.06
185.239	-22.19
185.459	-52.91
185.679	53.59
185.898	-11.95
186.118	55.64
186.338	20.82
186.557	22.87
186.777	6.49
186.997	-46.76
187.216	-5.8
187.436	-22.19
187.655	4.44
187.875	-9.9
188.095	55.64
188.314	35.16
188.534	12.63
188.753	-16.04
188.973	-32.43
189.192	-1.71
189.412	12.63
189.631	-7.85
189.851	2.39
190.07	2.39
190.29	-85.67
190.509	2.39
190.729	29.01
190.948	84.31
191.168	47.44
191.387	16.73
191.607	14.68
191.826	-7.85
192.045	-18.09
192.265	10.58
192.484	10.58
192.704	-26.28
192.923	-63.15
193.142	86.36
193.362	-3.75
193.581	53.59
193.8	-16.04
194.02	92.5
194.239	-24.23
194.458	33.11
194.678	2.39
194.897	41.3
195.116	-9.9
195.335	12.63
195.555	-20.14
195.774	-16.04
195.993	55.64
196.212	-26.28
196.432	-9.9
196.651	55.64
196.87	-30.38
197.089	59.73
197.308	26.96
197.528	39.25
197.747	82.26
197.966	-26.28
198.185	12.63
198.404	-7.85
198.623	8.53
198.842	4.44
199.062	18.77
199.281	53.59
199.5	41.3
199.719	31.06
199.938	43.35
200.157	72.02
200.376	-20.14
200.595	-20.14
200.814	-7.85
201.033	4.44
201.252	-16.04
201.471	2.39
201.69	-7.85
201.909	74.07
202.128	16.73
202.347	-71.34
202.566	-24.23
202.785	29.01
203.004	18.77
203.223	61.78
203.442	-40.62
203.661	-7.85
203.879	-11.95
204.098	41.3
204.317	-95.91
204.536	45.4
204.755	-5.8
204.974	53.59
205.193	57.68
205.411	76.12
205.63	-11.95
205.849	45.4
206.068	2.39
206.287	-38.57
206.505	59.73
206.724	37.2
206.943	-30.38
207.162	-3.75
207.381	65.88
207.599	6.49
207.818	-1.71
208.037	29.01
208.255	-85.67
208.474	35.16
208.693	41.3
208.911	78.16
209.13	43.35
209.349	0.34
209.567	84.31
209.786	4.44
210.005	-9.9
210.223	41.3
210.442	-54.95
210.661	-7.85
210.879	26.96
211.098	-24.23
211.316	-36.52
211.535	47.44
211.753	20.82
211.972	-16.04
212.191	20.82
212.409	24.92
212.628	26.96
212.846	-22.19
213.065	92.5
213.283	6.49
213.502	-44.71
213.72	-13.99
213.938	61.78
214.157	8.53
214.375	-1.71
214.594	-87.72
214.812	-1.71
215.031	-3.75
215.249	16.73
215.467	20.82
215.686	-7.85
215.904	53.59
216.122	55.64
216.341	-7.85
216.559	31.06
216.778	31.06
216.996	39.25
217.214	-48.81
217.432	63.83
217.651	-3.75
217.869	45.4
218.087	-75.43
218.306	10.58
218.524	49.49
218.742	-38.57
218.96	86.36
219.179	102.74
219.397	65.88
219.615	72.02
219.833	-20.14
220.051	6.49
220.27	88.4
220.488	49.49
220.706	92.5
220.924	31.06
221.142	-1.71
221.36	35.16
221.578	-30.38
221.796	31.06
222.015	4.44
222.233	31.06
222.451	-13.99
222.669	51.54
222.887	24.92
223.105	10.58
223.323	33.11
223.541	-7.85
223.759	55.64
223.977	-3.75
224.195	67.92
224.413	53.59
224.631	-3.75
224.849	12.63
225.067	57.68
225.285	-11.95
225.503	-1.71
225.721	-9.9
225.939	20.82
226.157	20.82
226.375	110.93
226.592	53.59
226.81	16.73
227.028	-30.38
227.246	-3.75
227.464	-32.43
227.682	-9.9
227.9	26.96
228.117	47.44
228.335	33.11
228.553	37.2
228.771	20.82
228.989	-48.81
229.206	6.49
229.424	26.96
229.642	35.16
229.86	37.2
230.077	47.44
230.295	53.59
230.513	35.16
230.731	35.16
230.948	69.97
231.166	-20.14
231.384	14.68
231.601	55.64
231.819	35.16
232.037	-34.47
232.254	4.44
232.472	37.2
232.689	12.63
232.907	80.21
233.125	14.68
233.342	14.68
233.56	-42.67
233.777	-7.85
233.995	31.06
234.213	29.01
234.43	16.73
234.648	-18.09
234.865	29.01
235.083	-26.28
235.3	-11.95
235.518	59.73
235.735	18.77
235.953	61.78
236.17	-1.71
236.388	-34.47
236.605	26.96
236.822	35.16
237.04	59.73
237.257	-65.19
237.475	-67.24
237.692	-34.47
237.909	-18.09
238.127	-36.52
238.344	20.82
238.562	-18.09
238.779	-5.8
238.996	-32.43
239.214	2.39
239.431	33.11
239.648	-9.9
239.865	0.34
240.083	-1.71
240.3	-30.38
240.517	18.77
240.735	47.44
240.952	69.97
241.169	18.77
241.386	-75.43
241.603	-9.9
241.821	47.44
242.038	18.77
242.255	14.68
242.472	59.73
242.689	53.59
242.907	6.49
243.124	45.4
243.341	-63.15
243.558	-13.99
243.775	37.2
243.992	-7.85
244.209	12.63
244.426	57.68
244.643	69.97
244.86	-48.81
245.078	-46.76
245.295	-3.75
245.512	84.31
245.729	18.77
245.946	26.96
246.163	26.96
246.38	72.02
246.597	-16.04
246.814	-20.14
247.031	35.16
247.248	10.58
247.464	106.84
247.681	-11.95
247.898	74.07
248.115	31.06
248.332	-5.8
248.549	47.44
248.766	-20.14
248.983	-13.99
249.2	24.92
249.417	22.87
249.633	24.92
249.85	-22.19
250.067	-26.28
250.284	-22.19
250.501	35.16
250.717	6.49
250.934	8.53
251.151	45.4
251.368	-1.71
251.585	26.96
251.801	14.68
252.018	-38.57
252.235	-22.19
252.451	18.77
252.668	-46.76
252.885	33.11
253.102	-26.28
253.318	22.87
253.535	37.2
253.752	-24.23
253.968	14.68
254.185	18.77
254.401	-5.8
254.618	26.96
254.835	-32.43
255.051	29.01
255.268	39.25
255.484	51.54
255.701	-22.19
255.917	16.73
256.134	-112.3
256.351	-1.71
256.567	-61.1
256.784	41.3
257	-9.9
257.217	43.35
257.433	67.92
257.65	6.49
257.866	24.92
258.082	12.63
258.299	-5.8
258.515	-1.71
258.732	10.58
258.948	20.82
259.165	41.3
259.381	18.77
259.597	41.3
259.814	-26.28
260.03	-26.28
260.246	53.59
260.463	8.53
260.679	29.01
260.895	-3.75
261.112	45.4
261.328	8.53
261.544	-32.43
261.761	20.82
261.977	6.49
262.193	-3.75
262.409	6.49
262.626	35.16
262.842	61.78
263.058	-1.71
263.274	49.49
263.49	-48.81
263.707	104.79
263.923	-11.95
264.139	-24.23
264.355	90.45
264.571	-1.71
264.787	45.4
265.004	8.53
265.22	-48.81
265.436	-5.8
265.652	24.92
265.868	74.07
266.084	43.35
266.3	-40.62
266.516	-40.62
266.732	-59.05
266.948	2.39
267.164	67.92
267.38	-7.85
267.596	12.63
267.812	53.59
268.028	47.44
268.244	12.63
268.46	47.44
268.676	-13.99
268.892	61.78
269.108	29.01
269.324	0.34
269.54	-3.75
269.756	29.01
269.972	-36.52
270.188	63.83
270.403	31.06
270.619	14.68
270.835	100.69
271.051	-13.99
271.267	-7.85
271.483	72.02
271.698	-20.14
271.914	24.92
272.13	8.53
272.346	-20.14
272.562	47.44
272.777	92.5
272.993	10.58
273.209	-13.99
273.425	0.34
273.64	0.34
273.856	-26.28
274.072	-34.47
274.287	-52.91
274.503	4.44
274.719	4.44
274.934	37.2
275.15	22.87
275.366	-24.23
275.581	10.58
275.797	31.06
276.012	20.82
276.228	35.16
276.444	-3.75
276.659	8.53
276.875	-42.67
277.09	33.11
277.306	-1.71
277.521	55.64
277.737	4.44
277.952	14.68
278.168	63.83
278.383	53.59
278.599	8.53
278.814	6.49
279.03	-22.19
279.245	94.55
279.461	57.68
279.676	74.07
279.892	-1.71
280.107	37.2
280.322	-32.43
280.538	-7.85
280.753	24.92
280.969	-65.19
281.184	24.92
281.399	24.92
281.615	39.25
281.83	47.44
282.045	-46.76
282.26	-30.38
282.476	-22.19
282.691	16.73
282.906	-81.58
283.122	14.68
283.337	24.92
283.552	45.4
283.767	0.34
283.983	-5.8
284.198	61.78
284.413	6.49
284.628	24.92
284.843	4.44
285.058	35.16
285.274	-28.33
285.489	8.53
285.704	86.36
285.919	92.5
286.134	8.53
286.349	51.54
286.564	-1.71
286.779	72.02
286.995	49.49
287.21	20.82
287.425	94.55
287.64	4.44
287.855	-75.43
288.07	74.07
288.285	49.49
288.5	41.3
288.715	-9.9
288.93	8.53
289.145	-16.04
289.36	10.58
289.575	16.73
289.79	82.26
290.004	-40.62
290.219	55.64
290.434	45.4
290.649	53.59
290.864	-13.99
291.079	26.96
291.294	45.4
291.509	39.25
291.724	-1.71
291.938	-50.86
292.153	10.58
292.368	2.39
292.583	96.6
292.798	-42.67
293.012	100.69
293.227	20.82
293.442	-7.85
293.657	-9.9
293.871	63.83
294.086	57.68
294.301	37.2
294.516	94.55
294.73	10.58
294.945	55.64
295.16	51.54
295.374	-5.8
295.589	100.69
295.804	8.53
296.018	-73.39
296.233	29.01
296.447	72.02
296.662	47.44
296.877	63.83
297.091	37.2
297.306	43.35
297.52	10.58
297.735	-1.71
297.949	12.63
298.164	-26.28
298.378	47.44
298.593	51.54
298.807	-42.67
299.022	10.58
299.236	-5.8
299.451	-38.57
299.665	18.77
299.88	-18.09
300.094	26.96
300.309	26.96
300.523	12.63
300.737	-3.75
300.952	43.35
301.166	8.53
301.381	-22.19
301.595	72.02
301.809	49.49
302.024	-63.15
302.238	26.96
302.452	72.02
302.667	86.36
302.881	37.2
303.095	-34.47
303.309	-24.23
303.524	49.49
303.738	-7.85
303.952	45.4
304.166	35.16
304.381	33.11
304.595	41.3
304.809	86.36
305.023	-57
305.237	37.2
305.452	33.11
305.666	49.49
305.88	14.68
306.094	18.77
306.308	53.59
306.522	-28.33
306.736	55.64
306.95	26.96
307.164	96.6
307.379	-1.71
307.593	22.87
307.807	-57
308.021	22.87
308.235	22.87
308.449	72.02
308.663	14.68
308.877	-28.33
309.091	86.36
309.305	35.16
309.519	45.4
309.733	31.06
309.947	-20.14
310.161	22.87
310.374	-3.75
310.588	92.5
310.802	-36.52
311.016	-22.19
311.23	10.58
311.444	-38.57
311.658	53.59
311.872	59.73
312.085	14.68
312.299	45.4
312.513	49.49
312.727	-26.28
312.941	61.78
313.154	2.39
313.368	8.53
313.582	8.53
313.796	10.58
314.009	45.4
314.223	18.77
314.437	31.06
314.651	149.84
314.864	45.4
315.078	43.35
315.292	6.49
315.505	29.01
315.719	-36.52
315.933	53.59
316.146	29.01
316.36	-48.81
316.573	78.16
316.787	49.49
317.001	20.82
317.214	26.96
317.428	-13.99
317.641	53.59
317.855	69.97
318.068	49.49
318.282	10.58
318.495	-1.71
318.709	16.73
318.922	-9.9
319.136	-28.33
319.349	18.77
319.563	35.16
319.776	47.44
319.99	-26.28
320.203	35.16
320.417	31.06
320.63	45.4
320.843	4.44
321.057	53.59
321.27	67.92
321.483	29.01
321.697	12.63
321.91	-93.87
322.124	47.44
322.337	57.68
322.55	-16.04
322.763	-52.91
322.977	41.3
323.19	53.59
323.403	-26.28
323.617	72.02
323.83	26.96
324.043	76.12
324.256	51.54
324.469	43.35
324.683	41.3
324.896	45.4
325.109	-7.85
325.322	2.39
325.535	-30.38
325.748	-65.19
325.962	57.68
326.175	20.82
326.388	69.97
326.601	4.44
326.814	0.34
327.027	24.92
327.24	69.97
327.453	-1.71
327.666	39.25
327.879	55.64
328.092	8.53
328.305	33.11
328.518	4.44
328.731	-13.99
328.944	86.36
329.157	53.59
329.37	-38.57
329.583	57.68
329.796	63.83
330.009	-16.04
330.222	18.77
330.435	-9.9
330.648	94.55
330.861	-69.29
331.073	59.73
331.286	106.84
331.499	49.49
331.712	86.36
331.925	16.73
332.138	10.58
332.35	47.44
332.563	18.77
332.776	-13.99
332.989	22.87
333.202	-63.15
333.414	55.64
333.627	39.25
333.84	26.96
334.053	-42.67
334.265	26.96
334.478	49.49
334.691	-36.52
334.903	51.54
335.116	-34.47
335.329	47.44
335.541	51.54
335.754	-50.86
335.966	29.01
336.179	8.53
336.392	63.83
336.604	-5.8
336.817	51.54
337.029	31.06
337.242	49.49
337.454	61.78
337.667	-22.19
337.88	39.25
338.092	37.2
338.305	10.58
338.517	33.11
338.729	119.12
338.942	24.92
339.154	39.25
339.367	24.92
339.579	31.06
339.792	-36.52
340.004	4.44
340.217	33.11
340.429	55.64
340.641	-11.95
340.854	72.02
341.066	16.73
341.278	22.87
341.491	49.49
341.703	-24.23
341.915	29.01
342.128	39.25
342.34	-18.09
342.552	24.92
342.764	4.44
342.977	51.54
343.189	55.64
343.401	31.06
343.613	-34.47
343.826	61.78
344.038	6.49
344.25	14.68
344.462	-44.71
344.674	61.78
344.886	22.87
345.099	12.63
345.311	53.59
345.523	29.01
345.735	-28.33
345.947	51.54
346.159	-73.39
346.371	53.59
346.583	35.16
346.795	94.55
347.007	-1.71
347.219	39.25
347.431	78.16
347.643	55.64
347.855	-7.85
348.067	31.06
348.279	10.58
348.491	-54.95
348.703	-36.52
348.915	24.92
349.127	26.96
349.339	55.64
349.551	-9.9
349.763	8.53
349.975	-38.57
350.187	33.11
350.399	8.53
350.61	98.64
350.822	53.59
351.034	-22.19
351.246	63.83
351.458	35.16
351.669	43.35
351.881	33.11
352.093	-7.85
352.305	119.12
352.517	45.4
352.728	33.11
352.94	29.01
353.152	49.49
353.363	29.01
353.575	45.4
353.787	37.2
353.999	127.32
354.21	53.59
354.422	84.31
354.633	47.44
354.845	-11.95
355.057	-36.52
355.268	84.31
355.48	47.44
355.692	-16.04
355.903	37.2
356.115	2.39
356.326	20.82
356.538	86.36
356.749	18.77
356.961	31.06
357.172	-57
357.384	-24.23
357.595	41.3
357.807	24.92
358.018	35.16
358.23	26.96
358.441	119.12
358.653	29.01
358.864	-5.8
359.075	-9.9
359.287	53.59
359.498	45.4
359.709	14.68
359.921	39.25
360.132	78.16
360.344	63.83
360.555	51.54
360.766	104.79
360.977	39.25
361.189	96.6
361.4	-13.99
361.611	67.92
361.823	41.3
362.034	16.73
362.245	-5.8
362.456	31.06
362.667	43.35
362.879	72.02
363.09	26.96
363.301	41.3
363.512	14.68
363.723	67.92
363.935	92.5
364.146	102.74
364.357	53.59
364.568	35.16
364.779	43.35
364.99	78.16
365.201	33.11
365.412	16.73
365.623	-24.23
365.834	57.68
366.045	-52.91
366.256	-18.09
366.467	20.82
366.678	-71.34
366.889	20.82
367.1	-1.71
367.311	-57
367.522	80.21
367.733	53.59
367.944	72.02
368.155	2.39
368.366	59.73
368.577	24.92
368.788	90.45
368.999	82.26
369.209	35.16
369.42	94.55
369.631	112.98
369.842	31.06
370.053	-9.9
370.264	37.2
370.474	31.06
370.685	37.2
370.896	47.44
371.107	2.39
371.317	0.34
371.528	-11.95
371.739	84.31
371.95	65.88
372.16	39.25
372.371	-3.75
372.582	72.02
372.792	86.36
373.003	0.34
373.214	53.59
373.424	24.92
373.635	76.12
373.846	51.54
374.056	-3.75
374.267	0.34
374.477	82.26
374.688	33.11
374.898	16.73
375.109	63.83
375.319	29.01
375.53	96.6
375.74	65.88
375.951	-16.04
376.161	-9.9
376.372	12.63
376.582	57.68
376.793	24.92
377.003	39.25
377.214	86.36
377.424	55.64
377.635	45.4
377.845	51.54
378.055	102.74
378.266	-11.95
378.476	92.5
378.686	92.5
378.897	74.07
379.107	-54.95
379.317	41.3
379.528	26.96
379.738	82.26
379.948	-22.19
380.158	112.98
380.369	47.44
380.579	125.27
380.789	80.21
380.999	37.2
381.21	8.53
381.42	41.3
381.63	22.87
381.84	31.06
382.05	43.35
382.261	96.6
382.471	98.64
382.681	61.78
382.891	37.2
383.101	24.92
383.311	26.96
383.521	-13.99
383.731	-1.71
383.941	67.92
384.151	24.92
384.361	47.44
384.571	39.25
384.781	-20.14
384.991	47.44
385.201	88.4
385.411	65.88
385.621	37.2
385.831	2.39
386.041	26.96
386.251	2.39
386.461	106.84
386.671	-1.71
386.881	-5.8
387.091	4.44
387.301	-7.85
387.511	-26.28
387.72	74.07
387.93	24.92
388.14	31.06
388.35	33.11
388.56	59.73
388.769	51.54
388.979	102.74
389.189	57.68
389.399	63.83
389.609	35.16
389.818	100.69
390.028	37.2
390.238	49.49
390.447	55.64
390.657	51.54
390.867	82.26
391.076	2.39
391.286	41.3
391.496	59.73
391.705	8.53
391.915	78.16
392.125	96.6
392.334	24.92
392.544	-13.99
392.753	57.68
392.963	33.11
393.172	106.84
393.382	-9.9
393.591	145.75
393.801	59.73
394.01	31.06
394.22	47.44
394.429	35.16
394.639	98.64
394.848	133.46
395.058	90.45
395.267	137.56
395.477	51.54
395.686	106.84
395.895	14.68
396.105	110.93
396.314	24.92
396.524	88.4
396.733	37.2
396.942	80.21
397.152	22.87
397.361	108.88
397.57	96.6
397.78	84.31
397.989	106.84
398.198	90.45
398.407	63.83
398.617	139.6
398.826	139.6
399.035	53.59
399.244	106.84
399.453	63.83
399.663	51.54
399.872	100.69
400.081	53.59
400.29	104.79
400.499	-11.95
400.708	108.88
400.917	102.74
401.127	104.79
401.336	45.4
401.545	26.96
401.754	90.45
401.963	127.32
402.172	198.99
402.381	57.68
402.59	121.17
402.799	131.41
403.008	145.75
403.217	143.7
403.426	104.79
403.635	72.02
403.844	162.13
404.053	72.02
404.262	104.79
404.471	98.64
404.68	155.99
404.888	92.5
405.097	61.78
405.306	100.69
405.515	129.36
405.724	190.8
405.933	141.65
406.142	125.27
406.35	100.69
406.559	121.17
406.768	102.74
406.977	203.09
407.185	221.52
407.394	205.14
407.603	129.36
407.812	108.88
408.02	201.04
408.229	219.47
408.438	201.04
408.646	139.6
408.855	219.47
409.064	162.13
409.272	221.52
409.481	266.58
409.69	250.19
409.898	223.57
410.107	225.62
410.315	305.49
410.524	268.63
410.733	268.63
410.941	242
411.15	215.38
411.358	289.1
411.567	389.46
411.775	307.54
411.984	344.4
412.192	330.06
412.401	328.02
412.609	395.6
412.818	385.36
413.026	381.26
413.234	364.88
413.443	469.33
413.651	395.6
413.86	471.37
414.068	549.2
414.276	596.3
414.485	495.95
414.693	444.75
414.901	618.83
415.11	573.77
415.318	588.11
415.526	674.12
415.734	670.03
415.943	633.16
416.151	676.17
416.359	663.88
416.567	698.7
416.776	790.86
416.984	768.33
417.192	766.28
417.4	842.06
417.608	864.58
417.817	860.49
418.025	926.02
418.233	997.7
418.441	946.5
418.649	975.17
418.857	1081.67
419.065	1098.05
419.273	1044.81
419.481	1126.72
419.689	1134.92
419.897	1179.97
420.105	1247.55
420.313	1233.22
420.521	1288.51
420.729	1255.75
420.937	1448.26
421.145	1454.4
421.353	1542.46
421.561	1706.3
421.769	1571.13
421.977	1653.05
422.185	1689.92
422.393	1792.31
422.601	1874.23
422.809	1878.33
423.017	1945.91
423.224	1847.61
423.432	2132.28
423.64	2099.51
423.848	2173.24
424.056	2197.81
424.263	2279.73
424.471	2363.7
424.679	2320.69
424.887	2699.56
425.094	2578.73
425.302	2582.83
425.51	2838.83
425.718	2801.96
425.925	2902.31
426.133	2965.8
426.341	3100.97
426.548	3334.43
426.756	3240.23
426.964	3348.77
427.171	3385.63
427.379	3537.18
427.586	3572
427.794	3899.67
428.001	3875.1
428.209	4198.68
428.417	4147.48
428.624	4143.38
428.832	4260.12
429.039	4464.91
429.247	4288.79
429.454	4864.27
429.662	5028.1
429.869	4708.62
430.076	5089.54
430.284	5048.58
430.491	5085.45
430.699	5454.08
430.906	5273.86
431.114	5441.79
431.321	5703.93
431.528	5884.16
431.736	6213.88
431.943	6549.75
432.15	6306.04
432.358	6404.34
432.565	6697.2
432.772	6600.94
432.979	6863.08
433.187	7168.23
433.394	7037.16
433.601	7719.14
433.808	7710.94
434.016	7688.42
434.223	8018.14
434.43	8403.16
434.637	8110.3
434.844	8853.71
435.052	9044.17
435.259	8812.75
435.466	8947.92
435.673	8812.75
435.88	9367.75
436.087	10148.03
436.294	10162.36
436.501	9730.24
436.708	9984.19
436.915	10305.72
437.122	10694.83
437.329	10731.7
437.537	11053.23
437.743	11212.97
437.95	11286.7
438.157	11782.31
438.364	12263.58
438.571	12187.8
438.778	12308.63
438.985	13430.92
439.192	12927.12
439.399	13176.97
439.606	13076.62
439.813	13768.84
440.02	14520.44
440.227	14346.36
440.433	14301.31
440.64	14532.73
440.847	14438.52
441.054	14964.85
441.261	15964.26
441.467	15724.65
441.674	15954.02
441.881	16644.18
442.088	16549.98
442.294	16334.94
442.501	16717.91
442.708	17129.55
442.914	18004.03
443.121	18333.76
443.328	18051.14
443.534	19656.75
443.741	18892.85
443.948	18622.52
444.154	20148.26
444.361	19824.68
444.568	19892.26
444.774	20154.4
444.981	20447.26
445.187	20717.59
445.394	21735.43
445.6	21766.15
445.807	23730.16
446.013	22456.32
446.22	23107.57
446.426	23963.62
446.633	24502.24
446.839	24928.22
447.046	23961.58
447.252	25184.21
447.459	25468.88
447.665	25219.03
447.871	26404.8
448.078	27578.29
448.284	26578.88
448.491	26845.12
448.697	28051.37
448.903	28669.86
449.11	28589.99
449.316	28018.6
449.522	29013.91
449.728	29388.69
449.935	29599.63
450.141	29638.55
450.347	30300.04
450.553	29439.89
450.76	29579.15
450.966	30826.37
451.172	30400.39
451.378	31229.82
451.584	30705.54
451.791	31278.97
451.997	31348.6
452.203	31623.03
452.409	31698.8
452.615	31733.62
452.821	30631.81
453.027	30185.35
453.233	31995.76
453.44	30785.41
453.646	31291.26
453.852	31100.79
454.058	31395.7
454.264	30812.03
454.47	31666.03
454.676	30699.39
454.882	31635.31
455.088	28676
455.294	29423.51
455.5	30093.19
455.705	30175.11
455.911	29022.11
456.117	28458.92
456.323	28006.31
456.529	26404.8
456.735	27824.04
456.941	27068.34
457.147	26556.35
457.352	26007.5
457.558	25597.9
457.764	25391.06
457.97	25421.78
458.176	24438.75
458.381	24700.89
458.587	23529.45
458.793	23617.52
458.999	22063.11
459.204	23934.95
459.41	23132.15
459.616	21430.29
459.821	21692.43
460.027	21661.71
460.233	21065.75
460.438	19775.53
460.644	20248.61
460.85	19312.69
461.055	19169.33
461.261	19052.59
461.466	17387.6
461.672	17143.89
461.878	18278.46
462.083	16988.24
462.289	16830.55
462.494	16662.62
462.7	15759.46
462.905	15593.58
463.111	16044.13
463.316	15855.72
463.522	15829.09
463.727	15777.89
463.932	15759.46
464.138	15607.91
464.343	15466.6
464.549	15042.67
464.754	15569
464.959	15392.87
465.165	15304.81
465.37	14841.97
465.575	14160
465.781	14831.73
465.986	14870.64
466.191	14512.25
466.397	14205.05
466.602	13428.87
466.807	14133.37
467.012	14096.51
467.218	14223.48
467.423	13832.32
467.628	13975.68
467.833	14243.96
468.038	13893.76
468.244	13496.46
468.449	13865.09
468.654	13582.47
468.859	13353.1
469.064	13525.13
469.269	12892.3
469.474	12978.32
469.679	13185.16
469.885	12861.59
470.09	12959.89
470.295	13076.62
470.5	12726.42
470.705	12581.01
470.91	12335.26
471.115	12187.8
471.32	12474.52
471.525	12191.9
471.73	11997.34
471.935	12241.05
472.139	11473.06
472.344	11813.03
472.549	11780.26
472.754	11698.34
472.959	11325.61
473.164	11094.19
473.369	11151.53
473.574	11464.87
473.778	11393.19
473.983	10965.17
474.188	11151.53
474.393	10549.43
474.598	10707.12
474.802	10600.63
475.007	10236.09
475.212	10631.35
475.417	10231.99
475.621	10082.49
475.826	10092.73
476.031	9851.07
476.235	9783.49
476.44	10014.91
476.645	9689.28
476.849	9844.93
477.054	9648.32
477.259	9408.71
477.463	9703.62
477.668	9361.61
477.872	9486.53
478.077	9189.58
478.282	9160.91
478.486	8992.97
478.691	8890.57
478.895	8696.02
479.1	8775.89
479.304	8880.33
479.509	8640.72
479.713	8743.12
479.918	8431.83
480.122	8388.82
480.326	8372.44
480.531	8726.74
480.735	8493.27
480.94	8294.61
481.144	8745.17
481.348	8286.42
481.553	8413.4
481.757	8024.28
481.961	8270.04
482.166	8454.36
482.37	8419.54
482.574	8237.27
482.778	8194.26
482.983	8540.37
483.187	8304.85
483.391	8073.43
483.595	8042.71
483.8	8132.83
484.004	8057.05
484.208	8239.32
484.412	8315.09
484.616	8145.11
484.821	8190.17
485.025	7940.32
485.229	8159.45
485.433	8075.48
485.637	8167.64
485.841	8028.38
486.045	8112.35
486.249	8003.8
486.453	8061.15
486.657	8120.54
486.861	8366.29
487.065	7983.32
487.269	7790.81
487.473	8057.05
487.677	8194.26
487.881	8222.94
488.085	7993.56
488.289	8192.22
488.493	8114.39
488.697	8218.84
488.901	8204.5
489.105	8351.96
489.309	8153.3
489.512	8337.62
489.716	8319.19
489.92	8376.53
490.124	8175.83
490.328	8261.85
490.531	8386.77
490.735	8282.33
490.939	8308.95
491.143	8282.33
491.346	8605.91
491.55	8599.76
491.754	8450.26
491.958	8364.25
492.161	8691.92
492.365	8603.86
492.569	8491.22
492.772	8661.2
492.976	8919.25
493.18	8859.85
493.383	8802.51
493.587	8962.25
493.79	8822.99
493.994	8958.16
494.197	8915.15
494.401	9068.75
494.605	9109.71
494.808	9269.45
495.012	9341.13
495.215	9171.15
495.419	9543.88
495.622	9521.35
495.825	9418.95
496.029	9482.44
496.232	9705.67
496.436	9738.43
496.639	9900.22
496.843	9990.33
497.046	10057.92
497.249	10258.62
497.453	10129.59
497.656	10508.47
497.859	10199.23
498.063	10637.49
498.266	10633.4
498.469	10485.94
498.673	10606.77
498.876	10942.64
499.079	11147.44
499.282	11120.81
499.485	11280.55
499.689	11456.68
499.892	11790.5
500.095	11620.52
500.298	11684
500.501	11659.43
500.705	12089.5
500.908	12091.55
501.111	12425.37
501.314	12443.8
501.517	12478.61
501.72	12603.54
501.923	12687.51
502.126	12847.25
502.329	13275.27
502.532	13322.38
502.735	13467.78
502.938	13580.42
503.141	13799.55
503.344	13895.81
503.547	13922.43
503.75	14141.57
503.953	14463.1
504.156	14356.6
504.359	14612.6
504.562	14661.75
504.765	15116.4
504.968	15061.1
505.17	15245.42
505.373	15450.22
505.576	15702.12
505.779	15816.8
505.982	15837.28
506.185	16273.5
506.387	16246.88
506.59	16441.43
506.793	16756.82
506.996	16701.53
507.198	17281.1
507.401	17147.98
507.604	17332.3
507.807	17608.78
508.009	17709.13
508.212	17686.6
508.415	17977.41
508.617	18092.1
508.82	18679.86
509.022	18425.92
509.225	18921.52
509.428	19054.64
509.63	19345.45
509.833	19128.37
510.035	19583.02
510.238	19675.18
510.44	19892.26
510.643	20264.99
510.845	20412.45
511.048	20424.73
511.25	20815.9
511.453	20740.12
511.655	21641.23
511.858	21100.56
512.06	21616.65
512.262	21786.63
512.465	21889.03
512.667	22372.35
512.87	22388.74
513.072	22358.02
513.274	22759.42
513.477	22951.93
513.679	23441.39
513.881	23216.12
514.084	23937
514.286	23924.71
514.488	23810.03
514.69	24774.62
514.893	24395.75
515.095	24768.48
515.297	25128.92
515.499	25165.78
515.701	25604.05
515.904	25735.12
516.106	25671.63
516.308	26406.85
516.51	26361.8
516.712	26515.39
516.914	26812.35
517.116	27361.2
517.318	27410.36
517.52	27455.41
517.722	27410.36
517.925	28211.11
518.127	28403.62
518.329	28725.15
518.531	28800.93
518.733	28981.15
518.935	29474.71
519.136	29527.95
519.338	29796.24
519.54	29988.75
519.742	30611.33
519.944	30560.13
520.146	30738.3
520.348	31111.03
520.55	31217.53
520.752	31500.15
520.954	31711.09
521.155	31684.47
521.357	32014.19
521.559	32466.79
521.761	33140.57
521.963	33130.33
522.164	32544.61
522.366	33206.11
522.568	33429.34
522.77	33769.3
522.971	34211.66
523.173	34113.36
523.375	34033.49
523.576	34449.22
523.778	34481.99
523.98	35247.93
524.181	35098.43
524.383	34989.89
524.584	35680.05
524.786	35397.43
524.988	35432.25
525.189	35786.55
525.391	36202.28
525.592	36300.59
525.794	36624.17
525.995	36783.91
526.197	36673.32
526.398	36886.31
526.6	37132.06
526.801	37179.17
527.003	37295.9
527.204	37381.91
527.406	37902.1
527.607	37625.62
527.808	38211.34
528.01	37250.84
528.211	37637.91
528.412	38983.43
528.614	38197.01
528.815	38676.23
529.016	38962.95
529.218	38311.69
529.419	38823.68
529.62	38842.12
529.822	38997.76
530.023	38788.87
530.224	39048.96
530.425	39227.13
530.626	38905.6
530.828	39046.91
531.029	39579.39
531.23	39190.27
531.431	39476.99
531.632	39741.17
531.833	39638.78
532.035	39720.7
532.236	39667.45
532.437	40158.96
532.638	39649.02
532.839	40042.23
533.04	40402.67
533.241	39792.37
533.442	40247.02
533.643	40455.92
533.844	40064.75
534.045	40470.25
534.246	40062.71
534.447	40302.32
534.648	40070.9
534.849	40441.58
535.05	40001.27
535.251	40443.63
535.451	40322.8
535.652	40414.96
535.853	40384.24
536.054	40447.72
536.255	40527.59
536.456	40150.77
536.657	40744.68
536.857	40625.9
537.058	40208.11
537.259	40888.04
537.46	40611.56
537.66	40359.66
537.861	40720.1
538.062	40597.23
538.263	40650.47
538.463	40414.96
538.664	40529.64
538.865	40992.48
539.065	40898.28
539.266	40685.29
539.466	41060.07
539.667	40204.02
539.868	41148.13
540.068	40724.2
540.269	40271.6
540.469	40781.54
540.67	40253.17
540.87	40517.36
541.071	40345.33
541.271	40822.5
541.472	40875.75
541.672	40664.81
541.873	40750.82
542.073	40201.97
542.274	41058.02
542.474	40541.93
542.675	40599.27
542.875	41002.72
543.075	40359.66
543.276	40605.42
543.476	40896.23
543.676	40460.01
543.877	40826.6
544.077	40726.25
544.277	40224.5
544.478	40208.11
544.678	40679.14
544.878	40474.35
545.078	40359.66
545.279	40212.21
545.479	40480.49
545.679	40677.1
545.879	40584.94
546.079	40750.82
546.28	40390.38
546.48	40462.06
546.68	40419.05
546.88	40738.54
547.08	40589.03
547.28	40711.91
547.48	40175.34
547.68	40763.11
547.88	40470.25
548.081	40580.84
548.281	40761.06
548.481	40466.16
548.681	40601.32
548.881	40724.2
549.081	40668.9
549.28	40765.16
549.48	41144.03
549.68	40605.42
549.88	41051.87
550.08	40130.29
550.28	40650.47
550.48	40455.92
550.68	41115.36
550.88	40423.15
551.08	40511.21
551.279	40392.43
551.479	40515.31
551.679	40711.91
551.879	40509.16
552.079	40935.14
552.278	40437.48
552.478	40765.16
552.678	40408.81
552.878	40328.94
553.077	40718.06
553.277	40136.43
553.477	40814.31
553.676	40337.13
553.876	40576.75
554.076	40541.93
554.275	40224.5
554.475	40011.51
554.674	40351.47
554.874	40601.32
555.074	40658.66
555.273	40582.89
555.473	40412.91
555.672	39919.35
555.872	40437.48
556.071	40390.38
556.271	40400.62
556.47	40021.75
556.67	39593.72
556.869	40122.1
557.068	40371.95
557.268	39757.56
557.467	39823.09
557.667	39974.64
557.866	40349.42
558.065	40001.27
558.265	39833.33
558.464	39298.81
558.663	40269.55
558.863	39380.73
559.062	40251.12
559.261	39409.4
559.461	40201.97
559.66	39411.45
559.859	39900.92
560.058	39094.02
560.258	39124.74
560.457	39212.8
560.656	39337.73
560.855	39444.22
561.054	38997.76
561.253	39102.21
561.453	39374.59
561.652	39061.25
561.851	39319.29
562.05	39286.53
562.249	38868.74
562.448	39247.61
562.647	38932.23
562.846	38850.31
563.045	38864.64
563.244	38649.61
563.443	39034.63
563.642	38555.4
563.841	38704.9
564.04	38440.71
564.239	38999.81
564.438	38332.17
564.637	38385.42
564.836	38108.94
565.035	37783.32
565.234	38383.37
565.432	38330.12
565.631	38143.76
565.83	37906.19
566.029	37664.53
566.228	37871.38
566.427	38100.75
566.625	37521.18
566.824	37547.8
567.023	37338.91
567.222	37117.73
567.42	37320.48
567.619	37582.62
567.818	37453.59
568.016	37029.66
568.215	37396.25
568.414	36943.65
568.612	37213.98
568.811	36792.1
569.01	37160.73
569.208	36280.11
569.407	36917.03
569.605	36505.38
569.804	36652.84
570.002	36718.37
570.201	36646.69
570.4	35897.14
570.598	36263.72
570.797	35776.31
570.995	36570.92
571.193	35798.84
571.392	35553.08
571.59	35331.9
571.789	35731.25
571.987	35419.96
572.186	35448.63
572.384	35489.59
572.582	35635
572.781	35348.28
572.979	34694.98
573.177	35401.53
573.376	35299.13
573.574	35028.8
573.772	35114.81
573.971	34647.88
574.169	34932.54
574.367	34783.04
574.565	34850.63
574.763	34518.85
574.962	34533.19
575.16	34144.08
575.358	34549.57
575.556	33881.94
575.754	34529.09
575.952	33789.78
576.151	34096.97
576.349	33771.35
576.547	33953.62
576.745	33771.35
576.943	34144.08
577.141	33623.89
577.339	33453.91
577.537	33302.36
577.735	33408.86
577.933	32880.48
578.131	32995.17
578.329	33122.14
578.527	32993.12
578.725	32825.18
578.923	33048.41
579.121	32630.63
579.319	32716.64
579.516	32788.32
579.714	32675.68
579.912	32274.28
580.11	32411.49
580.308	32517.99
580.506	32208.75
580.704	31678.32
580.901	32049
581.099	32188.27
581.297	31764.34
581.495	31799.15
581.692	31629.17
581.89	31831.92
582.088	31692.66
582.285	31063.93
582.483	31424.37
582.681	31029.12
582.878	31197.05
583.076	30746.5
583.274	31354.74
583.471	30711.68
583.669	30859.13
583.866	30390.15
584.064	31016.83
584.262	30711.68
584.459	30766.98
584.657	30168.97
584.854	30545.8
585.052	29955.98
585.249	30607.23
585.447	30396.29
585.644	29675.41
585.841	29699.98
586.039	30359.43
586.236	29568.91
586.434	29511.57
586.631	29325.21
586.828	29513.62
587.026	29392.79
587.223	29413.27
587.42	29329.3
587.618	29534.1
587.815	29018.01
588.012	29208.47
588.21	28833.69
588.407	29065.11
588.604	28622.75
588.801	28422.05
588.999	28424.1
589.196	28549.03
589.393	28587.94
589.59	28268.45
589.787	28436.39
589.984	28293.03
590.182	28135.34
590.379	28104.62
590.576	28067.75
590.773	27895.72
590.97	27600.82
591.167	27492.27
591.364	27379.64
591.561	27826.09
591.758	27396.02
591.955	27475.89
592.152	27516.85
592.349	27463.6
592.546	27443.12
592.743	27377.59
592.94	26888.12
593.137	26732.48
593.334	27219.89
593.531	26589.12
593.727	26705.85
593.924	26857.4
594.121	26425.28
594.318	27023.29
594.515	26025.93
594.712	26539.97
594.908	26269.64
595.105	26445.76
595.302	26062.79
595.499	26232.77
595.696	25812.94
595.892	25870.28
596.089	25569.23
596.286	25946.06
596.482	25855.95
596.679	25669.58
596.876	25323.47
597.072	25589.71
597.269	25524.18
597.466	24905.69
597.662	24963.03
597.859	24983.51
598.055	25343.95
598.252	24934.36
598.448	25145.3
598.645	24664.03
598.841	24649.69
599.038	24864.73
599.234	24827.87
599.431	24567.77
599.627	24459.23
599.824	24377.31
600.02	24106.98
600.217	24156.13
600.413	24301.54
600.609	24098.79
600.806	24098.79
601.002	24172.52
601.198	24098.79
601.395	23771.11
601.591	23666.67
601.787	23752.68
601.984	23201.78
602.18	23631.85
602.376	23392.24
602.572	23353.33
602.769	23539.69
602.965	23121.91
603.161	23347.19
603.357	23029.75
603.553	23156.72
603.75	23093.24
603.946	22841.34
604.142	23068.66
604.338	22433.79
604.534	23107.57
604.73	22657.02
604.926	22878.2
605.122	22747.13
605.318	22425.6
605.514	22159.36
605.71	22032.39
605.906	22278.15
606.102	22108.16
606.298	22290.43
606.494	22071.3
606.69	22026.25
606.886	22050.82
607.082	21663.75
607.278	21886.98
607.474	21461.01
607.67	21751.82
607.866	21397.52
608.062	21630.99
608.257	21497.87
608.453	21544.97
608.649	21035.03
608.845	21401.61
609.041	21155.86
609.236	21325.84
609.432	21174.29
609.628	21176.34
609.824	21037.08
610.019	20930.58
610.215	21100.56
610.411	20858.9
610.606	21047.32
610.802	20885.53
610.998	20983.83
611.193	20813.85
611.389	20697.11
611.584	20803.61
611.78	20643.87
611.976	20412.45
612.171	20684.83
612.367	20480.03
612.562	20434.97
612.758	19974.18
612.953	20269.09
613.149	20514.84
613.344	20197.41
613.539	20584.48
613.735	20232.22
613.93	20019.24
614.126	20045.86
614.321	20383.77
614.517	20103.2
614.712	20064.29
614.907	19769.38
615.103	20314.14
615.298	19593.26
615.493	20172.83
615.688	19595.31
615.884	20015.14
616.079	19429.42
616.274	19677.23
616.47	19511.34
616.665	19630.12
616.86	19275.82
617.055	19394.61
617.25	19392.56
617.445	19552.3
617.641	19167.28
617.836	19404.85
618.031	18929.72
618.226	19402.8
618.421	19077.17
618.616	19101.75
618.811	18645.05
619.006	19144.75
619.201	18413.63
619.396	18872.37
619.591	18372.67
619.786	18901.04
619.981	18214.98
620.176	18470.97
620.371	18513.98
620.566	18339.9
620.761	18112.58
620.956	18260.03
621.151	17899.59
621.346	17856.58
621.541	17713.22
621.735	18081.86
621.93	17791.05
622.125	17463.37
622.32	17510.47
622.515	17502.28
622.709	17397.84
622.904	17307.73
623.099	17326.16
623.294	17303.63
623.488	16937.04
623.683	17113.17
623.878	16648.28
624.072	16834.64
624.267	16803.92
624.462	16525.4
624.656	16480.35
624.851	16554.07
625.046	16072.8
625.24	16093.28
625.435	16351.32
625.629	16119.9
625.824	16031.84
626.018	15890.53
626.213	15634.53
626.407	15693.93
626.602	15650.92
626.796	15687.78
626.991	15798.37
627.185	15417.45
627.38	15489.13
627.574	15419.5
627.768	15126.64
627.963	15112.3
628.157	14946.42
628.352	14725.24
628.546	14702.71
628.74	14944.37
628.935	14721.14
629.129	14831.73
629.323	14645.37
629.517	14389.37
629.712	14489.72
629.906	14315.64
630.1	14094.46
630.294	14227.58
630.489	14030.98
630.683	14112.89
630.877	13842.56
631.071	13852.8
631.265	13777.03
631.459	13615.24
631.653	13590.66
631.848	13504.65
632.042	13783.17
632.236	13572.23
632.43	13340.81
632.624	13179.02
632.818	13275.27
633.012	12937.36
633.206	13015.18
633.4	12976.27
633.594	12929.17
633.788	12730.52
633.982	12771.47
634.176	12675.22
634.369	12683.41
634.563	12497.05
634.757	12601.49
634.951	12574.87
635.145	12490.9
635.339	12429.46
635.533	12355.74
635.726	12284.06
635.92	12144.8
636.114	12095.64
636.308	12015.77
636.501	11989.15
636.695	12064.93
636.889	11677.86
637.083	11776.16
637.276	11823.26
637.47	11634.85
637.664	11335.85
637.857	11413.67
638.051	11450.53
638.244	11202.73
638.438	11331.75
638.632	11206.83
638.825	10948.78
639.019	11092.14
639.212	11116.72
639.406	10913.97
639.599	11135.15
639.793	10973.36
639.986	10870.96
640.18	10590.39
640.373	10657.97
640.567	10547.38
640.76	10510.52
640.954	10498.23
641.147	10336.44
641.34	10404.02
641.534	10100.92
641.727	10399.93
641.92	10266.81
642.114	10162.36
642.307	10002.62
642.5	10221.75
642.694	9793.73
642.887	9844.93
643.08	10010.81
643.273	9902.27
643.467	9846.98
643.66	9748.67
643.853	9564.36
644.046	9199.82
644.239	9580.74
644.432	9507.01
644.626	9238.73
644.819	9259.21
645.012	9220.3
645.205	9273.54
645.398	9169.1
645.591	9064.65
645.784	9228.49
645.977	8845.52
646.17	8915.15
646.363	8745.17
646.556	8995.02
646.749	9029.84
646.942	8736.98
647.135	8675.54
647.328	8749.26
647.521	8501.46
647.714	8564.95
647.907	8558.8
648.099	8411.35
648.292	8417.49
648.485	8505.56
648.678	8534.23
648.871	8167.64
649.064	8130.78
649.256	8317.14
649.449	8239.32
649.642	8022.23
649.835	8104.15
650.027	8192.22
650.22	8169.69
650.413	7987.42
650.605	7958.75
650.798	7872.73
650.991	7762.14
651.183	7821.53
651.376	7561.44
651.568	7753.95
651.761	7653.6
651.954	7657.7
652.146	7641.31
652.339	7612.64
652.531	7405.8
652.724	7493.86
652.916	7291.11
653.109	7504.1
653.301	7489.76
653.494	7215.34
653.686	7190.76
653.879	7317.73
654.071	7090.41
654.263	7037.16
654.456	7098.6
654.648	6910.19
654.84	7004.39
655.033	6912.24
655.225	6969.58
655.417	6748.4
655.61	6947.05
655.802	6897.9
655.994	6652.14
656.186	6707.44
656.379	6654.19
656.571	6703.34
656.763	6613.23
656.955	6613.23
657.148	6621.42
657.34	6529.27
657.532	6492.4
657.724	6398.2
657.916	6367.48
658.108	6473.97
658.3	6498.55
658.492	6121.72
658.684	6187.25
658.876	6172.92
659.068	6303.99
659.26	6027.51
659.452	6273.27
659.644	6154.49
659.836	6205.69
660.028	6004.99
660.22	5861.63
660.412	6004.99
660.604	6019.32
660.796	5966.07
660.988	5912.83
661.18	5849.34
661.372	5736.7
661.563	5976.31
661.755	5681.41
661.947	5781.76
662.139	5638.4
662.331	5681.41
662.522	5728.51
662.714	5658.88
662.906	5589.25
663.097	5579.01
663.289	5548.29
663.481	5454.08
663.673	5714.17
663.864	5411.07
664.056	5429.51
664.247	5224.71
664.439	5327.11
664.631	5290.24
664.822	5245.19
665.014	5339.4
665.205	5157.13
665.397	5249.29
665.588	5237
665.78	5212.42
665.971	5210.37
666.163	5175.56
666.354	4972.81
666.546	5042.44
666.737	5058.82
666.929	5048.58
667.12	5060.87
667.311	5073.16
667.503	4882.7
667.694	5017.86
667.885	4759.82
668.077	4876.55
668.268	4948.23
668.459	4808.97
668.651	4731.15
668.842	4911.37
669.033	4823.31
669.224	4794.64
669.416	4835.6
669.607	4682
669.798	4735.25
669.989	4727.05
670.18	4608.27
670.371	4722.96
670.563	4589.84
670.754	4620.56
670.945	4399.38
671.136	4653.33
671.327	4557.07
671.518	4503.82
671.709	4522.26
671.9	4622.61
672.091	4428.05
672.282	4501.78
672.473	4524.3
672.664	4557.07
672.855	4301.08
673.046	4370.71
673.237	4360.47
673.428	4327.7
673.619	4213.01
673.809	4251.92
674	4464.91
674.191	4325.65
674.382	4358.42
674.573	4309.27
674.764	4184.34
674.954	4204.82
675.145	4182.29
675.336	4366.61
675.527	4290.84
675.717	4143.38
675.908	4217.11
676.099	4163.86
676.289	4174.1
676.48	4315.41
676.671	4075.8
676.861	4268.31
677.052	4012.31
677.243	4110.61
677.433	4043.03
677.624	4010.26
677.814	4008.22
678.005	4165.91
678.195	4137.24
678.386	4129.05
678.576	3932.44
678.767	3916.06
678.957	4096.28
679.148	4028.7
679.338	3975.45
679.529	4028.7
679.719	3905.82
679.909	4008.22
680.1	3911.96
680.29	3950.87
680.481	3877.15
680.671	4004.12
680.861	3940.63
681.052	4065.56
681.242	3791.13
681.432	3918.11
681.622	3825.95
681.813	3856.67
682.003	3924.25
682.193	3877.15
682.383	3950.87
682.573	3840.28
682.764	3914.01
682.954	3766.56
683.144	3850.52
683.334	3938.59
683.524	3868.95
683.714	3901.72
683.904	3969.3
684.094	3821.85
684.284	3889.43
684.474	3735.84
684.664	3797.28
684.854	3836.19
685.044	3924.25
685.234	3793.18
685.424	3729.69
685.614	3711.26
685.804	3727.64
685.994	3793.18
686.184	3602.72
686.374	3815.71
686.564	3750.17
686.753	3741.98
686.943	3787.04
687.133	3846.43
687.323	3658.01
687.513	3651.87
687.702	3539.23
687.892	3776.8
688.082	3672.35
688.272	3799.32
688.461	3555.62
688.651	3625.25
688.841	3500.32
689.03	3471.65
689.22	3537.18
689.41	3526.94
689.599	3504.42
689.789	3606.81
689.979	3625.25
690.168	3442.98
690.358	3453.22
690.547	3420.45
690.737	3514.66
690.926	3418.4
691.116	3453.22
691.305	3473.7
691.495	3508.51
691.684	3432.74
691.874	3363.11
692.063	3387.68
692.252	3432.74
692.442	3406.11
692.631	3330.34
692.82	3352.87
693.01	3383.59
693.199	3281.19
693.388	3354.91
693.578	3412.26
693.767	3260.71
693.956	3234.08
694.146	3268.9
694.335	3238.18
694.524	3293.48
694.713	3246.37
694.902	3322.15
695.092	3287.33
695.281	3148.07
695.47	3301.67
695.659	3166.5
695.848	3207.46
696.037	3189.03
696.226	3236.13
696.415	3182.88
696.604	3252.52
696.793	3176.74
696.982	3174.69
697.171	3019.05
697.36	3213.6
697.549	3166.5
697.738	3139.88
697.927	3160.36
698.116	3113.25
698.305	3076.39
698.494	3232.04
698.683	3223.84
698.872	3199.27
699.061	3176.74
699.25	2978.09
699.438	3031.34
699.627	3172.64
699.816	3182.88
700.005	3008.81
700.193	3148.07
700.382	3096.87
700.571	3041.57
700.76	3074.34
700.948	3074.34
701.137	3057.96
701.326	3100.97
701.514	3146.02
701.703	3146.02
701.892	3162.41
702.08	3111.21
702.269	3072.29
702.457	2924.84
702.646	3051.81
702.834	3045.67
703.023	3078.44
703.212	3127.59
703.4	3072.29
703.589	3072.29
703.777	3119.4
703.965	2914.6
704.154	3107.11
704.342	3025.19
704.531	3127.59
704.719	3053.86
704.907	3070.25
705.096	2959.66
705.284	3096.87
705.472	3141.93
705.661	3053.86
705.849	3080.49
706.037	3070.25
706.226	2922.79
706.414	3047.72
706.602	2992.42
706.79	3139.88
706.979	3027.24
707.167	3051.81
707.355	3039.53
707.543	2980.14
707.731	2984.23
707.919	2982.18
708.107	2933.03
708.296	3000.62
708.484	2935.08
708.672	2920.74
708.86	2883.88
709.048	3006.76
709.236	2928.94
709.424	2861.35
709.612	3037.48
709.8	3092.77
709.988	2971.94
710.176	3004.71
710.364	3037.48
710.551	3049.77
710.739	2973.99
710.927	2986.28
711.115	3057.96
711.303	2973.99
711.491	3019.05
711.679	3055.91
711.866	2867.5
712.054	3107.11
712.242	2857.26
712.43	3105.06
712.617	2906.41
712.805	2810.15
712.993	2973.99
713.181	2836.78
713.368	2963.75
713.556	2775.34
713.744	2945.32
713.931	2859.31
714.119	2840.87
714.306	3043.62
714.494	2791.72
714.682	2830.63
714.869	2865.45
715.057	3060.01
715.244	2902.31
715.432	2842.92
715.619	2781.48
715.807	2810.15
715.994	2908.46
716.182	2953.51
716.369	2855.21
716.556	2937.13
716.744	2900.27
716.931	2847.02
717.119	2777.39
717.306	2783.53
717.493	2912.55
717.681	2816.3
717.868	2857.26
718.055	2816.3
718.242	2867.5
718.43	2832.68
718.617	2812.2
718.804	2912.55
718.991	2795.82
719.179	2890.03
719.366	2814.25
719.553	2748.72
719.74	2812.2
719.927	2814.25
720.114	2738.48
720.301	2785.58
720.488	2679.08
720.676	2881.83
720.863	2900.27
721.05	2779.43
721.237	2789.67
721.424	2715.95
721.611	2767.15
721.798	2605.36
721.985	2740.52
722.172	2568.49
722.358	2781.48
722.545	2756.91
722.732	2642.22
722.919	2808.11
723.106	2695.47
723.293	2744.62
723.48	2781.48
723.667	2799.91
723.853	2756.91
724.04	2674.99
724.227	2656.56
724.414	2765.1
724.6	2574.64
724.787	2789.67
724.974	2748.72
725.161	2648.36
725.347	2640.17
725.534	2609.45
725.72	2699.56
725.907	2658.6
726.094	2582.83
726.28	2713.9
726.467	2576.69
726.653	2668.84
726.84	2677.04
727.027	2650.41
727.213	2670.89
727.4	2668.84
727.586	2691.37
727.773	2558.25
727.959	2785.58
728.145	2664.75
728.332	2627.89
728.518	2580.78
728.705	2545.97
728.891	2509.1
729.077	2539.82
729.264	2611.5
729.45	2511.15
729.636	2568.49
729.823	2509.1
730.009	2566.45
730.195	2693.42
730.382	2619.69
730.568	2662.7
730.754	2586.93
730.94	2570.54
731.126	2660.65
731.313	2533.68
731.499	2509.1
731.685	2478.38
731.871	2447.66
732.057	2478.38
732.243	2588.97
732.429	2556.21
732.615	2480.43
732.801	2486.58
732.987	2523.44
733.173	2416.94
733.359	2500.91
733.545	2453.81
733.731	2529.58
733.917	2462
734.103	2505.01
734.289	2468.14
734.475	2488.62
734.661	2545.97
734.847	2431.28
735.033	2433.33
735.219	2476.34
735.404	2490.67
735.59	2582.83
735.776	2380.08
735.962	2386.22
736.148	2464.05
736.333	2335.03
736.519	2285.87
736.705	2480.43
736.89	2375.99
737.076	2421.04
737.262	2437.42
737.447	2330.93
737.633	2347.31
737.819	2457.9
738.004	2269.49
738.19	2365.75
738.375	2320.69
738.561	2443.57
738.747	2353.46
738.932	2349.36
739.118	2375.99
739.303	2222.39
739.489	2355.51
739.674	2296.11
739.859	2251.06
740.045	2246.96
740.23	2304.31
740.416	2287.92
740.601	2226.48
740.786	2234.68
740.972	2228.53
741.157	2269.49
741.342	2214.2
741.528	2236.72
741.713	2128.18
741.898	2134.32
742.084	2171.19
742.269	2199.86
742.454	2165.04
742.639	2326.83
742.824	2136.37
743.01	2236.72
743.195	2171.19
743.38	2068.79
743.565	2210.1
743.75	2160.95
743.935	2109.75
744.12	1997.11
744.305	2124.08
744.49	2128.18
744.675	2031.93
744.86	2115.89
745.045	2060.6
745.23	2017.59
745.415	2109.75
745.6	2036.02
745.785	2003.25
745.97	1933.62
746.155	1990.97
746.34	1927.48
746.525	2031.93
746.71	1863.99
746.895	1878.33
747.079	1847.61
747.264	1833.27
747.449	1872.18
747.634	1823.03
747.819	1863.99
748.003	1761.59
748.188	1812.79
748.373	1849.66
748.557	1892.66
748.742	1790.27
748.927	1765.69
749.111	1810.75
749.296	1796.41
749.481	1757.5
749.665	1800.51
749.85	1681.72
750.034	1651
750.219	1706.3
750.404	1636.67
750.588	1698.11
750.773	1667.39
750.957	1636.67
751.141	1763.64
751.326	1651
751.51	1671.48
751.695	1612.09
751.879	1667.39
752.064	1700.16
752.248	1567.04
752.432	1579.33
752.617	1573.18
752.801	1577.28
752.985	1528.13
753.17	1433.92
753.354	1558.85
753.538	1519.93
753.722	1511.74
753.907	1491.26
754.091	1507.65
754.275	1544.51
754.459	1493.31
754.643	1478.97
754.828	1417.54
755.012	1423.68
755.196	1405.25
755.38	1435.97
755.564	1435.97
755.748	1413.44
755.932	1407.3
756.116	1341.76
756.3	1286.47
756.484	1421.63
756.668	1386.82
756.852	1227.07
757.036	1356.1
757.22	1392.96
757.404	1317.19
757.588	1265.99
757.772	1255.75
757.956	1302.85
758.14	1259.84
758.323	1327.43
758.507	1290.56
758.691	1352
758.875	1118.53
759.059	1278.27
759.242	1206.59
759.426	1042.76
759.61	1159.49
759.794	1171.78
759.977	1151.3
760.161	1200.45
760.345	1206.59
760.528	1159.49
760.712	1194.31
760.895	1106.24
761.079	1120.58
761.263	1100.1
761.446	1169.73
761.63	1173.83
761.813	1096
761.997	1067.33
762.18	1139.01
762.364	1091.91
762.547	1122.63
762.731	1093.96
762.914	1065.29
763.098	1128.77
763.281	960.84
763.464	1110.34
763.648	1083.72
763.831	985.41
764.015	1141.06
764.198	1089.86
764.381	1014.09
764.564	1093.96
764.748	1075.52
764.931	1042.76
765.114	975.17
765.297	948.55
765.481	952.65
765.664	1044.81
765.847	958.79
766.03	1009.99
766.213	930.12
766.397	1034.57
766.58	1065.29
766.763	1034.57
766.946	956.74
767.129	981.32
767.312	964.93
767.495	950.6
767.678	917.83
767.861	995.65
768.044	1032.52
768.227	991.56
768.41	958.79
768.593	985.41
768.776	921.93
768.959	889.16
769.142	891.21
769.324	958.79
769.507	895.3
769.69	971.08
769.873	1077.57
770.056	936.26
770.239	876.87
770.421	938.31
770.604	854.34
770.787	874.82
770.97	887.11
771.152	862.54
771.335	950.6
771.518	921.93
771.7	897.35
771.883	897.35
772.066	858.44
772.248	887.11
772.431	833.86
772.613	854.34
772.796	874.82
772.978	835.91
773.161	850.25
773.343	743.75
773.526	846.15
773.708	905.54
773.891	799.05
774.073	829.77
774.256	831.82
774.438	880.97
774.621	760.14
774.803	797
774.985	747.85
775.168	825.67
775.35	823.62
775.532	725.32
775.715	760.14
775.897	768.33
776.079	751.95
776.261	790.86
776.444	776.52
776.626	688.46
776.808	809.29
776.99	696.65
777.173	674.12
777.355	694.6
777.537	588.11
777.719	719.18
777.901	567.63
778.083	713.03
778.265	657.74
778.447	727.37
778.629	608.59
778.811	643.4
778.993	657.74
779.175	663.88
779.357	657.74
779.539	649.55
779.721	629.07
779.903	672.08
780.085	608.59
780.267	598.35
780.449	577.87
780.631	690.51
780.812	708.94
780.994	571.72
781.176	561.48
781.358	637.26
781.54	561.48
781.721	569.68
781.903	553.29
782.085	577.87
782.267	557.39
782.448	534.86
782.63	526.67
782.812	549.2
782.993	575.82
783.175	567.63
783.357	575.82
783.538	506.19
783.72	567.63
783.901	565.58
784.083	500.05
784.264	500.05
784.446	493.9
784.627	524.62
784.809	512.33
784.99	489.81
785.172	444.75
785.353	479.57
785.535	446.8
785.716	512.33
785.897	440.65
786.079	452.94
786.26	477.52
786.441	454.99
786.623	395.6
786.804	405.84
786.985	450.89
787.167	491.85
787.348	411.98
787.529	446.8
787.71	520.53
787.891	448.85
788.073	379.22
788.254	479.57
788.435	364.88
788.616	346.45
788.797	330.06
788.978	346.45
789.159	420.17
789.34	352.59
789.522	354.64
789.703	393.55
789.884	303.44
790.065	395.6
790.246	467.28
790.427	405.84
790.607	387.41
790.788	403.79
790.969	295.25
791.15	375.12
791.331	385.36
791.512	248.15
791.693	422.22
791.874	352.59
792.054	387.41
792.235	399.7
792.416	354.64
792.597	401.74
792.778	426.32
792.958	311.63
793.139	303.44
793.32	354.64
793.5	313.68
793.681	348.5
793.862	334.16
794.042	346.45
794.223	299.34
794.404	356.69
794.584	293.2
794.765	325.97
794.945	211.28
795.126	381.26
795.306	328.02
795.487	336.21
795.667	334.16
795.848	280.91
796.028	293.2
796.209	352.59
796.389	358.74
796.57	287.06
796.75	285.01
796.93	297.3
797.111	282.96
797.291	325.97
797.471	293.2
797.652	194.9
797.832	285.01
798.012	237.91
798.192	201.04
798.373	207.19
798.553	278.87
798.733	276.82
798.913	239.95
799.093	330.06
799.274	299.34
799.454	235.86
799.634	264.53
799.814	289.1
799.994	242
800.174	303.44
800.354	237.91
800.534	233.81
800.714	215.38
800.894	260.43
801.074	198.99
801.254	145.75
801.434	176.47
801.614	198.99
801.794	260.43
801.974	573.77
802.154	221.52
802.334	231.76
802.514	237.91
802.693	194.9
802.873	215.38
803.053	256.34
803.233	221.52
803.413	237.91
803.592	223.57
803.772	188.75
803.952	166.23
804.131	203.09
804.311	211.28
804.491	233.81
804.67	176.47
804.85	151.89
805.03	143.7
805.209	266.58
805.389	192.85
805.568	201.04
805.748	123.22
805.928	227.67
806.107	184.66
806.287	221.52
806.466	250.19
806.646	211.28
806.825	237.91
807.004	227.67
807.184	129.36
807.363	174.42
807.543	125.27
807.722	164.18
807.901	209.23
808.081	184.66
808.26	125.27
808.439	217.43
808.619	198.99
808.798	192.85
808.977	192.85
809.156	182.61
809.336	151.89
809.515	217.43
809.694	72.02
809.873	176.47
810.052	198.99
810.231	192.85
810.411	137.56
810.59	160.08
810.769	219.47
810.948	168.27
811.127	127.32
811.306	145.75
811.485	147.8
811.664	227.67
811.843	141.65
812.022	176.47
812.201	151.89
812.38	190.8
812.559	108.88
812.737	123.22
812.916	166.23
813.095	178.51
813.274	129.36
813.453	117.08
813.632	139.6
813.811	149.84
813.989	164.18
814.168	131.41
814.347	110.93
814.526	162.13
814.704	246.1
814.883	172.37
815.062	160.08
815.24	170.32
815.419	147.8
815.598	229.71
815.776	26.96
815.955	88.4
816.133	59.73
816.312	170.32
816.49	84.31
816.669	153.94
816.847	102.74
817.026	119.12
817.204	80.21
817.383	172.37
817.561	74.07
817.74	139.6
817.918	135.51
818.097	131.41
818.275	133.46
818.453	78.16
818.632	184.66
818.81	84.31
818.988	115.03
819.167	119.12
819.345	112.98
819.523	59.73
819.701	127.32
819.879	123.22
820.058	149.84
820.236	190.8
820.414	98.64
820.592	43.35
820.77	96.6
820.948	84.31
821.127	106.84
821.305	211.28
821.483	90.45
821.661	166.23
821.839	121.17
822.017	166.23
822.195	137.56
822.373	119.12
822.551	67.92
822.729	69.97
822.907	80.21
823.085	110.93
823.262	35.16
823.44	100.69
823.618	80.21
823.796	135.51
823.974	80.21
824.152	72.02
824.329	98.64
824.507	115.03
824.685	88.4
824.863	137.56
825.04	49.49
825.218	155.99
825.396	72.02
825.574	117.08
825.751	127.32
825.929	127.32
826.107	29.01
826.284	67.92
826.462	188.75
826.639	65.88
826.817	96.6
826.994	121.17
827.172	74.07
827.349	108.88
827.527	69.97
827.704	133.46
827.882	125.27
828.059	94.55
828.237	98.64
828.414	112.98
828.591	2.39
828.769	80.21
828.946	94.55
829.124	123.22
829.301	125.27
829.478	137.56
829.655	96.6
829.833	86.36
830.01	119.12
830.187	104.79
830.364	96.6
830.542	67.92
830.719	12.63
830.896	110.93
831.073	82.26
831.25	10.58
831.427	8.53
831.604	125.27
831.782	67.92
831.959	80.21
832.136	151.89
832.313	84.31
832.49	22.87
832.667	65.88
832.844	96.6
833.021	45.4
833.198	4.44
833.374	53.59
833.551	67.92
833.728	76.12
833.905	147.8
834.082	84.31
834.259	86.36
834.436	67.92
834.612	104.79
834.789	59.73
834.966	18.77
835.143	18.77
835.319	74.07
835.496	57.68
835.673	98.64
835.85	41.3
836.026	55.64
836.203	-28.33
836.38	53.59
836.556	39.25
836.733	92.5
836.909	129.36
837.086	67.92
837.262	96.6
837.439	-40.62
837.616	100.69
837.792	41.3
837.968	33.11
838.145	57.68
838.321	31.06
838.498	100.69
838.674	18.77
838.851	123.22
839.027	59.73
839.203	74.07
839.38	22.87
839.556	22.87
839.732	65.88
839.909	18.77
840.085	102.74
840.261	29.01
840.437	43.35
840.614	20.82
840.79	88.4
840.966	115.03
841.142	37.2
841.318	100.69
841.494	37.2
841.671	57.68
841.847	69.97
842.023	78.16
842.199	57.68
842.375	72.02
842.551	-20.14
842.727	-7.85
842.903	92.5
843.079	-9.9
843.255	92.5
843.431	80.21
843.607	24.92
843.783	45.4
843.959	51.54
844.134	53.59
844.31	24.92
844.486	-16.04
844.662	43.35
844.838	-7.85
845.013	115.03
845.189	14.68
845.365	69.97
845.541	63.83
845.716	-3.75
845.892	49.49
846.068	63.83
846.244	41.3
846.419	16.73
846.595	-16.04
846.77	33.11
846.946	67.92
847.122	20.82
847.297	45.4
847.473	76.12
847.648	61.78
847.824	26.96
847.999	12.63
848.175	43.35
848.35	26.96
848.526	82.26
848.701	57.68
848.876	26.96
849.052	57.68
849.227	8.53
849.403	41.3
849.578	35.16
849.753	26.96
849.929	20.82
850.104	-61.1
850.279	47.44
850.454	53.59
850.63	65.88
850.805	63.83
850.98	-7.85
851.155	10.58
851.33	4.44
851.505	12.63
851.681	59.73
851.856	29.01
852.031	47.44
852.206	55.64
852.381	35.16
852.556	24.92
852.731	115.03
852.906	86.36
853.081	74.07
853.256	20.82
853.431	-1.71
853.606	2.39
853.781	0.34
853.956	16.73
854.131	20.82
854.305	-11.95
854.48	-36.52
854.655	-7.85
854.83	-89.77
855.005	78.16
855.18	-9.9
855.354	45.4
855.529	39.25
855.704	6.49
855.879	82.26
856.053	16.73
856.228	45.4
856.403	-46.76
856.577	47.44
856.752	37.2
856.926	18.77
857.101	92.5
857.276	61.78
857.45	10.58
857.625	0.34
857.799	-61.1
857.974	55.64
858.148	63.83
858.323	61.78
858.497	-36.52
858.672	29.01
858.846	-16.04
859.02	-5.8
859.195	2.39
859.369	84.31
859.543	69.97
859.718	47.44
859.892	35.16
860.066	41.3
860.241	-63.15
860.415	-3.75
860.589	41.3
860.763	45.4
860.938	-83.63
861.112	-3.75
861.286	-5.8
861.46	26.96
861.634	-50.86
861.808	37.2
861.982	-7.85
862.157	76.12
862.331	-28.33
862.505	29.01
862.679	-11.95
862.853	47.44
863.027	24.92
863.201	98.64
863.375	53.59
863.549	67.92
863.722	33.11
863.896	55.64
864.07	-46.76
864.244	35.16
864.418	82.26
864.592	12.63
864.766	53.59
864.939	12.63
865.113	6.49
865.287	-20.14
865.461	80.21
865.634	-24.23
865.808	35.16
865.982	31.06
866.156	-61.1
866.329	-13.99
866.503	8.53
866.676	47.44
866.85	16.73
867.024	-24.23
867.197	-65.19
867.371	39.25
867.544	53.59
867.718	29.01
867.891	0.34
868.065	-28.33
868.238	-46.76
868.412	78.16
868.585	12.63
868.759	51.54
868.932	8.53
869.105	24.92
869.279	-30.38
869.452	39.25
869.625	74.07
869.799	-22.19
869.972	-26.28
870.145	12.63
870.319	69.97
870.492	-11.95
870.665	16.73
870.838	55.64
871.011	-28.33
871.185	6.49
871.358	49.49
871.531	20.82
871.704	-7.85
871.877	22.87
872.05	49.49
872.223	-75.43
872.396	-3.75
872.569	18.77
872.742	-1.71
872.915	-11.95
873.088	-28.33
873.261	24.92
873.434	-48.81
873.607	24.92
873.78	-77.48
873.953	-20.14
874.126	80.21
874.299	2.39
874.471	-71.34
874.644	12.63
874.817	74.07
874.99	18.77
875.163	-5.8
875.335	-71.34
875.508	22.87
875.681	8.53
875.853	-11.95
876.026	51.54
876.199	45.4
876.371	49.49
876.544	-44.71
876.717	22.87
876.889	26.96
877.062	59.73
877.234	74.07
877.407	-9.9
877.579	-11.95
877.752	4.44
877.924	72.02
878.097	-32.43
878.269	0.34
878.442	29.01
878.614	63.83
878.786	-7.85
878.959	-20.14
879.131	-16.04
879.303	-7.85
879.476	39.25
879.648	37.2
879.82	-9.9
879.993	57.68
880.165	-28.33
880.337	-93.87
880.509	10.58
880.681	-28.33
880.854	84.31
881.026	16.73
881.198	39.25
881.37	-20.14
881.542	-30.38
881.714	-36.52
881.886	-18.09
882.058	61.78
882.23	90.45
882.402	-67.24
882.574	10.58
882.746	86.36
882.918	12.63
883.09	8.53
883.262	-26.28
883.434	22.87
883.606	-13.99
883.778	-38.57
883.95	10.58
884.122	20.82
884.293	41.3
884.465	-42.67
884.637	31.06
884.809	39.25
884.98	84.31
885.152	6.49
885.324	-24.23
885.496	-7.85
885.667	-73.39
885.839	-46.76
886.011	-24.23
886.182	14.68
886.354	61.78
886.525	43.35
886.697	45.4
886.869	49.49
887.04	14.68
887.212	-1.71
887.383	31.06
887.555	12.63
887.726	-42.67
887.897	-54.95
888.069	-7.85
888.24	74.07
888.412	0.34
888.583	-69.29
888.754	39.25
888.926	18.77
889.097	8.53
889.268	-69.29
889.44	-77.48
889.611	-11.95
889.782	35.16
889.953	6.49
890.125	-36.52
890.296	18.77
890.467	76.12
890.638	16.73
890.809	24.92
890.98	-16.04
891.151	35.16
891.323	59.73
891.494	-5.8
891.665	39.25
891.836	35.16
892.007	-40.62
892.178	31.06
892.349	2.39
892.52	-11.95
892.691	-24.23
892.862	6.49
893.032	-48.81
893.203	6.49
893.374	14.68
893.545	-9.9
893.716	-50.86
893.887	-7.85
894.057	16.73
894.228	-32.43
894.399	-22.19
894.57	20.82
894.74	-16.04
894.911	47.44
895.082	29.01
895.253	-40.62
895.423	-91.82
895.594	16.73
895.764	-50.86
895.935	12.63
896.106	-5.8
896.276	-42.67
896.447	49.49
896.617	-32.43
896.788	14.68
896.958	47.44
897.129	6.49
897.299	-57
897.47	51.54
897.64	26.96
897.81	-24.23
897.981	31.06
898.151	-20.14
898.322	-26.28
898.492	22.87
898.662	10.58
898.832	-3.75
899.003	-65.19
899.173	-65.19
899.343	-13.99
899.513	-16.04
