Data from USB4F104151__58__11-52-27-242.txt Node

Date: Fri Mar 14 11:52:27 EDT 2025
User: louis
Spectrometer: USB4F10415
Trigger mode: 4
Integration Time (sec): 2.000000E-2
Scans to average: 1
Electric dark correction enabled: true
Nonlinearity correction enabled: false
Boxcar width: 0
XAxis mode: Wavelengths
Number of Pixels in Spectrum: 3648
>>>>>Begin Spectral Data<<<<<
178.204	-34.47
178.424	-34.47
178.644	-34.47
178.864	-73.39
179.084	-89.77
179.304	29.01
179.524	10.58
179.744	31.06
179.964	37.2
180.184	-30.38
180.404	-34.47
180.624	24.92
180.844	-83.63
181.064	-61.1
181.283	-11.95
181.503	92.5
181.723	-3.75
181.943	-77.48
182.163	43.35
182.383	55.64
182.602	72.02
182.822	35.16
183.042	8.53
183.262	45.4
183.482	-20.14
183.701	-24.23
183.921	-7.85
184.141	-20.14
184.361	78.16
184.58	-9.9
184.8	37.2
185.02	39.25
185.239	74.07
185.459	14.68
185.679	57.68
185.898	-50.86
186.118	-22.19
186.338	41.3
186.557	69.97
186.777	16.73
186.997	10.58
187.216	-57
187.436	72.02
187.655	-3.75
187.875	29.01
188.095	86.36
188.314	35.16
188.534	-30.38
188.753	57.68
188.973	18.77
189.192	55.64
189.412	-30.38
189.631	57.68
189.851	26.96
190.07	35.16
190.29	-20.14
190.509	63.83
190.729	-46.76
190.948	41.3
191.168	90.45
191.387	-5.8
191.607	-32.43
191.826	29.01
192.045	-16.04
192.265	98.64
192.484	39.25
192.704	0.34
192.923	31.06
193.142	31.06
193.362	2.39
193.581	26.96
193.8	0.34
194.02	22.87
194.239	-20.14
194.458	72.02
194.678	61.78
194.897	-32.43
195.116	137.56
195.335	22.87
195.555	12.63
195.774	-26.28
195.993	63.83
196.212	33.11
196.432	-46.76
196.651	12.63
196.87	0.34
197.089	108.88
197.308	96.6
197.528	-5.8
197.747	6.49
197.966	74.07
198.185	39.25
198.404	-1.71
198.623	-5.8
198.842	39.25
199.062	31.06
199.281	10.58
199.5	22.87
199.719	43.35
199.938	84.31
200.157	123.22
200.376	-9.9
200.595	43.35
200.814	53.59
201.033	16.73
201.252	65.88
201.471	10.58
201.69	55.64
201.909	76.12
202.128	2.39
202.347	67.92
202.566	53.59
202.785	61.78
203.004	-13.99
203.223	65.88
203.442	88.4
203.661	-11.95
203.879	-1.71
204.098	20.82
204.317	-22.19
204.536	133.46
204.755	45.4
204.974	43.35
205.193	-30.38
205.411	43.35
205.63	74.07
205.849	16.73
206.068	43.35
206.287	61.78
206.505	74.07
206.724	-26.28
206.943	43.35
207.162	20.82
207.381	-5.8
207.599	14.68
207.818	22.87
208.037	-40.62
208.255	-32.43
208.474	78.16
208.693	59.73
208.911	-52.91
209.13	51.54
209.349	76.12
209.567	-11.95
209.786	67.92
210.005	49.49
210.223	61.78
210.442	-3.75
210.661	69.97
210.879	31.06
211.098	-46.76
211.316	35.16
211.535	76.12
211.753	61.78
211.972	72.02
212.191	6.49
212.409	22.87
212.628	20.82
212.846	47.44
213.065	39.25
213.283	47.44
213.502	57.68
213.72	-18.09
213.938	37.2
214.157	53.59
214.375	16.73
214.594	53.59
214.812	29.01
215.031	31.06
215.249	-1.71
215.467	6.49
215.686	41.3
215.904	49.49
216.122	-1.71
216.341	-13.99
216.559	51.54
216.778	78.16
216.996	84.31
217.214	-13.99
217.432	35.16
217.651	-13.99
217.869	37.2
218.087	12.63
218.306	31.06
218.524	41.3
218.742	4.44
218.96	43.35
219.179	35.16
219.397	59.73
219.615	65.88
219.833	-3.75
220.051	31.06
220.27	0.34
220.488	24.92
220.706	-9.9
220.924	0.34
221.142	35.16
221.36	-52.91
221.578	10.58
221.796	-52.91
222.015	-44.71
222.233	10.58
222.451	31.06
222.669	6.49
222.887	10.58
223.105	6.49
223.323	84.31
223.541	-71.34
223.759	37.2
223.977	-30.38
224.195	47.44
224.413	10.58
224.631	49.49
224.849	76.12
225.067	59.73
225.285	8.53
225.503	-3.75
225.721	0.34
225.939	82.26
226.157	39.25
226.375	125.27
226.592	4.44
226.81	18.77
227.028	29.01
227.246	43.35
227.464	-32.43
227.682	82.26
227.9	31.06
228.117	2.39
228.335	14.68
228.553	-50.86
228.771	6.49
228.989	29.01
229.206	39.25
229.424	-16.04
229.642	-34.47
229.86	-7.85
230.077	92.5
230.295	39.25
230.513	-57
230.731	-5.8
230.948	26.96
231.166	41.3
231.384	14.68
231.601	26.96
231.819	74.07
232.037	26.96
232.254	16.73
232.472	49.49
232.689	47.44
232.907	57.68
233.125	-22.19
233.342	24.92
233.56	12.63
233.777	29.01
233.995	4.44
234.213	22.87
234.43	78.16
234.648	39.25
234.865	31.06
235.083	26.96
235.3	0.34
235.518	0.34
235.735	18.77
235.953	51.54
236.17	41.3
236.388	78.16
236.605	-26.28
236.822	37.2
237.04	84.31
237.257	69.97
237.475	8.53
237.692	10.58
237.909	117.08
238.127	4.44
238.344	8.53
238.562	6.49
238.779	-22.19
238.996	53.59
239.214	63.83
239.431	33.11
239.648	-3.75
239.865	-7.85
240.083	78.16
240.3	61.78
240.517	-7.85
240.735	26.96
240.952	74.07
241.169	69.97
241.386	35.16
241.603	4.44
241.821	37.2
242.038	12.63
242.255	12.63
242.472	26.96
242.689	6.49
242.907	-13.99
243.124	-13.99
243.341	51.54
243.558	-44.71
243.775	6.49
243.992	35.16
244.209	31.06
244.426	74.07
244.643	-13.99
244.86	-36.52
245.078	-7.85
245.295	55.64
245.512	-42.67
245.729	0.34
245.946	69.97
246.163	31.06
246.38	6.49
246.597	-5.8
246.814	10.58
247.031	6.49
247.248	33.11
247.464	57.68
247.681	14.68
247.898	-9.9
248.115	57.68
248.332	8.53
248.549	8.53
248.766	92.5
248.983	82.26
249.2	37.2
249.417	61.78
249.633	-46.76
249.85	29.01
250.067	2.39
250.284	41.3
250.501	-24.23
250.717	16.73
250.934	37.2
251.151	51.54
251.368	-89.77
251.585	39.25
251.801	12.63
252.018	18.77
252.235	33.11
252.451	12.63
252.668	4.44
252.885	67.92
253.102	43.35
253.318	18.77
253.535	55.64
253.752	-5.8
253.968	16.73
254.185	-46.76
254.401	-20.14
254.618	26.96
254.835	16.73
255.051	53.59
255.268	16.73
255.484	47.44
255.701	43.35
255.917	35.16
256.134	18.77
256.351	43.35
256.567	72.02
256.784	57.68
257	-28.33
257.217	61.78
257.433	18.77
257.65	20.82
257.866	-20.14
258.082	22.87
258.299	-28.33
258.515	35.16
258.732	8.53
258.948	14.68
259.165	45.4
259.381	-18.09
259.597	51.54
259.814	35.16
260.03	43.35
260.246	31.06
260.463	117.08
260.679	35.16
260.895	31.06
261.112	24.92
261.328	35.16
261.544	45.4
261.761	61.78
261.977	22.87
262.193	-7.85
262.409	63.83
262.626	49.49
262.842	0.34
263.058	4.44
263.274	115.03
263.49	-1.71
263.707	29.01
263.923	22.87
264.139	47.44
264.355	-1.71
264.571	88.4
264.787	0.34
265.004	33.11
265.22	63.83
265.436	4.44
265.652	-20.14
265.868	-20.14
266.084	12.63
266.3	100.69
266.516	67.92
266.732	47.44
266.948	84.31
267.164	0.34
267.38	-7.85
267.596	-30.38
267.812	67.92
268.028	37.2
268.244	29.01
268.46	4.44
268.676	8.53
268.892	51.54
269.108	10.58
269.324	35.16
269.54	31.06
269.756	22.87
269.972	14.68
270.188	16.73
270.403	8.53
270.619	14.68
270.835	94.55
271.051	20.82
271.267	37.2
271.483	63.83
271.698	-20.14
271.914	4.44
272.13	59.73
272.346	41.3
272.562	33.11
272.777	35.16
272.993	6.49
273.209	6.49
273.425	49.49
273.64	-16.04
273.856	41.3
274.072	43.35
274.287	43.35
274.503	16.73
274.719	-16.04
274.934	-18.09
275.15	-28.33
275.366	22.87
275.581	20.82
275.797	59.73
276.012	72.02
276.228	33.11
276.444	65.88
276.659	78.16
276.875	45.4
277.09	18.77
277.306	0.34
277.521	65.88
277.737	69.97
277.952	51.54
278.168	39.25
278.383	47.44
278.599	63.83
278.814	35.16
279.03	80.21
279.245	82.26
279.461	61.78
279.676	92.5
279.892	-18.09
280.107	49.49
280.322	24.92
280.538	33.11
280.753	-7.85
280.969	8.53
281.184	-34.47
281.399	10.58
281.615	10.58
281.83	39.25
282.045	76.12
282.26	55.64
282.476	-3.75
282.691	20.82
282.906	43.35
283.122	31.06
283.337	39.25
283.552	-1.71
283.767	22.87
283.983	31.06
284.198	-18.09
284.413	12.63
284.628	2.39
284.843	33.11
285.058	-42.67
285.274	14.68
285.489	26.96
285.704	24.92
285.919	57.68
286.134	22.87
286.349	55.64
286.564	143.7
286.779	76.12
286.995	65.88
287.21	39.25
287.425	47.44
287.64	53.59
287.855	112.98
288.07	2.39
288.285	55.64
288.5	112.98
288.715	26.96
288.93	133.46
289.145	43.35
289.36	-30.38
289.575	-20.14
289.79	67.92
290.004	43.35
290.219	57.68
290.434	45.4
290.649	14.68
290.864	100.69
291.079	61.78
291.294	84.31
291.509	53.59
291.724	49.49
291.938	18.77
292.153	41.3
292.368	-16.04
292.583	125.27
292.798	-9.9
293.012	80.21
293.227	39.25
293.442	39.25
293.657	2.39
293.871	24.92
294.086	35.16
294.301	22.87
294.516	51.54
294.73	0.34
294.945	35.16
295.16	26.96
295.374	72.02
295.589	115.03
295.804	-11.95
296.018	53.59
296.233	74.07
296.447	-18.09
296.662	10.58
296.877	57.68
297.091	67.92
297.306	22.87
297.52	-48.81
297.735	31.06
297.949	63.83
298.164	51.54
298.378	-7.85
298.593	24.92
298.807	-7.85
299.022	74.07
299.236	18.77
299.451	31.06
299.665	-9.9
299.88	37.2
300.094	100.69
300.309	-1.71
300.523	33.11
300.737	37.2
300.952	4.44
301.166	80.21
301.381	55.64
301.595	39.25
301.809	2.39
302.024	-11.95
302.238	61.78
302.452	76.12
302.667	35.16
302.881	67.92
303.095	12.63
303.309	49.49
303.524	-1.71
303.738	98.64
303.952	51.54
304.166	-22.19
304.381	-9.9
304.595	80.21
304.809	-9.9
305.023	-16.04
305.237	0.34
305.452	51.54
305.666	20.82
305.88	16.73
306.094	69.97
306.308	63.83
306.522	-44.71
306.736	39.25
306.95	24.92
307.164	41.3
307.379	-34.47
307.593	2.39
307.807	49.49
308.021	65.88
308.235	57.68
308.449	-34.47
308.663	-54.95
308.877	82.26
309.091	92.5
309.305	43.35
309.519	37.2
309.733	35.16
309.947	55.64
310.161	45.4
310.374	84.31
310.588	100.69
310.802	-26.28
311.016	-11.95
311.23	-5.8
311.444	-5.8
311.658	-22.19
311.872	35.16
312.085	47.44
312.299	6.49
312.513	45.4
312.727	6.49
312.941	43.35
313.154	53.59
313.368	74.07
313.582	33.11
313.796	43.35
314.009	47.44
314.223	2.39
314.437	35.16
314.651	12.63
314.864	-9.9
315.078	26.96
315.292	78.16
315.505	-18.09
315.719	-26.28
315.933	47.44
316.146	2.39
316.36	-34.47
316.573	59.73
316.787	-28.33
317.001	51.54
317.214	4.44
317.428	45.4
317.641	-3.75
317.855	-7.85
318.068	14.68
318.282	-44.71
318.495	-13.99
318.709	12.63
318.922	2.39
319.136	8.53
319.349	88.4
319.563	47.44
319.776	24.92
319.99	84.31
320.203	8.53
320.417	61.78
320.63	-13.99
320.843	61.78
321.057	6.49
321.27	63.83
321.483	8.53
321.697	22.87
321.91	90.45
322.124	-20.14
322.337	24.92
322.55	53.59
322.763	-28.33
322.977	-11.95
323.19	-54.95
323.403	-9.9
323.617	24.92
323.83	63.83
324.043	-26.28
324.256	49.49
324.469	-7.85
324.683	80.21
324.896	86.36
325.109	92.5
325.322	16.73
325.535	37.2
325.748	59.73
325.962	31.06
326.175	-5.8
326.388	37.2
326.601	8.53
326.814	90.45
327.027	65.88
327.24	10.58
327.453	-11.95
327.666	45.4
327.879	55.64
328.092	35.16
328.305	76.12
328.518	37.2
328.731	41.3
328.944	8.53
329.157	8.53
329.37	49.49
329.583	-7.85
329.796	117.08
330.009	49.49
330.222	18.77
330.435	139.6
330.648	-3.75
330.861	22.87
331.073	14.68
331.286	65.88
331.499	80.21
331.712	18.77
331.925	80.21
332.138	10.58
332.35	100.69
332.563	57.68
332.776	10.58
332.989	55.64
333.202	26.96
333.414	29.01
333.627	2.39
333.84	10.58
334.053	41.3
334.265	22.87
334.478	-48.81
334.691	43.35
334.903	63.83
335.116	76.12
335.329	24.92
335.541	49.49
335.754	20.82
335.966	6.49
336.179	37.2
336.392	4.44
336.604	-36.52
336.817	84.31
337.029	74.07
337.242	39.25
337.454	63.83
337.667	24.92
337.88	102.74
338.092	100.69
338.305	16.73
338.517	106.84
338.729	35.16
338.942	88.4
339.154	-7.85
339.367	-5.8
339.579	2.39
339.792	84.31
340.004	4.44
340.217	24.92
340.429	33.11
340.641	2.39
340.854	82.26
341.066	37.2
341.278	39.25
341.491	86.36
341.703	-3.75
341.915	43.35
342.128	61.78
342.34	-13.99
342.552	6.49
342.764	57.68
342.977	59.73
343.189	67.92
343.401	4.44
343.613	-32.43
343.826	8.53
344.038	-1.71
344.25	4.44
344.462	45.4
344.674	65.88
344.886	-28.33
345.099	110.93
345.311	-3.75
345.523	78.16
345.735	29.01
345.947	78.16
346.159	8.53
346.371	31.06
346.583	35.16
346.795	22.87
347.007	94.55
347.219	72.02
347.431	51.54
347.643	61.78
347.855	31.06
348.067	14.68
348.279	35.16
348.491	8.53
348.703	6.49
348.915	78.16
349.127	14.68
349.339	31.06
349.551	-3.75
349.763	6.49
349.975	53.59
350.187	100.69
350.399	26.96
350.61	31.06
350.822	18.77
351.034	51.54
351.246	-5.8
351.458	26.96
351.669	18.77
351.881	26.96
352.093	102.74
352.305	100.69
352.517	63.83
352.728	35.16
352.94	24.92
353.152	31.06
353.363	59.73
353.575	90.45
353.787	125.27
353.999	67.92
354.21	47.44
354.422	82.26
354.633	8.53
354.845	57.68
355.057	45.4
355.268	41.3
355.48	14.68
355.692	51.54
355.903	14.68
356.115	98.64
356.326	57.68
356.538	131.41
356.749	24.92
356.961	127.32
357.172	57.68
357.384	-20.14
357.595	59.73
357.807	22.87
358.018	12.63
358.23	82.26
358.441	80.21
358.653	61.78
358.864	14.68
359.075	-1.71
359.287	65.88
359.498	24.92
359.709	43.35
359.921	63.83
360.132	59.73
360.344	117.08
360.555	8.53
360.766	82.26
360.977	2.39
361.189	20.82
361.4	20.82
361.611	39.25
361.823	6.49
362.034	18.77
362.245	4.44
362.456	33.11
362.667	20.82
362.879	102.74
363.09	57.68
363.301	57.68
363.512	20.82
363.723	24.92
363.935	20.82
364.146	57.68
364.357	29.01
364.568	94.55
364.779	10.58
364.99	47.44
365.201	33.11
365.412	53.59
365.623	14.68
365.834	-3.75
366.045	63.83
366.256	22.87
366.467	35.16
366.678	117.08
366.889	16.73
367.1	51.54
367.311	84.31
367.522	-1.71
367.733	59.73
367.944	59.73
368.155	-24.23
368.366	94.55
368.577	115.03
368.788	39.25
368.999	43.35
369.209	39.25
369.42	29.01
369.631	155.99
369.842	-34.47
370.053	63.83
370.264	47.44
370.474	51.54
370.685	-30.38
370.896	29.01
371.107	57.68
371.317	-13.99
371.528	98.64
371.739	65.88
371.95	-22.19
372.16	61.78
372.371	57.68
372.582	63.83
372.792	24.92
373.003	-11.95
373.214	16.73
373.424	49.49
373.635	80.21
373.846	59.73
374.056	69.97
374.267	41.3
374.477	74.07
374.688	31.06
374.898	35.16
375.109	41.3
375.319	78.16
375.53	55.64
375.74	88.4
375.951	14.68
376.161	29.01
376.372	94.55
376.582	49.49
376.793	88.4
377.003	-24.23
377.214	24.92
377.424	-20.14
377.635	-9.9
377.845	-3.75
378.055	63.83
378.266	4.44
378.476	92.5
378.686	65.88
378.897	55.64
379.107	63.83
379.317	29.01
379.528	8.53
379.738	59.73
379.948	0.34
380.158	43.35
380.369	51.54
380.579	8.53
380.789	39.25
380.999	104.79
381.21	72.02
381.42	57.68
381.63	61.78
381.84	65.88
382.05	18.77
382.261	16.73
382.471	74.07
382.681	22.87
382.891	123.22
383.101	88.4
383.311	-1.71
383.521	80.21
383.731	106.84
383.941	53.59
384.151	33.11
384.361	-22.19
384.571	117.08
384.781	35.16
384.991	110.93
385.201	84.31
385.411	8.53
385.621	88.4
385.831	41.3
386.041	33.11
386.251	55.64
386.461	51.54
386.671	6.49
386.881	59.73
387.091	16.73
387.301	53.59
387.511	100.69
387.72	104.79
387.93	67.92
388.14	51.54
388.35	39.25
388.56	61.78
388.769	-22.19
388.979	24.92
389.189	10.58
389.399	90.45
389.609	24.92
389.818	47.44
390.028	104.79
390.238	8.53
390.447	55.64
390.657	49.49
390.867	53.59
391.076	33.11
391.286	18.77
391.496	108.88
391.705	33.11
391.915	102.74
392.125	18.77
392.334	59.73
392.544	67.92
392.753	20.82
392.963	41.3
393.172	55.64
393.382	61.78
393.591	80.21
393.801	39.25
394.01	78.16
394.22	12.63
394.429	88.4
394.639	31.06
394.848	65.88
395.058	82.26
395.267	37.2
395.477	102.74
395.686	117.08
395.895	147.8
396.105	131.41
396.314	98.64
396.524	90.45
396.733	59.73
396.942	76.12
397.152	96.6
397.361	104.79
397.57	-1.71
397.78	43.35
397.989	41.3
398.198	188.75
398.407	160.08
398.617	41.3
398.826	117.08
399.035	-30.38
399.244	61.78
399.453	82.26
399.663	106.84
399.872	86.36
400.081	82.26
400.29	145.75
400.499	98.64
400.708	47.44
400.917	78.16
401.127	119.12
401.336	129.36
401.545	98.64
401.754	96.6
401.963	121.17
402.172	121.17
402.381	72.02
402.59	100.69
402.799	143.7
403.008	65.88
403.217	115.03
403.426	147.8
403.635	86.36
403.844	92.5
404.053	153.94
404.262	61.78
404.471	174.42
404.68	131.41
404.888	270.67
405.097	139.6
405.306	112.98
405.515	168.27
405.724	119.12
405.933	145.75
406.142	141.65
406.35	229.71
406.559	166.23
406.768	147.8
406.977	276.82
407.185	207.19
407.394	194.9
407.603	121.17
407.812	192.85
408.02	266.58
408.229	215.38
408.438	205.14
408.646	145.75
408.855	160.08
409.064	235.86
409.272	272.72
409.481	297.3
409.69	219.47
409.898	254.29
410.107	252.24
410.315	268.63
410.524	266.58
410.733	209.23
410.941	332.11
411.15	317.78
411.358	291.15
411.567	383.31
411.775	262.48
411.984	385.36
412.192	434.51
412.401	291.15
412.609	411.98
412.818	485.71
413.026	434.51
413.234	389.46
413.443	426.32
413.651	430.41
413.86	459.09
414.068	610.64
414.276	590.16
414.485	579.92
414.693	571.72
414.901	598.35
415.11	569.68
415.318	569.68
415.526	684.36
415.734	721.23
415.943	725.32
416.151	667.98
416.359	778.57
416.567	807.24
416.776	790.86
416.984	837.96
417.192	840.01
417.4	856.39
417.608	930.12
417.817	907.59
418.025	930.12
418.233	993.61
418.441	1087.81
418.649	1036.61
418.857	1067.33
419.065	1184.07
419.273	1167.68
419.481	1245.51
419.689	1349.95
419.897	1308.99
420.105	1345.86
420.313	1423.68
420.521	1364.29
420.729	1456.45
420.937	1511.74
421.145	1495.36
421.353	1530.17
421.561	1667.39
421.769	1763.64
421.977	1802.55
422.185	1843.51
422.393	1876.28
422.601	1896.76
422.809	2044.21
423.017	1970.49
423.224	2124.08
423.432	2111.8
423.64	2165.04
423.848	2455.86
424.056	2292.02
424.263	2521.39
424.471	2529.58
424.679	2562.35
424.887	2679.08
425.094	2744.62
425.302	2718
425.51	2935.08
425.718	2935.08
425.925	3049.77
426.133	3139.88
426.341	3320.1
426.548	3397.92
426.756	3377.44
426.964	3389.73
427.171	3756.32
427.379	3610.91
427.586	3832.09
427.794	3920.15
428.001	4217.11
428.209	4286.74
428.417	4342.04
428.624	4544.78
428.832	4409.62
429.039	4466.96
429.247	4583.7
429.454	5042.44
429.662	5110.02
429.869	4978.95
430.076	5310.72
430.284	5081.35
430.491	5413.12
430.699	5619.97
430.906	5773.57
431.114	5773.57
431.321	6052.09
431.528	6158.58
431.736	6551.79
431.943	6820.08
432.15	6664.43
432.358	6615.28
432.565	7037.16
432.772	6955.24
432.979	7223.53
433.187	7667.94
433.394	7485.67
433.601	8055
433.808	7985.37
434.016	7946.46
434.223	8411.35
434.43	8812.75
434.637	8597.71
434.844	9070.79
435.052	9519.3
435.259	9277.64
435.466	9459.91
435.673	9259.21
435.88	10107.07
436.087	10397.88
436.294	10496.18
436.501	10094.78
436.708	10422.45
436.915	10975.41
437.122	11298.98
437.329	11135.15
437.537	11624.61
437.743	11724.96
437.95	11770.02
438.157	12447.9
438.364	12724.37
438.571	12832.91
438.778	12785.81
438.985	14184.57
439.192	13402.25
439.399	13740.16
439.606	13559.94
439.813	14248.06
440.02	15202.41
440.227	14909.55
440.433	14784.63
440.64	15161.45
440.847	14919.79
441.054	15435.88
441.261	16365.66
441.467	16205.92
441.674	16740.44
441.881	17465.42
442.088	17039.44
442.294	17053.78
442.501	17578.06
442.708	17907.78
442.914	18485.31
443.121	19515.44
443.328	18960.44
443.534	20080.67
443.741	19669.03
443.948	19343.41
444.154	20668.44
444.361	20494.36
444.568	20750.36
444.774	20899.86
444.981	21057.56
445.187	21684.23
445.394	22185.99
445.6	22499.33
445.807	24233.96
446.013	23222.26
446.22	23822.31
446.426	24584.16
446.633	24500.19
446.839	25544.66
447.046	24836.06
447.252	25477.07
447.459	25915.34
447.665	25921.48
447.871	27123.64
448.078	28106.66
448.284	27058.1
448.491	27355.06
448.697	28575.65
448.903	29104.03
449.11	29489.04
449.316	28602.27
449.522	29460.37
449.728	29949.84
449.935	30105.48
450.141	30140.3
450.347	30709.63
450.553	29908.88
450.76	30453.64
450.966	31557.49
451.172	31016.83
451.378	31862.64
451.584	30982.01
451.791	32333.67
451.997	31776.62
452.203	32550.76
452.409	32796.51
452.615	32159.59
452.821	31125.37
453.027	30930.81
453.233	32460.65
453.44	31195
453.646	31473.53
453.852	31649.65
454.058	31985.52
454.264	31262.58
454.47	31768.43
454.676	31106.94
454.882	31973.23
455.088	29585.3
455.294	29511.57
455.5	30306.18
455.705	30519.17
455.911	29312.92
456.117	28534.69
456.323	28196.78
456.529	26970.04
456.735	28151.72
456.941	27389.88
457.147	26654.65
457.352	25989.06
457.558	25860.04
457.764	25960.39
457.97	25313.24
458.176	24694.75
458.381	24782.81
458.587	23455.73
458.793	23959.53
458.999	22353.92
459.204	23828.46
459.41	23269.36
459.616	21843.98
459.821	21819.4
460.027	21966.85
460.233	21059.6
460.438	20019.24
460.644	20375.58
460.85	19243.06
461.055	19263.54
461.261	19433.52
461.466	17729.61
461.672	17061.97
461.878	18468.92
462.083	17279.05
462.289	17133.65
462.494	16623.7
462.7	15724.65
462.905	15437.93
463.111	15960.16
463.316	16107.62
463.522	15724.65
463.727	15722.6
463.932	15761.51
464.138	15630.44
464.343	15673.45
464.549	15104.11
464.754	15876.2
464.959	15517.8
465.165	15616.1
465.37	14913.65
465.575	14274.68
465.781	14962.8
465.986	15167.6
466.191	14721.14
466.397	14215.29
466.602	13492.36
466.807	14069.89
467.012	14041.22
467.218	13910.15
467.423	14102.65
467.628	13990.02
467.833	14493.82
468.038	13834.37
468.244	13445.26
468.449	14004.35
468.654	13369.48
468.859	13553.8
469.064	13353.1
469.269	12972.18
469.474	13047.95
469.679	13226.12
469.885	12970.13
470.09	13275.27
470.295	12935.31
470.5	12546.2
470.705	12818.58
470.91	12490.9
471.115	12497.05
471.32	12408.98
471.525	12525.72
471.73	12306.59
471.935	12134.56
472.139	11669.67
472.344	12050.59
472.549	11724.96
472.754	11593.89
472.959	11557.03
473.164	11137.2
473.369	10969.26
473.574	11497.64
473.778	11313.32
473.983	11129
474.188	11100.33
474.393	10692.79
474.598	10584.24
474.802	10569.91
475.007	10672.31
475.212	10629.3
475.417	10012.86
475.621	10434.74
475.826	10123.45
476.031	9892.03
476.235	9734.34
476.44	9951.42
476.645	9724.1
476.849	9664.71
477.054	9455.81
477.259	9384.13
477.463	9656.51
477.668	9208.01
477.872	9316.55
478.077	9269.45
478.282	9001.16
478.486	8982.73
478.691	8974.54
478.895	8939.72
479.1	8730.83
479.304	8982.73
479.509	8667.35
479.713	8601.81
479.918	8558.8
480.122	8401.11
480.326	8579.28
480.531	8571.09
480.735	8411.35
480.94	8417.49
481.144	8480.98
481.348	8138.97
481.553	8478.93
481.757	8149.21
481.961	8286.42
482.166	8474.84
482.37	8218.84
482.574	7954.65
482.778	7999.71
482.983	8425.68
483.187	8046.81
483.391	8141.02
483.595	8075.48
483.8	8073.43
484.004	8085.72
484.208	8167.64
484.412	8280.28
484.616	8026.33
484.821	8259.8
485.025	8134.87
485.229	8257.75
485.433	8114.39
485.637	8192.22
485.841	8229.08
486.045	8141.02
486.249	8224.98
486.453	8128.73
486.657	8138.97
486.861	8368.34
487.065	7913.69
487.269	8169.69
487.473	7895.26
487.677	8079.58
487.881	8194.26
488.085	8034.52
488.289	8329.43
488.493	8276.18
488.697	8341.72
488.901	8194.26
489.105	8255.7
489.309	8151.26
489.512	8292.57
489.716	8120.54
489.92	8257.75
490.124	8331.48
490.328	8302.81
490.531	8425.68
490.735	8130.78
490.939	8335.57
491.143	8503.51
491.346	8216.79
491.55	8528.08
491.754	8456.4
491.958	8626.39
492.161	8526.04
492.365	8595.67
492.569	8589.52
492.772	8587.47
492.976	8583.38
493.18	8681.68
493.383	8870.09
493.587	8755.41
493.79	8837.33
493.994	8804.56
494.197	8997.07
494.401	9087.18
494.605	9124.04
494.808	9087.18
495.012	9085.13
495.215	9078.99
495.419	9371.85
495.622	9195.72
495.825	9496.77
496.029	9521.35
496.232	9697.47
496.436	9605.31
496.639	9633.99
496.843	9926.85
497.046	9865.41
497.249	10145.98
497.453	10172.6
497.656	10238.14
497.859	10158.27
498.063	10531
498.266	10606.77
498.469	10539.19
498.673	10723.51
498.876	10784.94
499.079	10834.1
499.282	11002.03
499.485	11309.22
499.689	11104.43
499.892	11391.14
500.095	11382.95
500.298	11708.58
500.501	11622.56
500.705	11917.47
500.908	11903.14
501.111	12085.4
501.314	12294.3
501.517	12263.58
501.72	12492.95
501.923	12464.28
502.126	12695.7
502.329	13086.86
502.532	13025.42
502.735	13088.91
502.938	13349
503.141	13412.49
503.344	13635.72
503.547	13478.02
503.75	13574.28
503.953	13965.44
504.156	14182.52
504.359	14334.07
504.562	14512.25
504.765	14749.81
504.968	14909.55
505.17	14973.04
505.373	15046.77
505.576	15241.32
505.779	15362.15
505.982	15439.98
506.185	15579.24
506.387	16011.36
506.59	15618.15
506.793	16392.28
506.996	16140.38
507.198	16640.09
507.401	16617.56
507.604	16715.86
507.807	17324.11
508.009	17143.89
508.212	17299.53
508.415	17330.25
508.617	17657.93
508.82	18088
509.022	17913.92
509.225	18270.27
509.428	18335.81
509.63	18401.34
509.833	18331.71
510.035	18843.7
510.238	19066.93
510.44	19269.68
510.643	19355.69
510.845	19492.91
511.048	19435.56
511.25	19859.49
511.453	19937.32
511.655	20893.72
511.858	20410.4
512.06	20697.11
512.262	20938.77
512.465	20783.13
512.667	21211.15
512.87	21454.86
513.072	21585.93
513.274	21929.99
513.477	22163.46
513.679	22575.1
513.881	22607.87
514.084	22847.48
514.286	22603.77
514.488	23017.46
514.69	23470.06
514.893	23465.97
515.095	23486.45
515.297	24139.75
515.499	24002.54
515.701	24307.68
515.904	24440.8
516.106	25016.28
516.308	24915.93
516.51	25137.11
516.712	25513.94
516.914	25614.29
517.116	25952.2
517.318	26054.6
517.52	26122.18
517.722	26216.39
517.925	26552.26
518.127	26767.29
518.329	26832.83
518.531	27203.51
518.733	27482.03
518.935	27676.59
519.136	27746.22
519.338	27940.78
519.54	28196.78
519.742	28827.55
519.944	28870.56
520.146	29181.85
520.348	29177.75
520.55	29325.21
520.752	29566.87
520.954	30085
521.155	29814.67
521.357	30136.2
521.559	30732.16
521.761	30939.01
521.963	31201.15
522.164	30975.87
522.366	31084.41
522.568	31702.9
522.77	31635.31
522.971	32212.84
523.173	31987.57
523.375	32026.48
523.576	32212.84
523.778	32550.76
523.98	32804.7
524.181	32874.34
524.383	33140.57
524.584	33394.52
524.786	33603.41
524.988	33656.66
525.189	34195.28
525.391	34099.02
525.592	34176.84
525.794	34346.83
525.995	34742.08
526.197	34393.93
526.398	34688.84
526.6	34955.07
526.801	35110.72
527.003	35012.42
527.204	35069.76
527.406	35499.83
527.607	35821.36
527.808	35813.17
528.01	35338.04
528.211	35811.12
528.412	36263.72
528.614	36149.04
528.815	36355.88
529.016	36513.58
529.218	36239.15
529.419	36454.19
529.62	36513.58
529.822	36585.26
530.023	36720.42
530.224	36435.75
530.425	36357.93
530.626	36742.95
530.828	36454.19
531.029	37259.04
531.23	37197.6
531.431	37078.82
531.632	37175.07
531.833	37553.94
532.035	37310.24
532.236	37082.91
532.437	37328.67
532.638	37390.11
532.839	37379.87
533.04	37633.82
533.241	37406.49
533.442	37656.34
533.643	37469.98
533.844	37660.44
534.045	37594.9
534.246	37463.83
534.447	37795.6
534.648	37678.87
534.849	37732.12
535.05	37570.33
535.251	37834.52
535.451	37617.43
535.652	38086.42
535.853	37943.06
536.054	37725.97
536.255	37986.07
536.456	37588.76
536.657	37941.01
536.857	37609.24
537.058	37838.61
537.259	38457.1
537.46	37603.1
537.66	37494.55
537.861	37959.44
538.062	37836.56
538.263	37676.82
538.463	37461.79
538.664	37623.58
538.865	37887.76
539.065	37981.97
539.266	37426.97
539.466	37895.96
539.667	37609.24
539.868	38287.12
540.068	37824.28
540.269	37560.09
540.469	38029.07
540.67	37717.78
540.87	37666.58
541.071	37863.19
541.271	38010.64
541.472	38061.84
541.672	37596.95
541.873	37490.46
542.073	37300
542.274	37793.56
542.474	37302.04
542.675	37488.41
542.875	38033.17
543.075	38059.79
543.276	36937.51
543.476	37996.31
543.676	37343
543.877	37922.58
544.077	37605.14
544.277	37650.2
544.478	37482.27
544.678	37560.09
544.878	37355.29
545.078	37721.88
545.279	37349.15
545.479	37590.81
545.679	37947.15
545.879	37596.95
546.079	37363.48
546.28	37381.91
546.48	37277.47
546.68	37707.54
546.88	37605.14
547.08	37707.54
547.28	37236.51
547.48	37226.27
547.68	37418.78
547.88	37304.09
548.081	37412.63
548.281	37431.07
548.481	37078.82
548.681	37396.25
548.881	37343
549.081	37453.59
549.28	37355.29
549.48	37117.73
549.68	37555.99
549.88	37965.59
550.08	37009.18
550.28	37605.14
550.48	36779.81
550.68	37697.3
550.88	37531.42
551.08	37404.44
551.279	37324.57
551.479	37283.61
551.679	37173.02
551.879	37334.81
552.079	37179.17
552.278	37087.01
552.478	37465.88
552.678	37345.05
552.878	36992.8
553.077	37003.04
553.277	36976.42
553.477	37355.29
553.676	37234.46
553.876	37107.49
554.076	36775.72
554.275	37191.45
554.475	36355.88
554.674	37035.81
554.874	36738.85
555.074	36955.94
555.273	36788
555.473	37332.76
555.672	36491.05
555.872	36669.22
556.071	36820.77
556.271	36890.4
556.47	36755.24
556.67	36300.59
556.869	36484.9
557.068	36607.78
557.268	36568.87
557.467	36339.5
557.667	36316.97
557.866	36738.85
558.065	36005.68
558.265	36497.19
558.464	35927.86
558.663	36534.06
558.863	36081.45
559.062	36632.36
559.261	36069.17
559.461	36167.47
559.66	35264.32
559.859	36056.88
560.058	35501.88
560.258	35962.67
560.457	35843.89
560.656	35966.77
560.855	35598.13
561.054	35753.78
561.253	35376.95
561.453	35886.9
561.652	35415.86
561.851	35635
562.05	35170.11
562.249	35172.16
562.448	35653.43
562.647	35426.1
562.846	35534.65
563.045	35170.11
563.244	34721.6
563.443	35057.47
563.642	34832.19
563.841	34885.44
564.04	34629.44
564.239	34805.57
564.438	34424.65
564.637	34690.88
564.836	35061.57
565.035	34369.35
565.234	34557.77
565.432	34191.18
565.631	34172.75
565.83	34174.8
566.029	34201.42
566.228	33957.71
566.427	33890.13
566.625	33742.67
566.824	33568.6
567.023	33967.95
567.222	33066.84
567.42	33949.52
567.619	33677.14
567.818	33472.34
568.016	33230.68
568.215	33654.61
568.414	33132.38
568.612	33394.52
568.811	33075.04
569.01	33111.9
569.208	32558.95
569.407	33042.27
569.605	32833.38
569.804	33003.36
570.002	32382.82
570.201	32853.86
570.4	32601.96
570.598	32438.12
570.797	32223.08
570.995	32690.02
571.193	31711.09
571.392	32153.45
571.59	32073.58
571.789	31876.97
571.987	31700.85
572.186	31948.65
572.384	31297.4
572.582	31874.93
572.781	31385.46
572.979	31502.2
573.177	31317.88
573.376	31795.06
573.574	31434.61
573.772	31629.17
573.971	31121.27
574.169	30844.8
574.367	30711.68
574.565	31164.28
574.763	31092.6
574.962	30885.76
575.16	30560.13
575.358	30644.1
575.556	30029.71
575.754	30842.75
575.952	30195.59
576.151	30259.08
576.349	29968.27
576.547	30033.8
576.745	29943.69
576.943	30324.61
577.141	29812.62
577.339	29851.53
577.537	29722.51
577.735	29581.2
577.933	29384.6
578.131	29431.7
578.329	29355.93
578.527	29304.73
578.725	29403.03
578.923	29378.45
579.121	29382.55
579.319	29032.35
579.516	29341.59
579.714	29003.67
579.912	28964.76
580.11	28850.08
580.308	28759.97
580.506	28876.7
580.704	28272.55
580.901	28573.6
581.099	28612.51
581.297	28276.65
581.495	28090.28
581.692	28450.72
581.89	28123.05
582.088	28632.99
582.285	28137.38
582.483	28254.12
582.681	27867.05
582.878	27785.13
583.076	27570.1
583.274	28141.48
583.471	27453.36
583.669	27860.91
583.866	27365.3
584.064	27359.16
584.262	26967.99
584.459	27510.71
584.657	27539.38
584.854	27314.1
585.052	26847.16
585.249	26759.1
585.447	26953.66
585.644	26798.01
585.841	26830.78
586.039	27000.76
586.236	26546.11
586.434	26539.97
586.631	26173.38
586.828	26478.53
587.026	26253.25
587.223	26247.11
587.42	26208.2
587.618	26220.49
587.815	25884.62
588.012	26116.04
588.21	25802.7
588.407	26017.74
588.604	25659.34
588.801	25511.89
588.999	25374.67
589.196	25366.48
589.393	25470.93
589.59	25255.89
589.787	25221.08
589.984	25102.29
590.182	25069.53
590.379	25141.21
590.576	25130.97
590.773	25061.33
590.97	24672.22
591.167	24950.74
591.364	24668.12
591.561	24727.52
591.758	23930.86
591.955	24655.84
592.152	24551.39
592.349	24383.46
592.546	24315.87
592.743	24188.9
592.94	24221.67
593.137	24283.11
593.334	24227.81
593.531	23779.31
593.727	24289.25
593.924	23883.75
594.121	23756.78
594.318	23668.72
594.515	23535.6
594.712	23660.52
594.908	23414.77
595.105	23689.2
595.302	23390.19
595.499	23498.73
595.696	23318.51
595.892	23154.68
596.089	23105.52
596.286	23162.87
596.482	22841.34
596.679	22876.15
596.876	22896.63
597.072	22777.85
597.269	22908.92
597.466	22216.71
597.662	22208.51
597.859	22454.27
598.055	22644.73
598.252	22212.61
598.448	22476.8
598.645	22224.9
598.841	21817.35
599.038	22005.77
599.234	21825.54
599.431	21671.95
599.627	21815.3
599.824	21735.43
600.02	21735.43
600.217	21661.71
600.413	21665.8
600.609	21567.5
600.806	21614.6
601.002	21315.6
601.198	21098.52
601.395	21250.07
601.591	21364.75
601.787	21442.57
601.984	21288.98
602.18	21452.81
602.376	21000.21
602.572	21008.4
602.769	21075.99
602.965	20670.49
603.161	20873.24
603.357	20766.74
603.553	20467.74
603.75	20744.22
603.946	20279.33
604.142	20559.9
604.338	20187.17
604.534	20355.1
604.73	20385.82
604.926	20181.03
605.122	20269.09
605.318	20043.81
605.514	19820.58
605.71	20275.23
605.906	19867.69
606.102	19871.78
606.298	19771.43
606.494	19828.77
606.69	19556.39
606.886	19640.36
607.082	19308.59
607.278	19726.38
607.474	19421.23
607.67	19527.72
607.866	19447.85
608.062	19828.77
608.257	19292.21
608.453	19281.97
608.649	19451.95
608.845	18937.91
609.041	19116.08
609.236	19216.43
609.432	18946.1
609.628	18905.14
609.824	18911.28
610.019	18888.76
610.215	18784.31
610.411	18749.5
610.606	18800.69
610.802	18827.32
610.998	18681.91
611.193	18985.01
611.389	18688.06
611.584	18440.25
611.78	18604.09
611.976	18624.57
612.171	18473.02
612.367	18346.05
612.562	18327.61
612.758	18102.34
612.953	18257.98
613.149	18292.8
613.344	18094.15
613.539	18475.07
613.735	18122.82
613.93	18288.7
614.126	17913.92
614.321	18313.28
614.517	17993.79
614.712	18016.32
614.907	17694.79
615.103	18169.92
615.298	18075.71
615.493	17958.98
615.688	17498.19
615.884	17930.31
616.079	17492.04
616.274	17725.51
616.47	17791.05
616.665	17485.9
616.86	17455.18
617.055	17403.98
617.25	17293.39
617.445	17535.05
617.641	17166.42
617.836	17268.81
618.031	17150.03
618.226	17135.7
618.421	17160.27
618.616	17395.79
618.811	16889.94
619.006	17084.5
619.201	16578.65
619.396	17088.59
619.591	16758.87
619.786	16930.9
619.981	16418.91
620.176	16660.57
620.371	16431.19
620.566	16621.66
620.761	16441.43
620.956	16638.04
621.151	16283.74
621.346	16134.24
621.541	16062.56
621.735	16316.51
621.93	15874.15
622.125	15865.96
622.32	15669.35
622.515	15798.37
622.709	15579.24
622.904	15675.49
623.099	15290.48
623.294	15448.17
623.488	15353.96
623.683	15417.45
623.878	15155.31
624.072	15282.28
624.267	15245.42
624.462	15005.81
624.656	14608.5
624.851	14997.62
625.046	14733.43
625.24	14559.35
625.435	14760.05
625.629	14485.62
625.824	14254.2
626.018	14364.79
626.213	14026.88
626.407	14278.78
626.602	14078.08
626.796	13951.1
626.991	14053.5
627.185	13836.42
627.38	13789.31
627.574	13723.78
627.768	13404.3
627.963	13543.56
628.157	13473.93
628.352	13531.27
628.546	13303.95
628.74	13402.25
628.935	13189.26
629.129	13217.93
629.323	13262.99
629.517	13099.15
629.712	13013.13
629.906	12828.82
630.1	12859.54
630.294	12798.1
630.489	12648.6
630.683	12712.08
630.877	12550.29
631.071	12427.42
631.265	12224.67
631.459	12632.21
631.653	12394.65
631.848	12300.44
632.042	12064.93
632.236	12234.91
632.43	12087.45
632.624	12159.13
632.818	11944.1
633.012	11915.42
633.206	11962.53
633.4	11806.88
633.594	11452.58
633.788	11597.99
633.982	11552.93
634.176	11706.53
634.369	11497.64
634.563	11360.42
634.757	11401.38
634.951	11542.69
635.145	11192.49
635.339	11206.83
635.533	11088.04
635.726	11178.15
635.92	11100.33
636.114	10993.84
636.308	10883.25
636.501	10717.36
636.695	10981.55
636.889	10696.88
637.083	10621.11
637.276	10367.16
637.47	10660.02
637.664	10420.41
637.857	10600.63
638.051	10395.83
638.244	10326.2
638.438	10242.23
638.632	10207.42
638.825	10236.09
639.019	10330.3
639.212	10062.01
639.406	10084.54
639.599	10039.48
639.793	10119.35
639.986	9588.93
640.18	9801.92
640.373	9859.26
640.567	9658.56
640.76	9674.95
640.954	9679.04
641.147	9564.36
641.34	9504.96
641.534	9619.65
641.727	9326.79
641.92	9300.17
642.114	9355.46
642.307	9234.63
642.5	9003.21
642.694	8995.02
642.887	8986.83
643.08	9187.53
643.273	9099.47
643.467	8792.27
643.66	9064.65
643.853	8952.01
644.046	8892.62
644.239	8843.47
644.432	8505.56
644.626	8558.8
644.819	8521.94
645.012	8882.38
645.205	8845.52
645.398	8515.8
645.591	8466.64
645.784	8444.12
645.977	8272.09
646.17	8292.57
646.363	8157.4
646.556	8284.37
646.749	8200.41
646.942	8317.14
647.135	8093.91
647.328	8177.88
647.521	8089.82
647.714	7837.92
647.907	8042.71
648.099	7993.56
648.292	7928.03
648.485	7893.21
648.678	7690.46
648.871	7565.54
649.064	7606.5
649.256	7745.76
649.449	7688.42
649.642	7659.74
649.835	7440.61
650.027	7569.63
650.22	7381.22
650.413	7364.84
650.605	7471.33
650.798	7295.21
650.991	7336.17
651.183	7354.6
651.376	7276.77
651.568	7155.94
651.761	7198.95
651.954	7162.09
652.146	7043.31
652.339	7086.31
652.531	7108.84
652.724	6795.5
652.916	6867.18
653.109	6885.61
653.301	6908.14
653.494	6895.85
653.686	6664.43
653.879	6779.12
654.071	6912.24
654.263	6676.72
654.456	6834.41
654.648	6715.63
654.84	6488.31
655.033	6586.61
655.225	6527.22
655.417	6480.11
655.61	6596.85
655.802	6422.77
655.994	6326.52
656.186	6385.91
656.379	6355.19
656.571	6187.25
656.763	6347
656.955	6160.63
657.148	6121.72
657.34	6050.04
657.532	6000.89
657.724	6056.18
657.916	6174.97
658.108	5964.03
658.3	6045.95
658.492	5892.35
658.684	5894.4
658.876	5851.39
659.068	5857.53
659.26	5837.05
659.452	5810.43
659.644	5783.81
659.836	5769.47
660.028	5783.81
660.22	5490.95
660.412	5619.97
660.604	5677.31
660.796	5640.45
660.988	5558.53
661.18	5542.14
661.372	5564.67
661.563	5605.63
661.755	5470.47
661.947	5548.29
662.139	5550.34
662.331	5335.3
662.522	5536
662.714	5300.48
662.906	5257.48
663.097	5386.5
663.289	5390.6
663.481	5179.65
663.673	5218.57
663.864	5271.81
664.056	5091.59
664.247	5077.26
664.439	5124.36
664.631	5099.78
664.822	5107.98
665.014	4944.14
665.205	4940.04
665.397	4894.99
665.588	4960.52
665.78	4905.23
665.971	4958.47
666.163	4888.84
666.354	4903.18
666.546	4843.79
666.737	4739.34
666.929	4921.61
667.12	4929.8
667.311	4858.12
667.503	4659.47
667.694	4808.97
667.885	4798.73
668.077	4745.48
668.268	4645.13
668.459	4800.78
668.651	4716.81
668.842	4606.22
669.033	4589.84
669.224	4503.82
669.416	4512.02
669.607	4565.26
669.798	4534.54
669.989	4581.65
670.18	4335.89
670.371	4450.58
670.563	4497.68
670.754	4321.56
670.945	4505.87
671.136	4387.09
671.327	4399.38
671.518	4321.56
671.709	4430.1
671.9	4421.91
672.091	4258.07
672.282	4217.11
672.473	4266.26
672.664	4284.69
672.855	4266.26
673.046	4184.34
673.237	4274.45
673.428	4219.16
673.619	4372.75
673.809	4124.95
674	4143.38
674.191	4094.23
674.382	4163.86
674.573	4065.56
674.764	4049.18
674.954	4188.44
675.145	4086.04
675.336	4038.94
675.527	4047.13
675.717	3981.59
675.908	4000.02
676.099	4030.74
676.289	4114.71
676.48	4040.98
676.671	3928.35
676.861	3928.35
677.052	3942.68
677.243	3940.63
677.433	3897.63
677.624	3877.15
677.814	3854.62
678.005	3887.39
678.195	3811.61
678.386	4016.41
678.576	3834.14
678.767	3823.9
678.957	3729.69
679.148	3709.21
679.338	3922.2
679.529	3821.85
679.719	3811.61
679.909	3789.08
680.1	3774.75
680.29	3770.65
680.481	3774.75
680.671	3827.99
680.861	3707.16
681.052	3858.71
681.242	3696.92
681.432	3819.8
681.622	3625.25
681.813	3711.26
682.003	3768.6
682.193	3606.81
682.383	3850.52
682.573	3606.81
682.764	3713.31
682.954	3670.3
683.144	3604.77
683.334	3520.8
683.524	3641.63
683.714	3625.25
683.904	3557.66
684.094	3678.49
684.284	3637.53
684.474	3660.06
684.664	3553.57
684.854	3531.04
685.044	3635.49
685.234	3633.44
685.424	3490.08
685.614	3602.72
685.804	3670.3
685.994	3631.39
686.184	3496.22
686.374	3582.24
686.564	3498.27
686.753	3522.85
686.943	3381.54
687.133	3518.75
687.323	3363.11
687.513	3391.78
687.702	3383.59
687.892	3342.63
688.082	3336.48
688.272	3352.87
688.461	3313.95
688.651	3336.48
688.841	3402.02
689.03	3297.57
689.22	3313.95
689.41	3180.84
689.599	3264.8
689.789	3219.75
689.979	3160.36
690.168	3223.84
690.358	3250.47
690.547	3252.52
690.737	3266.85
690.926	3086.63
691.116	3025.19
691.305	3154.21
691.495	3004.71
691.684	3055.91
691.874	3082.53
692.063	3049.77
692.252	3092.77
692.442	3012.9
692.631	2947.37
692.82	2969.9
693.01	3041.57
693.199	2918.7
693.388	2842.92
693.578	3006.76
693.767	3039.53
693.956	2863.4
694.146	2867.5
694.335	2916.65
694.524	2865.45
694.713	2926.89
694.902	2971.94
695.092	2857.26
695.281	2824.49
695.47	2853.16
695.659	2732.33
695.848	2797.87
696.037	2879.79
696.226	2777.39
696.415	2763.05
696.604	2748.72
696.793	2769.2
696.982	2898.22
697.171	2750.76
697.36	2767.15
697.549	2687.28
697.738	2834.73
697.927	2728.24
698.116	2799.91
698.305	2769.2
698.494	2758.96
698.683	2756.91
698.872	2648.36
699.061	2738.48
699.25	2738.48
699.438	2695.47
699.627	2683.18
699.816	2734.38
700.005	2703.66
700.193	2789.67
700.382	2797.87
700.571	2685.23
700.76	2754.86
700.948	2783.53
701.137	2713.9
701.326	2785.58
701.514	2615.6
701.703	2810.15
701.892	2615.6
702.08	2744.62
702.269	2748.72
702.457	2728.24
702.646	2556.21
702.834	2650.41
703.023	2664.75
703.212	2734.38
703.4	2742.57
703.589	2709.8
703.777	2746.67
703.965	2564.4
704.154	2713.9
704.342	2724.14
704.531	2566.45
704.719	2578.73
704.907	2607.41
705.096	2578.73
705.284	2588.97
705.472	2685.23
705.661	2738.48
705.849	2627.89
706.037	2664.75
706.226	2668.84
706.414	2554.16
706.602	2607.41
706.79	2709.8
706.979	2642.22
707.167	2664.75
707.355	2631.98
707.543	2691.37
707.731	2666.8
707.919	2718
708.107	2588.97
708.296	2674.99
708.484	2634.03
708.672	2672.94
708.86	2707.76
709.048	2593.07
709.236	2588.97
709.424	2529.58
709.612	2605.36
709.8	2654.51
709.988	2609.45
710.176	2689.32
710.364	2652.46
710.551	2662.7
710.739	2562.35
710.927	2742.57
711.115	2545.97
711.303	2687.28
711.491	2654.51
711.679	2664.75
711.866	2642.22
712.054	2740.52
712.242	2662.7
712.43	2638.13
712.617	2687.28
712.805	2527.53
712.993	2677.04
713.181	2476.34
713.368	2666.8
713.556	2566.45
713.744	2539.82
713.931	2724.14
714.119	2664.75
714.306	2652.46
714.494	2672.94
714.682	2582.83
714.869	2611.5
715.057	2464.05
715.244	2648.36
715.432	2754.86
715.619	2689.32
715.807	2636.08
715.994	2683.18
716.182	2668.84
716.369	2599.21
716.556	2634.03
716.744	2634.03
716.931	2611.5
717.119	2730.28
717.306	2666.8
717.493	2621.74
717.681	2693.42
717.868	2709.8
718.055	2660.65
718.242	2521.39
718.43	2732.33
718.617	2603.31
718.804	2672.94
718.991	2679.08
719.179	2720.04
719.366	2789.67
719.553	2685.23
719.74	2627.89
719.927	2619.69
720.114	2613.55
720.301	2703.66
720.488	2621.74
720.676	2595.12
720.863	2691.37
721.05	2603.31
721.237	2486.58
721.424	2652.46
721.611	2670.89
721.798	2560.3
721.985	2521.39
722.172	2642.22
722.358	2560.3
722.545	2674.99
722.732	2660.65
722.919	2562.35
723.106	2566.45
723.293	2736.43
723.48	2640.17
723.667	2621.74
723.853	2640.17
724.04	2613.55
724.227	2752.81
724.414	2742.57
724.6	2687.28
724.787	2642.22
724.974	2572.59
725.161	2660.65
725.347	2511.15
725.534	2728.24
725.72	2679.08
725.907	2634.03
726.094	2636.08
726.28	2674.99
726.467	2572.59
726.653	2693.42
726.84	2629.93
727.027	2722.09
727.213	2421.04
727.4	2683.18
727.586	2683.18
727.773	2488.62
727.959	2560.3
728.145	2683.18
728.332	2611.5
728.518	2582.83
728.705	2580.78
728.891	2572.59
729.077	2525.49
729.264	2613.55
729.45	2539.82
729.636	2664.75
729.823	2586.93
730.009	2615.6
730.195	2648.36
730.382	2709.8
730.568	2572.59
730.754	2670.89
730.94	2593.07
731.126	2574.64
731.313	2631.98
731.499	2611.5
731.685	2654.51
731.871	2591.02
732.057	2640.17
732.243	2681.13
732.429	2554.16
732.615	2738.48
732.801	2627.89
732.987	2666.8
733.173	2562.35
733.359	2609.45
733.545	2652.46
733.731	2654.51
733.917	2535.73
734.103	2644.27
734.289	2615.6
734.475	2685.23
734.661	2613.55
734.847	2611.5
735.033	2490.67
735.219	2668.84
735.404	2607.41
735.59	2525.49
735.776	2515.25
735.962	2543.92
736.148	2752.81
736.333	2455.86
736.519	2494.77
736.705	2507.06
736.89	2386.22
737.076	2550.06
737.262	2482.48
737.447	2552.11
737.633	2507.06
737.819	2578.73
738.004	2552.11
738.19	2505.01
738.375	2406.7
738.561	2634.03
738.747	2494.77
738.932	2482.48
739.118	2433.33
739.303	2595.12
739.489	2572.59
739.674	2433.33
739.859	2281.78
740.045	2537.77
740.23	2398.51
740.416	2402.61
740.601	2478.38
740.786	2414.9
740.972	2521.39
741.157	2445.62
741.342	2306.35
741.528	2496.82
741.713	2392.37
741.898	2351.41
742.084	2410.8
742.269	2478.38
742.454	2371.89
742.639	2380.08
742.824	2339.12
743.01	2371.89
743.195	2302.26
743.38	2414.9
743.565	2382.13
743.75	2433.33
743.935	2310.45
744.12	2359.6
744.305	2251.06
744.49	2095.41
744.675	2277.68
744.86	2277.68
745.045	2277.68
745.23	2230.58
745.415	2175.28
745.6	2201.91
745.785	2181.43
745.97	2119.99
746.155	2001.21
746.34	2158.9
746.525	2040.12
746.71	2142.52
746.895	2130.23
747.079	2005.3
747.264	2095.41
747.449	2042.17
747.634	2095.41
747.819	2128.18
748.003	2183.48
748.188	2003.25
748.373	1925.43
748.557	1947.96
748.742	1857.85
748.927	1917.24
749.111	1964.34
749.296	1915.19
749.481	2007.35
749.665	1941.82
749.85	1890.62
750.034	1919.29
750.219	1853.75
750.404	1927.48
750.588	1765.69
750.773	1829.18
750.957	1929.53
751.141	1829.18
751.326	1892.66
751.51	1870.14
751.695	1788.22
751.879	1775.93
752.064	1730.87
752.248	1773.88
752.432	1810.75
752.617	1677.63
752.801	1745.21
752.985	1722.68
753.17	1720.64
753.354	1683.77
753.538	1759.55
753.722	1710.4
753.907	1583.42
754.091	1636.67
754.275	1622.33
754.459	1661.24
754.643	1532.22
754.828	1616.19
755.012	1509.69
755.196	1540.41
755.38	1567.04
755.564	1620.28
755.748	1501.5
755.932	1435.97
756.116	1509.69
756.3	1491.26
756.484	1538.37
756.668	1507.65
756.852	1507.65
757.036	1438.02
757.22	1505.6
757.404	1415.49
757.588	1427.78
757.772	1435.97
757.956	1454.4
758.14	1411.39
758.323	1364.29
758.507	1521.98
758.691	1339.71
758.875	1319.23
759.059	1288.51
759.242	1302.85
759.426	1315.14
759.61	1304.9
759.794	1274.18
759.977	1397.06
760.161	1325.38
760.345	1292.61
760.528	1255.75
760.712	1261.89
760.895	1261.89
761.079	1192.26
761.263	1231.17
761.446	1241.41
761.63	1302.85
761.813	1171.78
761.997	1280.32
762.18	1186.12
762.364	1208.64
762.547	1184.07
762.731	1243.46
762.914	1177.92
763.098	1159.49
763.281	1157.44
763.464	1132.87
763.648	1245.51
763.831	1227.07
764.015	1235.27
764.198	1136.96
764.381	1112.39
764.564	1186.12
764.748	1175.88
764.931	1091.91
765.114	1059.14
765.297	1159.49
765.481	1067.33
765.664	1151.3
765.847	1063.24
766.03	1182.02
766.213	1085.76
766.397	1130.82
766.58	1091.91
766.763	1059.14
766.946	1167.68
767.129	1073.48
767.312	1020.23
767.495	1114.44
767.678	1048.9
767.861	973.13
768.044	1098.05
768.227	962.89
768.41	1003.85
768.593	954.69
768.776	981.32
768.959	999.75
769.142	1050.95
769.324	991.56
769.507	1089.86
769.69	1007.94
769.873	960.84
770.056	1001.8
770.239	862.54
770.421	981.32
770.604	975.17
770.787	995.65
770.97	928.07
771.152	883.02
771.335	846.15
771.518	1009.99
771.7	1055.05
771.883	1081.67
772.066	909.64
772.248	756.04
772.431	985.41
772.613	790.86
772.796	844.1
772.978	932.17
773.161	825.67
773.343	880.97
773.526	883.02
773.708	919.88
773.891	823.62
774.073	893.26
774.256	917.83
774.438	846.15
774.621	792.91
774.803	872.78
774.985	786.76
775.168	842.06
775.35	725.32
775.532	776.52
775.715	815.43
775.897	854.34
776.079	661.84
776.261	797
776.444	751.95
776.626	729.42
776.808	831.82
776.99	780.62
777.173	741.71
777.355	747.85
777.537	756.04
777.719	700.75
777.901	747.85
778.083	749.9
778.265	741.71
778.447	743.75
778.629	690.51
778.811	674.12
778.993	723.27
779.175	715.08
779.357	749.9
779.539	584.01
779.721	758.09
779.903	635.21
780.085	639.31
780.267	635.21
780.449	659.79
780.631	690.51
780.812	645.45
780.994	612.68
781.176	645.45
781.358	637.26
781.54	618.83
781.721	579.92
781.903	606.54
782.085	635.21
782.267	633.16
782.448	538.96
782.63	614.73
782.812	594.25
782.993	565.58
783.175	622.92
783.357	584.01
783.538	545.1
783.72	538.96
783.901	571.72
784.083	532.81
784.264	530.77
784.446	457.04
784.627	520.53
784.809	577.87
784.99	563.53
785.172	547.15
785.353	467.28
785.535	541.01
785.716	481.61
785.897	520.53
786.079	534.86
786.26	622.92
786.441	620.88
786.623	459.09
786.804	448.85
786.985	483.66
787.167	504.14
787.348	469.33
787.529	516.43
787.71	434.51
787.891	475.47
788.073	442.7
788.254	475.47
788.435	434.51
788.616	481.61
788.797	444.75
788.978	424.27
789.159	438.61
789.34	428.37
789.522	469.33
789.703	495.95
789.884	414.03
790.065	287.06
790.246	471.37
790.427	307.54
790.607	440.65
790.788	485.71
790.969	375.12
791.15	405.84
791.331	366.93
791.512	420.17
791.693	416.08
791.874	371.02
792.054	407.89
792.235	416.08
792.416	411.98
792.597	319.82
792.778	344.4
792.958	368.98
793.139	356.69
793.32	338.26
793.5	332.11
793.681	393.55
793.862	328.02
794.042	397.65
794.223	358.74
794.404	332.11
794.584	315.73
794.765	354.64
794.945	358.74
795.126	268.63
795.306	428.37
795.487	293.2
795.667	323.92
795.848	297.3
796.028	289.1
796.209	332.11
796.389	285.01
796.57	350.54
796.75	352.59
796.93	319.82
797.111	362.83
797.291	330.06
797.471	268.63
797.652	313.68
797.832	229.71
798.012	360.78
798.192	231.76
798.373	246.1
798.553	248.15
798.733	231.76
798.913	289.1
799.093	309.58
799.274	305.49
799.454	350.54
799.634	342.35
799.814	344.4
799.994	274.77
800.174	297.3
800.354	276.82
800.534	323.92
800.714	186.71
800.894	303.44
801.074	190.8
801.254	196.95
801.434	289.1
801.614	190.8
801.794	219.47
801.974	670.03
802.154	276.82
802.334	242
802.514	293.2
802.693	209.23
802.873	311.63
803.053	198.99
803.233	250.19
803.413	305.49
803.592	282.96
803.772	211.28
803.952	268.63
804.131	207.19
804.311	229.71
804.491	330.06
804.67	201.04
804.85	198.99
805.03	192.85
805.209	158.03
805.389	225.62
805.568	166.23
805.748	307.54
805.928	278.87
806.107	270.67
806.287	188.75
806.466	282.96
806.646	233.81
806.825	180.56
807.004	190.8
807.184	205.14
807.363	217.43
807.543	280.91
807.722	239.95
807.901	278.87
808.081	201.04
808.26	207.19
808.439	223.57
808.619	174.42
808.798	125.27
808.977	121.17
809.156	221.52
809.336	233.81
809.515	264.53
809.694	209.23
809.873	239.95
810.052	145.75
810.231	285.01
810.411	186.71
810.59	158.03
810.769	194.9
810.948	235.86
811.127	158.03
811.306	239.95
811.485	188.75
811.664	235.86
811.843	217.43
812.022	160.08
812.201	129.36
812.38	147.8
812.559	108.88
812.737	151.89
812.916	149.84
813.095	180.56
813.274	123.22
813.453	127.32
813.632	188.75
813.811	160.08
813.989	168.27
814.168	201.04
814.347	123.22
814.526	178.51
814.704	170.32
814.883	203.09
815.062	139.6
815.24	192.85
815.419	72.02
815.598	176.47
815.776	153.94
815.955	174.42
816.133	115.03
816.312	141.65
816.49	104.79
816.669	158.03
816.847	176.47
817.026	151.89
817.204	164.18
817.383	151.89
817.561	145.75
817.74	209.23
817.918	102.74
818.097	192.85
818.275	121.17
818.453	172.37
818.632	102.74
818.81	137.56
818.988	74.07
819.167	125.27
819.345	153.94
819.523	131.41
819.701	106.84
819.879	117.08
820.058	108.88
820.236	102.74
820.414	153.94
820.592	145.75
820.77	69.97
820.948	196.95
821.127	112.98
821.305	149.84
821.483	155.99
821.661	168.27
821.839	35.16
822.017	137.56
822.195	168.27
822.373	133.46
822.551	137.56
822.729	164.18
822.907	102.74
823.085	155.99
823.262	106.84
823.44	143.7
823.618	162.13
823.796	80.21
823.974	35.16
824.152	137.56
824.329	80.21
824.507	166.23
824.685	94.55
824.863	164.18
825.04	78.16
825.218	112.98
825.396	135.51
825.574	131.41
825.751	65.88
825.929	108.88
826.107	67.92
826.284	115.03
826.462	149.84
826.639	92.5
826.817	104.79
826.994	86.36
827.172	35.16
827.349	125.27
827.527	59.73
827.704	131.41
827.882	57.68
828.059	131.41
828.237	100.69
828.414	164.18
828.591	61.78
828.769	131.41
828.946	76.12
829.124	84.31
829.301	88.4
829.478	121.17
829.655	31.06
829.833	88.4
830.01	112.98
830.187	53.59
830.364	80.21
830.542	57.68
830.719	86.36
830.896	127.32
831.073	139.6
831.25	133.46
831.427	72.02
831.604	69.97
831.782	33.11
831.959	80.21
832.136	31.06
832.313	160.08
832.49	100.69
832.667	86.36
832.844	139.6
833.021	29.01
833.198	110.93
833.374	53.59
833.551	74.07
833.728	65.88
833.905	112.98
834.082	59.73
834.259	76.12
834.436	143.7
834.612	82.26
834.789	119.12
834.966	49.49
835.143	100.69
835.319	121.17
835.496	86.36
835.673	131.41
835.85	88.4
836.026	59.73
836.203	112.98
836.38	78.16
836.556	78.16
836.733	24.92
836.909	104.79
837.086	108.88
837.262	43.35
837.439	90.45
837.616	112.98
837.792	33.11
837.968	76.12
838.145	121.17
838.321	168.27
838.498	61.78
838.674	67.92
838.851	14.68
839.027	29.01
839.203	22.87
839.38	106.84
839.556	53.59
839.732	141.65
839.909	98.64
840.085	88.4
840.261	49.49
840.437	74.07
840.614	80.21
840.79	143.7
840.966	-38.57
841.142	-1.71
841.318	94.55
841.494	47.44
841.671	61.78
841.847	35.16
842.023	24.92
842.199	61.78
842.375	166.23
842.551	61.78
842.727	0.34
842.903	108.88
843.079	63.83
843.255	106.84
843.431	90.45
843.607	115.03
843.783	26.96
843.959	-18.09
844.134	41.3
844.31	133.46
844.486	49.49
844.662	55.64
844.838	33.11
845.013	20.82
845.189	51.54
845.365	69.97
845.541	133.46
845.716	63.83
845.892	47.44
846.068	16.73
846.244	29.01
846.419	76.12
846.595	41.3
846.77	51.54
846.946	6.49
847.122	151.89
847.297	47.44
847.473	84.31
847.648	16.73
847.824	72.02
847.999	4.44
848.175	84.31
848.35	51.54
848.526	43.35
848.701	24.92
848.876	86.36
849.052	110.93
849.227	67.92
849.403	24.92
849.578	53.59
849.753	45.4
849.929	78.16
850.104	63.83
850.279	43.35
850.454	37.2
850.63	155.99
850.805	31.06
850.98	-7.85
851.155	24.92
851.33	47.44
851.505	24.92
851.681	31.06
851.856	33.11
852.031	92.5
852.206	-40.62
852.381	115.03
852.556	47.44
852.731	53.59
852.906	84.31
853.081	22.87
853.256	29.01
853.431	22.87
853.606	12.63
853.781	37.2
853.956	39.25
854.131	43.35
854.305	2.39
854.48	37.2
854.655	61.78
854.83	45.4
855.005	69.97
855.18	104.79
855.354	69.97
855.529	-9.9
855.704	49.49
855.879	33.11
856.053	53.59
856.228	2.39
856.403	18.77
856.577	24.92
856.752	0.34
856.926	-20.14
857.101	45.4
857.276	100.69
857.45	100.69
857.625	-13.99
857.799	18.77
857.974	8.53
858.148	31.06
858.323	69.97
858.497	2.39
858.672	6.49
858.846	-26.28
859.02	98.64
859.195	-40.62
859.369	20.82
859.543	55.64
859.718	26.96
859.892	82.26
860.066	49.49
860.241	37.2
860.415	-46.76
860.589	33.11
860.763	-16.04
860.938	26.96
861.112	-48.81
861.286	14.68
861.46	88.4
861.634	8.53
861.808	112.98
861.982	-7.85
862.157	-32.43
862.331	76.12
862.505	55.64
862.679	78.16
862.853	86.36
863.027	-20.14
863.201	59.73
863.375	-9.9
863.549	16.73
863.722	-9.9
863.896	47.44
864.07	-50.86
864.244	67.92
864.418	47.44
864.592	67.92
864.766	49.49
864.939	63.83
865.113	-18.09
865.287	29.01
865.461	65.88
865.634	-13.99
865.808	4.44
865.982	-42.67
866.156	24.92
866.329	-46.76
866.503	24.92
866.676	-1.71
866.85	-5.8
867.024	29.01
867.197	20.82
867.371	33.11
867.544	108.88
867.718	-32.43
867.891	35.16
868.065	37.2
868.238	4.44
868.412	47.44
868.585	-59.05
868.759	90.45
868.932	26.96
869.105	6.49
869.279	78.16
869.452	63.83
869.625	29.01
869.799	-1.71
869.972	-5.8
870.145	51.54
870.319	-46.76
870.492	16.73
870.665	51.54
870.838	16.73
871.011	31.06
871.185	-40.62
871.358	-28.33
871.531	55.64
871.704	-13.99
871.877	18.77
872.05	-16.04
872.223	26.96
872.396	0.34
872.569	43.35
872.742	100.69
872.915	80.21
873.088	31.06
873.261	39.25
873.434	22.87
873.607	26.96
873.78	-1.71
873.953	47.44
874.126	80.21
874.299	-5.8
874.471	-11.95
874.644	24.92
874.817	-26.28
874.99	80.21
875.163	22.87
875.335	35.16
875.508	-16.04
875.681	82.26
875.853	26.96
876.026	0.34
876.199	-5.8
876.371	51.54
876.544	31.06
876.717	0.34
876.889	59.73
877.062	57.68
877.234	-24.23
877.407	45.4
877.579	-18.09
877.752	2.39
877.924	76.12
878.097	117.08
878.269	22.87
878.442	-5.8
878.614	47.44
878.786	4.44
878.959	-18.09
879.131	22.87
879.303	43.35
879.476	43.35
879.648	20.82
879.82	-65.19
879.993	-3.75
880.165	51.54
880.337	-40.62
880.509	86.36
880.681	39.25
880.854	16.73
881.026	37.2
881.198	31.06
881.37	8.53
881.542	78.16
881.714	-38.57
881.886	14.68
882.058	18.77
882.23	47.44
882.402	47.44
882.574	-11.95
882.746	24.92
882.918	10.58
883.09	39.25
883.262	39.25
883.434	-40.62
883.606	-38.57
883.778	-28.33
883.95	-13.99
884.122	35.16
884.293	22.87
884.465	-52.91
884.637	33.11
884.809	14.68
884.98	112.98
885.152	-83.63
885.324	-22.19
885.496	-22.19
885.667	47.44
885.839	6.49
886.011	-22.19
886.182	-5.8
886.354	59.73
886.525	37.2
886.697	-32.43
886.869	-16.04
887.04	-16.04
887.212	47.44
887.383	24.92
887.555	37.2
887.726	57.68
887.897	6.49
888.069	14.68
888.24	14.68
888.412	8.53
888.583	-7.85
888.754	8.53
888.926	-28.33
889.097	10.58
889.268	-85.67
889.44	51.54
889.611	-48.81
889.782	-16.04
889.953	20.82
890.125	31.06
890.296	-54.95
890.467	22.87
890.638	6.49
890.809	-36.52
890.98	10.58
891.151	8.53
891.323	86.36
891.494	119.12
891.665	26.96
891.836	26.96
892.007	57.68
892.178	10.58
892.349	84.31
892.52	-11.95
892.691	22.87
892.862	4.44
893.032	-7.85
893.203	-1.71
893.374	-54.95
893.545	88.4
893.716	-59.05
893.887	-13.99
894.057	-36.52
894.228	-20.14
894.399	43.35
894.57	-20.14
894.74	65.88
894.911	102.74
895.082	-18.09
895.253	-50.86
895.423	22.87
895.594	-13.99
895.764	-34.47
895.935	-38.57
896.106	22.87
896.276	2.39
896.447	18.77
896.617	29.01
896.788	-13.99
896.958	72.02
897.129	-40.62
897.299	-24.23
897.47	-3.75
897.64	69.97
897.81	-5.8
897.981	59.73
898.151	-5.8
898.322	92.5
898.492	-7.85
898.662	-65.19
898.832	-1.71
899.003	39.25
899.173	35.16
899.343	20.82
899.513	-18.09
