Data from USB4F104151__53__11-52-00-326.txt Node

Date: Fri Mar 14 11:52:00 EDT 2025
User: louis
Spectrometer: USB4F10415
Trigger mode: 4
Integration Time (sec): 2.000000E-2
Scans to average: 1
Electric dark correction enabled: true
Nonlinearity correction enabled: false
Boxcar width: 0
XAxis mode: Wavelengths
Number of Pixels in Spectrum: 3648
>>>>>Begin Spectral Data<<<<<
178.204	-98.47
178.424	-98.47
178.644	-98.47
178.864	-82.09
179.084	-22.7
179.304	1.88
179.524	16.21
179.744	-8.36
179.964	12.12
180.184	-51.37
180.404	24.4
180.624	-47.27
180.844	22.36
181.064	-10.41
181.283	51.03
181.503	-30.89
181.723	20.31
181.943	-30.89
182.163	116.56
182.383	5.97
182.602	48.98
182.822	-0.17
183.042	12.12
183.262	-2.22
183.482	38.74
183.701	-53.42
183.921	85.84
184.141	-12.46
184.361	18.26
184.58	32.6
184.8	10.07
185.02	1.88
185.239	135
185.459	24.4
185.679	34.64
185.898	61.27
186.118	91.99
186.338	24.4
186.557	-0.17
186.777	-73.9
186.997	-37.03
187.216	-30.89
187.436	75.6
187.655	-6.31
187.875	83.8
188.095	73.56
188.314	20.31
188.534	38.74
188.753	26.45
188.973	1.88
189.192	71.51
189.412	79.7
189.631	10.07
189.851	26.45
190.07	118.61
190.29	57.17
190.509	-18.6
190.729	51.03
190.948	3.93
191.168	104.28
191.387	59.22
191.607	-2.22
191.826	-0.17
192.045	46.93
192.265	-12.46
192.484	-10.41
192.704	5.97
192.923	-84.14
193.142	130.9
193.362	-24.75
193.581	26.45
193.8	102.23
194.02	5.97
194.239	36.69
194.458	59.22
194.678	22.36
194.897	20.31
195.116	20.31
195.335	94.04
195.555	-28.84
195.774	69.46
195.993	42.84
196.212	61.27
196.432	53.08
196.651	16.21
196.87	46.93
197.089	30.55
197.308	34.64
197.528	51.03
197.747	10.07
197.966	24.4
198.185	51.03
198.404	18.26
198.623	79.7
198.842	42.84
199.062	81.75
199.281	110.42
199.5	32.6
199.719	65.36
199.938	20.31
200.157	36.69
200.376	32.6
200.595	46.93
200.814	1.88
201.033	61.27
201.252	63.32
201.471	-37.03
201.69	85.84
201.909	53.08
202.128	65.36
202.347	44.88
202.566	26.45
202.785	42.84
203.004	-34.99
203.223	38.74
203.442	-2.22
203.661	26.45
203.879	-45.23
204.098	12.12
204.317	26.45
204.536	94.04
204.755	28.5
204.974	3.93
205.193	42.84
205.411	73.56
205.63	-24.75
205.849	75.6
206.068	40.79
206.287	71.51
206.505	102.23
206.724	16.21
206.943	-24.75
207.162	26.45
207.381	28.5
207.599	77.65
207.818	42.84
208.037	28.5
208.255	-32.94
208.474	55.12
208.693	91.99
208.911	87.89
209.13	53.08
209.349	24.4
209.567	-8.36
209.786	65.36
210.005	112.47
210.223	26.45
210.442	-39.08
210.661	28.5
210.879	51.03
211.098	16.21
211.316	71.51
211.535	67.41
211.753	5.97
211.972	59.22
212.191	38.74
212.409	3.93
212.628	-2.22
212.846	10.07
213.065	40.79
213.283	59.22
213.502	34.64
213.72	-4.27
213.938	63.32
214.157	51.03
214.375	-20.65
214.594	-20.65
214.812	22.36
215.031	28.5
215.249	10.07
215.467	59.22
215.686	55.12
215.904	79.7
216.122	36.69
216.341	48.98
216.559	30.55
216.778	20.31
216.996	22.36
217.214	-26.79
217.432	71.51
217.651	10.07
217.869	75.6
218.087	73.56
218.306	-22.7
218.524	65.36
218.742	51.03
218.96	-0.17
219.179	53.08
219.397	3.93
219.615	48.98
219.833	26.45
220.051	5.97
220.27	79.7
220.488	63.32
220.706	42.84
220.924	-45.23
221.142	51.03
221.36	-0.17
221.578	114.52
221.796	53.08
222.015	22.36
222.233	87.89
222.451	69.46
222.669	5.97
222.887	44.88
223.105	94.04
223.323	22.36
223.541	-14.51
223.759	32.6
223.977	46.93
224.195	73.56
224.413	8.02
224.631	34.64
224.849	63.32
225.067	-2.22
225.285	10.07
225.503	22.36
225.721	16.21
225.939	30.55
226.157	1.88
226.375	122.71
226.592	16.21
226.81	38.74
227.028	40.79
227.246	22.36
227.464	32.6
227.682	48.98
227.9	20.31
228.117	87.89
228.335	63.32
228.553	61.27
228.771	63.32
228.989	12.12
229.206	51.03
229.424	20.31
229.642	77.65
229.86	-28.84
230.077	-0.17
230.295	89.94
230.513	44.88
230.731	44.88
230.948	91.99
231.166	30.55
231.384	-12.46
231.601	40.79
231.819	91.99
232.037	73.56
232.254	55.12
232.472	-2.22
232.689	46.93
232.907	-37.03
233.125	-24.75
233.342	38.74
233.56	55.12
233.777	67.41
233.995	1.88
234.213	77.65
234.43	77.65
234.648	42.84
234.865	10.07
235.083	42.84
235.3	-22.7
235.518	42.84
235.735	-10.41
235.953	44.88
236.17	40.79
236.388	-47.27
236.605	42.84
236.822	46.93
237.04	59.22
237.257	24.4
237.475	-28.84
237.692	12.12
237.909	18.26
238.127	-34.99
238.344	10.07
238.562	-4.27
238.779	-28.84
238.996	18.26
239.214	24.4
239.431	36.69
239.648	10.07
239.865	124.76
240.083	75.6
240.3	75.6
240.517	-6.31
240.735	67.41
240.952	42.84
241.169	-24.75
241.386	20.31
241.603	1.88
241.821	120.66
242.038	124.76
242.255	51.03
242.472	16.21
242.689	-20.65
242.907	83.8
243.124	24.4
243.341	-67.75
243.558	-73.9
243.775	-30.89
243.992	-51.37
244.209	22.36
244.426	20.31
244.643	104.28
244.86	89.94
245.078	8.02
245.295	55.12
245.512	30.55
245.729	-20.65
245.946	114.52
246.163	75.6
246.38	81.75
246.597	69.46
246.814	30.55
247.031	30.55
247.248	73.56
247.464	-12.46
247.681	96.08
247.898	-41.13
248.115	24.4
248.332	24.4
248.549	1.88
248.766	-0.17
248.983	20.31
249.2	-2.22
249.417	40.79
249.633	85.84
249.85	61.27
250.067	16.21
250.284	102.23
250.501	124.76
250.717	55.12
250.934	22.36
251.151	10.07
251.368	100.18
251.585	67.41
251.801	61.27
252.018	-2.22
252.235	3.93
252.451	42.84
252.668	12.12
252.885	30.55
253.102	48.98
253.318	46.93
253.535	36.69
253.752	42.84
253.968	44.88
254.185	30.55
254.401	53.08
254.618	69.46
254.835	-16.55
255.051	85.84
255.268	44.88
255.484	40.79
255.701	-16.55
255.917	36.69
256.134	-0.17
256.351	67.41
256.567	59.22
256.784	51.03
257	22.36
257.217	-2.22
257.433	20.31
257.65	24.4
257.866	83.8
258.082	34.64
258.299	63.32
258.515	116.56
258.732	1.88
258.948	81.75
259.165	112.47
259.381	24.4
259.597	18.26
259.814	65.36
260.03	42.84
260.246	46.93
260.463	20.31
260.679	57.17
260.895	-26.79
261.112	65.36
261.328	-24.75
261.544	-47.27
261.761	114.52
261.977	55.12
262.193	-18.6
262.409	48.98
262.626	36.69
262.842	44.88
263.058	36.69
263.274	48.98
263.49	30.55
263.707	69.46
263.923	69.46
264.139	18.26
264.355	61.27
264.571	53.08
264.787	26.45
265.004	91.99
265.22	36.69
265.436	40.79
265.652	46.93
265.868	10.07
266.084	12.12
266.3	59.22
266.516	-26.79
266.732	73.56
266.948	59.22
267.164	26.45
267.38	46.93
267.596	114.52
267.812	73.56
268.028	3.93
268.244	40.79
268.46	85.84
268.676	34.64
268.892	38.74
269.108	18.26
269.324	8.02
269.54	32.6
269.756	67.41
269.972	20.31
270.188	-28.84
270.403	-28.84
270.619	89.94
270.835	83.8
271.051	98.13
271.267	36.69
271.483	51.03
271.698	40.79
271.914	24.4
272.13	-22.7
272.346	36.69
272.562	36.69
272.777	102.23
272.993	-4.27
273.209	30.55
273.425	38.74
273.64	51.03
273.856	38.74
274.072	51.03
274.287	48.98
274.503	30.55
274.719	91.99
274.934	-10.41
275.15	24.4
275.366	57.17
275.581	-16.55
275.797	89.94
276.012	26.45
276.228	22.36
276.444	-0.17
276.659	65.36
276.875	12.12
277.09	5.97
277.306	51.03
277.521	71.51
277.737	48.98
277.952	18.26
278.168	91.99
278.383	14.17
278.599	-4.27
278.814	32.6
279.03	69.46
279.245	40.79
279.461	-4.27
279.676	71.51
279.892	57.17
280.107	-0.17
280.322	-16.55
280.538	61.27
280.753	18.26
280.969	28.5
281.184	-20.65
281.399	139.09
281.615	83.8
281.83	-4.27
282.045	-14.51
282.26	48.98
282.476	36.69
282.691	85.84
282.906	-4.27
283.122	32.6
283.337	10.07
283.552	65.36
283.767	20.31
283.983	12.12
284.198	-26.79
284.413	22.36
284.628	-6.31
284.843	75.6
285.058	-4.27
285.274	85.84
285.489	-39.08
285.704	24.4
285.919	73.56
286.134	94.04
286.349	73.56
286.564	18.26
286.779	118.61
286.995	22.36
287.21	-61.61
287.425	89.94
287.64	16.21
287.855	71.51
288.07	16.21
288.285	67.41
288.5	26.45
288.715	51.03
288.93	20.31
289.145	38.74
289.36	28.5
289.575	10.07
289.79	22.36
290.004	51.03
290.219	122.71
290.434	22.36
290.649	18.26
290.864	10.07
291.079	12.12
291.294	87.89
291.509	98.13
291.724	51.03
291.938	36.69
292.153	-14.51
292.368	18.26
292.583	46.93
292.798	79.7
293.012	16.21
293.227	51.03
293.442	73.56
293.657	3.93
293.871	3.93
294.086	-47.27
294.301	91.99
294.516	28.5
294.73	38.74
294.945	36.69
295.16	-14.51
295.374	128.85
295.589	20.31
295.804	-12.46
296.018	67.41
296.233	104.28
296.447	61.27
296.662	46.93
296.877	34.64
297.091	83.8
297.306	71.51
297.52	16.21
297.735	53.08
297.949	69.46
298.164	67.41
298.378	32.6
298.593	42.84
298.807	30.55
299.022	67.41
299.236	53.08
299.451	77.65
299.665	24.4
299.88	30.55
300.094	38.74
300.309	18.26
300.523	26.45
300.737	65.36
300.952	8.02
301.166	59.22
301.381	-34.99
301.595	79.7
301.809	28.5
302.024	81.75
302.238	34.64
302.452	34.64
302.667	-16.55
302.881	48.98
303.095	67.41
303.309	10.07
303.524	40.79
303.738	71.51
303.952	69.46
304.166	-45.23
304.381	73.56
304.595	63.32
304.809	34.64
305.023	34.64
305.237	42.84
305.452	12.12
305.666	5.97
305.88	46.93
306.094	38.74
306.308	14.17
306.522	36.69
306.736	98.13
306.95	8.02
307.164	32.6
307.379	36.69
307.593	28.5
307.807	59.22
308.021	32.6
308.235	98.13
308.449	87.89
308.663	61.27
308.877	69.46
309.091	20.31
309.305	38.74
309.519	28.5
309.733	75.6
309.947	59.22
310.161	61.27
310.374	14.17
310.588	-16.55
310.802	20.31
311.016	36.69
311.23	67.41
311.444	94.04
311.658	26.45
311.872	65.36
312.085	38.74
312.299	77.65
312.513	26.45
312.727	96.08
312.941	55.12
313.154	30.55
313.368	51.03
313.582	51.03
313.796	-10.41
314.009	57.17
314.223	22.36
314.437	91.99
314.651	3.93
314.864	16.21
315.078	51.03
315.292	79.7
315.505	106.32
315.719	57.17
315.933	-8.36
316.146	-26.79
316.36	36.69
316.573	10.07
316.787	100.18
317.001	51.03
317.214	20.31
317.428	22.36
317.641	10.07
317.855	51.03
318.068	87.89
318.282	48.98
318.495	55.12
318.709	-8.36
318.922	20.31
319.136	85.84
319.349	94.04
319.563	91.99
319.776	-61.61
319.99	106.32
320.203	91.99
320.417	8.02
320.63	53.08
320.843	67.41
321.057	-14.51
321.27	71.51
321.483	51.03
321.697	28.5
321.91	114.52
322.124	89.94
322.337	53.08
322.55	-32.94
322.763	69.46
322.977	26.45
323.19	-20.65
323.403	57.17
323.617	61.27
323.83	57.17
324.043	-22.7
324.256	22.36
324.469	22.36
324.683	116.56
324.896	87.89
325.109	46.93
325.322	18.26
325.535	83.8
325.748	81.75
325.962	57.17
326.175	55.12
326.388	24.4
326.601	61.27
326.814	1.88
327.027	77.65
327.24	38.74
327.453	-0.17
327.666	89.94
327.879	-28.84
328.092	83.8
328.305	75.6
328.518	-8.36
328.731	14.17
328.944	-14.51
329.157	12.12
329.37	40.79
329.583	36.69
329.796	89.94
330.009	20.31
330.222	112.47
330.435	12.12
330.648	44.88
330.861	-20.65
331.073	-22.7
331.286	55.12
331.499	24.4
331.712	-2.22
331.925	44.88
332.138	30.55
332.35	18.26
332.563	71.51
332.776	96.08
332.989	48.98
333.202	-51.37
333.414	48.98
333.627	44.88
333.84	87.89
334.053	65.36
334.265	38.74
334.478	36.69
334.691	79.7
334.903	83.8
335.116	89.94
335.329	65.36
335.541	71.51
335.754	26.45
335.966	59.22
336.179	48.98
336.392	-0.17
336.604	48.98
336.817	-22.7
337.029	12.12
337.242	-8.36
337.454	20.31
337.667	57.17
337.88	77.65
338.092	53.08
338.305	53.08
338.517	-8.36
338.729	-0.17
338.942	32.6
339.154	-20.65
339.367	14.17
339.579	28.5
339.792	22.36
340.004	40.79
340.217	71.51
340.429	20.31
340.641	42.84
340.854	71.51
341.066	-16.55
341.278	69.46
341.491	79.7
341.703	65.36
341.915	-4.27
342.128	-22.7
342.34	18.26
342.552	-6.31
342.764	-4.27
342.977	32.6
343.189	53.08
343.401	48.98
343.613	20.31
343.826	85.84
344.038	-10.41
344.25	118.61
344.462	-18.6
344.674	-10.41
344.886	42.84
345.099	75.6
345.311	94.04
345.523	44.88
345.735	-6.31
345.947	100.18
346.159	77.65
346.371	110.42
346.583	36.69
346.795	57.17
347.007	24.4
347.219	48.98
347.431	55.12
347.643	85.84
347.855	100.18
348.067	28.5
348.279	-18.6
348.491	51.03
348.703	53.08
348.915	24.4
349.127	-73.9
349.339	98.13
349.551	1.88
349.763	83.8
349.975	-16.55
350.187	69.46
350.399	22.36
350.61	34.64
350.822	32.6
351.034	36.69
351.246	-20.65
351.458	63.32
351.669	-6.31
351.881	65.36
352.093	57.17
352.305	132.95
352.517	22.36
352.728	102.23
352.94	36.69
353.152	71.51
353.363	63.32
353.575	-0.17
353.787	85.84
353.999	32.6
354.21	98.13
354.422	83.8
354.633	73.56
354.845	12.12
355.057	61.27
355.268	77.65
355.48	81.75
355.692	30.55
355.903	20.31
356.115	-0.17
356.326	61.27
356.538	44.88
356.749	38.74
356.961	71.51
357.172	20.31
357.384	-20.65
357.595	128.85
357.807	55.12
358.018	91.99
358.23	46.93
358.441	69.46
358.653	46.93
358.864	57.17
359.075	44.88
359.287	38.74
359.498	69.46
359.709	16.21
359.921	53.08
360.132	38.74
360.344	36.69
360.555	48.98
360.766	110.42
360.977	77.65
361.189	30.55
361.4	65.36
361.611	71.51
361.823	-32.94
362.034	55.12
362.245	-10.41
362.456	36.69
362.667	104.28
362.879	-28.84
363.09	3.93
363.301	38.74
363.512	40.79
363.723	20.31
363.935	53.08
364.146	108.37
364.357	46.93
364.568	22.36
364.779	10.07
364.99	51.03
365.201	3.93
365.412	81.75
365.623	18.26
365.834	151.38
366.045	38.74
366.256	65.36
366.467	36.69
366.678	20.31
366.889	-4.27
367.1	-6.31
367.311	12.12
367.522	53.08
367.733	18.26
367.944	81.75
368.155	46.93
368.366	100.18
368.577	87.89
368.788	42.84
368.999	48.98
369.209	108.37
369.42	100.18
369.631	30.55
369.842	36.69
370.053	10.07
370.264	118.61
370.474	51.03
370.685	30.55
370.896	51.03
371.107	57.17
371.317	102.23
371.528	-0.17
371.739	108.37
371.95	20.31
372.16	85.84
372.371	77.65
372.582	42.84
372.792	149.33
373.003	40.79
373.214	26.45
373.424	65.36
373.635	3.93
373.846	59.22
374.056	87.89
374.267	42.84
374.477	1.88
374.688	44.88
374.898	38.74
375.109	71.51
375.319	79.7
375.53	46.93
375.74	36.69
375.951	77.65
376.161	65.36
376.372	87.89
376.582	30.55
376.793	73.56
377.003	32.6
377.214	67.41
377.424	20.31
377.635	59.22
377.845	12.12
378.055	51.03
378.266	48.98
378.476	94.04
378.686	18.26
378.897	59.22
379.107	44.88
379.317	104.28
379.528	94.04
379.738	73.56
379.948	91.99
380.158	18.26
380.369	98.13
380.579	63.32
380.789	12.12
380.999	71.51
381.21	75.6
381.42	102.23
381.63	53.08
381.84	46.93
382.05	124.76
382.261	108.37
382.471	-61.61
382.681	57.17
382.891	40.79
383.101	26.45
383.311	-14.51
383.521	44.88
383.731	96.08
383.941	30.55
384.151	96.08
384.361	5.97
384.571	36.69
384.781	69.46
384.991	20.31
385.201	108.37
385.411	22.36
385.621	89.94
385.831	61.27
386.041	135
386.251	-0.17
386.461	120.66
386.671	3.93
386.881	-26.79
387.091	46.93
387.301	132.95
387.511	55.12
387.72	36.69
387.93	102.23
388.14	26.45
388.35	75.6
388.56	110.42
388.769	108.37
388.979	20.31
389.189	16.21
389.399	20.31
389.609	30.55
389.818	149.33
390.028	100.18
390.238	-6.31
390.447	-8.36
390.657	61.27
390.867	65.36
391.076	73.56
391.286	73.56
391.496	-0.17
391.705	55.12
391.915	-22.7
392.125	155.47
392.334	24.4
392.544	143.19
392.753	98.13
392.963	71.51
393.172	10.07
393.382	65.36
393.591	40.79
393.801	77.65
394.01	114.52
394.22	57.17
394.429	36.69
394.639	81.75
394.848	44.88
395.058	24.4
395.267	151.38
395.477	149.33
395.686	87.89
395.895	73.56
396.105	69.46
396.314	75.6
396.524	122.71
396.733	63.32
396.942	161.62
397.152	120.66
397.361	102.23
397.57	110.42
397.78	141.14
397.989	102.23
398.198	173.91
398.407	114.52
398.617	108.37
398.826	128.85
399.035	96.08
399.244	22.36
399.453	110.42
399.663	124.76
399.872	91.99
400.081	106.32
400.29	22.36
400.499	91.99
400.708	153.43
400.917	122.71
401.127	108.37
401.336	108.37
401.545	116.56
401.754	61.27
401.963	169.81
402.172	71.51
402.381	89.94
402.59	145.24
402.799	102.23
403.008	81.75
403.217	96.08
403.426	163.67
403.635	98.13
403.844	34.64
404.053	34.64
404.262	124.76
404.471	198.48
404.68	130.9
404.888	147.28
405.097	42.84
405.306	149.33
405.515	96.08
405.724	149.33
405.933	128.85
406.142	165.71
406.35	116.56
406.559	198.48
406.768	157.52
406.977	223.06
407.185	194.39
407.394	206.67
407.603	122.71
407.812	255.83
408.02	259.92
408.229	233.3
408.438	167.76
408.646	165.71
408.855	241.49
409.064	239.44
409.272	167.76
409.481	245.59
409.69	200.53
409.898	270.16
410.107	304.98
410.315	327.5
410.524	337.74
410.733	321.36
410.941	278.35
411.15	276.31
411.358	319.31
411.567	384.85
411.775	311.12
411.984	354.13
412.192	292.69
412.401	474.96
412.609	442.19
412.818	497.49
413.026	339.79
413.234	477.01
413.443	499.53
413.651	515.92
413.86	468.81
414.068	546.64
414.276	599.88
414.485	606.03
414.693	593.74
414.901	624.46
415.11	612.17
415.318	646.99
415.526	665.42
415.734	714.57
415.943	745.29
416.151	796.49
416.359	802.63
416.567	730.95
416.776	853.83
416.984	929.61
417.192	837.45
417.4	855.88
417.608	966.47
417.817	905.03
418.025	931.66
418.233	1003.33
418.441	1032.01
418.649	1052.49
418.857	1214.27
419.065	1197.89
419.273	1128.26
419.481	1253.19
419.689	1343.3
419.897	1421.12
420.105	1328.96
420.313	1355.58
420.521	1380.16
420.729	1427.26
420.937	1488.7
421.145	1451.84
421.353	1713.98
421.561	1793.85
421.769	1718.08
421.977	1859.38
422.185	1888.06
422.393	1986.36
422.601	1949.5
422.809	2053.94
423.017	2002.74
423.224	2113.33
423.432	2166.58
423.64	2094.9
423.848	2264.88
424.056	2285.36
424.263	2543.41
424.471	2492.21
424.679	2545.45
424.887	2750.25
425.094	2783.02
425.302	2903.85
425.51	2821.93
425.718	3000.1
425.925	3022.63
426.133	3116.84
426.341	3342.11
426.548	3399.46
426.756	3415.84
426.964	3487.52
427.171	3569.44
427.379	3782.43
427.586	3929.88
427.794	3927.83
428.001	4081.43
428.209	4394.77
428.417	4298.52
428.624	4484.88
428.832	4601.62
429.039	4581.14
429.247	4476.69
429.454	5121.8
429.662	5369.6
429.869	5095.18
430.076	5388.04
430.284	5164.81
430.491	5369.6
430.699	5705.47
430.906	5836.54
431.114	5820.16
431.321	5940.99
431.528	6188.79
431.736	6590.19
431.943	6698.74
432.15	6485.75
432.358	6541.04
432.565	7102.18
432.772	7010.03
432.979	7366.37
433.187	7333.61
433.394	7515.87
433.601	8103.64
433.808	8146.65
434.016	7960.28
434.223	8314.58
434.43	8888.01
434.637	8656.59
434.844	9473.73
435.052	9303.75
435.259	9553.6
435.466	9430.73
435.673	9418.44
435.88	9838.27
436.087	10610.36
436.294	10405.56
436.501	10161.85
436.708	10426.04
436.915	10768.05
437.122	11212.46
437.329	11515.56
437.537	11546.28
437.743	11810.47
437.95	11820.7
438.157	12254.87
438.364	12646.04
438.571	12756.63
438.778	12926.61
438.985	14145.15
439.192	13227.66
439.399	13891.2
439.606	13489.8
439.813	14040.7
440.02	15058.54
440.227	14956.15
440.433	14628.47
440.64	15335.02
440.847	15091.31
441.054	15627.88
441.261	16447.07
441.467	16504.41
441.674	16885.33
441.881	17419.85
442.088	17342.03
442.294	17294.93
442.501	17606.22
442.708	17901.12
442.914	18585.15
443.121	19420.72
443.328	18839.09
443.534	20260.38
443.741	19523.12
443.948	19267.12
444.154	20766.23
444.361	20596.25
444.568	20905.49
444.774	20809.24
444.981	20878.87
445.187	21640.72
445.394	22267.39
445.6	22414.85
445.807	24288.74
446.013	23535.09
446.22	23971.3
446.426	24684
446.633	25099.73
446.839	25806.28
447.046	25046.49
447.252	26258.88
447.459	26365.38
447.665	26066.38
447.871	27241.91
448.078	28464.55
448.284	27170.23
448.491	27893.16
448.697	28988.83
448.903	29306.26
449.11	29480.34
449.316	29289.88
449.522	29603.22
449.728	30489.99
449.935	30485.89
450.141	30596.48
450.347	31102.33
450.553	30559.62
450.76	30875.01
450.966	31815.02
451.172	31354.23
451.378	32269.67
451.584	31026.56
451.791	32167.27
451.997	32138.6
452.203	32884.06
452.409	32609.64
452.615	32333.16
452.821	31217.02
453.027	31118.71
453.233	32785.76
453.44	31356.28
453.646	31800.69
453.852	31960.43
454.058	32390.5
454.264	31505.78
454.47	32083.31
454.676	31032.7
454.882	32179.56
455.088	29318.55
455.294	29896.08
455.5	30375.3
455.705	30530.95
455.911	29566.35
456.117	28777.89
456.323	28308.9
456.529	27225.53
456.735	28100.01
456.941	27397.56
457.147	26840.51
457.352	26273.22
457.558	25765.32
457.764	25918.92
457.97	25087.45
458.176	24700.38
458.381	25091.54
458.587	23621.1
458.793	23827.95
458.999	22623.74
459.204	24190.44
459.41	23420.4
459.616	21634.57
459.821	21892.62
460.027	21698.06
460.233	21173.78
460.438	20319.78
460.644	20538.91
460.85	19617.32
461.055	18869.81
461.261	19160.62
461.466	17821.25
461.672	17280.59
461.878	18402.88
462.083	17053.27
462.289	17161.81
462.494	16780.89
462.7	15988.32
462.905	15838.82
463.111	16180.83
463.316	16217.69
463.522	15740.52
463.727	15842.92
463.932	15877.73
464.138	15408.75
464.343	15515.24
464.549	15062.64
464.754	15748.71
464.959	15591.02
465.165	15355.5
465.37	14794.36
465.575	14573.17
465.781	15033.97
465.986	15052.4
466.191	14642.81
466.397	14366.33
466.602	13379.21
466.807	13977.22
467.012	13905.54
467.218	13934.21
467.423	13878.91
467.628	14042.75
467.833	14620.28
468.038	13885.06
468.244	13641.35
468.449	14247.55
468.654	13461.13
468.859	13665.92
469.064	13733.51
469.269	13026.96
469.474	13100.69
469.679	13434.5
469.885	13051.53
470.09	13313.67
470.295	13022.86
470.5	12861.07
470.705	12777.11
470.91	12697.24
471.115	12484.25
471.32	12838.55
471.525	12508.82
471.73	12213.91
471.935	12236.44
472.139	11763.36
472.344	12005.02
472.549	11976.35
472.754	11716.26
472.959	11331.24
473.164	11056.81
473.369	11118.25
473.574	11681.44
473.778	11433.64
473.983	11318.95
474.188	11077.29
474.393	10849.97
474.598	10725.04
474.802	10528.44
475.007	10663.6
475.212	10469.05
475.417	10284.73
475.621	10307.26
475.826	10331.83
476.031	9946.81
476.235	9762.5
476.44	10100.41
476.645	9785.02
476.849	9643.71
477.054	9690.82
477.259	9389.77
477.463	9604.8
477.668	9203.4
477.872	9285.32
478.077	9182.92
478.282	9123.53
478.486	9068.23
478.691	8879.82
478.895	8847.05
479.1	8822.48
479.304	9035.47
479.509	8642.26
479.713	8849.1
479.918	8728.27
480.122	8410.84
480.326	8578.77
480.531	8550.1
480.735	8462.04
480.94	8453.84
481.144	8556.24
481.348	8134.36
481.553	8283.86
481.757	8122.07
481.961	8185.56
482.166	8437.46
482.37	8345.3
482.574	8109.79
482.778	8290.01
482.983	8281.81
483.187	8312.53
483.391	8402.65
483.595	8064.73
483.8	8031.96
484.004	8171.22
484.208	8275.67
484.412	8183.51
484.616	8146.65
484.821	8259.29
485.025	8124.12
485.229	8218.33
485.433	8074.97
485.637	8318.68
485.841	8322.77
486.045	8019.67
486.249	8044.25
486.453	8046.3
486.657	8230.62
486.861	8285.91
487.065	8214.23
487.269	8244.95
487.473	7995.1
487.677	8126.17
487.881	8308.44
488.085	7904.99
488.289	8169.18
488.493	8074.97
488.697	8277.72
488.901	8173.27
489.105	8244.95
489.309	8193.75
489.512	8115.93
489.716	8181.46
489.92	8249.05
490.124	8214.23
490.328	8312.53
490.531	8322.77
490.735	8398.55
490.939	8222.42
491.143	8310.49
491.346	8298.2
491.55	8490.71
491.754	8539.86
491.958	8720.08
492.161	8490.71
492.365	8568.53
492.569	8679.12
492.772	8535.76
492.976	8574.67
493.18	8777.42
493.383	8711.89
493.587	8728.27
493.79	8855.25
493.994	8900.3
494.197	9029.32
494.401	9158.35
494.605	9103.05
494.808	9434.82
495.012	9340.61
495.215	9270.98
495.419	9139.91
495.622	9359.05
495.825	9379.53
496.029	9348.81
496.232	9715.39
496.436	9481.92
496.639	9873.09
496.843	9907.9
497.046	10155.71
497.249	10090.17
497.453	9959.1
497.656	10141.37
497.859	10258.1
498.063	10219.19
498.266	10479.29
498.469	10505.91
498.673	10702.51
498.876	10919.6
499.079	10956.46
499.282	10880.69
499.485	11226.79
499.689	11116.2
499.892	11460.26
500.095	11419.3
500.298	11742.88
500.501	11392.68
500.705	11986.59
500.908	11765.41
501.111	12072.61
501.314	12232.35
501.517	12304.03
501.72	12347.03
501.923	12631.7
502.126	12912.27
502.329	13092.49
502.532	13139.6
502.735	13231.76
502.938	13295.24
503.141	13500.04
503.344	13463.18
503.547	13768.32
503.75	13690.5
503.953	13932.16
504.156	14253.69
504.359	14294.65
504.562	14306.94
504.765	14775.92
504.968	14741.11
505.17	15203.95
505.373	15152.75
505.576	15146.61
505.779	15478.38
505.982	15591.02
506.185	15724.13
506.387	15937.12
506.59	15971.94
506.793	16285.28
506.996	16330.33
507.198	16692.82
507.401	16545.37
507.604	16914
507.807	17030.74
508.009	17411.66
508.212	17464.91
508.415	17538.63
508.617	17759.81
508.82	17837.64
509.022	18015.81
509.225	18118.21
509.428	18112.06
509.63	18712.12
509.833	18558.52
510.035	19150.39
510.238	19123.76
510.44	19267.12
510.643	19453.48
510.845	19463.72
511.048	19701.29
511.25	19844.65
511.453	20399.65
511.655	20782.62
511.858	20454.94
512.06	20725.27
512.262	20844.06
512.465	21073.43
512.667	21532.17
512.87	21462.54
513.072	21413.39
513.274	21913.09
513.477	22042.12
513.679	21995.01
513.881	22552.06
514.084	22719.99
514.286	22828.54
514.488	23227.89
514.69	23512.56
514.893	23469.55
515.095	23565.81
515.297	24040.93
515.499	23844.33
515.701	23879.14
515.904	24612.32
516.106	24860.12
516.308	24960.47
516.51	25273.81
516.712	25132.5
516.914	25443.79
517.116	25929.16
517.318	25871.82
517.52	26369.47
517.722	26244.55
517.925	26611.14
518.127	27172.28
518.329	27282.87
518.531	26901.95
518.733	27651.5
518.935	28200.36
519.136	27776.43
519.338	28399.01
519.54	28388.77
519.742	28407.2
519.944	28757.41
520.146	29078.94
520.348	29609.36
520.55	29408.66
520.752	29322.65
520.954	29826.45
521.155	29846.93
521.357	30492.04
521.559	30633.35
521.761	31106.43
521.963	30897.53
522.164	30963.07
522.366	31571.32
522.568	31438.2
522.77	31815.02
522.971	32038.25
523.173	32034.16
523.375	32099.69
523.576	32595.3
523.778	32578.92
523.98	32732.51
524.181	32906.59
524.383	33234.27
524.584	33363.29
524.786	33615.19
524.988	33631.57
525.189	33385.82
525.391	33748.31
525.592	34733.38
525.794	34544.97
525.995	34547.01
526.197	34342.22
526.398	34837.83
526.6	34987.33
526.801	34901.31
527.003	35243.32
527.204	35003.71
527.406	35247.42
527.607	35450.17
527.808	35777.84
528.01	34774.34
528.211	35783.99
528.412	36537.64
528.614	36072.75
528.815	36252.97
529.016	36480.3
529.218	36683.05
529.419	36494.63
529.62	36511.02
529.822	36605.22
530.023	36357.42
530.224	36545.83
530.425	36703.53
530.626	36697.38
530.828	37010.72
531.029	37666.07
531.23	36977.95
531.431	37174.56
531.632	37141.79
531.833	37399.83
532.035	37365.02
532.236	37233.95
532.437	37440.79
532.638	37123.36
532.839	37313.82
533.04	37537.05
533.241	36914.47
533.442	38042.9
533.643	37688.6
533.844	37565.72
534.045	37326.11
534.246	37113.12
534.447	37905.68
534.648	37469.47
534.849	37811.48
535.05	37709.08
535.251	37764.37
535.451	37793.04
535.652	37821.72
535.853	37733.65
536.054	37899.54
536.255	37985.55
536.456	37567.77
536.657	38020.37
536.857	37694.74
537.058	37725.46
537.259	37856.53
537.46	38112.53
537.66	37846.29
537.861	37811.48
538.062	37719.32
538.263	37989.65
538.463	37553.43
538.664	37549.34
538.865	37747.99
539.065	37995.79
539.266	37471.51
539.466	38479.11
539.667	37498.14
539.868	38417.68
540.068	37920.02
540.269	37629.21
540.469	38053.14
540.67	37780.76
540.87	37618.97
541.071	37537.05
541.271	38067.47
541.472	37584.15
541.672	37326.11
541.873	37496.09
542.073	37045.54
542.274	37950.74
542.474	37588.25
542.675	37264.67
542.875	38053.14
543.075	37747.99
543.276	37448.99
543.476	37899.54
543.676	37475.61
543.877	38077.71
544.077	37643.54
544.277	37416.22
544.478	37657.88
544.678	37481.75
544.878	37754.13
545.078	37559.58
545.279	37580.06
545.479	37530.9
545.679	37535
545.879	37899.54
546.079	37535
546.28	37563.67
546.48	37422.36
546.68	38046.99
546.88	37545.24
547.08	37575.96
547.28	37027.1
547.48	37068.06
547.68	37539.1
547.88	37002.53
548.081	37516.57
548.281	37408.03
548.481	37111.07
548.681	37762.33
548.881	37274.91
549.081	37399.83
549.28	36959.52
549.48	37498.14
549.68	37137.69
549.88	37887.25
550.08	37242.14
550.28	37293.34
550.48	37348.64
550.68	37747.99
550.88	37168.41
551.08	37307.68
551.279	37383.45
551.479	37068.06
551.679	36848.93
551.879	37242.14
552.079	37569.82
552.278	37117.21
552.478	37207.33
552.678	37248.28
552.878	37141.79
553.077	37123.36
553.277	36953.38
553.477	37342.49
553.676	36961.57
553.876	37147.93
554.076	36975.91
554.275	36893.99
554.475	36758.82
554.674	36975.91
554.874	36728.1
555.074	36547.88
555.273	36779.3
555.473	37029.15
555.672	36736.29
555.872	36936.99
556.071	36472.1
556.271	36943.14
556.47	36943.14
556.67	36402.47
556.869	36207.92
557.068	36457.77
557.268	35831.09
557.467	36599.08
557.667	36314.41
557.866	36519.21
558.065	36242.73
558.265	36201.77
558.464	36117.81
558.663	36134.19
558.863	35915.06
559.062	36240.68
559.261	35747.12
559.461	36414.76
559.66	35716.4
559.859	35872.05
560.058	35636.53
560.258	35753.27
560.457	35562.81
560.656	36308.27
560.855	35392.83
561.054	35822.9
561.253	35315
561.453	35489.08
561.652	35482.94
561.851	35609.91
562.05	35482.94
562.249	34868.55
562.448	35419.45
562.647	35163.45
562.846	35095.87
563.045	35116.35
563.244	34780.48
563.443	35126.59
563.642	34729.28
563.841	34547.01
564.04	34602.31
564.239	34868.55
564.438	34471.24
564.637	34639.17
564.836	34680.13
565.035	34026.83
565.234	34145.61
565.432	34344.27
565.631	34329.93
565.83	34295.11
566.029	33826.13
566.228	34180.43
566.427	33867.09
566.625	33619.28
566.824	33365.34
567.023	33629.52
567.222	33273.18
567.42	33850.7
567.619	33271.13
567.818	33371.48
568.016	33101.15
568.215	33607
568.414	33142.11
568.612	33385.82
568.811	32945.5
569.01	33072.48
569.208	32595.3
569.407	32691.55
569.605	32656.74
569.804	32636.26
570.002	32693.6
570.201	32716.13
570.4	32480.61
570.598	32152.94
570.797	32009.58
570.995	32476.52
571.193	31948.14
571.392	32478.57
571.59	32071.02
571.789	32109.93
571.987	31755.63
572.186	31939.95
572.384	31804.78
572.582	31624.56
572.781	31630.71
572.979	30893.44
573.177	31559.03
573.376	31438.2
573.574	31024.51
573.772	31339.9
573.971	31106.43
574.169	30999.93
574.367	30877.05
574.565	31079.8
574.763	30999.93
574.962	30649.73
575.16	30702.98
575.358	30416.26
575.556	30387.59
575.754	30698.88
575.952	30277
576.151	30475.65
576.349	30092.68
576.547	30045.58
576.745	30219.66
576.943	30092.68
577.141	29752.72
577.339	29705.62
577.537	29746.58
577.735	29736.34
577.933	29414.8
578.131	29648.27
578.329	29330.84
578.527	29263.25
578.725	29296.02
578.923	29113.75
579.121	29283.73
579.319	29113.75
579.516	29236.63
579.714	28714.4
579.912	28898.72
580.11	28659.1
580.308	28616.1
580.506	28687.78
580.704	28462.5
580.901	28437.92
581.099	28591.52
581.297	28065.19
581.495	28579.23
581.692	28188.07
581.89	28155.3
582.088	28548.51
582.285	28063.15
582.483	28237.22
582.681	27852.2
582.878	27542.96
583.076	27364.79
583.274	27751.85
583.471	27475.38
583.669	27551.15
583.866	27303.35
584.064	27321.78
584.262	27092.41
584.459	27534.77
584.657	27104.7
584.854	27026.87
585.052	27104.7
585.249	26930.62
585.447	26799.55
585.644	26551.74
585.841	26996.15
586.039	26799.55
586.236	26459.59
586.434	26367.43
586.631	26127.81
586.828	26297.8
587.026	26582.46
587.223	26320.32
587.42	26183.11
587.618	26176.97
587.815	25597.39
588.012	25527.76
588.21	25546.19
588.407	26140.1
588.604	25499.09
588.801	25667.02
588.999	25460.18
589.196	25447.89
589.393	25503.18
589.59	25263.57
589.787	25148.89
589.984	25032.15
590.182	25075.16
590.379	24792.54
590.576	24868.31
590.773	24745.44
590.97	24579.55
591.167	24729.05
591.364	24749.53
591.561	24634.85
591.758	24415.71
591.955	24403.42
592.152	24684
592.349	24374.75
592.546	24325.6
592.743	24223.2
592.94	23856.62
593.137	24282.59
593.334	24157.67
593.531	23725.55
593.727	24008.17
593.924	23373.3
594.121	23606.77
594.318	23879.14
594.515	23504.37
594.712	23711.21
594.908	23371.25
595.105	23612.91
595.302	23184.88
595.499	23342.58
595.696	23264.75
595.892	22842.87
596.089	22896.12
596.286	23031.29
596.482	22982.13
596.679	22740.47
596.876	23242.23
597.072	22707.71
597.269	22758.91
597.466	22650.36
597.662	22316.54
597.859	22357.5
598.055	22302.21
598.252	22054.4
598.448	22054.4
598.645	22132.23
598.841	22029.83
599.038	21859.85
599.234	21921.29
599.431	21837.32
599.627	21839.37
599.824	22160.9
600.02	21700.11
600.217	21890.57
600.413	21276.18
600.609	21308.94
600.806	21259.79
601.002	21487.12
601.198	21227.03
601.395	21106.2
601.591	21046.8
601.787	21104.15
601.984	21159.44
602.18	21341.71
602.376	20745.75
602.572	21042.71
602.769	20563.48
602.965	20743.7
603.161	20614.68
603.357	20497.95
603.553	20399.65
603.75	20676.12
603.946	20440.61
604.142	20459.04
604.338	20233.76
604.534	20362.78
604.73	20127.27
604.926	20194.85
605.122	19965.48
605.318	19865.13
605.514	19879.46
605.71	19795.5
605.906	19725.86
606.102	19795.5
606.298	19775.02
606.494	19691.05
606.69	19637.8
606.886	19516.97
607.082	19422.76
607.278	19572.27
607.474	19191.34
607.67	19551.79
607.866	19060.27
608.062	19263.02
608.257	19295.79
608.453	19164.72
608.649	19066.42
608.845	19029.55
609.041	19138.1
609.236	19172.91
609.432	18818.61
609.628	18880.05
609.824	18730.55
610.019	18898.48
610.215	18751.03
610.411	18787.89
610.606	18820.66
610.802	18757.18
610.998	18701.88
611.193	18759.22
611.389	18413.12
611.584	18521.66
611.78	18421.31
611.976	18507.32
612.171	18501.18
612.367	18515.51
612.562	18038.34
612.758	18181.7
612.953	18314.81
613.149	18353.73
613.344	17958.47
613.539	18228.8
613.735	18161.22
613.93	18230.85
614.126	17833.54
614.321	18245.18
614.517	18085.44
614.712	17905.22
614.907	17704.52
615.103	18058.82
615.298	17753.67
615.493	17856.07
615.688	17632.84
615.884	17901.12
616.079	17536.59
616.274	17649.22
616.47	17716.81
616.665	17655.37
616.86	17464.91
617.055	17380.94
617.25	17509.96
617.445	17552.97
617.641	16967.25
617.836	17495.63
618.031	17114.7
618.226	17225.29
618.421	16975.44
618.616	17370.7
618.811	16957.01
619.006	16987.73
619.201	16770.65
619.396	16840.28
619.591	16584.28
619.786	16703.06
619.981	16508.51
620.176	16944.72
620.371	16328.28
620.566	16363.1
620.761	16387.68
620.956	16371.29
621.151	16154.21
621.346	16571.99
621.541	15973.99
621.735	16500.31
621.93	16006.75
622.125	15734.37
622.32	15728.23
622.515	15933.03
622.709	15476.33
622.904	15595.11
623.099	15480.43
623.294	15529.58
623.488	15328.88
623.683	15459.95
623.878	15052.4
624.072	15388.27
624.267	14962.29
624.462	15029.87
624.656	14876.27
624.851	14874.23
625.046	14728.82
625.24	14777.97
625.435	14636.66
625.629	14481.02
625.824	14462.58
626.018	14233.21
626.213	14075.52
626.407	14206.59
626.602	13883.01
626.796	14038.66
626.991	14075.52
627.185	14085.76
627.38	14065.28
627.574	13735.56
627.768	13809.28
627.963	13440.65
628.157	13454.98
628.352	13469.32
628.546	13477.51
628.74	13522.57
628.935	13164.17
629.129	13145.74
629.323	13137.55
629.517	13168.27
629.712	12977.81
629.906	12938.9
630.1	13088.4
630.294	12744.34
630.489	12809.87
630.683	12709.52
630.877	12689.04
631.071	12465.82
631.265	12373.66
631.459	12285.59
631.653	12426.9
631.848	12304.03
632.042	12121.76
632.236	12301.98
632.43	12021.41
632.624	12103.32
632.818	11871.9
633.012	11638.44
633.206	11826.85
633.4	11867.81
633.594	11660.96
633.788	11681.44
633.982	11769.51
634.176	11605.67
634.369	11409.06
634.563	11546.28
634.757	11058.86
634.951	11517.61
635.145	11239.08
635.339	11247.27
635.533	11112.11
635.726	10962.61
635.92	10948.27
636.114	10843.82
636.308	10907.31
636.501	10985.13
636.695	10706.61
636.889	10770.1
637.083	10632.88
637.276	10536.63
637.47	10561.2
637.664	10233.53
637.857	10534.58
638.051	10348.22
638.244	10174.14
638.438	10284.73
638.632	10262.2
638.825	10186.43
639.019	9825.98
639.212	9971.39
639.406	9926.33
639.599	9797.31
639.793	9750.21
639.986	9766.59
640.18	9799.36
640.373	9750.21
640.567	9703.11
640.76	9776.83
640.954	9492.16
641.147	9465.54
641.34	9481.92
641.534	9518.79
641.727	9533.12
641.92	9219.78
642.114	9387.72
642.307	9139.91
642.5	9084.62
642.694	9053.9
642.887	9092.81
643.08	9346.76
643.273	8892.11
643.467	8990.41
643.66	8924.88
643.853	8742.61
644.046	8644.31
644.239	8855.25
644.432	8601.3
644.626	8654.55
644.819	8758.99
645.012	8574.67
645.205	8591.06
645.398	8478.42
645.591	8447.7
645.784	8349.4
645.977	8253.14
646.17	8097.5
646.363	8326.87
646.556	8105.69
646.749	8271.58
646.942	8140.51
647.135	8046.3
647.328	8074.97
647.521	8160.98
647.714	7839.45
647.907	7991
648.099	7890.65
648.292	7974.62
648.485	7735.01
648.678	7761.63
648.871	7759.58
649.064	7597.79
649.256	7816.93
649.449	7745.25
649.642	7558.88
649.835	7390.95
650.027	7653.09
650.22	7431.91
650.413	7481.06
650.605	7302.89
650.798	7313.13
650.991	7270.12
651.183	7382.76
651.376	7239.4
651.568	7149.29
651.761	7194.34
651.954	7081.71
652.146	6981.35
652.339	7065.32
652.531	7016.17
652.724	6987.5
652.916	6928.11
653.109	6895.34
653.301	6893.29
653.494	6928.11
653.686	6645.49
653.879	6817.52
654.071	6856.43
654.263	6500.08
654.456	6588.14
654.648	6686.45
654.84	6582
655.033	6582
655.225	6438.64
655.417	6366.96
655.61	6352.63
655.802	6399.73
655.994	6532.85
656.186	6481.65
656.379	6430.45
656.571	6475.51
656.763	6237.94
656.955	6174.46
657.148	6266.61
657.34	6250.23
657.532	6067.96
657.724	6080.25
657.916	6115.06
658.108	6151.93
658.3	5906.17
658.492	6043.39
658.684	5924.6
658.876	5795.58
659.068	5979.9
659.26	5961.47
659.452	5836.54
659.644	5912.32
659.836	5717.76
660.028	5818.11
660.22	5650.18
660.412	5703.42
660.604	5603.07
660.796	5601.02
660.988	5644.03
661.18	5488.39
661.372	5637.89
661.563	5590.78
661.755	5443.33
661.947	5545.73
662.139	5412.61
662.331	5369.6
662.522	5304.07
662.714	5306.12
662.906	5220.1
663.097	5310.21
663.289	5052.17
663.481	5039.88
663.673	5185.29
663.864	5158.66
664.056	5236.49
664.247	5058.31
664.439	5095.18
664.631	5205.77
664.822	5138.18
665.014	5197.57
665.205	4968.2
665.397	4927.24
665.588	4923.15
665.78	4867.85
665.971	4935.43
666.163	4972.3
666.354	4779.79
666.546	5095.18
666.737	4953.87
666.929	4917
667.12	4761.36
667.311	4814.6
667.503	4708.11
667.694	4761.36
667.885	4808.46
668.077	4790.03
668.268	4661.01
668.459	4697.87
668.651	4732.69
668.842	4613.9
669.033	4583.18
669.224	4452.11
669.416	4507.41
669.607	4607.76
669.798	4626.19
669.989	4519.7
670.18	4495.12
670.371	4507.41
670.563	4253.46
670.754	4691.73
670.945	4402.96
671.136	4495.12
671.327	4441.87
671.518	4552.46
671.709	4341.52
671.9	4400.91
672.091	4282.13
672.282	4333.33
672.473	4220.69
672.664	4214.55
672.855	4300.56
673.046	4241.17
673.237	4331.28
673.428	4157.21
673.619	4304.66
673.809	4136.73
674	4263.7
674.191	4353.81
674.382	4056.86
674.573	4056.86
674.764	4118.29
674.954	4069.14
675.145	4024.09
675.336	4159.25
675.527	4101.91
675.717	3985.18
675.908	4011.8
676.099	3956.5
676.289	4085.53
676.48	4138.77
676.671	3950.36
676.861	4167.45
677.052	3931.93
677.243	3936.03
677.433	4028.18
677.624	3995.42
677.814	3874.59
678.005	4024.09
678.195	3962.65
678.386	3884.83
678.576	4048.66
678.767	3890.97
678.957	3911.45
679.148	3974.94
679.338	3821.34
679.529	4034.33
679.719	3936.03
679.909	3907.35
680.1	3688.22
680.29	3884.83
680.481	3817.24
680.671	3909.4
680.861	3880.73
681.052	3860.25
681.242	3706.65
681.432	3815.2
681.622	3727.13
681.813	3753.76
682.003	3886.87
682.193	3755.8
682.383	3737.37
682.573	3843.87
682.764	3733.28
682.954	3720.99
683.144	3786.52
683.334	3757.85
683.524	3725.08
683.714	3698.46
683.904	3698.46
684.094	3743.52
684.284	3632.93
684.474	3684.13
684.664	3782.43
684.854	3696.41
685.044	3675.93
685.234	3540.77
685.424	3639.07
685.614	3526.43
685.804	3714.84
685.994	3585.82
686.184	3587.87
686.374	3655.45
686.564	3518.24
686.753	3534.62
686.943	3544.86
687.133	3618.59
687.323	3409.7
687.513	3548.96
687.702	3452.7
687.892	3401.51
688.082	3483.42
688.272	3409.7
688.461	3329.83
688.651	3219.24
688.841	3348.26
689.03	3360.55
689.22	3391.27
689.41	3317.54
689.599	3362.59
689.789	3419.94
689.979	3280.68
690.168	3172.13
690.358	3350.31
690.547	3262.24
690.737	3245.86
690.926	3219.24
691.116	3090.21
691.305	3122.98
691.495	3229.48
691.684	3194.66
691.874	3200.8
692.063	3112.74
692.252	3041.06
692.442	3219.24
692.631	3090.21
692.82	3086.12
693.01	3000.1
693.199	3106.6
693.388	2957.1
693.578	3067.69
693.767	2969.38
693.956	3055.4
694.146	3088.17
694.335	2963.24
694.524	3000.1
694.713	2967.34
694.902	2875.18
695.092	3159.85
695.281	3022.63
695.47	2940.71
695.659	2795.31
695.848	2961.19
696.037	3020.58
696.226	2969.38
696.415	3079.97
696.604	2813.74
696.793	2846.51
696.982	2826.03
697.171	2895.66
697.36	2893.61
697.549	2953
697.738	2801.45
697.927	2819.88
698.116	2866.99
698.305	2850.6
698.494	2948.9
698.683	2785.07
698.872	2948.9
699.061	2926.38
699.25	2957.1
699.438	2801.45
699.627	2875.18
699.816	2729.77
700.005	2789.16
700.193	2883.37
700.382	2879.27
700.571	2858.79
700.76	2801.45
700.948	2746.16
701.137	2899.75
701.326	2799.4
701.514	2658.09
701.703	2776.87
701.892	2762.54
702.08	2787.11
702.269	2795.31
702.457	2715.44
702.646	2676.52
702.834	2682.67
703.023	2844.46
703.212	2776.87
703.4	2721.58
703.589	2703.15
703.777	2697
703.965	2719.53
704.154	2797.35
704.342	2733.87
704.531	2621.23
704.719	2688.81
704.907	2778.92
705.096	2617.13
705.284	2733.87
705.472	2658.09
705.661	2772.78
705.849	2617.13
706.037	2629.42
706.226	2680.62
706.414	2711.34
706.602	2780.97
706.79	2764.59
706.979	2785.07
707.167	2740.01
707.355	2707.24
707.543	2780.97
707.731	2858.79
707.919	2625.33
708.107	2629.42
708.296	2807.59
708.484	2713.39
708.672	2740.01
708.86	2701.1
709.048	2697
709.236	2854.7
709.424	2717.48
709.612	2778.92
709.8	2723.63
709.988	2758.44
710.176	2674.48
710.364	2809.64
710.551	2787.11
710.739	2580.27
710.927	2629.42
711.115	2633.52
711.303	2881.32
711.491	2748.2
711.679	2617.13
711.866	2697
712.054	2619.18
712.242	2664.24
712.43	2701.1
712.617	2723.63
712.805	2654
712.993	2674.48
713.181	2723.63
713.368	2729.77
713.556	2830.12
713.744	2772.78
713.931	2729.77
714.119	2592.56
714.306	2610.99
714.494	2699.05
714.682	2715.44
714.869	2760.49
715.057	2731.82
715.244	2783.02
715.432	2836.27
715.619	2844.46
715.807	2662.19
715.994	2828.07
716.182	2703.15
716.369	2774.83
716.556	2813.74
716.744	2690.86
716.931	2832.17
717.119	2776.87
717.306	2688.81
717.493	2780.97
717.681	2719.53
717.868	2748.2
718.055	2737.96
718.242	2805.55
718.43	2750.25
718.617	2805.55
718.804	2785.07
718.991	2780.97
719.179	2905.9
719.366	2783.02
719.553	2682.67
719.74	2764.59
719.927	2844.46
720.114	2758.44
720.301	2688.81
720.488	2768.68
720.676	2744.11
720.863	2758.44
721.05	2840.36
721.237	2735.92
721.424	2819.88
721.611	2875.18
721.798	2731.82
721.985	2776.87
722.172	2717.48
722.358	2690.86
722.545	2766.64
722.732	2737.96
722.919	2795.31
723.106	2713.39
723.293	2666.28
723.48	2787.11
723.667	2721.58
723.853	2699.05
724.04	2813.74
724.227	2826.03
724.414	2944.81
724.6	2776.87
724.787	2789.16
724.974	2785.07
725.161	2850.6
725.347	2733.87
725.534	2744.11
725.72	2819.88
725.907	2832.17
726.094	2852.65
726.28	2737.96
726.467	2703.15
726.653	2776.87
726.84	2848.55
727.027	2711.34
727.213	2721.58
727.4	2873.13
727.586	2740.01
727.773	2744.11
727.959	2869.03
728.145	2813.74
728.332	2766.64
728.518	2731.82
728.705	2875.18
728.891	2701.1
729.077	2647.85
729.264	2733.87
729.45	2899.75
729.636	2828.07
729.823	2785.07
730.009	2766.64
730.195	2826.03
730.382	2852.65
730.568	2836.27
730.754	2793.26
730.94	2776.87
731.126	2899.75
731.313	2760.49
731.499	2840.36
731.685	2789.16
731.871	2905.9
732.057	2766.64
732.243	2656.04
732.429	2737.96
732.615	2748.2
732.801	2885.42
732.987	2676.52
733.173	2891.56
733.359	2866.99
733.545	2719.53
733.731	2873.13
733.917	2871.08
734.103	2780.97
734.289	2713.39
734.475	2705.2
734.661	2926.38
734.847	2744.11
735.033	2801.45
735.219	2690.86
735.404	2758.44
735.59	2604.85
735.776	2674.48
735.962	2729.77
736.148	2819.88
736.333	2750.25
736.519	2654
736.705	2744.11
736.89	2740.01
737.076	2705.2
737.262	2680.62
737.447	2688.81
737.633	2731.82
737.819	2787.11
738.004	2635.57
738.19	2641.71
738.375	2598.7
738.561	2791.21
738.747	2586.41
738.932	2703.15
739.118	2744.11
739.303	2586.41
739.489	2641.71
739.674	2563.89
739.859	2588.46
740.045	2637.61
740.23	2651.95
740.416	2651.95
740.601	2684.72
740.786	2635.57
740.972	2547.5
741.157	2623.28
741.342	2551.6
741.528	2572.08
741.713	2623.28
741.898	2578.22
742.084	2549.55
742.269	2664.24
742.454	2590.51
742.639	2600.75
742.824	2496.3
743.01	2535.21
743.195	2590.51
743.38	2467.63
743.565	2514.73
743.75	2471.73
743.935	2438.96
744.12	2455.34
744.305	2314.03
744.49	2408.24
744.675	2551.6
744.86	2348.85
745.045	2408.24
745.23	2346.8
745.415	2402.1
745.6	2346.8
745.785	2316.08
745.97	2297.65
746.155	2332.47
746.34	2346.8
746.525	2334.51
746.71	2369.33
746.895	2154.29
747.079	2252.59
747.264	2178.87
747.449	2240.31
747.634	2248.5
747.819	2328.37
748.003	2252.59
748.188	2242.36
748.373	2099
748.557	2131.76
748.742	2168.63
748.927	2127.67
749.111	2107.19
749.296	2123.57
749.481	2160.44
749.665	2055.99
749.85	2127.67
750.034	2010.93
750.219	2090.81
750.404	2012.98
750.588	2019.13
750.773	1984.31
750.957	1898.3
751.141	2025.27
751.326	1910.58
751.51	1922.87
751.695	1871.67
751.879	1859.38
752.064	1990.45
752.248	1982.26
752.432	2039.61
752.617	1826.62
752.801	1857.34
752.985	1810.23
753.17	1912.63
753.354	1750.84
753.538	1843
753.722	1763.13
753.907	1736.51
754.091	1664.83
754.275	1625.92
754.459	1769.27
754.643	1705.79
754.828	1601.34
755.012	1742.65
755.196	1670.97
755.38	1783.61
755.564	1666.88
755.748	1748.79
755.932	1650.49
756.116	1638.2
756.3	1646.4
756.484	1582.91
756.668	1632.06
756.852	1574.72
757.036	1556.29
757.22	1599.29
757.404	1533.76
757.588	1443.65
757.772	1548.09
757.956	1474.37
758.14	1492.8
758.323	1548.09
758.507	1548.09
758.691	1521.47
758.875	1468.22
759.059	1482.56
759.242	1423.17
759.426	1509.18
759.61	1449.79
759.794	1402.69
759.977	1419.07
760.161	1410.88
760.345	1374.02
760.528	1367.87
760.712	1337.15
760.895	1337.15
761.079	1357.63
761.263	1300.29
761.446	1308.48
761.63	1302.34
761.813	1369.92
761.997	1316.67
762.18	1367.87
762.364	1236.8
762.547	1271.62
762.731	1292.1
762.914	1271.62
763.098	1353.54
763.281	1417.02
763.464	1124.16
763.648	1240.9
763.831	1249.09
764.015	1089.35
764.198	1298.24
764.381	1337.15
764.564	1195.84
764.748	1230.66
764.931	1226.56
765.114	1281.86
765.297	1175.36
765.481	1142.6
765.664	1206.08
765.847	1158.98
766.03	1165.12
766.213	1187.65
766.397	1091.4
766.58	1175.36
766.763	1179.46
766.946	1156.93
767.129	1111.88
767.312	1177.41
767.495	1171.27
767.678	1101.64
767.861	1091.4
768.044	1206.08
768.227	1142.6
768.41	1146.69
768.593	1095.49
768.776	1118.02
768.959	1068.87
769.142	1193.8
769.324	923.46
769.507	1064.77
769.69	1027.91
769.873	1013.57
770.056	1111.88
770.239	1007.43
770.421	1079.11
770.604	958.28
770.787	968.52
770.97	1027.91
771.152	1029.96
771.335	1058.63
771.518	1011.53
771.7	1029.96
771.883	1066.82
772.066	997.19
772.248	1001.29
772.431	1009.48
772.613	952.13
772.796	862.02
772.978	976.71
773.161	937.8
773.343	948.04
773.526	939.85
773.708	925.51
773.891	905.03
774.073	972.61
774.256	917.32
774.438	970.57
774.621	886.6
774.803	943.94
774.985	880.46
775.168	843.59
775.35	943.94
775.532	915.27
775.715	839.5
775.897	915.27
776.079	874.31
776.261	917.32
776.444	880.46
776.626	812.87
776.808	896.84
776.99	724.81
777.173	806.73
777.355	810.82
777.537	753.48
777.719	831.3
777.901	743.24
778.083	716.62
778.265	831.3
778.447	743.24
778.629	753.48
778.811	773.96
778.993	751.43
779.175	728.91
779.357	733
779.539	692.04
779.721	763.72
779.903	714.57
780.085	683.85
780.267	710.47
780.449	741.19
780.631	671.56
780.812	763.72
780.994	663.37
781.176	671.56
781.358	677.71
781.54	733
781.721	665.42
781.903	595.79
782.085	563.02
782.267	689.99
782.448	624.46
782.63	646.99
782.812	616.27
782.993	665.42
783.175	571.21
783.357	554.83
783.538	612.17
783.72	728.91
783.901	632.65
784.083	653.13
784.264	610.12
784.446	542.54
784.627	481.1
784.809	511.82
784.99	556.88
785.172	591.69
785.353	485.2
785.535	558.92
785.716	499.53
785.897	556.88
786.079	601.93
786.26	522.06
786.441	573.26
786.623	599.88
786.804	472.91
786.985	472.91
787.167	487.25
787.348	456.53
787.529	460.62
787.71	606.03
787.891	532.3
788.073	442.19
788.254	468.81
788.435	440.14
788.616	524.11
788.797	448.33
788.978	401.23
789.159	442.19
789.34	403.28
789.522	397.14
789.703	380.75
789.884	401.23
790.065	485.2
790.246	452.43
790.427	438.09
790.607	434
790.788	388.94
790.969	425.81
791.15	384.85
791.331	413.52
791.512	407.38
791.693	415.57
791.874	413.52
792.054	472.91
792.235	450.38
792.416	409.42
792.597	419.66
792.778	434
792.958	466.77
793.139	399.18
793.32	403.28
793.5	374.61
793.681	407.38
793.862	472.91
794.042	415.57
794.223	390.99
794.404	393.04
794.584	382.8
794.765	315.22
794.945	345.94
795.126	311.12
795.306	522.06
795.487	362.32
795.667	380.75
795.848	298.83
796.028	325.46
796.209	395.09
796.389	307.02
796.57	378.7
796.75	372.56
796.93	386.9
797.111	360.27
797.291	272.21
797.471	390.99
797.652	384.85
797.832	296.78
798.012	399.18
798.192	245.59
798.373	374.61
798.553	251.73
798.733	315.22
798.913	245.59
799.093	321.36
799.274	333.65
799.454	206.67
799.634	360.27
799.814	360.27
799.994	431.95
800.174	364.37
800.354	274.26
800.534	286.54
800.714	278.35
800.894	264.02
801.074	298.83
801.254	216.91
801.434	390.99
801.614	274.26
801.794	292.69
801.974	687.95
802.154	290.64
802.334	272.21
802.514	284.5
802.693	261.97
802.873	270.16
803.053	300.88
803.233	339.79
803.413	268.11
803.592	257.87
803.772	141.14
803.952	206.67
804.131	253.78
804.311	276.31
804.491	307.02
804.67	300.88
804.85	266.07
805.03	241.49
805.209	323.41
805.389	190.29
805.568	288.59
805.748	241.49
805.928	243.54
806.107	216.91
806.287	268.11
806.466	198.48
806.646	212.82
806.825	221.01
807.004	235.35
807.184	249.68
807.363	227.15
807.543	259.92
807.722	259.92
807.901	235.35
808.081	235.35
808.26	198.48
808.439	237.39
808.619	270.16
808.798	294.74
808.977	280.4
809.156	233.3
809.336	180.05
809.515	202.58
809.694	132.95
809.873	223.06
810.052	186.19
810.231	214.87
810.411	264.02
810.59	165.71
810.769	233.3
810.948	278.35
811.127	124.76
811.306	253.78
811.485	194.39
811.664	294.74
811.843	182.1
812.022	159.57
812.201	151.38
812.38	278.35
812.559	249.68
812.737	243.54
812.916	141.14
813.095	243.54
813.274	268.11
813.453	180.05
813.632	141.14
813.811	223.06
813.989	157.52
814.168	231.25
814.347	173.91
814.526	173.91
814.704	198.48
814.883	243.54
815.062	167.76
815.24	196.43
815.419	186.19
815.598	241.49
815.776	145.24
815.955	188.24
816.133	184.15
816.312	149.33
816.49	180.05
816.669	249.68
816.847	192.34
817.026	196.43
817.204	143.19
817.383	188.24
817.561	171.86
817.74	159.57
817.918	141.14
818.097	214.87
818.275	126.8
818.453	202.58
818.632	67.41
818.81	151.38
818.988	182.1
819.167	204.63
819.345	149.33
819.523	212.82
819.701	137.04
819.879	118.61
820.058	110.42
820.236	128.85
820.414	225.11
820.592	135
820.77	141.14
820.948	118.61
821.127	145.24
821.305	167.76
821.483	135
821.661	200.53
821.839	159.57
822.017	171.86
822.195	157.52
822.373	161.62
822.551	98.13
822.729	167.76
822.907	94.04
823.085	118.61
823.262	206.67
823.44	100.18
823.618	159.57
823.796	157.52
823.974	137.04
824.152	184.15
824.329	98.13
824.507	94.04
824.685	132.95
824.863	155.47
825.04	128.85
825.218	210.77
825.396	165.71
825.574	108.37
825.751	112.47
825.929	112.47
826.107	81.75
826.284	163.67
826.462	167.76
826.639	67.41
826.817	106.32
826.994	190.29
827.172	106.32
827.349	155.47
827.527	151.38
827.704	153.43
827.882	130.9
828.059	122.71
828.237	139.09
828.414	118.61
828.591	51.03
828.769	137.04
828.946	114.52
829.124	94.04
829.301	202.58
829.478	157.52
829.655	81.75
829.833	75.6
830.01	102.23
830.187	73.56
830.364	91.99
830.542	132.95
830.719	104.28
830.896	106.32
831.073	91.99
831.25	108.37
831.427	112.47
831.604	73.56
831.782	81.75
831.959	98.13
832.136	155.47
832.313	85.84
832.49	44.88
832.667	77.65
832.844	22.36
833.021	124.76
833.198	120.66
833.374	112.47
833.551	116.56
833.728	102.23
833.905	96.08
834.082	157.52
834.259	155.47
834.436	128.85
834.612	89.94
834.789	120.66
834.966	96.08
835.143	153.43
835.319	44.88
835.496	116.56
835.673	28.5
835.85	128.85
836.026	112.47
836.203	59.22
836.38	65.36
836.556	65.36
836.733	104.28
836.909	108.37
837.086	36.69
837.262	32.6
837.439	75.6
837.616	8.02
837.792	87.89
837.968	122.71
838.145	112.47
838.321	69.46
838.498	83.8
838.674	75.6
838.851	79.7
839.027	-4.27
839.203	79.7
839.38	130.9
839.556	36.69
839.732	91.99
839.909	38.74
840.085	51.03
840.261	106.32
840.437	94.04
840.614	122.71
840.79	55.12
840.966	135
841.142	85.84
841.318	34.64
841.494	96.08
841.671	91.99
841.847	91.99
842.023	48.98
842.199	104.28
842.375	102.23
842.551	59.22
842.727	71.51
842.903	102.23
843.079	46.93
843.255	75.6
843.431	120.66
843.607	102.23
843.783	28.5
843.959	135
844.134	53.08
844.31	91.99
844.486	18.26
844.662	106.32
844.838	42.84
845.013	71.51
845.189	110.42
845.365	20.31
845.541	67.41
845.716	61.27
845.892	69.46
846.068	48.98
846.244	110.42
846.419	81.75
846.595	77.65
846.77	-24.75
846.946	96.08
847.122	40.79
847.297	44.88
847.473	79.7
847.648	46.93
847.824	57.17
847.999	51.03
848.175	130.9
848.35	83.8
848.526	67.41
848.701	73.56
848.876	85.84
849.052	65.36
849.227	85.84
849.403	36.69
849.578	59.22
849.753	118.61
849.929	135
850.104	57.17
850.279	87.89
850.454	77.65
850.63	139.09
850.805	10.07
850.98	81.75
851.155	102.23
851.33	69.46
851.505	46.93
851.681	77.65
851.856	51.03
852.031	-14.51
852.206	130.9
852.381	-22.7
852.556	24.4
852.731	-20.65
852.906	116.56
853.081	28.5
853.256	-8.36
853.431	51.03
853.606	5.97
853.781	59.22
853.956	51.03
854.131	128.85
854.305	116.56
854.48	1.88
854.655	22.36
854.83	34.64
855.005	22.36
855.18	130.9
855.354	10.07
855.529	48.98
855.704	67.41
855.879	32.6
856.053	3.93
856.228	91.99
856.403	42.84
856.577	46.93
856.752	48.98
856.926	75.6
857.101	-14.51
857.276	38.74
857.45	59.22
857.625	61.27
857.799	83.8
857.974	51.03
858.148	-30.89
858.323	42.84
858.497	36.69
858.672	24.4
858.846	36.69
859.02	51.03
859.195	-12.46
859.369	100.18
859.543	26.45
859.718	1.88
859.892	-0.17
860.066	81.75
860.241	85.84
860.415	53.08
860.589	32.6
860.763	24.4
860.938	38.74
861.112	-14.51
861.286	42.84
861.46	-0.17
861.634	46.93
861.808	44.88
861.982	16.21
862.157	67.41
862.331	55.12
862.505	46.93
862.679	-22.7
862.853	48.98
863.027	-4.27
863.201	53.08
863.375	12.12
863.549	73.56
863.722	5.97
863.896	-4.27
864.07	42.84
864.244	8.02
864.418	26.45
864.592	44.88
864.766	-0.17
864.939	67.41
865.113	71.51
865.287	30.55
865.461	-8.36
865.634	59.22
865.808	16.21
865.982	44.88
866.156	100.18
866.329	59.22
866.503	57.17
866.676	38.74
866.85	63.32
867.024	69.46
867.197	12.12
867.371	20.31
867.544	40.79
867.718	53.08
867.891	55.12
868.065	53.08
868.238	-18.6
868.412	5.97
868.585	-8.36
868.759	-6.31
868.932	-4.27
869.105	-12.46
869.279	18.26
869.452	26.45
869.625	61.27
869.799	30.55
869.972	55.12
870.145	-22.7
870.319	30.55
870.492	53.08
870.665	-34.99
870.838	32.6
871.011	-32.94
871.185	-4.27
871.358	-34.99
871.531	110.42
871.704	63.32
871.877	46.93
872.05	12.12
872.223	-24.75
872.396	53.08
872.569	85.84
872.742	16.21
872.915	77.65
873.088	24.4
873.261	1.88
873.434	69.46
873.607	51.03
873.78	30.55
873.953	14.17
874.126	143.19
874.299	36.69
874.471	57.17
874.644	51.03
874.817	55.12
874.99	55.12
875.163	61.27
875.335	61.27
875.508	38.74
875.681	46.93
875.853	48.98
876.026	-26.79
876.199	14.17
876.371	-8.36
876.544	-45.23
876.717	5.97
876.889	-26.79
877.062	8.02
877.234	24.4
877.407	-18.6
877.579	42.84
877.752	-41.13
877.924	53.08
878.097	-12.46
878.269	32.6
878.442	8.02
878.614	-6.31
878.786	79.7
878.959	1.88
879.131	145.24
879.303	-2.22
879.476	48.98
879.648	81.75
879.82	-49.32
879.993	-34.99
880.165	14.17
880.337	-10.41
880.509	24.4
880.681	-8.36
880.854	-18.6
881.026	53.08
881.198	59.22
881.37	-0.17
881.542	-10.41
881.714	67.41
881.886	98.13
882.058	-2.22
882.23	-18.6
882.402	40.79
882.574	40.79
882.746	-51.37
882.918	75.6
883.09	-10.41
883.262	28.5
883.434	-30.89
883.606	-57.51
883.778	-32.94
883.95	96.08
884.122	3.93
884.293	-20.65
884.465	36.69
884.637	-16.55
884.809	-16.55
884.98	-18.6
885.152	-37.03
885.324	-10.41
885.496	-51.37
885.667	-16.55
885.839	55.12
886.011	71.51
886.182	8.02
886.354	65.36
886.525	26.45
886.697	-32.94
886.869	28.5
887.04	57.17
887.212	139.09
887.383	26.45
887.555	-47.27
887.726	46.93
887.897	1.88
888.069	83.8
888.24	63.32
888.412	26.45
888.583	-39.08
888.754	14.17
888.926	3.93
889.097	-12.46
889.268	14.17
889.44	34.64
889.611	51.03
889.782	-30.89
889.953	-80.04
890.125	73.56
890.296	38.74
890.467	36.69
890.638	-6.31
890.809	-14.51
890.98	51.03
891.151	73.56
891.323	3.93
891.494	44.88
891.665	30.55
891.836	34.64
892.007	-10.41
892.178	-28.84
892.349	-8.36
892.52	-12.46
892.691	24.4
892.862	24.4
893.032	36.69
893.203	-20.65
893.374	10.07
893.545	-12.46
893.716	73.56
893.887	71.51
894.057	-20.65
894.228	51.03
894.399	18.26
894.57	36.69
894.74	61.27
894.911	59.22
895.082	24.4
895.253	-4.27
895.423	-24.75
895.594	69.46
895.764	3.93
895.935	-63.66
896.106	71.51
896.276	8.02
896.447	8.02
896.617	-16.55
896.788	-2.22
896.958	3.93
897.129	36.69
897.299	8.02
897.47	8.02
897.64	22.36
897.81	65.36
897.981	-24.75
898.151	36.69
898.322	48.98
898.492	-4.27
898.662	8.02
898.832	57.17
899.003	5.97
899.173	22.36
899.343	-12.46
899.513	12.12
