Data from USB4F104151__3__11-51-02-592.txt Node

Date: Fri Mar 14 11:51:02 EDT 2025
User: louis
Spectrometer: USB4F10415
Trigger mode: 4
Integration Time (sec): 2.000000E-2
Scans to average: 1
Electric dark correction enabled: true
Nonlinearity correction enabled: false
Boxcar width: 0
XAxis mode: Wavelengths
Number of Pixels in Spectrum: 3648
>>>>>Begin Spectral Data<<<<<
178.204	-91.48
178.424	-91.48
178.644	-91.48
178.864	-38.23
179.084	-105.81
179.304	-19.8
179.524	-1.37
179.744	-71
179.964	-1.37
180.184	8.87
180.404	53.93
180.624	-19.8
180.844	-17.75
181.064	-46.42
181.283	76.46
181.503	31.4
181.723	6.83
181.943	21.16
182.163	41.64
182.383	43.69
182.602	68.27
182.822	90.79
183.042	0.68
183.262	72.36
183.482	105.13
183.701	43.69
183.921	47.79
184.141	96.94
184.361	23.21
184.58	53.93
184.8	0.68
185.02	76.46
185.239	27.31
185.459	33.45
185.679	74.41
185.898	-5.46
186.118	-1.37
186.338	94.89
186.557	101.03
186.777	-15.7
186.997	27.31
187.216	64.17
187.436	37.55
187.655	98.99
187.875	58.03
188.095	-9.56
188.314	6.83
188.534	53.93
188.753	-44.37
188.973	47.79
189.192	86.7
189.412	15.02
189.631	-5.46
189.851	6.83
190.07	121.51
190.29	17.07
190.509	51.88
190.729	33.45
190.948	51.88
191.168	43.69
191.387	12.97
191.607	39.59
191.826	90.79
192.045	17.07
192.265	27.31
192.484	-17.75
192.704	8.87
192.923	51.88
193.142	129.7
193.362	39.59
193.581	68.27
193.8	-52.56
194.02	-40.28
194.239	35.5
194.458	47.79
194.678	51.88
194.897	17.07
195.116	62.12
195.335	0.68
195.555	78.51
195.774	76.46
195.993	107.18
196.212	86.7
196.432	-15.7
196.651	33.45
196.87	35.5
197.089	80.55
197.308	43.69
197.528	96.94
197.747	-11.61
197.966	49.83
198.185	70.31
198.404	23.21
198.623	27.31
198.842	74.41
199.062	88.75
199.281	19.11
199.5	15.02
199.719	31.4
199.938	8.87
200.157	53.93
200.376	29.35
200.595	55.98
200.814	74.41
201.033	15.02
201.252	29.35
201.471	21.16
201.69	82.6
201.909	66.22
202.128	37.55
202.347	-25.94
202.566	-5.46
202.785	68.27
203.004	8.87
203.223	58.03
203.442	4.78
203.661	25.26
203.879	10.92
204.098	21.16
204.317	-7.51
204.536	66.22
204.755	39.59
204.974	117.42
205.193	37.55
205.411	45.74
205.63	12.97
205.849	25.26
206.068	133.8
206.287	23.21
206.505	-11.61
206.724	37.55
206.943	-42.32
207.162	25.26
207.381	82.6
207.599	-27.99
207.818	0.68
208.037	45.74
208.255	72.36
208.474	-1.37
208.693	0.68
208.911	10.92
209.13	-5.46
209.349	49.83
209.567	8.87
209.786	96.94
210.005	51.88
210.223	19.11
210.442	4.78
210.661	92.84
210.879	10.92
211.098	37.55
211.316	35.5
211.535	6.83
211.753	-11.61
211.972	64.17
212.191	39.59
212.409	62.12
212.628	84.65
212.846	17.07
213.065	41.64
213.283	103.08
213.502	15.02
213.72	6.83
213.938	15.02
214.157	55.98
214.375	-15.7
214.594	-15.7
214.812	23.21
215.031	68.27
215.249	35.5
215.467	21.16
215.686	27.31
215.904	-9.56
216.122	10.92
216.341	98.99
216.559	21.16
216.778	33.45
216.996	139.94
217.214	25.26
217.432	-1.37
217.651	70.31
217.869	27.31
218.087	-64.85
218.306	-21.85
218.524	0.68
218.742	37.55
218.96	103.08
219.179	49.83
219.397	39.59
219.615	62.12
219.833	35.5
220.051	33.45
220.27	51.88
220.488	12.97
220.706	41.64
220.924	25.26
221.142	21.16
221.36	96.94
221.578	47.79
221.796	-17.75
222.015	90.79
222.233	10.92
222.451	60.07
222.669	-1.37
222.887	148.14
223.105	-66.9
223.323	43.69
223.541	19.11
223.759	82.6
223.977	58.03
224.195	12.97
224.413	78.51
224.631	37.55
224.849	39.59
225.067	-32.08
225.285	31.4
225.503	12.97
225.721	-7.51
225.939	39.59
226.157	113.32
226.375	-15.7
226.592	0.68
226.81	27.31
227.028	15.02
227.246	90.79
227.464	-9.56
227.682	33.45
227.9	35.5
228.117	-17.75
228.335	33.45
228.553	92.84
228.771	37.55
228.989	115.37
229.206	68.27
229.424	78.51
229.642	78.51
229.86	78.51
230.077	72.36
230.295	49.83
230.513	47.79
230.731	58.03
230.948	12.97
231.166	107.18
231.384	37.55
231.601	27.31
231.819	74.41
232.037	-7.51
232.254	41.64
232.472	66.22
232.689	15.02
232.907	127.66
233.125	-54.61
233.342	60.07
233.56	-36.18
233.777	53.93
233.995	27.31
234.213	78.51
234.43	17.07
234.648	68.27
234.865	25.26
235.083	41.64
235.3	25.26
235.518	76.46
235.735	49.83
235.953	72.36
236.17	66.22
236.388	35.5
236.605	12.97
236.822	123.56
237.04	15.02
237.257	25.26
237.475	39.59
237.692	-17.75
237.909	0.68
238.127	123.56
238.344	41.64
238.562	45.74
238.779	17.07
238.996	4.78
239.214	35.5
239.431	15.02
239.648	64.17
239.865	82.6
240.083	80.55
240.3	53.93
240.517	0.68
240.735	-5.46
240.952	107.18
241.169	60.07
241.386	12.97
241.603	45.74
241.821	62.12
242.038	68.27
242.255	37.55
242.472	60.07
242.689	66.22
242.907	92.84
243.124	45.74
243.341	78.51
243.558	27.31
243.775	27.31
243.992	27.31
244.209	43.69
244.426	45.74
244.643	68.27
244.86	53.93
245.078	62.12
245.295	53.93
245.512	113.32
245.729	-5.46
245.946	25.26
246.163	19.11
246.38	19.11
246.597	0.68
246.814	35.5
247.031	103.08
247.248	43.69
247.464	-30.04
247.681	19.11
247.898	119.46
248.115	27.31
248.332	12.97
248.549	58.03
248.766	51.88
248.983	27.31
249.2	84.65
249.417	98.99
249.633	55.98
249.85	6.83
250.067	29.35
250.284	-13.65
250.501	72.36
250.717	68.27
250.934	21.16
251.151	62.12
251.368	111.27
251.585	37.55
251.801	33.45
252.018	72.36
252.235	51.88
252.451	31.4
252.668	70.31
252.885	98.99
253.102	29.35
253.318	70.31
253.535	-42.32
253.752	12.97
253.968	29.35
254.185	15.02
254.401	96.94
254.618	49.83
254.835	-40.28
255.051	98.99
255.268	123.56
255.484	96.94
255.701	12.97
255.917	23.21
256.134	12.97
256.351	49.83
256.567	27.31
256.784	74.41
257	35.5
257.217	49.83
257.433	113.32
257.65	68.27
257.866	19.11
258.082	27.31
258.299	12.97
258.515	84.65
258.732	41.64
258.948	19.11
259.165	37.55
259.381	72.36
259.597	74.41
259.814	64.17
260.03	6.83
260.246	62.12
260.463	10.92
260.679	21.16
260.895	21.16
261.112	62.12
261.328	43.69
261.544	64.17
261.761	141.99
261.977	117.42
262.193	82.6
262.409	62.12
262.626	55.98
262.842	47.79
263.058	86.7
263.274	60.07
263.49	35.5
263.707	-13.65
263.923	49.83
264.139	29.35
264.355	23.21
264.571	70.31
264.787	0.68
265.004	33.45
265.22	76.46
265.436	41.64
265.652	27.31
265.868	84.65
266.084	8.87
266.3	76.46
266.516	6.83
266.732	68.27
266.948	41.64
267.164	84.65
267.38	-21.85
267.596	121.51
267.812	49.83
268.028	90.79
268.244	-27.99
268.46	68.27
268.676	70.31
268.892	55.98
269.108	-13.65
269.324	23.21
269.54	-46.42
269.756	29.35
269.972	10.92
270.188	64.17
270.403	39.59
270.619	55.98
270.835	60.07
271.051	47.79
271.267	-3.41
271.483	123.56
271.698	72.36
271.914	62.12
272.13	74.41
272.346	31.4
272.562	23.21
272.777	88.75
272.993	55.98
273.209	43.69
273.425	51.88
273.64	8.87
273.856	39.59
274.072	43.69
274.287	21.16
274.503	103.08
274.719	10.92
274.934	64.17
275.15	-48.47
275.366	68.27
275.581	82.6
275.797	-7.51
276.012	84.65
276.228	55.98
276.444	29.35
276.659	121.51
276.875	103.08
277.09	72.36
277.306	64.17
277.521	64.17
277.737	41.64
277.952	70.31
278.168	21.16
278.383	66.22
278.599	68.27
278.814	70.31
279.03	105.13
279.245	113.32
279.461	29.35
279.676	-1.37
279.892	-11.61
280.107	35.5
280.322	47.79
280.538	49.83
280.753	-1.37
280.969	19.11
281.184	37.55
281.399	96.94
281.615	-23.89
281.83	-19.8
282.045	19.11
282.26	-15.7
282.476	17.07
282.691	33.45
282.906	-13.65
283.122	0.68
283.337	-38.23
283.552	107.18
283.767	37.55
283.983	78.51
284.198	55.98
284.413	41.64
284.628	29.35
284.843	10.92
285.058	23.21
285.274	37.55
285.489	-23.89
285.704	31.4
285.919	2.73
286.134	8.87
286.349	33.45
286.564	70.31
286.779	90.79
286.995	45.74
287.21	12.97
287.425	80.55
287.64	27.31
287.855	62.12
288.07	47.79
288.285	103.08
288.5	8.87
288.715	-3.41
288.93	72.36
289.145	21.16
289.36	8.87
289.575	55.98
289.79	-11.61
290.004	8.87
290.219	68.27
290.434	60.07
290.649	4.78
290.864	62.12
291.079	-36.18
291.294	62.12
291.509	27.31
291.724	66.22
291.938	4.78
292.153	37.55
292.368	66.22
292.583	8.87
292.798	37.55
293.012	86.7
293.227	15.02
293.442	51.88
293.657	84.65
293.871	51.88
294.086	35.5
294.301	96.94
294.516	23.21
294.73	-27.99
294.945	76.46
295.16	66.22
295.374	103.08
295.589	29.35
295.804	43.69
296.018	70.31
296.233	74.41
296.447	60.07
296.662	4.78
296.877	121.51
297.091	55.98
297.306	88.75
297.52	33.45
297.735	80.55
297.949	-36.18
298.164	101.03
298.378	37.55
298.593	41.64
298.807	-13.65
299.022	6.83
299.236	82.6
299.451	33.45
299.665	58.03
299.88	19.11
300.094	15.02
300.309	80.55
300.523	76.46
300.737	82.6
300.952	41.64
301.166	88.75
301.381	76.46
301.595	96.94
301.809	53.93
302.024	35.5
302.238	29.35
302.452	49.83
302.667	33.45
302.881	55.98
303.095	70.31
303.309	92.84
303.524	80.55
303.738	51.88
303.952	-32.08
304.166	60.07
304.381	25.26
304.595	141.99
304.809	2.73
305.023	49.83
305.237	55.98
305.452	78.51
305.666	90.79
305.88	66.22
306.094	33.45
306.308	-21.85
306.522	70.31
306.736	-3.41
306.95	88.75
307.164	33.45
307.379	-3.41
307.593	70.31
307.807	109.22
308.021	31.4
308.235	101.03
308.449	35.5
308.663	55.98
308.877	107.18
309.091	47.79
309.305	-1.37
309.519	8.87
309.733	76.46
309.947	-27.99
310.161	45.74
310.374	68.27
310.588	76.46
310.802	23.21
311.016	58.03
311.23	60.07
311.444	-13.65
311.658	25.26
311.872	8.87
312.085	80.55
312.299	-34.13
312.513	55.98
312.727	53.93
312.941	78.51
313.154	47.79
313.368	27.31
313.582	60.07
313.796	29.35
314.009	29.35
314.223	49.83
314.437	51.88
314.651	29.35
314.864	68.27
315.078	39.59
315.292	66.22
315.505	39.59
315.719	94.89
315.933	66.22
316.146	10.92
316.36	25.26
316.573	141.99
316.787	86.7
317.001	21.16
317.214	78.51
317.428	55.98
317.641	8.87
317.855	-5.46
318.068	2.73
318.282	23.21
318.495	2.73
318.709	82.6
318.922	-34.13
319.136	137.9
319.349	25.26
319.563	51.88
319.776	101.03
319.99	96.94
320.203	121.51
320.417	-30.04
320.63	96.94
320.843	47.79
321.057	76.46
321.27	103.08
321.483	49.83
321.697	19.11
321.91	55.98
322.124	66.22
322.337	-19.8
322.55	23.21
322.763	72.36
322.977	84.65
323.19	6.83
323.403	68.27
323.617	64.17
323.83	62.12
324.043	49.83
324.256	25.26
324.469	47.79
324.683	103.08
324.896	94.89
325.109	92.84
325.322	70.31
325.535	92.84
325.748	8.87
325.962	53.93
326.175	41.64
326.388	115.37
326.601	53.93
326.814	33.45
327.027	96.94
327.24	64.17
327.453	-9.56
327.666	8.87
327.879	80.55
328.092	41.64
328.305	53.93
328.518	6.83
328.731	58.03
328.944	72.36
329.157	94.89
329.37	66.22
329.583	76.46
329.796	98.99
330.009	-19.8
330.222	82.6
330.435	35.5
330.648	103.08
330.861	-5.46
331.073	51.88
331.286	17.07
331.499	29.35
331.712	90.79
331.925	10.92
332.138	4.78
332.35	35.5
332.563	53.93
332.776	109.22
332.989	35.5
333.202	49.83
333.414	96.94
333.627	19.11
333.84	82.6
334.053	25.26
334.265	-25.94
334.478	43.69
334.691	29.35
334.903	19.11
335.116	66.22
335.329	12.97
335.541	37.55
335.754	62.12
335.966	4.78
336.179	-5.46
336.392	55.98
336.604	62.12
336.817	49.83
337.029	39.59
337.242	76.46
337.454	-19.8
337.667	35.5
337.88	80.55
338.092	27.31
338.305	45.74
338.517	62.12
338.729	-19.8
338.942	101.03
339.154	-17.75
339.367	31.4
339.579	101.03
339.792	43.69
340.004	58.03
340.217	86.7
340.429	60.07
340.641	15.02
340.854	31.4
341.066	25.26
341.278	86.7
341.491	82.6
341.703	55.98
341.915	12.97
342.128	60.07
342.34	8.87
342.552	51.88
342.764	45.74
342.977	33.45
343.189	92.84
343.401	62.12
343.613	2.73
343.826	68.27
344.038	70.31
344.25	21.16
344.462	72.36
344.674	27.31
344.886	53.93
345.099	76.46
345.311	66.22
345.523	72.36
345.735	76.46
345.947	86.7
346.159	41.64
346.371	74.41
346.583	10.92
346.795	86.7
347.007	17.07
347.219	141.99
347.431	8.87
347.643	125.61
347.855	72.36
348.067	92.84
348.279	37.55
348.491	94.89
348.703	4.78
348.915	27.31
349.127	55.98
349.339	90.79
349.551	35.5
349.763	31.4
349.975	27.31
350.187	88.75
350.399	25.26
350.61	90.79
350.822	103.08
351.034	62.12
351.246	10.92
351.458	27.31
351.669	70.31
351.881	107.18
352.093	80.55
352.305	109.22
352.517	8.87
352.728	45.74
352.94	39.59
353.152	105.13
353.363	33.45
353.575	74.41
353.787	39.59
353.999	45.74
354.21	68.27
354.422	29.35
354.633	70.31
354.845	144.04
355.057	45.74
355.268	127.66
355.48	35.5
355.692	41.64
355.903	84.65
356.115	64.17
356.326	55.98
356.538	131.75
356.749	66.22
356.961	45.74
357.172	-17.75
357.384	4.78
357.595	96.94
357.807	62.12
358.018	51.88
358.23	49.83
358.441	64.17
358.653	51.88
358.864	-38.23
359.075	66.22
359.287	66.22
359.498	-50.52
359.709	86.7
359.921	0.68
360.132	68.27
360.344	15.02
360.555	92.84
360.766	164.52
360.977	101.03
361.189	119.46
361.4	64.17
361.611	156.33
361.823	45.74
362.034	113.32
362.245	-25.94
362.456	76.46
362.667	58.03
362.879	60.07
363.09	70.31
363.301	64.17
363.512	2.73
363.723	64.17
363.935	74.41
364.146	119.46
364.357	62.12
364.568	94.89
364.779	2.73
364.99	-5.46
365.201	-9.56
365.412	98.99
365.623	68.27
365.834	10.92
366.045	49.83
366.256	43.69
366.467	55.98
366.678	-1.37
366.889	70.31
367.1	43.69
367.311	98.99
367.522	70.31
367.733	78.51
367.944	4.78
368.155	-15.7
368.366	15.02
368.577	64.17
368.788	2.73
368.999	80.55
369.209	29.35
369.42	53.93
369.631	105.13
369.842	21.16
370.053	64.17
370.264	113.32
370.474	80.55
370.685	88.75
370.896	123.56
371.107	68.27
371.317	72.36
371.528	0.68
371.739	135.85
371.95	62.12
372.16	62.12
372.371	-3.41
372.582	80.55
372.792	29.35
373.003	49.83
373.214	43.69
373.424	29.35
373.635	111.27
373.846	84.65
374.056	49.83
374.267	47.79
374.477	119.46
374.688	121.51
374.898	25.26
375.109	25.26
375.319	39.59
375.53	98.99
375.74	109.22
375.951	74.41
376.161	41.64
376.372	60.07
376.582	76.46
376.793	80.55
377.003	-7.51
377.214	41.64
377.424	101.03
377.635	111.27
377.845	-13.65
378.055	111.27
378.266	33.45
378.476	86.7
378.686	96.94
378.897	92.84
379.107	15.02
379.317	111.27
379.528	88.75
379.738	-9.56
379.948	2.73
380.158	47.79
380.369	90.79
380.579	84.65
380.789	64.17
380.999	86.7
381.21	64.17
381.42	115.37
381.63	47.79
381.84	90.79
382.05	84.65
382.261	37.55
382.471	80.55
382.681	12.97
382.891	86.7
383.101	66.22
383.311	66.22
383.521	39.59
383.731	-15.7
383.941	39.59
384.151	62.12
384.361	35.5
384.571	49.83
384.781	12.97
384.991	58.03
385.201	98.99
385.411	58.03
385.621	64.17
385.831	0.68
386.041	72.36
386.251	60.07
386.461	150.18
386.671	29.35
386.881	70.31
387.091	86.7
387.301	4.78
387.511	43.69
387.72	15.02
387.93	78.51
388.14	92.84
388.35	12.97
388.56	146.09
388.769	107.18
388.979	25.26
389.189	86.7
389.399	55.98
389.609	64.17
389.818	43.69
390.028	107.18
390.238	43.69
390.447	72.36
390.657	19.11
390.867	51.88
391.076	53.93
391.286	70.31
391.496	49.83
391.705	47.79
391.915	84.65
392.125	90.79
392.334	17.07
392.544	88.75
392.753	84.65
392.963	68.27
393.172	-27.99
393.382	113.32
393.591	125.61
393.801	92.84
394.01	166.57
394.22	123.56
394.429	88.75
394.639	74.41
394.848	33.45
395.058	105.13
395.267	72.36
395.477	74.41
395.686	84.65
395.895	129.7
396.105	148.14
396.314	45.74
396.524	135.85
396.733	90.79
396.942	51.88
397.152	101.03
397.361	125.61
397.57	103.08
397.78	66.22
397.989	125.61
398.198	154.28
398.407	101.03
398.617	141.99
398.826	109.22
399.035	152.23
399.244	172.71
399.453	101.03
399.663	115.37
399.872	113.32
400.081	113.32
400.29	182.95
400.499	94.89
400.708	129.7
400.917	123.56
401.127	64.17
401.336	45.74
401.545	96.94
401.754	88.75
401.963	117.42
402.172	115.37
402.381	178.86
402.59	94.89
402.799	76.46
403.008	115.37
403.217	152.23
403.426	166.57
403.635	152.23
403.844	96.94
404.053	172.71
404.262	90.79
404.471	207.53
404.68	141.99
404.888	148.14
405.097	66.22
405.306	150.18
405.515	178.86
405.724	123.56
405.933	125.61
406.142	170.66
406.35	150.18
406.559	162.47
406.768	150.18
406.977	178.86
407.185	168.62
407.394	168.62
407.603	221.86
407.812	207.53
408.02	191.14
408.229	258.73
408.438	125.61
408.646	160.42
408.855	228.01
409.064	248.49
409.272	187.05
409.481	297.64
409.69	275.11
409.898	326.31
410.107	225.96
410.315	189.1
410.524	307.88
410.733	297.64
410.941	326.31
411.15	342.69
411.358	316.07
411.567	285.35
411.775	377.51
411.984	336.55
412.192	332.45
412.401	305.83
412.609	416.42
412.818	397.99
413.026	471.72
413.234	508.58
413.443	420.52
413.651	428.71
413.86	441
414.068	498.34
414.276	610.98
414.485	602.79
414.693	600.74
414.901	615.07
415.11	606.88
415.318	623.27
415.526	570.02
415.734	610.98
415.943	666.27
416.151	762.53
416.359	694.94
416.567	731.81
416.776	797.34
416.984	821.92
417.192	903.84
417.4	889.5
417.608	770.72
417.817	836.25
418.025	873.12
418.233	948.89
418.441	989.85
418.649	955.04
418.857	1104.54
419.065	1041.05
419.273	1151.64
419.481	1198.74
419.689	1262.23
419.897	1213.08
420.105	1282.71
420.313	1340.05
420.521	1331.86
420.729	1364.63
420.937	1477.27
421.145	1536.66
421.353	1538.71
421.561	1702.54
421.769	1641.11
421.977	1753.74
422.185	1751.7
422.393	1874.57
422.601	1876.62
422.809	2058.89
423.017	2046.6
423.224	2036.36
423.432	2118.28
423.64	2126.47
423.848	2282.12
424.056	2280.07
424.263	2388.61
424.471	2507.4
424.679	2497.16
424.887	2570.88
425.094	2724.48
425.302	2701.95
425.51	2869.89
425.718	2830.98
425.925	2876.03
426.133	3023.48
426.341	3127.93
426.548	3287.67
426.756	3281.53
426.964	3261.05
427.171	3394.17
427.379	3740.27
427.586	3607.16
427.794	3721.84
428.001	3994.22
428.209	4076.14
428.417	4139.63
428.624	4534.89
428.832	4491.88
429.039	4422.25
429.247	4407.91
429.454	4723.3
429.662	4936.29
429.869	4907.62
430.076	5071.45
430.284	5010.01
430.491	5167.71
430.699	5462.62
430.906	5425.75
431.114	5642.84
431.321	5894.74
431.528	5802.58
431.736	6171.21
431.943	6373.96
432.15	6363.72
432.358	6339.15
432.565	6660.68
432.772	6765.12
432.979	7129.66
433.187	7168.57
433.394	7326.27
433.601	7633.46
433.808	7817.78
434.016	7737.91
434.223	8090.16
434.43	8501.8
434.637	8305.2
434.844	8665.64
435.052	9046.56
435.259	8804.9
435.466	9067.04
435.673	8897.06
435.88	9613.85
436.087	9970.19
436.294	9937.43
436.501	9744.92
436.708	10123.79
436.915	10359.31
437.122	10758.66
437.329	10803.72
437.537	11127.3
437.743	11141.63
437.95	11166.21
438.157	11778.55
438.364	12288.5
438.571	12243.44
438.778	12380.65
438.985	13165.03
439.192	12737
439.399	13269.47
439.606	12896.74
439.813	13763.03
440.02	14418.38
440.227	14227.92
440.433	13949.4
440.64	14524.88
440.847	14453.2
441.054	15047.11
441.261	15919.54
441.467	15755.71
441.674	15980.98
441.881	16556.46
442.088	16581.04
442.294	16263.6
442.501	16613.81
442.708	17011.11
442.914	17834.39
443.121	18418.07
443.328	18211.22
443.534	19216.77
443.741	18637.2
443.948	18465.17
444.154	19880.32
444.361	19818.88
444.568	19995
444.774	19831.16
444.981	20070.78
445.187	20625.78
445.394	21590.37
445.6	21385.57
445.807	23361.86
446.013	22643.03
446.22	22604.11
446.426	23793.98
446.633	23787.84
446.839	24592.69
447.046	23576.9
447.252	24777.01
447.459	25004.33
447.665	25145.64
447.871	26114.33
448.078	26872.08
448.284	25983.26
448.491	26589.46
448.697	27689.22
448.903	27744.52
449.11	27920.64
449.316	27447.56
449.522	28449.02
449.728	28979.44
449.935	29108.46
450.141	28872.95
450.347	29817.06
450.553	28588.28
450.76	29130.99
450.966	30275.8
451.172	29731.04
451.378	30494.94
451.584	29835.49
451.791	30585.05
451.997	30484.7
452.203	30912.72
452.409	31070.42
452.615	31070.42
452.821	30001.38
453.027	29454.57
453.233	31074.51
453.44	29837.54
453.646	30173.41
453.852	30263.52
454.058	31072.46
454.264	29751.52
454.47	30537.94
454.676	29782.24
454.882	30636.25
455.088	28104.96
455.294	28522.74
455.5	28967.15
455.705	29513.96
455.911	27965.7
456.117	27552.01
456.323	27549.96
456.529	25778.47
456.735	27218.19
456.941	26243.35
457.147	25768.23
457.352	25192.75
457.558	24590.64
457.764	24916.27
457.97	24387.89
458.176	23914.81
458.381	23839.04
458.587	22509.91
458.793	22741.33
458.999	21481.83
459.204	22808.91
459.41	22481.24
459.616	20875.63
459.821	20783.47
460.027	20859.24
460.233	20482.42
460.438	19548.54
460.644	19874.17
460.85	18708.88
461.055	18493.84
461.261	18153.88
461.466	16785.83
461.672	16525.74
461.878	17662.37
462.083	16513.45
462.289	16232.88
462.494	16058.81
462.7	15260.1
462.905	14858.7
463.111	15741.37
463.316	15534.53
463.522	15462.85
463.727	15229.38
463.932	15034.82
464.138	14805.45
464.343	15202.75
464.549	14600.65
464.754	15124.93
464.959	15036.87
465.165	14748.11
465.37	14193.11
465.575	14051.8
465.781	14322.13
465.986	14571.98
466.191	13773.27
466.397	13627.87
466.602	12831.21
466.807	13711.83
467.012	13535.71
467.218	13562.33
467.423	13183.46
467.628	13445.6
467.833	13797.85
468.038	13529.56
468.244	13083.11
468.449	13498.84
468.654	13232.61
468.859	12911.08
469.064	12886.5
469.269	12491.24
469.474	12308.97
469.679	12777.96
469.885	12296.69
470.09	12650.99
470.295	12399.09
470.5	11905.52
470.705	12329.45
470.91	11829.75
471.115	12009.97
471.32	12034.55
471.525	11823.61
471.73	11762.17
471.935	11602.43
472.139	11364.86
472.344	11465.21
472.549	11207.17
472.754	11307.52
472.959	11041.28
473.164	10506.76
473.369	10750.47
473.574	10996.23
473.778	10781.19
473.983	10816.01
474.188	10904.07
474.393	10238.48
474.598	10289.68
474.802	10174.99
475.007	10121.74
475.212	9935.38
475.417	9683.48
475.621	9609.75
475.826	9904.66
476.031	9648.66
476.235	9411.1
476.44	9671.19
476.645	9263.65
476.849	9380.38
477.054	9212.45
477.259	9189.92
477.463	9179.68
477.668	8911.39
477.872	8938.02
478.077	8901.15
478.282	8614.44
478.486	8581.67
478.691	8612.39
478.895	8651.3
479.1	8387.11
479.304	8589.86
479.509	8045.1
479.713	8567.34
479.918	8192.56
480.122	8059.44
480.326	8170.03
480.531	8274.48
480.735	8114.73
480.94	7998
481.144	8323.63
481.348	7883.31
481.553	8008.24
481.757	7854.64
481.961	7952.95
482.166	8104.49
482.37	8038.96
482.574	7762.48
482.778	7830.07
482.983	8090.16
483.187	7801.4
483.391	7952.95
483.595	7746.1
483.8	7684.66
484.004	7803.44
484.208	8014.38
484.412	7862.83
484.616	7846.45
484.821	7823.92
485.025	7731.76
485.229	7795.25
485.433	7887.41
485.637	7766.58
485.841	7868.98
486.045	7742
486.249	7903.79
486.453	7739.96
486.657	7887.41
486.861	7918.13
487.065	7635.51
487.269	7832.12
487.473	7764.53
487.677	8024.62
487.881	7600.69
488.085	7817.78
488.289	7893.55
488.493	7789.11
488.697	7918.13
488.901	7965.23
489.105	7723.57
489.309	7979.57
489.512	7805.49
489.716	7944.75
489.92	7858.74
490.124	7772.72
490.328	8098.35
490.531	8045.1
490.735	8104.49
490.939	7983.66
491.143	8057.39
491.346	7957.04
491.55	8245.8
491.754	8223.28
491.958	8235.56
492.161	8176.17
492.365	8208.94
492.569	8174.13
492.772	8116.78
492.976	8325.68
493.18	8358.44
493.383	8352.3
493.587	8602.15
493.79	8573.48
493.994	8538.66
494.197	8514.09
494.401	8727.08
494.605	8634.92
494.808	8786.47
495.012	8860.2
495.215	8966.69
495.419	8774.18
495.622	8913.44
495.825	9015.84
496.029	9148.96
496.232	9323.04
496.436	9230.88
496.639	9654.81
496.843	9407
497.046	9501.21
497.249	9681.43
497.453	9579.03
497.656	9687.57
497.859	9755.16
498.063	10117.65
498.266	10367.5
498.469	10009.11
498.673	10183.18
498.876	10285.58
499.079	10435.08
499.282	10408.46
499.485	10713.61
499.689	10648.07
499.892	11059.71
500.095	10963.46
500.298	11274.75
500.501	11012.61
500.705	11235.84
500.908	11571.71
501.111	11581.95
501.314	11680.25
501.517	11923.96
501.72	11936.24
501.923	11934.2
502.126	12190.19
502.329	12571.11
502.532	12497.39
502.735	12499.44
502.938	12716.52
503.141	12933.61
503.344	12976.61
503.547	12888.55
503.75	13349.34
503.953	13578.72
504.156	13402.59
504.359	13701.59
504.562	13537.76
504.765	14311.89
504.968	13935.06
505.17	14182.87
505.373	14160.34
505.576	14569.93
505.779	14512.59
505.982	14551.5
506.185	15108.55
506.387	15040.97
506.59	15090.12
506.793	15716.79
506.996	15407.55
507.198	15862.2
507.401	15718.84
507.604	16064.95
507.807	16345.52
508.009	16656.81
508.212	16572.85
508.415	16843.18
508.617	16662.96
508.82	17084.84
509.022	16654.76
509.225	17672.6
509.428	17578.4
509.63	17684.89
509.833	17793.44
510.035	18241.94
510.238	17850.78
510.44	18409.87
510.643	18760.08
510.845	18532.75
511.048	18710.93
511.25	19165.57
511.453	19069.32
511.655	19818.88
511.858	19380.61
512.06	19413.38
512.262	20091.26
512.465	19982.71
512.667	20035.96
512.87	20431.22
513.072	20380.02
513.274	20619.63
513.477	21049.71
513.679	21381.48
513.881	21506.4
514.084	21393.76
514.286	21367.14
514.488	21907.8
514.69	22495.57
514.893	22489.43
515.095	22440.28
515.297	22661.46
515.499	22966.6
515.701	23212.36
515.904	23273.8
516.106	23640.39
516.308	23759.17
516.51	23974.2
516.712	23863.61
516.914	24328.5
517.116	24697.14
517.318	24682.8
517.52	24797.49
517.722	24985.9
517.925	25473.32
518.127	25788.71
518.329	25676.07
518.531	25612.58
518.733	26059.04
518.935	26200.35
519.136	26521.88
519.338	26605.84
519.54	27312.39
519.742	26974.48
519.944	27459.85
520.146	27627.78
520.348	27803.91
520.55	27986.18
520.752	28285.18
520.954	28670.2
521.155	28590.33
521.357	28756.21
521.559	29020.4
521.761	29128.94
521.963	29198.57
522.164	29526.25
522.366	29743.33
522.568	29800.68
522.77	30132.45
522.971	30660.82
523.173	30425.31
523.375	30640.34
523.576	30699.73
523.778	30922.96
523.98	30795.99
524.181	31443.15
524.383	31539.4
524.584	31959.24
524.786	31803.59
524.988	32067.78
525.189	32501.95
525.391	32334.01
525.592	32657.59
525.794	32870.58
525.995	32927.92
526.197	32999.6
526.398	32825.53
526.6	33081.52
526.801	33386.67
527.003	33597.61
527.204	33448.11
527.406	33652.91
527.607	33685.67
527.808	33904.81
528.01	33579.18
528.211	33990.82
528.412	34615.45
528.614	34556.06
528.815	34461.85
529.016	34830.49
529.218	34437.28
529.419	34441.37
529.62	34955.41
529.822	34629.79
530.023	34513.05
530.224	34549.92
530.425	35043.48
530.626	34859.16
530.828	34529.44
531.029	35182.74
531.23	35377.29
531.431	35100.82
531.632	35352.72
531.833	35584.14
532.035	35408.01
532.236	35393.68
532.437	35739.79
532.638	35485.84
532.839	35946.63
533.04	36053.12
533.241	35405.97
533.442	36262.02
533.643	35879.05
533.844	35805.32
534.045	35844.23
534.246	35358.86
534.447	35680.39
534.648	35448.97
534.849	36089.99
535.05	35438.73
535.251	35786.89
535.451	35883.14
535.652	36188.29
535.853	35723.4
536.054	35932.29
536.255	36393.09
536.456	35735.69
536.657	36421.76
536.857	35752.07
537.058	35365.01
537.259	36161.67
537.46	36169.86
537.66	36081.8
537.861	35944.58
538.062	35979.4
538.263	36237.44
538.463	36094.08
538.664	36042.88
538.865	36034.69
539.065	36305.02
539.266	35768.46
539.466	36372.61
539.667	35827.85
539.868	36313.22
540.068	35928.2
540.269	35799.18
540.469	36270.21
540.67	36014.21
540.87	35928.2
541.071	35971.21
541.271	36227.2
541.472	36139.14
541.672	35864.71
541.873	35723.4
542.073	35793.03
542.274	36208.77
542.474	35727.5
542.675	35883.14
542.875	36274.31
543.075	36262.02
543.276	35412.11
543.476	36106.37
543.676	35522.7
543.877	35958.92
544.077	36069.51
544.277	35565.71
544.478	35797.13
544.678	35973.25
544.878	35795.08
545.078	35911.81
545.279	35844.23
545.479	35623.05
545.679	35815.56
545.879	35448.97
546.079	35840.14
546.28	36358.27
546.48	35322
546.68	36145.28
546.88	35659.91
547.08	35842.18
547.28	35754.12
547.48	35541.13
547.68	35827.85
547.88	35410.06
548.081	35793.03
548.281	35358.86
548.481	35381.39
548.681	36018.31
548.881	35559.56
549.081	35641.48
549.28	35147.92
549.48	35444.88
549.68	35543.18
549.88	35958.92
550.08	35616.91
550.28	35668.11
550.48	35612.81
550.68	35659.91
550.88	35342.48
551.08	35557.52
551.279	35795.08
551.479	35291.28
551.679	35498.12
551.879	35299.47
552.079	35555.47
552.278	35508.36
552.478	35401.87
552.678	35850.38
552.878	35633.29
553.077	35514.51
553.277	34842.78
553.477	36008.07
553.676	35066
553.876	35461.26
554.076	34988.18
554.275	35080.34
554.475	34891.93
554.674	35164.31
554.874	35469.45
555.074	35133.59
555.273	35211.41
555.473	35164.31
555.672	35102.87
555.872	34885.78
556.071	35012.76
556.271	35346.58
556.47	34846.87
556.67	34498.72
556.869	34988.18
557.068	34822.3
557.268	34590.87
557.467	34867.35
557.667	34654.36
557.866	34584.73
558.065	34320.54
558.265	34521.24
558.464	34353.31
558.663	34629.79
558.863	34523.29
559.062	34666.65
559.261	34125.99
559.461	34640.03
559.66	33966.24
559.859	34175.14
560.058	33972.39
560.258	34308.26
560.457	33788.07
560.656	33915.05
560.855	33747.11
561.054	34295.97
561.253	34044.07
561.453	33999.01
561.652	34035.88
561.851	33908.9
562.05	33814.69
562.249	33527.98
562.448	33882.28
562.647	33540.27
562.846	33716.39
563.045	33960.1
563.244	32977.08
563.443	33527.98
563.642	33284.27
563.841	33188.02
564.04	33274.03
564.239	33185.97
564.438	32829.62
564.637	33147.06
564.836	33089.71
565.035	32460.99
565.234	33159.34
565.432	32700.6
565.631	32409.79
565.83	32684.22
566.029	32581.82
566.228	32268.48
566.427	32131.26
566.625	32479.42
566.824	32231.61
567.023	32104.64
567.222	31365.32
567.42	31949
567.619	32061.63
567.818	32016.58
568.016	31586.5
568.215	31779.01
568.414	31729.86
568.612	31805.64
568.811	31541.45
569.01	31475.91
569.208	31387.85
569.407	31664.33
569.605	31025.36
569.804	31420.62
570.002	31142.1
570.201	31062.22
570.4	30908.63
570.598	30798.04
570.797	30570.71
570.995	30869.72
571.193	30499.03
571.392	30767.32
571.59	30361.82
571.789	30593.24
571.987	30404.83
572.186	30193.89
572.384	30316.76
572.582	30331.1
572.781	30193.89
572.979	29806.82
573.177	30038.24
573.376	29913.31
573.574	29479.14
573.772	29671.65
573.971	29729
574.169	29620.45
574.367	29735.14
574.565	29767.91
574.763	29319.4
574.962	29247.72
575.16	29194.48
575.358	29196.53
575.556	28834.03
575.754	29094.13
575.952	28631.29
576.151	28700.92
576.349	28745.97
576.547	28713.2
576.745	28696.82
576.943	28659.96
577.141	28645.62
577.339	28752.12
577.537	28711.16
577.735	28639.48
577.933	28172.54
578.131	28274.94
578.329	28211.45
578.527	27881.73
578.725	28174.59
578.923	27945.22
579.121	27943.17
579.319	27873.54
579.516	28037.37
579.714	27681.03
579.912	27558.15
580.11	27328.78
580.308	27498.76
580.506	27369.74
580.704	27195.66
580.901	27382.02
581.099	27265.29
581.297	27027.73
581.495	26851.6
581.692	26988.81
581.89	26808.59
582.088	26980.62
582.285	26767.63
582.483	26931.47
582.681	26384.66
582.878	26194.2
583.076	26282.27
583.274	26294.55
583.471	26114.33
583.669	26306.84
583.866	25921.82
584.064	26417.43
584.262	25774.37
584.459	26198.3
584.657	26181.92
584.854	25833.76
585.052	25471.27
585.249	25692.45
585.447	25766.18
585.644	25450.79
585.841	25479.46
586.039	25714.98
586.236	25086.25
586.434	25385.26
586.631	25119.02
586.828	25141.55
587.026	24838.45
587.223	25069.87
587.42	24963.37
587.618	24934.7
587.815	24537.4
588.012	24725.81
588.21	24496.44
588.407	25028.91
588.604	24471.86
588.801	24435
588.999	24471.86
589.196	24469.81
589.393	24332.6
589.59	24043.84
589.787	24062.27
589.984	24052.03
590.182	23687.49
590.379	24256.82
590.576	23880
590.773	24084.8
590.97	23810.37
591.167	23832.9
591.364	23619.91
591.561	23619.91
591.758	23705.92
591.955	23404.87
592.152	23515.46
592.349	23206.22
592.546	23357.77
592.743	23372.1
592.94	23064.91
593.137	22982.99
593.334	23322.95
593.531	22471
593.727	23089.48
593.924	22845.77
594.121	22608.21
594.318	22823.25
594.515	22301.01
594.712	22702.42
594.908	22391.12
595.105	22397.27
595.302	22171.99
595.499	22407.51
595.696	22147.42
595.892	21901.66
596.089	22165.85
596.286	22063.45
596.482	22006.11
596.679	21635.42
596.876	21713.25
597.072	21789.02
597.269	21813.6
597.466	21778.78
597.662	21494.11
597.859	21473.63
598.055	21987.68
598.252	21238.12
598.448	21246.31
598.645	21221.73
598.841	21158.25
599.038	21195.11
599.234	20842.86
599.431	20953.45
599.627	20928.88
599.824	21098.86
600.02	20758.89
600.217	20746.61
600.413	20506.99
600.609	20328.82
600.806	20541.81
601.002	20797.81
601.198	20709.74
601.395	20406.64
601.591	20216.18
601.787	20138.36
601.984	20189.56
602.18	20339.06
602.376	19931.51
602.572	19827.07
602.769	20199.8
602.965	19761.53
603.161	19960.19
603.357	19765.63
603.553	19573.12
603.75	19609.98
603.946	19542.4
604.142	19642.75
604.338	19491.2
604.534	19749.25
604.73	19196.29
604.926	19304.84
605.122	19038.6
605.318	19149.19
605.514	19077.51
605.71	19134.85
605.906	18942.35
606.102	18997.64
606.298	18860.43
606.494	18723.21
606.69	18944.39
606.886	18880.91
607.082	18571.66
607.278	18641.29
607.474	18411.92
607.67	18788.75
607.866	18088.34
608.062	18629.01
608.257	18563.47
608.453	18526.61
608.649	18471.31
608.845	18487.7
609.041	18264.47
609.236	18287
609.432	18377.11
609.628	18323.86
609.824	18305.43
610.019	17899.93
610.215	17973.66
610.411	18143.64
610.606	17949.08
610.802	17953.18
610.998	17869.21
611.193	18086.29
611.389	17811.87
611.584	17883.55
611.78	17582.49
611.976	17729.95
612.171	17838.49
612.367	17772.96
612.562	17723.8
612.758	17586.59
612.953	17650.08
613.149	17658.27
613.344	17340.83
613.539	17588.64
613.735	17369.51
613.93	17670.56
614.126	17496.48
614.321	17557.92
614.517	17318.31
614.712	17136.04
614.907	17045.93
615.103	17088.93
615.298	17082.79
615.493	17142.18
615.688	16978.34
615.884	17463.71
616.079	16918.95
616.274	16921
616.47	16646.57
616.665	16826.79
616.86	16939.43
617.055	16906.66
617.25	16677.29
617.445	16857.51
617.641	16433.58
617.836	16859.56
618.031	16558.51
618.226	16671.15
618.421	16476.59
618.616	16402.86
618.811	16228.79
619.006	16572.85
619.201	16273.84
619.396	16368.05
619.591	15946.17
619.786	16253.36
619.981	15686.08
620.176	16046.52
620.371	15778.23
620.566	16054.71
620.761	15475.13
620.956	15636.92
621.151	15403.46
621.346	15536.57
621.541	15288.77
621.735	15382.98
621.93	15229.38
622.125	15245.76
622.32	14957
622.515	15268.29
622.709	15243.71
622.904	15262.15
623.099	14963.14
623.294	14737.87
623.488	14498.25
623.683	14610.89
623.878	14348.75
624.072	14606.8
624.267	14553.55
624.462	14430.67
624.656	14383.57
624.851	14412.24
625.046	14283.22
625.24	14086.61
625.435	13937.11
625.629	13939.16
625.824	14010.84
626.018	13873.62
626.213	13701.59
626.407	13498.84
626.602	13523.42
626.796	13564.38
626.991	13326.82
627.185	13328.86
627.38	13464.03
627.574	13167.07
627.768	13171.17
627.963	12902.89
628.157	12849.64
628.352	13013.48
628.546	12831.21
628.74	12775.91
628.935	12763.62
629.129	12749.29
629.323	12665.32
629.517	12495.34
629.712	12382.7
629.906	12337.65
630.1	12349.93
630.294	12149.23
630.489	12087.79
630.683	12212.72
630.877	12040.69
631.071	12030.45
631.265	12179.95
631.459	11917.81
631.653	11721.21
631.848	11772.41
632.042	11665.91
632.236	11969.01
632.43	11704.82
632.624	11504.12
632.818	11633.15
633.012	11289.09
633.206	11522.55
633.4	11282.94
633.594	11366.91
633.788	11287.04
633.982	11397.63
634.176	11129.34
634.369	11035.14
634.563	11112.96
634.757	10824.2
634.951	11000.32
635.145	10711.56
635.339	10641.93
635.533	10609.16
635.726	10617.35
635.92	10398.22
636.114	10641.93
636.308	10480.14
636.501	10463.76
636.695	10363.4
636.889	10138.13
637.083	10295.82
637.276	10228.24
637.47	10172.94
637.664	10187.28
637.857	9921.04
638.051	10174.99
638.244	9849.36
638.438	9794.07
638.632	9882.13
638.825	9753.11
639.019	9755.16
639.212	9642.52
639.406	9810.45
639.599	9615.9
639.793	9466.39
639.986	9208.35
640.18	9540.12
640.373	9568.79
640.567	9286.17
640.76	9353.76
640.954	9314.84
641.147	9056.8
641.34	9013.79
641.534	9005.6
641.727	9097.76
641.92	8933.92
642.114	9067.04
642.307	8956.45
642.5	8739.37
642.694	8737.32
642.887	8790.56
643.08	8976.93
643.273	8798.76
643.467	8579.62
643.66	8423.98
643.853	8399.4
644.046	8311.34
644.239	8356.4
644.432	8184.37
644.626	8329.77
644.819	8258.09
645.012	8352.3
645.205	8280.62
645.398	8053.3
645.591	8264.24
645.784	8159.79
645.977	8110.64
646.17	8096.3
646.363	8002.1
646.556	7805.49
646.749	7858.74
646.942	7782.96
647.135	7811.64
647.328	7793.2
647.521	7627.32
647.714	7469.62
647.907	7662.13
648.099	7633.46
648.292	7723.57
648.485	7543.35
648.678	7397.95
648.871	7438.91
649.064	7533.11
649.256	7432.76
649.449	7316.03
649.642	7303.74
649.835	7375.42
650.027	7156.29
650.22	7125.57
650.413	7158.33
650.605	7184.96
650.798	7172.67
650.991	7086.65
651.183	7121.47
651.376	6806.08
651.568	7021.12
651.761	6881.86
651.954	6906.43
652.146	6636.1
652.339	6969.92
652.531	6699.59
652.724	6560.33
652.916	6652.49
653.109	6697.54
653.301	6640.2
653.494	6554.18
653.686	6597.19
653.879	6642.25
654.071	6545.99
654.263	6459.98
654.456	6541.89
654.648	6384.2
654.84	6294.09
655.033	6388.3
655.225	6249.04
655.417	6142.54
655.61	6206.03
655.802	6201.93
655.994	6081.1
656.186	6152.78
656.379	6091.34
656.571	6163.02
656.763	5907.02
656.955	6003.28
657.148	5812.82
657.34	6015.57
657.532	5730.9
657.724	5894.74
657.916	5958.22
658.108	5855.83
658.3	5775.95
658.492	5741.14
658.684	5638.74
658.876	5667.41
659.068	5667.41
659.26	5689.94
659.452	5454.42
659.644	5530.2
659.836	5579.35
660.028	5515.86
660.22	5329.5
660.412	5497.43
660.604	5376.6
660.796	5581.4
660.988	5468.76
661.18	5444.18
661.372	5403.22
661.563	5268.06
661.755	5245.53
661.947	5270.11
662.139	5136.99
662.331	5339.74
662.522	5161.56
662.714	5149.28
662.906	5057.12
663.097	4958.81
663.289	5022.3
663.481	4930.14
663.673	4811.36
663.864	4952.67
664.056	4985.44
664.247	4938.34
664.439	4948.58
664.631	5087.84
664.822	4932.19
665.014	4938.34
665.205	4952.67
665.397	4803.17
665.588	4829.79
665.78	4713.06
665.971	4848.22
666.163	4735.59
666.354	4543.08
666.546	4678.24
666.737	4657.76
666.929	4584.04
667.12	4713.06
667.311	4565.6
667.503	4473.45
667.694	4557.41
667.885	4512.36
668.077	4506.21
668.268	4469.35
668.459	4577.89
668.651	4467.3
668.842	4639.33
669.033	4317.8
669.224	4424.3
669.416	4565.6
669.607	4307.56
669.798	4356.71
669.989	4295.27
670.18	4377.19
670.371	4473.45
670.563	4342.38
670.754	4303.46
670.945	4289.13
671.136	4160.11
671.327	4242.03
671.518	4192.87
671.709	4129.39
671.9	4242.03
672.091	4237.93
672.282	4184.68
672.473	4080.24
672.664	4194.92
672.855	4096.62
673.046	3969.65
673.237	4059.76
673.428	4067.95
673.619	4076.14
673.809	3973.74
674	4024.94
674.191	4113
674.382	4039.28
674.573	4004.46
674.764	3893.87
674.954	3947.12
675.145	4002.41
675.336	3822.19
675.527	4074.09
675.717	4016.75
675.908	3793.52
676.099	3850.86
676.289	4006.51
676.48	3924.59
676.671	3861.1
676.861	3885.68
677.052	3775.09
677.243	3773.04
677.433	3777.14
677.624	3789.42
677.814	3859.06
678.005	3889.78
678.195	3861.1
678.386	3744.37
678.576	3744.37
678.767	3703.41
678.957	3748.47
679.148	3756.66
679.338	3723.89
679.529	3768.95
679.719	3809.9
679.909	3838.58
680.1	3748.47
680.29	3773.04
680.481	3711.6
680.671	3807.86
680.861	3635.83
681.052	3701.36
681.242	3598.96
681.432	3684.98
681.622	3551.86
681.813	3598.96
682.003	3592.82
682.193	3717.75
682.383	3529.33
682.573	3635.83
682.764	3582.58
682.954	3697.27
683.144	3654.26
683.334	3525.24
683.524	3580.53
683.714	3607.16
683.904	3590.77
684.094	3576.44
684.284	3404.41
684.474	3605.11
684.664	3461.75
684.854	3490.42
685.044	3527.28
685.234	3443.32
685.424	3433.08
685.614	3426.93
685.804	3480.18
685.994	3578.48
686.184	3447.41
686.374	3555.96
686.564	3482.23
686.753	3383.93
686.943	3402.36
687.133	3259
687.323	3310.2
687.513	3285.62
687.702	3238.52
687.892	3279.48
688.082	3285.62
688.272	3318.39
688.461	3181.18
688.651	3205.75
688.841	3256.95
689.03	3336.82
689.22	3254.9
689.41	3156.6
689.599	3170.94
689.789	3183.23
689.979	3146.36
690.168	3199.61
690.358	3152.51
690.547	3140.22
690.737	3117.69
690.926	3111.55
691.116	2962.05
691.305	3127.93
691.495	2994.81
691.684	2923.13
691.874	3086.97
692.063	2951.81
692.252	2916.99
692.442	2931.33
692.631	2941.57
692.82	2810.5
693.01	3025.53
693.199	3048.06
693.388	2822.78
693.578	2888.32
693.767	2847.36
693.956	2851.46
694.146	2902.65
694.335	2759.3
694.524	2749.06
694.713	2855.55
694.902	2802.3
695.092	2892.41
695.281	2796.16
695.47	2830.98
695.659	2790.02
695.848	2714.24
696.037	2744.96
696.226	2667.14
696.415	2802.3
696.604	2802.3
696.793	2861.69
696.982	2783.87
697.171	2835.07
697.36	2712.19
697.549	2744.96
697.738	2593.41
697.927	2585.22
698.116	2763.39
698.305	2521.73
698.494	2841.22
698.683	2755.2
698.872	2564.74
699.061	2816.64
699.25	2654.85
699.438	2611.84
699.627	2589.32
699.816	2679.43
700.005	2648.71
700.193	2572.93
700.382	2663.04
700.571	2646.66
700.76	2544.26
700.948	2716.29
701.137	2636.42
701.326	2626.18
701.514	2568.84
701.703	2615.94
701.892	2652.8
702.08	2747.01
702.269	2550.4
702.457	2585.22
702.646	2691.71
702.834	2677.38
703.023	2677.38
703.212	2558.6
703.4	2622.08
703.589	2646.66
703.777	2747.01
703.965	2681.47
704.154	2689.67
704.342	2667.14
704.531	2560.64
704.719	2613.89
704.907	2534.02
705.096	2634.37
705.284	2497.16
705.472	2556.55
705.661	2523.78
705.849	2599.55
706.037	2648.71
706.226	2583.17
706.414	2624.13
706.602	2634.37
706.79	2701.95
706.979	2595.46
707.167	2685.57
707.355	2593.41
707.543	2564.74
707.731	2634.37
707.919	2648.71
708.107	2607.75
708.296	2611.84
708.484	2599.55
708.672	2701.95
708.86	2642.56
709.048	2646.66
709.236	2683.52
709.424	2589.32
709.612	2593.41
709.8	2536.07
709.988	2628.23
710.176	2599.55
710.364	2577.03
710.551	2687.62
710.739	2611.84
710.927	2644.61
711.115	2599.55
711.303	2775.68
711.491	2710.15
711.679	2554.5
711.866	2732.67
712.054	2587.27
712.242	2523.78
712.43	2628.23
712.617	2613.89
712.805	2572.93
712.993	2683.52
713.181	2499.2
713.368	2620.03
713.556	2689.67
713.744	2542.21
713.931	2654.85
714.119	2632.32
714.306	2620.03
714.494	2648.71
714.682	2708.1
714.869	2562.69
715.057	2667.14
715.244	2548.36
715.432	2790.02
715.619	2660.99
715.807	2642.56
715.994	2751.1
716.182	2652.8
716.369	2677.38
716.556	2759.3
716.744	2626.18
716.931	2585.22
717.119	2681.47
717.306	2675.33
717.493	2572.93
717.681	2624.13
717.868	2640.51
718.055	2605.7
718.242	2605.7
718.43	2673.28
718.617	2669.19
718.804	2720.39
718.991	2634.37
719.179	2652.8
719.366	2599.55
719.553	2601.6
719.74	2648.71
719.927	2646.66
720.114	2589.32
720.301	2693.76
720.488	2597.51
720.676	2585.22
720.863	2724.48
721.05	2646.66
721.237	2656.9
721.424	2759.3
721.611	2720.39
721.798	2683.52
721.985	2726.53
722.172	2663.04
722.358	2652.8
722.545	2796.16
722.732	2765.44
722.919	2845.31
723.106	2755.2
723.293	2722.43
723.48	2652.8
723.667	2652.8
723.853	2658.95
724.04	2734.72
724.227	2636.42
724.414	2613.89
724.6	2652.8
724.787	2691.71
724.974	2693.76
725.161	2710.15
725.347	2595.46
725.534	2720.39
725.72	2687.62
725.907	2757.25
726.094	2751.1
726.28	2710.15
726.467	2777.73
726.653	2663.04
726.84	2759.3
727.027	2720.39
727.213	2570.88
727.4	2697.86
727.586	2658.95
727.773	2765.44
727.959	2757.25
728.145	2701.95
728.332	2634.37
728.518	2650.75
728.705	2740.86
728.891	2773.63
729.077	2597.51
729.264	2718.34
729.45	2730.62
729.636	2726.53
729.823	2796.16
730.009	2763.39
730.195	2765.44
730.382	2792.06
730.568	2720.39
730.754	2675.33
730.94	2765.44
731.126	2724.48
731.313	2634.37
731.499	2701.95
731.685	2679.43
731.871	2665.09
732.057	2718.34
732.243	2652.8
732.429	2681.47
732.615	2749.06
732.801	2652.8
732.987	2824.83
733.173	2636.42
733.359	2683.52
733.545	2751.1
733.731	2632.32
733.917	2636.42
734.103	2757.25
734.289	2716.29
734.475	2622.08
734.661	2671.23
734.847	2628.23
735.033	2843.26
735.219	2628.23
735.404	2624.13
735.59	2738.82
735.776	2566.79
735.962	2656.9
736.148	2695.81
736.333	2736.77
736.519	2660.99
736.705	2769.54
736.89	2681.47
737.076	2699.91
737.262	2599.55
737.447	2687.62
737.633	2570.88
737.819	2566.79
738.004	2589.32
738.19	2593.41
738.375	2605.7
738.561	2677.38
738.747	2718.34
738.932	2568.84
739.118	2665.09
739.303	2519.68
739.489	2583.17
739.674	2572.93
739.859	2534.02
740.045	2652.8
740.23	2437.77
740.416	2476.68
740.601	2632.32
740.786	2558.6
740.972	2626.18
741.157	2462.34
741.342	2466.44
741.528	2667.14
741.713	2540.16
741.898	2390.66
742.084	2405
742.269	2511.49
742.454	2601.6
742.639	2525.83
742.824	2421.38
743.01	2480.77
743.195	2497.16
743.38	2470.53
743.565	2339.46
743.75	2368.13
743.935	2314.89
744.12	2546.31
744.305	2253.45
744.49	2386.57
744.675	2345.61
744.86	2312.84
745.045	2318.98
745.23	2318.98
745.415	2275.98
745.6	2355.85
745.785	2312.84
745.97	2333.32
746.155	2224.78
746.34	2273.93
746.525	2292.36
746.71	2366.09
746.895	2261.64
747.079	2120.33
747.264	2271.88
747.449	2151.05
747.634	2339.46
747.819	2175.63
748.003	2128.52
748.188	2194.06
748.373	2112.14
748.557	2138.76
748.742	2208.39
748.927	2048.65
749.111	2159.24
749.296	2108.04
749.481	2075.27
749.665	2101.9
749.85	2034.32
750.034	2067.08
750.219	2042.51
750.404	1931.92
750.588	2017.93
750.773	1954.44
750.957	1956.49
751.141	1931.92
751.326	1991.31
751.51	1911.44
751.695	1819.28
751.879	1907.34
752.064	1911.44
752.248	1874.57
752.432	1927.82
752.617	1868.43
752.801	1944.2
752.985	1811.09
753.17	1911.44
753.354	1815.18
753.538	1714.83
753.722	1796.75
753.907	1788.56
754.091	1761.94
754.275	1702.54
754.459	1741.46
754.643	1692.3
754.828	1649.3
755.012	1747.6
755.196	1657.49
755.38	1675.92
755.564	1620.63
755.748	1608.34
755.932	1637.01
756.116	1643.15
756.3	1555.09
756.484	1553.04
756.668	1555.09
756.852	1491.6
757.036	1573.52
757.22	1503.89
757.404	1499.8
757.588	1462.93
757.772	1518.23
757.956	1479.32
758.14	1534.61
758.323	1370.77
758.507	1512.08
758.691	1467.03
758.875	1512.08
759.059	1471.12
759.242	1401.49
759.426	1487.51
759.61	1454.74
759.794	1397.4
759.977	1510.04
760.161	1419.92
760.345	1403.54
760.528	1417.88
760.712	1317.53
760.895	1378.97
761.079	1311.38
761.263	1335.96
761.446	1366.68
761.63	1376.92
761.813	1387.16
761.997	1278.62
762.18	1297.05
762.364	1313.43
762.547	1299.09
762.731	1284.76
762.914	1272.47
763.098	1256.09
763.281	1161.88
763.464	1317.53
763.648	1307.29
763.831	1151.64
764.015	1225.37
764.198	1200.79
764.381	1286.81
764.564	1204.89
764.748	1137.31
764.931	1247.9
765.114	1145.5
765.297	1172.12
765.481	1098.39
765.664	1110.68
765.847	1247.9
766.03	1145.5
766.213	1149.59
766.397	1202.84
766.58	1161.88
766.763	1149.59
766.946	1163.93
767.129	1178.26
767.312	1118.87
767.495	1155.74
767.678	1180.31
767.861	1137.31
768.044	1182.36
768.227	1104.54
768.41	1153.69
768.593	1114.78
768.776	1106.59
768.959	944.8
769.142	1032.86
769.324	1110.68
769.507	1094.3
769.69	1077.91
769.873	1051.29
770.056	1061.53
770.239	1116.83
770.421	1186.46
770.604	959.13
770.787	955.04
770.97	1118.87
771.152	991.9
771.335	1008.28
771.518	1026.71
771.7	1006.24
771.883	998.04
772.066	963.23
772.248	955.04
772.431	918.17
772.613	1008.28
772.796	996
772.978	967.32
773.161	899.74
773.343	946.84
773.526	973.47
773.708	914.08
773.891	926.36
774.073	944.8
774.256	932.51
774.438	983.71
774.621	967.32
774.803	899.74
774.985	856.73
775.168	891.55
775.35	846.49
775.532	801.44
775.715	819.87
775.897	907.93
776.079	928.41
776.261	846.49
776.444	903.84
776.626	772.77
776.808	797.34
776.99	750.24
777.173	815.77
777.355	844.45
777.537	809.63
777.719	754.34
777.901	842.4
778.083	729.76
778.265	746.14
778.447	750.24
778.629	776.86
778.811	692.9
778.993	774.81
779.175	727.71
779.357	778.91
779.539	692.9
779.721	674.46
779.903	750.24
780.085	776.86
780.267	684.7
780.449	672.42
780.631	682.66
780.812	674.46
780.994	582.31
781.176	731.81
781.358	637.6
781.54	610.98
781.721	656.03
781.903	656.03
782.085	662.18
782.267	637.6
782.448	613.03
782.63	651.94
782.812	670.37
782.993	696.99
783.175	602.79
783.357	653.98
783.538	613.03
783.72	631.46
783.901	531.11
784.083	610.98
784.264	586.4
784.446	582.31
784.627	541.35
784.809	590.5
784.99	615.07
785.172	549.54
785.353	590.5
785.535	578.21
785.716	549.54
785.897	514.72
786.079	543.39
786.26	582.31
786.441	537.25
786.623	492.2
786.804	522.91
786.985	545.44
787.167	522.91
787.348	463.52
787.529	555.68
787.71	488.1
787.891	543.39
788.073	451.24
788.254	430.76
788.435	518.82
788.616	557.73
788.797	445.09
788.978	426.66
789.159	535.2
789.34	514.72
789.522	434.85
789.703	473.76
789.884	414.37
790.065	473.76
790.246	432.8
790.427	443.04
790.607	473.76
790.788	496.29
790.969	352.93
791.15	391.84
791.331	449.19
791.512	471.72
791.693	438.95
791.874	373.41
792.054	424.61
792.235	430.76
792.416	373.41
792.597	395.94
792.778	426.66
792.958	414.37
793.139	420.52
793.32	426.66
793.5	393.89
793.681	430.76
793.862	410.28
794.042	371.36
794.223	330.41
794.404	371.36
794.584	352.93
794.765	363.17
794.945	291.49
795.126	346.79
795.306	383.65
795.487	371.36
795.667	381.6
795.848	412.32
796.028	346.79
796.209	373.41
796.389	383.65
796.57	326.31
796.75	373.41
796.93	287.4
797.111	307.88
797.291	316.07
797.471	299.69
797.652	264.87
797.832	354.98
798.012	281.25
798.192	330.41
798.373	340.65
798.553	373.41
798.733	373.41
798.913	301.73
799.093	359.08
799.274	295.59
799.454	275.11
799.634	277.16
799.814	301.73
799.994	303.78
800.174	266.92
800.354	285.35
800.534	271.01
800.714	246.44
800.894	279.21
801.074	322.21
801.254	287.4
801.434	305.83
801.614	316.07
801.794	311.97
801.974	737.95
802.154	228.01
802.334	295.59
802.514	244.39
802.693	279.21
802.873	262.82
803.053	334.5
803.233	230.06
803.413	311.97
803.592	307.88
803.772	254.63
803.952	262.82
804.131	258.73
804.311	240.29
804.491	354.98
804.67	307.88
804.85	291.49
805.03	213.67
805.209	260.77
805.389	260.77
805.568	297.64
805.748	215.72
805.928	254.63
806.107	209.58
806.287	221.86
806.466	225.96
806.646	209.58
806.825	228.01
807.004	201.38
807.184	205.48
807.363	324.26
807.543	273.06
807.722	215.72
807.901	236.2
808.081	258.73
808.26	254.63
808.439	299.69
808.619	217.77
808.798	293.54
808.977	230.06
809.156	252.58
809.336	166.57
809.515	250.53
809.694	197.29
809.873	244.39
810.052	209.58
810.231	254.63
810.411	252.58
810.59	277.16
810.769	209.58
810.948	213.67
811.127	176.81
811.306	129.7
811.485	238.25
811.664	236.2
811.843	266.92
812.022	164.52
812.201	246.44
812.38	213.67
812.559	238.25
812.737	158.38
812.916	117.42
813.095	203.43
813.274	152.23
813.453	223.91
813.632	135.85
813.811	225.96
813.989	156.33
814.168	187.05
814.347	131.75
814.526	301.73
814.704	154.28
814.883	246.44
815.062	176.81
815.24	221.86
815.419	230.06
815.598	127.66
815.776	187.05
815.955	264.87
816.133	144.04
816.312	150.18
816.49	172.71
816.669	225.96
816.847	225.96
817.026	121.51
817.204	178.86
817.383	148.14
817.561	88.75
817.74	146.09
817.918	176.81
818.097	113.32
818.275	148.14
818.453	221.86
818.632	191.14
818.81	174.76
818.988	178.86
819.167	141.99
819.345	156.33
819.523	150.18
819.701	41.64
819.879	168.62
820.058	234.15
820.236	152.23
820.414	119.46
820.592	156.33
820.77	70.31
820.948	115.37
821.127	189.1
821.305	170.66
821.483	189.1
821.661	53.93
821.839	252.58
822.017	98.99
822.195	94.89
822.373	199.34
822.551	137.9
822.729	172.71
822.907	139.94
823.085	133.8
823.262	154.28
823.44	127.66
823.618	125.61
823.796	150.18
823.974	141.99
824.152	101.03
824.329	133.8
824.507	185
824.685	180.9
824.863	152.23
825.04	92.84
825.218	113.32
825.396	115.37
825.574	98.99
825.751	129.7
825.929	49.83
826.107	127.66
826.284	125.61
826.462	111.27
826.639	90.79
826.817	205.48
826.994	158.38
827.172	176.81
827.349	137.9
827.527	72.36
827.704	103.08
827.882	111.27
828.059	125.61
828.237	166.57
828.414	115.37
828.591	172.71
828.769	115.37
828.946	178.86
829.124	119.46
829.301	160.42
829.478	105.13
829.655	191.14
829.833	84.65
830.01	45.74
830.187	117.42
830.364	125.61
830.542	141.99
830.719	166.57
830.896	86.7
831.073	72.36
831.25	160.42
831.427	119.46
831.604	88.75
831.782	88.75
831.959	232.1
832.136	144.04
832.313	39.59
832.49	105.13
832.667	84.65
832.844	139.94
833.021	96.94
833.198	84.65
833.374	49.83
833.551	72.36
833.728	70.31
833.905	68.27
834.082	162.47
834.259	125.61
834.436	139.94
834.612	119.46
834.789	70.31
834.966	125.61
835.143	90.79
835.319	82.6
835.496	70.31
835.673	64.17
835.85	141.99
836.026	82.6
836.203	139.94
836.38	84.65
836.556	123.56
836.733	139.94
836.909	86.7
837.086	8.87
837.262	55.98
837.439	96.94
837.616	111.27
837.792	88.75
837.968	33.45
838.145	94.89
838.321	66.22
838.498	94.89
838.674	64.17
838.851	119.46
839.027	86.7
839.203	29.35
839.38	70.31
839.556	29.35
839.732	70.31
839.909	101.03
840.085	68.27
840.261	154.28
840.437	23.21
840.614	8.87
840.79	80.55
840.966	51.88
841.142	84.65
841.318	92.84
841.494	86.7
841.671	146.09
841.847	86.7
842.023	90.79
842.199	84.65
842.375	49.83
842.551	76.46
842.727	68.27
842.903	41.64
843.079	66.22
843.255	137.9
843.431	92.84
843.607	27.31
843.783	27.31
843.959	90.79
844.134	58.03
844.31	133.8
844.486	-3.41
844.662	10.92
844.838	76.46
845.013	96.94
845.189	94.89
845.365	86.7
845.541	21.16
845.716	84.65
845.892	53.93
846.068	49.83
846.244	86.7
846.419	70.31
846.595	101.03
846.77	-7.51
846.946	37.55
847.122	25.26
847.297	39.59
847.473	98.99
847.648	43.69
847.824	-11.61
847.999	76.46
848.175	94.89
848.35	96.94
848.526	119.46
848.701	62.12
848.876	115.37
849.052	92.84
849.227	-21.85
849.403	148.14
849.578	62.12
849.753	129.7
849.929	119.46
850.104	125.61
850.279	-7.51
850.454	123.56
850.63	101.03
850.805	21.16
850.98	117.42
851.155	152.23
851.33	33.45
851.505	60.07
851.681	115.37
851.856	17.07
852.031	68.27
852.206	23.21
852.381	27.31
852.556	49.83
852.731	113.32
852.906	111.27
853.081	119.46
853.256	107.18
853.431	66.22
853.606	66.22
853.781	105.13
853.956	-50.52
854.131	84.65
854.305	-9.56
854.48	23.21
854.655	66.22
854.83	33.45
855.005	92.84
855.18	80.55
855.354	105.13
855.529	25.26
855.704	86.7
855.879	70.31
856.053	58.03
856.228	84.65
856.403	64.17
856.577	103.08
856.752	76.46
856.926	66.22
857.101	33.45
857.276	37.55
857.45	-11.61
857.625	105.13
857.799	-1.37
857.974	111.27
858.148	51.88
858.323	74.41
858.497	74.41
858.672	-11.61
858.846	23.21
859.02	98.99
859.195	23.21
859.369	27.31
859.543	-11.61
859.718	64.17
859.892	49.83
860.066	60.07
860.241	25.26
860.415	0.68
860.589	33.45
860.763	37.55
860.938	-5.46
861.112	72.36
861.286	4.78
861.46	72.36
861.634	53.93
861.808	68.27
861.982	10.92
862.157	68.27
862.331	47.79
862.505	98.99
862.679	49.83
862.853	45.74
863.027	58.03
863.201	92.84
863.375	39.59
863.549	131.75
863.722	51.88
863.896	141.99
864.07	10.92
864.244	70.31
864.418	37.55
864.592	25.26
864.766	33.45
864.939	70.31
865.113	21.16
865.287	70.31
865.461	10.92
865.634	-38.23
865.808	49.83
865.982	55.98
866.156	101.03
866.329	-11.61
866.503	51.88
866.676	162.47
866.85	62.12
867.024	-5.46
867.197	25.26
867.371	12.97
867.544	12.97
867.718	-27.99
867.891	105.13
868.065	25.26
868.238	-5.46
868.412	60.07
868.585	53.93
868.759	45.74
868.932	12.97
869.105	12.97
869.279	76.46
869.452	31.4
869.625	66.22
869.799	35.5
869.972	-23.89
870.145	70.31
870.319	31.4
870.492	-3.41
870.665	-52.56
870.838	80.55
871.011	0.68
871.185	-21.85
871.358	-46.42
871.531	60.07
871.704	-27.99
871.877	55.98
872.05	53.93
872.223	19.11
872.396	31.4
872.569	58.03
872.742	68.27
872.915	10.92
873.088	31.4
873.261	12.97
873.434	0.68
873.607	58.03
873.78	27.31
873.953	35.5
874.126	12.97
874.299	19.11
874.471	25.26
874.644	-11.61
874.817	35.5
874.99	96.94
875.163	105.13
875.335	12.97
875.508	15.02
875.681	82.6
875.853	53.93
876.026	66.22
876.199	68.27
876.371	12.97
876.544	84.65
876.717	-27.99
876.889	-13.65
877.062	47.79
877.234	-75.09
877.407	10.92
877.579	2.73
877.752	-7.51
877.924	19.11
878.097	39.59
878.269	21.16
878.442	68.27
878.614	-9.56
878.786	-1.37
878.959	29.35
879.131	10.92
879.303	-1.37
879.476	39.59
879.648	49.83
879.82	70.31
879.993	51.88
880.165	45.74
880.337	51.88
880.509	55.98
880.681	-75.09
880.854	15.02
881.026	31.4
881.198	0.68
881.37	-19.8
881.542	-15.7
881.714	60.07
881.886	49.83
882.058	-68.95
882.23	41.64
882.402	49.83
882.574	-7.51
882.746	17.07
882.918	107.18
883.09	6.83
883.262	17.07
883.434	62.12
883.606	-38.23
883.778	49.83
883.95	31.4
884.122	-13.65
884.293	53.93
884.465	-46.42
884.637	78.51
884.809	76.46
884.98	62.12
885.152	21.16
885.324	2.73
885.496	-7.51
885.667	33.45
885.839	-3.41
886.011	82.6
886.182	17.07
886.354	64.17
886.525	33.45
886.697	25.26
886.869	80.55
887.04	23.21
887.212	68.27
887.383	86.7
887.555	35.5
887.726	2.73
887.897	53.93
888.069	105.13
888.24	53.93
888.412	41.64
888.583	103.08
888.754	35.5
888.926	39.59
889.097	64.17
889.268	12.97
889.44	27.31
889.611	-34.13
889.782	80.55
889.953	17.07
890.125	23.21
890.296	41.64
890.467	2.73
890.638	64.17
890.809	27.31
890.98	72.36
891.151	64.17
891.323	58.03
891.494	-15.7
891.665	86.7
891.836	2.73
892.007	-36.18
892.178	21.16
892.349	70.31
892.52	-58.71
892.691	12.97
892.862	66.22
893.032	33.45
893.203	64.17
893.374	-25.94
893.545	78.51
893.716	-1.37
893.887	-32.08
894.057	35.5
894.228	90.79
894.399	0.68
894.57	84.65
894.74	37.55
894.911	2.73
895.082	15.02
895.253	29.35
895.423	-3.41
895.594	-13.65
895.764	41.64
895.935	15.02
896.106	-5.46
896.276	80.55
896.447	29.35
896.617	31.4
896.788	4.78
896.958	51.88
897.129	19.11
897.299	0.68
897.47	41.64
897.64	60.07
897.81	47.79
897.981	-1.37
898.151	-1.37
898.322	17.07
898.492	15.02
898.662	-56.66
898.832	29.35
899.003	37.55
899.173	86.7
899.343	33.45
899.513	-5.46
