Data from USB4F104151__66__11-52-35-842.txt Node

Date: Fri Mar 14 11:52:35 EDT 2025
User: louis
Spectrometer: USB4F10415
Trigger mode: 4
Integration Time (sec): 2.000000E-2
Scans to average: 1
Electric dark correction enabled: true
Nonlinearity correction enabled: false
Boxcar width: 0
XAxis mode: Wavelengths
Number of Pixels in Spectrum: 3648
>>>>>Begin Spectral Data<<<<<
178.204	-11.78
178.424	-11.78
178.644	-11.78
178.864	-97.79
179.084	-87.55
179.304	-26.11
179.524	10.75
179.744	39.42
179.964	86.53
180.184	-46.59
180.404	-46.59
180.624	-22.02
180.844	33.28
181.064	-3.58
181.283	-5.63
181.503	-26.11
181.723	6.66
181.943	8.7
182.163	64
182.383	0.51
182.602	-5.63
182.822	-42.5
183.042	27.14
183.262	8.7
183.482	-5.63
183.701	-36.35
183.921	-13.82
184.141	-1.54
184.361	39.42
184.58	10.75
184.8	57.86
185.02	-65.02
185.239	18.94
185.459	6.66
185.679	64
185.898	-24.06
186.118	76.29
186.338	2.56
186.557	66.05
186.777	-9.73
186.997	16.9
187.216	125.44
187.436	111.1
187.655	2.56
187.875	74.24
188.095	29.18
188.314	14.85
188.534	125.44
188.753	31.23
188.973	-28.16
189.192	18.94
189.412	45.57
189.631	45.57
189.851	18.94
190.07	117.25
190.29	-22.02
190.509	49.66
190.729	8.7
190.948	39.42
191.168	141.82
191.387	39.42
191.607	-32.26
191.826	16.9
192.045	86.53
192.265	-44.54
192.484	12.8
192.704	27.14
192.923	-26.11
193.142	86.53
193.362	51.71
193.581	20.99
193.8	49.66
194.02	-48.64
194.239	33.28
194.458	18.94
194.678	53.76
194.897	20.99
195.116	-26.11
195.335	-17.92
195.555	53.76
195.774	37.38
195.993	43.52
196.212	14.85
196.432	-73.21
196.651	37.38
196.87	47.62
197.089	107.01
197.308	16.9
197.528	59.9
197.747	2.56
197.966	-46.59
198.185	39.42
198.404	33.28
198.623	33.28
198.842	82.43
199.062	57.86
199.281	102.91
199.5	35.33
199.719	41.47
199.938	53.76
200.157	47.62
200.376	55.81
200.595	33.28
200.814	51.71
201.033	20.99
201.252	31.23
201.471	55.81
201.69	72.19
201.909	74.24
202.128	41.47
202.347	-65.02
202.566	10.75
202.785	0.51
203.004	-48.64
203.223	37.38
203.442	43.52
203.661	0.51
203.879	35.33
204.098	66.05
204.317	51.71
204.536	-17.92
204.755	47.62
204.974	57.86
205.193	10.75
205.411	59.9
205.63	45.57
205.849	86.53
206.068	-32.26
206.287	37.38
206.505	-22.02
206.724	18.94
206.943	-9.73
207.162	8.7
207.381	41.47
207.599	-5.63
207.818	72.19
208.037	-46.59
208.255	0.51
208.474	0.51
208.693	-26.11
208.911	43.52
209.13	100.86
209.349	61.95
209.567	88.57
209.786	10.75
210.005	10.75
210.223	61.95
210.442	41.47
210.661	-5.63
210.879	47.62
211.098	6.66
211.316	-3.58
211.535	-52.74
211.753	6.66
211.972	125.44
212.191	-50.69
212.409	-32.26
212.628	14.85
212.846	16.9
213.065	-65.02
213.283	-17.92
213.502	-9.73
213.72	25.09
213.938	27.14
214.157	2.56
214.375	68.09
214.594	-56.83
214.812	88.57
215.031	8.7
215.249	33.28
215.467	-9.73
215.686	68.09
215.904	94.72
216.122	-19.97
216.341	64
216.559	-22.02
216.778	35.33
216.996	41.47
217.214	66.05
217.432	53.76
217.651	76.29
217.869	-32.26
218.087	49.66
218.306	14.85
218.524	96.77
218.742	0.51
218.96	37.38
219.179	57.86
219.397	14.85
219.615	-3.58
219.833	57.86
220.051	-28.16
220.27	4.61
220.488	-11.78
220.706	41.47
220.924	-24.06
221.142	47.62
221.36	12.8
221.578	-34.3
221.796	43.52
222.015	29.18
222.233	68.09
222.451	61.95
222.669	-48.64
222.887	74.24
223.105	20.99
223.323	18.94
223.541	-11.78
223.759	-7.68
223.977	27.14
224.195	2.56
224.413	31.23
224.631	53.76
224.849	33.28
225.067	90.62
225.285	-40.45
225.503	-44.54
225.721	-13.82
225.939	-3.58
226.157	53.76
226.375	33.28
226.592	-30.21
226.81	51.71
227.028	8.7
227.246	82.43
227.464	-11.78
227.682	-9.73
227.9	8.7
228.117	18.94
228.335	29.18
228.553	25.09
228.771	-1.54
228.989	16.9
229.206	-3.58
229.424	37.38
229.642	8.7
229.86	92.67
230.077	86.53
230.295	-19.97
230.513	16.9
230.731	53.76
230.948	6.66
231.166	23.04
231.384	-36.35
231.601	43.52
231.819	45.57
232.037	31.23
232.254	-7.68
232.472	45.57
232.689	45.57
232.907	66.05
233.125	27.14
233.342	61.95
233.56	-17.92
233.777	70.14
233.995	59.9
234.213	76.29
234.43	45.57
234.648	39.42
234.865	10.75
235.083	68.09
235.3	53.76
235.518	-26.11
235.735	98.81
235.953	2.56
236.17	-91.65
236.388	-5.63
236.605	-26.11
236.822	57.86
237.04	45.57
237.257	6.66
237.475	25.09
237.692	55.81
237.909	59.9
238.127	6.66
238.344	33.28
238.562	49.66
238.779	12.8
238.996	23.04
239.214	25.09
239.431	-36.35
239.648	10.75
239.865	49.66
240.083	-11.78
240.3	-26.11
240.517	4.61
240.735	35.33
240.952	16.9
241.169	31.23
241.386	53.76
241.603	-15.87
241.821	-11.78
242.038	-1.54
242.255	35.33
242.472	74.24
242.689	94.72
242.907	31.23
243.124	25.09
243.341	41.47
243.558	53.76
243.775	4.61
243.992	-22.02
244.209	41.47
244.426	51.71
244.643	43.52
244.86	2.56
245.078	-24.06
245.295	80.38
245.512	45.57
245.729	-7.68
245.946	-9.73
246.163	25.09
246.38	49.66
246.597	43.52
246.814	55.81
247.031	49.66
247.248	25.09
247.464	4.61
247.681	23.04
247.898	80.38
248.115	8.7
248.332	-26.11
248.549	20.99
248.766	47.62
248.983	113.15
249.2	16.9
249.417	100.86
249.633	119.29
249.85	12.8
250.067	-38.4
250.284	-1.54
250.501	33.28
250.717	41.47
250.934	12.8
251.151	43.52
251.368	86.53
251.585	53.76
251.801	47.62
252.018	55.81
252.235	-1.54
252.451	33.28
252.668	8.7
252.885	66.05
253.102	-56.83
253.318	43.52
253.535	-89.6
253.752	41.47
253.968	-22.02
254.185	10.75
254.401	8.7
254.618	-9.73
254.835	-44.54
255.051	61.95
255.268	18.94
255.484	16.9
255.701	33.28
255.917	39.42
256.134	-17.92
256.351	0.51
256.567	2.56
256.784	74.24
257	-36.35
257.217	20.99
257.433	37.38
257.65	25.09
257.866	10.75
258.082	57.86
258.299	-13.82
258.515	12.8
258.732	76.29
258.948	49.66
259.165	70.14
259.381	78.33
259.597	121.34
259.814	37.38
260.03	51.71
260.246	-13.82
260.463	80.38
260.679	57.86
260.895	-5.63
261.112	68.09
261.328	20.99
261.544	12.8
261.761	47.62
261.977	25.09
262.193	23.04
262.409	23.04
262.626	4.61
262.842	53.76
263.058	45.57
263.274	80.38
263.49	-3.58
263.707	43.52
263.923	14.85
264.139	-26.11
264.355	33.28
264.571	70.14
264.787	-9.73
265.004	86.53
265.22	27.14
265.436	59.9
265.652	-26.11
265.868	78.33
266.084	-42.5
266.3	100.86
266.516	6.66
266.732	82.43
266.948	-44.54
267.164	25.09
267.38	23.04
267.596	49.66
267.812	82.43
268.028	43.52
268.244	16.9
268.46	51.71
268.676	10.75
268.892	-17.92
269.108	-1.54
269.324	23.04
269.54	-24.06
269.756	41.47
269.972	-52.74
270.188	14.85
270.403	-24.06
270.619	4.61
270.835	-17.92
271.051	20.99
271.267	-11.78
271.483	0.51
271.698	6.66
271.914	49.66
272.13	23.04
272.346	-11.78
272.562	2.56
272.777	104.96
272.993	31.23
273.209	-5.63
273.425	14.85
273.64	27.14
273.856	35.33
274.072	74.24
274.287	-5.63
274.503	20.99
274.719	-46.59
274.934	-1.54
275.15	-46.59
275.366	14.85
275.581	37.38
275.797	37.38
276.012	57.86
276.228	43.52
276.444	29.18
276.659	-28.16
276.875	-44.54
277.09	16.9
277.306	31.23
277.521	-5.63
277.737	68.09
277.952	72.19
278.168	51.71
278.383	61.95
278.599	0.51
278.814	-5.63
279.03	64
279.245	107.01
279.461	10.75
279.676	72.19
279.892	8.7
280.107	-1.54
280.322	37.38
280.538	82.43
280.753	-11.78
280.969	-5.63
281.184	59.9
281.399	102.91
281.615	-3.58
281.83	0.51
282.045	53.76
282.26	78.33
282.476	-24.06
282.691	33.28
282.906	90.62
283.122	51.71
283.337	57.86
283.552	43.52
283.767	37.38
283.983	43.52
284.198	-7.68
284.413	-9.73
284.628	6.66
284.843	76.29
285.058	27.14
285.274	66.05
285.489	23.04
285.704	59.9
285.919	-40.45
286.134	51.71
286.349	4.61
286.564	61.95
286.779	31.23
286.995	94.72
287.21	-44.54
287.425	74.24
287.64	-48.64
287.855	47.62
288.07	-22.02
288.285	84.48
288.5	25.09
288.715	90.62
288.93	61.95
289.145	-32.26
289.36	14.85
289.575	31.23
289.79	31.23
290.004	80.38
290.219	119.29
290.434	6.66
290.649	45.57
290.864	18.94
291.079	70.14
291.294	59.9
291.509	47.62
291.724	53.76
291.938	20.99
292.153	45.57
292.368	-1.54
292.583	51.71
292.798	23.04
293.012	-7.68
293.227	10.75
293.442	-3.58
293.657	51.71
293.871	41.47
294.086	16.9
294.301	72.19
294.516	25.09
294.73	55.81
294.945	39.42
295.16	-19.97
295.374	39.42
295.589	94.72
295.804	-11.78
296.018	6.66
296.233	45.57
296.447	8.7
296.662	-22.02
296.877	-17.92
297.091	49.66
297.306	49.66
297.52	14.85
297.735	72.19
297.949	49.66
298.164	29.18
298.378	18.94
298.593	31.23
298.807	29.18
299.022	37.38
299.236	27.14
299.451	16.9
299.665	117.25
299.88	16.9
300.094	74.24
300.309	25.09
300.523	72.19
300.737	25.09
300.952	25.09
301.166	41.47
301.381	4.61
301.595	25.09
301.809	-15.87
302.024	55.81
302.238	37.38
302.452	49.66
302.667	98.81
302.881	31.23
303.095	94.72
303.309	49.66
303.524	-24.06
303.738	70.14
303.952	55.81
304.166	43.52
304.381	20.99
304.595	119.29
304.809	-60.93
305.023	27.14
305.237	-22.02
305.452	64
305.666	39.42
305.88	-11.78
306.094	41.47
306.308	47.62
306.522	74.24
306.736	35.33
306.95	41.47
307.164	20.99
307.379	94.72
307.593	37.38
307.807	94.72
308.021	47.62
308.235	12.8
308.449	25.09
308.663	-44.54
308.877	92.67
309.091	45.57
309.305	41.47
309.519	-83.45
309.733	-36.35
309.947	0.51
310.161	20.99
310.374	64
310.588	31.23
310.802	-7.68
311.016	-9.73
311.23	-32.26
311.444	25.09
311.658	-3.58
311.872	55.81
312.085	66.05
312.299	-1.54
312.513	57.86
312.727	25.09
312.941	-28.16
313.154	-9.73
313.368	90.62
313.582	53.76
313.796	8.7
314.009	-7.68
314.223	-30.21
314.437	31.23
314.651	66.05
314.864	35.33
315.078	-11.78
315.292	43.52
315.505	-34.3
315.719	33.28
315.933	29.18
316.146	-7.68
316.36	16.9
316.573	33.28
316.787	-5.63
317.001	66.05
317.214	12.8
317.428	-3.58
317.641	-13.82
317.855	2.56
318.068	25.09
318.282	33.28
318.495	113.15
318.709	64
318.922	2.56
319.136	47.62
319.349	64
319.563	-7.68
319.776	10.75
319.99	51.71
320.203	-24.06
320.417	16.9
320.63	16.9
320.843	94.72
321.057	4.61
321.27	98.81
321.483	43.52
321.697	25.09
321.91	64
322.124	2.56
322.337	6.66
322.55	4.61
322.763	20.99
322.977	37.38
323.19	-15.87
323.403	-5.63
323.617	41.47
323.83	119.29
324.043	90.62
324.256	64
324.469	-30.21
324.683	0.51
324.896	51.71
325.109	2.56
325.322	20.99
325.535	104.96
325.748	72.19
325.962	4.61
326.175	16.9
326.388	39.42
326.601	16.9
326.814	-3.58
327.027	145.92
327.24	102.91
327.453	10.75
327.666	90.62
327.879	27.14
328.092	31.23
328.305	61.95
328.518	59.9
328.731	-11.78
328.944	10.75
329.157	107.01
329.37	41.47
329.583	14.85
329.796	70.14
330.009	-5.63
330.222	14.85
330.435	47.62
330.648	80.38
330.861	-9.73
331.073	33.28
331.286	66.05
331.499	-28.16
331.712	109.05
331.925	78.33
332.138	74.24
332.35	45.57
332.563	55.81
332.776	31.23
332.989	20.99
333.202	64
333.414	-36.35
333.627	49.66
333.84	49.66
334.053	39.42
334.265	94.72
334.478	-15.87
334.691	14.85
334.903	61.95
335.116	57.86
335.329	51.71
335.541	-3.58
335.754	-17.92
335.966	64
336.179	59.9
336.392	14.85
336.604	57.86
336.817	98.81
337.029	135.68
337.242	-56.83
337.454	-36.35
337.667	-32.26
337.88	16.9
338.092	74.24
338.305	33.28
338.517	51.71
338.729	59.9
338.942	-28.16
339.154	23.04
339.367	-40.45
339.579	25.09
339.792	-34.3
340.004	74.24
340.217	66.05
340.429	70.14
340.641	0.51
340.854	39.42
341.066	23.04
341.278	29.18
341.491	68.09
341.703	4.61
341.915	64
342.128	4.61
342.34	119.29
342.552	88.57
342.764	72.19
342.977	-26.11
343.189	43.52
343.401	-19.97
343.613	31.23
343.826	37.38
344.038	8.7
344.25	80.38
344.462	41.47
344.674	100.86
344.886	-3.58
345.099	66.05
345.311	14.85
345.523	41.47
345.735	29.18
345.947	10.75
346.159	-7.68
346.371	49.66
346.583	18.94
346.795	84.48
347.007	51.71
347.219	80.38
347.431	31.23
347.643	111.1
347.855	12.8
348.067	109.05
348.279	39.42
348.491	64
348.703	23.04
348.915	43.52
349.127	51.71
349.339	6.66
349.551	25.09
349.763	70.14
349.975	92.67
350.187	47.62
350.399	4.61
350.61	68.09
350.822	0.51
351.034	-48.64
351.246	14.85
351.458	43.52
351.669	135.68
351.881	88.57
352.093	51.71
352.305	70.14
352.517	35.33
352.728	43.52
352.94	45.57
353.152	8.7
353.363	-9.73
353.575	68.09
353.787	68.09
353.999	109.05
354.21	72.19
354.422	45.57
354.633	53.76
354.845	27.14
355.057	53.76
355.268	12.8
355.48	-24.06
355.692	-22.02
355.903	43.52
356.115	90.62
356.326	-15.87
356.538	90.62
356.749	12.8
356.961	53.76
357.172	49.66
357.384	6.66
357.595	86.53
357.807	49.66
358.018	-28.16
358.23	8.7
358.441	10.75
358.653	27.14
358.864	55.81
359.075	18.94
359.287	51.71
359.498	115.2
359.709	68.09
359.921	45.57
360.132	47.62
360.344	29.18
360.555	-34.3
360.766	96.77
360.977	-36.35
361.189	76.29
361.4	20.99
361.611	16.9
361.823	102.91
362.034	27.14
362.245	8.7
362.456	0.51
362.667	84.48
362.879	92.67
363.09	23.04
363.301	45.57
363.512	53.76
363.723	68.09
363.935	-1.54
364.146	47.62
364.357	111.1
364.568	76.29
364.779	25.09
364.99	121.34
365.201	27.14
365.412	70.14
365.623	-5.63
365.834	-17.92
366.045	43.52
366.256	129.53
366.467	51.71
366.678	64
366.889	37.38
367.1	-5.63
367.311	45.57
367.522	20.99
367.733	39.42
367.944	35.33
368.155	80.38
368.366	74.24
368.577	31.23
368.788	33.28
368.999	20.99
369.209	109.05
369.42	0.51
369.631	88.57
369.842	29.18
370.053	86.53
370.264	96.77
370.474	51.71
370.685	23.04
370.896	41.47
371.107	14.85
371.317	70.14
371.528	39.42
371.739	47.62
371.95	78.33
372.16	45.57
372.371	-42.5
372.582	23.04
372.792	27.14
373.003	35.33
373.214	55.81
373.424	23.04
373.635	64
373.846	37.38
374.056	74.24
374.267	20.99
374.477	16.9
374.688	84.48
374.898	55.81
375.109	39.42
375.319	0.51
375.53	49.66
375.74	8.7
375.951	94.72
376.161	70.14
376.372	47.62
376.582	55.81
376.793	72.19
377.003	-1.54
377.214	33.28
377.424	51.71
377.635	49.66
377.845	4.61
378.055	129.53
378.266	61.95
378.476	74.24
378.686	20.99
378.897	117.25
379.107	23.04
379.317	55.81
379.528	94.72
379.738	-9.73
379.948	43.52
380.158	49.66
380.369	123.39
380.579	31.23
380.789	35.33
380.999	37.38
381.21	31.23
381.42	29.18
381.63	25.09
381.84	47.62
382.05	129.53
382.261	74.24
382.471	117.25
382.681	55.81
382.891	47.62
383.101	72.19
383.311	41.47
383.521	117.25
383.731	10.75
383.941	133.63
384.151	-3.58
384.361	76.29
384.571	96.77
384.781	74.24
384.991	61.95
385.201	45.57
385.411	123.39
385.621	64
385.831	25.09
386.041	123.39
386.251	20.99
386.461	115.2
386.671	-13.82
386.881	35.33
387.091	102.91
387.301	49.66
387.511	102.91
387.72	104.96
387.93	70.14
388.14	33.28
388.35	104.96
388.56	39.42
388.769	35.33
388.979	88.57
389.189	-3.58
389.399	64
389.609	45.57
389.818	86.53
390.028	88.57
390.238	-7.68
390.447	51.71
390.657	70.14
390.867	18.94
391.076	-40.45
391.286	102.91
391.496	80.38
391.705	115.2
391.915	90.62
392.125	61.95
392.334	47.62
392.544	100.86
392.753	84.48
392.963	47.62
393.172	104.96
393.382	74.24
393.591	145.92
393.801	37.38
394.01	115.2
394.22	82.43
394.429	90.62
394.639	82.43
394.848	86.53
395.058	84.48
395.267	92.67
395.477	158.21
395.686	80.38
395.895	51.71
396.105	107.01
396.314	131.58
396.524	92.67
396.733	78.33
396.942	86.53
397.152	117.25
397.361	166.4
397.57	43.52
397.78	141.82
397.989	94.72
398.198	117.25
398.407	168.45
398.617	84.48
398.826	72.19
399.035	104.96
399.244	78.33
399.453	57.86
399.663	18.94
399.872	129.53
400.081	139.77
400.29	137.73
400.499	86.53
400.708	145.92
400.917	117.25
401.127	152.06
401.336	184.83
401.545	170.49
401.754	166.4
401.963	180.73
402.172	227.84
402.381	117.25
402.59	145.92
402.799	64
403.008	145.92
403.217	145.92
403.426	170.49
403.635	117.25
403.844	158.21
404.053	162.3
404.262	139.77
404.471	223.74
404.68	121.34
404.888	152.06
405.097	168.45
405.306	209.4
405.515	195.07
405.724	180.73
405.933	137.73
406.142	152.06
406.35	174.59
406.559	225.79
406.768	217.6
406.977	242.17
407.185	215.55
407.394	227.84
407.603	160.25
407.812	215.55
408.02	229.88
408.229	227.84
408.438	227.84
408.646	291.32
408.855	262.65
409.064	242.17
409.272	250.36
409.481	338.43
409.69	227.84
409.898	250.36
410.107	313.85
410.315	324.09
410.524	383.48
410.733	317.95
410.941	365.05
411.15	420.35
411.358	399.87
411.567	410.11
411.775	438.78
411.984	391.67
412.192	508.41
412.401	438.78
412.609	496.12
412.818	551.42
413.026	512.5
413.234	430.59
413.443	672.25
413.651	637.43
413.86	692.73
414.068	578.04
414.276	688.63
414.485	606.71
414.693	641.53
414.901	731.64
415.11	741.88
415.318	625.14
415.526	899.57
415.734	805.36
415.943	846.32
416.151	881.14
416.359	895.47
416.567	928.24
416.776	938.48
416.984	1051.12
417.192	1051.12
417.4	1133.04
417.608	1102.32
417.817	1141.23
418.025	1255.92
418.233	1352.17
418.441	1169.9
418.649	1292.78
418.857	1429.99
419.065	1456.62
419.273	1364.46
419.481	1505.77
419.689	1561.06
419.897	1579.5
420.105	1653.22
420.313	1645.03
420.521	1710.57
420.729	1823.2
420.937	1757.67
421.145	1946.08
421.353	1950.18
421.561	2136.54
421.769	2099.68
421.977	2163.17
422.185	2132.45
422.393	2255.33
422.601	2435.55
422.809	2552.28
423.017	2439.64
423.224	2675.16
423.432	2767.32
423.64	2757.08
423.848	3000.79
424.056	2839
424.263	3117.52
424.471	3103.18
424.679	3150.29
424.887	3254.73
425.094	3338.7
425.302	3518.92
425.51	3574.22
425.718	3733.96
425.925	3664.33
426.133	3912.13
426.341	3914.18
426.548	4270.53
426.756	4129.22
426.964	4254.14
427.171	4479.42
427.379	4727.22
427.586	4727.22
427.794	4893.11
428.001	5034.42
428.209	5452.2
428.417	5261.74
428.624	5560.75
428.832	5618.09
429.039	5575.08
429.247	5613.99
429.454	6216.1
429.662	6592.92
429.869	6261.15
430.076	6701.47
430.284	6398.37
430.491	6713.75
430.699	7168.4
430.906	6945.17
431.114	7109.01
431.321	7532.94
431.528	7563.66
431.736	8018.31
431.943	8171.91
432.15	8165.76
432.358	8259.97
432.565	8698.24
432.772	8726.91
432.979	9091.45
433.187	9245.04
433.394	9183.6
433.601	10000.74
433.808	9974.12
434.016	9861.48
434.223	10242.4
434.43	11018.58
434.637	10860.89
434.844	11460.95
435.052	11569.49
435.259	11477.33
435.466	11643.21
435.673	11649.36
435.88	12233.03
436.087	12927.29
436.294	12912.95
436.501	12845.37
436.708	12933.43
436.915	13240.63
437.122	14186.79
437.329	13781.29
437.537	14467.36
437.743	14616.86
437.95	14590.24
438.157	15249.69
438.364	15481.11
438.571	15655.19
438.778	15819.02
438.985	17463.54
439.192	16623.87
439.399	17180.92
439.606	16621.83
439.813	17471.73
440.02	18491.62
440.227	18340.07
440.433	18094.32
440.64	18735.33
440.847	18458.85
441.054	19462.36
441.261	20289.74
441.467	20060.37
441.674	20527.3
441.881	21090.49
442.088	21264.57
442.294	20986.05
442.501	21516.47
442.708	21924.02
442.914	23070.88
443.121	23888.02
443.328	23208.09
443.534	25127.04
443.741	24268.94
443.948	23814.29
444.154	25565.31
444.361	25600.12
444.568	25634.94
444.774	25743.48
444.981	26062.96
445.187	26755.18
445.394	27834.46
445.6	27213.92
445.807	30277.68
446.013	28833.86
446.22	28997.7
446.426	30529.58
446.633	30973.99
446.839	31563.81
447.046	30208.05
447.252	32077.85
447.459	32153.62
447.665	32186.39
447.871	33652.73
448.078	34973.67
448.284	33218.57
448.491	33759.23
448.697	35104.74
448.903	35913.69
449.11	36241.37
449.316	35891.16
449.522	36532.18
449.728	37148.62
449.935	37416.9
450.141	37670.85
450.347	38262.71
450.553	37300.17
450.76	37484.48
450.966	38821.81
451.172	38561.72
451.378	39024.56
451.584	38592.44
451.791	39602.08
451.997	39473.06
452.203	40267.67
452.409	40142.75
452.615	39749.54
452.821	38344.63
453.027	38207.42
453.233	40015.77
453.44	38408.12
453.646	38901.68
453.852	39333.8
454.058	39460.77
454.264	38608.82
454.47	39448.49
454.676	38195.13
454.882	39755.68
455.088	36384.72
455.294	36978.64
455.5	37421
455.705	37898.17
455.911	36429.78
456.117	35942.36
456.323	34871.28
456.529	33118.21
456.735	34596.85
456.941	33847.29
457.147	33304.58
457.352	32190.48
457.558	31887.39
457.764	31993.88
457.97	31031.33
458.176	30967.85
458.381	30697.52
458.587	29182.02
458.793	29245.51
458.999	27930.71
459.204	29560.89
459.41	28573.77
459.616	26785.9
459.821	27019.36
460.027	26687.59
460.233	26361.97
460.438	24842.37
460.644	25356.41
460.85	24148.11
461.055	23697.56
461.261	23572.63
461.466	22030.51
461.672	21205.18
461.878	23036.06
462.083	21317.82
462.289	20936.9
462.494	20658.37
462.7	19863.76
462.905	19284.19
463.111	19874
463.316	19828.95
463.522	19634.39
463.727	19716.31
463.932	19372.25
464.138	19198.17
464.343	19523.8
464.549	18753.76
464.754	19644.63
464.959	19230.94
465.165	19265.75
465.37	18149.61
465.575	17723.63
465.781	18405.61
465.986	18671.84
466.191	18188.52
466.397	17608.95
466.602	16593.15
466.807	17524.98
467.012	17338.62
467.218	17019.13
467.423	17099
467.628	17133.82
467.833	17834.22
468.038	17125.63
468.244	16869.63
468.449	17524.98
468.654	16744.7
468.859	16724.22
469.064	16568.58
469.269	16087.31
469.474	16013.58
469.679	16470.28
469.885	15989
470.09	16408.84
470.295	15845.65
470.5	15626.51
470.705	15849.74
470.91	15130.91
471.115	15399.19
471.32	15495.44
471.525	15378.71
471.73	14762.27
471.935	14778.65
472.139	14432.55
472.344	14623.01
472.549	14270.76
472.754	14473.51
472.959	14045.48
473.164	13670.7
473.369	13732.14
473.574	14053.67
473.778	13979.95
473.983	13762.86
474.188	13691.18
474.393	13160.76
474.598	13328.69
474.802	12925.24
475.007	12867.9
475.212	13216.05
475.417	12575.04
475.621	12656.96
475.826	12396.87
476.031	12140.87
476.235	12144.97
476.44	12161.35
476.645	12239.17
476.849	12142.92
477.054	12177.73
477.259	11825.48
477.463	11688.27
477.668	11432.27
477.872	11471.18
478.077	11350.35
478.282	11188.57
478.486	11053.4
478.691	10973.53
478.895	10926.43
479.1	10670.43
479.304	11037.02
479.509	10434.91
479.713	10572.13
479.918	10494.3
480.122	10422.62
480.326	10363.23
480.531	10269.03
480.735	10420.58
480.94	10166.63
481.144	10639.71
481.348	10148.2
481.553	10217.83
481.757	9818.47
481.961	10324.32
482.166	10258.79
482.37	10123.62
482.574	9980.26
482.778	9904.49
482.983	10232.16
483.187	9927.02
483.391	10119.53
483.595	9902.44
483.8	9742.7
484.004	9822.57
484.208	10209.64
484.412	10060.13
484.616	9976.17
484.821	9955.69
485.025	9730.41
485.229	10111.33
485.433	9918.82
485.637	10006.89
485.841	9931.11
486.045	9992.55
486.249	10080.61
486.453	9843.05
486.657	10156.39
486.861	9943.4
487.065	9685.36
487.269	9892.2
487.473	9709.93
487.677	10092.9
487.881	10197.35
488.085	9970.02
488.289	10154.34
488.493	9970.02
488.697	10121.57
488.901	10168.68
489.105	10211.68
489.309	10066.28
489.512	10115.43
489.716	10166.63
489.92	10074.47
490.124	10137.96
490.328	10266.98
490.531	10156.39
490.735	10142.05
490.939	10162.53
491.143	10457.44
491.346	10236.26
491.55	10482.02
491.754	10527.07
491.958	10490.21
492.161	10514.78
492.365	10613.09
492.569	10486.11
492.772	10371.43
492.976	10580.32
493.18	10709.34
493.383	10783.07
493.587	10858.84
493.79	11055.45
493.994	10738.01
494.197	11026.78
494.401	11022.68
494.605	11135.32
494.808	11293.01
495.012	11184.47
495.215	11434.32
495.419	11477.33
495.622	11278.68
495.825	11506
496.029	11716.94
496.232	11762
496.436	11774.28
496.639	12013.9
496.843	11839.82
497.046	12187.97
497.249	12415.3
497.453	12302.66
497.656	12392.77
497.859	12593.47
498.063	12681.53
498.266	12968.25
498.469	12618.05
498.673	12972.35
498.876	13132.09
499.079	13035.83
499.282	13246.77
499.485	13740.33
499.689	13828.4
499.892	13875.5
500.095	13777.2
500.298	14493.99
500.501	14117.16
500.705	14616.86
500.908	14811.42
501.111	14766.37
501.314	14729.5
501.517	15079.71
501.72	15190.3
501.923	15261.98
502.126	15671.57
502.329	15771.92
502.532	15864.08
502.735	16247.05
502.938	16224.52
503.141	16142.6
503.344	16568.58
503.547	16781.57
503.75	16734.46
503.953	16988.41
504.156	16847.1
504.359	17221.88
504.562	17588.47
504.765	17838.32
504.968	18086.12
505.17	18551.01
505.373	18243.82
505.576	18647.27
505.779	18591.97
505.982	18753.76
506.185	19136.73
506.387	19122.4
506.59	19243.23
506.793	19841.23
506.996	19683.54
507.198	20394.18
507.401	20205.77
507.604	20302.03
507.807	20734.15
508.009	20787.39
508.212	20900.03
508.415	21477.56
508.617	21770.42
508.82	21407.93
509.022	21706.93
509.225	22180.01
509.428	22151.34
509.63	22286.51
509.833	22646.95
510.035	23283.87
510.238	22788.26
510.44	23421.08
510.643	23779.48
510.845	23783.57
511.048	23834.77
511.25	24066.19
511.453	24227.98
511.655	25118.85
511.858	24443.02
512.06	25102.46
512.262	25503.87
512.465	25378.94
512.667	26052.72
512.87	25901.17
513.072	25917.56
513.274	26407.02
513.477	26701.93
513.679	27025.51
513.881	26955.88
514.084	27512.92
514.286	27584.6
514.488	27865.17
514.69	28608.59
514.893	28426.32
515.095	28432.46
515.297	28862.54
515.499	29032.52
515.701	29718.59
515.904	29646.91
516.106	29732.92
516.308	29978.68
516.51	30390.32
516.712	30763.05
516.914	30849.07
517.116	31477.79
517.318	31361.06
517.52	31467.55
517.722	32010.26
517.925	32376.85
518.127	32677.9
518.329	32813.07
518.531	32489.49
518.733	33341.44
518.935	33433.6
519.136	33359.87
519.338	33902.59
519.54	33974.27
519.742	34242.55
519.944	34566.13
520.146	34836.46
520.348	35381.22
520.55	35540.96
520.752	35520.48
520.954	35692.51
521.155	35856.35
521.357	36397.01
521.559	36622.29
521.761	37285.83
521.963	37236.68
522.164	37148.62
522.366	37515.2
522.568	37685.18
522.77	37760.96
522.971	38414.26
523.173	38180.79
523.375	38987.69
523.576	38490.04
523.778	38795.18
523.98	39169.96
524.181	39358.38
524.383	39413.67
524.584	39905.18
524.786	39780.26
524.988	39817.12
525.189	40071.07
525.391	40669.08
525.592	40918.93
525.794	41164.68
525.995	41052.05
526.197	40912.78
526.398	40980.37
526.6	41222.03
526.801	41557.89
527.003	41576.33
527.204	41656.2
527.406	42278.78
527.607	41682.82
527.808	42086.27
528.01	41561.99
528.211	42002.3
528.412	43026.29
528.614	42364.79
528.815	43001.71
529.016	43014
529.218	42850.16
529.419	43120.49
529.62	43212.65
529.822	43124.59
530.023	43368.3
530.224	43325.29
530.425	43534.18
530.626	43296.62
530.828	43196.27
531.029	43818.85
531.23	43509.61
531.431	43581.29
531.632	44015.46
531.833	44138.33
532.035	43790.18
532.236	43892.58
532.437	44394.33
532.638	44214.11
532.839	44214.11
533.04	44101.47
533.241	43519.85
533.442	44410.71
533.643	44130.14
533.844	43966.31
534.045	44476.25
534.246	43999.07
534.447	44361.56
534.648	44267.36
534.849	44560.22
535.05	43984.74
535.251	44310.36
535.451	44273.5
535.652	44566.36
535.853	44494.68
536.054	44984.15
536.255	44756.82
536.456	44597.08
536.657	45125.46
536.857	44224.35
537.058	44281.69
537.259	44859.22
537.46	44885.84
537.66	44705.62
537.861	44500.82
538.062	44592.98
538.263	44896.08
538.463	44216.16
538.664	44306.27
538.865	44126.05
539.065	44396.38
539.266	44087.14
539.466	44894.03
539.667	44234.59
539.868	44791.64
540.068	44570.46
540.269	44236.64
540.469	44306.27
540.67	43962.21
540.87	44789.59
541.071	44314.46
541.271	44171.1
541.472	44304.22
541.672	44070.75
541.873	44334.94
542.073	43847.52
542.274	44668.76
542.474	43851.62
542.675	43978.59
542.875	44502.87
543.075	44455.77
543.276	43444.07
543.476	44805.97
543.676	44175.2
543.877	44107.61
544.077	44560.22
544.277	44318.56
544.478	43994.98
544.678	44234.59
544.878	44293.98
545.078	44592.98
545.279	44111.71
545.479	43978.59
545.679	44277.6
545.879	43999.07
546.079	44113.76
546.28	44152.67
546.48	43724.64
546.68	44093.28
546.88	43919.2
547.08	44068.7
547.28	43784.04
547.48	43751.27
547.68	44455.77
547.88	43863.91
548.081	43888.48
548.281	44324.7
548.481	43743.08
548.681	43853.67
548.881	43671.4
549.081	43614.05
549.28	43898.72
549.48	44091.23
549.68	43665.25
549.88	44210.01
550.08	43669.35
550.28	43837.28
550.48	43765.6
550.68	43927.39
550.88	43788.13
551.08	43743.08
551.279	43857.76
551.479	43618.15
551.679	43835.24
551.879	43790.18
552.079	44062.56
552.278	43261.8
552.478	43515.75
552.678	43226.99
552.878	43806.56
553.077	43446.12
553.277	43296.62
553.477	43814.76
553.676	43607.91
553.876	43536.23
554.076	43519.85
554.275	43501.42
554.475	42882.93
554.674	43409.26
554.874	43591.53
555.074	43781.99
555.273	43439.98
555.473	43341.67
555.672	43124.59
555.872	43239.28
556.071	43231.08
556.271	43409.26
556.47	43057.01
556.67	42504.06
556.869	42463.1
557.068	43298.67
557.268	42913.65
557.467	42325.88
557.667	42708.85
557.866	42624.89
558.065	42719.09
558.265	42461.05
558.464	42504.06
558.663	42934.13
558.863	42493.82
559.062	43183.98
559.261	42200.96
559.461	42780.53
559.66	42149.76
559.859	42516.34
560.058	41531.27
560.258	42033.02
560.457	41877.38
560.656	41998.21
560.855	41717.64
561.054	42192.76
561.253	41731.97
561.453	41650.05
561.652	41574.28
561.851	41633.67
562.05	42069.89
562.249	41482.12
562.448	41535.37
562.647	41469.83
562.846	41654.15
563.045	41162.64
563.244	40994.7
563.443	41324.43
563.642	41058.19
563.841	41455.5
564.04	41041.81
564.239	40837.01
564.438	40681.36
564.637	40603.54
564.836	41103.24
565.035	40247.19
565.234	40791.95
565.432	40435.61
565.631	39972.77
565.83	40325.02
566.029	40218.52
566.228	40169.37
566.427	39952.29
566.625	39858.08
566.824	39438.25
567.023	40167.32
567.222	39094.19
567.42	40193.95
567.619	39589.8
567.818	39511.97
568.016	39255.98
568.215	39589.8
568.414	39315.37
568.612	39344.04
568.811	39219.11
569.01	39143.34
569.208	38651.83
569.407	39350.18
569.605	38555.57
569.804	39038.89
570.002	39069.61
570.201	39145.39
570.4	38518.71
570.598	38145.98
570.797	38324.15
570.995	38670.26
571.193	37998.52
571.392	38420.41
571.59	38213.56
571.789	37754.82
571.987	37795.78
572.186	37650.37
572.384	37318.6
572.582	37836.73
572.781	37777.34
572.979	37201.86
573.177	37158.86
573.376	37330.89
573.574	37134.28
573.772	37230.54
573.971	37046.22
574.169	37040.07
574.367	36251.61
574.565	36904.91
574.763	37035.98
574.962	36335.57
575.16	36335.57
575.358	36589.52
575.556	35809.25
575.754	36409.3
575.952	36128.73
576.151	36356.05
576.349	35717.09
576.547	35762.14
576.745	35913.69
576.943	35946.46
577.141	35829.73
577.339	35975.13
577.537	35385.32
577.735	35792.86
577.933	34992.11
578.131	35295.21
578.329	34963.43
578.527	35102.7
578.725	34967.53
578.923	34996.2
579.121	34709.49
579.319	34729.97
579.516	34734.06
579.714	34920.43
579.912	34668.53
580.11	34308.08
580.308	34494.45
580.506	34502.64
580.704	33685.5
580.901	34168.82
581.099	34209.78
581.297	33880.06
581.495	33896.44
581.692	33773.56
581.89	33136.65
582.088	33773.56
582.285	33325.06
582.483	33869.82
582.681	33454.08
582.878	33253.38
583.076	32841.74
583.274	33353.73
583.471	32475.15
583.669	33019.91
583.866	33011.72
584.064	33140.74
584.262	32434.19
584.459	32571.41
584.657	31993.88
584.854	32827.4
585.052	32026.65
585.249	32247.83
585.447	32350.23
585.644	31526.94
585.841	32024.6
586.039	32266.26
586.236	31684.64
586.434	31502.37
586.631	31598.62
586.828	31809.56
587.026	31586.33
587.223	31393.82
587.42	31559.71
587.618	31184.93
587.815	30662.7
588.012	30904.36
588.21	30687.28
588.407	31141.92
588.604	30593.07
588.801	30744.62
588.999	30670.89
589.196	30545.97
589.393	30224.43
589.59	30271.54
589.787	30347.31
589.984	30167.09
590.182	30081.08
590.379	30062.65
590.576	29923.38
590.773	29933.62
590.97	29968.44
591.167	29968.44
591.364	29200.45
591.561	29526.08
591.758	29165.63
591.955	29225.03
592.152	29319.23
592.349	29112.39
592.546	29171.78
592.743	29050.95
592.94	28710.99
593.137	29169.73
593.334	29016.13
593.531	28454.99
593.727	28735.56
593.924	28420.17
594.121	28344.4
594.318	28579.92
594.515	27867.22
594.712	28471.37
594.908	28438.61
595.105	28190.8
595.302	27762.78
595.499	27945.05
595.696	27715.67
595.892	27652.19
596.089	27637.85
596.286	27551.84
596.482	27437.15
596.679	27252.83
596.876	27246.69
597.072	27261.02
597.269	27111.52
597.466	26851.43
597.662	26853.48
597.859	26650.73
598.055	27035.75
598.252	26374.25
598.448	26728.55
598.645	26560.62
598.841	26450.03
599.038	26542.19
599.234	26615.91
599.431	26069.11
599.627	26280.05
599.824	26378.35
600.02	26194.03
600.217	26257.52
600.413	26017.91
600.609	25723
600.806	25706.62
601.002	25213.06
601.198	25555.07
601.395	25358.46
601.591	25307.26
601.787	25415.8
601.984	25145.47
602.18	25464.96
602.376	24885.38
602.572	24948.87
602.769	24801.41
602.965	24823.94
603.161	25249.92
603.357	24553.61
603.553	24664.2
603.75	24563.85
603.946	24565.9
604.142	24453.26
604.338	24225.93
604.534	24526.99
604.73	24010.9
604.926	23851.16
605.122	24326.28
605.318	24119.44
605.514	23998.61
605.71	23767.19
605.906	23804.05
606.102	23554.2
606.298	23906.45
606.494	23845.01
606.69	23523.48
606.886	23707.8
607.082	23160.99
607.278	23558.3
607.474	23341.21
607.67	23296.16
607.866	23134.37
608.062	23406.75
608.257	23306.4
608.453	23085.22
608.649	23072.93
608.845	22722.73
609.041	22976.67
609.236	23021.73
609.432	22839.46
609.628	22714.53
609.824	22548.65
610.019	22861.99
610.215	22567.08
610.411	22849.7
610.606	22491.3
610.802	22581.42
610.998	22497.45
611.193	22415.53
611.389	22227.12
611.584	22466.73
611.78	22032.56
611.976	22259.88
612.171	22321.32
612.367	22204.59
612.562	21854.39
612.758	21790.9
612.953	21876.91
613.149	22063.28
613.344	21981.36
613.539	22251.69
613.735	22128.81
613.93	21698.74
614.126	21577.91
614.321	21735.6
614.517	21551.29
614.712	21334.2
614.907	21455.03
615.103	21639.35
615.298	21541.05
615.493	21586.1
615.688	21100.73
615.884	21510.33
616.079	21295.29
616.274	21442.74
616.47	21225.66
616.665	21229.76
616.86	21184.7
617.055	21092.54
617.25	20541.64
617.445	21309.63
617.641	20893.89
617.836	20940.99
618.031	20689.09
618.226	20764.87
618.421	20576.45
618.616	20916.42
618.811	20342.99
619.006	20682.95
619.201	19964.11
619.396	20519.11
619.591	20111.57
619.786	20242.64
619.981	19585.24
620.176	20252.87
620.371	19634.39
620.566	19933.39
620.761	19710.16
620.956	19906.77
621.151	19421.4
621.346	19312.86
621.541	19124.44
621.735	19546.33
621.93	19110.11
622.125	18987.23
622.32	18852.06
622.515	18954.46
622.709	18929.89
622.904	18714.85
623.099	18704.61
623.294	18815.2
623.488	18587.88
623.683	18591.97
623.878	17989.87
624.072	18299.11
624.267	18219.24
624.462	18307.3
624.656	17748.21
624.851	17869.04
625.046	17905.9
625.24	17563.89
625.435	17557.75
625.629	17346.81
625.824	17352.95
626.018	17326.33
626.213	17049.85
626.407	17072.38
626.602	16910.59
626.796	17107.19
626.991	16998.65
627.185	16562.44
627.38	16599.3
627.574	16507.14
627.768	16544
627.963	16380.17
628.157	16226.57
628.352	16361.73
628.546	16167.18
628.74	16306.44
628.935	15829.26
629.129	15939.85
629.323	15571.22
629.517	15677.71
629.712	15735.06
629.906	15552.79
630.1	15378.71
630.294	15479.06
630.489	15200.54
630.683	15345.94
630.877	14962.97
631.071	14999.84
631.265	15055.13
631.459	14836
631.653	14676.26
631.848	14600.48
632.042	14569.76
632.236	14655.78
632.43	14420.26
632.624	14584.1
632.818	14356.77
633.012	14113.06
633.206	14313.77
633.4	14145.83
633.594	14176.55
633.788	13990.19
633.982	14145.83
634.176	13715.76
634.369	13922.6
634.563	13711.66
634.757	13367.6
634.951	13682.99
635.145	13556.02
635.339	13687.09
635.533	13373.75
635.726	13515.06
635.92	13412.66
636.114	13404.47
636.308	13306.16
636.501	13119.8
636.695	12951.87
636.889	12732.73
637.083	12955.96
637.276	12910.91
637.47	12605.76
637.664	12734.78
637.857	12697.92
638.051	12716.35
638.244	12439.87
638.438	12572.99
638.632	12222.79
638.825	12368.2
639.019	12292.42
639.212	12020.04
639.406	12132.68
639.599	12071.24
639.793	12036.42
639.986	11968.84
640.18	11784.52
640.373	11893.07
640.567	11671.89
640.76	11710.8
640.954	11563.34
641.147	11358.55
641.34	11366.74
641.534	11288.92
641.727	11376.98
641.92	11204.95
642.114	11168.09
642.307	11151.7
642.5	11039.06
642.694	10994.01
642.887	10838.36
643.08	10930.52
643.273	10881.37
643.467	10910.04
643.66	10568.03
643.853	10430.82
644.046	10422.62
644.239	10572.13
644.432	10713.44
644.626	10467.68
644.819	10314.08
645.012	10305.89
645.205	10404.19
645.398	10357.09
645.591	10223.97
645.784	10205.54
645.977	9945.45
646.17	10064.23
646.363	10086.76
646.556	9783.66
646.749	9877.87
646.942	9808.23
647.135	9816.43
647.328	9681.26
647.521	9513.33
647.714	9605.49
647.907	9671.02
648.099	9576.81
648.292	9539.95
648.485	9595.25
648.678	9365.87
648.871	9447.79
649.064	9345.39
649.256	9408.88
649.449	9380.21
649.642	9296.24
649.835	9175.41
650.027	8694.14
650.22	9034.1
650.413	8915.32
650.605	8984.95
650.798	8792.44
650.991	8884.6
651.183	8847.74
651.376	8659.32
651.568	8804.73
651.761	8663.42
651.954	8495.49
652.146	8571.26
652.339	8446.34
652.531	8323.46
652.724	8305.03
652.916	8300.93
653.109	8485.25
653.301	8491.39
653.494	8235.39
653.686	8251.78
653.879	8141.19
654.071	8141.19
654.263	8124.8
654.456	7979.4
654.648	8145.28
654.84	7901.58
655.033	7956.87
655.225	7801.22
655.417	7799.18
655.61	7846.28
655.802	7903.62
655.994	7725.45
656.186	7704.97
656.379	7700.87
656.571	7692.68
656.763	7584.14
656.955	7489.93
657.148	7612.81
657.34	7344.53
657.532	7240.08
657.724	7348.62
657.916	7473.55
658.108	7319.95
658.3	7311.76
658.492	7143.83
658.684	7287.18
658.876	7109.01
659.068	7238.03
659.26	6979.99
659.452	7102.87
659.644	7096.72
659.836	6900.12
660.028	6873.5
660.22	6912.41
660.412	6660.51
660.604	6621.59
660.796	6867.35
660.988	6836.63
661.18	6771.1
661.372	6465.95
661.563	6814.1
661.755	6590.88
661.947	6601.12
662.139	6613.4
662.331	6586.78
662.522	6556.06
662.714	6398.37
662.906	6343.07
663.097	6386.08
663.289	6263.2
663.481	6265.25
663.673	6332.83
663.864	6197.67
664.056	6250.91
664.247	6113.7
664.439	6009.25
664.631	6171.04
664.822	6035.88
665.014	6132.13
665.205	6164.9
665.397	6005.16
665.588	5947.81
665.78	5992.87
665.971	5900.71
666.163	6152.61
666.354	5884.33
666.546	5943.72
666.737	5777.83
666.929	5808.55
667.12	5671.34
667.311	5820.84
667.503	5652.91
667.694	5587.37
667.885	5566.89
668.077	5708.2
668.268	5648.81
668.459	5525.93
668.651	5530.03
668.842	5570.99
669.033	5421.49
669.224	5407.15
669.416	5581.23
669.607	5429.68
669.798	5345.71
669.989	5341.61
670.18	5292.46
670.371	5407.15
670.563	5280.18
670.754	5358
670.945	5329.33
671.136	5278.13
671.327	5157.3
671.518	5155.25
671.709	5216.69
671.9	5261.74
672.091	5202.35
672.282	5241.26
672.473	5050.8
672.664	5130.67
672.855	4989.36
673.046	5007.8
673.237	5001.65
673.428	5167.54
673.619	5067.19
673.809	5142.96
674	4921.78
674.191	4993.46
674.382	4796.85
674.573	4907.45
674.764	4925.88
674.954	4872.63
675.145	4837.81
675.336	4735.42
675.527	4743.61
675.717	4968.88
675.908	4860.34
676.099	4753.85
676.289	4747.7
676.48	4733.37
676.671	4649.4
676.861	4874.68
677.052	4790.71
677.243	4766.14
677.433	4606.39
677.624	4522.43
677.814	4594.11
678.005	4579.77
678.195	4577.72
678.386	4618.68
678.576	4567.48
678.767	4569.53
678.957	4532.67
679.148	4555.19
679.338	4526.52
679.529	4432.32
679.719	4379.07
679.909	4542.91
680.1	4563.39
680.29	4575.67
680.481	4448.7
680.671	4417.98
680.861	4405.69
681.052	4483.52
681.242	4387.26
681.432	4463.04
681.622	4426.17
681.813	4422.08
682.003	4366.78
682.193	4446.65
682.383	4422.08
682.573	4317.63
682.764	4237.76
682.954	4329.92
683.144	4411.84
683.334	4336.06
683.524	4217.28
683.714	4270.53
683.904	4123.07
684.094	4215.23
684.284	4295.1
684.474	4243.9
684.664	4172.22
684.854	4309.44
685.044	4198.85
685.234	4082.11
685.424	4075.97
685.614	4147.65
685.804	4030.91
685.994	4094.4
686.184	4092.35
686.374	4106.69
686.564	4061.63
686.753	4014.53
686.943	4018.63
687.133	3959.24
687.323	3981.76
687.513	4014.53
687.702	3869.12
687.892	3955.14
688.082	4051.39
688.272	3965.38
688.461	3934.66
688.651	3946.95
688.841	3905.99
689.03	3846.6
689.22	3793.35
689.41	3877.32
689.599	3815.88
689.789	3699.14
689.979	3631.56
690.168	3668.42
690.358	3568.07
690.547	3660.23
690.737	3678.66
690.926	3715.53
691.116	3711.43
691.305	3559.88
691.495	3512.78
691.684	3514.83
691.874	3588.55
692.063	3635.66
692.252	3656.14
692.442	3604.94
692.631	3520.97
692.82	3451.34
693.01	3473.87
693.199	3465.68
693.388	3477.96
693.578	3539.4
693.767	3451.34
693.956	3275.21
694.146	3459.53
694.335	3365.32
694.524	3451.34
694.713	3350.99
694.902	3451.34
695.092	3267.02
695.281	3228.11
695.47	3375.56
695.659	3250.64
695.848	3172.82
696.037	3228.11
696.226	3168.72
696.415	3303.89
696.604	3307.98
696.793	3355.08
696.982	3307.98
697.171	3092.94
697.36	3195.34
697.549	3193.3
697.738	3080.66
697.927	3092.94
698.116	3113.42
698.305	3201.49
698.494	3197.39
698.683	3183.06
698.872	3221.97
699.061	3189.2
699.25	3234.25
699.438	3121.62
699.627	3131.86
699.816	3101.14
700.005	3164.62
700.193	3193.3
700.382	3101.14
700.571	3205.58
700.76	3105.23
700.948	3121.62
701.137	3142.1
701.326	3107.28
701.514	3156.43
701.703	3029.46
701.892	3279.31
702.08	3054.03
702.269	3023.31
702.457	3082.7
702.646	3058.13
702.834	3043.79
703.023	3138
703.212	3017.17
703.4	2910.68
703.589	3021.27
703.777	3148.24
703.965	2963.92
704.154	3066.32
704.342	2984.4
704.531	2990.55
704.719	2892.24
704.907	3023.31
705.096	2955.73
705.284	3125.71
705.472	2939.35
705.661	2947.54
705.849	2914.77
706.037	2892.24
706.226	2947.54
706.414	2984.4
706.602	3033.55
706.79	2963.92
706.979	2902.48
707.167	2900.44
707.355	2959.83
707.543	2873.81
707.731	2927.06
707.919	2918.87
708.107	3043.79
708.296	2886.1
708.484	2888.15
708.672	2943.44
708.86	2912.72
709.048	2898.39
709.236	2970.07
709.424	2886.1
709.612	2798.04
709.8	2804.18
709.988	2898.39
710.176	2861.52
710.364	2775.51
710.551	2994.64
710.739	3039.7
710.927	2937.3
711.115	2873.81
711.303	2996.69
711.491	2941.4
711.679	2814.42
711.866	2970.07
712.054	3006.93
712.242	2861.52
712.43	2832.85
712.617	2775.51
712.805	3006.93
712.993	2947.54
713.181	2912.72
713.368	2922.96
713.556	2818.52
713.744	2857.43
713.931	2882
714.119	2779.61
714.306	2824.66
714.494	2865.62
714.682	2873.81
714.869	2873.81
715.057	2892.24
715.244	3000.79
715.432	2914.77
715.619	2937.3
715.807	2865.62
715.994	2781.65
716.182	2953.68
716.369	2763.22
716.556	2865.62
716.744	2763.22
716.931	2841.04
717.119	2933.2
717.306	2820.56
717.493	2818.52
717.681	2814.42
717.868	2843.09
718.055	2863.57
718.242	2912.72
718.43	2929.11
718.617	2726.36
718.804	2888.15
718.991	2836.95
719.179	2974.16
719.366	2904.53
719.553	2916.82
719.74	2896.34
719.927	2933.2
720.114	2875.86
720.301	2884.05
720.488	2875.86
720.676	2744.79
720.863	2847.19
721.05	2906.58
721.237	2931.16
721.424	2771.41
721.611	2914.77
721.798	2816.47
721.985	2781.65
722.172	2808.28
722.358	2888.15
722.545	2750.93
722.732	2808.28
722.919	2816.47
723.106	2873.81
723.293	2757.08
723.48	2845.14
723.667	2871.76
723.853	2810.33
724.04	2879.96
724.227	2814.42
724.414	2824.66
724.6	2773.46
724.787	2888.15
724.974	2908.63
725.161	2853.33
725.347	2769.37
725.534	2814.42
725.72	2869.72
725.907	2843.09
726.094	2748.89
726.28	2855.38
726.467	2914.77
726.653	2894.29
726.84	2898.39
727.027	2857.43
727.213	2748.89
727.4	2888.15
727.586	2730.45
727.773	2709.97
727.959	2890.2
728.145	2712.02
728.332	2857.43
728.518	2826.71
728.705	2742.74
728.891	2746.84
729.077	2859.48
729.264	2718.17
729.45	2734.55
729.636	2884.05
729.823	2709.97
730.009	2769.37
730.195	2736.6
730.382	2861.52
730.568	2816.47
730.754	2867.67
730.94	2701.78
731.126	2816.47
731.313	2777.56
731.499	2857.43
731.685	2742.74
731.871	2806.23
732.057	2873.81
732.243	2847.19
732.429	2791.89
732.615	2841.04
732.801	2914.77
732.987	2615.77
733.173	2740.69
733.359	2714.07
733.545	2767.32
733.731	2847.19
733.917	2662.87
734.103	2724.31
734.289	2734.55
734.475	2736.6
734.661	2750.93
734.847	2720.21
735.033	2714.07
735.219	2871.76
735.404	2732.5
735.59	2664.92
735.776	2615.77
735.962	2707.93
736.148	2777.56
736.333	2693.59
736.519	2636.25
736.705	2765.27
736.89	2601.43
737.076	2691.54
737.262	2691.54
737.447	2740.69
737.633	2673.11
737.819	2640.34
738.004	2601.43
738.19	2769.37
738.375	2634.2
738.561	2660.82
738.747	2662.87
738.932	2660.82
739.118	2689.49
739.303	2648.54
739.489	2636.25
739.674	2580.95
739.859	2562.52
740.045	2712.02
740.23	2564.57
740.416	2537.95
740.601	2644.44
740.786	2521.56
740.972	2644.44
741.157	2630.1
741.342	2492.89
741.528	2576.86
741.713	2550.23
741.898	2417.12
742.084	2484.7
742.269	2470.36
742.454	2554.33
742.639	2509.27
742.824	2470.36
743.01	2488.79
743.195	2453.98
743.38	2361.82
743.565	2480.6
743.75	2329.05
743.935	2413.02
744.12	2376.16
744.305	2363.87
744.49	2423.26
744.675	2365.92
744.86	2353.63
745.045	2294.24
745.23	2372.06
745.415	2247.13
745.6	2294.24
745.785	2296.28
745.97	2269.66
746.155	2257.37
746.34	2259.42
746.525	2314.72
746.71	2341.34
746.895	2210.27
747.079	2218.46
747.264	2197.98
747.449	2228.7
747.634	2163.17
747.819	2118.11
748.003	2179.55
748.188	2122.21
748.373	2191.84
748.557	2136.54
748.742	2136.54
748.927	2017.76
749.111	2079.2
749.296	2179.55
749.481	2058.72
749.665	2054.62
749.85	1989.09
750.034	1999.33
750.219	2079.2
750.404	1931.75
750.588	1894.88
750.773	1853.92
750.957	1991.14
751.141	1903.07
751.326	1958.37
751.51	1905.12
751.695	1974.75
751.879	1835.49
752.064	1935.84
752.248	1767.91
752.432	1958.37
752.617	1767.91
752.801	1831.4
752.985	1694.18
753.17	1804.77
753.354	1690.09
753.538	1722.85
753.722	1772
753.907	1763.81
754.091	1767.91
754.275	1706.47
754.459	1655.27
754.643	1792.48
754.828	1681.89
755.012	1602.02
755.196	1577.45
755.38	1626.6
755.564	1645.03
755.748	1610.22
755.932	1542.63
756.116	1618.41
756.3	1604.07
756.484	1577.45
756.668	1569.26
756.852	1427.95
757.036	1604.07
757.22	1470.95
757.404	1587.69
757.588	1429.99
757.772	1503.72
757.956	1532.39
758.14	1495.53
758.323	1391.08
758.507	1511.91
758.691	1415.66
758.875	1395.18
759.059	1403.37
759.242	1372.65
759.426	1446.38
759.61	1456.62
759.794	1495.53
759.977	1352.17
760.161	1374.7
760.345	1391.08
760.528	1393.13
760.712	1425.9
760.895	1425.9
761.079	1403.37
761.263	1372.65
761.446	1319.4
761.63	1268.2
761.813	1325.55
761.997	1290.73
762.18	1286.64
762.364	1255.92
762.547	1307.12
762.731	1221.1
762.914	1260.01
763.098	1309.16
763.281	1268.2
763.464	1194.48
763.648	1255.92
763.831	1200.62
764.015	1198.57
764.198	1276.4
764.381	1217.01
764.564	1264.11
764.748	1178.09
764.931	1184.24
765.114	1194.48
765.297	1243.63
765.481	1163.76
765.664	1143.28
765.847	1122.8
766.03	1208.81
766.213	1116.65
766.397	1192.43
766.58	1124.85
766.763	1167.85
766.946	1079.79
767.129	1126.89
767.312	1112.56
767.495	1108.46
767.678	1040.88
767.861	1092.08
768.044	1153.52
768.227	1108.46
768.41	1067.5
768.593	1116.65
768.776	1081.84
768.959	1151.47
769.142	1098.22
769.324	989.68
769.507	1012.21
769.69	1018.35
769.873	1030.64
770.056	1108.46
770.239	971.25
770.421	944.63
770.604	1022.45
770.787	1028.59
770.97	1018.35
771.152	1038.83
771.335	991.73
771.518	997.87
771.7	979.44
771.883	1030.64
772.066	973.3
772.248	909.81
772.431	1069.55
772.613	989.68
772.796	971.25
772.978	954.87
773.161	1026.54
773.343	907.76
773.526	911.86
773.708	971.25
773.891	885.23
774.073	911.86
774.256	928.24
774.438	944.63
774.621	793.08
774.803	985.58
774.985	864.75
775.168	870.9
775.35	786.93
775.532	866.8
775.715	834.04
775.897	813.56
776.079	838.13
776.261	784.88
776.444	791.03
776.626	813.56
776.808	766.45
776.99	831.99
777.173	827.89
777.355	752.12
777.537	829.94
777.719	731.64
777.901	739.83
778.083	705.01
778.265	707.06
778.447	774.64
778.629	774.64
778.811	655.86
778.993	684.53
779.175	731.64
779.357	688.63
779.539	684.53
779.721	752.12
779.903	717.3
780.085	676.34
780.267	686.58
780.449	686.58
780.631	700.92
780.812	674.29
780.994	690.68
781.176	655.86
781.358	684.53
781.54	733.68
781.721	649.72
781.903	737.78
782.085	571.9
782.267	606.71
782.448	621.05
782.63	637.43
782.812	559.61
782.993	551.42
783.175	686.58
783.357	551.42
783.538	643.57
783.72	633.33
783.901	645.62
784.083	537.08
784.264	631.29
784.446	510.46
784.627	510.46
784.809	492.02
784.99	514.55
785.172	567.8
785.353	518.65
785.535	547.32
785.716	545.27
785.897	586.23
786.079	539.13
786.26	506.36
786.441	483.83
786.623	520.7
786.804	516.6
786.985	522.74
787.167	528.89
787.348	512.5
787.529	520.7
787.71	537.08
787.891	539.13
788.073	438.78
788.254	422.39
788.435	451.07
788.616	475.64
788.797	371.19
788.978	506.36
789.159	428.54
789.34	418.3
789.522	467.45
789.703	340.47
789.884	426.49
790.065	504.31
790.246	416.25
790.427	471.54
790.607	465.4
790.788	465.4
790.969	377.34
791.15	363
791.331	369.15
791.512	428.54
791.693	397.82
791.874	420.35
792.054	442.87
792.235	414.2
792.416	350.71
792.597	389.63
792.778	406.01
792.958	338.43
793.139	248.32
793.32	326.14
793.5	381.43
793.681	416.25
793.862	358.91
794.042	399.87
794.223	328.19
794.404	356.86
794.584	315.9
794.765	379.39
794.945	320
795.126	317.95
795.306	385.53
795.487	330.23
795.667	225.79
795.848	346.62
796.028	346.62
796.209	397.82
796.389	332.28
796.57	309.76
796.75	281.08
796.93	336.38
797.111	256.51
797.291	258.56
797.471	350.71
797.652	342.52
797.832	322.04
798.012	391.67
798.192	221.69
798.373	276.99
798.553	244.22
798.733	293.37
798.913	242.17
799.093	297.47
799.274	324.09
799.454	295.42
799.634	285.18
799.814	301.56
799.994	317.95
800.174	274.94
800.354	287.23
800.534	256.51
800.714	360.95
800.894	385.53
801.074	340.47
801.254	238.08
801.434	293.37
801.614	305.66
801.794	276.99
801.974	774.64
802.154	246.27
802.334	246.27
802.514	301.56
802.693	279.04
802.873	238.08
803.053	274.94
803.233	256.51
803.413	250.36
803.592	303.61
803.772	274.94
803.952	274.94
804.131	244.22
804.311	262.65
804.491	283.13
804.67	188.93
804.85	164.35
805.03	272.89
805.209	225.79
805.389	199.16
805.568	301.56
805.748	166.4
805.928	221.69
806.107	193.02
806.287	281.08
806.466	320
806.646	205.31
806.825	207.36
807.004	176.64
807.184	203.26
807.363	236.03
807.543	238.08
807.722	186.88
807.901	268.8
808.081	301.56
808.26	145.92
808.439	154.11
808.619	268.8
808.798	178.69
808.977	188.93
809.156	199.16
809.336	197.12
809.515	221.69
809.694	178.69
809.873	213.5
810.052	178.69
810.231	227.84
810.411	227.84
810.59	172.54
810.769	219.64
810.948	195.07
811.127	133.63
811.306	137.73
811.485	147.97
811.664	274.94
811.843	178.69
812.022	160.25
812.201	246.27
812.38	182.78
812.559	186.88
812.737	238.08
812.916	80.38
813.095	205.31
813.274	240.12
813.453	203.26
813.632	135.68
813.811	190.97
813.989	150.01
814.168	162.3
814.347	174.59
814.526	160.25
814.704	129.53
814.883	233.98
815.062	143.87
815.24	160.25
815.419	86.53
815.598	143.87
815.776	119.29
815.955	156.16
816.133	123.39
816.312	199.16
816.49	152.06
816.669	176.64
816.847	174.59
817.026	223.74
817.204	215.55
817.383	158.21
817.561	10.75
817.74	184.83
817.918	107.01
818.097	150.01
818.275	139.77
818.453	260.6
818.632	102.91
818.81	156.16
818.988	121.34
819.167	141.82
819.345	109.05
819.523	154.11
819.701	123.39
819.879	182.78
820.058	127.49
820.236	137.73
820.414	168.45
820.592	150.01
820.77	96.77
820.948	131.58
821.127	41.47
821.305	174.59
821.483	131.58
821.661	186.88
821.839	125.44
822.017	150.01
822.195	240.12
822.373	141.82
822.551	150.01
822.729	186.88
822.907	170.49
823.085	178.69
823.262	156.16
823.44	188.93
823.618	31.23
823.796	133.63
823.974	137.73
824.152	143.87
824.329	131.58
824.507	121.34
824.685	61.95
824.863	170.49
825.04	86.53
825.218	209.4
825.396	104.96
825.574	184.83
825.751	115.2
825.929	33.28
826.107	150.01
826.284	78.33
826.462	131.58
826.639	123.39
826.817	104.96
826.994	117.25
827.172	47.62
827.349	92.67
827.527	117.25
827.704	117.25
827.882	92.67
828.059	92.67
828.237	68.09
828.414	117.25
828.591	39.42
828.769	215.55
828.946	121.34
829.124	49.66
829.301	123.39
829.478	64
829.655	98.81
829.833	143.87
830.01	57.86
830.187	145.92
830.364	61.95
830.542	78.33
830.719	66.05
830.896	119.29
831.073	76.29
831.25	72.19
831.427	113.15
831.604	115.2
831.782	4.61
831.959	137.73
832.136	107.01
832.313	90.62
832.49	96.77
832.667	86.53
832.844	98.81
833.021	74.24
833.198	18.94
833.374	188.93
833.551	109.05
833.728	102.91
833.905	82.43
834.082	25.09
834.259	102.91
834.436	139.77
834.612	10.75
834.789	94.72
834.966	20.99
835.143	98.81
835.319	55.81
835.496	70.14
835.673	109.05
835.85	109.05
836.026	94.72
836.203	70.14
836.38	74.24
836.556	92.67
836.733	53.76
836.909	127.49
837.086	100.86
837.262	66.05
837.439	100.86
837.616	94.72
837.792	18.94
837.968	64
838.145	8.7
838.321	66.05
838.498	43.52
838.674	70.14
838.851	61.95
839.027	90.62
839.203	82.43
839.38	82.43
839.556	76.29
839.732	82.43
839.909	4.61
840.085	178.69
840.261	70.14
840.437	39.42
840.614	47.62
840.79	86.53
840.966	6.66
841.142	37.38
841.318	68.09
841.494	80.38
841.671	64
841.847	86.53
842.023	47.62
842.199	152.06
842.375	49.66
842.551	86.53
842.727	-7.68
842.903	127.49
843.079	2.56
843.255	131.58
843.431	43.52
843.607	23.04
843.783	10.75
843.959	96.77
844.134	84.48
844.31	125.44
844.486	53.76
844.662	31.23
844.838	14.85
845.013	96.77
845.189	113.15
845.365	29.18
845.541	55.81
845.716	86.53
845.892	80.38
846.068	119.29
846.244	29.18
846.419	-26.11
846.595	84.48
846.77	37.38
846.946	35.33
847.122	29.18
847.297	131.58
847.473	-3.58
847.648	76.29
847.824	45.57
847.999	123.39
848.175	86.53
848.35	47.62
848.526	39.42
848.701	70.14
848.876	2.56
849.052	-13.82
849.227	35.33
849.403	66.05
849.578	45.57
849.753	109.05
849.929	133.63
850.104	-42.5
850.279	20.99
850.454	23.04
850.63	68.09
850.805	57.86
850.98	51.71
851.155	-9.73
851.33	41.47
851.505	6.66
851.681	66.05
851.856	41.47
852.031	74.24
852.206	45.57
852.381	41.47
852.556	-34.3
852.731	16.9
852.906	51.71
853.081	-15.87
853.256	82.43
853.431	66.05
853.606	66.05
853.781	39.42
853.956	23.04
854.131	14.85
854.305	-3.58
854.48	10.75
854.655	61.95
854.83	10.75
855.005	31.23
855.18	-30.21
855.354	51.71
855.529	20.99
855.704	2.56
855.879	-17.92
856.053	0.51
856.228	82.43
856.403	59.9
856.577	18.94
856.752	27.14
856.926	45.57
857.101	61.95
857.276	-13.82
857.45	18.94
857.625	43.52
857.799	35.33
857.974	72.19
858.148	35.33
858.323	-5.63
858.497	2.56
858.672	31.23
858.846	51.71
859.02	41.47
859.195	-15.87
859.369	-5.63
859.543	57.86
859.718	20.99
859.892	49.66
860.066	49.66
860.241	6.66
860.415	66.05
860.589	20.99
860.763	57.86
860.938	64
861.112	25.09
861.286	20.99
861.46	51.71
861.634	57.86
861.808	80.38
861.982	-40.45
862.157	125.44
862.331	-3.58
862.505	-7.68
862.679	-15.87
862.853	20.99
863.027	8.7
863.201	90.62
863.375	-71.17
863.549	8.7
863.722	12.8
863.896	119.29
864.07	-19.97
864.244	-22.02
864.418	12.8
864.592	82.43
864.766	43.52
864.939	45.57
865.113	-1.54
865.287	-1.54
865.461	-11.78
865.634	64
865.808	68.09
865.982	27.14
866.156	35.33
866.329	31.23
866.503	8.7
866.676	25.09
866.85	51.71
867.024	88.57
867.197	-32.26
867.371	-11.78
867.544	39.42
867.718	4.61
867.891	14.85
868.065	39.42
868.238	64
868.412	16.9
868.585	10.75
868.759	55.81
868.932	8.7
869.105	66.05
869.279	-11.78
869.452	-34.3
869.625	37.38
869.799	61.95
869.972	18.94
870.145	-19.97
870.319	45.57
870.492	14.85
870.665	80.38
870.838	12.8
871.011	14.85
871.185	20.99
871.358	-36.35
871.531	74.24
871.704	27.14
871.877	107.01
872.05	43.52
872.223	6.66
872.396	10.75
872.569	-36.35
872.742	-24.06
872.915	20.99
873.088	8.7
873.261	-15.87
873.434	25.09
873.607	27.14
873.78	41.47
873.953	107.01
874.126	-5.63
874.299	68.09
874.471	-54.78
874.644	8.7
874.817	68.09
874.99	18.94
875.163	94.72
875.335	18.94
875.508	16.9
875.681	45.57
875.853	-38.4
876.026	-22.02
876.199	-32.26
876.371	-28.16
876.544	-5.63
876.717	29.18
876.889	27.14
877.062	43.52
877.234	20.99
877.407	6.66
877.579	23.04
877.752	57.86
877.924	31.23
878.097	47.62
878.269	8.7
878.442	43.52
878.614	-19.97
878.786	-19.97
878.959	59.9
879.131	8.7
879.303	-13.82
879.476	-7.68
879.648	-17.92
879.82	-65.02
879.993	-5.63
880.165	6.66
880.337	-3.58
880.509	-17.92
880.681	-44.54
880.854	20.99
881.026	25.09
881.198	88.57
881.37	-1.54
881.542	10.75
881.714	23.04
881.886	-11.78
882.058	-24.06
882.23	-9.73
882.402	20.99
882.574	-1.54
882.746	70.14
882.918	35.33
883.09	-28.16
883.262	-1.54
883.434	-13.82
883.606	27.14
883.778	43.52
883.95	39.42
884.122	10.75
884.293	74.24
884.465	51.71
884.637	-36.35
884.809	-77.31
884.98	-5.63
885.152	16.9
885.324	16.9
885.496	4.61
885.667	-56.83
885.839	43.52
886.011	55.81
886.182	2.56
886.354	55.81
886.525	53.76
886.697	-40.45
886.869	14.85
887.04	4.61
887.212	-26.11
887.383	8.7
887.555	-32.26
887.726	-22.02
887.897	8.7
888.069	-1.54
888.24	39.42
888.412	55.81
888.583	49.66
888.754	0.51
888.926	10.75
889.097	25.09
889.268	33.28
889.44	20.99
889.611	-9.73
889.782	8.7
889.953	8.7
890.125	-34.3
890.296	-9.73
890.467	49.66
890.638	-52.74
890.809	29.18
890.98	18.94
891.151	55.81
891.323	25.09
891.494	-42.5
891.665	16.9
891.836	-17.92
892.007	-17.92
892.178	-5.63
892.349	-36.35
892.52	14.85
892.691	14.85
892.862	27.14
893.032	-40.45
893.203	10.75
893.374	-9.73
893.545	41.47
893.716	-13.82
893.887	14.85
894.057	-22.02
894.228	35.33
894.399	-34.3
894.57	76.29
894.74	23.04
894.911	10.75
895.082	-40.45
895.253	6.66
895.423	2.56
895.594	39.42
895.764	-46.59
895.935	0.51
896.106	-1.54
896.276	-34.3
896.447	-30.21
896.617	33.28
896.788	18.94
896.958	-7.68
897.129	53.76
897.299	-28.16
897.47	78.33
897.64	31.23
897.81	-1.54
897.981	2.56
898.151	-50.69
898.322	-38.4
898.492	76.29
898.662	47.62
898.832	-50.69
899.003	-9.73
899.173	-34.3
899.343	-40.45
899.513	61.95
