Data from USB4F104151__73__11-52-40-501.txt Node

Date: Fri Mar 14 11:52:40 EDT 2025
User: louis
Spectrometer: USB4F10415
Trigger mode: 4
Integration Time (sec): 2.000000E-2
Scans to average: 1
Electric dark correction enabled: true
Nonlinearity correction enabled: false
Boxcar width: 0
XAxis mode: Wavelengths
Number of Pixels in Spectrum: 3648
>>>>>Begin Spectral Data<<<<<
178.204	-17.07
178.424	-17.07
178.644	-17.07
178.864	-86.7
179.084	-76.46
179.304	13.65
179.524	32.08
179.744	-6.83
179.964	42.32
180.184	-60.07
180.404	32.08
180.624	-39.59
180.844	-0.68
181.064	27.99
181.283	27.99
181.503	-82.6
181.723	13.65
181.943	11.61
182.163	58.71
182.383	-17.07
182.602	32.08
182.822	71
183.042	34.13
183.262	-19.11
183.482	-31.4
183.701	15.7
183.921	32.08
184.141	5.46
184.361	5.46
184.58	30.04
184.8	5.46
185.02	-51.88
185.239	46.42
185.459	46.42
185.679	34.13
185.898	-49.83
186.118	36.18
186.338	46.42
186.557	38.23
186.777	19.8
186.997	13.65
187.216	58.71
187.436	54.61
187.655	44.37
187.875	91.48
188.095	25.94
188.314	83.28
188.534	50.52
188.753	-10.92
188.973	36.18
189.192	-4.78
189.412	-6.83
189.631	-15.02
189.851	3.41
190.07	85.33
190.29	44.37
190.509	-10.92
190.729	30.04
190.948	34.13
191.168	114
191.387	75.09
191.607	7.51
191.826	60.76
192.045	71
192.265	-35.5
192.484	-39.59
192.704	-25.26
192.923	-10.92
193.142	-10.92
193.362	83.28
193.581	79.19
193.8	66.9
194.02	21.85
194.239	-2.73
194.458	-4.78
194.678	-19.11
194.897	40.28
195.116	7.51
195.335	46.42
195.555	34.13
195.774	68.95
195.993	54.61
196.212	17.75
196.432	-17.07
196.651	21.85
196.87	-23.21
197.089	52.56
197.308	-4.78
197.528	25.94
197.747	9.56
197.966	50.52
198.185	3.41
198.404	-33.45
198.623	9.56
198.842	38.23
199.062	66.9
199.281	-15.02
199.5	34.13
199.719	27.99
199.938	5.46
200.157	9.56
200.376	23.89
200.595	19.8
200.814	40.28
201.033	73.04
201.252	64.85
201.471	64.85
201.69	-19.11
201.909	-27.31
202.128	120.15
202.347	-19.11
202.566	1.37
202.785	83.28
203.004	-4.78
203.223	23.89
203.442	68.95
203.661	-49.83
203.879	44.37
204.098	-23.21
204.317	87.38
204.536	-60.07
204.755	5.46
204.974	77.14
205.193	-8.87
205.411	19.8
205.63	40.28
205.849	-8.87
206.068	64.85
206.287	58.71
206.505	60.76
206.724	97.62
206.943	1.37
207.162	75.09
207.381	36.18
207.599	-6.83
207.818	-43.69
208.037	1.37
208.255	81.24
208.474	97.62
208.693	17.75
208.911	-0.68
209.13	68.95
209.349	9.56
209.567	-27.31
209.786	97.62
210.005	77.14
210.223	95.57
210.442	38.23
210.661	-45.74
210.879	44.37
211.098	103.76
211.316	13.65
211.535	32.08
211.753	66.9
211.972	73.04
212.191	5.46
212.409	-41.64
212.628	75.09
212.846	-4.78
213.065	-4.78
213.283	-6.83
213.502	-4.78
213.72	-60.07
213.938	5.46
214.157	52.56
214.375	-2.73
214.594	-4.78
214.812	64.85
215.031	62.8
215.249	34.13
215.467	44.37
215.686	1.37
215.904	68.95
216.122	7.51
216.341	77.14
216.559	109.91
216.778	-45.74
216.996	138.58
217.214	68.95
217.432	-10.92
217.651	1.37
217.869	52.56
218.087	-37.55
218.306	48.47
218.524	15.7
218.742	5.46
218.96	48.47
219.179	44.37
219.397	3.41
219.615	64.85
219.833	93.52
220.051	-0.68
220.27	79.19
220.488	-8.87
220.706	103.76
220.924	89.43
221.142	-2.73
221.36	46.42
221.578	23.89
221.796	36.18
222.015	25.94
222.233	23.89
222.451	13.65
222.669	68.95
222.887	27.99
223.105	48.47
223.323	-49.83
223.541	-19.11
223.759	-12.97
223.977	52.56
224.195	91.48
224.413	71
224.631	-12.97
224.849	-25.26
225.067	21.85
225.285	5.46
225.503	44.37
225.721	85.33
225.939	122.2
226.157	3.41
226.375	40.28
226.592	60.76
226.81	73.04
227.028	54.61
227.246	58.71
227.464	-41.64
227.682	-80.55
227.9	97.62
228.117	58.71
228.335	25.94
228.553	34.13
228.771	46.42
228.989	-2.73
229.206	23.89
229.424	1.37
229.642	-35.5
229.86	9.56
230.077	7.51
230.295	-55.98
230.513	54.61
230.731	68.95
230.948	-4.78
231.166	66.9
231.384	7.51
231.601	66.9
231.819	-8.87
232.037	-31.4
232.254	7.51
232.472	60.76
232.689	46.42
232.907	-0.68
233.125	-37.55
233.342	-33.45
233.56	1.37
233.777	9.56
233.995	23.89
234.213	66.9
234.43	-10.92
234.648	7.51
234.865	-27.31
235.083	11.61
235.3	9.56
235.518	46.42
235.735	85.33
235.953	3.41
236.17	-53.93
236.388	27.99
236.605	34.13
236.822	58.71
237.04	71
237.257	48.47
237.475	-25.26
237.692	25.94
237.909	34.13
238.127	-19.11
238.344	46.42
238.562	-21.16
238.779	-0.68
238.996	-41.64
239.214	9.56
239.431	42.32
239.648	19.8
239.865	46.42
240.083	19.8
240.3	25.94
240.517	-25.26
240.735	87.38
240.952	-4.78
241.169	128.34
241.386	77.14
241.603	-23.21
241.821	-21.16
242.038	15.7
242.255	32.08
242.472	19.8
242.689	19.8
242.907	91.48
243.124	54.61
243.341	64.85
243.558	-10.92
243.775	25.94
243.992	13.65
244.209	42.32
244.426	34.13
244.643	-10.92
244.86	-15.02
245.078	32.08
245.295	36.18
245.512	-2.73
245.729	-6.83
245.946	25.94
246.163	42.32
246.38	30.04
246.597	-17.07
246.814	15.7
247.031	71
247.248	44.37
247.464	-2.73
247.681	79.19
247.898	83.28
248.115	27.99
248.332	-31.4
248.549	50.52
248.766	13.65
248.983	32.08
249.2	21.85
249.417	25.94
249.633	93.52
249.85	27.99
250.067	64.85
250.284	32.08
250.501	-62.12
250.717	36.18
250.934	-31.4
251.151	-29.35
251.368	54.61
251.585	7.51
251.801	-27.31
252.018	21.85
252.235	13.65
252.451	19.8
252.668	-15.02
252.885	9.56
253.102	44.37
253.318	50.52
253.535	-25.26
253.752	77.14
253.968	-49.83
254.185	-0.68
254.401	5.46
254.618	73.04
254.835	3.41
255.051	64.85
255.268	46.42
255.484	36.18
255.701	7.51
255.917	50.52
256.134	3.41
256.351	60.76
256.567	-2.73
256.784	77.14
257	38.23
257.217	54.61
257.433	32.08
257.65	68.95
257.866	-2.73
258.082	38.23
258.299	52.56
258.515	-10.92
258.732	-25.26
258.948	44.37
259.165	-21.16
259.381	7.51
259.597	50.52
259.814	52.56
260.03	-78.51
260.246	64.85
260.463	36.18
260.679	46.42
260.895	93.52
261.112	79.19
261.328	27.99
261.544	-27.31
261.761	50.52
261.977	-29.35
262.193	103.76
262.409	27.99
262.626	-12.97
262.842	42.32
263.058	58.71
263.274	79.19
263.49	50.52
263.707	34.13
263.923	93.52
264.139	46.42
264.355	-15.02
264.571	62.8
264.787	52.56
265.004	79.19
265.22	68.95
265.436	17.75
265.652	21.85
265.868	101.72
266.084	-31.4
266.3	50.52
266.516	42.32
266.732	-33.45
266.948	40.28
267.164	-41.64
267.38	27.99
267.596	-23.21
267.812	66.9
268.028	42.32
268.244	30.04
268.46	-0.68
268.676	-19.11
268.892	62.8
269.108	40.28
269.324	-10.92
269.54	34.13
269.756	25.94
269.972	30.04
270.188	32.08
270.403	-17.07
270.619	50.52
270.835	-23.21
271.051	13.65
271.267	1.37
271.483	27.99
271.698	-21.16
271.914	58.71
272.13	32.08
272.346	34.13
272.562	99.67
272.777	42.32
272.993	68.95
273.209	1.37
273.425	13.65
273.64	-2.73
273.856	34.13
274.072	-0.68
274.287	-17.07
274.503	7.51
274.719	99.67
274.934	54.61
275.15	42.32
275.366	19.8
275.581	64.85
275.797	-8.87
276.012	30.04
276.228	52.56
276.444	25.94
276.659	-12.97
276.875	-4.78
277.09	-41.64
277.306	-37.55
277.521	-8.87
277.737	48.47
277.952	-12.97
278.168	7.51
278.383	42.32
278.599	66.9
278.814	-27.31
279.03	44.37
279.245	-10.92
279.461	30.04
279.676	40.28
279.892	17.75
280.107	52.56
280.322	-19.11
280.538	116.05
280.753	27.99
280.969	36.18
281.184	66.9
281.399	79.19
281.615	3.41
281.83	50.52
282.045	-23.21
282.26	40.28
282.476	5.46
282.691	21.85
282.906	5.46
283.122	64.85
283.337	48.47
283.552	44.37
283.767	-17.07
283.983	7.51
284.198	44.37
284.413	62.8
284.628	-21.16
284.843	17.75
285.058	44.37
285.274	34.13
285.489	3.41
285.704	79.19
285.919	-31.4
286.134	64.85
286.349	58.71
286.564	-19.11
286.779	56.66
286.995	89.43
287.21	-19.11
287.425	19.8
287.64	38.23
287.855	-15.02
288.07	-39.59
288.285	11.61
288.5	13.65
288.715	1.37
288.93	5.46
289.145	79.19
289.36	128.34
289.575	23.89
289.79	83.28
290.004	25.94
290.219	34.13
290.434	30.04
290.649	-43.69
290.864	56.66
291.079	-15.02
291.294	40.28
291.509	34.13
291.724	30.04
291.938	23.89
292.153	3.41
292.368	-0.68
292.583	-6.83
292.798	60.76
293.012	9.56
293.227	11.61
293.442	-8.87
293.657	48.47
293.871	64.85
294.086	75.09
294.301	48.47
294.516	-6.83
294.73	-12.97
294.945	5.46
295.16	111.96
295.374	99.67
295.589	101.72
295.804	52.56
296.018	40.28
296.233	-31.4
296.447	25.94
296.662	21.85
296.877	30.04
297.091	-4.78
297.306	50.52
297.52	-37.55
297.735	73.04
297.949	30.04
298.164	44.37
298.378	-8.87
298.593	-96.94
298.807	40.28
299.022	-8.87
299.236	25.94
299.451	21.85
299.665	32.08
299.88	79.19
300.094	27.99
300.309	1.37
300.523	79.19
300.737	-15.02
300.952	-2.73
301.166	25.94
301.381	48.47
301.595	44.37
301.809	36.18
302.024	-33.45
302.238	17.75
302.452	38.23
302.667	3.41
302.881	23.89
303.095	7.51
303.309	34.13
303.524	19.8
303.738	23.89
303.952	-76.46
304.166	71
304.381	3.41
304.595	7.51
304.809	52.56
305.023	52.56
305.237	-0.68
305.452	-4.78
305.666	56.66
305.88	23.89
306.094	-45.74
306.308	89.43
306.522	62.8
306.736	91.48
306.95	-6.83
307.164	34.13
307.379	19.8
307.593	38.23
307.807	52.56
308.021	73.04
308.235	56.66
308.449	-33.45
308.663	126.29
308.877	128.34
309.091	42.32
309.305	-37.55
309.519	-35.5
309.733	30.04
309.947	-17.07
310.161	73.04
310.374	66.9
310.588	17.75
310.802	52.56
311.016	44.37
311.23	3.41
311.444	9.56
311.658	-45.74
311.872	50.52
312.085	40.28
312.299	91.48
312.513	19.8
312.727	25.94
312.941	1.37
313.154	95.57
313.368	32.08
313.582	-49.83
313.796	54.61
314.009	109.91
314.223	5.46
314.437	23.89
314.651	40.28
314.864	38.23
315.078	-21.16
315.292	-4.78
315.505	-19.11
315.719	36.18
315.933	-45.74
316.146	27.99
316.36	-12.97
316.573	38.23
316.787	44.37
317.001	56.66
317.214	54.61
317.428	79.19
317.641	-15.02
317.855	36.18
318.068	140.63
318.282	-12.97
318.495	79.19
318.709	-70.31
318.922	23.89
319.136	46.42
319.349	50.52
319.563	-15.02
319.776	38.23
319.99	-45.74
320.203	1.37
320.417	-39.59
320.63	73.04
320.843	42.32
321.057	50.52
321.27	89.43
321.483	34.13
321.697	17.75
321.91	11.61
322.124	79.19
322.337	60.76
322.55	-17.07
322.763	34.13
322.977	25.94
323.19	3.41
323.403	40.28
323.617	15.7
323.83	-27.31
324.043	73.04
324.256	-10.92
324.469	48.47
324.683	34.13
324.896	44.37
325.109	-29.35
325.322	27.99
325.535	1.37
325.748	-2.73
325.962	46.42
326.175	9.56
326.388	13.65
326.601	54.61
326.814	85.33
327.027	23.89
327.24	99.67
327.453	-27.31
327.666	-2.73
327.879	56.66
328.092	30.04
328.305	-4.78
328.518	-2.73
328.731	52.56
328.944	15.7
329.157	36.18
329.37	62.8
329.583	58.71
329.796	107.86
330.009	-23.21
330.222	34.13
330.435	107.86
330.648	25.94
330.861	-2.73
331.073	101.72
331.286	40.28
331.499	23.89
331.712	-45.74
331.925	50.52
332.138	60.76
332.35	11.61
332.563	-25.26
332.776	71
332.989	7.51
333.202	66.9
333.414	-23.21
333.627	85.33
333.84	42.32
334.053	27.99
334.265	17.75
334.478	23.89
334.691	7.51
334.903	42.32
335.116	73.04
335.329	97.62
335.541	5.46
335.754	23.89
335.966	-17.07
336.179	54.61
336.392	73.04
336.604	73.04
336.817	-15.02
337.029	40.28
337.242	21.85
337.454	23.89
337.667	-19.11
337.88	83.28
338.092	50.52
338.305	15.7
338.517	21.85
338.729	25.94
338.942	42.32
339.154	32.08
339.367	52.56
339.579	19.8
339.792	-29.35
340.004	30.04
340.217	66.9
340.429	13.65
340.641	64.85
340.854	17.75
341.066	23.89
341.278	36.18
341.491	111.96
341.703	17.75
341.915	85.33
342.128	62.8
342.34	83.28
342.552	54.61
342.764	13.65
342.977	32.08
343.189	21.85
343.401	38.23
343.613	-55.98
343.826	21.85
344.038	77.14
344.25	-4.78
344.462	19.8
344.674	-12.97
344.886	15.7
345.099	103.76
345.311	-27.31
345.523	9.56
345.735	21.85
345.947	71
346.159	58.71
346.371	56.66
346.583	21.85
346.795	58.71
347.007	71
347.219	81.24
347.431	15.7
347.643	34.13
347.855	23.89
348.067	36.18
348.279	73.04
348.491	111.96
348.703	38.23
348.915	23.89
349.127	40.28
349.339	89.43
349.551	48.47
349.763	58.71
349.975	3.41
350.187	75.09
350.399	118.1
350.61	99.67
350.822	7.51
351.034	42.32
351.246	46.42
351.458	73.04
351.669	-12.97
351.881	15.7
352.093	54.61
352.305	27.99
352.517	71
352.728	23.89
352.94	36.18
353.152	58.71
353.363	75.09
353.575	32.08
353.787	58.71
353.999	58.71
354.21	48.47
354.422	38.23
354.633	-49.83
354.845	48.47
355.057	-2.73
355.268	111.96
355.48	23.89
355.692	-62.12
355.903	30.04
356.115	13.65
356.326	23.89
356.538	44.37
356.749	-15.02
356.961	44.37
357.172	75.09
357.384	-37.55
357.595	48.47
357.807	-8.87
358.018	-49.83
358.23	27.99
358.441	93.52
358.653	30.04
358.864	38.23
359.075	9.56
359.287	27.99
359.498	54.61
359.709	32.08
359.921	99.67
360.132	1.37
360.344	-4.78
360.555	17.75
360.766	48.47
360.977	48.47
361.189	77.14
361.4	-58.03
361.611	56.66
361.823	48.47
362.034	81.24
362.245	38.23
362.456	44.37
362.667	58.71
362.879	58.71
363.09	81.24
363.301	126.29
363.512	48.47
363.723	46.42
363.935	30.04
364.146	109.91
364.357	-29.35
364.568	36.18
364.779	-31.4
364.99	40.28
365.201	-4.78
365.412	58.71
365.623	1.37
365.834	109.91
366.045	75.09
366.256	58.71
366.467	38.23
366.678	101.72
366.889	-66.22
367.1	50.52
367.311	48.47
367.522	7.51
367.733	-0.68
367.944	7.51
368.155	5.46
368.366	116.05
368.577	32.08
368.788	44.37
368.999	60.76
369.209	81.24
369.42	81.24
369.631	114
369.842	21.85
370.053	11.61
370.264	-74.41
370.474	38.23
370.685	87.38
370.896	30.04
371.107	103.76
371.317	85.33
371.528	73.04
371.739	32.08
371.95	40.28
372.16	62.8
372.371	27.99
372.582	7.51
372.792	-88.75
373.003	54.61
373.214	-17.07
373.424	73.04
373.635	-21.16
373.846	107.86
374.056	1.37
374.267	42.32
374.477	58.71
374.688	38.23
374.898	77.14
375.109	36.18
375.319	30.04
375.53	34.13
375.74	9.56
375.951	-17.07
376.161	87.38
376.372	103.76
376.582	3.41
376.793	21.85
377.003	48.47
377.214	-47.79
377.424	9.56
377.635	130.39
377.845	13.65
378.055	93.52
378.266	38.23
378.476	71
378.686	54.61
378.897	38.23
379.107	46.42
379.317	73.04
379.528	50.52
379.738	56.66
379.948	48.47
380.158	79.19
380.369	27.99
380.579	-27.31
380.789	40.28
380.999	17.75
381.21	58.71
381.42	42.32
381.63	-35.5
381.84	71
382.05	44.37
382.261	5.46
382.471	25.94
382.681	126.29
382.891	79.19
383.101	68.95
383.311	-6.83
383.521	-15.02
383.731	58.71
383.941	54.61
384.151	101.72
384.361	68.95
384.571	5.46
384.781	-4.78
384.991	85.33
385.201	122.2
385.411	11.61
385.621	21.85
385.831	-8.87
386.041	56.66
386.251	32.08
386.461	7.51
386.671	-10.92
386.881	34.13
387.091	19.8
387.301	42.32
387.511	36.18
387.72	68.95
387.93	56.66
388.14	21.85
388.35	38.23
388.56	21.85
388.769	46.42
388.979	40.28
389.189	25.94
389.399	87.38
389.609	7.51
389.818	-35.5
390.028	62.8
390.238	5.46
390.447	32.08
390.657	85.33
390.867	50.52
391.076	68.95
391.286	36.18
391.496	111.96
391.705	-2.73
391.915	52.56
392.125	-8.87
392.334	71
392.544	87.38
392.753	21.85
392.963	1.37
393.172	66.9
393.382	30.04
393.591	23.89
393.801	107.86
394.01	116.05
394.22	93.52
394.429	42.32
394.639	15.7
394.848	58.71
395.058	75.09
395.267	13.65
395.477	42.32
395.686	-8.87
395.895	11.61
396.105	122.2
396.314	50.52
396.524	36.18
396.733	81.24
396.942	138.58
397.152	79.19
397.361	114
397.57	60.76
397.78	60.76
397.989	146.77
398.198	95.57
398.407	83.28
398.617	107.86
398.826	81.24
399.035	99.67
399.244	120.15
399.453	148.82
399.663	56.66
399.872	109.91
400.081	99.67
400.29	148.82
400.499	99.67
400.708	75.09
400.917	52.56
401.127	34.13
401.336	103.76
401.545	107.86
401.754	116.05
401.963	44.37
402.172	54.61
402.381	89.43
402.59	42.32
402.799	44.37
403.008	118.1
403.217	99.67
403.426	99.67
403.635	64.85
403.844	81.24
404.053	91.48
404.262	-2.73
404.471	105.81
404.68	107.86
404.888	161.11
405.097	97.62
405.306	114
405.515	99.67
405.724	134.48
405.933	71
406.142	91.48
406.35	142.68
406.559	175.44
406.768	93.52
406.977	181.59
407.185	109.91
407.394	161.11
407.603	116.05
407.812	204.11
408.02	185.68
408.229	136.53
408.438	73.04
408.646	144.72
408.855	75.09
409.064	159.06
409.272	148.82
409.481	152.92
409.69	157.01
409.898	126.29
410.107	218.45
410.315	234.83
410.524	152.92
410.733	275.79
410.941	152.92
411.15	243.03
411.358	257.36
411.567	216.4
411.775	240.98
411.984	271.7
412.192	216.4
412.401	245.07
412.609	269.65
412.818	288.08
413.026	253.27
413.234	218.45
413.443	318.8
413.651	267.6
413.86	370
414.068	308.56
414.276	388.43
414.485	400.72
414.693	355.66
414.901	351.57
415.11	359.76
415.318	421.2
415.526	468.3
415.734	441.68
415.943	531.79
416.151	492.88
416.359	480.59
416.567	468.3
416.776	607.56
416.984	529.74
417.192	617.8
417.4	580.94
417.608	636.24
417.817	621.9
418.025	652.62
418.233	662.86
418.441	644.43
418.649	675.15
418.857	707.91
419.065	781.64
419.273	845.13
419.481	830.79
419.689	824.65
419.897	927.05
420.105	937.29
420.313	937.29
420.521	892.23
420.729	949.57
420.937	1047.88
421.145	1015.11
421.353	1111.36
421.561	1191.24
421.769	1133.89
421.977	1230.15
422.185	1271.11
422.393	1303.87
422.601	1377.6
422.809	1334.59
423.017	1295.68
423.224	1422.66
423.432	1441.09
423.64	1441.09
423.848	1621.31
424.056	1535.29
424.263	1695.04
424.471	1715.52
424.679	1729.85
424.887	1908.02
425.094	1910.07
425.302	1858.87
425.51	1887.54
425.718	1983.8
425.925	2090.29
426.133	2059.57
426.341	2250.03
426.548	2278.71
426.756	2327.86
426.964	2293.04
427.171	2403.63
427.379	2405.68
427.586	2555.18
427.794	2723.12
428.001	2759.98
428.209	2835.75
428.417	2856.23
428.624	3073.32
428.832	3083.56
429.039	2968.87
429.247	3054.89
429.454	3497.25
429.662	3470.62
429.869	3386.66
430.076	3466.53
430.284	3421.47
430.491	3734.81
430.699	3857.69
430.906	3777.82
431.114	3872.03
431.321	3978.52
431.528	4072.73
431.736	4398.35
431.943	4568.34
432.15	4373.78
432.358	4379.92
432.565	4594.96
432.772	4654.35
432.979	4949.26
433.187	5006.6
433.394	5065.99
433.601	5305.6
433.808	5342.47
434.016	5416.19
434.223	5539.07
434.43	5854.46
434.637	5647.62
434.844	6192.37
435.052	6384.88
435.259	6262.01
435.466	6388.98
435.673	6231.29
435.88	6540.53
436.087	6880.49
436.294	6954.22
436.501	6984.94
436.708	7044.33
436.915	7312.61
437.122	7689.44
437.329	7453.92
437.537	7843.04
437.743	7853.28
437.95	7775.45
438.157	8260.82
438.364	8352.98
438.571	8490.2
438.778	8580.31
438.985	9491.65
439.192	9090.25
439.399	9190.6
439.606	8981.71
439.813	9624.77
440.02	10179.77
440.227	10013.88
440.433	9804.99
440.64	10220.73
440.847	10030.27
441.054	10161.34
441.261	11091.12
441.467	11109.55
441.674	11148.46
441.881	11627.68
442.088	11574.44
442.294	11457.7
442.501	11812
442.708	11973.79
442.914	12358.81
443.121	13046.93
443.328	12545.17
443.534	13329.55
443.741	13071.5
443.948	12999.82
444.154	13792.39
444.361	13753.48
444.568	13751.43
444.774	14148.73
444.981	13945.98
445.187	14259.32
445.394	15137.9
445.6	14773.36
445.807	16389.21
446.013	15475.82
446.22	15842.4
446.426	16708.69
446.633	16616.54
446.839	17140.82
447.046	16555.1
447.252	17398.86
447.459	17237.07
447.665	17470.54
447.871	17955.91
448.078	18897.97
448.284	17972.29
448.491	18631.74
448.697	19643.43
448.903	19586.09
449.11	19608.62
449.316	19520.56
449.522	19538.99
449.728	20503.58
449.935	20452.38
450.141	20390.94
450.347	21066.77
450.553	20196.39
450.76	20550.68
450.966	21308.43
451.172	20968.47
451.378	21316.62
451.584	21058.58
451.791	21359.63
451.997	21664.78
452.203	21898.25
452.409	22004.74
452.615	21758.99
452.821	20911.13
453.027	20773.91
453.233	21824.52
453.44	20714.52
453.646	21384.21
453.852	21443.6
454.058	21767.18
454.264	21109.78
454.47	21597.2
454.676	21068.82
454.882	21830.66
455.088	20040.74
455.294	20204.58
455.5	20491.29
455.705	20636.7
455.911	19864.61
456.117	19688.49
456.323	19276.85
456.529	18420.8
456.735	19100.72
456.941	18658.36
457.147	18185.28
457.352	17593.42
457.558	17390.67
457.764	17529.93
457.97	17245.26
458.176	16698.45
458.381	16981.07
458.587	16098.4
458.793	16196.7
458.999	15498.34
459.204	16333.92
459.41	15776.87
459.616	14812.28
459.821	15078.51
460.027	14775.41
460.233	14486.65
460.438	13397.13
460.644	13851.78
460.85	13341.83
461.055	13126.8
461.261	13120.65
461.466	12072.09
461.672	11680.93
461.878	12623
462.083	11691.17
462.289	11424.94
462.494	11353.26
462.7	10951.85
462.905	10538.16
463.111	10931.37
463.316	10894.51
463.522	10669.23
463.727	10835.12
463.932	10691.76
464.138	10609.84
464.343	10601.65
464.549	10357.94
464.754	10679.47
464.959	10532.02
465.165	10437.81
465.37	10081.47
465.575	9854.14
465.781	9993.4
465.986	10288.31
466.191	10067.13
466.397	9671.87
466.602	9198.79
466.807	9589.95
467.012	9637.06
467.218	9471.17
467.423	9247.94
467.628	9295.05
467.833	9815.23
468.038	9358.53
468.244	9297.1
468.449	9721.03
468.654	9284.81
468.859	9092.3
469.064	9053.39
469.269	8768.72
469.474	8717.52
469.679	9080.01
469.885	8725.71
470.09	8819.92
470.295	8842.45
470.5	8529.11
470.705	8729.81
470.91	8338.65
471.115	8543.44
471.32	8508.63
471.525	8330.45
471.73	8297.69
471.935	8350.93
472.139	7881.95
472.344	8109.27
472.549	8113.37
472.754	7974.11
472.959	7845.09
473.164	7638.24
473.369	7468.26
473.574	7929.05
473.778	7572.71
473.983	7650.53
474.188	7599.33
474.393	7300.33
474.598	7183.59
474.802	7285.99
475.007	7306.47
475.212	7195.88
475.417	7042.28
475.621	6921.45
475.826	6948.08
476.031	6937.84
476.235	6827.25
476.44	6853.87
476.645	6665.46
476.849	6698.22
477.054	6616.3
477.259	6364.4
477.463	6556.91
477.668	6212.85
477.872	6284.53
478.077	6311.16
478.282	6046.97
478.486	6100.22
478.691	6075.64
478.895	5948.67
479.1	5897.47
479.304	6104.31
479.509	5856.51
479.713	5821.69
479.918	5856.51
480.122	5588.22
480.326	5833.98
480.531	5819.64
480.735	5930.23
480.94	5580.03
481.144	5883.13
481.348	5655.81
481.553	5569.79
481.757	5432.58
481.961	5469.44
482.166	5678.33
482.37	5639.42
482.574	5541.12
482.778	5596.42
482.983	5801.21
483.187	5553.41
483.391	5573.89
483.595	5498.11
483.8	5371.14
484.004	5457.15
484.208	5616.9
484.412	5543.17
484.616	5506.31
484.821	5682.43
485.025	5510.4
485.229	5545.22
485.433	5541.12
485.637	5641.47
485.841	5664
486.045	5565.7
486.249	5596.42
486.453	5469.44
486.657	5637.38
486.861	5582.08
487.065	5418.24
487.269	5563.65
487.473	5313.8
487.677	5711.1
487.881	5584.13
488.085	5446.91
488.289	5573.89
488.493	5477.63
488.697	5504.26
488.901	5504.26
489.105	5631.23
489.309	5700.86
489.512	5618.94
489.716	5682.43
489.92	5637.38
490.124	5539.07
490.328	5563.65
490.531	5555.46
490.735	5653.76
490.939	5604.61
491.143	5571.84
491.346	5745.92
491.55	5838.08
491.754	5633.28
491.958	5721.34
492.161	5876.99
492.365	5872.89
492.569	5795.07
492.772	5948.67
492.976	5844.22
493.18	6046.97
493.383	6104.31
493.587	6120.7
493.79	6331.64
493.994	6046.97
494.197	6104.31
494.401	6120.7
494.605	6171.9
494.808	6169.85
495.012	6401.27
495.215	6325.49
495.419	6413.56
495.622	6399.22
495.825	6417.65
496.029	6341.88
496.232	6659.31
496.436	6659.31
496.639	6649.07
496.843	6614.26
497.046	6778.09
497.249	6866.16
497.453	6995.18
497.656	6913.26
497.859	6765.81
498.063	7048.43
498.266	7064.81
498.469	7101.67
498.673	7257.32
498.876	7445.73
499.079	7335.14
499.282	7449.83
499.485	7630.05
499.689	7709.92
499.892	7832.8
500.095	7562.47
500.298	7853.28
500.501	7959.77
500.705	8139.99
500.908	8058.07
501.111	8172.76
501.314	8346.84
501.517	8391.89
501.72	8568.02
501.923	8340.69
502.126	8756.43
502.329	8842.45
502.532	9006.28
502.735	8852.69
502.938	9077.96
503.141	9196.74
503.344	9387.21
503.547	9297.1
503.75	9403.59
503.953	9407.69
504.156	9549
504.359	9598.15
504.562	9759.94
504.765	10009.79
504.968	9977.02
505.17	10063.04
505.373	10226.87
505.576	10284.22
505.779	10458.29
505.982	10714.29
506.185	10738.87
506.387	10859.7
506.59	11015.34
506.793	10880.18
506.996	10845.36
507.198	11365.54
507.401	11154.6
507.604	11627.68
507.807	11646.12
508.009	11525.29
508.212	11797.67
508.415	12014.75
508.617	12049.57
508.82	12139.68
509.022	12106.91
509.225	12397.72
509.428	12539.03
509.63	12582.04
509.833	12653.72
510.035	12944.53
510.238	12756.11
510.44	13259.92
510.643	13376.65
510.845	13468.81
511.048	13333.64
511.25	13747.33
511.453	13698.18
511.655	14179.45
511.858	13917.31
512.06	14257.28
512.262	14357.63
512.465	14234.75
512.667	14474.36
512.87	14466.17
513.072	14738.55
513.274	14967.92
513.477	15195.25
513.679	15139.95
513.881	15328.36
514.084	15397.99
514.286	15457.39
514.488	15543.4
514.69	16065.63
514.893	16194.65
515.095	15920.23
515.297	16278.62
515.499	16327.77
515.701	16450.65
515.904	16684.12
516.106	16833.62
516.308	16876.63
516.51	17327.18
516.712	17054.8
516.914	17409.1
517.116	17843.27
517.318	17632.33
517.52	17906.76
517.722	18193.47
517.925	18383.93
518.127	18615.35
518.329	18515
518.531	18242.62
518.733	18916.4
518.935	19123.25
519.136	19149.87
519.338	19289.13
519.54	19754.02
519.742	19911.72
519.944	19692.58
520.146	19948.58
520.348	19864.61
520.55	20229.15
520.752	20159.52
520.954	20540.44
521.155	20423.71
521.357	20915.22
521.559	20986.9
521.761	21580.81
521.963	21232.66
522.164	21439.5
522.366	21568.52
522.568	21832.71
522.77	21705.74
522.971	22070.28
523.173	21701.64
523.375	22213.63
523.576	22191.11
523.778	22141.96
523.98	22598.65
524.181	22699
524.383	22848.5
524.584	23069.69
524.786	23167.99
524.988	23067.64
525.189	23344.11
525.391	23364.59
525.592	23618.54
525.794	23839.72
525.995	23712.75
526.197	23673.84
526.398	23929.83
526.6	24355.81
526.801	24200.16
527.003	24108.01
527.204	24196.07
527.406	24724.44
527.607	24210.4
527.808	24646.62
528.01	24161.25
528.211	24611.81
528.412	25002.97
528.614	24951.77
528.815	24878.04
529.016	25398.23
529.218	25283.54
529.419	25050.07
529.62	25156.57
529.822	25043.93
530.023	25646.03
530.224	25230.29
530.425	25318.35
530.626	25367.51
530.828	25242.58
531.029	25752.52
531.23	25668.56
531.431	25537.49
531.632	25701.33
531.833	25705.42
532.035	26031.05
532.236	25809.87
532.437	25992.14
532.638	25656.27
532.839	25994.18
533.04	25791.44
533.241	25711.56
533.442	26579.9
533.643	25818.06
533.844	26117.06
534.045	25945.03
534.246	26174.41
534.447	26139.59
534.648	26268.61
534.849	26375.11
535.05	25938.89
535.251	26065.86
535.451	26196.93
535.652	26250.18
535.853	26299.33
536.054	26325.96
536.255	26491.84
536.456	26129.35
536.657	26514.37
536.857	26106.82
537.058	26373.06
537.259	26555.33
537.46	26411.97
537.66	26158.02
537.861	26495.94
538.062	26135.49
538.263	26409.92
538.463	26463.17
538.664	26211.27
538.865	26577.86
539.065	26545.09
539.266	26155.97
539.466	26915.77
539.667	25932.75
539.868	26868.67
540.068	26330.05
540.269	26162.12
540.469	26592.19
540.67	26319.81
540.87	26313.67
541.071	26291.14
541.271	26528.7
541.472	26760.12
541.672	26170.31
541.873	26307.52
542.073	26172.36
542.274	26637.25
542.474	26346.44
542.675	26166.21
542.875	26643.39
543.075	26311.62
543.276	26172.36
543.476	26547.14
543.676	26751.93
543.877	26510.27
544.077	26459.07
544.277	26399.68
544.478	25988.04
544.678	26233.8
544.878	25920.46
545.078	26080.2
545.279	26121.16
545.479	26065.86
545.679	26338.24
545.879	26035.14
546.079	26180.55
546.28	26213.32
546.48	26061.77
546.68	26481.6
546.88	26096.58
547.08	26160.07
547.28	26149.83
547.48	25850.83
547.68	26395.59
547.88	25787.34
548.081	26258.37
548.281	25961.42
548.481	26121.16
548.681	26184.65
548.881	26063.82
549.081	25977.8
549.28	25906.12
549.48	26029
549.68	25918.41
549.88	26497.99
550.08	25961.42
550.28	26211.27
550.48	26360.77
550.68	26262.47
550.88	25783.24
551.08	25973.7
551.279	25781.2
551.479	26203.08
551.679	26354.63
551.879	25775.05
552.079	26092.49
552.278	25842.63
552.478	25963.47
552.678	26033.1
552.878	25887.69
553.077	26092.49
553.277	26069.96
553.477	26248.13
553.676	25701.33
553.876	26082.25
554.076	25715.66
554.275	25746.38
554.475	25492.43
554.674	25732.04
554.874	25656.27
555.074	25750.48
555.273	25883.59
555.473	26086.34
555.672	25496.53
555.872	25478.1
556.071	25773
556.271	25854.92
556.47	25365.46
556.67	25678.8
556.869	25598.93
557.068	25654.22
557.268	25281.49
557.467	25777.1
557.667	25430.99
557.866	25736.14
558.065	25482.19
558.265	25560.02
558.464	25453.52
558.663	25635.79
558.863	25134.04
559.062	25668.56
559.261	25275.35
559.461	25394.13
559.66	24945.62
559.859	25430.99
560.058	25115.61
560.258	25287.64
560.457	25072.6
560.656	25099.22
560.855	25179.09
561.054	25267.16
561.253	24521.7
561.453	24667.1
561.652	24974.3
561.851	25197.52
562.05	24882.14
562.249	24859.61
562.448	24779.74
562.647	24734.68
562.846	24490.98
563.045	24519.65
563.244	24581.09
563.443	24615.9
563.642	24470.5
563.841	24441.82
564.04	24462.3
564.239	24521.7
564.438	24024.04
564.637	24210.4
564.836	24310.75
565.035	23997.42
565.234	24046.57
565.432	23981.03
565.631	24075.24
565.83	24030.18
566.029	23929.83
566.228	24288.23
566.427	23581.68
566.625	23671.79
566.824	23415.79
567.023	23725.04
567.222	23305.2
567.42	23761.9
567.619	23366.64
567.818	23325.68
568.016	23364.59
568.215	23393.26
568.414	23487.47
568.612	23571.44
568.811	23374.83
569.01	23356.4
569.208	22821.88
569.407	23200.76
569.605	22758.39
569.804	23067.64
570.002	22772.73
570.201	22709.24
570.4	22721.53
570.598	22508.54
570.797	22563.84
570.995	22705.15
571.193	22246.4
571.392	22621.18
571.59	22180.87
571.789	22502.4
571.987	22404.1
572.186	22428.67
572.384	22221.83
572.582	22096.9
572.781	22139.91
572.979	21949.45
573.177	22244.35
573.376	21957.64
573.574	21459.98
573.772	22066.18
573.971	21488.65
574.169	21748.75
574.367	21627.92
574.565	21517.33
574.763	21507.09
574.962	21419.02
575.16	21068.82
575.358	21388.3
575.556	21095.44
575.754	21449.74
575.952	21066.77
576.151	21574.67
576.349	21103.64
576.547	20956.18
576.745	20931.61
576.943	20892.69
577.141	20614.17
577.339	20861.97
577.537	20839.45
577.735	20794.39
577.933	20739.1
578.131	20497.44
578.329	20528.16
578.527	20163.62
578.725	20417.57
578.923	20188.19
579.121	20012.07
579.319	20298.78
579.516	20302.88
579.714	20286.5
579.912	20216.86
580.11	20134.95
580.308	20354.08
580.506	20077.6
580.704	19747.88
580.901	19909.67
581.099	20005.92
581.297	19653.67
581.495	19598.38
581.692	19840.04
581.89	19375.15
582.088	19639.34
582.285	19450.92
582.483	19725.35
582.681	19428.4
582.878	19346.48
583.076	19135.54
583.274	19229.74
583.471	19086.39
583.669	19274.8
583.866	19127.35
584.064	19164.21
584.262	18940.98
584.459	19203.12
584.657	18758.71
584.854	18971.7
585.052	18986.04
585.249	18943.03
585.447	18857.01
585.644	18660.41
585.841	18707.51
586.039	19026.99
586.236	18431.04
586.434	18449.47
586.631	18261.05
586.828	18095.17
587.026	18304.06
587.223	18441.28
587.42	18086.98
587.618	18177.09
587.815	18285.63
588.012	17945.67
588.21	17865.8
588.407	18140.22
588.604	18140.22
588.801	17716.3
588.999	18003.01
589.196	17767.49
589.393	17947.72
589.59	17701.96
589.787	17681.48
589.984	17464.39
590.182	17331.28
590.379	17386.57
590.576	17230.93
590.773	17425.48
590.97	17032.27
591.167	17228.88
591.364	16964.69
591.561	17249.36
591.758	17108.05
591.955	17142.86
592.152	16958.55
592.349	16884.82
592.546	17009.75
592.743	16727.13
592.94	16682.07
593.137	17097.81
593.334	16759.89
593.531	16698.45
593.727	16800.85
593.924	16811.09
594.121	16608.34
594.318	16653.4
594.515	16249.95
594.712	16426.07
594.908	16313.44
595.105	16499.8
595.302	16366.68
595.499	16161.89
595.696	16000.1
595.892	16213.09
596.089	16221.28
596.286	15993.95
596.482	15803.49
596.679	15793.25
596.876	15895.65
597.072	15694.95
597.269	15885.41
597.466	15666.28
597.662	15723.62
597.859	15811.68
598.055	15647.85
598.252	15285.36
598.448	15502.44
598.645	15311.98
598.841	15299.69
599.038	15412.33
599.234	15297.64
599.431	15209.58
599.627	15047.79
599.824	15211.63
600.02	15115.37
600.217	15201.39
600.413	14998.64
600.609	15051.89
600.806	14814.32
601.002	14871.67
601.198	14818.42
601.395	14724.21
601.591	14726.26
601.787	14849.14
601.984	14537.85
602.18	14740.6
602.376	14693.49
602.572	14556.28
602.769	14736.5
602.965	14361.72
603.161	14437.5
603.357	14136.45
603.553	14300.28
603.75	14187.64
603.946	14042.24
604.142	14083.2
604.338	14056.57
604.534	14349.43
604.73	13651.08
604.926	13763.72
605.122	14034.05
605.318	14171.26
605.514	13853.83
605.71	13720.71
605.906	13773.96
606.102	13929.6
606.298	13917.31
606.494	13632.65
606.69	13853.83
606.886	13837.44
607.082	13501.58
607.278	13673.6
607.474	13427.85
607.67	13522.06
607.866	13358.22
608.062	13618.31
608.257	13272.2
608.453	13335.69
608.649	13606.02
608.845	13196.43
609.041	13370.51
609.236	13366.41
609.432	13132.94
609.628	13249.68
609.824	12991.63
610.019	13175.95
610.215	13120.65
610.411	13204.62
610.606	12895.38
610.802	12975.25
610.998	13057.17
611.193	13208.72
611.389	12815.51
611.584	12813.46
611.78	12897.42
611.976	12813.46
612.171	12625.04
612.367	12661.91
612.562	12840.08
612.758	12614.8
612.953	12797.07
613.149	12582.04
613.344	12489.88
613.539	12663.96
613.735	12711.06
613.93	12663.96
614.126	12555.41
614.321	12692.63
614.517	12489.88
614.712	12428.44
614.907	12387.48
615.103	12567.7
615.298	12180.64
615.493	12448.92
615.688	12225.69
615.884	12582.04
616.079	12168.35
616.274	12332.19
616.47	12176.54
616.665	12342.42
616.86	12117.15
617.055	12029.09
617.25	12008.61
617.445	12354.71
617.641	11977.89
617.836	12270.75
618.031	11981.98
618.226	12203.16
618.421	11857.06
618.616	11996.32
618.811	11797.67
619.006	11924.64
619.201	11783.33
619.396	11779.23
619.591	11656.36
619.786	11510.95
619.981	11424.94
620.176	11711.65
620.371	11441.32
620.566	11469.99
620.761	11396.26
620.956	11463.85
621.151	11103.4
621.346	11556.01
621.541	11203.75
621.735	11410.6
621.93	11011.25
622.125	11130.03
622.32	11009.2
622.515	11074.73
622.709	10925.23
622.904	10771.63
623.099	10876.08
623.294	10785.97
623.488	10757.3
623.683	10904.75
623.878	10532.02
624.072	10493.11
624.267	10374.33
624.462	10456.25
624.656	10589.36
624.851	10278.07
625.046	10208.44
625.24	10157.24
625.435	10212.54
625.629	10163.39
625.824	10116.28
626.018	9807.04
626.213	9956.54
626.407	9921.73
626.602	9712.83
626.796	9743.55
626.991	9669.83
627.185	9807.04
627.38	9718.98
627.574	9536.71
627.768	9714.88
627.963	9567.43
628.157	9219.27
628.352	9501.89
628.546	9137.35
628.74	9428.17
628.935	9106.63
629.129	9366.73
629.323	8983.76
629.517	9055.44
629.712	8910.03
629.906	9045.2
630.1	8805.58
630.294	8877.26
630.489	8785.1
630.683	8824.01
630.877	8977.61
631.071	8664.27
631.265	8699.09
631.459	8617.17
631.653	8574.16
631.848	8674.51
632.042	8416.47
632.236	8492.24
632.43	8264.92
632.624	8389.85
632.818	8289.49
633.012	8135.9
633.206	8248.54
633.4	8389.85
633.594	8244.44
633.788	8250.58
633.982	8070.36
634.176	8189.14
634.369	7795.93
634.563	8074.46
634.757	7937.24
634.951	7949.53
635.145	7916.76
635.339	7892.19
635.533	7570.66
635.726	7650.53
635.92	7453.92
636.114	7845.09
636.308	7425.25
636.501	7464.16
636.695	7623.9
636.889	7363.81
637.083	7458.02
637.276	7275.75
637.47	7402.72
637.664	7281.89
637.857	7496.93
638.051	7210.22
638.244	7185.64
638.438	7163.11
638.632	7060.71
638.825	7161.06
639.019	7185.64
639.212	7077.1
639.406	7021.8
639.599	6950.12
639.793	6796.53
639.986	6855.92
640.18	6833.39
640.373	6923.5
640.567	6644.98
640.76	6851.82
640.954	6792.43
641.147	6583.54
641.34	6530.29
641.534	6575.35
641.727	6642.93
641.92	6624.5
642.114	6497.52
642.307	6530.29
642.5	6450.42
642.694	6372.6
642.887	6315.25
643.08	6208.76
643.273	6450.42
643.467	6194.42
643.66	6151.42
643.853	6307.06
644.046	5999.87
644.239	6069.5
644.432	6245.62
644.626	5928.19
644.819	5952.76
645.012	6028.54
645.205	5940.47
645.398	5879.04
645.591	5977.34
645.784	5979.39
645.977	5633.28
646.17	5784.83
646.363	5735.68
646.556	5686.53
646.749	5557.5
646.942	5725.44
647.135	5737.73
647.328	5475.59
647.521	5817.6
647.714	5577.98
647.907	5553.41
648.099	5485.83
648.292	5539.07
648.485	5557.5
648.678	5301.51
648.871	5436.67
649.064	5371.14
649.256	5350.66
649.449	5260.55
649.642	5168.39
649.835	5186.82
650.027	5381.38
650.22	5074.18
650.413	5203.21
650.605	5102.86
650.798	5096.71
650.991	5168.39
651.183	4973.83
651.376	5016.84
651.568	5147.91
651.761	4945.16
651.954	4879.63
652.146	4939.02
652.339	5041.42
652.531	4873.48
652.724	4939.02
652.916	4803.85
653.109	4803.85
653.301	4783.37
653.494	4777.23
653.686	4715.79
653.879	4846.86
654.071	4625.68
654.263	4654.35
654.456	4660.49
654.648	4625.68
654.84	4506.9
655.033	4476.18
655.225	4533.52
655.417	4472.08
655.61	4551.95
655.802	4486.42
655.994	4472.08
656.186	4498.7
656.379	4461.84
656.571	4359.44
656.763	4271.38
656.955	4488.46
657.148	4343.06
657.34	4173.08
657.532	4392.21
657.724	4185.37
657.916	4115.73
658.108	4072.73
658.3	4259.09
658.492	4252.95
658.684	4031.77
658.876	4193.56
659.068	4130.07
659.26	4095.25
659.452	4115.73
659.644	4111.64
659.836	4177.17
660.028	4048.15
660.22	3894.55
660.412	3853.59
660.604	4056.34
660.796	3900.7
660.988	3999
661.18	3974.42
661.372	3747.1
661.563	3808.54
661.755	3712.28
661.947	3853.59
662.139	3804.44
662.331	3659.04
662.522	3724.57
662.714	3652.89
662.906	3628.32
663.097	3710.24
663.289	3613.98
663.481	3638.56
663.673	3636.51
663.864	3611.93
664.056	3603.74
664.247	3595.55
664.439	3515.68
664.631	3585.31
664.822	3634.46
665.014	3519.78
665.205	3478.82
665.397	3521.82
665.588	3515.68
665.78	3462.43
665.971	3337.51
666.163	3460.38
666.354	3458.34
666.546	3343.65
666.737	3327.27
666.929	3296.55
667.12	3321.12
667.311	3329.31
667.503	3392.8
667.694	3245.35
667.885	3284.26
668.077	3216.68
668.268	3261.73
668.459	3345.7
668.651	3173.67
668.842	3165.48
669.033	3220.77
669.224	3112.23
669.416	3149.09
669.607	3071.27
669.798	3179.81
669.989	3220.77
670.18	3132.71
670.371	3140.9
670.563	3104.04
670.754	3087.65
670.945	3069.22
671.136	3081.51
671.327	3173.67
671.518	2968.87
671.709	2983.21
671.9	3042.6
672.091	2995.5
672.282	3044.65
672.473	2911.53
672.664	3081.51
672.855	2884.91
673.046	3020.07
673.237	3116.33
673.428	2977.06
673.619	3003.69
673.809	3036.45
674	2919.72
674.191	2979.11
674.382	3005.74
674.573	2821.42
674.764	2864.43
674.954	2997.54
675.145	2805.03
675.336	2757.93
675.527	2940.2
675.717	2962.73
675.908	2831.66
676.099	2833.71
676.289	2872.62
676.48	2743.6
676.671	2745.64
676.861	2870.57
677.052	2731.31
677.243	2813.23
677.433	2714.92
677.624	2866.47
677.814	2790.7
678.005	2798.89
678.195	2751.79
678.386	2700.59
678.576	2745.64
678.767	2592.05
678.957	2731.31
679.148	2796.84
679.338	2759.98
679.529	2784.55
679.719	2766.12
679.909	2784.55
680.1	2745.64
680.29	2645.29
680.481	2766.12
680.671	2723.12
680.861	2792.75
681.052	2733.36
681.242	2649.39
681.432	2708.78
681.622	2626.86
681.813	2661.68
682.003	2665.77
682.193	2618.67
682.383	2702.64
682.573	2602.29
682.764	2598.19
682.954	2721.07
683.144	2592.05
683.334	2581.81
683.524	2649.39
683.714	2663.72
683.904	2643.24
684.094	2569.52
684.284	2706.73
684.474	2710.83
684.664	2532.65
684.854	2651.44
685.044	2567.47
685.234	2651.44
685.424	2463.02
685.614	2594.09
685.804	2565.42
685.994	2501.94
686.184	2536.75
686.374	2604.33
686.564	2430.26
686.753	2522.41
686.943	2475.31
687.133	2417.97
687.323	2407.73
687.513	2397.49
687.702	2409.78
687.892	2401.58
688.082	2385.2
688.272	2401.58
688.461	2379.06
688.651	2534.7
688.841	2399.54
689.03	2307.38
689.22	2432.3
689.41	2280.75
689.599	2295.09
689.789	2264.37
689.979	2264.37
690.168	2252.08
690.358	2323.76
690.547	2280.75
690.737	2266.42
690.926	2262.32
691.116	2266.42
691.305	2331.95
691.495	2125.11
691.684	2067.77
691.874	2155.83
692.063	2104.63
692.252	2182.45
692.442	2131.25
692.631	2204.98
692.82	2147.64
693.01	2073.91
693.199	2131.25
693.388	2078.01
693.578	2018.61
693.767	2213.17
693.956	2106.68
694.146	2127.16
694.335	2065.72
694.524	2125.11
694.713	2088.25
694.902	1981.75
695.092	1944.89
695.281	1979.7
695.47	2094.39
695.659	2053.43
695.848	2051.38
696.037	2047.29
696.226	2114.87
696.415	2053.43
696.604	1979.7
696.793	2063.67
696.982	2065.72
697.171	2041.14
697.36	1916.22
697.549	1944.89
697.738	1963.32
697.927	2057.53
698.116	1963.32
698.305	2000.18
698.494	1918.26
698.683	2024.76
698.872	1955.13
699.061	1981.75
699.25	1987.89
699.438	2032.95
699.627	1881.4
699.816	2061.62
700.005	1912.12
700.193	1955.13
700.382	1885.5
700.571	1887.54
700.76	1905.98
700.948	1938.74
701.137	1998.13
701.326	2002.23
701.514	1955.13
701.703	1932.6
701.892	1924.41
702.08	2022.71
702.269	1854.78
702.457	1854.78
702.646	1908.02
702.834	1908.02
703.023	1862.97
703.212	1996.09
703.4	2024.76
703.589	1975.61
703.777	1936.7
703.965	1895.74
704.154	1916.22
704.342	2041.14
704.531	1858.87
704.719	1875.26
704.907	1936.7
705.096	1881.4
705.284	1899.83
705.472	1924.41
705.661	1883.45
705.849	1963.32
706.037	1891.64
706.226	2012.47
706.414	1817.91
706.602	1871.16
706.79	2063.67
706.979	1967.42
707.167	1959.22
707.355	2063.67
707.543	1852.73
707.731	1965.37
707.919	1852.73
708.107	1953.08
708.296	1862.97
708.484	1885.5
708.672	1871.16
708.86	1893.69
709.048	1936.7
709.236	1895.74
709.424	1897.78
709.612	1938.74
709.8	1813.82
709.988	1832.25
710.176	1881.4
710.364	1959.22
710.551	1928.5
710.739	2012.47
710.927	1955.13
711.115	1920.31
711.303	1828.15
711.491	1914.17
711.679	1840.44
711.866	1983.8
712.054	1846.59
712.242	1854.78
712.43	1842.49
712.617	1965.37
712.805	1932.6
712.993	1940.79
713.181	1928.5
713.368	1830.2
713.556	1848.63
713.744	1908.02
713.931	1983.8
714.119	1860.92
714.306	1953.08
714.494	1916.22
714.682	1914.17
714.869	1930.55
715.057	1951.03
715.244	1897.78
715.432	1961.27
715.619	1932.6
715.807	1985.85
715.994	1844.54
716.182	1910.07
716.369	1856.83
716.556	2020.66
716.744	1848.63
716.931	1961.27
717.119	2137.4
717.306	1942.84
717.493	1977.66
717.681	1998.13
717.868	1934.65
718.055	1924.41
718.242	1938.74
718.43	1985.85
718.617	1936.7
718.804	1905.98
718.991	1867.06
719.179	1916.22
719.366	1844.54
719.553	1969.46
719.74	1959.22
719.927	1873.21
720.114	1934.65
720.301	1822.01
720.488	2018.61
720.676	1944.89
720.863	1951.03
721.05	1946.94
721.237	2037.05
721.424	1946.94
721.611	1885.5
721.798	1803.58
721.985	1979.7
722.172	1912.12
722.358	1991.99
722.545	1930.55
722.732	1946.94
722.919	1914.17
723.106	1989.94
723.293	2012.47
723.48	2008.37
723.667	1926.46
723.853	1996.09
724.04	1940.79
724.227	1883.45
724.414	1989.94
724.6	1901.88
724.787	1981.75
724.974	1903.93
725.161	1844.54
725.347	1910.07
725.534	1918.26
725.72	1936.7
725.907	1879.35
726.094	1942.84
726.28	1924.41
726.467	1942.84
726.653	1887.54
726.84	1903.93
727.027	1881.4
727.213	1932.6
727.4	1981.75
727.586	1887.54
727.773	1918.26
727.959	1824.06
728.145	1953.08
728.332	1830.2
728.518	1944.89
728.705	1867.06
728.891	2010.42
729.077	1926.46
729.264	1926.46
729.45	1942.84
729.636	2012.47
729.823	1981.75
730.009	1916.22
730.195	1914.17
730.382	1905.98
730.568	1971.51
730.754	1858.87
730.94	1901.88
731.126	1879.35
731.313	1926.46
731.499	1940.79
731.685	1971.51
731.871	1959.22
732.057	1967.42
732.243	1987.89
732.429	1850.68
732.615	1865.02
732.801	1903.93
732.987	1873.21
733.173	1850.68
733.359	1903.93
733.545	1893.69
733.731	1951.03
733.917	1844.54
734.103	1955.13
734.289	1891.64
734.475	1879.35
734.661	1908.02
734.847	1774.91
735.033	1965.37
735.219	1946.94
735.404	1951.03
735.59	1779
735.776	1862.97
735.962	1881.4
736.148	1996.09
736.333	1836.35
736.519	1819.96
736.705	1809.72
736.89	1862.97
737.076	1834.3
737.262	1809.72
737.447	1699.13
737.633	1871.16
737.819	1938.74
738.004	1793.34
738.19	1848.63
738.375	1852.73
738.561	1865.02
738.747	1815.87
738.932	1834.3
739.118	1871.16
739.303	1848.63
739.489	1838.39
739.674	1787.19
739.859	1787.19
740.045	1799.48
740.23	1905.98
740.416	1699.13
740.601	1801.53
740.786	1629.5
740.972	1754.43
741.157	1744.19
741.342	1740.09
741.528	1846.59
741.713	1779
741.898	1772.86
742.084	1662.27
742.269	1727.8
742.454	1795.39
742.639	1770.81
742.824	1635.64
743.01	1606.97
743.195	1703.23
743.38	1643.84
743.565	1688.89
743.75	1692.99
743.935	1797.43
744.12	1643.84
744.305	1619.26
744.49	1576.25
744.675	1627.45
744.86	1643.84
745.045	1699.13
745.23	1758.52
745.415	1568.06
745.6	1604.92
745.785	1549.63
745.97	1584.45
746.155	1563.97
746.34	1545.53
746.525	1561.92
746.71	1551.68
746.895	1596.73
747.079	1512.77
747.264	1480
747.449	1588.54
747.634	1561.92
747.819	1551.68
748.003	1467.71
748.188	1490.24
748.373	1459.52
748.557	1469.76
748.742	1416.51
748.927	1369.41
749.111	1426.75
749.296	1385.79
749.481	1461.57
749.665	1324.35
749.85	1334.59
750.034	1385.79
750.219	1361.22
750.404	1361.22
750.588	1383.74
750.773	1291.59
750.957	1363.26
751.141	1473.85
751.326	1318.21
751.51	1275.2
751.695	1359.17
751.879	1299.78
752.064	1330.5
752.248	1299.78
752.432	1330.5
752.617	1246.53
752.801	1238.34
752.985	1340.74
753.17	1244.48
753.354	1187.14
753.538	1275.2
753.722	1183.04
753.907	1228.1
754.091	1150.28
754.275	1170.76
754.459	1170.76
754.643	1154.37
754.828	1156.42
755.012	1146.18
755.196	1152.32
755.38	1103.17
755.564	1029.45
755.748	1127.75
755.932	1140.04
756.116	1160.52
756.3	1097.03
756.484	1088.84
756.668	1115.46
756.852	1008.97
757.036	1021.25
757.22	1086.79
757.404	965.96
757.588	1019.21
757.772	1062.21
757.956	1076.55
758.14	1088.84
758.323	961.86
758.507	1011.01
758.691	908.62
758.875	1023.3
759.059	1068.36
759.242	963.91
759.426	961.86
759.61	1029.45
759.794	871.75
759.977	1021.25
760.161	978.25
760.345	920.9
760.528	920.9
760.712	927.05
760.895	943.43
761.079	947.53
761.263	892.23
761.446	863.56
761.63	947.53
761.813	898.38
761.997	943.43
762.18	861.51
762.364	935.24
762.547	855.37
762.731	812.36
762.914	853.32
763.098	855.37
763.281	873.8
763.464	814.41
763.648	767.31
763.831	904.52
764.015	802.12
764.198	877.9
764.381	877.9
764.564	843.08
764.748	748.87
764.931	865.61
765.114	785.74
765.297	834.89
765.481	798.03
765.664	890.18
765.847	742.73
766.03	785.74
766.213	851.27
766.397	791.88
766.58	742.73
766.763	800.07
766.946	798.03
767.129	730.44
767.312	716.11
767.495	759.11
767.678	765.26
767.861	822.6
768.044	791.88
768.227	789.83
768.41	671.05
768.593	742.73
768.776	714.06
768.959	795.98
769.142	683.34
769.324	732.49
769.507	787.79
769.69	752.97
769.873	744.78
770.056	689.48
770.239	783.69
770.421	720.2
770.604	738.63
770.787	773.45
770.97	742.73
771.152	724.3
771.335	642.38
771.518	689.48
771.7	685.39
771.883	693.58
772.066	707.91
772.248	716.11
772.431	722.25
772.613	642.38
772.796	650.57
772.978	632.14
773.161	671.05
773.343	630.09
773.526	578.89
773.708	648.52
773.891	640.33
774.073	574.8
774.256	675.15
774.438	652.62
774.621	689.48
774.803	638.28
774.985	550.22
775.168	580.94
775.35	578.89
775.532	656.72
775.715	623.95
775.897	640.33
776.079	544.08
776.261	613.71
776.444	478.54
776.626	585.04
776.808	599.37
776.99	585.04
777.173	607.56
777.355	548.17
777.537	709.96
777.719	513.36
777.901	515.41
778.083	550.22
778.265	443.73
778.447	556.36
778.629	521.55
778.811	505.17
778.993	488.78
779.175	494.93
779.357	521.55
779.539	529.74
779.721	478.54
779.903	449.87
780.085	453.97
780.267	435.53
780.449	458.06
780.631	453.97
780.812	482.64
780.994	474.45
781.176	478.54
781.358	458.06
781.54	476.49
781.721	494.93
781.903	472.4
782.085	400.72
782.267	427.34
782.448	413.01
782.63	472.4
782.812	415.06
782.993	439.63
783.175	433.49
783.357	390.48
783.538	367.95
783.72	318.8
783.901	347.47
784.083	367.95
784.264	441.68
784.446	339.28
784.627	388.43
784.809	359.76
784.99	355.66
785.172	324.94
785.353	443.73
785.535	396.62
785.716	343.38
785.897	363.86
786.079	482.64
786.26	429.39
786.441	376.14
786.623	308.56
786.804	370
786.985	382.29
787.167	349.52
787.348	359.76
787.529	316.75
787.71	427.34
787.891	372.05
788.073	365.9
788.254	296.27
788.435	353.62
788.616	329.04
788.797	286.03
788.978	273.75
789.159	320.85
789.34	398.67
789.522	343.38
789.703	290.13
789.884	232.79
790.065	353.62
790.246	279.89
790.427	273.75
790.607	329.04
790.788	277.84
790.969	281.94
791.15	234.83
791.331	286.03
791.512	374.1
791.693	292.18
791.874	322.9
792.054	347.47
792.235	286.03
792.416	224.59
792.597	312.66
792.778	271.7
792.958	300.37
793.139	255.31
793.32	292.18
793.5	326.99
793.681	214.35
793.862	306.51
794.042	298.32
794.223	226.64
794.404	271.7
794.584	212.31
794.765	167.25
794.945	152.92
795.126	253.27
795.306	292.18
795.487	204.11
795.667	234.83
795.848	267.6
796.028	175.44
796.209	271.7
796.389	197.97
796.57	124.24
796.75	222.55
796.93	243.03
797.111	148.82
797.291	318.8
797.471	193.87
797.652	259.41
797.832	236.88
798.012	224.59
798.192	218.45
798.373	105.81
798.553	191.83
798.733	247.12
798.913	165.2
799.093	146.77
799.274	191.83
799.454	261.46
799.634	230.74
799.814	197.97
799.994	191.83
800.174	169.3
800.354	216.4
800.534	122.2
800.714	138.58
800.894	222.55
801.074	181.59
801.254	294.22
801.434	251.22
801.614	210.26
801.794	140.63
801.974	611.66
802.154	165.2
802.334	163.15
802.514	218.45
802.693	169.3
802.873	179.54
803.053	181.59
803.233	152.92
803.413	175.44
803.592	157.01
803.772	251.22
803.952	124.24
804.131	136.53
804.311	204.11
804.491	212.31
804.67	173.39
804.85	77.14
805.03	187.73
805.209	214.35
805.389	195.92
805.568	181.59
805.748	146.77
805.928	116.05
806.107	140.63
806.287	111.96
806.466	142.68
806.646	152.92
806.825	132.44
807.004	173.39
807.184	134.48
807.363	93.52
807.543	128.34
807.722	157.01
807.901	157.01
808.081	150.87
808.26	181.59
808.439	132.44
808.619	142.68
808.798	130.39
808.977	154.96
809.156	101.72
809.336	142.68
809.515	132.44
809.694	130.39
809.873	132.44
810.052	179.54
810.231	132.44
810.411	202.07
810.59	134.48
810.769	212.31
810.948	77.14
811.127	134.48
811.306	167.25
811.485	146.77
811.664	114
811.843	144.72
812.022	124.24
812.201	140.63
812.38	73.04
812.559	195.92
812.737	101.72
812.916	159.06
813.095	91.48
813.274	54.61
813.453	114
813.632	132.44
813.811	161.11
813.989	111.96
814.168	75.09
814.347	124.24
814.526	152.92
814.704	128.34
814.883	185.68
815.062	109.91
815.24	173.39
815.419	73.04
815.598	148.82
815.776	52.56
815.955	138.58
816.133	210.26
816.312	185.68
816.49	163.15
816.669	103.76
816.847	132.44
817.026	126.29
817.204	165.2
817.383	79.19
817.561	179.54
817.74	91.48
817.918	87.38
818.097	87.38
818.275	152.92
818.453	128.34
818.632	126.29
818.81	83.28
818.988	126.29
819.167	77.14
819.345	66.9
819.523	79.19
819.701	118.1
819.879	99.67
820.058	101.72
820.236	95.57
820.414	111.96
820.592	103.76
820.77	54.61
820.948	187.73
821.127	77.14
821.305	77.14
821.483	128.34
821.661	83.28
821.839	148.82
822.017	66.9
822.195	105.81
822.373	109.91
822.551	-2.73
822.729	85.33
822.907	191.83
823.085	95.57
823.262	56.66
823.44	87.38
823.618	-27.31
823.796	111.96
823.974	73.04
824.152	91.48
824.329	52.56
824.507	46.42
824.685	68.95
824.863	101.72
825.04	79.19
825.218	134.48
825.396	50.52
825.574	101.72
825.751	136.53
825.929	91.48
826.107	95.57
826.284	91.48
826.462	87.38
826.639	118.1
826.817	93.52
826.994	48.47
827.172	48.47
827.349	132.44
827.527	95.57
827.704	-4.78
827.882	124.24
828.059	109.91
828.237	32.08
828.414	116.05
828.591	30.04
828.769	71
828.946	38.23
829.124	15.7
829.301	64.85
829.478	85.33
829.655	25.94
829.833	62.8
830.01	19.8
830.187	150.87
830.364	95.57
830.542	46.42
830.719	163.15
830.896	101.72
831.073	85.33
831.25	81.24
831.427	87.38
831.604	101.72
831.782	15.7
831.959	122.2
832.136	99.67
832.313	1.37
832.49	60.76
832.667	91.48
832.844	89.43
833.021	124.24
833.198	15.7
833.374	38.23
833.551	146.77
833.728	58.71
833.905	87.38
834.082	-35.5
834.259	91.48
834.436	105.81
834.612	25.94
834.789	81.24
834.966	17.75
835.143	83.28
835.319	66.9
835.496	73.04
835.673	89.43
835.85	58.71
836.026	81.24
836.203	36.18
836.38	3.41
836.556	-25.26
836.733	71
836.909	73.04
837.086	34.13
837.262	56.66
837.439	27.99
837.616	23.89
837.792	-37.55
837.968	95.57
838.145	13.65
838.321	60.76
838.498	48.47
838.674	58.71
838.851	91.48
839.027	89.43
839.203	124.24
839.38	105.81
839.556	-17.07
839.732	101.72
839.909	58.71
840.085	25.94
840.261	62.8
840.437	62.8
840.614	15.7
840.79	77.14
840.966	95.57
841.142	46.42
841.318	44.37
841.494	77.14
841.671	83.28
841.847	40.28
842.023	3.41
842.199	21.85
842.375	48.47
842.551	25.94
842.727	-17.07
842.903	89.43
843.079	42.32
843.255	73.04
843.431	-12.97
843.607	36.18
843.783	-21.16
843.959	5.46
844.134	34.13
844.31	83.28
844.486	5.46
844.662	54.61
844.838	30.04
845.013	44.37
845.189	124.24
845.365	46.42
845.541	1.37
845.716	54.61
845.892	50.52
846.068	60.76
846.244	-15.02
846.419	21.85
846.595	-76.46
846.77	3.41
846.946	25.94
847.122	19.8
847.297	58.71
847.473	36.18
847.648	-37.55
847.824	122.2
847.999	52.56
848.175	3.41
848.35	36.18
848.526	42.32
848.701	66.9
848.876	66.9
849.052	48.47
849.227	50.52
849.403	36.18
849.578	15.7
849.753	7.51
849.929	1.37
850.104	-0.68
850.279	73.04
850.454	64.85
850.63	97.62
850.805	5.46
850.98	38.23
851.155	-21.16
851.33	93.52
851.505	-84.65
851.681	122.2
851.856	38.23
852.031	91.48
852.206	36.18
852.381	81.24
852.556	73.04
852.731	66.9
852.906	75.09
853.081	56.66
853.256	97.62
853.431	25.94
853.606	60.76
853.781	25.94
853.956	7.51
854.131	-0.68
854.305	-12.97
854.48	36.18
854.655	-12.97
854.83	5.46
855.005	11.61
855.18	21.85
855.354	15.7
855.529	46.42
855.704	-8.87
855.879	-0.68
856.053	3.41
856.228	25.94
856.403	32.08
856.577	13.65
856.752	-51.88
856.926	40.28
857.101	56.66
857.276	-23.21
857.45	97.62
857.625	1.37
857.799	64.85
857.974	91.48
858.148	-2.73
858.323	44.37
858.497	25.94
858.672	103.76
858.846	11.61
859.02	40.28
859.195	15.7
859.369	27.99
859.543	50.52
859.718	19.8
859.892	-23.21
860.066	13.65
860.241	21.85
860.415	87.38
860.589	54.61
860.763	13.65
860.938	1.37
861.112	118.1
861.286	58.71
861.46	-6.83
861.634	38.23
861.808	21.85
861.982	19.8
862.157	52.56
862.331	11.61
862.505	21.85
862.679	-29.35
862.853	-60.07
863.027	-6.83
863.201	40.28
863.375	1.37
863.549	15.7
863.722	13.65
863.896	7.51
864.07	13.65
864.244	46.42
864.418	-12.97
864.592	66.9
864.766	19.8
864.939	38.23
865.113	21.85
865.287	60.76
865.461	-8.87
865.634	19.8
865.808	46.42
865.982	87.38
866.156	54.61
866.329	-12.97
866.503	5.46
866.676	13.65
866.85	-21.16
867.024	17.75
867.197	-29.35
867.371	-6.83
867.544	-4.78
867.718	23.89
867.891	34.13
868.065	-0.68
868.238	34.13
868.412	27.99
868.585	103.76
868.759	15.7
868.932	23.89
869.105	-0.68
869.279	9.56
869.452	-0.68
869.625	27.99
869.799	23.89
869.972	15.7
870.145	34.13
870.319	34.13
870.492	17.75
870.665	46.42
870.838	13.65
871.011	9.56
871.185	7.51
871.358	13.65
871.531	-0.68
871.704	44.37
871.877	11.61
872.05	1.37
872.223	46.42
872.396	60.76
872.569	-19.11
872.742	-43.69
872.915	91.48
873.088	-8.87
873.261	-2.73
873.434	52.56
873.607	1.37
873.78	52.56
873.953	-21.16
874.126	75.09
874.299	11.61
874.471	21.85
874.644	73.04
874.817	-4.78
874.99	1.37
875.163	48.47
875.335	9.56
875.508	54.61
875.681	58.71
875.853	23.89
876.026	11.61
876.199	13.65
876.371	46.42
876.544	38.23
876.717	-78.51
876.889	1.37
877.062	44.37
877.234	-78.51
877.407	58.71
877.579	36.18
877.752	40.28
877.924	-19.11
878.097	148.82
878.269	44.37
878.442	23.89
878.614	-51.88
878.786	21.85
878.959	30.04
879.131	50.52
879.303	3.41
879.476	-27.31
879.648	15.7
879.82	-80.55
879.993	-0.68
880.165	19.8
880.337	9.56
880.509	-17.07
880.681	17.75
880.854	36.18
881.026	79.19
881.198	99.67
881.37	38.23
881.542	-6.83
881.714	36.18
881.886	1.37
882.058	34.13
882.23	15.7
882.402	-103.08
882.574	32.08
882.746	-35.5
882.918	32.08
883.09	5.46
883.262	-33.45
883.434	54.61
883.606	-4.78
883.778	68.95
883.95	17.75
884.122	58.71
884.293	-17.07
884.465	-4.78
884.637	32.08
884.809	66.9
884.98	11.61
885.152	1.37
885.324	-17.07
885.496	-12.97
885.667	-2.73
885.839	54.61
886.011	50.52
886.182	-0.68
886.354	58.71
886.525	52.56
886.697	-4.78
886.869	-15.02
887.04	-8.87
887.212	64.85
887.383	34.13
887.555	7.51
887.726	56.66
887.897	34.13
888.069	91.48
888.24	25.94
888.412	25.94
888.583	-21.16
888.754	-31.4
888.926	-12.97
889.097	38.23
889.268	32.08
889.44	-72.36
889.611	27.99
889.782	-29.35
889.953	-25.26
890.125	87.38
890.296	21.85
890.467	-0.68
890.638	-31.4
890.809	-6.83
890.98	19.8
891.151	9.56
891.323	32.08
891.494	-41.64
891.665	-0.68
891.836	89.43
892.007	-39.59
892.178	58.71
892.349	25.94
892.52	-12.97
892.691	-43.69
892.862	3.41
893.032	-6.83
893.203	62.8
893.374	21.85
893.545	64.85
893.716	-21.16
893.887	60.76
894.057	11.61
894.228	40.28
894.399	-47.79
894.57	-10.92
894.74	-55.98
894.911	75.09
895.082	-49.83
895.253	34.13
895.423	-15.02
895.594	122.2
895.764	17.75
895.935	-53.93
896.106	46.42
896.276	-8.87
896.447	58.71
896.617	34.13
896.788	-29.35
896.958	52.56
897.129	40.28
897.299	15.7
897.47	-60.07
897.64	9.56
897.81	-12.97
897.981	9.56
898.151	-2.73
898.322	-0.68
898.492	-17.07
898.662	-35.5
898.832	73.04
899.003	1.37
899.173	-23.21
899.343	48.47
899.513	-45.74
