Data from USB4F104151__33__11-51-39-108.txt Node

Date: Fri Mar 14 11:51:39 EDT 2025
User: louis
Spectrometer: USB4F10415
Trigger mode: 4
Integration Time (sec): 2.000000E-2
Scans to average: 1
Electric dark correction enabled: true
Nonlinearity correction enabled: false
Boxcar width: 0
XAxis mode: Wavelengths
Number of Pixels in Spectrum: 3648
>>>>>Begin Spectral Data<<<<<
178.204	-110.25
178.424	-110.25
178.644	-110.25
178.864	-61.1
179.084	-24.23
179.304	8.53
179.524	-20.14
179.744	35.16
179.964	20.82
180.184	18.77
180.404	-13.99
180.624	-22.19
180.844	22.87
181.064	-13.99
181.283	43.35
181.503	-97.96
181.723	18.77
181.943	2.39
182.163	2.39
182.383	6.49
182.602	102.74
182.822	4.44
183.042	51.54
183.262	-3.75
183.482	22.87
183.701	-24.23
183.921	20.82
184.141	-36.52
184.361	-28.33
184.58	18.77
184.8	20.82
185.02	-5.8
185.239	-7.85
185.459	65.88
185.679	35.16
185.898	-28.33
186.118	45.4
186.338	14.68
186.557	65.88
186.777	2.39
186.997	-22.19
187.216	12.63
187.436	55.64
187.655	4.44
187.875	18.77
188.095	37.2
188.314	63.83
188.534	-9.9
188.753	69.97
188.973	-3.75
189.192	39.25
189.412	98.64
189.631	26.96
189.851	76.12
190.07	14.68
190.29	-50.86
190.509	-28.33
190.729	24.92
190.948	104.79
191.168	96.6
191.387	84.31
191.607	-36.52
191.826	4.44
192.045	-59.05
192.265	37.2
192.484	-18.09
192.704	59.73
192.923	-1.71
193.142	67.92
193.362	24.92
193.581	92.5
193.8	16.73
194.02	24.92
194.239	20.82
194.458	29.01
194.678	35.16
194.897	-3.75
195.116	72.02
195.335	57.68
195.555	37.2
195.774	-1.71
195.993	84.31
196.212	-28.33
196.432	22.87
196.651	76.12
196.87	53.59
197.089	41.3
197.308	-26.28
197.528	47.44
197.747	-13.99
197.966	53.59
198.185	43.35
198.404	37.2
198.623	59.73
198.842	-36.52
199.062	67.92
199.281	39.25
199.5	55.64
199.719	2.39
199.938	33.11
200.157	35.16
200.376	6.49
200.595	59.73
200.814	-16.04
201.033	-50.86
201.252	41.3
201.471	20.82
201.69	41.3
201.909	-1.71
202.128	53.59
202.347	53.59
202.566	14.68
202.785	63.83
203.004	22.87
203.223	-3.75
203.442	-34.47
203.661	-13.99
203.879	51.54
204.098	137.56
204.317	8.53
204.536	37.2
204.755	16.73
204.974	31.06
205.193	8.53
205.411	104.79
205.63	29.01
205.849	8.53
206.068	-22.19
206.287	49.49
206.505	35.16
206.724	2.39
206.943	-5.8
207.162	2.39
207.381	2.39
207.599	-54.95
207.818	-5.8
208.037	-18.09
208.255	47.44
208.474	39.25
208.693	55.64
208.911	-24.23
209.13	24.92
209.349	6.49
209.567	-3.75
209.786	121.17
210.005	63.83
210.223	-3.75
210.442	-52.91
210.661	43.35
210.879	80.21
211.098	-38.57
211.316	26.96
211.535	100.69
211.753	6.49
211.972	20.82
212.191	-50.86
212.409	16.73
212.628	35.16
212.846	20.82
213.065	43.35
213.283	94.55
213.502	8.53
213.72	6.49
213.938	33.11
214.157	45.4
214.375	55.64
214.594	8.53
214.812	43.35
215.031	-61.1
215.249	31.06
215.467	39.25
215.686	18.77
215.904	88.4
216.122	65.88
216.341	-5.8
216.559	-26.28
216.778	61.78
216.996	-5.8
217.214	24.92
217.432	-16.04
217.651	-22.19
217.869	0.34
218.087	4.44
218.306	33.11
218.524	86.36
218.742	61.78
218.96	61.78
219.179	-24.23
219.397	2.39
219.615	53.59
219.833	43.35
220.051	-20.14
220.27	35.16
220.488	0.34
220.706	18.77
220.924	-9.9
221.142	-1.71
221.36	65.88
221.578	80.21
221.796	-28.33
222.015	16.73
222.233	69.97
222.451	-5.8
222.669	-5.8
222.887	43.35
223.105	-3.75
223.323	29.01
223.541	-44.71
223.759	31.06
223.977	-3.75
224.195	41.3
224.413	8.53
224.631	-1.71
224.849	43.35
225.067	20.82
225.285	59.73
225.503	33.11
225.721	-28.33
225.939	35.16
226.157	-11.95
226.375	92.5
226.592	12.63
226.81	45.4
227.028	37.2
227.246	96.6
227.464	-1.71
227.682	53.59
227.9	-9.9
228.117	39.25
228.335	43.35
228.553	43.35
228.771	29.01
228.989	10.58
229.206	18.77
229.424	10.58
229.642	39.25
229.86	-46.76
230.077	35.16
230.295	10.58
230.513	12.63
230.731	86.36
230.948	14.68
231.166	-34.47
231.384	33.11
231.601	4.44
231.819	51.54
232.037	43.35
232.254	-5.8
232.472	2.39
232.689	-81.58
232.907	12.63
233.125	16.73
233.342	-9.9
233.56	-24.23
233.777	76.12
233.995	35.16
234.213	37.2
234.43	43.35
234.648	39.25
234.865	31.06
235.083	49.49
235.3	4.44
235.518	51.54
235.735	108.88
235.953	-40.62
236.17	74.07
236.388	24.92
236.605	39.25
236.822	16.73
237.04	43.35
237.257	18.77
237.475	39.25
237.692	43.35
237.909	24.92
238.127	-46.76
238.344	16.73
238.562	22.87
238.779	61.78
238.996	-57
239.214	-46.76
239.431	35.16
239.648	55.64
239.865	74.07
240.083	39.25
240.3	6.49
240.517	76.12
240.735	51.54
240.952	51.54
241.169	57.68
241.386	33.11
241.603	39.25
241.821	-16.04
242.038	4.44
242.255	88.4
242.472	51.54
242.689	82.26
242.907	57.68
243.124	-30.38
243.341	35.16
243.558	18.77
243.775	78.16
243.992	-7.85
244.209	-13.99
244.426	45.4
244.643	4.44
244.86	-20.14
245.078	45.4
245.295	41.3
245.512	-38.57
245.729	55.64
245.946	43.35
246.163	16.73
246.38	49.49
246.597	-1.71
246.814	-1.71
247.031	94.55
247.248	65.88
247.464	-5.8
247.681	16.73
247.898	29.01
248.115	69.97
248.332	53.59
248.549	57.68
248.766	65.88
248.983	61.78
249.2	43.35
249.417	59.73
249.633	22.87
249.85	-1.71
250.067	20.82
250.284	10.58
250.501	2.39
250.717	24.92
250.934	-7.85
251.151	16.73
251.368	47.44
251.585	63.83
251.801	0.34
252.018	18.77
252.235	-3.75
252.451	16.73
252.668	10.58
252.885	57.68
253.102	-22.19
253.318	-13.99
253.535	14.68
253.752	26.96
253.968	10.58
254.185	65.88
254.401	6.49
254.618	47.44
254.835	51.54
255.051	84.31
255.268	24.92
255.484	67.92
255.701	24.92
255.917	47.44
256.134	6.49
256.351	59.73
256.567	37.2
256.784	39.25
257	-16.04
257.217	69.97
257.433	39.25
257.65	18.77
257.866	47.44
258.082	35.16
258.299	-54.95
258.515	47.44
258.732	-28.33
258.948	31.06
259.165	31.06
259.381	33.11
259.597	20.82
259.814	-5.8
260.03	-1.71
260.246	37.2
260.463	55.64
260.679	84.31
260.895	12.63
261.112	-11.95
261.328	80.21
261.544	-44.71
261.761	76.12
261.977	108.88
262.193	39.25
262.409	80.21
262.626	37.2
262.842	80.21
263.058	-11.95
263.274	-13.99
263.49	94.55
263.707	61.78
263.923	-38.57
264.139	-9.9
264.355	-16.04
264.571	84.31
264.787	63.83
265.004	76.12
265.22	14.68
265.436	74.07
265.652	41.3
265.868	65.88
266.084	-3.75
266.3	43.35
266.516	-26.28
266.732	31.06
266.948	18.77
267.164	39.25
267.38	24.92
267.596	74.07
267.812	-22.19
268.028	59.73
268.244	49.49
268.46	-34.47
268.676	35.16
268.892	92.5
269.108	-34.47
269.324	-32.43
269.54	12.63
269.756	55.64
269.972	-18.09
270.188	12.63
270.403	22.87
270.619	6.49
270.835	2.39
271.051	63.83
271.267	-16.04
271.483	39.25
271.698	59.73
271.914	59.73
272.13	35.16
272.346	0.34
272.562	10.58
272.777	8.53
272.993	-11.95
273.209	31.06
273.425	-1.71
273.64	-22.19
273.856	47.44
274.072	33.11
274.287	78.16
274.503	6.49
274.719	43.35
274.934	22.87
275.15	-30.38
275.366	67.92
275.581	-22.19
275.797	-3.75
276.012	55.64
276.228	-18.09
276.444	65.88
276.659	-11.95
276.875	57.68
277.09	41.3
277.306	63.83
277.521	84.31
277.737	-22.19
277.952	-26.28
278.168	-7.85
278.383	6.49
278.599	74.07
278.814	22.87
279.03	2.39
279.245	59.73
279.461	45.4
279.676	6.49
279.892	12.63
280.107	59.73
280.322	-32.43
280.538	37.2
280.753	67.92
280.969	35.16
281.184	8.53
281.399	24.92
281.615	51.54
281.83	29.01
282.045	26.96
282.26	80.21
282.476	39.25
282.691	29.01
282.906	4.44
283.122	35.16
283.337	94.55
283.552	41.3
283.767	-71.34
283.983	45.4
284.198	8.53
284.413	53.59
284.628	14.68
284.843	33.11
285.058	6.49
285.274	29.01
285.489	29.01
285.704	29.01
285.919	4.44
286.134	14.68
286.349	22.87
286.564	47.44
286.779	20.82
286.995	82.26
287.21	18.77
287.425	-30.38
287.64	37.2
287.855	37.2
288.07	6.49
288.285	82.26
288.5	43.35
288.715	41.3
288.93	57.68
289.145	-32.43
289.36	82.26
289.575	55.64
289.79	37.2
290.004	-22.19
290.219	12.63
290.434	59.73
290.649	22.87
290.864	102.74
291.079	63.83
291.294	65.88
291.509	6.49
291.724	-18.09
291.938	96.6
292.153	41.3
292.368	-44.71
292.583	57.68
292.798	45.4
293.012	4.44
293.227	-30.38
293.442	33.11
293.657	86.36
293.871	47.44
294.086	41.3
294.301	121.17
294.516	82.26
294.73	45.4
294.945	-20.14
295.16	31.06
295.374	10.58
295.589	-5.8
295.804	78.16
296.018	31.06
296.233	47.44
296.447	16.73
296.662	0.34
296.877	98.64
297.091	-9.9
297.306	112.98
297.52	31.06
297.735	115.03
297.949	37.2
298.164	65.88
298.378	-11.95
298.593	-7.85
298.807	35.16
299.022	14.68
299.236	33.11
299.451	10.58
299.665	6.49
299.88	-3.75
300.094	-13.99
300.309	4.44
300.523	61.78
300.737	-24.23
300.952	-11.95
301.166	47.44
301.381	12.63
301.595	-28.33
301.809	115.03
302.024	8.53
302.238	92.5
302.452	4.44
302.667	47.44
302.881	69.97
303.095	117.08
303.309	72.02
303.524	-50.86
303.738	-7.85
303.952	-13.99
304.166	67.92
304.381	-71.34
304.595	74.07
304.809	24.92
305.023	63.83
305.237	10.58
305.452	-61.1
305.666	29.01
305.88	0.34
306.094	53.59
306.308	45.4
306.522	33.11
306.736	84.31
306.95	26.96
307.164	12.63
307.379	14.68
307.593	29.01
307.807	84.31
308.021	51.54
308.235	-9.9
308.449	45.4
308.663	-5.8
308.877	90.45
309.091	-9.9
309.305	63.83
309.519	47.44
309.733	8.53
309.947	-36.52
310.161	98.64
310.374	24.92
310.588	86.36
310.802	26.96
311.016	59.73
311.23	-5.8
311.444	24.92
311.658	20.82
311.872	-32.43
312.085	-22.19
312.299	96.6
312.513	24.92
312.727	112.98
312.941	29.01
313.154	41.3
313.368	33.11
313.582	0.34
313.796	74.07
314.009	-42.67
314.223	55.64
314.437	35.16
314.651	8.53
314.864	8.53
315.078	33.11
315.292	14.68
315.505	-5.8
315.719	43.35
315.933	-9.9
316.146	72.02
316.36	41.3
316.573	43.35
316.787	41.3
317.001	51.54
317.214	-34.47
317.428	-22.19
317.641	16.73
317.855	53.59
318.068	76.12
318.282	10.58
318.495	24.92
318.709	16.73
318.922	59.73
319.136	37.2
319.349	10.58
319.563	49.49
319.776	-1.71
319.99	-30.38
320.203	24.92
320.417	-38.57
320.63	80.21
320.843	92.5
321.057	6.49
321.27	96.6
321.483	20.82
321.697	53.59
321.91	-16.04
322.124	-5.8
322.337	-18.09
322.55	18.77
322.763	72.02
322.977	14.68
323.19	8.53
323.403	-7.85
323.617	-54.95
323.83	47.44
324.043	22.87
324.256	-11.95
324.469	0.34
324.683	31.06
324.896	82.26
325.109	57.68
325.322	14.68
325.535	-44.71
325.748	33.11
325.962	47.44
326.175	20.82
326.388	59.73
326.601	26.96
326.814	45.4
327.027	26.96
327.24	29.01
327.453	-5.8
327.666	61.78
327.879	72.02
328.092	33.11
328.305	22.87
328.518	-20.14
328.731	2.39
328.944	6.49
329.157	51.54
329.37	78.16
329.583	20.82
329.796	96.6
330.009	2.39
330.222	29.01
330.435	47.44
330.648	117.08
330.861	47.44
331.073	-11.95
331.286	100.69
331.499	-13.99
331.712	6.49
331.925	80.21
332.138	78.16
332.35	47.44
332.563	22.87
332.776	16.73
332.989	-24.23
333.202	26.96
333.414	-48.81
333.627	49.49
333.84	12.63
334.053	47.44
334.265	-11.95
334.478	-30.38
334.691	37.2
334.903	74.07
335.116	-1.71
335.329	33.11
335.541	29.01
335.754	100.69
335.966	-5.8
336.179	12.63
336.392	67.92
336.604	72.02
336.817	55.64
337.029	53.59
337.242	41.3
337.454	67.92
337.667	86.36
337.88	74.07
338.092	8.53
338.305	72.02
338.517	-26.28
338.729	47.44
338.942	98.64
339.154	37.2
339.367	43.35
339.579	57.68
339.792	47.44
340.004	35.16
340.217	18.77
340.429	135.51
340.641	10.58
340.854	18.77
341.066	-36.52
341.278	121.17
341.491	72.02
341.703	24.92
341.915	4.44
342.128	24.92
342.34	61.78
342.552	57.68
342.764	67.92
342.977	18.77
343.189	10.58
343.401	67.92
343.613	-57
343.826	65.88
344.038	18.77
344.25	29.01
344.462	-28.33
344.674	14.68
344.886	26.96
345.099	76.12
345.311	26.96
345.523	-46.76
345.735	-9.9
345.947	76.12
346.159	67.92
346.371	18.77
346.583	63.83
346.795	65.88
347.007	69.97
347.219	39.25
347.431	84.31
347.643	4.44
347.855	92.5
348.067	96.6
348.279	-71.34
348.491	2.39
348.703	10.58
348.915	80.21
349.127	22.87
349.339	6.49
349.551	31.06
349.763	78.16
349.975	10.58
350.187	35.16
350.399	8.53
350.61	76.12
350.822	-30.38
351.034	29.01
351.246	41.3
351.458	84.31
351.669	-3.75
351.881	133.46
352.093	63.83
352.305	65.88
352.517	-30.38
352.728	33.11
352.94	35.16
353.152	4.44
353.363	-40.62
353.575	45.4
353.787	33.11
353.999	59.73
354.21	74.07
354.422	-9.9
354.633	106.84
354.845	72.02
355.057	45.4
355.268	4.44
355.48	-13.99
355.692	31.06
355.903	-7.85
356.115	45.4
356.326	-20.14
356.538	53.59
356.749	33.11
356.961	14.68
357.172	51.54
357.384	6.49
357.595	102.74
357.807	-3.75
358.018	26.96
358.23	2.39
358.441	96.6
358.653	121.17
358.864	31.06
359.075	22.87
359.287	86.36
359.498	86.36
359.709	39.25
359.921	53.59
360.132	35.16
360.344	14.68
360.555	80.21
360.766	92.5
360.977	100.69
361.189	76.12
361.4	39.25
361.611	92.5
361.823	96.6
362.034	31.06
362.245	45.4
362.456	57.68
362.667	47.44
362.879	67.92
363.09	69.97
363.301	8.53
363.512	49.49
363.723	84.31
363.935	-13.99
364.146	20.82
364.357	-1.71
364.568	57.68
364.779	31.06
364.99	98.64
365.201	10.58
365.412	51.54
365.623	-22.19
365.834	80.21
366.045	39.25
366.256	125.27
366.467	29.01
366.678	31.06
366.889	31.06
367.1	12.63
367.311	76.12
367.522	43.35
367.733	12.63
367.944	110.93
368.155	0.34
368.366	43.35
368.577	123.22
368.788	53.59
368.999	-28.33
369.209	49.49
369.42	67.92
369.631	14.68
369.842	37.2
370.053	4.44
370.264	-1.71
370.474	10.58
370.685	84.31
370.896	51.54
371.107	43.35
371.317	76.12
371.528	2.39
371.739	29.01
371.95	74.07
372.16	35.16
372.371	-38.57
372.582	133.46
372.792	96.6
373.003	6.49
373.214	86.36
373.424	78.16
373.635	18.77
373.846	47.44
374.056	14.68
374.267	6.49
374.477	6.49
374.688	12.63
374.898	45.4
375.109	45.4
375.319	84.31
375.53	82.26
375.74	76.12
375.951	12.63
376.161	6.49
376.372	55.64
376.582	31.06
376.793	18.77
377.003	22.87
377.214	55.64
377.424	57.68
377.635	96.6
377.845	-18.09
378.055	84.31
378.266	39.25
378.476	-1.71
378.686	49.49
378.897	37.2
379.107	41.3
379.317	29.01
379.528	37.2
379.738	72.02
379.948	6.49
380.158	94.55
380.369	20.82
380.579	-26.28
380.789	-18.09
380.999	131.41
381.21	76.12
381.42	82.26
381.63	178.51
381.84	82.26
382.05	106.84
382.261	41.3
382.471	20.82
382.681	41.3
382.891	78.16
383.101	57.68
383.311	53.59
383.521	96.6
383.731	24.92
383.941	115.03
384.151	47.44
384.361	31.06
384.571	31.06
384.781	-3.75
384.991	84.31
385.201	137.56
385.411	-5.8
385.621	-22.19
385.831	69.97
386.041	69.97
386.251	33.11
386.461	59.73
386.671	106.84
386.881	12.63
387.091	16.73
387.301	121.17
387.511	51.54
387.72	86.36
387.93	47.44
388.14	4.44
388.35	53.59
388.56	39.25
388.769	117.08
388.979	69.97
389.189	35.16
389.399	16.73
389.609	53.59
389.818	86.36
390.028	-26.28
390.238	45.4
390.447	63.83
390.657	94.55
390.867	49.49
391.076	67.92
391.286	106.84
391.496	35.16
391.705	55.64
391.915	82.26
392.125	104.79
392.334	112.98
392.544	96.6
392.753	41.3
392.963	41.3
393.172	43.35
393.382	10.58
393.591	102.74
393.801	72.02
394.01	174.42
394.22	59.73
394.429	84.31
394.639	55.64
394.848	65.88
395.058	172.37
395.267	78.16
395.477	117.08
395.686	80.21
395.895	102.74
396.105	217.43
396.314	115.03
396.524	45.4
396.733	155.99
396.942	61.78
397.152	55.64
397.361	61.78
397.57	106.84
397.78	155.99
397.989	63.83
398.198	117.08
398.407	110.93
398.617	72.02
398.826	102.74
399.035	86.36
399.244	51.54
399.453	153.94
399.663	72.02
399.872	162.13
400.081	121.17
400.29	133.46
400.499	45.4
400.708	59.73
400.917	104.79
401.127	112.98
401.336	49.49
401.545	112.98
401.754	115.03
401.963	110.93
402.172	100.69
402.381	94.55
402.59	90.45
402.799	112.98
403.008	100.69
403.217	176.47
403.426	217.43
403.635	106.84
403.844	133.46
404.053	129.36
404.262	112.98
404.471	139.6
404.68	149.84
404.888	131.41
405.097	115.03
405.306	151.89
405.515	170.32
405.724	186.71
405.933	131.41
406.142	139.6
406.35	158.03
406.559	170.32
406.768	164.18
406.977	268.63
407.185	217.43
407.394	203.09
407.603	196.95
407.812	293.2
408.02	248.15
408.229	180.56
408.438	248.15
408.646	237.91
408.855	231.76
409.064	280.91
409.272	252.24
409.481	293.2
409.69	270.67
409.898	289.1
410.107	379.22
410.315	381.26
410.524	272.72
410.733	440.65
410.941	313.68
411.15	469.33
411.358	424.27
411.567	405.84
411.775	395.6
411.984	430.41
412.192	495.95
412.401	420.17
412.609	469.33
412.818	508.24
413.026	561.48
413.234	520.53
413.443	549.2
413.651	545.1
413.86	620.88
414.068	737.61
414.276	622.92
414.485	604.49
414.693	696.65
414.901	758.09
415.11	764.23
415.318	739.66
415.526	706.89
415.734	799.05
415.943	772.43
416.151	895.3
416.359	778.57
416.567	868.68
416.776	911.69
416.984	932.17
417.192	997.7
417.4	1018.18
417.608	997.7
417.817	1067.33
418.025	1134.92
418.233	1204.55
418.441	1171.78
418.649	1200.45
418.857	1198.4
419.065	1343.81
419.273	1268.03
419.481	1343.81
419.689	1450.3
419.897	1548.61
420.105	1554.75
420.313	1573.18
420.521	1651
420.729	1751.35
420.937	1823.03
421.145	1829.18
421.353	1753.4
421.561	1999.16
421.769	2003.25
421.977	2144.56
422.185	1935.67
422.393	2216.24
422.601	2382.13
422.809	2318.64
423.017	2281.78
423.224	2486.58
423.432	2593.07
423.64	2390.32
423.848	2687.28
424.056	2736.43
424.263	2887.98
424.471	2963.75
424.679	3012.9
424.887	3133.73
425.094	3203.36
425.302	3289.38
425.51	3410.21
425.718	3572
425.925	3645.73
426.133	3629.34
426.341	3868.95
426.548	3963.16
426.756	4110.61
426.964	4151.57
427.171	4243.73
427.379	4501.78
427.586	4567.31
427.794	4655.37
428.001	4776.2
428.209	5148.93
428.417	4997.39
428.624	5470.47
428.832	5392.64
429.039	5265.67
429.247	5361.92
429.454	6000.89
429.662	6287.61
429.869	5880.06
430.076	6228.21
430.284	5970.17
430.491	6359.28
430.699	6650.1
430.906	6607.09
431.114	6668.53
431.321	7186.66
431.528	7055.59
431.736	7534.82
431.943	7991.52
432.15	7756
432.358	7817.44
432.565	8263.9
432.772	8280.28
432.979	8724.69
433.187	8913.1
433.394	8661.2
433.601	9398.47
433.808	9640.13
434.016	9343.17
434.223	9742.53
434.43	10252.47
434.637	10143.93
434.844	10600.63
435.052	10938.54
435.259	10940.59
435.466	11120.81
435.673	10895.54
435.88	11747.49
436.087	12318.87
436.294	12474.52
436.501	11940
436.708	12193.95
436.915	12896.4
437.122	13262.99
437.329	13113.49
437.537	13682.82
437.743	13883.52
437.95	13926.53
438.157	14524.54
438.364	14821.49
438.571	14983.28
438.778	14934.13
438.985	16545.88
439.192	15937.63
439.399	16392.28
439.606	15702.12
439.813	16625.75
440.02	17883.2
440.227	17668.17
440.433	17277.01
440.64	17911.88
440.847	18075.71
441.054	18360.38
441.261	19451.95
441.467	19404.85
441.674	19816.49
441.881	20379.68
442.088	20416.54
442.294	20168.74
442.501	20705.31
442.708	21119
442.914	21862.41
443.121	22841.34
443.328	22052.87
443.534	23887.85
443.741	22988.79
443.948	22714.36
444.154	24477.66
444.361	24020.97
444.568	24231.91
444.774	24399.84
444.981	24788.96
445.187	25763.79
445.394	26443.71
445.6	26197.96
445.807	28737.44
446.013	27455.41
446.22	28301.22
446.426	29339.54
446.633	29269.91
446.839	30431.11
447.046	29069.21
447.252	30930.81
447.459	30748.54
447.665	30807.94
447.871	32157.55
448.078	33607.51
448.284	32055.15
448.491	32591.72
448.697	33726.29
448.903	34717.51
449.11	34479.94
449.316	34090.83
449.522	34584.39
449.728	35704.63
449.935	35757.88
450.141	35948.34
450.347	36566.82
450.553	35608.37
450.76	36130.61
450.966	37168.93
451.172	36816.68
451.378	37570.33
451.584	36964.13
451.791	38049.55
451.997	37564.18
452.203	38203.15
452.409	38461.19
452.615	38100.75
452.821	36990.75
453.027	36753.19
453.233	38184.72
453.44	36988.7
453.646	37224.22
453.852	37461.79
454.058	37920.53
454.264	36888.35
454.47	37789.46
454.676	36851.49
454.882	37895.96
455.088	34934.59
455.294	35372.86
455.5	35704.63
455.705	36122.41
455.911	34420.55
456.117	33853.26
456.323	33507.16
456.529	31985.52
456.735	33240.92
456.941	32526.18
457.147	31764.34
457.352	31045.5
457.558	30871.42
457.764	30543.75
457.97	30154.63
458.176	29556.63
458.381	29734.8
458.587	27994.03
458.793	28047.27
458.999	26470.34
459.204	28491.68
459.41	27756.46
459.616	25907.15
459.821	25794.51
460.027	25753.55
460.233	25145.3
460.438	23975.91
460.644	24184.8
460.85	22956.02
461.055	22865.91
461.261	22822.91
461.466	20879.38
461.672	20328.48
461.878	21497.87
462.083	20213.79
462.289	19906.6
462.494	19707.94
462.7	19030.07
462.905	18593.85
463.111	19185.71
463.316	19193.9
463.522	18692.15
463.727	18798.65
463.932	18853.94
464.138	18487.36
464.343	18563.13
464.549	18133.06
464.754	18647.1
464.959	18479.16
465.165	18184.26
465.37	17688.65
465.575	16904.28
465.781	17791.05
465.986	17918.02
466.191	17289.29
466.397	16881.75
466.602	16109.66
466.807	16511.07
467.012	16789.59
467.218	16568.41
467.423	16232.54
467.628	16457.82
467.833	17000.53
468.038	16554.07
468.244	15956.07
468.449	16787.54
468.654	16154.72
468.859	16271.45
469.064	15927.39
469.269	15323.24
469.474	15341.68
469.679	15857.76
469.885	15347.82
470.09	15476.84
470.295	15427.69
470.5	15323.24
470.705	15075.44
470.91	14844.02
471.115	14747.76
471.32	14876.79
471.525	14733.43
471.73	14471.29
471.935	14262.4
472.139	13910.15
472.344	14307.45
472.549	14000.26
472.754	13906.05
472.959	13572.23
473.164	13160.59
473.369	13017.23
473.574	13461.64
473.778	13357.19
473.983	13305.99
474.188	13193.36
474.393	12726.42
474.598	12662.93
474.802	12613.78
475.007	12535.96
475.212	12525.72
475.417	12093.6
475.621	12052.64
475.826	12097.69
476.031	11997.34
476.235	11643.04
476.44	11782.31
476.645	11706.53
476.849	11563.17
477.054	11479.21
477.259	11264.17
477.463	11364.52
477.668	10983.6
477.872	11126.96
478.077	10696.88
478.282	10672.31
478.486	10557.62
478.691	10412.21
478.895	10410.17
479.1	10346.68
479.304	10375.35
479.509	10012.86
479.713	10397.88
479.918	10012.86
480.122	9978.05
480.326	10055.87
480.531	10143.93
480.735	9879.74
480.94	9906.37
481.144	10252.47
481.348	9765.06
481.553	9750.72
481.757	9726.14
481.961	9633.99
482.166	9715.91
482.37	9756.86
482.574	9713.86
482.778	9636.03
482.983	9912.51
483.187	9566.4
483.391	9861.31
483.595	9746.62
483.8	9547.97
484.004	9455.81
484.208	9826.5
484.412	9509.06
484.616	9670.85
484.821	9619.65
485.025	9373.89
485.229	9728.19
485.433	9502.92
485.637	9560.26
485.841	9644.23
486.045	9388.23
486.249	9736.38
486.453	9464
486.657	9617.6
486.861	9744.58
487.065	9564.36
487.269	9603.27
487.473	9322.7
487.677	9429.19
487.881	9617.6
488.085	9494.72
488.289	9863.36
488.493	9361.61
488.697	9672.9
488.901	9556.16
489.105	9853.12
489.309	9763.01
489.512	9523.4
489.716	9691.33
489.92	9744.58
490.124	9627.84
490.328	10055.87
490.531	9883.84
490.735	9943.23
490.939	9808.06
491.143	9656.51
491.346	9896.13
491.55	10076.35
491.754	10213.56
491.958	10102.97
492.161	10074.3
492.365	10221.75
492.569	10055.87
492.772	9871.55
492.976	10041.53
493.18	10293.43
493.383	10324.15
493.587	10342.58
493.79	10662.07
493.994	10254.52
494.197	10709.17
494.401	10705.07
494.605	10524.85
494.808	10928.3
495.012	10715.31
495.215	10772.66
495.419	10823.86
495.622	11028.65
495.825	11153.58
496.029	10956.97
496.232	11403.43
496.436	11370.66
496.639	11446.44
496.843	11395.24
497.046	11774.11
497.249	11886.75
497.453	11557.03
497.656	11843.74
497.859	12157.08
498.063	12056.73
498.266	12474.52
498.469	12314.78
498.673	12503.19
498.876	12519.57
499.079	12906.64
499.282	12806.29
499.485	13009.04
499.689	13357.19
499.892	13240.46
500.095	13291.66
500.298	13490.31
500.501	13559.94
500.705	13922.43
500.908	13897.86
501.111	14315.64
501.314	14377.08
501.517	14364.79
501.72	14669.94
501.923	14641.27
502.126	14729.33
502.329	14960.75
502.532	15022.19
502.735	15128.69
502.938	15745.13
503.141	15841.38
503.344	16025.7
503.547	15894.63
503.75	16279.64
503.953	16402.52
504.156	16496.73
504.359	16533.59
504.562	16711.77
504.765	17383.5
504.968	17115.22
505.17	17330.25
505.373	17549.39
505.576	17903.68
505.779	17836.1
505.982	18149.44
506.185	18413.63
506.387	18284.61
506.59	18524.22
506.793	19060.79
506.996	18835.51
507.198	19171.38
507.401	19335.21
507.604	19349.55
507.807	19761.19
508.009	19972.13
508.212	20351.01
508.415	20748.31
508.617	20686.87
508.82	20715.55
509.022	20703.26
509.225	21536.78
509.428	21299.22
509.63	21463.05
509.833	21630.99
510.035	22255.62
510.238	22106.12
510.44	22568.96
510.643	22771.71
510.845	22816.76
511.048	22708.22
511.25	23377.9
511.453	23158.77
511.655	24117.22
511.858	23779.31
512.06	24172.52
512.262	24338.4
512.465	24309.73
512.667	24526.82
512.87	24819.67
513.072	25159.64
513.274	25438.16
513.477	25704.4
513.679	25991.11
513.881	26261.44
514.084	26447.81
514.286	26423.23
514.488	26568.64
514.69	27228.09
514.893	27217.85
515.095	27549.62
515.297	27740.08
515.499	27989.93
515.701	28286.89
515.904	28551.07
516.106	28434.34
516.308	28860.32
516.51	29061.02
516.712	29280.15
516.914	29515.67
517.116	30062.47
517.318	29876.11
517.52	30351.24
517.722	30586.75
517.925	30699.39
518.127	31346.55
518.329	31350.65
518.531	31475.57
518.733	32132.97
518.935	31815.54
519.136	32255.85
519.338	32849.76
519.54	32796.51
519.742	33062.75
519.944	33216.35
520.146	33650.52
520.348	33859.41
520.55	34021.2
520.752	34021.2
520.954	34840.39
521.155	34600.77
521.357	35045.18
521.559	35557.17
521.761	35696.44
521.963	35925.81
522.164	35934
522.366	36142.89
522.568	36542.25
522.77	36575.02
522.971	37054.24
523.173	36693.8
523.375	37150.49
523.576	36968.23
523.778	37467.93
523.98	38121.23
524.181	37979.92
524.383	38250.25
524.584	38876.93
524.786	38500.11
524.988	38625.03
525.189	38991.62
525.391	39345.92
525.592	39642.87
525.794	39425.79
525.995	39905.01
526.197	40070.9
526.398	39898.87
526.6	40050.42
526.801	40118
527.003	40482.54
527.204	40572.65
527.406	40513.26
527.607	40677.1
527.808	40863.46
528.01	40883.94
528.211	40951.52
528.412	41696.99
528.614	41393.89
528.815	41545.44
529.016	41854.68
529.218	41631.45
529.419	41981.65
529.62	41914.07
529.822	41914.07
530.023	42151.63
530.224	42028.76
530.425	41907.93
530.626	41621.21
530.828	41873.11
531.029	42766.02
531.23	42086.1
531.431	41971.41
531.632	42522.32
531.833	42467.02
532.035	43062.98
532.236	42497.74
532.437	43069.12
532.638	42251.98
532.839	43022.02
533.04	43366.08
533.241	42333.9
533.442	43060.93
533.643	42776.26
533.844	43009.73
534.045	43224.77
534.246	42647.24
534.447	43222.72
534.648	43278.02
534.849	43398.85
535.05	42745.55
535.251	43587.26
535.451	43245.25
535.652	43566.78
535.853	42878.66
536.054	43122.37
536.255	43083.46
536.456	42585.8
536.657	43292.35
536.857	43075.27
537.058	42956.49
537.259	43108.04
537.46	43251.39
537.66	43216.58
537.861	43247.3
538.062	42847.94
538.263	43216.58
538.463	43017.92
538.664	42931.91
538.865	42946.25
539.065	43237.06
539.266	42714.83
539.466	43742.91
539.667	42923.72
539.868	43957.94
540.068	43456.19
540.269	43077.32
540.469	43308.74
540.67	42796.74
540.87	42866.38
541.071	43273.92
541.271	43427.52
541.472	43151.04
541.672	43105.99
541.873	43071.17
542.073	42299.09
542.274	43646.65
542.474	43235.01
542.675	43271.87
542.875	43435.71
543.075	43161.28
543.276	42313.42
543.476	42837.7
543.676	42917.57
543.877	42964.68
544.077	43316.93
544.277	42825.42
544.478	43019.97
544.678	42870.47
544.878	43142.85
545.078	43138.76
545.279	42839.75
545.479	42888.9
545.679	43241.15
545.879	42684.11
546.079	42929.86
546.28	43056.84
546.48	42602.19
546.68	43112.13
546.88	42823.37
547.08	42860.23
547.28	42655.43
547.48	42499.79
547.68	43007.69
547.88	42933.96
548.081	42702.54
548.281	42751.69
548.481	42628.81
548.681	42860.23
548.881	42534.6
549.081	42385.1
549.28	42438.35
549.48	42907.33
549.68	42331.86
549.88	43216.58
550.08	42438.35
550.28	42538.7
550.48	42395.34
550.68	42684.11
550.88	42061.52
551.08	42311.38
551.279	42579.66
551.479	42102.48
551.679	42931.91
551.879	42507.98
552.079	42702.54
552.278	42430.16
552.478	42671.82
552.678	42577.61
552.878	42602.19
553.077	42110.67
553.277	42430.16
553.477	42729.16
553.676	42354.38
553.876	42507.98
554.076	41854.68
554.275	41881.3
554.475	41627.35
554.674	42579.66
554.874	42176.21
555.074	41832.15
555.273	42249.94
555.473	42280.66
555.672	41883.35
555.872	41934.55
556.071	41815.77
556.271	42010.32
556.47	41563.87
556.67	41520.86
556.869	41696.99
557.068	42002.13
557.268	41754.33
557.467	41633.5
557.667	41637.59
557.866	41473.76
558.065	41291.49
558.265	41459.42
558.464	41117.41
558.663	41641.69
558.863	41064.16
559.062	41543.39
559.261	41154.27
559.461	41623.26
559.66	40976.1
559.859	41162.47
560.058	41088.74
560.258	40943.33
560.457	40730.34
560.656	40779.5
560.855	40392.43
561.054	40683.24
561.253	40814.31
561.453	40773.35
561.652	40605.42
561.851	40726.25
562.05	40038.13
562.249	40435.44
562.448	40673
562.647	40824.55
562.846	40488.68
563.045	40189.68
563.244	40138.48
563.443	40478.44
563.642	39624.44
563.841	39763.7
564.04	39806.71
564.239	40247.02
564.438	39296.77
564.637	39505.66
564.836	39796.47
565.035	39618.3
565.234	39343.87
565.432	38981.38
565.631	39104.26
565.83	39474.94
566.029	38954.75
566.228	38684.42
566.427	38829.83
566.625	38737.67
566.824	38514.44
567.023	38899.46
567.222	38217.49
567.42	38811.4
567.619	38530.83
567.818	38600.46
568.016	38586.12
568.215	38522.63
568.414	38008.59
568.612	38522.63
568.811	37900.05
569.01	38391.56
569.208	37455.64
569.407	38315.79
569.605	37433.11
569.804	37637.91
570.002	37168.93
570.201	37504.79
570.4	37050.14
570.598	37168.93
570.797	37080.86
570.995	37449.5
571.193	36745
571.392	37144.35
571.59	36665.13
571.789	36851.49
571.987	36861.73
572.186	36816.68
572.384	36478.76
572.582	36722.47
572.781	36665.13
572.979	36294.44
573.177	36241.2
573.376	36267.82
573.574	35897.14
573.772	36458.28
573.971	36179.76
574.169	35847.99
574.367	35553.08
574.565	36017.97
574.763	35589.94
574.962	35870.51
575.16	35241.79
575.358	35315.51
575.556	34961.22
575.754	35424.06
575.952	34824
576.151	35264.32
576.349	34705.22
576.547	35061.57
576.745	34864.96
576.943	34877.25
577.141	34545.48
577.339	34703.17
577.537	34547.53
577.735	34117.45
577.933	34246.47
578.131	34217.8
578.329	34101.07
578.527	33806.16
578.725	34152.27
578.923	34033.49
579.121	33689.43
579.319	33957.71
579.516	33625.94
579.714	33306.46
579.912	33288.03
580.11	33361.75
580.308	33130.33
580.506	33154.91
580.704	32624.48
580.901	33048.41
581.099	33378.14
581.297	32956.25
581.495	33083.23
581.692	32882.53
581.89	32649.06
582.088	32812.9
582.285	32227.18
582.483	32665.44
582.681	32341.86
582.878	32255.85
583.076	32180.07
583.274	32024.43
583.471	31831.92
583.669	31833.97
583.866	31819.63
584.064	31889.26
584.262	31387.51
584.459	32089.96
584.657	31301.5
584.854	31381.37
585.052	30979.96
585.249	31516.53
585.447	31358.84
585.644	30711.68
585.841	30953.34
586.039	31166.33
586.236	30488.45
586.434	30773.12
586.631	30654.34
586.828	30488.45
587.026	30476.16
587.223	30300.04
587.42	30175.11
587.618	30343.05
587.815	30001.04
588.012	30068.62
588.21	29429.65
588.407	30318.47
588.604	29900.69
588.801	29466.52
588.999	29753.23
589.196	29400.98
589.393	29689.74
589.59	29575.06
589.787	29245.34
589.984	29056.92
590.182	29081.5
590.379	29267.86
590.576	28966.81
590.773	28544.93
590.97	28759.97
591.167	28962.72
591.364	28573.6
591.561	28796.83
591.758	28145.58
591.955	28508.07
592.152	28563.36
592.349	28413.86
592.546	28123.05
592.743	28186.54
592.94	27942.83
593.137	28059.56
593.334	28151.72
593.531	27510.71
593.727	28161.96
593.924	27764.65
594.121	27617.2
594.318	27879.34
594.515	27109.3
594.712	27656.11
594.908	27283.38
595.105	27099.06
595.302	27056.06
595.499	27004.86
595.696	27092.92
595.892	26857.4
596.089	26849.21
596.286	26845.12
596.482	26724.29
596.679	26505.15
596.876	26351.56
597.072	26415.04
597.269	26351.56
597.466	26367.94
597.662	26243.01
597.859	26056.65
598.055	26068.94
598.252	25993.16
598.448	26111.94
598.645	25821.13
598.841	25636.81
599.038	25728.97
599.234	25841.61
599.431	25317.33
599.627	25417.68
599.824	25704.4
600.02	25206.74
600.217	25331.67
600.413	25145.3
600.609	24823.77
600.806	24956.89
601.002	25122.77
601.198	24641.5
601.395	24713.18
601.591	24453.09
601.787	24571.87
601.984	24369.12
602.18	24422.37
602.376	24434.66
602.572	24276.96
602.769	24227.81
602.965	24094.69
603.161	24387.55
603.357	23814.12
603.553	23932.9
603.75	23855.08
603.946	23607.28
604.142	23986.15
604.338	23623.66
604.534	23613.42
604.73	23545.84
604.926	23252.98
605.122	23541.74
605.318	23236.59
605.514	23285.75
605.71	23183.35
605.906	23136.24
606.102	23195.64
606.298	23138.29
606.494	22835.19
606.69	22894.58
606.886	22712.31
607.082	22622.2
607.278	22814.71
607.474	22579.2
607.67	22839.29
607.866	22644.73
608.062	22650.88
608.257	22433.79
608.453	22669.31
608.649	22622.2
608.845	22054.92
609.041	22020.1
609.236	22124.55
609.432	22073.35
609.628	22540.29
609.824	21966.85
610.019	22061.06
610.215	21970.95
610.411	22065.16
610.606	21919.75
610.802	22089.73
610.998	21895.18
611.193	21657.61
611.389	21571.6
611.584	21469.2
611.78	21409.81
611.976	21811.21
612.171	21770.25
612.367	21663.75
612.562	21413.9
612.758	21233.68
612.953	21047.32
613.149	21534.73
613.344	21090.32
613.539	21536.78
613.735	21248.02
613.93	21264.4
614.126	20813.85
614.321	21465.1
614.517	21307.41
614.712	20883.48
614.907	20809.75
615.103	21059.6
615.298	20709.4
615.493	21270.54
615.688	20822.04
615.884	21080.08
616.079	20856.86
616.274	20815.9
616.47	20742.17
616.665	20865.05
616.86	20514.84
617.055	20391.97
617.25	20514.84
617.445	21114.9
617.641	20211.74
617.836	20432.93
618.031	19986.47
618.226	20283.42
618.421	20348.96
618.616	20617.24
618.811	19853.35
619.006	20142.11
619.201	19877.93
619.396	19947.56
619.591	19564.59
619.786	19871.78
619.981	19378.22
620.176	19615.79
620.371	19355.69
620.566	19306.54
620.761	19181.62
620.956	19511.34
621.151	18866.23
621.346	19408.94
621.541	18829.37
621.735	19128.37
621.93	18563.13
622.125	18796.6
622.32	18350.14
622.515	18483.26
622.709	18448.44
622.904	18421.82
623.099	18405.44
623.294	18157.63
623.488	17958.98
623.683	18346.05
623.878	17782.85
624.072	18004.03
624.267	17627.21
624.462	17586.25
624.656	17479.75
624.851	17504.33
625.046	17330.25
625.24	17518.67
625.435	17231.95
625.629	17086.54
625.824	16767.06
626.018	16775.25
626.213	16799.83
626.407	16803.92
626.602	16509.02
626.796	16435.29
626.991	16838.74
627.185	16228.45
627.38	16197.73
627.574	16273.5
627.768	15892.58
627.963	15970.4
628.157	15749.22
628.352	16152.67
628.546	15743.08
628.74	15755.36
628.935	15566.95
629.129	15599.72
629.323	15341.68
629.517	15405.16
629.712	15202.41
629.906	15261.8
630.1	15073.39
630.294	14927.99
630.489	14762.1
630.683	15011.95
630.877	14954.61
631.071	14614.65
631.265	14749.81
631.459	14614.65
631.653	14385.27
631.848	14295.16
632.042	14071.93
632.236	14403.71
632.43	13881.47
632.624	14297.21
632.818	14102.65
633.012	13934.72
633.206	13752.45
633.4	13817.99
633.594	13803.65
633.788	13617.29
633.982	13641.86
634.176	13473.93
634.369	13457.54
634.563	13363.34
634.757	13373.58
634.951	13273.23
635.145	13140.11
635.339	13478.02
635.533	13009.04
635.726	12847.25
635.92	12767.38
636.114	12857.49
636.308	12673.17
636.501	12728.47
636.695	12888.21
636.889	12654.74
637.083	12603.54
637.276	12488.85
637.47	12433.56
637.664	12230.81
637.857	12210.33
638.051	12458.14
638.244	11929.76
638.438	12023.97
638.632	12066.97
638.825	11946.14
639.019	11755.68
639.212	11661.48
639.406	11708.58
639.599	11792.55
639.793	11813.03
639.986	11327.66
640.18	11540.65
640.373	11597.99
640.567	11511.97
640.76	11520.17
640.954	11196.59
641.147	11548.84
641.34	10963.12
641.534	11129
641.727	11040.94
641.92	11088.04
642.114	10797.23
642.307	10999.98
642.5	10836.14
642.694	10588.34
642.887	10737.84
643.08	10668.21
643.273	10617.01
643.467	10707.12
643.66	10514.61
643.853	10463.41
644.046	10166.46
644.239	10371.26
644.432	10184.89
644.626	10094.78
644.819	10113.21
645.012	9973.95
645.205	10049.72
645.398	9955.52
645.591	9904.32
645.784	9951.42
645.977	9844.93
646.17	9853.12
646.363	9793.73
646.556	9720
646.749	9529.54
646.942	9615.55
647.135	9570.5
647.328	9521.35
647.521	9425.09
647.714	9095.37
647.907	9533.64
648.099	9380.04
648.292	9394.37
648.485	9285.83
648.678	8980.68
648.871	9324.74
649.064	8878.29
649.256	9019.6
649.449	8958.16
649.642	8888.53
649.835	8820.94
650.027	8726.74
650.22	8853.71
650.413	8734.93
650.605	8700.11
650.798	8634.58
650.991	8620.24
651.183	8571.09
651.376	8540.37
651.568	8503.51
651.761	8435.92
651.954	8292.57
652.146	8489.17
652.339	8388.82
652.531	8440.02
652.724	8224.98
652.916	7915.74
653.109	8005.85
653.301	8055
653.494	7977.18
653.686	7825.63
653.879	8067.29
654.071	7956.7
654.263	7938.27
654.456	7932.12
654.648	7821.53
654.84	7764.19
655.033	7631.07
655.225	7655.65
655.417	7467.24
655.61	7684.32
655.802	7512.29
655.994	7444.71
656.186	7459.04
656.379	7418.08
656.571	7340.26
656.763	7284.97
656.955	7246.05
657.148	7348.45
657.34	7182.57
657.532	7045.35
657.724	7086.31
657.916	6985.96
658.108	6975.72
658.3	7037.16
658.492	6949.1
658.684	6998.25
658.876	6850.8
659.068	6883.56
659.26	6807.79
659.452	6865.13
659.644	6748.4
659.836	6762.73
660.028	6863.08
660.22	6469.87
660.412	6742.25
660.604	6652.14
660.796	6705.39
660.988	6635.76
661.18	6555.89
661.372	6609.14
661.563	6476.02
661.755	6271.22
661.947	6406.39
662.139	6275.32
662.331	6351.09
662.522	6203.64
662.714	6418.68
662.906	6416.63
663.097	6281.46
663.289	6170.87
663.481	6213.88
663.673	6041.85
663.864	6054.14
664.056	6170.87
664.247	6064.38
664.439	6039.8
664.631	6127.86
664.822	5863.68
665.014	5986.55
665.205	6025.47
665.397	5964.03
665.588	5808.38
665.78	5753.09
665.971	5910.78
666.163	5761.28
666.354	5738.75
666.546	5648.64
666.737	5718.27
666.929	5687.55
667.12	5525.76
667.311	5638.4
667.503	5433.6
667.694	5671.17
667.885	5595.39
668.077	5441.79
668.268	5392.64
668.459	5486.85
668.651	5357.83
668.842	5449.99
669.033	5206.28
669.224	5216.52
669.416	5370.12
669.607	5282.05
669.798	5150.98
669.989	5232.9
670.18	5298.44
670.371	5443.84
670.563	5136.65
670.754	5214.47
670.945	5083.4
671.136	5054.73
671.327	5120.26
671.518	5062.92
671.709	5093.64
671.9	5187.85
672.091	4872.46
672.282	5165.32
672.473	4845.84
672.664	4993.29
672.855	4954.38
673.046	5005.58
673.237	4960.52
673.428	4806.92
673.619	4817.16
673.809	4829.45
674	4851.98
674.191	4948.23
674.382	4806.92
674.573	4831.5
674.764	4768.01
674.954	4688.14
675.145	4573.46
675.336	4815.12
675.527	4753.68
675.717	4698.38
675.908	4665.61
676.099	4718.86
676.289	4710.67
676.48	4745.48
676.671	4708.62
676.861	4618.51
677.052	4634.89
677.243	4608.27
677.433	4737.29
677.624	4682
677.814	4548.88
678.005	4610.32
678.195	4538.64
678.386	4479.25
678.576	4585.74
678.767	4389.14
678.957	4600.08
679.148	4591.89
679.338	4495.63
679.529	4475.15
679.719	4456.72
679.909	4487.44
680.1	4440.34
680.29	4483.34
680.481	4264.21
680.671	4401.43
680.861	4426
681.052	4487.44
681.242	4282.64
681.432	4376.85
681.622	4405.52
681.813	4489.49
682.003	4299.03
682.193	4198.68
682.383	4376.85
682.573	4221.2
682.764	4241.68
682.954	4251.92
683.144	4329.75
683.334	4077.85
683.524	4450.58
683.714	4241.68
683.904	4362.51
684.094	4159.77
684.284	4217.11
684.474	4311.32
684.664	4319.51
684.854	4172.05
685.044	4188.44
685.234	3977.5
685.424	4186.39
685.614	4110.61
685.804	4215.06
685.994	4049.18
686.184	4038.94
686.374	4000.02
686.564	4002.07
686.753	3948.83
686.943	3858.71
687.133	3985.69
687.323	3819.8
687.513	3897.63
687.702	3840.28
687.892	3856.67
688.082	3991.83
688.272	3887.39
688.461	3987.74
688.651	3838.23
688.841	3750.17
689.03	3909.91
689.22	3662.11
689.41	3840.28
689.599	3631.39
689.789	3711.26
689.979	3641.63
690.168	3678.49
690.358	3668.25
690.547	3664.16
690.737	3477.79
690.926	3694.88
691.116	3629.34
691.305	3696.92
691.495	3580.19
691.684	3565.85
691.874	3762.46
692.063	3545.38
692.252	3545.38
692.442	3504.42
692.631	3471.65
692.82	3518.75
693.01	3438.88
693.199	3336.48
693.388	3457.31
693.578	3381.54
693.767	3275.04
693.956	3346.72
694.146	3340.58
694.335	3320.1
694.524	3242.28
694.713	3281.19
694.902	3316
695.092	3363.11
695.281	3336.48
695.47	3318.05
695.659	3209.51
695.848	3309.86
696.037	3164.45
696.226	3340.58
696.415	3316
696.604	3229.99
696.793	3291.43
696.982	3250.47
697.171	3201.32
697.36	3201.32
697.549	3221.8
697.738	3221.8
697.927	3168.55
698.116	3262.76
698.305	3131.69
698.494	3176.74
698.683	3219.75
698.872	3143.97
699.061	3119.4
699.25	3113.25
699.438	3055.91
699.627	3209.51
699.816	3103.01
700.005	3115.3
700.193	3098.92
700.382	3189.03
700.571	3213.6
700.76	3084.58
700.948	3074.34
701.137	3062.05
701.326	3049.77
701.514	3098.92
701.703	3010.86
701.892	3158.31
702.08	3047.72
702.269	3055.91
702.457	2963.75
702.646	3164.45
702.834	3078.44
703.023	2969.9
703.212	3049.77
703.4	3047.72
703.589	3127.59
703.777	3051.81
703.965	2992.42
704.154	3012.9
704.342	3057.96
704.531	3035.43
704.719	2961.7
704.907	2963.75
705.096	2937.13
705.284	2963.75
705.472	2984.23
705.661	2963.75
705.849	3100.97
706.037	3076.39
706.226	2965.8
706.414	2928.94
706.602	2976.04
706.79	3082.53
706.979	2935.08
707.167	2994.47
707.355	3004.71
707.543	2924.84
707.731	2947.37
707.919	2914.6
708.107	2969.9
708.296	2922.79
708.484	2920.74
708.672	2842.92
708.86	2914.6
709.048	2988.33
709.236	3014.95
709.424	3010.86
709.612	2890.03
709.8	2953.51
709.988	2986.28
710.176	3049.77
710.364	3027.24
710.551	2971.94
710.739	3025.19
710.927	3004.71
711.115	3023.14
711.303	2920.74
711.491	2959.66
711.679	3017
711.866	2863.4
712.054	3057.96
712.242	2928.94
712.43	2943.27
712.617	2814.25
712.805	3033.38
712.993	2937.13
713.181	2912.55
713.368	3125.54
713.556	2959.66
713.744	3035.43
713.931	2947.37
714.119	2785.58
714.306	2885.93
714.494	2945.32
714.682	2900.27
714.869	2873.64
715.057	2941.22
715.244	2910.5
715.432	2939.18
715.619	2994.47
715.807	2842.92
715.994	2947.37
716.182	2881.83
716.369	2939.18
716.556	3055.91
716.744	2881.83
716.931	2992.42
717.119	2959.66
717.306	3002.66
717.493	2949.42
717.681	2908.46
717.868	2918.7
718.055	2965.8
718.242	2824.49
718.43	2959.66
718.617	2951.46
718.804	2785.58
718.991	2961.7
719.179	2883.88
719.366	2914.6
719.553	2978.09
719.74	2961.7
719.927	2861.35
720.114	2894.12
720.301	2754.86
720.488	2969.9
720.676	2982.18
720.863	3033.38
721.05	2900.27
721.237	3055.91
721.424	2969.9
721.611	2994.47
721.798	2918.7
721.985	2806.06
722.172	2865.45
722.358	2883.88
722.545	2873.64
722.732	2769.2
722.919	2869.55
723.106	3008.81
723.293	2930.98
723.48	2930.98
723.667	2900.27
723.853	2930.98
724.04	2883.88
724.227	2973.99
724.414	2949.42
724.6	2908.46
724.787	2969.9
724.974	3047.72
725.161	3039.53
725.347	2756.91
725.534	2924.84
725.72	2967.85
725.907	2828.59
726.094	2984.23
726.28	3021.1
726.467	2943.27
726.653	2984.23
726.84	2914.6
727.027	2982.18
727.213	2828.59
727.4	3113.25
727.586	2935.08
727.773	3033.38
727.959	2881.83
728.145	2773.29
728.332	2871.59
728.518	2834.73
728.705	2973.99
728.891	2863.4
729.077	2918.7
729.264	2916.65
729.45	2855.21
729.636	2994.47
729.823	2754.86
730.009	2900.27
730.195	2980.14
730.382	2896.17
730.568	2863.4
730.754	2799.91
730.94	2881.83
731.126	2912.55
731.313	2853.16
731.499	2910.5
731.685	2840.87
731.871	2867.5
732.057	2910.5
732.243	2859.31
732.429	2908.46
732.615	2881.83
732.801	2906.41
732.987	2883.88
733.173	2863.4
733.359	2859.31
733.545	2914.6
733.731	2814.25
733.917	2795.82
734.103	2822.44
734.289	2793.77
734.475	2818.35
734.661	2980.14
734.847	2916.65
735.033	2875.69
735.219	2826.54
735.404	2849.07
735.59	2859.31
735.776	2847.02
735.962	2867.5
736.148	2797.87
736.333	2881.83
736.519	2763.05
736.705	2863.4
736.89	2715.95
737.076	2814.25
737.262	2767.15
737.447	2730.28
737.633	2726.19
737.819	2720.04
738.004	2640.17
738.19	2672.94
738.375	2728.24
738.561	2857.26
738.747	2781.48
738.932	2761
739.118	2724.14
739.303	2656.56
739.489	2681.13
739.674	2588.97
739.859	2711.85
740.045	2621.74
740.23	2615.6
740.416	2588.97
740.601	2621.74
740.786	2644.27
740.972	2666.8
741.157	2556.21
741.342	2586.93
741.528	2763.05
741.713	2650.41
741.898	2564.4
742.084	2560.3
742.269	2621.74
742.454	2584.88
742.639	2560.3
742.824	2636.08
743.01	2674.99
743.195	2486.58
743.38	2634.03
743.565	2492.72
743.75	2537.77
743.935	2490.67
744.12	2605.36
744.305	2437.42
744.49	2462
744.675	2505.01
744.86	2552.11
745.045	2433.33
745.23	2564.4
745.415	2371.89
745.6	2392.37
745.785	2416.94
745.97	2343.22
746.155	2421.04
746.34	2365.75
746.525	2361.65
746.71	2347.31
746.895	2388.27
747.079	2332.98
747.264	2220.34
747.449	2228.53
747.634	2165.04
747.819	2320.69
748.003	2269.49
748.188	2191.67
748.373	2210.1
748.557	2234.68
748.742	2113.85
748.927	2144.56
749.111	2148.66
749.296	2122.04
749.481	2158.9
749.665	1993.01
749.85	2064.69
750.034	2040.12
750.219	1997.11
750.404	2079.03
750.588	2085.17
750.773	2046.26
750.957	1939.77
751.141	1937.72
751.326	1990.97
751.51	1972.54
751.695	2064.69
751.879	1911.1
752.064	2005.3
752.248	1870.14
752.432	1956.15
752.617	1835.32
752.801	1827.13
752.985	1780.03
753.17	1921.34
753.354	1855.8
753.538	1859.9
753.722	1775.93
753.907	1820.99
754.091	1820.99
754.275	1825.08
754.459	1706.3
754.643	1810.75
754.828	1722.68
755.012	1777.98
755.196	1726.78
755.38	1659.2
755.564	1608
755.748	1683.77
755.932	1640.76
756.116	1696.06
756.3	1597.76
756.484	1651
756.668	1636.67
756.852	1581.37
757.036	1696.06
757.22	1544.51
757.404	1603.9
757.588	1544.51
757.772	1528.13
757.956	1524.03
758.14	1495.36
758.323	1440.06
758.507	1415.49
758.691	1546.56
758.875	1542.46
759.059	1419.58
759.242	1450.3
759.426	1454.4
759.61	1458.5
759.794	1390.91
759.977	1423.68
760.161	1470.78
760.345	1495.36
760.528	1352
760.712	1333.57
760.895	1313.09
761.079	1409.34
761.263	1282.37
761.446	1349.95
761.63	1401.15
761.813	1376.58
761.997	1280.32
762.18	1313.09
762.364	1278.27
762.547	1304.9
762.731	1331.52
762.914	1376.58
763.098	1257.79
763.281	1280.32
763.464	1214.79
763.648	1311.04
763.831	1313.09
764.015	1237.31
764.198	1302.85
764.381	1241.41
764.564	1233.22
764.748	1288.51
764.931	1229.12
765.114	1239.36
765.297	1233.22
765.481	1272.13
765.664	1151.3
765.847	1210.69
766.03	1132.87
766.213	1182.02
766.397	1222.98
766.58	1169.73
766.763	1235.27
766.946	1118.53
767.129	1079.62
767.312	1042.76
767.495	1145.16
767.678	1196.36
767.861	1145.16
768.044	1098.05
768.227	1098.05
768.41	1120.58
768.593	1134.92
768.776	1071.43
768.959	1190.21
769.142	1104.2
769.324	1112.39
769.507	1087.81
769.69	1132.87
769.873	1065.29
770.056	1108.29
770.239	1050.95
770.421	1136.96
770.604	1106.24
770.787	1063.24
770.97	1089.86
771.152	1032.52
771.335	1063.24
771.518	1059.14
771.7	1091.91
771.883	1001.8
772.066	952.65
772.248	1034.57
772.431	1018.18
772.613	1005.89
772.796	942.41
772.978	930.12
773.161	987.46
773.343	1018.18
773.526	1063.24
773.708	979.27
773.891	934.22
774.073	932.17
774.256	874.82
774.438	907.59
774.621	878.92
774.803	979.27
774.985	880.97
775.168	905.54
775.35	895.3
775.532	874.82
775.715	756.04
775.897	872.78
776.079	905.54
776.261	870.73
776.444	897.35
776.626	831.82
776.808	766.28
776.99	778.57
777.173	848.2
777.355	807.24
777.537	831.82
777.719	792.91
777.901	770.38
778.083	827.72
778.265	817.48
778.447	831.82
778.629	866.63
778.811	778.57
778.993	727.37
779.175	749.9
779.357	735.56
779.539	725.32
779.721	778.57
779.903	772.43
780.085	753.99
780.267	778.57
780.449	676.17
780.631	684.36
780.812	727.37
780.994	684.36
781.176	739.66
781.358	653.64
781.54	680.27
781.721	692.55
781.903	573.77
782.085	680.27
782.267	694.6
782.448	643.4
782.63	655.69
782.812	657.74
782.993	559.44
783.175	551.24
783.357	600.4
783.538	602.44
783.72	575.82
783.901	620.88
784.083	579.92
784.264	500.05
784.446	579.92
784.627	569.68
784.809	612.68
784.99	514.38
785.172	614.73
785.353	606.54
785.535	549.2
785.716	663.88
785.897	467.28
786.079	532.81
786.26	514.38
786.441	500.05
786.623	495.95
786.804	495.95
786.985	504.14
787.167	506.19
787.348	538.96
787.529	471.37
787.71	510.29
787.891	393.55
788.073	502.09
788.254	422.22
788.435	551.24
788.616	391.5
788.797	485.71
788.978	444.75
789.159	491.85
789.34	514.38
789.522	463.18
789.703	446.8
789.884	418.13
790.065	452.94
790.246	438.61
790.427	379.22
790.607	530.77
790.788	483.66
790.969	418.13
791.15	461.13
791.331	399.7
791.512	364.88
791.693	409.94
791.874	416.08
792.054	467.28
792.235	381.26
792.416	387.41
792.597	362.83
792.778	358.74
792.958	348.5
793.139	379.22
793.32	422.22
793.5	373.07
793.681	475.47
793.862	405.84
794.042	305.49
794.223	352.59
794.404	299.34
794.584	348.5
794.765	407.89
794.945	315.73
795.126	409.94
795.306	377.17
795.487	381.26
795.667	274.77
795.848	299.34
796.028	387.41
796.209	399.7
796.389	293.2
796.57	311.63
796.75	311.63
796.93	362.83
797.111	270.67
797.291	295.25
797.471	309.58
797.652	268.63
797.832	301.39
798.012	332.11
798.192	192.85
798.373	237.91
798.553	305.49
798.733	366.93
798.913	260.43
799.093	219.47
799.274	235.86
799.454	266.58
799.634	305.49
799.814	344.4
799.994	260.43
800.174	293.2
800.354	299.34
800.534	287.06
800.714	352.59
800.894	244.05
801.074	239.95
801.254	336.21
801.434	307.54
801.614	233.81
801.794	244.05
801.974	686.41
802.154	246.1
802.334	307.54
802.514	254.29
802.693	350.54
802.873	229.71
803.053	264.53
803.233	274.77
803.413	244.05
803.592	295.25
803.772	203.09
803.952	266.58
804.131	188.75
804.311	264.53
804.491	213.33
804.67	272.72
804.85	276.82
805.03	231.76
805.209	264.53
805.389	239.95
805.568	178.51
805.748	244.05
805.928	198.99
806.107	201.04
806.287	196.95
806.466	289.1
806.646	293.2
806.825	256.34
807.004	211.28
807.184	278.87
807.363	211.28
807.543	223.57
807.722	291.15
807.901	244.05
808.081	252.24
808.26	186.71
808.439	207.19
808.619	198.99
808.798	215.38
808.977	219.47
809.156	215.38
809.336	237.91
809.515	172.37
809.694	174.42
809.873	180.56
810.052	178.51
810.231	160.08
810.411	176.47
810.59	176.47
810.769	211.28
810.948	219.47
811.127	219.47
811.306	168.27
811.485	215.38
811.664	201.04
811.843	141.65
812.022	127.32
812.201	205.14
812.38	211.28
812.559	164.18
812.737	190.8
812.916	108.88
813.095	153.94
813.274	215.38
813.453	178.51
813.632	180.56
813.811	160.08
813.989	135.51
814.168	127.32
814.347	155.99
814.526	201.04
814.704	192.85
814.883	246.1
815.062	133.46
815.24	192.85
815.419	205.14
815.598	192.85
815.776	155.99
815.955	100.69
816.133	174.42
816.312	141.65
816.49	151.89
816.669	145.75
816.847	119.12
817.026	160.08
817.204	180.56
817.383	92.5
817.561	151.89
817.74	145.75
817.918	137.56
818.097	145.75
818.275	29.01
818.453	153.94
818.632	190.8
818.81	96.6
818.988	151.89
819.167	166.23
819.345	139.6
819.523	174.42
819.701	115.03
819.879	137.56
820.058	155.99
820.236	139.6
820.414	137.56
820.592	135.51
820.77	123.22
820.948	172.37
821.127	135.51
821.305	176.47
821.483	102.74
821.661	180.56
821.839	166.23
822.017	119.12
822.195	178.51
822.373	141.65
822.551	100.69
822.729	112.98
822.907	67.92
823.085	43.35
823.262	115.03
823.44	80.21
823.618	84.31
823.796	162.13
823.974	49.49
824.152	53.59
824.329	186.71
824.507	155.99
824.685	158.03
824.863	133.46
825.04	121.17
825.218	168.27
825.396	92.5
825.574	172.37
825.751	121.17
825.929	153.94
826.107	104.79
826.284	102.74
826.462	90.45
826.639	178.51
826.817	80.21
826.994	115.03
827.172	65.88
827.349	108.88
827.527	104.79
827.704	129.36
827.882	225.62
828.059	123.22
828.237	104.79
828.414	94.55
828.591	143.7
828.769	45.4
828.946	106.84
829.124	131.41
829.301	184.66
829.478	74.07
829.655	100.69
829.833	39.25
830.01	86.36
830.187	125.27
830.364	88.4
830.542	131.41
830.719	196.95
830.896	74.07
831.073	121.17
831.25	59.73
831.427	155.99
831.604	102.74
831.782	96.6
831.959	43.35
832.136	8.53
832.313	139.6
832.49	84.31
832.667	129.36
832.844	84.31
833.021	96.6
833.198	31.06
833.374	100.69
833.551	92.5
833.728	29.01
833.905	74.07
834.082	90.45
834.259	121.17
834.436	117.08
834.612	106.84
834.789	164.18
834.966	88.4
835.143	117.08
835.319	35.16
835.496	31.06
835.673	78.16
835.85	80.21
836.026	123.22
836.203	139.6
836.38	80.21
836.556	45.4
836.733	108.88
836.909	110.93
837.086	35.16
837.262	43.35
837.439	43.35
837.616	98.64
837.792	41.3
837.968	129.36
838.145	6.49
838.321	137.56
838.498	84.31
838.674	47.44
838.851	74.07
839.027	121.17
839.203	104.79
839.38	67.92
839.556	18.77
839.732	125.27
839.909	45.4
840.085	78.16
840.261	57.68
840.437	110.93
840.614	65.88
840.79	92.5
840.966	-16.04
841.142	82.26
841.318	59.73
841.494	61.78
841.671	92.5
841.847	80.21
842.023	6.49
842.199	67.92
842.375	119.12
842.551	14.68
842.727	51.54
842.903	115.03
843.079	41.3
843.255	4.44
843.431	57.68
843.607	18.77
843.783	53.59
843.959	0.34
844.134	59.73
844.31	78.16
844.486	-5.8
844.662	59.73
844.838	14.68
845.013	35.16
845.189	63.83
845.365	78.16
845.541	129.36
845.716	63.83
845.892	92.5
846.068	33.11
846.244	61.78
846.419	102.74
846.595	22.87
846.77	121.17
846.946	47.44
847.122	-36.52
847.297	31.06
847.473	67.92
847.648	65.88
847.824	41.3
847.999	41.3
848.175	41.3
848.35	41.3
848.526	69.97
848.701	155.99
848.876	82.26
849.052	41.3
849.227	92.5
849.403	0.34
849.578	47.44
849.753	29.01
849.929	51.54
850.104	8.53
850.279	31.06
850.454	51.54
850.63	-7.85
850.805	84.31
850.98	37.2
851.155	72.02
851.33	94.55
851.505	57.68
851.681	96.6
851.856	-11.95
852.031	14.68
852.206	119.12
852.381	-5.8
852.556	31.06
852.731	88.4
852.906	90.45
853.081	-11.95
853.256	31.06
853.431	84.31
853.606	88.4
853.781	26.96
853.956	-13.99
854.131	63.83
854.305	6.49
854.48	76.12
854.655	-26.28
854.83	-69.29
855.005	-5.8
855.18	-16.04
855.354	45.4
855.529	43.35
855.704	45.4
855.879	37.2
856.053	-38.57
856.228	96.6
856.403	-63.15
856.577	63.83
856.752	35.16
856.926	39.25
857.101	31.06
857.276	94.55
857.45	-24.23
857.625	67.92
857.799	33.11
857.974	55.64
858.148	37.2
858.323	39.25
858.497	72.02
858.672	8.53
858.846	-7.85
859.02	74.07
859.195	51.54
859.369	51.54
859.543	-18.09
859.718	35.16
859.892	45.4
860.066	10.58
860.241	22.87
860.415	14.68
860.589	20.82
860.763	63.83
860.938	43.35
861.112	12.63
861.286	24.92
861.46	24.92
861.634	22.87
861.808	78.16
861.982	-16.04
862.157	39.25
862.331	51.54
862.505	8.53
862.679	4.44
862.853	-18.09
863.027	39.25
863.201	0.34
863.375	-28.33
863.549	22.87
863.722	47.44
863.896	45.4
864.07	-3.75
864.244	-9.9
864.418	-61.1
864.592	82.26
864.766	37.2
864.939	74.07
865.113	10.58
865.287	26.96
865.461	-5.8
865.634	59.73
865.808	-46.76
865.982	47.44
866.156	-52.91
866.329	-71.34
866.503	-9.9
866.676	26.96
866.85	33.11
867.024	47.44
867.197	112.98
867.371	45.4
867.544	29.01
867.718	24.92
867.891	55.64
868.065	61.78
868.238	41.3
868.412	88.4
868.585	-7.85
868.759	2.39
868.932	26.96
869.105	-1.71
869.279	26.96
869.452	43.35
869.625	37.2
869.799	-1.71
869.972	29.01
870.145	6.49
870.319	31.06
870.492	-3.75
870.665	-32.43
870.838	84.31
871.011	-30.38
871.185	-11.95
871.358	-34.47
871.531	47.44
871.704	31.06
871.877	14.68
872.05	47.44
872.223	-73.39
872.396	67.92
872.569	31.06
872.742	-24.23
872.915	26.96
873.088	16.73
873.261	45.4
873.434	22.87
873.607	12.63
873.78	98.64
873.953	26.96
874.126	-5.8
874.299	65.88
874.471	-42.67
874.644	6.49
874.817	35.16
874.99	45.4
875.163	-38.57
875.335	37.2
875.508	20.82
875.681	8.53
875.853	-83.63
876.026	-24.23
876.199	24.92
876.371	22.87
876.544	6.49
876.717	22.87
876.889	31.06
877.062	16.73
877.234	20.82
877.407	76.12
877.579	0.34
877.752	-16.04
877.924	18.77
878.097	18.77
878.269	39.25
878.442	-22.19
878.614	-18.09
878.786	-16.04
878.959	26.96
879.131	-5.8
879.303	-54.95
879.476	24.92
879.648	53.59
879.82	0.34
879.993	22.87
880.165	69.97
880.337	0.34
880.509	51.54
880.681	-30.38
880.854	-63.15
881.026	43.35
881.198	31.06
881.37	33.11
881.542	31.06
881.714	-9.9
881.886	39.25
882.058	-3.75
882.23	33.11
882.402	20.82
882.574	29.01
882.746	31.06
882.918	-26.28
883.09	96.6
883.262	-1.71
883.434	20.82
883.606	74.07
883.778	-22.19
883.95	51.54
884.122	-57
884.293	65.88
884.465	84.31
884.637	59.73
884.809	-34.47
884.98	57.68
885.152	72.02
885.324	45.4
885.496	22.87
885.667	55.64
885.839	84.31
886.011	4.44
886.182	6.49
886.354	8.53
886.525	4.44
886.697	-16.04
886.869	53.59
887.04	33.11
887.212	-1.71
887.383	84.31
887.555	-67.24
887.726	-1.71
887.897	35.16
888.069	-13.99
888.24	4.44
888.412	69.97
888.583	-9.9
888.754	29.01
888.926	4.44
889.097	33.11
889.268	12.63
889.44	57.68
889.611	33.11
889.782	-3.75
889.953	-5.8
890.125	31.06
890.296	4.44
890.467	4.44
890.638	8.53
890.809	-3.75
890.98	-38.57
891.151	-38.57
891.323	-11.95
891.494	22.87
891.665	-13.99
891.836	12.63
892.007	-13.99
892.178	37.2
892.349	39.25
892.52	-9.9
892.691	-18.09
892.862	-26.28
893.032	-54.95
893.203	12.63
893.374	-9.9
893.545	10.58
893.716	-13.99
893.887	-11.95
894.057	61.78
894.228	-26.28
894.399	53.59
894.57	82.26
894.74	-5.8
894.911	-11.95
895.082	4.44
895.253	10.58
895.423	14.68
895.594	-13.99
895.764	22.87
895.935	33.11
896.106	-36.52
896.276	63.83
896.447	-22.19
896.617	-3.75
896.788	65.88
896.958	10.58
897.129	4.44
897.299	-13.99
897.47	-38.57
897.64	55.64
897.81	-40.62
897.981	43.35
898.151	-3.75
898.322	51.54
898.492	-9.9
898.662	8.53
898.832	16.73
899.003	18.77
899.173	43.35
899.343	-18.09
899.513	98.64
