Data from USB4F104151__74__11-52-40-861.txt Node

Date: Fri Mar 14 11:52:40 EDT 2025
User: louis
Spectrometer: USB4F10415
Trigger mode: 4
Integration Time (sec): 2.000000E-2
Scans to average: 1
Electric dark correction enabled: true
Nonlinearity correction enabled: false
Boxcar width: 0
XAxis mode: Wavelengths
Number of Pixels in Spectrum: 3648
>>>>>Begin Spectral Data<<<<<
178.204	-23.21
178.424	-23.21
178.644	-23.21
178.864	-39.59
179.084	-80.55
179.304	-17.07
179.524	-10.92
179.744	17.75
179.964	21.85
180.184	-12.97
180.404	7.51
180.624	23.89
180.844	34.13
181.064	13.65
181.283	5.46
181.503	-66.22
181.723	-17.07
181.943	-33.45
182.163	23.89
182.383	-23.21
182.602	87.38
182.822	66.9
183.042	17.75
183.262	-8.87
183.482	21.85
183.701	-70.31
183.921	54.61
184.141	7.51
184.361	21.85
184.58	-0.68
184.8	-0.68
185.02	17.75
185.239	44.37
185.459	-15.02
185.679	-0.68
185.898	-31.4
186.118	9.56
186.338	50.52
186.557	25.94
186.777	34.13
186.997	-49.83
187.216	-2.73
187.436	50.52
187.655	-10.92
187.875	56.66
188.095	-41.64
188.314	85.33
188.534	54.61
188.753	25.94
188.973	-27.31
189.192	93.52
189.412	17.75
189.631	81.24
189.851	42.32
190.07	66.9
190.29	30.04
190.509	40.28
190.729	-12.97
190.948	-10.92
191.168	58.71
191.387	50.52
191.607	56.66
191.826	71
192.045	-51.88
192.265	73.04
192.484	-19.11
192.704	44.37
192.923	21.85
193.142	23.89
193.362	9.56
193.581	-12.97
193.8	40.28
194.02	48.47
194.239	36.18
194.458	30.04
194.678	-47.79
194.897	-6.83
195.116	21.85
195.335	52.56
195.555	30.04
195.774	-43.69
195.993	64.85
196.212	7.51
196.432	42.32
196.651	50.52
196.87	-15.02
197.089	85.33
197.308	-37.55
197.528	-4.78
197.747	-47.79
197.966	-68.27
198.185	-0.68
198.404	-105.13
198.623	-2.73
198.842	1.37
199.062	-6.83
199.281	134.48
199.5	-6.83
199.719	13.65
199.938	32.08
200.157	25.94
200.376	-33.45
200.595	25.94
200.814	15.7
201.033	-6.83
201.252	42.32
201.471	-41.64
201.69	25.94
201.909	46.42
202.128	56.66
202.347	60.76
202.566	-10.92
202.785	30.04
203.004	5.46
203.223	58.71
203.442	-6.83
203.661	-41.64
203.879	17.75
204.098	-4.78
204.317	-0.68
204.536	-8.87
204.755	11.61
204.974	-10.92
205.193	-41.64
205.411	48.47
205.63	3.41
205.849	97.62
206.068	23.89
206.287	-4.78
206.505	-4.78
206.724	11.61
206.943	1.37
207.162	-0.68
207.381	34.13
207.599	42.32
207.818	-4.78
208.037	50.52
208.255	32.08
208.474	83.28
208.693	3.41
208.911	73.04
209.13	23.89
209.349	40.28
209.567	-53.93
209.786	19.8
210.005	-4.78
210.223	34.13
210.442	13.65
210.661	-33.45
210.879	48.47
211.098	19.8
211.316	-21.16
211.535	7.51
211.753	-23.21
211.972	52.56
212.191	-23.21
212.409	3.41
212.628	38.23
212.846	54.61
213.065	-15.02
213.283	46.42
213.502	11.61
213.72	-23.21
213.938	3.41
214.157	5.46
214.375	-12.97
214.594	-37.55
214.812	-4.78
215.031	-6.83
215.249	54.61
215.467	48.47
215.686	-23.21
215.904	3.41
216.122	44.37
216.341	142.68
216.559	62.8
216.778	64.85
216.996	38.23
217.214	7.51
217.432	30.04
217.651	25.94
217.869	40.28
218.087	50.52
218.306	21.85
218.524	1.37
218.742	-60.07
218.96	27.99
219.179	83.28
219.397	-2.73
219.615	44.37
219.833	1.37
220.051	42.32
220.27	-29.35
220.488	66.9
220.706	17.75
220.924	-17.07
221.142	34.13
221.36	-12.97
221.578	44.37
221.796	34.13
222.015	-64.17
222.233	44.37
222.451	25.94
222.669	50.52
222.887	34.13
223.105	21.85
223.323	7.51
223.541	-6.83
223.759	-8.87
223.977	36.18
224.195	-4.78
224.413	40.28
224.631	17.75
224.849	48.47
225.067	9.56
225.285	-2.73
225.503	-49.83
225.721	11.61
225.939	68.95
226.157	-23.21
226.375	34.13
226.592	13.65
226.81	-15.02
227.028	13.65
227.246	87.38
227.464	83.28
227.682	44.37
227.9	-51.88
228.117	46.42
228.335	30.04
228.553	-0.68
228.771	-4.78
228.989	46.42
229.206	-8.87
229.424	27.99
229.642	-33.45
229.86	62.8
230.077	25.94
230.295	42.32
230.513	-53.93
230.731	71
230.948	-4.78
231.166	21.85
231.384	3.41
231.601	7.51
231.819	68.95
232.037	-6.83
232.254	11.61
232.472	5.46
232.689	-10.92
232.907	30.04
233.125	-6.83
233.342	15.7
233.56	1.37
233.777	-6.83
233.995	81.24
234.213	44.37
234.43	-39.59
234.648	-4.78
234.865	-27.31
235.083	19.8
235.3	-0.68
235.518	15.7
235.735	62.8
235.953	73.04
236.17	13.65
236.388	58.71
236.605	-4.78
236.822	9.56
237.04	44.37
237.257	-23.21
237.475	1.37
237.692	21.85
237.909	17.75
238.127	75.09
238.344	1.37
238.562	-29.35
238.779	7.51
238.996	36.18
239.214	3.41
239.431	42.32
239.648	-41.64
239.865	15.7
240.083	-19.11
240.3	54.61
240.517	23.89
240.735	-0.68
240.952	50.52
241.169	87.38
241.386	1.37
241.603	-39.59
241.821	7.51
242.038	-19.11
242.255	30.04
242.472	-78.51
242.689	34.13
242.907	50.52
243.124	-10.92
243.341	30.04
243.558	5.46
243.775	7.51
243.992	54.61
244.209	-6.83
244.426	27.99
244.643	13.65
244.86	-17.07
245.078	52.56
245.295	5.46
245.512	38.23
245.729	-33.45
245.946	-25.26
246.163	21.85
246.38	58.71
246.597	130.39
246.814	30.04
247.031	13.65
247.248	48.47
247.464	40.28
247.681	13.65
247.898	-45.74
248.115	36.18
248.332	7.51
248.549	89.43
248.766	36.18
248.983	13.65
249.2	-8.87
249.417	62.8
249.633	17.75
249.85	-23.21
250.067	79.19
250.284	15.7
250.501	25.94
250.717	-17.07
250.934	-37.55
251.151	50.52
251.368	25.94
251.585	46.42
251.801	52.56
252.018	-74.41
252.235	-25.26
252.451	17.75
252.668	9.56
252.885	73.04
253.102	36.18
253.318	17.75
253.535	-10.92
253.752	-17.07
253.968	-12.97
254.185	-8.87
254.401	-41.64
254.618	5.46
254.835	-19.11
255.051	105.81
255.268	58.71
255.484	-17.07
255.701	19.8
255.917	-21.16
256.134	9.56
256.351	-29.35
256.567	-19.11
256.784	81.24
257	15.7
257.217	-37.55
257.433	25.94
257.65	54.61
257.866	7.51
258.082	21.85
258.299	54.61
258.515	-96.94
258.732	21.85
258.948	-29.35
259.165	21.85
259.381	62.8
259.597	50.52
259.814	46.42
260.03	27.99
260.246	7.51
260.463	-60.07
260.679	38.23
260.895	42.32
261.112	15.7
261.328	-51.88
261.544	-25.26
261.761	27.99
261.977	40.28
262.193	-60.07
262.409	46.42
262.626	38.23
262.842	-47.79
263.058	-23.21
263.274	44.37
263.49	27.99
263.707	58.71
263.923	-4.78
264.139	5.46
264.355	-27.31
264.571	68.95
264.787	68.95
265.004	40.28
265.22	-25.26
265.436	-2.73
265.652	-17.07
265.868	48.47
266.084	30.04
266.3	56.66
266.516	-33.45
266.732	-15.02
266.948	-4.78
267.164	27.99
267.38	-2.73
267.596	79.19
267.812	30.04
268.028	23.89
268.244	-23.21
268.46	44.37
268.676	30.04
268.892	15.7
269.108	7.51
269.324	-45.74
269.54	54.61
269.756	-6.83
269.972	-15.02
270.188	21.85
270.403	15.7
270.619	85.33
270.835	15.7
271.051	13.65
271.267	62.8
271.483	11.61
271.698	5.46
271.914	30.04
272.13	25.94
272.346	-35.5
272.562	71
272.777	25.94
272.993	23.89
273.209	48.47
273.425	-17.07
273.64	-94.89
273.856	13.65
274.072	-15.02
274.287	-37.55
274.503	9.56
274.719	68.95
274.934	38.23
275.15	38.23
275.366	13.65
275.581	1.37
275.797	1.37
276.012	-27.31
276.228	50.52
276.444	-10.92
276.659	9.56
276.875	-47.79
277.09	15.7
277.306	54.61
277.521	11.61
277.737	34.13
277.952	30.04
278.168	11.61
278.383	-37.55
278.599	32.08
278.814	36.18
279.03	-29.35
279.245	73.04
279.461	-8.87
279.676	25.94
279.892	62.8
280.107	-15.02
280.322	32.08
280.538	3.41
280.753	-2.73
280.969	62.8
281.184	-10.92
281.399	42.32
281.615	-8.87
281.83	3.41
282.045	9.56
282.26	13.65
282.476	13.65
282.691	83.28
282.906	-29.35
283.122	5.46
283.337	1.37
283.552	-15.02
283.767	27.99
283.983	-23.21
284.198	-41.64
284.413	48.47
284.628	7.51
284.843	32.08
285.058	19.8
285.274	9.56
285.489	-12.97
285.704	19.8
285.919	30.04
286.134	-31.4
286.349	44.37
286.564	36.18
286.779	-0.68
286.995	66.9
287.21	-15.02
287.425	50.52
287.64	19.8
287.855	7.51
288.07	15.7
288.285	25.94
288.5	-21.16
288.715	54.61
288.93	13.65
289.145	5.46
289.36	15.7
289.575	21.85
289.79	66.9
290.004	60.76
290.219	17.75
290.434	-4.78
290.649	25.94
290.864	44.37
291.079	68.95
291.294	38.23
291.509	17.75
291.724	107.86
291.938	-4.78
292.153	-8.87
292.368	5.46
292.583	56.66
292.798	30.04
293.012	85.33
293.227	-35.5
293.442	-6.83
293.657	46.42
293.871	32.08
294.086	48.47
294.301	64.85
294.516	64.85
294.73	15.7
294.945	-0.68
295.16	-31.4
295.374	142.68
295.589	32.08
295.804	25.94
296.018	73.04
296.233	27.99
296.447	50.52
296.662	54.61
296.877	-35.5
297.091	54.61
297.306	40.28
297.52	-27.31
297.735	27.99
297.949	62.8
298.164	124.24
298.378	25.94
298.593	40.28
298.807	3.41
299.022	-6.83
299.236	91.48
299.451	-15.02
299.665	-8.87
299.88	77.14
300.094	-51.88
300.309	9.56
300.523	52.56
300.737	9.56
300.952	36.18
301.166	99.67
301.381	34.13
301.595	60.76
301.809	9.56
302.024	-23.21
302.238	-27.31
302.452	40.28
302.667	-23.21
302.881	3.41
303.095	68.95
303.309	30.04
303.524	73.04
303.738	19.8
303.952	-25.26
304.166	11.61
304.381	-10.92
304.595	-0.68
304.809	-15.02
305.023	36.18
305.237	-23.21
305.452	21.85
305.666	-15.02
305.88	120.15
306.094	25.94
306.308	40.28
306.522	150.87
306.736	60.76
306.95	66.9
307.164	13.65
307.379	-21.16
307.593	46.42
307.807	66.9
308.021	-0.68
308.235	64.85
308.449	23.89
308.663	-31.4
308.877	71
309.091	-2.73
309.305	68.95
309.519	42.32
309.733	60.76
309.947	-21.16
310.161	58.71
310.374	23.89
310.588	40.28
310.802	27.99
311.016	60.76
311.23	-17.07
311.444	-19.11
311.658	17.75
311.872	66.9
312.085	7.51
312.299	1.37
312.513	3.41
312.727	34.13
312.941	-41.64
313.154	101.72
313.368	44.37
313.582	9.56
313.796	-15.02
314.009	-4.78
314.223	89.43
314.437	38.23
314.651	-12.97
314.864	27.99
315.078	27.99
315.292	32.08
315.505	17.75
315.719	15.7
315.933	25.94
316.146	93.52
316.36	1.37
316.573	58.71
316.787	-10.92
317.001	46.42
317.214	-17.07
317.428	44.37
317.641	-33.45
317.855	32.08
318.068	36.18
318.282	68.95
318.495	46.42
318.709	34.13
318.922	-21.16
319.136	34.13
319.349	118.1
319.563	50.52
319.776	17.75
319.99	-33.45
320.203	27.99
320.417	62.8
320.63	64.85
320.843	11.61
321.057	97.62
321.27	27.99
321.483	36.18
321.697	46.42
321.91	73.04
322.124	7.51
322.337	50.52
322.55	-45.74
322.763	40.28
322.977	17.75
323.19	42.32
323.403	19.8
323.617	30.04
323.83	68.95
324.043	11.61
324.256	44.37
324.469	-15.02
324.683	11.61
324.896	32.08
325.109	-27.31
325.322	-6.83
325.535	34.13
325.748	19.8
325.962	27.99
326.175	7.51
326.388	27.99
326.601	38.23
326.814	73.04
327.027	9.56
327.24	52.56
327.453	-23.21
327.666	34.13
327.879	-19.11
328.092	54.61
328.305	64.85
328.518	11.61
328.731	-23.21
328.944	93.52
329.157	-12.97
329.37	3.41
329.583	46.42
329.796	79.19
330.009	13.65
330.222	5.46
330.435	-21.16
330.648	9.56
330.861	52.56
331.073	44.37
331.286	17.75
331.499	54.61
331.712	62.8
331.925	36.18
332.138	25.94
332.35	-12.97
332.563	34.13
332.776	54.61
332.989	-19.11
333.202	-12.97
333.414	11.61
333.627	99.67
333.84	-53.93
334.053	15.7
334.265	7.51
334.478	11.61
334.691	-80.55
334.903	89.43
335.116	-62.12
335.329	30.04
335.541	30.04
335.754	87.38
335.966	34.13
336.179	-17.07
336.392	-10.92
336.604	11.61
336.817	77.14
337.029	42.32
337.242	17.75
337.454	50.52
337.667	-12.97
337.88	89.43
338.092	46.42
338.305	34.13
338.517	7.51
338.729	50.52
338.942	52.56
339.154	32.08
339.367	40.28
339.579	36.18
339.792	-39.59
340.004	114
340.217	32.08
340.429	79.19
340.641	-4.78
340.854	38.23
341.066	-8.87
341.278	87.38
341.491	83.28
341.703	-6.83
341.915	-37.55
342.128	34.13
342.34	34.13
342.552	27.99
342.764	34.13
342.977	-6.83
343.189	77.14
343.401	73.04
343.613	-41.64
343.826	60.76
344.038	21.85
344.25	40.28
344.462	-31.4
344.674	36.18
344.886	44.37
345.099	40.28
345.311	71
345.523	85.33
345.735	15.7
345.947	52.56
346.159	11.61
346.371	9.56
346.583	-35.5
346.795	44.37
347.007	9.56
347.219	-12.97
347.431	23.89
347.643	-29.35
347.855	-21.16
348.067	27.99
348.279	-15.02
348.491	-2.73
348.703	1.37
348.915	-25.26
349.127	-15.02
349.339	-6.83
349.551	-58.03
349.763	64.85
349.975	44.37
350.187	99.67
350.399	3.41
350.61	25.94
350.822	68.95
351.034	77.14
351.246	-27.31
351.458	-4.78
351.669	32.08
351.881	32.08
352.093	95.57
352.305	83.28
352.517	34.13
352.728	109.91
352.94	-23.21
353.152	13.65
353.363	36.18
353.575	40.28
353.787	60.76
353.999	111.96
354.21	68.95
354.422	19.8
354.633	5.46
354.845	17.75
355.057	-47.79
355.268	58.71
355.48	99.67
355.692	71
355.903	50.52
356.115	-19.11
356.326	1.37
356.538	38.23
356.749	50.52
356.961	32.08
357.172	-0.68
357.384	27.99
357.595	77.14
357.807	-4.78
358.018	1.37
358.23	-21.16
358.441	27.99
358.653	48.47
358.864	11.61
359.075	109.91
359.287	5.46
359.498	-15.02
359.709	-21.16
359.921	-17.07
360.132	-10.92
360.344	50.52
360.555	-25.26
360.766	142.68
360.977	27.99
361.189	81.24
361.4	83.28
361.611	58.71
361.823	68.95
362.034	38.23
362.245	-29.35
362.456	-33.45
362.667	58.71
362.879	19.8
363.09	68.95
363.301	73.04
363.512	66.9
363.723	-29.35
363.935	42.32
364.146	23.89
364.357	5.46
364.568	68.95
364.779	15.7
364.99	9.56
365.201	15.7
365.412	68.95
365.623	-15.02
365.834	56.66
366.045	17.75
366.256	66.9
366.467	15.7
366.678	23.89
366.889	21.85
367.1	9.56
367.311	34.13
367.522	-25.26
367.733	32.08
367.944	-12.97
368.155	3.41
368.366	27.99
368.577	56.66
368.788	50.52
368.999	-2.73
369.209	-53.93
369.42	97.62
369.631	19.8
369.842	7.51
370.053	21.85
370.264	81.24
370.474	95.57
370.685	9.56
370.896	11.61
371.107	95.57
371.317	13.65
371.528	13.65
371.739	38.23
371.95	27.99
372.16	68.95
372.371	93.52
372.582	50.52
372.792	-0.68
373.003	83.28
373.214	50.52
373.424	9.56
373.635	11.61
373.846	36.18
374.056	58.71
374.267	56.66
374.477	19.8
374.688	56.66
374.898	44.37
375.109	46.42
375.319	-0.68
375.53	71
375.74	136.53
375.951	107.86
376.161	-29.35
376.372	54.61
376.582	5.46
376.793	23.89
377.003	1.37
377.214	-37.55
377.424	25.94
377.635	25.94
377.845	11.61
378.055	15.7
378.266	1.37
378.476	42.32
378.686	46.42
378.897	58.71
379.107	38.23
379.317	95.57
379.528	34.13
379.738	-0.68
379.948	-33.45
380.158	15.7
380.369	27.99
380.579	15.7
380.789	107.86
380.999	40.28
381.21	91.48
381.42	48.47
381.63	-25.26
381.84	140.63
382.05	44.37
382.261	-12.97
382.471	27.99
382.681	25.94
382.891	83.28
383.101	54.61
383.311	40.28
383.521	77.14
383.731	25.94
383.941	13.65
384.151	97.62
384.361	-2.73
384.571	103.76
384.781	38.23
384.991	30.04
385.201	83.28
385.411	27.99
385.621	50.52
385.831	30.04
386.041	38.23
386.251	-39.59
386.461	42.32
386.671	56.66
386.881	36.18
387.091	21.85
387.301	60.76
387.511	-10.92
387.72	30.04
387.93	23.89
388.14	40.28
388.35	44.37
388.56	77.14
388.769	17.75
388.979	42.32
389.189	-6.83
389.399	56.66
389.609	5.46
389.818	95.57
390.028	7.51
390.238	40.28
390.447	64.85
390.657	-23.21
390.867	89.43
391.076	32.08
391.286	13.65
391.496	66.9
391.705	21.85
391.915	30.04
392.125	50.52
392.334	50.52
392.544	62.8
392.753	68.95
392.963	13.65
393.172	75.09
393.382	-12.97
393.591	5.46
393.801	15.7
394.01	73.04
394.22	56.66
394.429	27.99
394.639	23.89
394.848	21.85
395.058	52.56
395.267	87.38
395.477	54.61
395.686	107.86
395.895	52.56
396.105	58.71
396.314	60.76
396.524	66.9
396.733	1.37
396.942	64.85
397.152	44.37
397.361	32.08
397.57	111.96
397.78	87.38
397.989	32.08
398.198	56.66
398.407	68.95
398.617	40.28
398.826	54.61
399.035	17.75
399.244	91.48
399.453	56.66
399.663	68.95
399.872	126.29
400.081	46.42
400.29	42.32
400.499	21.85
400.708	42.32
400.917	60.76
401.127	97.62
401.336	71
401.545	189.78
401.754	101.72
401.963	32.08
402.172	60.76
402.381	83.28
402.59	30.04
402.799	116.05
403.008	56.66
403.217	134.48
403.426	75.09
403.635	81.24
403.844	103.76
404.053	97.62
404.262	56.66
404.471	38.23
404.68	134.48
404.888	109.91
405.097	23.89
405.306	136.53
405.515	91.48
405.724	68.95
405.933	46.42
406.142	83.28
406.35	89.43
406.559	161.11
406.768	38.23
406.977	105.81
407.185	148.82
407.394	48.47
407.603	154.96
407.812	124.24
408.02	154.96
408.229	95.57
408.438	179.54
408.646	140.63
408.855	150.87
409.064	144.72
409.272	130.39
409.481	130.39
409.69	111.96
409.898	165.2
410.107	247.12
410.315	271.7
410.524	169.3
410.733	169.3
410.941	116.05
411.15	165.2
411.358	152.91
411.567	238.93
411.775	286.03
411.984	283.98
412.192	265.55
412.401	331.09
412.609	275.79
412.818	312.66
413.026	333.14
413.234	300.37
413.443	279.89
413.651	365.9
413.86	353.62
414.068	314.7
414.276	449.87
414.485	363.86
414.693	380.24
414.901	363.86
415.11	427.34
415.318	384.34
415.526	394.58
415.734	449.87
415.943	456.01
416.151	466.25
416.359	494.93
416.567	429.39
416.776	519.5
416.984	537.93
417.192	570.7
417.4	646.48
417.608	574.8
417.817	550.22
418.025	519.5
418.233	640.33
418.441	589.13
418.649	669
418.857	748.87
419.065	802.12
419.273	703.82
419.481	771.4
419.689	869.7
419.897	918.86
420.105	859.46
420.313	886.09
420.521	953.67
420.729	869.7
420.937	1027.4
421.145	1027.4
421.353	978.25
421.561	1103.17
421.769	1135.94
421.977	1133.89
422.185	1283.39
422.393	1267.01
422.601	1324.35
422.809	1328.45
423.017	1279.3
423.224	1420.61
423.432	1422.66
423.64	1465.66
423.848	1510.72
424.056	1561.92
424.263	1643.84
424.471	1652.03
424.679	1715.52
424.887	1768.76
425.094	1828.15
425.302	1817.91
425.51	1922.36
425.718	1897.78
425.925	1965.37
426.133	2106.68
426.341	2108.73
426.548	2274.61
426.756	2170.16
426.964	2387.25
427.171	2358.58
427.379	2460.98
427.586	2538.8
427.794	2518.32
428.001	2684.2
428.209	2712.88
428.417	2710.83
428.624	2985.26
428.832	2977.06
429.039	2932.01
429.247	2987.3
429.454	3259.68
429.662	3548.45
429.869	3251.49
430.076	3427.62
430.284	3462.43
430.491	3482.91
430.699	3753.24
430.906	3955.99
431.114	3693.85
431.321	3816.73
431.528	3804.44
431.736	4199.7
431.943	4410.64
432.15	4322.58
432.358	4400.4
432.565	4705.55
432.772	4554
432.979	4803.85
433.187	4932.87
433.394	4797.71
433.601	5143.81
433.808	5348.61
434.016	5213.45
434.223	5307.65
434.43	5721.34
434.637	5635.33
434.844	5891.32
435.052	6155.51
435.259	6036.73
435.466	6245.62
435.673	6026.49
435.88	6552.82
436.087	6747.37
436.294	6849.77
436.501	6724.85
436.708	6788.33
436.915	6960.36
437.122	7435.49
437.329	7335.14
437.537	7363.81
437.743	7810.27
437.95	7597.28
438.157	7978.2
438.364	8215.77
438.571	8359.13
438.778	8373.46
438.985	9247.94
439.192	8584.4
439.399	8979.66
439.606	8639.7
439.813	9174.22
440.02	9866.43
440.227	9786.56
440.433	9602.24
440.64	9776.32
440.847	9864.38
441.054	9964.73
441.261	10667.19
441.467	10597.56
441.674	10865.84
441.881	11105.45
442.088	11437.22
442.294	11265.19
442.501	11412.65
442.708	11572.39
442.914	12086.43
443.121	12522.65
443.328	12289.18
443.534	13022.35
443.741	12893.33
443.948	12594.33
444.154	13350.03
444.361	13491.34
444.568	13503.62
444.774	13550.73
444.981	13769.86
445.187	14304.38
445.394	14716.02
445.6	14410.87
445.807	15899.75
446.013	15242.35
446.22	15576.17
446.426	15928.42
446.633	15948.9
446.839	16931.92
447.046	16157.79
447.252	17097.81
447.459	16819.28
447.665	17167.44
447.871	17933.38
448.078	18715.7
448.284	17695.82
448.491	18060.35
448.697	18924.6
448.903	19026.99
449.11	19246.13
449.316	18846.77
449.522	19211.31
449.728	19737.64
449.935	19979.3
450.141	20032.55
450.347	20356.13
450.553	19665.96
450.76	20087.84
450.966	20749.34
451.172	20440.09
451.378	20841.5
451.584	20720.67
451.791	21439.5
451.997	21050.39
452.203	21435.41
452.409	21414.93
452.615	21328.91
452.821	20741.14
453.027	20292.64
453.233	21492.75
453.44	20558.88
453.646	20745.24
453.852	20927.51
454.058	21074.96
454.264	20544.54
454.47	21101.59
454.676	20694.04
454.882	21285.9
455.088	19500.08
455.294	19629.1
455.5	20055.08
455.705	20132.9
455.911	19246.13
456.117	19055.67
456.323	19057.71
456.529	17652.81
456.735	18594.87
456.941	17941.57
457.147	18091.07
457.352	17304.65
457.558	17222.73
457.764	17007.7
457.97	16735.32
458.176	16452.7
458.381	16491.61
458.587	15844.45
458.793	15625.32
458.999	14890.1
459.204	16032.86
459.41	15514.73
459.616	14447.74
459.821	14402.68
460.027	14496.89
460.233	14351.48
460.438	13593.73
460.644	13534.34
460.85	12899.47
461.055	12878.99
461.261	12627.09
461.466	11644.07
461.672	11371.69
461.878	12399.77
462.083	11412.65
462.289	11201.71
462.494	11082.92
462.7	10611.89
462.905	10310.84
463.111	10675.38
463.316	10658.99
463.522	10409.14
463.727	10468.53
463.932	10536.12
464.138	10278.07
464.343	10306.74
464.549	9993.4
464.754	10405.05
464.959	10269.88
465.165	10290.36
465.37	9829.57
465.575	9469.12
465.781	9872.57
465.986	9999.55
466.191	9696.45
466.397	9540.8
466.602	9059.53
466.807	9419.97
467.012	9278.66
467.218	9344.2
467.423	9213.13
467.628	9186.51
467.833	9684.16
468.038	9321.67
468.244	9055.44
468.449	9211.08
468.654	8922.32
468.859	8934.6
469.064	8981.71
469.269	8541.4
469.474	8738
469.679	8742.1
469.885	8752.34
470.09	8529.11
470.295	8686.8
470.5	8369.37
470.705	8750.29
470.91	8379.61
471.115	8162.52
471.32	8393.94
471.525	8193.24
471.73	7990.49
471.935	7947.48
472.139	7875.81
472.344	7957.72
472.549	7816.41
472.754	7750.88
472.959	7714.02
473.164	7529.7
473.369	7308.52
473.574	7513.31
473.778	7496.93
473.983	7501.03
474.188	7415.01
474.393	7111.91
474.598	7150.82
474.802	6921.45
475.007	7169.26
475.212	7091.43
475.417	6675.7
475.621	6800.62
475.826	6882.54
476.031	6692.08
476.235	6741.23
476.44	6722.8
476.645	6610.16
476.849	6569.2
477.054	6296.82
477.259	6386.93
477.463	6296.82
477.668	6092.02
477.872	6341.88
478.077	6065.4
478.282	6073.59
478.486	5838.08
478.691	5815.55
478.895	5846.27
479.1	5885.18
479.304	5901.56
479.509	5655.81
479.713	5784.83
479.918	5655.81
480.122	5588.22
480.326	5629.18
480.531	5586.18
480.735	5616.9
480.94	5457.15
481.144	5688.57
481.348	5545.22
481.553	5477.63
481.757	5356.8
481.961	5293.32
482.166	5647.62
482.37	5502.21
482.574	5246.21
482.778	5356.8
482.983	5637.38
483.187	5543.17
483.391	5399.81
483.595	5381.38
483.8	5367.04
484.004	5397.76
484.208	5395.71
484.412	5375.24
484.616	5557.5
484.821	5358.85
485.025	5436.67
485.229	5479.68
485.433	5334.28
485.637	5496.07
485.841	5346.56
486.045	5182.73
486.249	5358.85
486.453	5362.95
486.657	5498.11
486.861	5324.04
487.065	5223.69
487.269	5483.78
487.473	5352.71
487.677	5537.02
487.881	5459.2
488.085	5502.21
488.289	5367.04
488.493	5248.26
488.697	5625.09
488.901	5534.98
489.105	5565.7
489.309	5477.63
489.512	5469.44
489.716	5418.24
489.92	5395.71
490.124	5305.6
490.328	5666.05
490.531	5598.46
490.735	5739.77
490.939	5625.09
491.143	5516.55
491.346	5473.54
491.55	5782.78
491.754	5860.6
491.958	5596.42
492.161	5573.89
492.365	5778.69
492.569	5666.05
492.772	5891.32
492.976	5737.73
493.18	5809.4
493.383	5639.42
493.587	5991.67
493.79	5887.23
493.994	5860.6
494.197	6083.83
494.401	6003.96
494.605	5901.56
494.808	6270.2
495.012	6079.74
495.215	6329.59
495.419	6280.44
495.622	6075.64
495.825	6309.11
496.029	6149.37
496.232	6323.44
496.436	6386.93
496.639	6542.58
496.843	6495.47
497.046	6440.18
497.249	6632.69
497.453	6718.7
497.656	6814.96
497.859	6790.38
498.063	6900.97
498.266	7109.86
498.469	6857.96
498.673	7113.96
498.876	7091.43
499.079	7204.07
499.282	7130.34
499.485	7478.5
499.689	7249.13
499.892	7636.19
500.095	7496.93
500.298	7797.98
500.501	7804.13
500.705	8037.59
500.908	8004.83
501.111	8238.3
501.314	8094.94
501.517	8264.92
501.72	8260.82
501.923	8146.14
502.126	8346.84
502.329	8549.59
502.532	8518.87
502.735	8731.86
502.938	8692.94
503.141	8989.9
503.344	8903.89
503.547	8893.65
503.75	9133.26
503.953	9438.41
504.156	9325.77
504.359	9469.12
504.562	9528.52
504.765	9690.31
504.968	9923.77
505.17	9934.01
505.373	10003.64
505.576	10097.85
505.779	10308.79
505.982	10249.4
506.185	10411.19
506.387	10466.49
506.59	10681.52
506.793	10720.43
506.996	10769.59
507.198	11064.49
507.401	10871.98
507.604	11164.84
507.807	11537.57
508.009	11562.15
508.212	11429.03
508.415	11695.27
508.617	11900.06
508.82	11928.74
509.022	11758.75
509.225	11984.03
509.428	12248.22
509.63	12467.35
509.833	12332.19
510.035	12553.37
510.238	12663.96
510.44	12993.68
510.643	12840.08
510.845	13124.75
511.048	12975.25
511.25	13315.21
511.453	13376.65
511.655	13700.23
511.858	13722.76
512.06	13773.96
512.262	14007.42
512.465	13997.18
512.667	14148.73
512.87	14296.19
513.072	14441.59
513.274	14611.57
513.477	14793.84
513.679	14742.64
513.881	14828.66
514.084	15211.63
514.286	15072.37
514.488	15221.87
514.69	15641.7
514.893	15752.29
515.095	15846.5
515.297	15985.76
515.499	15815.78
515.701	16149.6
515.904	16464.99
516.106	16630.87
516.308	16555.1
516.51	17009.75
516.712	16931.92
516.914	17374.28
517.116	17405
517.318	17708.1
517.52	17579.08
517.722	17771.59
517.925	17601.61
518.127	18216
518.329	18158.66
518.531	18031.68
518.733	18498.62
518.935	18525.24
519.136	18711.61
519.338	19041.33
519.54	19080.24
519.742	19239.98
519.944	19205.17
520.146	19520.56
520.348	19905.57
520.55	19809.32
520.752	19686.44
520.954	20495.39
521.155	20077.6
521.357	20487.2
521.559	20698.14
521.761	20878.36
521.963	20849.69
522.164	20997.14
522.366	21120.02
522.568	21632.01
522.77	21480.46
522.971	21859.34
523.173	21304.34
523.375	21959.69
523.576	21629.96
523.778	21664.78
523.98	22221.83
524.181	22137.86
524.383	22506.49
524.584	22754.3
524.786	22737.91
524.988	22563.84
525.189	22701.05
525.391	22895.61
525.592	23196.66
525.794	23249.91
525.995	23292.91
526.197	23329.78
526.398	23602.16
526.6	23653.36
526.801	23573.49
527.003	23710.7
527.204	23751.66
527.406	23966.7
527.607	23956.46
527.808	24282.08
528.01	23835.63
528.211	24062.95
528.412	24572.89
528.614	24548.32
528.815	24429.54
529.016	24886.23
529.218	24562.65
529.419	24875.99
529.62	24976.34
529.822	24937.43
530.023	24630.24
530.224	24849.37
530.425	24996.82
530.626	24943.58
530.828	25000.92
531.029	25414.61
531.23	25162.71
531.431	25326.55
531.632	25418.71
531.833	25263.06
532.035	25273.3
532.236	25191.38
532.437	25637.84
532.638	25500.62
532.839	25422.8
533.04	25672.65
533.241	25279.44
533.442	25648.08
533.643	25918.41
533.844	25459.66
534.045	25746.38
534.246	25467.86
534.447	25842.63
534.648	25459.66
534.849	25979.85
535.05	25693.13
535.251	25902.03
535.451	25818.06
535.652	25838.54
535.853	25607.12
536.054	25916.36
536.255	25678.8
536.456	25439.19
536.657	26108.87
536.857	25697.23
537.058	25658.32
537.259	25789.39
537.46	25801.68
537.66	25865.16
537.861	25816.01
538.062	25717.71
538.263	25885.64
538.463	25928.65
538.664	25756.62
538.865	25891.79
539.065	26092.49
539.266	25658.32
539.466	26276.8
539.667	25623.5
539.868	25959.37
540.068	25730
540.269	25650.13
540.469	25920.46
540.67	25740.24
540.87	25967.56
541.071	25594.83
541.271	26096.58
541.472	25756.62
541.672	25631.69
541.873	25635.79
542.073	25428.95
542.274	26055.62
542.474	25936.84
542.675	25643.98
542.875	25779.15
543.075	25807.82
543.276	25779.15
543.476	26117.06
543.676	25560.02
543.877	25967.56
544.077	26147.78
544.277	25721.8
544.478	25766.86
544.678	26067.91
544.878	25895.88
545.078	25824.2
545.279	25779.15
545.479	25668.56
545.679	25682.89
545.879	25760.72
546.079	25861.07
546.28	25795.53
546.48	25650.13
546.68	25695.18
546.88	26022.86
547.08	25893.83
547.28	25738.19
547.48	25603.02
547.68	25621.45
547.88	25803.72
548.081	25797.58
548.281	25494.48
548.481	25650.13
548.681	25695.18
548.881	25672.65
549.081	25482.19
549.28	25842.63
549.48	25582.54
549.68	25400.27
549.88	25754.57
550.08	25183.19
550.28	25953.23
550.48	25635.79
550.68	25830.35
550.88	25476.05
551.08	25527.25
551.279	25678.8
551.479	25281.49
551.679	25445.33
551.879	25648.08
552.079	25564.11
552.278	25283.54
552.478	25406.42
552.678	25803.72
552.878	25584.59
553.077	25416.66
553.277	25351.12
553.477	25811.92
553.676	25367.51
553.876	25631.69
554.076	25175
554.275	25199.57
554.475	25383.89
554.674	25328.59
554.874	25414.61
555.074	25525.2
555.273	25752.52
555.473	25381.84
555.672	25099.22
555.872	24875.99
556.071	25185.24
556.271	25086.93
556.47	25207.76
556.67	25002.97
556.869	25027.54
557.068	25156.57
557.268	24939.48
557.467	25060.31
557.667	25060.31
557.866	25045.98
558.065	24939.48
558.265	24869.85
558.464	24837.08
558.663	24591.33
558.863	24816.6
559.062	25052.12
559.261	24529.89
559.461	25140.18
559.66	24634.33
559.859	24798.17
560.058	24507.36
560.258	24585.18
560.457	24378.34
560.656	24548.32
560.855	24587.23
561.054	24650.72
561.253	24542.17
561.453	24419.3
561.652	24316.9
561.851	24411.1
562.05	24462.3
562.249	24157.16
562.448	24546.27
562.647	24181.73
562.846	24042.47
563.045	24093.67
563.244	24118.25
563.443	24302.56
563.642	23837.67
563.841	24155.11
564.04	23667.69
564.239	24226.79
564.438	23792.62
564.637	23641.07
564.836	23749.61
565.035	23426.03
565.234	23624.68
565.432	23352.31
565.631	23245.81
565.83	23360.5
566.029	23440.37
566.228	23436.27
566.427	23192.56
566.625	23147.51
566.824	23053.3
567.023	23325.68
567.222	22952.95
567.42	23137.27
567.619	23030.77
567.818	23012.34
568.016	22672.38
568.215	23002.1
568.414	22983.67
568.612	22705.15
568.811	22772.73
569.01	22395.9
569.208	22496.25
569.407	22561.79
569.605	22531.07
569.804	22701.05
570.002	22549.5
570.201	22410.24
570.4	22168.58
570.598	22148.1
570.797	22182.91
570.995	21986.31
571.193	21689.35
571.392	22232.07
571.59	21845
571.789	21845
571.987	22035.46
572.186	21746.7
572.384	21615.63
572.582	22113.28
572.781	21607.44
572.979	21271.57
573.177	21775.37
573.376	21193.75
573.574	21447.69
573.772	21343.25
573.971	21322.77
574.169	21208.08
574.367	21011.48
574.565	21339.15
574.763	21222.42
574.962	21081.11
575.16	20550.68
575.358	20689.95
575.556	20767.77
575.754	21117.97
575.952	20601.88
576.151	20851.74
576.349	20622.36
576.547	20601.88
576.745	20651.03
576.943	20700.19
577.141	20466.72
577.339	20431.9
577.537	20286.5
577.735	20319.26
577.933	20053.03
578.131	20098.08
578.329	20223.01
578.527	20134.95
578.725	20218.91
578.923	20063.27
579.121	19897.38
579.319	19739.69
579.516	20055.08
579.714	20069.41
579.912	19858.47
580.11	19559.47
580.308	19498.03
580.506	19745.83
580.704	19354.67
580.901	19500.08
581.099	19534.89
581.297	19342.38
581.495	19360.81
581.692	19680.3
581.89	19237.94
582.088	19358.77
582.285	19127.35
582.483	19162.16
582.681	19110.96
582.878	18895.92
583.076	18682.94
583.274	19387.44
583.471	18881.59
583.669	18828.34
583.866	18713.66
584.064	18713.66
584.262	18406.46
584.459	18644.02
584.657	18652.22
584.854	18594.87
585.052	18463.8
585.249	18273.34
585.447	18269.25
585.644	18340.93
585.841	18388.03
586.039	18515
586.236	18091.07
586.434	18154.56
586.631	18185.28
586.828	18281.53
587.026	18218.05
587.223	17828.93
587.42	17869.89
587.618	17732.68
587.815	17480.78
588.012	17812.55
588.21	17497.16
588.407	17837.13
588.604	17824.84
588.801	17527.88
588.999	17513.55
589.196	17286.22
589.393	17448.01
589.59	17216.59
589.787	17230.93
589.984	17134.67
590.182	16952.4
590.379	16991.31
590.576	16991.31
590.773	17075.28
590.97	16735.32
591.167	17024.08
591.364	16659.54
591.561	16833.62
591.758	16618.58
591.955	16950.35
592.152	16661.59
592.349	16589.91
592.546	16510.04
592.743	16471.13
592.94	16583.77
593.137	16221.28
593.334	16604.25
593.531	16241.76
593.727	16338.01
593.924	16221.28
594.121	16241.76
594.318	16493.66
594.515	15928.42
594.712	16288.86
594.908	15860.84
595.105	15981.67
595.302	15895.65
595.499	16106.59
595.696	15717.48
595.892	15598.7
596.089	15533.16
596.286	15768.68
596.482	15572.07
596.679	15717.48
596.876	15510.63
597.072	15371.37
597.269	15602.79
597.466	15340.65
597.662	15420.52
597.859	15416.43
598.055	15256.68
598.252	15293.55
598.448	15117.42
598.645	15023.22
598.841	15209.58
599.038	15004.78
599.234	14933.11
599.431	15037.55
599.627	14920.82
599.824	15082.61
600.02	14595.19
600.217	14718.07
600.413	14632.05
600.609	14756.98
600.806	14705.78
601.002	14691.45
601.198	14355.58
601.395	14412.92
601.591	14208.12
601.787	14498.94
601.984	14449.78
602.18	14320.76
602.376	14433.4
602.572	14406.78
602.769	14201.98
602.965	14025.86
603.161	14126.21
603.357	14118.01
603.553	14023.81
603.75	14134.4
603.946	13921.41
604.142	13927.55
604.338	13702.28
604.534	13814.91
604.73	13528.2
604.926	13755.52
605.122	13927.55
605.318	13491.34
605.514	13601.93
605.71	13386.89
605.906	13587.59
606.102	13583.49
606.298	13444.23
606.494	13321.35
606.69	13528.2
606.886	13302.92
607.082	13284.49
607.278	13313.16
607.474	13296.78
607.67	13200.52
607.866	13016.21
608.062	13227.15
608.257	13288.59
608.453	13132.94
608.649	12993.68
608.845	12901.52
609.041	13026.45
609.236	12909.71
609.432	12971.15
609.628	13061.26
609.824	12770.45
610.019	12627.09
610.215	12924.05
610.411	12956.82
610.606	12825.75
610.802	12938.38
610.998	12647.57
611.193	12758.16
611.389	12436.63
611.584	12666
611.78	12426.39
611.976	12612.76
612.171	12647.57
612.367	12524.69
612.562	12426.39
612.758	12496.02
612.953	12399.77
613.149	12459.16
613.344	12381.34
613.539	12434.58
613.735	12248.22
613.93	12278.94
614.126	12106.91
614.321	12401.82
614.517	12221.59
614.712	12215.45
614.907	12297.37
615.103	12321.95
615.298	12045.47
615.493	12328.09
615.688	11988.13
615.884	12264.6
616.079	11900.06
616.274	11828.38
616.47	11895.97
616.665	11889.82
616.86	11877.54
617.055	12029.09
617.25	11902.11
617.445	11826.34
617.641	11803.81
617.836	11873.44
618.031	11625.64
618.226	11932.83
618.421	11549.86
618.616	11955.36
618.811	11787.43
619.006	11838.62
619.201	11363.5
619.396	11596.96
619.591	11306.15
619.786	11390.12
619.981	11271.34
620.176	11320.49
620.371	11213.99
620.566	11283.63
620.761	11021.49
620.956	11220.14
621.151	11197.61
621.346	11017.39
621.541	10812.59
621.735	11054.25
621.93	10605.75
622.125	10824.88
622.32	10837.17
622.515	10745.01
622.709	10540.21
622.904	10527.92
623.099	10615.99
623.294	10607.8
623.488	10376.38
623.683	10542.26
623.878	10267.83
624.072	10294.46
624.267	10210.49
624.462	10314.94
624.656	10075.32
624.851	10251.45
625.046	10001.6
625.24	9997.5
625.435	9968.83
625.629	9811.14
625.824	9817.28
626.018	9952.45
626.213	9522.37
626.407	9796.8
626.602	9544.9
626.796	9522.37
626.991	9647.3
627.185	9546.95
627.38	9469.12
627.574	9301.19
627.768	9358.53
627.963	9383.11
628.157	9221.32
628.352	9249.99
628.546	9096.39
628.74	9217.22
628.935	9026.76
629.129	9037
629.323	8721.62
629.517	8940.75
629.712	8756.43
629.906	8697.04
630.1	8651.99
630.294	8803.53
630.489	8621.27
630.683	8830.16
630.877	8469.72
631.071	8592.59
631.265	8666.32
631.459	8414.42
631.653	8563.92
631.848	8291.54
632.042	8203.48
632.236	8275.16
632.43	8131.8
632.624	8262.87
632.818	8137.95
633.012	7990.49
633.206	8006.88
633.4	7982.3
633.594	8021.21
633.788	7877.85
633.982	8092.89
634.176	7865.57
634.369	7732.45
634.563	7892.19
634.757	7691.49
634.951	7621.86
635.145	7460.07
635.339	7611.62
635.533	7615.71
635.726	7455.97
635.92	7554.27
636.114	7609.57
636.308	7343.33
636.501	7451.88
636.695	7253.22
636.889	7300.33
637.083	7355.62
637.276	7394.53
637.47	7290.09
637.664	7126.25
637.857	7175.4
638.051	7206.12
638.244	6900.97
638.438	7156.97
638.632	7124.2
638.825	6792.43
639.019	7015.66
639.212	6771.95
639.406	6833.39
639.599	6755.57
639.793	6847.72
639.986	6554.87
640.18	6774
640.373	6589.68
640.567	6571.25
640.76	6479.09
640.954	6442.23
641.147	6350.07
641.34	6548.72
641.534	6434.04
641.727	6491.38
641.92	6350.07
642.114	6284.53
642.307	6300.92
642.5	6356.21
642.694	6145.27
642.887	6202.61
643.08	6167.8
643.273	6112.5
643.467	6153.46
643.66	5971.19
643.853	5950.71
644.046	5913.85
644.239	6020.35
644.432	5747.97
644.626	5909.76
644.819	5887.23
645.012	5766.4
645.205	5887.23
645.398	5766.4
645.591	5819.64
645.784	5661.95
645.977	5567.74
646.17	5620.99
646.363	5580.03
646.556	5469.44
646.749	5625.09
646.942	5750.01
647.135	5356.8
647.328	5391.62
647.521	5512.45
647.714	5571.84
647.907	5475.59
648.099	5391.62
648.292	5315.84
648.485	5221.64
648.678	5401.86
648.871	5244.17
649.064	5342.47
649.256	5235.97
649.449	5074.18
649.642	5154.05
649.835	5027.08
650.027	5000.46
650.22	4984.07
650.413	4887.82
650.605	5211.4
650.798	5012.74
650.991	5008.65
651.183	4832.52
651.376	4853
651.568	4748.56
651.761	4846.86
651.954	4861.2
652.146	4885.77
652.339	4865.29
652.531	4826.38
652.724	4644.11
652.916	4769.04
653.109	4715.79
653.301	4629.77
653.494	4672.78
653.686	4629.77
653.879	4662.54
654.071	4564.24
654.263	4486.42
654.456	4545.81
654.648	4519.18
654.84	4336.92
655.033	4412.69
655.225	4445.46
655.417	4437.27
655.61	4355.35
655.802	4379.92
655.994	4224.28
656.186	4457.75
656.379	4220.18
656.571	4304.15
656.763	4218.13
656.955	4259.09
657.148	4275.48
657.34	4240.66
657.532	4058.39
657.724	4121.88
657.916	4119.83
658.108	4130.07
658.3	4068.63
658.492	4070.68
658.684	4044.06
658.876	4005.14
659.068	3915.03
659.26	3988.76
659.452	3994.9
659.644	3943.71
659.836	3855.64
660.028	3929.37
660.22	3747.1
660.412	3933.47
660.604	3779.87
660.796	3919.13
660.988	3962.14
661.18	3704.09
661.372	3700
661.563	3691.8
661.755	3747.1
661.947	3728.67
662.139	3726.62
662.331	3626.27
662.522	3542.3
662.714	3728.67
662.906	3679.52
663.097	3579.17
663.289	3671.33
663.481	3538.21
663.673	3470.62
663.864	3579.17
664.056	3429.66
664.247	3501.34
664.439	3456.29
664.631	3519.78
664.822	3527.97
665.014	3423.52
665.205	3454.24
665.397	3452.19
665.588	3441.95
665.78	3396.9
665.971	3384.61
666.163	3398.95
666.354	3290.4
666.546	3304.74
666.737	3476.77
666.929	3329.31
667.12	3278.12
667.311	3259.68
667.503	3126.57
667.694	3347.75
667.885	3200.29
668.077	3237.16
668.268	3251.49
668.459	3108.13
668.651	3202.34
668.842	3112.23
669.033	3147.05
669.224	3106.09
669.416	3069.22
669.607	2987.3
669.798	3153.19
669.989	3097.89
670.18	3118.37
670.371	3097.89
670.563	3054.89
670.754	3028.26
670.945	3093.8
671.136	2952.49
671.327	2970.92
671.518	3015.98
671.709	3056.93
671.9	3024.17
672.091	3034.41
672.282	2975.02
672.473	2858.28
672.664	3056.93
672.855	2940.2
673.046	2975.02
673.237	2940.2
673.428	2946.34
673.619	2948.39
673.809	2942.25
674	2944.3
674.191	2876.71
674.382	2837.8
674.573	2893.1
674.764	2786.6
674.954	2778.41
675.145	2704.68
675.336	2794.79
675.527	2762.03
675.717	2948.39
675.908	2817.32
676.099	2823.47
676.289	2731.31
676.48	2706.73
676.671	2698.54
676.861	2884.91
677.052	2688.3
677.243	2776.36
677.433	2759.98
677.624	2749.74
677.814	2778.41
678.005	2678.06
678.195	2727.21
678.386	2692.4
678.576	2749.74
678.767	2782.51
678.957	2766.12
679.148	2805.03
679.338	2731.31
679.529	2757.93
679.719	2671.92
679.909	2684.2
680.1	2624.81
680.29	2618.67
680.481	2626.86
680.671	2622.77
680.861	2641.2
681.052	2669.87
681.242	2479.41
681.432	2469.17
681.622	2604.33
681.813	2583.85
682.003	2534.7
682.193	2587.95
682.383	2448.69
682.573	2549.04
682.764	2665.77
682.954	2610.48
683.144	2622.77
683.334	2557.23
683.524	2538.8
683.714	2592.05
683.904	2590
684.094	2520.37
684.284	2485.55
684.474	2626.86
684.664	2596.14
684.854	2604.33
685.044	2553.13
685.234	2372.91
685.424	2430.26
685.614	2430.26
685.804	2448.69
685.994	2587.95
686.184	2366.77
686.374	2473.26
686.564	2458.93
686.753	2518.32
686.943	2290.99
687.133	2381.1
687.323	2358.58
687.513	2377.01
687.702	2270.51
687.892	2229.56
688.082	2372.91
688.272	2432.3
688.461	2268.47
688.651	2352.43
688.841	2274.61
689.03	2331.95
689.22	2295.09
689.41	2155.83
689.599	2270.51
689.789	2209.08
689.979	2254.13
690.168	2379.06
690.358	2329.91
690.547	2215.22
690.737	2172.21
690.926	2219.32
691.116	2106.68
691.305	2229.56
691.495	2207.03
691.684	2110.77
691.874	2100.53
692.063	2086.2
692.252	2114.87
692.442	2116.92
692.631	2055.48
692.82	2125.11
693.01	2071.86
693.199	2121.01
693.388	2014.52
693.578	2061.62
693.767	2049.33
693.956	2061.62
694.146	1989.94
694.335	2094.39
694.524	1996.09
694.713	2080.05
694.902	1994.04
695.092	2098.49
695.281	1948.98
695.47	1961.27
695.659	1918.26
695.848	1985.85
696.037	2008.37
696.226	1953.08
696.415	1991.99
696.604	1971.51
696.793	1971.51
696.982	2010.42
697.171	1910.07
697.36	2008.37
697.549	1994.04
697.738	1869.11
697.927	1932.6
698.116	1940.79
698.305	2018.61
698.494	1922.36
698.683	1942.84
698.872	1975.61
699.061	1953.08
699.25	1979.7
699.438	1977.66
699.627	2014.52
699.816	1922.36
700.005	1946.94
700.193	1973.56
700.382	1994.04
700.571	1893.69
700.76	1936.7
700.948	1977.66
701.137	1912.12
701.326	1930.55
701.514	2010.42
701.703	1971.51
701.892	1877.3
702.08	1914.17
702.269	1934.65
702.457	1910.07
702.646	1934.65
702.834	1875.26
703.023	1885.5
703.212	1938.74
703.4	1967.42
703.589	1936.7
703.777	1942.84
703.965	1914.17
704.154	1889.59
704.342	1934.65
704.531	1867.06
704.719	1828.15
704.907	1951.03
705.096	1924.41
705.284	1877.3
705.472	1834.3
705.661	1879.35
705.849	1869.11
706.037	1914.17
706.226	1961.27
706.414	1826.11
706.602	1869.11
706.79	1854.78
706.979	1963.32
707.167	1922.36
707.355	1785.15
707.543	1791.29
707.731	1883.45
707.919	1934.65
708.107	1905.98
708.296	1912.12
708.484	1817.91
708.672	1836.35
708.86	1815.87
709.048	1799.48
709.236	1842.49
709.424	1938.74
709.612	1854.78
709.8	1887.54
709.988	1867.06
710.176	1977.66
710.364	1819.96
710.551	1858.87
710.739	1862.97
710.927	1867.06
711.115	2039.09
711.303	1840.44
711.491	1893.69
711.679	1846.59
711.866	1895.74
712.054	1830.2
712.242	1867.06
712.43	1895.74
712.617	1879.35
712.805	1822.01
712.993	1846.59
713.181	1822.01
713.368	1893.69
713.556	1834.3
713.744	1762.62
713.931	1910.07
714.119	1842.49
714.306	1961.27
714.494	1850.68
714.682	1836.35
714.869	1789.24
715.057	1842.49
715.244	1928.5
715.432	1955.13
715.619	1965.37
715.807	1860.92
715.994	1887.54
716.182	1852.73
716.369	1953.08
716.556	1905.98
716.744	1822.01
716.931	1867.06
717.119	1938.74
717.306	1795.39
717.493	1885.5
717.681	1803.58
717.868	1928.5
718.055	1817.91
718.242	1809.72
718.43	1901.88
718.617	1924.41
718.804	1942.84
718.991	1899.83
719.179	2086.2
719.366	1850.68
719.553	1987.89
719.74	1840.44
719.927	1951.03
720.114	1965.37
720.301	1834.3
720.488	1981.75
720.676	1905.98
720.863	1846.59
721.05	1934.65
721.237	1899.83
721.424	1938.74
721.611	2004.28
721.798	1862.97
721.985	1830.2
722.172	1899.83
722.358	1918.26
722.545	1942.84
722.732	1838.39
722.919	1918.26
723.106	1936.7
723.293	1756.47
723.48	1918.26
723.667	1883.45
723.853	1869.11
724.04	1899.83
724.227	1897.78
724.414	1928.5
724.6	1944.89
724.787	1887.54
724.974	1983.8
725.161	1834.3
725.347	1905.98
725.534	1910.07
725.72	1985.85
725.907	1987.89
726.094	1881.4
726.28	1869.11
726.467	1836.35
726.653	1998.13
726.84	1885.5
727.027	1944.89
727.213	1830.2
727.4	1942.84
727.586	1852.73
727.773	1869.11
727.959	1916.22
728.145	1983.8
728.332	1920.31
728.518	1893.69
728.705	1883.45
728.891	1955.13
729.077	1873.21
729.264	1971.51
729.45	1981.75
729.636	1824.06
729.823	1867.06
730.009	1989.94
730.195	1940.79
730.382	1801.53
730.568	1967.42
730.754	1920.31
730.94	1885.5
731.126	1908.02
731.313	1901.88
731.499	1897.78
731.685	1850.68
731.871	1930.55
732.057	1860.92
732.243	1905.98
732.429	1862.97
732.615	1901.88
732.801	1840.44
732.987	1934.65
733.173	1848.63
733.359	1850.68
733.545	1895.74
733.731	1801.53
733.917	1899.83
734.103	1897.78
734.289	1819.96
734.475	1867.06
734.661	1815.87
734.847	1850.68
735.033	1850.68
735.219	1875.26
735.404	1858.87
735.59	1867.06
735.776	1822.01
735.962	1885.5
736.148	1973.56
736.333	1895.74
736.519	1740.09
736.705	1803.58
736.89	1856.83
737.076	1824.06
737.262	1817.91
737.447	1807.67
737.633	1905.98
737.819	1862.97
738.004	1893.69
738.19	1850.68
738.375	1781.05
738.561	1889.59
738.747	1869.11
738.932	1748.28
739.118	1717.56
739.303	1871.16
739.489	1801.53
739.674	1799.48
739.859	1770.81
740.045	1762.62
740.23	1789.24
740.416	1719.61
740.601	1729.85
740.786	1832.25
740.972	1697.08
741.157	1813.82
741.342	1762.62
741.528	1695.04
741.713	1715.52
741.898	1666.36
742.084	1735.99
742.269	1633.6
742.454	1754.43
742.639	1672.51
742.824	1602.88
743.01	1735.99
743.195	1758.52
743.38	1787.19
743.565	1758.52
743.75	1576.25
743.935	1606.97
744.12	1682.75
744.305	1621.31
744.49	1500.48
744.675	1557.82
744.86	1596.73
745.045	1598.78
745.23	1566.01
745.415	1574.21
745.6	1592.64
745.785	1592.64
745.97	1496.38
746.155	1649.98
746.34	1486.14
746.525	1535.29
746.71	1596.73
746.895	1471.81
747.079	1586.49
747.264	1506.62
747.449	1465.66
747.634	1445.18
747.819	1514.81
748.003	1457.47
748.188	1482.05
748.373	1475.9
748.557	1424.7
748.742	1412.42
748.927	1406.27
749.111	1402.18
749.296	1463.62
749.481	1459.52
749.665	1393.98
749.85	1418.56
750.034	1465.66
750.219	1271.11
750.404	1353.02
750.588	1326.4
750.773	1391.94
750.957	1320.26
751.141	1326.4
751.326	1330.5
751.51	1324.35
751.695	1279.3
751.879	1211.71
752.064	1361.22
752.248	1279.3
752.432	1344.83
752.617	1205.57
752.801	1377.6
752.985	1281.35
753.17	1234.24
753.354	1281.35
753.538	1211.71
753.722	1156.42
753.907	1185.09
754.091	1191.24
754.275	1219.91
754.459	1230.15
754.643	1189.19
754.828	1193.28
755.012	1158.47
755.196	1123.65
755.38	1181
755.564	1224
755.748	1174.85
755.932	1094.98
756.116	1060.17
756.3	1054.02
756.484	1092.93
756.668	1099.08
756.852	1099.08
757.036	1066.31
757.22	976.2
757.404	1027.4
757.588	996.68
757.772	1105.22
757.956	1011.01
758.14	965.96
758.323	1035.59
758.507	1033.54
758.691	992.58
758.875	1080.64
759.059	1035.59
759.242	937.29
759.426	892.23
759.61	1039.69
759.794	933.19
759.977	947.53
760.161	1002.82
760.345	855.37
760.528	918.86
760.712	957.77
760.895	941.38
761.079	892.23
761.263	976.2
761.446	920.9
761.63	902.47
761.813	963.91
761.997	769.35
762.18	888.14
762.364	906.57
762.547	859.46
762.731	916.81
762.914	863.56
763.098	812.36
763.281	843.08
763.464	886.09
763.648	814.41
763.831	824.65
764.015	855.37
764.198	855.37
764.381	761.16
764.564	847.18
764.748	785.74
764.931	927.05
765.114	804.17
765.297	777.55
765.481	843.08
765.664	785.74
765.847	795.98
766.03	832.84
766.213	750.92
766.397	769.35
766.58	781.64
766.763	781.64
766.946	701.77
767.129	699.72
767.312	791.88
767.495	783.69
767.678	767.31
767.861	755.02
768.044	775.5
768.227	824.65
768.41	779.59
768.593	726.35
768.776	626
768.959	677.19
769.142	687.43
769.324	720.2
769.507	761.16
769.69	671.05
769.873	648.52
770.056	757.07
770.239	775.5
770.421	666.96
770.604	712.01
770.787	691.53
770.97	703.82
771.152	744.78
771.335	675.15
771.518	623.95
771.7	703.82
771.883	642.38
772.066	654.67
772.248	689.48
772.431	636.24
772.613	736.59
772.796	646.48
772.978	632.14
773.161	689.48
773.343	613.71
773.526	658.76
773.708	550.22
773.891	587.08
774.073	603.47
774.256	564.56
774.438	634.19
774.621	634.19
774.803	654.67
774.985	619.85
775.168	644.43
775.35	560.46
775.532	595.28
775.715	582.99
775.897	613.71
776.079	642.38
776.261	572.75
776.444	562.51
776.626	562.51
776.808	515.41
776.99	632.14
777.173	535.89
777.355	542.03
777.537	597.32
777.719	585.04
777.901	488.78
778.083	546.12
778.265	468.3
778.447	505.17
778.629	568.65
778.811	562.51
778.993	482.64
779.175	535.89
779.357	537.93
779.539	507.21
779.721	494.93
779.903	564.56
780.085	486.73
780.267	437.58
780.449	396.62
780.631	468.3
780.812	429.39
780.994	488.78
781.176	413.01
781.358	427.34
781.54	484.69
781.721	447.82
781.903	382.29
782.085	433.49
782.267	470.35
782.448	406.86
782.63	496.97
782.812	507.21
782.993	374.1
783.175	494.93
783.357	437.58
783.538	425.29
783.72	324.94
783.901	384.34
784.083	415.05
784.264	419.15
784.446	417.1
784.627	394.58
784.809	378.19
784.99	402.77
785.172	451.92
785.353	367.95
785.535	404.82
785.716	365.9
785.897	392.53
786.079	441.68
786.26	392.53
786.441	394.58
786.623	279.89
786.804	396.62
786.985	308.56
787.167	320.85
787.348	365.9
787.529	302.42
787.71	314.7
787.891	316.75
788.073	359.76
788.254	382.29
788.435	316.75
788.616	357.71
788.797	279.89
788.978	296.27
789.159	324.94
789.34	259.41
789.522	298.32
789.703	290.13
789.884	306.51
790.065	263.51
790.246	275.79
790.427	263.51
790.607	318.8
790.788	324.94
790.969	202.07
791.15	341.33
791.331	286.03
791.512	257.36
791.693	288.08
791.874	224.59
792.054	292.18
792.235	243.03
792.416	296.27
792.597	238.93
792.778	249.17
792.958	251.22
793.139	314.7
793.32	288.08
793.5	157.01
793.681	292.18
793.862	240.98
794.042	251.22
794.223	169.3
794.404	204.11
794.584	165.2
794.765	277.84
794.945	251.22
795.126	281.94
795.306	279.89
795.487	224.59
795.667	195.92
795.848	226.64
796.028	251.22
796.209	341.33
796.389	226.64
796.57	331.09
796.75	277.84
796.93	189.78
797.111	216.4
797.291	214.35
797.471	210.26
797.652	263.51
797.832	243.03
798.012	236.88
798.192	150.87
798.373	212.31
798.553	240.98
798.733	222.55
798.913	222.55
799.093	197.97
799.274	175.44
799.454	206.16
799.634	218.45
799.814	249.17
799.994	195.92
800.174	236.88
800.354	142.68
800.534	114
800.714	171.35
800.894	144.72
801.074	228.69
801.254	144.72
801.434	167.25
801.614	206.16
801.794	148.82
801.974	570.7
802.154	175.44
802.334	183.63
802.514	116.05
802.693	189.78
802.873	187.73
803.053	146.77
803.233	208.21
803.413	185.68
803.592	187.73
803.772	204.11
803.952	109.91
804.131	103.76
804.311	181.59
804.491	126.29
804.67	185.68
804.85	144.72
805.03	208.21
805.209	91.48
805.389	202.07
805.568	138.58
805.748	130.39
805.928	167.25
806.107	111.96
806.287	79.19
806.466	171.35
806.646	154.96
806.825	175.44
807.004	236.88
807.184	140.63
807.363	167.25
807.543	173.39
807.722	163.15
807.901	167.25
808.081	179.54
808.26	124.24
808.439	224.59
808.619	148.82
808.798	132.44
808.977	130.39
809.156	132.44
809.336	122.2
809.515	179.54
809.694	148.82
809.873	161.11
810.052	154.96
810.231	130.39
810.411	144.72
810.59	159.06
810.769	159.06
810.948	165.2
811.127	81.24
811.306	118.1
811.485	42.32
811.664	157.01
811.843	87.38
812.022	159.06
812.201	54.61
812.38	142.68
812.559	128.34
812.737	136.53
812.916	134.48
813.095	163.15
813.274	126.29
813.453	114
813.632	95.57
813.811	148.82
813.989	124.24
814.168	140.63
814.347	136.53
814.526	144.72
814.704	152.91
814.883	157.01
815.062	142.68
815.24	124.24
815.419	93.52
815.598	116.05
815.776	25.94
815.955	116.05
816.133	111.96
816.312	68.95
816.49	71
816.669	54.61
816.847	89.43
817.026	64.85
817.204	66.9
817.383	30.04
817.561	36.18
817.74	140.63
817.918	150.87
818.097	73.04
818.275	99.67
818.453	46.42
818.632	46.42
818.81	95.57
818.988	134.48
819.167	50.52
819.345	21.85
819.523	66.9
819.701	109.91
819.879	101.72
820.058	101.72
820.236	-0.68
820.414	77.14
820.592	75.09
820.77	68.95
820.948	27.99
821.127	68.95
821.305	79.19
821.483	36.18
821.661	73.04
821.839	58.71
822.017	116.05
822.195	89.43
822.373	89.43
822.551	105.81
822.729	91.48
822.907	87.38
823.085	134.48
823.262	124.24
823.44	85.33
823.618	93.52
823.796	66.9
823.974	73.04
824.152	79.19
824.329	11.61
824.507	75.09
824.685	161.11
824.863	122.2
825.04	105.81
825.218	85.33
825.396	93.52
825.574	68.95
825.751	103.76
825.929	68.95
826.107	73.04
826.284	50.52
826.462	58.71
826.639	60.76
826.817	58.71
826.994	62.8
827.172	60.76
827.349	66.9
827.527	54.61
827.704	89.43
827.882	64.85
828.059	25.94
828.237	73.04
828.414	75.09
828.591	7.51
828.769	9.56
828.946	21.85
829.124	152.91
829.301	97.62
829.478	40.28
829.655	50.52
829.833	58.71
830.01	13.65
830.187	9.56
830.364	36.18
830.542	60.76
830.719	73.04
830.896	50.52
831.073	95.57
831.25	161.11
831.427	46.42
831.604	60.76
831.782	105.81
831.959	42.32
832.136	44.37
832.313	118.1
832.49	91.48
832.667	21.85
832.844	60.76
833.021	118.1
833.198	111.96
833.374	91.48
833.551	46.42
833.728	60.76
833.905	7.51
834.082	56.66
834.259	50.52
834.436	107.86
834.612	56.66
834.789	62.8
834.966	152.91
835.143	91.48
835.319	-21.16
835.496	64.85
835.673	36.18
835.85	5.46
836.026	50.52
836.203	50.52
836.38	91.48
836.556	64.85
836.733	56.66
836.909	36.18
837.086	109.91
837.262	109.91
837.439	36.18
837.616	60.76
837.792	77.14
837.968	7.51
838.145	-27.31
838.321	25.94
838.498	21.85
838.674	46.42
838.851	25.94
839.027	38.23
839.203	23.89
839.38	116.05
839.556	25.94
839.732	54.61
839.909	50.52
840.085	66.9
840.261	68.95
840.437	7.51
840.614	75.09
840.79	79.19
840.966	30.04
841.142	68.95
841.318	13.65
841.494	60.76
841.671	68.95
841.847	-35.5
842.023	66.9
842.199	68.95
842.375	50.52
842.551	79.19
842.727	60.76
842.903	52.56
843.079	11.61
843.255	97.62
843.431	-25.26
843.607	36.18
843.783	-31.4
843.959	73.04
844.134	38.23
844.31	130.39
844.486	-49.83
844.662	-49.83
844.838	36.18
845.013	48.47
845.189	54.61
845.365	46.42
845.541	109.91
845.716	58.71
845.892	7.51
846.068	3.41
846.244	-51.88
846.419	13.65
846.595	3.41
846.77	19.8
846.946	-0.68
847.122	99.67
847.297	50.52
847.473	17.75
847.648	25.94
847.824	103.76
847.999	-33.45
848.175	77.14
848.35	83.28
848.526	9.56
848.701	66.9
848.876	21.85
849.052	13.65
849.227	27.99
849.403	71
849.578	62.8
849.753	-12.97
849.929	118.1
850.104	21.85
850.279	58.71
850.454	23.89
850.63	17.75
850.805	25.94
850.98	60.76
851.155	30.04
851.33	-33.45
851.505	1.37
851.681	66.9
851.856	64.85
852.031	38.23
852.206	-31.4
852.381	5.46
852.556	44.37
852.731	50.52
852.906	7.51
853.081	-41.64
853.256	1.37
853.431	-8.87
853.606	3.41
853.781	-6.83
853.956	9.56
854.131	64.85
854.305	15.7
854.48	25.94
854.655	-12.97
854.83	15.7
855.005	30.04
855.18	54.61
855.354	40.28
855.529	30.04
855.704	52.56
855.879	11.61
856.053	1.37
856.228	68.95
856.403	-12.97
856.577	44.37
856.752	-17.07
856.926	89.43
857.101	11.61
857.276	3.41
857.45	-47.79
857.625	79.19
857.799	13.65
857.974	58.71
858.148	-41.64
858.323	-19.11
858.497	-6.83
858.672	40.28
858.846	1.37
859.02	36.18
859.195	46.42
859.369	-33.45
859.543	13.65
859.718	5.46
859.892	-31.4
860.066	91.48
860.241	46.42
860.415	50.52
860.589	-53.93
860.763	62.8
860.938	-35.5
861.112	62.8
861.286	25.94
861.46	66.9
861.634	-53.93
861.808	71
861.982	23.89
862.157	-17.07
862.331	36.18
862.505	-25.26
862.679	13.65
862.853	68.95
863.027	-0.68
863.201	44.37
863.375	-0.68
863.549	-27.31
863.722	-6.83
863.896	81.24
864.07	7.51
864.244	21.85
864.418	48.47
864.592	-19.11
864.766	11.61
864.939	-0.68
865.113	21.85
865.287	44.37
865.461	-47.79
865.634	56.66
865.808	40.28
865.982	-8.87
866.156	58.71
866.329	9.56
866.503	19.8
866.676	73.04
866.85	-2.73
867.024	-70.31
867.197	34.13
867.371	27.99
867.544	-41.64
867.718	25.94
867.891	1.37
868.065	11.61
868.238	52.56
868.412	27.99
868.585	25.94
868.759	-31.4
868.932	-27.31
869.105	32.08
869.279	-8.87
869.452	-37.55
869.625	13.65
869.799	54.61
869.972	11.61
870.145	46.42
870.319	-19.11
870.492	52.56
870.665	-12.97
870.838	-0.68
871.011	-37.55
871.185	50.52
871.358	-12.97
871.531	7.51
871.704	-107.18
871.877	-6.83
872.05	-29.35
872.223	36.18
872.396	44.37
872.569	-82.6
872.742	-60.07
872.915	-55.98
873.088	75.09
873.261	19.8
873.434	19.8
873.607	44.37
873.78	91.48
873.953	1.37
874.126	-74.41
874.299	21.85
874.471	7.51
874.644	-12.97
874.817	19.8
874.99	56.66
875.163	-17.07
875.335	27.99
875.508	-15.02
875.681	25.94
875.853	-29.35
876.026	50.52
876.199	50.52
876.371	-23.21
876.544	7.51
876.717	3.41
876.889	52.56
877.062	3.41
877.234	25.94
877.407	44.37
877.579	81.24
877.752	-17.07
877.924	-55.98
878.097	68.95
878.269	-31.4
878.442	-2.73
878.614	30.04
878.786	46.42
878.959	7.51
879.131	64.85
879.303	-6.83
879.476	46.42
879.648	36.18
879.82	-27.31
879.993	-17.07
880.165	32.08
880.337	-84.65
880.509	36.18
880.681	-19.11
880.854	97.62
881.026	-2.73
881.198	5.46
881.37	50.52
881.542	48.47
881.714	-21.16
881.886	-4.78
882.058	-29.35
882.23	52.56
882.402	15.7
882.574	56.66
882.746	36.18
882.918	30.04
883.09	58.71
883.262	17.75
883.434	3.41
883.606	7.51
883.778	32.08
883.95	15.7
884.122	5.46
884.293	85.33
884.465	3.41
884.637	-29.35
884.809	-47.79
884.98	66.9
885.152	-17.07
885.324	19.8
885.496	77.14
885.667	21.85
885.839	3.41
886.011	62.8
886.182	44.37
886.354	13.65
886.525	-41.64
886.697	73.04
886.869	3.41
887.04	-41.64
887.212	-17.07
887.383	95.57
887.555	21.85
887.726	21.85
887.897	-39.59
888.069	-27.31
888.24	-0.68
888.412	34.13
888.583	-29.35
888.754	-0.68
888.926	-37.55
889.097	-72.36
889.268	-33.45
889.44	19.8
889.611	-58.03
889.782	-25.26
889.953	-62.12
890.125	66.9
890.296	-64.17
890.467	25.94
890.638	23.89
890.809	32.08
890.98	-94.89
891.151	1.37
891.323	-51.88
891.494	-8.87
891.665	36.18
891.836	23.89
892.007	-19.11
892.178	-17.07
892.349	-39.59
892.52	-31.4
892.691	-19.11
892.862	56.66
893.032	-78.51
893.203	40.28
893.374	-113.32
893.545	54.61
893.716	-47.79
893.887	34.13
894.057	38.23
894.228	7.51
894.399	-21.16
894.57	21.85
894.74	-47.79
894.911	13.65
895.082	44.37
895.253	-6.83
895.423	-17.07
895.594	38.23
895.764	91.48
895.935	-92.84
896.106	3.41
896.276	-4.78
896.447	-17.07
896.617	-17.07
896.788	-45.74
896.958	19.8
897.129	-68.27
897.299	7.51
897.47	27.99
897.64	91.48
897.81	34.13
897.981	1.37
898.151	-27.31
898.322	11.61
898.492	-58.03
898.662	3.41
898.832	-49.83
899.003	9.56
899.173	36.18
899.343	-0.68
899.513	-6.83
