Data from USB4F104151__30__11-51-34-848.txt Node

Date: Fri Mar 14 11:51:34 EDT 2025
User: louis
Spectrometer: USB4F10415
Trigger mode: 4
Integration Time (sec): 2.000000E-2
Scans to average: 1
Electric dark correction enabled: true
Nonlinearity correction enabled: false
Boxcar width: 0
XAxis mode: Wavelengths
Number of Pixels in Spectrum: 3648
>>>>>Begin Spectral Data<<<<<
178.204	-116.56
178.424	-116.56
178.644	-116.56
178.864	-73.56
179.084	-67.41
179.304	-44.88
179.524	-18.26
179.744	-75.6
179.964	59.56
180.184	22.7
180.404	86.19
180.624	-34.64
180.844	20.65
181.064	30.89
181.283	-8.02
181.503	-10.07
181.723	-28.5
181.943	-34.64
182.163	16.55
182.383	-26.45
182.602	32.94
182.822	24.75
183.042	14.51
183.262	10.41
183.482	-3.93
183.701	-12.12
183.921	-5.97
184.141	57.51
184.361	-18.26
184.58	-12.12
184.8	12.46
185.02	30.89
185.239	69.8
185.459	6.31
185.679	37.03
185.898	18.6
186.118	43.18
186.338	-53.08
186.557	37.03
186.777	51.37
186.997	10.41
187.216	32.94
187.436	24.75
187.655	30.89
187.875	32.94
188.095	39.08
188.314	37.03
188.534	77.99
188.753	80.04
188.973	22.7
189.192	43.18
189.412	22.7
189.631	37.03
189.851	-8.02
190.07	94.38
190.29	-61.27
190.509	-1.88
190.729	49.32
190.948	49.32
191.168	108.71
191.387	-34.64
191.607	28.84
191.826	69.8
192.045	82.09
192.265	102.57
192.484	88.23
192.704	-10.07
192.923	47.27
193.142	84.14
193.362	0.17
193.581	16.55
193.8	43.18
194.02	22.7
194.239	-44.88
194.458	8.36
194.678	16.55
194.897	20.65
195.116	-10.07
195.335	28.84
195.555	71.85
195.774	43.18
195.993	2.22
196.212	16.55
196.432	57.51
196.651	-1.88
196.87	53.42
197.089	96.43
197.308	59.56
197.528	39.08
197.747	-40.79
197.966	30.89
198.185	59.56
198.404	-30.55
198.623	26.79
198.842	92.33
199.062	102.57
199.281	106.67
199.5	57.51
199.719	-40.79
199.938	-22.36
200.157	43.18
200.376	16.55
200.595	71.85
200.814	20.65
201.033	53.42
201.252	24.75
201.471	-1.88
201.69	96.43
201.909	84.14
202.128	39.08
202.347	102.57
202.566	4.27
202.785	65.71
203.004	-3.93
203.223	100.52
203.442	39.08
203.661	61.61
203.879	30.89
204.098	28.84
204.317	-12.12
204.536	8.36
204.755	57.51
204.974	110.76
205.193	-10.07
205.411	49.32
205.63	-30.55
205.849	47.27
206.068	14.51
206.287	28.84
206.505	41.13
206.724	86.19
206.943	10.41
207.162	-5.97
207.381	-32.6
207.599	10.41
207.818	41.13
208.037	-26.45
208.255	6.31
208.474	147.62
208.693	30.89
208.911	0.17
209.13	41.13
209.349	-65.36
209.567	53.42
209.786	41.13
210.005	98.47
210.223	88.23
210.442	-18.26
210.661	51.37
210.879	-5.97
211.098	88.23
211.316	41.13
211.535	-28.5
211.753	16.55
211.972	45.23
212.191	47.27
212.409	77.99
212.628	63.66
212.846	14.51
213.065	20.65
213.283	77.99
213.502	-42.84
213.72	-5.97
213.938	8.36
214.157	22.7
214.375	69.8
214.594	26.79
214.812	18.6
215.031	32.94
215.249	16.55
215.467	67.75
215.686	14.51
215.904	45.23
216.122	82.09
216.341	135.34
216.559	59.56
216.778	-18.26
216.996	55.47
217.214	49.32
217.432	69.8
217.651	-20.31
217.869	-10.07
218.087	45.23
218.306	39.08
218.524	51.37
218.742	114.86
218.96	10.41
219.179	26.79
219.397	37.03
219.615	-1.88
219.833	-73.56
220.051	-1.88
220.27	6.31
220.488	102.57
220.706	49.32
220.924	80.04
221.142	43.18
221.36	67.75
221.578	26.79
221.796	0.17
222.015	-1.88
222.233	67.75
222.451	102.57
222.669	-1.88
222.887	102.57
223.105	45.23
223.323	73.9
223.541	-77.65
223.759	67.75
223.977	24.75
224.195	20.65
224.413	24.75
224.631	0.17
224.849	28.84
225.067	57.51
225.285	-26.45
225.503	-34.64
225.721	-53.08
225.939	-67.41
226.157	41.13
226.375	18.6
226.592	32.94
226.81	-1.88
227.028	67.75
227.246	123.05
227.464	75.95
227.682	20.65
227.9	22.7
228.117	94.38
228.335	49.32
228.553	61.61
228.771	2.22
228.989	73.9
229.206	14.51
229.424	49.32
229.642	-28.5
229.86	4.27
230.077	-16.21
230.295	39.08
230.513	104.62
230.731	82.09
230.948	12.46
231.166	-18.26
231.384	22.7
231.601	-5.97
231.819	26.79
232.037	-24.4
232.254	22.7
232.472	75.95
232.689	80.04
232.907	65.71
233.125	18.6
233.342	20.65
233.56	53.42
233.777	51.37
233.995	16.55
234.213	90.28
234.43	4.27
234.648	100.52
234.865	104.62
235.083	57.51
235.3	30.89
235.518	75.95
235.735	22.7
235.953	63.66
236.17	80.04
236.388	28.84
236.605	55.47
236.822	84.14
237.04	24.75
237.257	16.55
237.475	30.89
237.692	37.03
237.909	39.08
238.127	14.51
238.344	16.55
238.562	41.13
238.779	14.51
238.996	34.99
239.214	16.55
239.431	14.51
239.648	10.41
239.865	16.55
240.083	55.47
240.3	41.13
240.517	77.99
240.735	26.79
240.952	55.47
241.169	80.04
241.386	39.08
241.603	6.31
241.821	10.41
242.038	106.67
242.255	75.95
242.472	-5.97
242.689	20.65
242.907	90.28
243.124	37.03
243.341	37.03
243.558	20.65
243.775	-22.36
243.992	-28.5
244.209	53.42
244.426	88.23
244.643	55.47
244.86	-5.97
245.078	125.1
245.295	86.19
245.512	108.71
245.729	6.31
245.946	24.75
246.163	12.46
246.38	55.47
246.597	-12.12
246.814	32.94
247.031	73.9
247.248	43.18
247.464	34.99
247.681	53.42
247.898	-16.21
248.115	28.84
248.332	-8.02
248.549	69.8
248.766	39.08
248.983	51.37
249.2	59.56
249.417	39.08
249.633	30.89
249.85	65.71
250.067	49.32
250.284	22.7
250.501	86.19
250.717	127.14
250.934	12.46
251.151	-34.64
251.368	57.51
251.585	45.23
251.801	26.79
252.018	39.08
252.235	80.04
252.451	49.32
252.668	-1.88
252.885	55.47
253.102	22.7
253.318	34.99
253.535	-59.22
253.752	16.55
253.968	0.17
254.185	22.7
254.401	57.51
254.618	75.95
254.835	-32.6
255.051	114.86
255.268	53.42
255.484	67.75
255.701	49.32
255.917	49.32
256.134	-20.31
256.351	65.71
256.567	63.66
256.784	51.37
257	-16.21
257.217	28.84
257.433	22.7
257.65	51.37
257.866	69.8
258.082	-10.07
258.299	26.79
258.515	55.47
258.732	43.18
258.948	45.23
259.165	10.41
259.381	43.18
259.597	71.85
259.814	10.41
260.03	67.75
260.246	41.13
260.463	73.9
260.679	28.84
260.895	43.18
261.112	59.56
261.328	-30.55
261.544	88.23
261.761	39.08
261.977	69.8
262.193	51.37
262.409	-1.88
262.626	65.71
262.842	-34.64
263.058	47.27
263.274	20.65
263.49	39.08
263.707	39.08
263.923	45.23
264.139	14.51
264.355	28.84
264.571	34.99
264.787	30.89
265.004	94.38
265.22	-30.55
265.436	16.55
265.652	6.31
265.868	71.85
266.084	28.84
266.3	75.95
266.516	-24.4
266.732	57.51
266.948	34.99
267.164	20.65
267.38	-5.97
267.596	98.47
267.812	71.85
268.028	114.86
268.244	61.61
268.46	12.46
268.676	65.71
268.892	30.89
269.108	10.41
269.324	26.79
269.54	65.71
269.756	75.95
269.972	49.32
270.188	55.47
270.403	-91.99
270.619	63.66
270.835	45.23
271.051	67.75
271.267	86.19
271.483	18.6
271.698	63.66
271.914	73.9
272.13	26.79
272.346	-16.21
272.562	30.89
272.777	123.05
272.993	43.18
273.209	67.75
273.425	-10.07
273.64	14.51
273.856	20.65
274.072	80.04
274.287	30.89
274.503	-8.02
274.719	2.22
274.934	2.22
275.15	55.47
275.366	63.66
275.581	-14.17
275.797	6.31
276.012	59.56
276.228	51.37
276.444	55.47
276.659	82.09
276.875	108.71
277.09	71.85
277.306	-18.26
277.521	61.61
277.737	24.75
277.952	96.43
278.168	55.47
278.383	-8.02
278.599	26.79
278.814	86.19
279.03	59.56
279.245	71.85
279.461	-10.07
279.676	63.66
279.892	-5.97
280.107	0.17
280.322	12.46
280.538	-16.21
280.753	30.89
280.969	-36.69
281.184	16.55
281.399	63.66
281.615	80.04
281.83	57.51
282.045	12.46
282.26	30.89
282.476	6.31
282.691	16.55
282.906	-1.88
283.122	6.31
283.337	20.65
283.552	84.14
283.767	75.95
283.983	47.27
284.198	26.79
284.413	34.99
284.628	22.7
284.843	88.23
285.058	37.03
285.274	39.08
285.489	-5.97
285.704	94.38
285.919	-30.55
286.134	-20.31
286.349	49.32
286.564	57.51
286.779	94.38
286.995	39.08
287.21	18.6
287.425	75.95
287.64	37.03
287.855	34.99
288.07	12.46
288.285	84.14
288.5	104.62
288.715	67.75
288.93	61.61
289.145	-8.02
289.36	59.56
289.575	16.55
289.79	43.18
290.004	-12.12
290.219	51.37
290.434	104.62
290.649	49.32
290.864	12.46
291.079	106.67
291.294	80.04
291.509	53.42
291.724	57.51
291.938	71.85
292.153	59.56
292.368	53.42
292.583	45.23
292.798	77.99
293.012	34.99
293.227	14.51
293.442	-55.12
293.657	24.75
293.871	26.79
294.086	86.19
294.301	67.75
294.516	32.94
294.73	-5.97
294.945	43.18
295.16	8.36
295.374	22.7
295.589	20.65
295.804	73.9
296.018	51.37
296.233	-59.22
296.447	4.27
296.662	14.51
296.877	14.51
297.091	53.42
297.306	149.67
297.52	47.27
297.735	77.99
297.949	43.18
298.164	45.23
298.378	16.55
298.593	26.79
298.807	82.09
299.022	34.99
299.236	24.75
299.451	-20.31
299.665	18.6
299.88	43.18
300.094	-22.36
300.309	106.67
300.523	69.8
300.737	24.75
300.952	106.67
301.166	92.33
301.381	12.46
301.595	41.13
301.809	49.32
302.024	-10.07
302.238	6.31
302.452	100.52
302.667	-14.17
302.881	77.99
303.095	34.99
303.309	65.71
303.524	16.55
303.738	92.33
303.952	4.27
304.166	69.8
304.381	26.79
304.595	53.42
304.809	26.79
305.023	-3.93
305.237	18.6
305.452	-18.26
305.666	61.61
305.88	45.23
306.094	86.19
306.308	30.89
306.522	67.75
306.736	-57.17
306.95	63.66
307.164	4.27
307.379	-55.12
307.593	49.32
307.807	30.89
308.021	71.85
308.235	86.19
308.449	-28.5
308.663	61.61
308.877	155.82
309.091	88.23
309.305	-10.07
309.519	32.94
309.733	28.84
309.947	55.47
310.161	108.71
310.374	41.13
310.588	2.22
310.802	47.27
311.016	-10.07
311.23	-5.97
311.444	51.37
311.658	8.36
311.872	69.8
312.085	22.7
312.299	63.66
312.513	61.61
312.727	84.14
312.941	51.37
313.154	75.95
313.368	26.79
313.582	18.6
313.796	80.04
314.009	16.55
314.223	102.57
314.437	77.99
314.651	63.66
314.864	63.66
315.078	6.31
315.292	88.23
315.505	16.55
315.719	24.75
315.933	24.75
316.146	-20.31
316.36	34.99
316.573	98.47
316.787	88.23
317.001	34.99
317.214	-34.64
317.428	32.94
317.641	-30.55
317.855	-18.26
318.068	59.56
318.282	14.51
318.495	104.62
318.709	57.51
318.922	8.36
319.136	94.38
319.349	28.84
319.563	0.17
319.776	59.56
319.99	2.22
320.203	59.56
320.417	0.17
320.63	73.9
320.843	92.33
321.057	75.95
321.27	37.03
321.483	14.51
321.697	77.99
321.91	34.99
322.124	47.27
322.337	-22.36
322.55	16.55
322.763	-8.02
322.977	-10.07
323.19	51.37
323.403	67.75
323.617	49.32
323.83	80.04
324.043	8.36
324.256	12.46
324.469	43.18
324.683	51.37
324.896	112.81
325.109	84.14
325.322	39.08
325.535	67.75
325.748	73.9
325.962	65.71
326.175	-46.93
326.388	37.03
326.601	-16.21
326.814	6.31
327.027	10.41
327.24	67.75
327.453	14.51
327.666	102.57
327.879	49.32
328.092	96.43
328.305	-10.07
328.518	6.31
328.731	71.85
328.944	41.13
329.157	75.95
329.37	65.71
329.583	73.9
329.796	65.71
330.009	-32.6
330.222	108.71
330.435	82.09
330.648	49.32
330.861	59.56
331.073	28.84
331.286	82.09
331.499	4.27
331.712	69.8
331.925	55.47
332.138	45.23
332.35	96.43
332.563	61.61
332.776	4.27
332.989	49.32
333.202	55.47
333.414	-12.12
333.627	82.09
333.84	61.61
334.053	86.19
334.265	-38.74
334.478	49.32
334.691	43.18
334.903	14.51
335.116	-51.03
335.329	34.99
335.541	67.75
335.754	57.51
335.966	30.89
336.179	98.47
336.392	67.75
336.604	37.03
336.817	12.46
337.029	61.61
337.242	-1.88
337.454	75.95
337.667	32.94
337.88	-32.6
338.092	59.56
338.305	94.38
338.517	80.04
338.729	166.06
338.942	75.95
339.154	53.42
339.367	47.27
339.579	57.51
339.792	8.36
340.004	57.51
340.217	-12.12
340.429	49.32
340.641	55.47
340.854	-1.88
341.066	51.37
341.278	26.79
341.491	51.37
341.703	10.41
341.915	-67.41
342.128	24.75
342.34	16.55
342.552	39.08
342.764	32.94
342.977	37.03
343.189	55.47
343.401	84.14
343.613	22.7
343.826	26.79
344.038	88.23
344.25	98.47
344.462	65.71
344.674	59.56
344.886	55.47
345.099	20.65
345.311	53.42
345.523	88.23
345.735	-12.12
345.947	30.89
346.159	-51.03
346.371	94.38
346.583	57.51
346.795	88.23
347.007	12.46
347.219	-18.26
347.431	49.32
347.643	145.58
347.855	47.27
348.067	65.71
348.279	0.17
348.491	18.6
348.703	80.04
348.915	37.03
349.127	69.8
349.339	20.65
349.551	26.79
349.763	92.33
349.975	75.95
350.187	96.43
350.399	53.42
350.61	57.51
350.822	75.95
351.034	39.08
351.246	-26.45
351.458	77.99
351.669	2.22
351.881	67.75
352.093	49.32
352.305	80.04
352.517	55.47
352.728	16.55
352.94	53.42
353.152	-32.6
353.363	-3.93
353.575	92.33
353.787	86.19
353.999	51.37
354.21	92.33
354.422	-22.36
354.633	43.18
354.845	59.56
355.057	65.71
355.268	53.42
355.48	92.33
355.692	43.18
355.903	51.37
356.115	118.95
356.326	16.55
356.538	63.66
356.749	86.19
356.961	149.67
357.172	4.27
357.384	24.75
357.595	131.24
357.807	102.57
358.018	67.75
358.23	34.99
358.441	84.14
358.653	49.32
358.864	26.79
359.075	-38.74
359.287	86.19
359.498	32.94
359.709	106.67
359.921	51.37
360.132	92.33
360.344	51.37
360.555	37.03
360.766	41.13
360.977	45.23
361.189	49.32
361.4	2.22
361.611	96.43
361.823	10.41
362.034	24.75
362.245	-10.07
362.456	65.71
362.667	65.71
362.879	39.08
363.09	-36.69
363.301	47.27
363.512	53.42
363.723	55.47
363.935	28.84
364.146	131.24
364.357	-10.07
364.568	51.37
364.779	63.66
364.99	84.14
365.201	55.47
365.412	110.76
365.623	88.23
365.834	67.75
366.045	0.17
366.256	59.56
366.467	63.66
366.678	26.79
366.889	65.71
367.1	77.99
367.311	32.94
367.522	57.51
367.733	100.52
367.944	30.89
368.155	8.36
368.366	57.51
368.577	22.7
368.788	37.03
368.999	20.65
369.209	32.94
369.42	28.84
369.631	92.33
369.842	69.8
370.053	-22.36
370.264	6.31
370.474	71.85
370.685	65.71
370.896	-20.31
371.107	118.95
371.317	75.95
371.528	20.65
371.739	65.71
371.95	0.17
372.16	59.56
372.371	-36.69
372.582	41.13
372.792	145.58
373.003	116.9
373.214	26.79
373.424	94.38
373.635	30.89
373.846	106.67
374.056	53.42
374.267	39.08
374.477	-5.97
374.688	32.94
374.898	75.95
375.109	75.95
375.319	104.62
375.53	63.66
375.74	67.75
375.951	75.95
376.161	121
376.372	102.57
376.582	102.57
376.793	37.03
377.003	88.23
377.214	22.7
377.424	26.79
377.635	39.08
377.845	73.9
378.055	43.18
378.266	-32.6
378.476	53.42
378.686	88.23
378.897	84.14
379.107	118.95
379.317	24.75
379.528	22.7
379.738	77.99
379.948	-20.31
380.158	125.1
380.369	90.28
380.579	69.8
380.789	34.99
380.999	71.85
381.21	67.75
381.42	57.51
381.63	16.55
381.84	57.51
382.05	84.14
382.261	118.95
382.471	104.62
382.681	61.61
382.891	82.09
383.101	10.41
383.311	104.62
383.521	24.75
383.731	114.86
383.941	118.95
384.151	65.71
384.361	88.23
384.571	30.89
384.781	8.36
384.991	110.76
385.201	100.52
385.411	32.94
385.621	57.51
385.831	63.66
386.041	57.51
386.251	75.95
386.461	51.37
386.671	0.17
386.881	75.95
387.091	75.95
387.301	96.43
387.511	112.81
387.72	184.49
387.93	28.84
388.14	28.84
388.35	112.81
388.56	55.47
388.769	86.19
388.979	135.34
389.189	34.99
389.399	59.56
389.609	102.57
389.818	63.66
390.028	73.9
390.238	37.03
390.447	116.9
390.657	55.47
390.867	24.75
391.076	84.14
391.286	16.55
391.496	26.79
391.705	32.94
391.915	116.9
392.125	57.51
392.334	12.46
392.544	108.71
392.753	86.19
392.963	88.23
393.172	92.33
393.382	14.51
393.591	102.57
393.801	61.61
394.01	88.23
394.22	86.19
394.429	84.14
394.639	34.99
394.848	110.76
395.058	98.47
395.267	57.51
395.477	96.43
395.686	129.19
395.895	127.14
396.105	90.28
396.314	53.42
396.524	86.19
396.733	129.19
396.942	164.01
397.152	118.95
397.361	94.38
397.57	59.56
397.78	116.9
397.989	61.61
398.198	192.68
398.407	86.19
398.617	100.52
398.826	137.38
399.035	143.53
399.244	116.9
399.453	96.43
399.663	161.96
399.872	174.25
400.081	137.38
400.29	145.58
400.499	112.81
400.708	157.86
400.917	92.33
401.127	94.38
401.336	135.34
401.545	182.44
401.754	92.33
401.963	192.68
402.172	125.1
402.381	139.43
402.59	137.38
402.799	104.62
403.008	86.19
403.217	159.91
403.426	153.77
403.635	149.67
403.844	20.65
404.053	204.97
404.262	174.25
404.471	221.35
404.68	108.71
404.888	155.82
405.097	141.48
405.306	164.01
405.515	225.45
405.724	184.49
405.933	174.25
406.142	207.02
406.35	237.74
406.559	245.93
406.768	192.68
406.977	170.15
407.185	237.74
407.394	174.25
407.603	207.02
407.812	274.6
408.02	346.28
408.229	252.07
408.438	213.16
408.646	235.69
408.855	280.74
409.064	282.79
409.272	235.69
409.481	303.27
409.69	297.13
409.898	346.28
410.107	288.93
410.315	284.84
410.524	325.8
410.733	319.65
410.941	272.55
411.15	385.19
411.358	383.14
411.567	362.66
411.775	424.1
411.984	385.19
412.192	368.81
412.401	438.44
412.609	446.63
412.818	487.59
413.026	508.07
413.234	530.59
413.443	553.12
413.651	645.28
413.86	579.75
414.068	653.47
414.276	573.6
414.485	616.61
414.693	645.28
414.901	692.38
415.11	696.48
415.318	704.67
415.526	708.77
415.734	694.43
415.943	800.93
416.151	878.75
416.359	909.47
416.567	911.52
416.776	975
416.984	979.1
417.192	1011.87
417.4	997.53
417.608	819.36
417.817	993.44
418.025	1065.11
418.233	1235.1
418.441	1169.56
418.649	1169.56
418.857	1200.28
419.065	1441.94
419.273	1243.29
419.481	1413.27
419.689	1429.65
419.897	1570.96
420.105	1456.28
420.313	1607.83
420.521	1542.29
420.729	1628.31
420.937	1759.38
421.145	1812.62
421.353	1935.5
421.561	1976.46
421.769	1927.31
421.977	1937.55
422.185	2080.91
422.393	2160.78
422.601	2271.37
422.809	2367.62
423.017	2320.52
423.224	2381.96
423.432	2467.97
423.64	2474.12
423.848	2607.23
424.056	2621.57
424.263	2846.85
424.471	2930.81
424.679	2832.51
424.887	3045.5
425.094	3061.88
425.302	3186.81
425.51	3233.91
425.718	3354.74
425.925	3551.35
426.133	3510.39
426.341	3797.1
426.548	3909.74
426.756	3932.27
426.964	3981.42
427.171	4126.83
427.379	4374.63
427.586	4231.27
427.794	4399.21
428.001	4671.59
428.209	5003.36
428.417	4909.15
428.624	5212.25
428.832	5206.11
429.039	5029.98
429.247	5261.4
429.454	5666.9
429.662	5867.6
429.869	5693.52
430.076	6219.85
430.284	5843.03
430.491	6119.5
430.699	6467.66
430.906	6451.27
431.114	6479.94
431.321	6891.59
431.528	6862.91
431.736	7344.19
431.943	7948.34
432.15	7508.02
432.358	7485.5
432.565	8087.6
432.772	8028.21
432.979	8466.47
433.187	8497.19
433.394	8509.48
433.601	9080.86
433.808	9349.15
434.016	9205.79
434.223	9582.62
434.43	10080.27
434.637	9855
434.844	10678.28
435.052	10723.34
435.259	10725.38
435.466	10684.42
435.673	10647.56
435.88	11431.93
436.087	12025.84
436.294	11698.17
436.501	11560.95
436.708	12138.48
436.915	12435.44
437.122	12832.74
437.329	12840.93
437.537	13191.14
437.743	13361.12
437.95	13332.45
438.157	13995.99
438.364	14583.76
438.571	14383.06
438.778	14452.69
438.985	15951.8
439.192	15269.83
439.399	15644.6
439.606	15546.3
439.813	16275.38
440.02	17334.18
440.227	16918.44
440.433	16775.08
440.64	17493.92
440.847	17502.11
441.054	17844.12
441.261	18755.47
441.467	18325.4
441.674	19130.25
441.881	19828.6
442.088	19617.66
442.294	19519.36
442.501	20098.94
442.708	20467.57
442.914	21219.17
443.121	22218.58
443.328	21610.34
443.534	22998.86
443.741	22294.36
443.948	22187.86
444.154	24069.95
444.361	23705.41
444.568	23760.7
444.774	23865.15
444.981	24033.08
445.187	25083.69
445.394	25802.53
445.6	25468.71
445.807	27784.96
446.013	26582.81
446.22	27045.65
446.426	28165.88
446.633	28411.64
446.839	29566.7
447.046	28483.32
447.252	29994.72
447.459	29753.06
447.665	29945.57
447.871	31276.75
448.078	32421.56
448.284	30994.13
448.491	31631.05
448.697	32988.85
448.903	33621.67
449.11	33697.45
449.316	33167.02
449.522	34313.89
449.728	34475.68
449.935	34981.52
450.141	35014.29
450.347	35964.55
450.553	34664.09
450.76	35235.47
450.966	36220.55
451.172	35638.92
451.378	36681.34
451.584	35657.35
451.791	37019.25
451.997	36783.74
452.203	37432.94
452.409	37527.15
452.615	37449.33
452.821	35450.51
453.027	35423.89
453.233	37643.88
453.44	36275.84
453.646	36624
453.852	36671.1
454.058	37385.84
454.264	36064.9
454.47	36769.4
454.676	36001.41
454.882	37187.19
455.088	34191.01
455.294	34573.98
455.5	34631.32
455.705	35395.21
455.911	33885.86
456.117	33132.21
456.323	32786.1
456.529	30998.23
456.735	32286.4
456.941	31491.79
457.147	31237.84
457.352	30424.79
457.558	29902.56
457.764	30027.49
457.97	29617.89
458.176	28657.4
458.381	28604.15
458.587	27256.59
458.793	27197.2
458.999	25939.74
459.204	27703.04
459.41	27008.78
459.616	25141.04
459.821	25063.21
460.027	25118.51
460.233	24794.93
460.438	23213.9
460.644	23672.64
460.85	22527.83
461.055	22452.05
461.261	22312.79
461.466	20619.12
461.672	19709.82
461.878	21446.5
462.083	19756.93
462.289	19568.51
462.494	19279.75
462.7	18573.2
462.905	17909.66
463.111	18757.52
463.316	18446.23
463.522	18139.03
463.727	18335.63
463.932	18235.28
464.138	18200.47
464.343	18075.54
464.549	17512.35
464.754	18083.73
464.959	17938.33
465.165	17676.19
465.37	17192.87
465.575	16584.62
465.781	17344.42
465.986	17491.87
466.191	16891.82
466.397	16414.64
466.602	15450.05
466.807	16388.02
467.012	16400.3
467.218	16086.97
467.423	16185.27
467.628	16242.61
467.833	16773.03
468.038	15996.85
468.244	15816.63
468.449	16336.82
468.654	15712.19
468.859	15667.13
469.064	15589.31
469.269	14958.53
469.474	15185.86
469.679	15355.84
469.885	14950.34
470.09	15157.19
470.295	15044.55
470.5	14755.79
470.705	14823.37
470.91	14692.3
471.115	14374.86
471.32	14708.68
471.525	14608.33
471.73	14053.33
471.935	14045.14
472.139	13522.91
472.344	13686.75
472.549	13955.03
472.754	13713.37
472.959	13242.34
473.164	13006.82
473.369	12804.07
473.574	13379.55
473.778	13109.22
473.983	12898.28
474.188	13098.98
474.393	12552.17
474.598	12460.01
474.802	12201.97
475.007	12204.02
475.212	12310.51
475.417	11780.09
475.621	11872.25
475.826	11913.2
476.031	11620.35
476.235	11124.74
476.44	11442.17
476.645	11427.84
476.849	11300.86
477.054	11276.29
477.259	11145.22
477.463	11157.5
477.668	10805.25
477.872	11091.97
478.077	10792.97
478.282	10496.01
478.486	10500.11
478.691	10405.9
478.895	10504.2
479.1	10057.75
479.304	10162.19
479.509	10010.64
479.713	10297.36
479.918	9816.08
480.122	9834.52
480.326	9791.51
480.531	9832.47
480.735	9797.65
480.94	9599
481.144	9945.11
481.348	9578.52
481.553	9857.04
481.757	9445.4
481.961	9762.84
482.166	9945.11
482.37	9752.6
482.574	9494.55
482.778	9525.27
482.983	9642.01
483.187	9529.37
483.391	9500.7
483.595	9316.38
483.8	9283.61
484.004	9611.29
484.208	9568.28
484.412	9414.68
484.616	9635.86
484.821	9637.91
485.025	9363.48
485.229	9547.8
485.433	9500.7
485.637	9601.05
485.841	9386.01
486.045	9224.22
486.249	9414.68
486.453	9429.02
486.657	9586.71
486.861	9529.37
487.065	9377.82
487.269	9275.42
487.473	9322.52
487.677	9652.25
487.881	9758.74
488.085	9318.43
488.289	9541.66
488.493	9459.74
488.697	9547.8
488.901	9529.37
489.105	9504.79
489.309	9527.32
489.512	9562.14
489.716	9605.14
489.92	9435.16
490.124	9625.62
490.328	9930.77
490.531	9662.49
490.735	9883.67
490.939	9789.46
491.143	9623.58
491.346	9809.94
491.55	9836.56
491.754	9779.22
491.958	9949.2
492.161	9936.92
492.365	9887.76
492.569	10014.74
492.772	9926.68
492.976	10180.62
493.18	10092.56
493.383	10135.57
493.587	10154
493.79	10416.14
493.994	10303.5
494.197	10596.36
494.401	10453
494.605	10577.93
494.808	10729.48
495.012	10602.5
495.215	10903.56
495.419	10676.23
495.622	10764.29
495.825	11098.11
496.029	10940.42
496.232	11196.42
496.436	10973.19
496.639	11669.5
496.843	11296.77
497.046	11421.69
497.249	11741.18
497.453	11849.72
497.656	11935.73
497.859	12113.91
498.063	12255.22
498.266	12513.26
498.469	12376.05
498.673	12320.75
498.876	12814.31
499.079	12543.98
499.282	12953.57
499.485	13076.45
499.689	13115.36
499.892	13457.37
500.095	13238.24
500.298	13535.2
500.501	13531.1
500.705	14055.38
500.908	14112.72
501.111	14188.5
501.314	14393.3
501.517	14557.13
501.72	14565.32
501.923	14716.87
502.126	14835.66
502.329	15359.94
502.532	15343.55
502.735	15325.12
502.938	15736.76
503.141	15716.28
503.344	16025.53
503.547	16031.67
503.75	16238.51
503.953	16623.53
504.156	16842.67
504.359	16689.07
504.562	16875.43
504.765	17287.07
504.968	17285.03
505.17	17659.81
505.373	17692.57
505.576	18100.12
505.779	18139.03
505.982	18165.65
506.185	18665.36
506.387	18710.41
506.59	18577.3
506.793	19378.05
506.996	19117.96
507.198	19685.25
507.401	19529.6
507.604	19679.1
507.807	20096.89
508.009	20567.92
508.212	20301.68
508.415	20719.47
508.617	21004.14
508.82	21010.28
509.022	20932.46
509.225	21559.14
509.428	21669.73
509.63	22114.14
509.833	21960.54
510.035	22615.89
510.238	22509.4
510.44	22589.27
510.643	23011.15
510.845	23179.08
511.048	23228.23
511.25	24045.37
511.453	23885.63
511.655	24866.61
511.858	24473.4
512.06	24598.32
512.262	24766.26
512.465	24825.65
512.667	25573.16
512.87	25515.81
513.072	25755.43
513.274	26210.07
513.477	26308.38
513.679	26478.36
513.881	26914.58
514.084	26777.36
514.286	27184.91
514.488	27569.93
514.69	28143.36
514.893	28319.48
515.095	28444.41
515.297	28581.62
515.499	28647.16
515.701	28942.07
515.904	29204.21
516.106	29497.06
516.308	29642.47
516.51	30119.65
516.712	30314.2
516.914	30357.21
517.116	30938.83
517.318	30928.59
517.52	31063.76
517.722	31299.28
517.925	31852.23
518.127	32116.42
518.329	32456.38
518.531	32097.98
518.733	32796.34
518.935	33400.49
519.136	32908.98
519.338	33869.48
519.54	33797.8
519.742	34229.92
519.944	34545.31
520.146	34907.8
520.348	34832.02
520.55	35198.61
520.752	35333.78
520.954	35667.59
521.155	35804.81
521.357	36085.38
521.559	36540.03
521.761	37025.4
521.963	37189.24
522.164	37482.09
522.366	37631.6
522.568	37709.42
522.77	37836.39
522.971	38301.28
523.173	38063.72
523.375	38604.38
523.576	38760.03
523.778	38698.59
523.98	39099.99
524.181	39632.46
524.383	39698
524.584	40150.6
524.786	40191.56
524.988	39577.17
525.189	40394.31
525.391	40472.13
525.592	40873.53
525.794	41049.66
525.995	40900.15
526.197	41147.96
526.398	41510.45
526.6	41827.88
526.801	41831.98
527.003	41793.07
527.204	42020.39
527.406	41956.91
527.607	42255.91
527.808	42931.74
528.01	42073.64
528.211	42376.74
528.412	43054.62
528.614	42896.92
528.815	43083.29
529.016	43574.8
529.218	43197.98
529.419	43339.29
529.62	43806.22
529.822	43515.41
530.023	43838.99
530.224	43931.15
530.425	43605.52
530.626	43558.42
530.828	43548.18
531.029	45030.91
531.23	44072.46
531.431	44385.8
531.632	44350.98
531.833	44396.04
532.035	44451.33
532.236	44156.42
532.437	44842.49
532.638	44498.44
532.839	44570.11
533.04	45094.39
533.241	44500.48
533.442	45075.96
533.643	44480
533.844	44822.01
534.045	44787.2
534.246	44736
534.447	44969.47
534.648	44881.41
534.849	44725.76
535.05	44686.85
535.251	45073.91
535.451	44965.37
535.652	44883.45
535.853	44783.1
536.054	45104.63
536.255	45526.52
536.456	44768.77
536.657	45569.52
536.857	44903.93
537.058	44621.31
537.259	45194.75
537.46	45315.58
537.66	44912.13
537.861	45280.76
538.062	45147.64
538.263	45020.67
538.463	44744.19
538.664	44678.66
538.865	45016.57
539.065	45569.52
539.266	45145.59
539.466	45297.14
539.667	44678.66
539.868	45334.01
540.068	45096.44
540.269	44895.74
540.469	45245.94
540.67	44948.99
540.87	44842.49
541.071	44850.69
541.271	45004.28
541.472	44721.66
541.672	44764.67
541.873	44670.47
542.073	44424.71
542.274	44858.88
542.474	45069.82
542.675	44809.73
542.875	45317.62
543.075	44813.82
543.276	44500.48
543.476	45035
543.676	44277.26
543.877	45463.03
544.077	44807.68
544.277	44641.79
544.478	44643.84
544.678	45293.05
544.878	44932.61
545.078	44568.07
545.279	44498.44
545.479	44834.3
545.679	45204.98
545.879	44905.98
546.079	44469.76
546.28	44500.48
546.48	44418.56
546.68	44889.6
546.88	44488.2
547.08	44625.41
547.28	44486.15
547.48	44430.85
547.68	44936.7
547.88	44830.21
548.081	45026.81
548.281	44400.13
548.481	44312.07
548.681	44989.95
548.881	44697.09
549.081	44588.55
549.28	44099.08
549.48	44588.55
549.68	44103.18
549.88	45098.49
550.08	44355.08
550.28	44844.54
550.48	44201.48
550.68	44846.59
550.88	44228.1
551.08	44299.78
551.279	44408.33
551.479	44064.27
551.679	44824.06
551.879	44207.62
552.079	44553.73
552.278	44350.98
552.478	43988.49
552.678	44641.79
552.878	44500.48
553.077	44289.54
553.277	44203.53
553.477	44744.19
553.676	43922.96
553.876	44609.03
554.076	44029.45
554.275	44379.65
554.475	43830.8
554.674	44113.42
554.874	44074.51
555.074	44246.54
555.273	43998.73
555.473	44156.42
555.672	43810.32
555.872	43896.33
556.071	43961.87
556.271	43920.91
556.47	43750.93
556.67	43050.52
556.869	43425.3
557.068	43904.52
557.268	43169.3
557.467	43935.24
557.667	43613.71
557.866	43462.16
558.065	43433.49
558.265	43087.39
558.464	43116.06
558.663	43765.26
558.863	43042.33
559.062	43521.55
559.261	42858.01
559.461	43456.02
559.66	42827.29
559.859	42886.68
560.058	42606.11
560.258	43365.91
560.457	42698.27
560.656	42950.17
560.855	42501.67
561.054	43089.43
561.253	42464.8
561.453	42663.46
561.652	42575.39
561.851	42843.68
562.05	42100.26
562.249	42319.4
562.448	42567.2
562.647	42452.51
562.846	41809.45
563.045	42188.33
563.244	41750.06
563.443	42221.09
563.642	41477.68
563.841	41967.15
564.04	41477.68
564.239	41883.18
564.438	41633.33
564.637	41987.63
564.836	41496.11
565.035	41143.86
565.234	41107
565.432	40896.06
565.631	40732.22
565.83	41207.35
566.029	40984.12
566.228	40887.87
566.427	40644.16
566.625	40740.41
566.824	40169.03
567.023	40474.18
567.222	39925.32
567.42	40695.36
567.619	40238.66
567.818	40560.19
568.016	40271.43
568.215	40576.58
568.414	39851.59
568.612	40298.05
568.811	39820.88
569.01	39917.13
569.208	39442
569.407	39910.99
569.605	39016.02
569.804	39792.2
570.002	38995.54
570.201	39681.61
570.4	39503.44
570.598	39050.84
570.797	38821.47
570.995	39024.22
571.193	38575.71
571.392	38874.71
571.59	38829.66
571.789	38751.84
571.987	38489.7
572.186	38600.29
572.384	38219.36
572.582	38667.87
572.781	38221.41
572.979	37723.76
573.177	37875.3
573.376	38317.67
573.574	37860.97
573.772	38026.85
573.971	37557.87
574.169	37512.81
574.367	37056.12
574.565	37545.58
574.763	37414.51
574.962	37054.07
575.16	36513.41
575.358	37269.11
575.556	36396.67
575.754	36859.51
575.952	36693.63
576.151	36716.15
576.349	36152.96
576.547	36320.9
576.745	36724.35
576.943	36441.73
577.141	36484.73
577.339	36327.04
577.537	36255.36
577.735	36351.62
577.933	35557
578.131	35745.42
578.329	35726.99
578.527	35153.55
578.725	35753.61
578.923	35348.11
579.121	35190.42
579.319	35188.37
579.516	35301.01
579.714	34991.76
579.912	34975.38
580.11	34637.47
580.308	35094.16
580.506	34756.25
580.704	34162.34
580.901	34487.96
581.099	34944.66
581.297	33996.45
581.495	34541.21
581.692	34461.34
581.89	34266.78
582.088	34428.57
582.285	34018.98
582.483	34266.78
582.681	33975.97
582.878	33679.02
583.076	33418.92
583.274	33711.78
583.471	33162.93
583.669	33232.56
583.866	33128.11
584.064	33214.13
584.262	32966.32
584.459	33306.29
584.657	32900.79
584.854	33494.7
585.052	32644.79
585.249	32798.39
585.447	32749.24
585.644	32616.12
585.841	32511.67
586.039	32595.64
586.236	31993.54
586.434	32249.53
586.631	32267.97
586.828	32255.68
587.026	31960.77
587.223	32020.16
587.42	31729.35
587.618	31940.29
587.815	31893.19
588.012	31192.78
588.21	31358.67
588.407	31733.45
588.604	31149.78
588.801	31432.4
588.999	31211.21
589.196	31108.82
589.393	31370.96
589.59	30754.52
589.787	30381.79
589.984	30342.88
590.182	30580.44
590.379	30645.98
590.576	30217.95
590.773	30299.87
590.97	30136.03
591.167	30416.6
591.364	29634.28
591.561	30017.25
591.758	29941.47
591.955	29978.34
592.152	30121.7
592.349	29640.42
592.546	29591.27
592.743	29775.59
592.94	29234.92
593.137	29284.08
593.334	29447.91
593.531	28681.97
593.727	29069.04
593.924	29165.29
594.121	28530.42
594.318	29050.61
594.515	28503.8
594.712	28878.58
594.908	28591.86
595.105	28511.99
595.302	28251.9
595.499	28434.17
595.696	28446.46
595.892	27907.84
596.089	27926.27
596.286	28182.27
596.482	27901.7
596.679	28036.86
596.876	27870.98
597.072	27461.38
597.269	27614.98
597.466	27588.36
597.662	27029.26
597.859	27303.69
598.055	27809.54
598.252	27189
598.448	27270.92
598.645	26949.39
598.841	27074.32
599.038	27082.51
599.234	26900.24
599.431	26439.45
599.627	26355.48
599.824	26603.28
600.02	26322.71
600.217	26560.28
600.413	26138.4
600.609	26177.31
600.806	26138.4
601.002	26238.75
601.198	25997.09
601.395	25747.23
601.591	25698.08
601.787	25675.55
601.984	25763.62
602.18	25949.98
602.376	25407.27
602.572	25440.04
602.769	25558.82
602.965	25124.65
603.161	25417.51
603.357	25397.03
603.553	24729.39
603.75	24969.01
603.946	24690.48
604.142	24821.55
604.338	24598.32
604.534	24901.42
604.73	24479.54
604.926	24557.36
605.122	24735.54
605.318	24358.71
605.514	24420.15
605.71	24158.01
605.906	24291.13
606.102	24162.11
606.298	24155.96
606.494	23850.81
606.69	24186.68
606.886	24018.75
607.082	23504.71
607.278	24041.28
607.474	23758.66
607.67	23801.66
607.866	23410.5
608.062	23789.38
608.257	23467.84
608.453	23361.35
608.649	23508.8
608.845	23365.45
609.041	23205.7
609.236	23729.98
609.432	23068.49
609.628	23248.71
609.824	23086.92
610.019	22900.56
610.215	23142.22
610.411	23244.62
610.606	23086.92
610.802	22970.19
610.998	23002.96
611.193	23185.22
611.389	22458.2
611.584	22826.83
611.78	22429.52
611.976	22755.15
612.171	22271.83
612.367	22177.62
612.562	22605.65
612.758	22062.94
612.953	22495.06
613.149	22415.19
613.344	22247.26
613.539	22728.53
613.735	22175.58
613.93	22052.7
614.126	22093.66
614.321	22429.52
614.517	21964.64
614.712	22173.53
614.907	21649.25
615.103	22126.43
615.298	21874.52
615.493	21978.97
615.688	21802.85
615.884	22124.38
616.079	21434.21
616.274	21665.63
616.47	21698.4
616.665	21852
616.86	21487.46
617.055	21426.02
617.25	21231.46
617.445	21335.91
617.641	21004.14
617.836	21706.59
618.031	21055.34
618.226	21086.06
618.421	21055.34
618.616	20920.17
618.811	20709.23
619.006	21094.25
619.201	20504.43
619.396	20774.77
619.591	20696.94
619.786	20686.7
619.981	20363.12
620.176	20676.46
620.371	20131.7
620.566	20316.02
620.761	20299.64
620.956	20309.88
621.151	19898.24
621.346	19656.57
621.541	19806.08
621.735	19984.25
621.93	19292.04
622.125	19656.57
622.32	19201.93
622.515	19439.49
622.709	19126.15
622.904	19011.46
623.099	19044.23
623.294	18698.13
623.488	18808.72
623.683	18560.91
623.878	18370.45
624.072	18456.47
624.267	18442.13
624.462	18536.34
624.656	18235.28
624.851	18136.98
625.046	17868.7
625.24	17887.13
625.435	17977.24
625.629	17801.12
625.824	17737.63
626.018	17756.06
626.213	17219.49
626.407	17575.84
626.602	17121.19
626.796	17102.76
626.991	16930.73
627.185	16979.88
627.38	16934.82
627.574	16908.2
627.768	16822.19
627.963	16699.31
628.157	16371.63
628.352	16469.94
628.546	16140.21
628.74	16498.61
628.935	16003
629.129	16107.44
629.323	15822.78
629.517	15951.8
629.712	15941.56
629.906	15740.86
630.1	15732.67
630.294	15675.32
630.489	15390.66
630.683	15577.02
630.877	15177.67
631.071	15306.69
631.265	15503.29
631.459	15044.55
631.653	15060.93
631.848	15087.56
632.042	14925.77
632.236	14809.03
632.43	14698.44
632.624	14794.7
632.818	14559.18
633.012	14280.66
633.206	14307.28
633.4	14397.39
633.594	14340.05
633.788	14354.38
633.982	14102.48
634.176	13815.77
634.369	14131.16
634.563	13979.61
634.757	14006.23
634.951	13735.9
635.145	13758.42
635.339	13907.93
635.533	13709.27
635.726	13434.85
635.92	13311.97
636.114	13410.27
636.308	13279.2
636.501	13289.44
636.695	13283.3
636.889	13176.8
637.083	13131.75
637.276	13115.36
637.47	12650.47
637.664	12799.98
637.857	12617.71
638.051	12498.92
638.244	12666.86
638.438	12294.13
638.632	12480.49
638.825	12287.98
639.019	12287.98
639.212	12421.1
639.406	12320.75
639.599	12201.97
639.793	12019.7
639.986	11823.09
640.18	11929.59
640.373	11823.09
640.567	11747.32
640.76	11565.05
640.954	11573.24
641.147	11544.57
641.34	11476.99
641.534	11405.31
641.727	11552.76
641.92	11354.11
642.114	11313.15
642.307	11159.55
642.5	11106.31
642.694	11143.17
642.887	10903.56
643.08	10989.57
643.273	10950.66
643.467	11051.01
643.66	10790.92
643.853	10754.05
644.046	10682.38
644.239	10475.53
644.432	10463.24
644.626	10407.95
644.819	10612.74
645.012	10573.83
645.205	10371.08
645.398	10442.76
645.591	10108.94
645.784	10348.56
645.977	10215.44
646.17	10147.86
646.363	9949.2
646.556	10041.36
646.749	9928.72
646.942	9875.48
647.135	9922.58
647.328	9811.99
647.521	9695.25
647.714	9508.89
647.907	9703.45
648.099	9506.84
648.292	9515.03
648.485	9500.7
648.678	9293.85
648.871	9349.15
649.064	9248.8
649.256	9250.85
649.449	9248.8
649.642	9111.58
649.835	9084.96
650.027	9019.43
650.22	9089.06
650.413	9039.9
650.605	9021.47
650.798	8865.83
650.991	8701.99
651.183	8679.46
651.376	8448.04
651.568	8745
651.761	8484.91
651.954	8599.59
652.146	8476.71
652.339	8482.86
652.531	8493.1
652.724	8390.7
652.916	8390.7
653.109	8353.84
653.301	8237.1
653.494	8187.95
653.686	8181.81
653.879	8243.24
654.071	8241.2
654.263	7997.49
654.456	8050.74
654.648	8126.51
654.84	7909.43
655.033	8013.87
655.225	7833.65
655.417	7614.52
655.61	7931.95
655.802	7813.17
655.994	7710.77
656.186	7934
656.379	7501.88
656.571	7606.33
656.763	7417.91
656.955	7501.88
657.148	7415.87
657.34	7483.45
657.532	7172.16
657.724	7290.94
657.916	7448.63
658.108	7196.73
658.3	7196.73
658.492	7106.62
658.684	7133.25
658.876	7098.43
659.068	7063.61
659.26	7016.51
659.452	6975.55
659.644	7133.25
659.836	6953.02
660.028	6840.39
660.22	6758.47
660.412	6838.34
660.604	6641.73
660.796	6688.84
660.988	6694.98
661.18	6631.49
661.372	6606.92
661.563	6645.83
661.755	6621.25
661.947	6490.18
662.139	6467.66
662.331	6461.51
662.522	6357.07
662.714	6438.98
662.906	6150.22
663.097	6416.46
663.289	6226
663.481	6164.56
663.673	6307.91
663.864	6099.02
664.056	6144.08
664.247	6062.16
664.439	5986.38
664.631	6029.39
664.822	6123.6
665.014	6017.1
665.205	5916.75
665.397	5941.33
665.588	5777.49
665.78	5765.2
665.971	5765.2
666.163	5814.35
666.354	5836.88
666.546	5718.1
666.737	5865.55
666.929	5685.33
667.12	5623.89
667.311	5806.16
667.503	5582.93
667.694	5572.69
667.885	5558.36
668.077	5574.74
668.268	5515.35
668.459	5562.45
668.651	5390.42
668.842	5359.7
669.033	5480.54
669.224	5433.43
669.416	5251.16
669.607	5218.4
669.798	5257.31
669.989	5410.9
670.18	5345.37
670.371	5288.03
670.563	5226.59
670.754	5199.96
670.945	5261.4
671.136	5070.94
671.327	5072.99
671.518	5161.05
671.709	5007.45
671.9	5144.67
672.091	5111.9
672.282	5154.91
672.473	4997.21
672.664	5034.08
672.855	4890.72
673.046	5052.51
673.237	5015.65
673.428	4851.81
673.619	5113.95
673.809	4860
674	4749.41
674.191	4853.86
674.382	4778.08
674.573	4976.73
674.764	4884.58
674.954	4808.8
675.145	4839.52
675.336	4677.73
675.527	4757.6
675.717	4825.19
675.908	4730.98
676.099	4780.13
676.289	4712.55
676.48	4493.41
676.671	4718.69
676.861	4618.34
677.052	4651.11
677.243	4526.18
677.433	4661.35
677.624	4798.56
677.814	4495.46
678.005	4665.44
678.195	4671.59
678.386	4427.88
678.576	4628.58
678.767	4505.7
678.957	4528.23
679.148	4571.24
679.338	4491.37
679.529	4587.62
679.719	4606.05
679.909	4503.65
680.1	4612.2
680.29	4579.43
680.481	4513.89
680.671	4583.52
680.861	4446.31
681.052	4458.6
681.242	4511.85
681.432	4452.45
681.622	4341.86
681.813	4305
682.003	4436.07
682.193	4403.3
682.383	4360.3
682.573	4311.14
682.764	4264.04
682.954	4448.36
683.144	4274.28
683.334	4376.68
683.524	4423.78
683.714	4278.38
683.904	4223.08
684.094	4266.09
684.284	4284.52
684.474	4345.96
684.664	4192.36
684.854	4311.14
685.044	4290.67
685.234	4288.62
685.424	4192.36
685.614	4173.93
685.804	4206.7
685.994	4186.22
686.184	4139.12
686.374	4184.17
686.564	4147.31
686.753	4192.36
686.943	3965.04
687.133	4200.55
687.323	4034.67
687.513	4053.1
687.702	3999.85
687.892	4104.3
688.082	4077.68
688.272	3946.61
688.461	3831.92
688.651	4003.95
688.841	3985.52
689.03	4016.24
689.22	3946.61
689.41	3862.64
689.599	3833.97
689.789	3879.02
689.979	3942.51
690.168	3797.1
690.358	3858.54
690.547	3795.06
690.737	3733.62
690.926	3889.26
691.116	3790.96
691.305	3762.29
691.495	3762.29
691.684	3885.17
691.874	3797.1
692.063	3768.43
692.252	3663.99
692.442	3520.63
692.631	3805.3
692.82	3657.84
693.01	3686.51
693.199	3639.41
693.388	3506.29
693.578	3563.64
693.767	3541.11
693.956	3528.82
694.146	3530.87
694.335	3520.63
694.524	3569.78
694.713	3586.16
694.902	3414.13
695.092	3506.29
695.281	3420.28
695.47	3465.33
695.659	3430.52
695.848	3403.89
696.037	3483.77
696.226	3401.85
696.415	3451
696.604	3463.29
696.793	3575.92
696.982	3399.8
697.171	3506.29
697.36	3494.01
697.549	3446.9
697.738	3342.46
697.927	3303.54
698.116	3451
698.305	3385.46
698.494	3332.22
698.683	3401.85
698.872	3432.57
699.061	3403.89
699.25	3360.89
699.438	3350.65
699.627	3254.39
699.816	3324.02
700.005	3422.33
700.193	3377.27
700.382	3238.01
700.571	3272.82
700.76	3332.22
700.948	3389.56
701.137	3297.4
701.326	3299.45
701.514	3231.87
701.703	3305.59
701.892	3321.98
702.08	3375.22
702.269	3293.3
702.457	3274.87
702.646	3301.5
702.834	3252.35
703.023	3229.82
703.212	3225.72
703.4	3211.39
703.589	3119.23
703.777	3360.89
703.965	3025.02
704.154	3412.09
704.342	3143.8
704.531	3303.54
704.719	3080.32
704.907	3211.39
705.096	3129.47
705.284	3238.01
705.472	3192.95
705.661	3328.12
705.849	3276.92
706.037	3131.51
706.226	3158.14
706.414	3166.33
706.602	3156.09
706.79	3213.43
706.979	3117.18
707.167	3182.71
707.355	3160.19
707.543	3242.11
707.731	3229.82
707.919	3025.02
708.107	3180.67
708.296	3108.99
708.484	3145.85
708.672	3106.94
708.86	3117.18
709.048	3123.32
709.236	3166.33
709.424	3121.28
709.612	3078.27
709.8	3235.96
709.988	3166.33
710.176	3090.56
710.364	3192.95
710.551	3070.08
710.739	3184.76
710.927	3205.24
711.115	3121.28
711.303	3207.29
711.491	3111.04
711.679	3207.29
711.866	3078.27
712.054	3090.56
712.242	3053.69
712.43	3180.67
712.617	3117.18
712.805	3035.26
712.993	3162.23
713.181	3086.46
713.368	3070.08
713.556	3094.65
713.744	3199.1
713.931	3082.36
714.119	3076.22
714.306	3104.89
714.494	3180.67
714.682	3098.75
714.869	3102.84
715.057	3094.65
715.244	3176.57
715.432	3100.8
715.619	3047.55
715.807	3088.51
715.994	3057.79
716.182	3057.79
716.369	3143.8
716.556	3063.93
716.744	3184.76
716.931	3209.34
717.119	3119.23
717.306	3123.32
717.493	3125.37
717.681	3225.72
717.868	3176.57
718.055	3037.31
718.242	3115.13
718.43	3133.56
718.617	3012.73
718.804	3139.71
718.991	3135.61
719.179	3047.55
719.366	3133.56
719.553	3029.12
719.74	3045.5
719.927	2930.81
720.114	3035.26
720.301	3070.08
720.488	2961.53
720.676	3100.8
720.863	2973.82
721.05	3068.03
721.237	3022.97
721.424	3133.56
721.611	3051.64
721.798	2920.57
721.985	3125.37
722.172	2947.2
722.358	2975.87
722.545	3031.16
722.732	2957.44
722.919	3096.7
723.106	3018.88
723.293	3096.7
723.48	3094.65
723.667	3106.94
723.853	2939.01
724.04	3004.54
724.227	3053.69
724.414	3027.07
724.6	2961.53
724.787	3106.94
724.974	3111.04
725.161	3057.79
725.347	3070.08
725.534	3002.49
725.72	2975.87
725.907	3070.08
726.094	3166.33
726.28	3115.13
726.467	3000.44
726.653	3000.44
726.84	3072.12
727.027	3037.31
727.213	3055.74
727.4	3151.99
727.586	2947.2
727.773	2988.16
727.959	3078.27
728.145	3014.78
728.332	3102.84
728.518	3029.12
728.705	3020.92
728.891	2990.21
729.077	2971.77
729.264	3057.79
729.45	2961.53
729.636	3082.36
729.823	2986.11
730.009	2920.57
730.195	3059.84
730.382	3080.32
730.568	3047.55
730.754	2850.94
730.94	3082.36
731.126	2961.53
731.313	3039.36
731.499	2992.25
731.685	3063.93
731.871	2945.15
732.057	3025.02
732.243	2936.96
732.429	3047.55
732.615	2951.29
732.801	3047.55
732.987	2852.99
733.173	2953.34
733.359	2914.43
733.545	3039.36
733.731	2855.04
733.917	2984.06
734.103	2947.2
734.289	2898.05
734.475	2893.95
734.661	2990.21
734.847	2953.34
735.033	2928.77
735.219	2998.4
735.404	3020.92
735.59	3004.54
735.776	2840.7
735.962	3010.68
736.148	2947.2
736.333	2945.15
736.519	2809.98
736.705	2957.44
736.89	2910.33
737.076	2871.42
737.262	2871.42
737.447	2852.99
737.633	2863.23
737.819	2936.96
738.004	2822.27
738.19	2838.66
738.375	2906.24
738.561	2984.06
738.747	2756.74
738.932	2834.56
739.118	2877.57
739.303	2826.37
739.489	2762.88
739.674	2764.93
739.859	2728.07
740.045	2764.93
740.23	2723.97
740.416	2799.74
740.601	2674.82
740.786	2732.16
740.972	2590.85
741.157	2611.33
741.342	2687.11
741.528	2756.74
741.713	2728.07
741.898	2695.3
742.084	2744.45
742.269	2588.8
742.454	2646.15
742.639	2680.96
742.824	2588.8
743.01	2597
743.195	2662.53
743.38	2547.84
743.565	2631.81
743.75	2588.8
743.935	2680.96
744.12	2613.38
744.305	2646.15
744.49	2584.71
744.675	2523.27
744.86	2551.94
745.045	2558.08
745.23	2556.04
745.415	2465.93
745.6	2400.39
745.785	2529.41
745.97	2474.12
746.155	2388.1
746.34	2592.9
746.525	2416.77
746.71	2449.54
746.895	2494.6
747.079	2386.05
747.264	2328.71
747.449	2353.29
747.634	2384.01
747.819	2347.14
748.003	2351.24
748.188	2168.97
748.373	2275.46
748.557	2263.18
748.742	2267.27
748.927	2191.5
749.111	2345.09
749.296	2211.98
749.481	2191.5
749.665	2095.24
749.85	2076.81
750.034	2121.87
750.219	2197.64
750.404	2216.07
750.588	2123.91
750.773	2025.61
750.957	2066.57
751.141	2076.81
751.326	2064.52
751.51	2023.56
751.695	2021.52
751.879	1998.99
752.064	1982.6
752.248	2037.9
752.432	1968.27
752.617	1953.93
752.801	1906.83
752.985	2050.19
753.17	1878.16
753.354	2009.23
753.538	1933.45
753.722	1958.03
753.907	1781.9
754.091	1861.77
754.275	1878.16
754.459	1763.47
754.643	1857.68
754.828	1792.14
755.012	1812.62
755.196	1706.13
755.38	1786
755.564	1857.68
755.748	1736.85
755.932	1796.24
756.116	1659.03
756.3	1609.87
756.484	1677.46
756.668	1675.41
756.852	1695.89
757.036	1620.11
757.22	1673.36
757.404	1659.03
757.588	1659.03
757.772	1640.59
757.956	1536.15
758.14	1599.63
758.323	1628.31
758.507	1548.44
758.691	1628.31
758.875	1593.49
759.059	1462.42
759.242	1439.89
759.426	1597.59
759.61	1419.41
759.794	1491.09
759.977	1464.47
760.161	1556.63
760.345	1523.86
760.528	1640.59
760.712	1456.28
760.895	1472.66
761.079	1382.55
761.263	1415.32
761.446	1427.6
761.63	1339.54
761.813	1452.18
761.997	1357.97
762.18	1327.25
762.364	1300.63
762.547	1400.98
762.731	1241.24
762.914	1345.69
763.098	1360.02
763.281	1362.07
763.464	1458.32
763.648	1319.06
763.831	1286.3
764.015	1235.1
764.198	1251.48
764.381	1261.72
764.564	1280.15
764.748	1251.48
764.931	1349.78
765.114	1278.1
765.297	1208.47
765.481	1310.87
765.664	1317.01
765.847	1263.77
766.03	1339.54
766.213	1271.96
766.397	1187.99
766.58	1165.46
766.763	1296.53
766.946	1185.94
767.129	1128.6
767.312	1228.95
767.495	1138.84
767.678	1245.34
767.861	1235.1
768.044	1235.1
768.227	1112.22
768.41	1185.94
768.593	1218.71
768.776	1218.71
768.959	1147.03
769.142	1124.51
769.324	1198.23
769.507	1157.27
769.69	1061.02
769.873	1110.17
770.056	1104.03
770.239	1120.41
770.421	1099.93
770.604	1075.35
770.787	1075.35
770.97	1239.19
771.152	1183.9
771.335	1130.65
771.518	1108.12
771.7	1036.44
771.883	1126.55
772.066	1144.99
772.248	1069.21
772.431	1097.88
772.613	1026.2
772.796	1050.78
772.978	995.48
773.161	1075.35
773.343	999.58
773.526	1052.83
773.708	932
773.891	1030.3
774.073	991.39
774.256	1038.49
774.438	968.86
774.621	995.48
774.803	956.57
774.985	911.52
775.168	977.05
775.35	899.23
775.532	940.19
775.715	852.13
775.897	956.57
776.079	888.99
776.261	888.99
776.444	827.55
776.626	968.86
776.808	917.66
776.99	841.89
777.173	860.32
777.355	831.65
777.537	770.21
777.719	856.22
777.901	731.3
778.083	770.21
778.265	786.59
778.447	888.99
778.629	837.79
778.811	778.4
778.993	792.73
779.175	872.61
779.357	694.43
779.539	714.91
779.721	770.21
779.903	809.12
780.085	737.44
780.267	774.3
780.449	704.67
780.631	766.11
780.812	770.21
780.994	751.78
781.176	790.69
781.358	557.22
781.54	641.18
781.721	600.23
781.903	759.97
782.085	712.86
782.267	708.77
782.448	688.29
782.63	641.18
782.812	645.28
782.993	671.9
783.175	733.34
783.357	663.71
783.538	673.95
783.72	614.56
783.901	635.04
784.083	639.14
784.264	632.99
784.446	628.9
784.627	653.47
784.809	516.26
784.99	575.65
785.172	596.13
785.353	583.84
785.535	606.37
785.716	594.08
785.897	635.04
786.079	583.84
786.26	592.03
786.441	549.03
786.623	575.65
786.804	614.56
786.985	497.83
787.167	581.79
787.348	616.61
787.529	469.16
787.71	544.93
787.891	506.02
788.073	475.3
788.254	522.4
788.435	596.13
788.616	526.5
788.797	508.07
788.978	510.11
789.159	444.58
789.34	499.88
789.522	501.92
789.703	518.31
789.884	420
790.065	503.97
790.246	555.17
790.427	454.82
790.607	460.96
790.788	422.05
790.969	407.72
791.15	442.53
791.331	454.82
791.512	354.47
791.693	442.53
791.874	407.72
792.054	413.86
792.235	450.72
792.416	460.96
792.597	403.62
792.778	469.16
792.958	424.1
793.139	442.53
793.32	438.44
793.5	381.09
793.681	444.58
793.862	436.39
794.042	391.33
794.223	362.66
794.404	368.81
794.584	417.96
794.765	331.94
794.945	385.19
795.126	428.2
795.306	360.61
795.487	374.95
795.667	377
795.848	360.61
796.028	379.04
796.209	307.37
796.389	385.19
796.57	344.23
796.75	354.47
796.93	299.17
797.111	336.04
797.291	321.7
797.471	333.99
797.652	366.76
797.832	305.32
798.012	352.42
798.192	321.7
798.373	323.75
798.553	258.21
798.733	393.38
798.913	268.45
799.093	325.8
799.274	286.89
799.454	356.52
799.634	385.19
799.814	424.1
799.994	356.52
800.174	340.13
800.354	288.93
800.534	374.95
800.714	346.28
800.894	272.55
801.074	342.18
801.254	331.94
801.434	319.65
801.614	192.68
801.794	301.22
801.974	700.58
802.154	284.84
802.334	284.84
802.514	268.45
802.693	268.45
802.873	247.97
803.053	284.84
803.233	276.65
803.413	301.22
803.592	290.98
803.772	299.17
803.952	260.26
804.131	282.79
804.311	280.74
804.491	278.69
804.67	297.13
804.85	178.34
805.03	264.36
805.209	245.93
805.389	202.92
805.568	297.13
805.748	286.89
805.928	243.88
806.107	202.92
806.287	239.78
806.466	262.31
806.646	250.02
806.825	204.97
807.004	286.89
807.184	250.02
807.363	213.16
807.543	276.65
807.722	241.83
807.901	245.93
808.081	247.97
808.26	227.5
808.439	325.8
808.619	235.69
808.798	299.17
808.977	237.74
809.156	174.25
809.336	219.3
809.515	213.16
809.694	241.83
809.873	211.11
810.052	260.26
810.231	256.17
810.411	209.06
810.59	137.38
810.769	137.38
810.948	190.63
811.127	172.2
811.306	225.45
811.485	213.16
811.664	211.11
811.843	219.3
812.022	264.36
812.201	229.54
812.38	219.3
812.559	157.86
812.737	213.16
812.916	194.73
813.095	145.58
813.274	239.78
813.453	223.4
813.632	211.11
813.811	252.07
813.989	172.2
814.168	186.54
814.347	159.91
814.526	184.49
814.704	237.74
814.883	215.21
815.062	174.25
815.24	233.64
815.419	143.53
815.598	200.87
815.776	219.3
815.955	157.86
816.133	141.48
816.312	182.44
816.49	207.02
816.669	135.34
816.847	176.3
817.026	170.15
817.204	174.25
817.383	129.19
817.561	137.38
817.74	137.38
817.918	239.78
818.097	235.69
818.275	112.81
818.453	164.01
818.632	172.2
818.81	143.53
818.988	161.96
819.167	135.34
819.345	192.68
819.523	211.11
819.701	137.38
819.879	118.95
820.058	108.71
820.236	180.39
820.414	100.52
820.592	155.82
820.77	141.48
820.948	82.09
821.127	168.1
821.305	180.39
821.483	194.73
821.661	241.83
821.839	151.72
822.017	164.01
822.195	151.72
822.373	147.62
822.551	118.95
822.729	143.53
822.907	73.9
823.085	123.05
823.262	57.51
823.44	172.2
823.618	139.43
823.796	252.07
823.974	141.48
824.152	141.48
824.329	112.81
824.507	137.38
824.685	110.76
824.863	116.9
825.04	114.86
825.218	204.97
825.396	106.67
825.574	178.34
825.751	182.44
825.929	121
826.107	123.05
826.284	135.34
826.462	159.91
826.639	108.71
826.817	157.86
826.994	92.33
827.172	166.06
827.349	182.44
827.527	65.71
827.704	174.25
827.882	116.9
828.059	43.18
828.237	80.04
828.414	51.37
828.591	159.91
828.769	112.81
828.946	121
829.124	131.24
829.301	153.77
829.478	112.81
829.655	229.54
829.833	204.97
830.01	22.7
830.187	90.28
830.364	73.9
830.542	215.21
830.719	155.82
830.896	170.15
831.073	110.76
831.25	86.19
831.427	94.38
831.604	108.71
831.782	22.7
831.959	77.99
832.136	121
832.313	110.76
832.49	159.91
832.667	100.52
832.844	102.57
833.021	110.76
833.198	104.62
833.374	198.82
833.551	123.05
833.728	127.14
833.905	84.14
834.082	39.08
834.259	104.62
834.436	114.86
834.612	71.85
834.789	139.43
834.966	32.94
835.143	67.75
835.319	55.47
835.496	47.27
835.673	145.58
835.85	63.66
836.026	164.01
836.203	108.71
836.38	69.8
836.556	90.28
836.733	104.62
836.909	86.19
837.086	96.43
837.262	65.71
837.439	127.14
837.616	125.1
837.792	51.37
837.968	34.99
838.145	88.23
838.321	108.71
838.498	28.84
838.674	104.62
838.851	57.51
839.027	143.53
839.203	65.71
839.38	26.79
839.556	84.14
839.732	100.52
839.909	57.51
840.085	131.24
840.261	32.94
840.437	145.58
840.614	45.23
840.79	125.1
840.966	110.76
841.142	143.53
841.318	57.51
841.494	55.47
841.671	86.19
841.847	77.99
842.023	59.56
842.199	2.22
842.375	118.95
842.551	77.99
842.727	-14.17
842.903	143.53
843.079	41.13
843.255	118.95
843.431	-3.93
843.607	32.94
843.783	112.81
843.959	80.04
844.134	-1.88
844.31	98.47
844.486	73.9
844.662	96.43
844.838	26.79
845.013	129.19
845.189	108.71
845.365	86.19
845.541	102.57
845.716	45.23
845.892	77.99
846.068	39.08
846.244	-5.97
846.419	55.47
846.595	6.31
846.77	53.42
846.946	41.13
847.122	-14.17
847.297	108.71
847.473	100.52
847.648	43.18
847.824	151.72
847.999	80.04
848.175	86.19
848.35	166.06
848.526	77.99
848.701	116.9
848.876	84.14
849.052	53.42
849.227	80.04
849.403	47.27
849.578	32.94
849.753	12.46
849.929	108.71
850.104	43.18
850.279	22.7
850.454	41.13
850.63	102.57
850.805	30.89
850.98	28.84
851.155	80.04
851.33	41.13
851.505	90.28
851.681	104.62
851.856	6.31
852.031	147.62
852.206	69.8
852.381	75.95
852.556	116.9
852.731	80.04
852.906	51.37
853.081	-24.4
853.256	86.19
853.431	100.52
853.606	12.46
853.781	-28.5
853.956	96.43
854.131	-14.17
854.305	28.84
854.48	12.46
854.655	118.95
854.83	55.47
855.005	55.47
855.18	-46.93
855.354	47.27
855.529	135.34
855.704	-8.02
855.879	75.95
856.053	30.89
856.228	88.23
856.403	20.65
856.577	65.71
856.752	-30.55
856.926	69.8
857.101	49.32
857.276	75.95
857.45	100.52
857.625	16.55
857.799	75.95
857.974	114.86
858.148	75.95
858.323	94.38
858.497	-12.12
858.672	59.56
858.846	45.23
859.02	37.03
859.195	71.85
859.369	71.85
859.543	6.31
859.718	28.84
859.892	88.23
860.066	30.89
860.241	28.84
860.415	-24.4
860.589	94.38
860.763	22.7
860.938	39.08
861.112	18.6
861.286	16.55
861.46	80.04
861.634	61.61
861.808	43.18
861.982	28.84
862.157	-1.88
862.331	-10.07
862.505	-8.02
862.679	12.46
862.853	-10.07
863.027	12.46
863.201	16.55
863.375	4.27
863.549	69.8
863.722	-14.17
863.896	34.99
864.07	55.47
864.244	57.51
864.418	41.13
864.592	-10.07
864.766	-16.21
864.939	69.8
865.113	47.27
865.287	-12.12
865.461	-5.97
865.634	39.08
865.808	30.89
865.982	37.03
866.156	16.55
866.329	-53.08
866.503	16.55
866.676	47.27
866.85	37.03
867.024	-38.74
867.197	-1.88
867.371	55.47
867.544	22.7
867.718	24.75
867.891	61.61
868.065	16.55
868.238	6.31
868.412	8.36
868.585	82.09
868.759	24.75
868.932	63.66
869.105	61.61
869.279	4.27
869.452	-34.64
869.625	12.46
869.799	106.67
869.972	12.46
870.145	10.41
870.319	-38.74
870.492	67.75
870.665	-20.31
870.838	-26.45
871.011	47.27
871.185	-1.88
871.358	26.79
871.531	118.95
871.704	39.08
871.877	71.85
872.05	84.14
872.223	49.32
872.396	82.09
872.569	34.99
872.742	8.36
872.915	41.13
873.088	-34.64
873.261	61.61
873.434	-20.31
873.607	39.08
873.78	6.31
873.953	77.99
874.126	-5.97
874.299	104.62
874.471	-69.46
874.644	-42.84
874.817	67.75
874.99	-3.93
875.163	61.61
875.335	-8.02
875.508	-18.26
875.681	80.04
875.853	12.46
876.026	-14.17
876.199	39.08
876.371	65.71
876.544	45.23
876.717	45.23
876.889	22.7
877.062	18.6
877.234	-24.4
877.407	16.55
877.579	2.22
877.752	55.47
877.924	59.56
878.097	34.99
878.269	20.65
878.442	39.08
878.614	88.23
878.786	57.51
878.959	73.9
879.131	129.19
879.303	-10.07
879.476	-20.31
879.648	-10.07
879.82	10.41
879.993	-40.79
880.165	57.51
880.337	-34.64
880.509	-10.07
880.681	-10.07
880.854	10.41
881.026	45.23
881.198	-12.12
881.37	39.08
881.542	10.41
881.714	16.55
881.886	-67.41
882.058	18.6
882.23	18.6
882.402	37.03
882.574	12.46
882.746	-5.97
882.918	71.85
883.09	43.18
883.262	51.37
883.434	32.94
883.606	10.41
883.778	39.08
883.95	41.13
884.122	75.95
884.293	34.99
884.465	53.42
884.637	80.04
884.809	-59.22
884.98	75.95
885.152	45.23
885.324	-8.02
885.496	61.61
885.667	49.32
885.839	6.31
886.011	4.27
886.182	24.75
886.354	14.51
886.525	55.47
886.697	69.8
886.869	-40.79
887.04	43.18
887.212	-42.84
887.383	14.51
887.555	4.27
887.726	-8.02
887.897	39.08
888.069	39.08
888.24	24.75
888.412	-1.88
888.583	-14.17
888.754	-12.12
888.926	-44.88
889.097	30.89
889.268	24.75
889.44	-34.64
889.611	-22.36
889.782	-34.64
889.953	4.27
890.125	57.51
890.296	-46.93
890.467	37.03
890.638	55.47
890.809	69.8
890.98	-12.12
891.151	4.27
891.323	88.23
891.494	59.56
891.665	53.42
891.836	8.36
892.007	2.22
892.178	108.71
892.349	28.84
892.52	4.27
892.691	-34.64
892.862	-18.26
893.032	57.51
893.203	71.85
893.374	24.75
893.545	67.75
893.716	51.37
893.887	22.7
894.057	30.89
894.228	0.17
894.399	-5.97
894.57	67.75
894.74	43.18
894.911	43.18
895.082	28.84
895.253	-28.5
895.423	18.6
895.594	47.27
895.764	-48.98
895.935	-12.12
896.106	-14.17
896.276	57.51
896.447	10.41
896.617	114.86
896.788	-34.64
896.958	4.27
897.129	2.22
897.299	47.27
897.47	20.65
897.64	47.27
897.81	-1.88
897.981	-3.93
898.151	-3.93
898.322	16.55
898.492	18.6
898.662	22.7
898.832	-61.27
899.003	-3.93
899.173	49.32
899.343	47.27
899.513	-14.17
