Data from USB4F104151__86__11-52-54-647.txt Node

Date: Fri Mar 14 11:52:54 EDT 2025
User: louis
Spectrometer: USB4F10415
Trigger mode: 4
Integration Time (sec): 2.000000E-2
Scans to average: 1
Electric dark correction enabled: true
Nonlinearity correction enabled: false
Boxcar width: 0
XAxis mode: Wavelengths
Number of Pixels in Spectrum: 3648
>>>>>Begin Spectral Data<<<<<
178.204	-70.14
178.424	-70.14
178.644	-70.14
178.864	-66.05
179.084	-127.49
179.304	-16.9
179.524	-16.9
179.744	40.45
179.964	3.58
180.184	11.78
180.404	5.63
180.624	-16.9
180.844	-6.66
181.064	9.73
181.283	40.45
181.503	-84.48
181.723	30.21
181.943	3.58
182.163	-0.51
182.383	54.78
182.602	-4.61
182.822	32.26
183.042	3.58
183.262	48.64
183.482	-23.04
183.701	30.21
183.921	56.83
184.141	22.02
184.361	-14.85
184.58	-16.9
184.8	17.92
185.02	-23.04
185.239	-59.9
185.459	-2.56
185.679	26.11
185.898	9.73
186.118	-49.66
186.338	5.63
186.557	71.17
186.777	-8.7
186.997	-0.51
187.216	36.35
187.436	1.54
187.655	-29.18
187.875	34.3
188.095	26.11
188.314	73.21
188.534	9.73
188.753	30.21
188.973	71.17
189.192	-18.94
189.412	75.26
189.631	60.93
189.851	-16.9
190.07	36.35
190.29	-12.8
190.509	69.12
190.729	11.78
190.948	-27.14
191.168	114.17
191.387	97.79
191.607	44.54
191.826	-25.09
192.045	46.59
192.265	-16.9
192.484	69.12
192.704	38.4
192.923	9.73
193.142	17.92
193.362	28.16
193.581	60.93
193.8	69.12
194.02	1.54
194.239	-16.9
194.458	52.74
194.678	-37.38
194.897	7.68
195.116	26.11
195.335	-12.8
195.555	-4.61
195.774	-29.18
195.993	50.69
196.212	-4.61
196.432	44.54
196.651	46.59
196.87	9.73
197.089	67.07
197.308	-4.61
197.528	17.92
197.747	60.93
197.966	48.64
198.185	34.3
198.404	-49.66
198.623	32.26
198.842	3.58
199.062	34.3
199.281	54.78
199.5	15.87
199.719	103.93
199.938	7.68
200.157	-0.51
200.376	-18.94
200.595	44.54
200.814	-23.04
201.033	-14.85
201.252	60.93
201.471	13.82
201.69	11.78
201.909	15.87
202.128	11.78
202.347	-35.33
202.566	62.98
202.785	26.11
203.004	-90.62
203.223	1.54
203.442	44.54
203.661	19.97
203.879	1.54
204.098	81.41
204.317	71.17
204.536	83.45
204.755	65.02
204.974	60.93
205.193	-14.85
205.411	91.65
205.63	-111.1
205.849	30.21
206.068	40.45
206.287	-0.51
206.505	7.68
206.724	77.31
206.943	32.26
207.162	108.03
207.381	81.41
207.599	-35.33
207.818	-47.62
208.037	-109.05
208.255	52.74
208.474	110.08
208.693	3.58
208.911	28.16
209.13	15.87
209.349	11.78
209.567	58.88
209.786	38.4
210.005	58.88
210.223	56.83
210.442	-43.52
210.661	19.97
210.879	15.87
211.098	-14.85
211.316	28.16
211.535	71.17
211.753	87.55
211.972	-10.75
212.191	-37.38
212.409	24.06
212.628	54.78
212.846	-18.94
213.065	38.4
213.283	46.59
213.502	34.3
213.72	30.21
213.938	77.31
214.157	42.5
214.375	44.54
214.594	-4.61
214.812	32.26
215.031	77.31
215.249	-14.85
215.467	15.87
215.686	-43.52
215.904	-51.71
216.122	-2.56
216.341	81.41
216.559	1.54
216.778	36.35
216.996	-29.18
217.214	38.4
217.432	69.12
217.651	-43.52
217.869	-6.66
218.087	-29.18
218.306	38.4
218.524	108.03
218.742	11.78
218.96	9.73
219.179	1.54
219.397	26.11
219.615	124.41
219.833	62.98
220.051	9.73
220.27	81.41
220.488	24.06
220.706	52.74
220.924	11.78
221.142	22.02
221.36	-0.51
221.578	32.26
221.796	69.12
222.015	-6.66
222.233	-8.7
222.451	17.92
222.669	-2.56
222.887	34.3
223.105	-10.75
223.323	28.16
223.541	13.82
223.759	9.73
223.977	5.63
224.195	50.69
224.413	65.02
224.631	11.78
224.849	-49.66
225.067	81.41
225.285	-6.66
225.503	50.69
225.721	-16.9
225.939	48.64
226.157	-0.51
226.375	13.82
226.592	11.78
226.81	1.54
227.028	40.45
227.246	97.79
227.464	-23.04
227.682	26.11
227.9	-0.51
228.117	40.45
228.335	26.11
228.553	56.83
228.771	-25.09
228.989	44.54
229.206	19.97
229.424	32.26
229.642	-20.99
229.86	-45.57
230.077	1.54
230.295	17.92
230.513	24.06
230.731	48.64
230.948	-8.7
231.166	54.78
231.384	24.06
231.601	15.87
231.819	28.16
232.037	13.82
232.254	48.64
232.472	-23.04
232.689	9.73
232.907	40.45
233.125	30.21
233.342	-16.9
233.56	11.78
233.777	9.73
233.995	69.12
234.213	93.69
234.43	3.58
234.648	44.54
234.865	-0.51
235.083	15.87
235.3	38.4
235.518	42.5
235.735	42.5
235.953	38.4
236.17	42.5
236.388	1.54
236.605	11.78
236.822	38.4
237.04	19.97
237.257	34.3
237.475	67.07
237.692	79.36
237.909	28.16
238.127	38.4
238.344	7.68
238.562	1.54
238.779	-4.61
238.996	-10.75
239.214	17.92
239.431	46.59
239.648	9.73
239.865	36.35
240.083	-14.85
240.3	67.07
240.517	85.5
240.735	73.21
240.952	42.5
241.169	36.35
241.386	89.6
241.603	-0.51
241.821	-39.42
242.038	46.59
242.255	77.31
242.472	-25.09
242.689	-27.14
242.907	93.69
243.124	38.4
243.341	93.69
243.558	19.97
243.775	38.4
243.992	48.64
244.209	-23.04
244.426	77.31
244.643	71.17
244.86	-47.62
245.078	44.54
245.295	11.78
245.512	-25.09
245.729	-4.61
245.946	13.82
246.163	15.87
246.38	54.78
246.597	93.69
246.814	22.02
247.031	77.31
247.248	36.35
247.464	44.54
247.681	13.82
247.898	50.69
248.115	44.54
248.332	52.74
248.549	73.21
248.766	91.65
248.983	116.22
249.2	22.02
249.417	58.88
249.633	-8.7
249.85	15.87
250.067	-53.76
250.284	34.3
250.501	71.17
250.717	32.26
250.934	5.63
251.151	-12.8
251.368	69.12
251.585	22.02
251.801	-33.28
252.018	-20.99
252.235	56.83
252.451	-39.42
252.668	95.74
252.885	54.78
253.102	-0.51
253.318	42.5
253.535	-4.61
253.752	-23.04
253.968	83.45
254.185	17.92
254.401	22.02
254.618	34.3
254.835	-12.8
255.051	60.93
255.268	15.87
255.484	30.21
255.701	-4.61
255.917	48.64
256.134	19.97
256.351	13.82
256.567	71.17
256.784	65.02
257	-8.7
257.217	32.26
257.433	-0.51
257.65	1.54
257.866	28.16
258.082	24.06
258.299	-4.61
258.515	83.45
258.732	-49.66
258.948	-33.28
259.165	30.21
259.381	-35.33
259.597	65.02
259.814	-39.42
260.03	65.02
260.246	13.82
260.463	36.35
260.679	17.92
260.895	77.31
261.112	26.11
261.328	-23.04
261.544	40.45
261.761	50.69
261.977	-8.7
262.193	-39.42
262.409	32.26
262.626	22.02
262.842	28.16
263.058	13.82
263.274	67.07
263.49	89.6
263.707	69.12
263.923	-45.57
264.139	97.79
264.355	17.92
264.571	93.69
264.787	77.31
265.004	46.59
265.22	-51.71
265.436	-6.66
265.652	9.73
265.868	60.93
266.084	50.69
266.3	79.36
266.516	15.87
266.732	62.98
266.948	26.11
267.164	40.45
267.38	46.59
267.596	15.87
267.812	9.73
268.028	73.21
268.244	40.45
268.46	-0.51
268.676	54.78
268.892	60.93
269.108	15.87
269.324	-6.66
269.54	-6.66
269.756	44.54
269.972	-53.76
270.188	5.63
270.403	5.63
270.619	24.06
270.835	38.4
271.051	34.3
271.267	42.5
271.483	50.69
271.698	5.63
271.914	-4.61
272.13	-23.04
272.346	-2.56
272.562	9.73
272.777	85.5
272.993	-35.33
273.209	-33.28
273.425	50.69
273.64	7.68
273.856	38.4
274.072	67.07
274.287	32.26
274.503	28.16
274.719	67.07
274.934	36.35
275.15	95.74
275.366	87.55
275.581	73.21
275.797	42.5
276.012	56.83
276.228	15.87
276.444	48.64
276.659	11.78
276.875	48.64
277.09	17.92
277.306	-8.7
277.521	26.11
277.737	-31.23
277.952	36.35
278.168	93.69
278.383	48.64
278.599	34.3
278.814	81.41
279.03	-35.33
279.245	-10.75
279.461	65.02
279.676	58.88
279.892	48.64
280.107	-18.94
280.322	-2.56
280.538	30.21
280.753	32.26
280.969	7.68
281.184	-14.85
281.399	62.98
281.615	26.11
281.83	38.4
282.045	-29.18
282.26	1.54
282.476	13.82
282.691	15.87
282.906	19.97
283.122	-39.42
283.337	54.78
283.552	58.88
283.767	22.02
283.983	81.41
284.198	-20.99
284.413	42.5
284.628	34.3
284.843	28.16
285.058	32.26
285.274	-51.71
285.489	67.07
285.704	36.35
285.919	-18.94
286.134	-33.28
286.349	28.16
286.564	65.02
286.779	95.74
286.995	9.73
287.21	3.58
287.425	1.54
287.64	50.69
287.855	44.54
288.07	65.02
288.285	46.59
288.5	-8.7
288.715	114.17
288.93	28.16
289.145	38.4
289.36	69.12
289.575	9.73
289.79	110.08
290.004	62.98
290.219	114.17
290.434	19.97
290.649	3.58
290.864	-0.51
291.079	5.63
291.294	52.74
291.509	62.98
291.724	28.16
291.938	3.58
292.153	77.31
292.368	38.4
292.583	-27.14
292.798	34.3
293.012	-0.51
293.227	24.06
293.442	24.06
293.657	40.45
293.871	30.21
294.086	-12.8
294.301	15.87
294.516	65.02
294.73	-33.28
294.945	36.35
295.16	-12.8
295.374	73.21
295.589	97.79
295.804	15.87
296.018	-61.95
296.233	97.79
296.447	30.21
296.662	52.74
296.877	71.17
297.091	81.41
297.306	56.83
297.52	9.73
297.735	7.68
297.949	-2.56
298.164	5.63
298.378	79.36
298.593	13.82
298.807	-20.99
299.022	28.16
299.236	85.5
299.451	9.73
299.665	-31.23
299.88	81.41
300.094	17.92
300.309	54.78
300.523	28.16
300.737	79.36
300.952	9.73
301.166	24.06
301.381	-12.8
301.595	77.31
301.809	62.98
302.024	7.68
302.238	11.78
302.452	54.78
302.667	38.4
302.881	62.98
303.095	46.59
303.309	116.22
303.524	19.97
303.738	24.06
303.952	-47.62
304.166	44.54
304.381	13.82
304.595	5.63
304.809	3.58
305.023	19.97
305.237	24.06
305.452	-16.9
305.666	77.31
305.88	30.21
306.094	15.87
306.308	40.45
306.522	56.83
306.736	40.45
306.95	7.68
307.164	30.21
307.379	34.3
307.593	40.45
307.807	19.97
308.021	-57.86
308.235	3.58
308.449	65.02
308.663	32.26
308.877	34.3
309.091	65.02
309.305	77.31
309.519	-27.14
309.733	-37.38
309.947	7.68
310.161	-23.04
310.374	42.5
310.588	34.3
310.802	-10.75
311.016	34.3
311.23	73.21
311.444	-29.18
311.658	5.63
311.872	99.84
312.085	44.54
312.299	-0.51
312.513	81.41
312.727	44.54
312.941	-16.9
313.154	22.02
313.368	34.3
313.582	54.78
313.796	5.63
314.009	38.4
314.223	69.12
314.437	54.78
314.651	40.45
314.864	120.32
315.078	-2.56
315.292	54.78
315.505	42.5
315.719	65.02
315.933	24.06
316.146	67.07
316.36	9.73
316.573	85.5
316.787	75.26
317.001	46.59
317.214	19.97
317.428	22.02
317.641	-18.94
317.855	-14.85
318.068	3.58
318.282	69.12
318.495	58.88
318.709	11.78
318.922	22.02
319.136	26.11
319.349	24.06
319.563	38.4
319.776	-2.56
319.99	30.21
320.203	17.92
320.417	-14.85
320.63	-14.85
320.843	101.89
321.057	-16.9
321.27	17.92
321.483	58.88
321.697	44.54
321.91	-31.23
322.124	-49.66
322.337	32.26
322.55	-14.85
322.763	69.12
322.977	13.82
323.19	62.98
323.403	11.78
323.617	-29.18
323.83	-14.85
324.043	5.63
324.256	89.6
324.469	17.92
324.683	124.41
324.896	17.92
325.109	40.45
325.322	9.73
325.535	24.06
325.748	81.41
325.962	81.41
326.175	-2.56
326.388	85.5
326.601	22.02
326.814	-8.7
327.027	46.59
327.24	34.3
327.453	46.59
327.666	38.4
327.879	114.17
328.092	38.4
328.305	54.78
328.518	-6.66
328.731	-72.19
328.944	34.3
329.157	19.97
329.37	38.4
329.583	17.92
329.796	62.98
330.009	-88.57
330.222	30.21
330.435	11.78
330.648	85.5
330.861	-66.05
331.073	-29.18
331.286	32.26
331.499	112.13
331.712	-23.04
331.925	48.64
332.138	-2.56
332.35	101.89
332.563	62.98
332.776	65.02
332.989	81.41
333.202	30.21
333.414	-29.18
333.627	56.83
333.84	5.63
334.053	52.74
334.265	38.4
334.478	24.06
334.691	56.83
334.903	24.06
335.116	7.68
335.329	62.98
335.541	101.89
335.754	24.06
335.966	40.45
336.179	22.02
336.392	81.41
336.604	15.87
336.817	-20.99
337.029	50.69
337.242	-8.7
337.454	38.4
337.667	32.26
337.88	28.16
338.092	11.78
338.305	34.3
338.517	-10.75
338.729	26.11
338.942	56.83
339.154	26.11
339.367	-18.94
339.579	48.64
339.792	17.92
340.004	-6.66
340.217	69.12
340.429	-35.33
340.641	-10.75
340.854	110.08
341.066	62.98
341.278	-23.04
341.491	48.64
341.703	32.26
341.915	50.69
342.128	62.98
342.34	-2.56
342.552	19.97
342.764	-20.99
342.977	7.68
343.189	69.12
343.401	81.41
343.613	13.82
343.826	26.11
344.038	-8.7
344.25	17.92
344.462	30.21
344.674	67.07
344.886	11.78
345.099	87.55
345.311	46.59
345.523	-4.61
345.735	7.68
345.947	46.59
346.159	48.64
346.371	24.06
346.583	40.45
346.795	95.74
347.007	42.5
347.219	24.06
347.431	17.92
347.643	54.78
347.855	22.02
348.067	36.35
348.279	44.54
348.491	24.06
348.703	46.59
348.915	48.64
349.127	-31.23
349.339	71.17
349.551	65.02
349.763	17.92
349.975	44.54
350.187	83.45
350.399	56.83
350.61	89.6
350.822	-18.94
351.034	46.59
351.246	-6.66
351.458	3.58
351.669	75.26
351.881	58.88
352.093	54.78
352.305	105.98
352.517	30.21
352.728	69.12
352.94	11.78
353.152	1.54
353.363	52.74
353.575	52.74
353.787	67.07
353.999	52.74
354.21	42.5
354.422	-10.75
354.633	69.12
354.845	52.74
355.057	75.26
355.268	9.73
355.48	-33.28
355.692	105.98
355.903	-45.57
356.115	15.87
356.326	-4.61
356.538	22.02
356.749	36.35
356.961	15.87
357.172	48.64
357.384	-4.61
357.595	32.26
357.807	65.02
358.018	-29.18
358.23	75.26
358.441	-33.28
358.653	50.69
358.864	-35.33
359.075	28.16
359.287	65.02
359.498	54.78
359.709	87.55
359.921	22.02
360.132	-29.18
360.344	97.79
360.555	58.88
360.766	-41.47
360.977	-37.38
361.189	38.4
361.4	52.74
361.611	-29.18
361.823	48.64
362.034	30.21
362.245	97.79
362.456	38.4
362.667	24.06
362.879	46.59
363.09	-14.85
363.301	69.12
363.512	-0.51
363.723	22.02
363.935	81.41
364.146	99.84
364.357	-12.8
364.568	17.92
364.779	-18.94
364.99	105.98
365.201	30.21
365.412	46.59
365.623	-0.51
365.834	24.06
366.045	77.31
366.256	91.65
366.467	13.82
366.678	-16.9
366.889	40.45
367.1	65.02
367.311	85.5
367.522	52.74
367.733	60.93
367.944	11.78
368.155	42.5
368.366	95.74
368.577	50.69
368.788	83.45
368.999	1.54
369.209	11.78
369.42	36.35
369.631	9.73
369.842	26.11
370.053	48.64
370.264	97.79
370.474	26.11
370.685	60.93
370.896	26.11
371.107	-0.51
371.317	-37.38
371.528	38.4
371.739	58.88
371.95	17.92
372.16	159.23
372.371	-23.04
372.582	11.78
372.792	73.21
373.003	13.82
373.214	67.07
373.424	44.54
373.635	42.5
373.846	99.84
374.056	-0.51
374.267	9.73
374.477	101.89
374.688	50.69
374.898	42.5
375.109	67.07
375.319	83.45
375.53	40.45
375.74	114.17
375.951	26.11
376.161	65.02
376.372	30.21
376.582	50.69
376.793	24.06
377.003	71.17
377.214	54.78
377.424	9.73
377.635	28.16
377.845	30.21
378.055	48.64
378.266	56.83
378.476	77.31
378.686	38.4
378.897	58.88
379.107	5.63
379.317	48.64
379.528	46.59
379.738	24.06
379.948	54.78
380.158	28.16
380.369	48.64
380.579	9.73
380.789	95.74
380.999	17.92
381.21	7.68
381.42	138.75
381.63	54.78
381.84	42.5
382.05	81.41
382.261	124.41
382.471	32.26
382.681	75.26
382.891	17.92
383.101	58.88
383.311	3.58
383.521	54.78
383.731	42.5
383.941	91.65
384.151	65.02
384.361	5.63
384.571	56.83
384.781	54.78
384.991	77.31
385.201	13.82
385.411	81.41
385.621	65.02
385.831	52.74
386.041	87.55
386.251	83.45
386.461	89.6
386.671	-8.7
386.881	32.26
387.091	50.69
387.301	62.98
387.511	73.21
387.72	24.06
387.93	15.87
388.14	89.6
388.35	40.45
388.56	73.21
388.769	17.92
388.979	77.31
389.189	-0.51
389.399	79.36
389.609	99.84
389.818	73.21
390.028	124.41
390.238	22.02
390.447	89.6
390.657	62.98
390.867	114.17
391.076	56.83
391.286	28.16
391.496	44.54
391.705	34.3
391.915	50.69
392.125	-20.99
392.334	-14.85
392.544	71.17
392.753	42.5
392.963	130.56
393.172	-4.61
393.382	67.07
393.591	89.6
393.801	42.5
394.01	112.13
394.22	108.03
394.429	101.89
394.639	103.93
394.848	-4.61
395.058	65.02
395.267	62.98
395.477	13.82
395.686	87.55
395.895	167.42
396.105	65.02
396.314	44.54
396.524	26.11
396.733	48.64
396.942	124.41
397.152	73.21
397.361	122.37
397.57	81.41
397.78	140.8
397.989	83.45
398.198	179.71
398.407	67.07
398.617	105.98
398.826	97.79
399.035	101.89
399.244	85.5
399.453	130.56
399.663	122.37
399.872	95.74
400.081	60.93
400.29	60.93
400.499	83.45
400.708	142.85
400.917	77.31
401.127	142.85
401.336	132.61
401.545	183.81
401.754	93.69
401.963	196.09
402.172	202.24
402.381	87.55
402.59	50.69
402.799	108.03
403.008	124.41
403.217	73.21
403.426	81.41
403.635	99.84
403.844	146.94
404.053	142.85
404.262	136.7
404.471	181.76
404.68	120.32
404.888	165.37
405.097	118.27
405.306	95.74
405.515	124.41
405.724	110.08
405.933	46.59
406.142	198.14
406.35	83.45
406.559	163.33
406.768	183.81
406.977	210.43
407.185	142.85
407.394	167.42
407.603	173.57
407.812	185.85
408.02	245.24
408.229	212.48
408.438	226.81
408.646	118.27
408.855	173.57
409.064	218.62
409.272	216.57
409.481	253.44
409.69	292.35
409.898	284.16
410.107	237.05
410.315	253.44
410.524	288.25
410.733	337.4
410.941	278.01
411.15	298.49
411.358	292.35
411.567	323.07
411.775	347.64
411.984	341.5
412.192	359.93
412.401	427.51
412.609	404.99
412.818	390.65
413.026	423.42
413.234	441.85
413.443	458.23
413.651	441.85
413.86	423.42
414.068	593.4
414.276	476.66
414.485	558.58
414.693	589.3
414.901	683.51
415.11	587.26
415.318	622.07
415.526	660.98
415.734	671.22
415.943	615.93
416.151	617.97
416.359	728.56
416.567	798.2
416.776	798.2
416.984	747
417.192	810.48
417.4	857.59
417.608	824.82
417.817	892.4
418.025	900.59
418.233	1009.14
418.441	921.07
418.649	1005.04
418.857	1138.16
419.065	1060.34
419.273	1066.48
419.481	1156.59
419.689	1199.6
419.897	1158.64
420.105	1254.89
420.313	1383.91
420.521	1355.24
420.729	1349.1
420.937	1451.5
421.145	1519.08
421.353	1506.79
421.561	1535.46
421.769	1601
421.977	1744.36
422.185	1668.58
422.393	1881.57
422.601	2014.69
422.809	2053.6
423.017	1934.82
423.224	2069.98
423.432	2172.38
423.64	2166.24
423.848	2278.88
424.056	2203.1
424.263	2276.83
424.471	2467.29
424.679	2426.33
424.887	2608.6
425.094	2729.43
425.302	2573.78
425.51	2749.91
425.718	2862.55
425.925	2903.51
426.133	3104.21
426.341	3259.85
426.548	3327.44
426.756	3261.9
426.964	3337.68
427.171	3466.7
427.379	3722.7
427.586	3665.35
427.794	3900.87
428.001	3898.82
428.209	4246.98
428.417	4097.47
428.624	4396.48
428.832	4359.61
429.039	4464.06
429.247	4455.87
429.454	4738.49
429.662	5180.85
429.869	4758.97
430.076	5170.61
430.284	4890.04
430.491	5268.91
430.699	5533.1
430.906	5338.54
431.114	5610.92
431.321	5811.62
431.528	5889.45
431.736	6051.24
431.943	6495.64
432.15	6315.42
432.358	6440.35
432.565	6798.74
432.772	6675.87
432.979	7054.74
433.187	7292.3
433.394	7251.35
433.601	7855.5
433.808	7628.17
434.016	7753.1
434.223	8000.9
434.43	8531.33
434.637	8199.55
434.844	8942.97
435.052	8924.54
435.259	9069.94
435.466	9098.61
435.673	8809.85
435.88	9495.92
436.087	10012.01
436.294	10245.48
436.501	10012.01
436.708	9987.43
436.915	10364.26
437.122	10939.74
437.329	10802.52
437.537	11087.19
437.743	11527.5
437.95	11375.95
438.157	12066.12
438.364	12125.51
438.571	12346.69
438.778	12336.45
438.985	13516.08
439.192	12985.66
439.399	13360.44
439.606	13008.19
439.813	13837.61
440.02	14656.8
440.227	14316.84
440.433	14386.47
440.64	14781.73
440.847	14882.08
441.054	15023.39
441.261	15959.31
441.467	15951.12
441.674	16063.75
441.881	16835.84
442.088	16547.08
442.294	16358.66
442.501	16975.1
442.708	17327.35
442.914	17978.61
443.121	18683.11
443.328	18234.6
443.534	19453.14
443.741	19283.16
443.948	18730.21
444.154	20214.99
444.361	19999.95
444.568	20022.48
444.774	20163.79
444.981	20495.56
445.187	21275.84
445.394	21939.38
445.6	21834.93
445.807	23680.15
446.013	22580.39
446.22	23147.68
446.426	23983.25
446.633	24233.1
446.839	25334.91
447.046	24251.53
447.252	25447.55
447.459	25197.7
447.665	25183.36
447.871	26418.28
448.078	28030.04
448.284	26279.02
448.491	26776.68
448.697	28263.5
448.903	28617.8
449.11	28503.12
449.316	28363.86
449.522	28853.32
449.728	29850.68
449.935	29627.45
450.141	29543.49
450.347	30227.51
450.553	29566.01
450.76	29887.54
450.966	31108.13
451.172	30301.23
451.378	30981.16
451.584	30495.79
451.791	31314.98
451.997	31536.16
452.203	32062.49
452.409	31814.68
452.615	31849.5
452.821	30512.17
453.027	30415.92
453.233	32044.06
453.44	30979.11
453.646	31020.07
453.852	31210.53
454.058	31966.23
454.264	30342.19
454.47	31370.27
454.676	30792.75
454.882	31745.05
455.088	28875.85
455.294	29465.66
455.5	29914.17
455.705	30278.71
455.911	29260.87
456.117	28302.42
456.323	28015.7
456.529	26330.22
456.735	27688.03
456.941	27094.11
457.147	26524.78
457.352	25871.48
457.558	25470.08
457.764	25472.12
457.97	24886.4
458.176	24401.04
458.381	24683.66
458.587	23262.37
458.793	23606.42
458.999	22480.04
459.204	23757.97
459.41	23366.81
459.616	21753.01
459.821	21417.15
460.027	21372.09
460.233	21161.15
460.438	20243.66
460.644	20229.32
460.85	19172.57
461.055	19242.2
461.261	18894.05
461.466	17480.95
461.672	17270.01
461.878	18287.85
462.083	17235.19
462.289	16727.3
462.494	16358.66
462.7	15738.13
462.905	15373.59
463.111	15756.56
463.316	16059.66
463.522	15609.11
463.727	15725.84
463.932	15834.38
464.138	15674.64
464.343	15555.86
464.549	15029.53
464.754	15752.46
464.959	15553.81
465.165	15230.23
465.37	14466.34
465.575	14126.38
465.781	15060.25
465.986	15146.26
466.191	14468.39
466.397	14109.99
466.602	13440.31
466.807	14214.44
467.012	14062.89
467.218	13874.48
467.423	13509.94
467.628	13634.86
467.833	14343.46
468.038	13839.66
468.244	13518.13
468.449	14114.09
468.654	13477.17
468.859	13401.4
469.064	13471.03
469.269	12942.65
469.474	12893.5
469.679	13231.41
469.885	12866.88
470.09	12997.95
470.295	12928.31
470.5	12569.92
470.705	12721.47
470.91	12444.99
471.115	12238.15
471.32	12608.83
471.525	12383.56
471.73	11986.25
471.935	11957.58
472.139	11631.95
472.344	11607.37
472.549	11570.51
472.754	11500.88
472.959	11349.33
473.164	11181.4
473.369	10927.45
473.574	11433.3
473.778	11234.64
473.983	10999.13
474.188	11165.01
474.393	10747.23
474.598	10693.98
474.802	10450.27
475.007	10614.11
475.212	10579.29
475.417	10188.13
475.621	10106.21
475.826	10200.42
476.031	9983.34
476.235	9862.51
476.44	10085.73
476.645	9713
476.849	9710.96
477.054	9614.7
477.259	9645.42
477.463	9432.43
477.668	9403.76
477.872	9467.25
478.077	9194.87
478.282	8949.11
478.486	9000.31
478.691	8942.97
478.895	8916.34
479.1	8764.79
479.304	8867.19
479.509	8672.64
479.713	8713.6
479.918	8516.99
480.122	8254.85
480.326	8435.07
480.531	8357.25
480.735	8383.87
480.94	8240.51
481.144	8811.9
481.348	8093.06
481.553	8375.68
481.757	8099.2
481.961	8363.39
482.166	8306.05
482.37	8140.16
482.574	8017.29
482.778	8144.26
482.983	8273.28
483.187	8168.84
483.391	8213.89
483.595	8142.21
483.8	8121.73
484.004	8273.28
484.208	8357.25
484.412	8045.96
484.616	8023.43
484.821	8099.2
485.025	8187.27
485.229	8277.38
485.433	8252.8
485.637	8027.53
485.841	8152.45
486.045	8224.13
486.249	8093.06
486.453	7984.52
486.657	8129.92
486.861	8306.05
487.065	8041.86
487.269	8101.25
487.473	8115.59
487.677	8195.46
487.881	8353.15
488.085	8121.73
488.289	8246.66
488.493	8148.36
488.697	8347.01
488.901	8152.45
489.105	7986.57
489.309	8086.92
489.512	8123.78
489.716	8187.27
489.92	8232.32
490.124	8086.92
490.328	8390.02
490.531	8291.71
490.735	8387.97
490.939	8383.87
491.143	8367.49
491.346	8340.86
491.55	8426.88
491.754	8531.33
491.958	8502.65
492.161	8570.24
492.365	8609.15
492.569	8678.78
492.772	8551.81
492.976	8641.92
493.18	8770.94
493.383	8861.05
493.587	8859
493.79	9176.44
493.994	8754.55
494.197	9014.65
494.401	8975.74
494.605	9006.45
494.808	9139.57
495.012	9399.66
495.215	9295.22
495.419	9362.8
495.622	9368.95
495.825	9579.89
496.029	9485.68
496.232	9729.39
496.436	9774.44
496.639	9907.56
496.843	9801.07
497.046	10116.45
497.249	10020.2
497.453	10280.29
497.656	10407.27
497.859	10272.1
498.063	10382.69
498.266	10593.63
498.469	10693.98
498.673	10892.63
498.876	10876.25
499.079	10952.02
499.282	11021.66
499.485	11318.61
499.689	11449.68
499.892	11396.43
500.095	11556.18
500.298	11740.49
500.501	11742.54
500.705	12057.93
500.908	12135.75
501.111	12315.97
501.314	12457.28
501.517	12352.84
501.72	12729.66
501.923	12549.44
502.126	13081.91
502.329	13151.54
502.532	13071.67
502.735	13471.03
502.938	13591.86
503.141	13452.59
503.344	13972.78
503.547	13917.48
503.75	14071.08
503.953	14185.77
504.156	14406.95
504.359	14566.69
504.562	14435.62
504.765	15181.08
504.968	14908.7
505.17	15144.22
505.373	15316.25
505.576	15658.26
505.779	15930.64
505.982	15865.1
506.185	16299.27
506.387	16194.82
506.59	16430.34
506.793	16852.22
506.996	16561.41
507.198	17163.51
507.401	17196.28
507.604	17241.34
507.807	17749.23
508.009	17532.15
508.212	17792.24
508.415	18236.65
508.617	18461.93
508.82	18398.44
509.022	18205.93
509.225	18773.22
509.428	19037.41
509.63	19342.55
509.833	18980.06
510.035	19764.43
510.238	19641.56
510.44	19737.81
510.643	20165.84
510.845	20550.85
511.048	20278.47
511.25	20825.28
511.453	20892.87
511.655	21486.78
511.858	21599.41
512.06	21714.1
512.262	21912.75
512.465	21748.92
512.667	22285.48
512.87	22686.89
513.072	22457.51
513.274	23067.81
513.477	23135.39
513.679	23422.11
513.881	23415.96
514.084	23843.99
514.286	23891.09
514.488	23905.43
514.69	24597.64
514.893	24894.6
515.095	24972.42
515.297	25097.35
515.499	25199.74
515.701	25721.98
515.904	26063.99
516.106	26152.05
516.308	26102.9
516.51	26586.22
516.712	26784.87
516.914	26909.8
517.116	27608.15
517.318	27468.89
517.52	27520.09
517.722	27954.26
517.925	28177.49
518.127	29023.3
518.329	28527.69
518.531	28847.18
518.733	29189.19
518.935	29699.13
519.136	29852.73
519.338	30407.73
519.54	30331.95
519.742	30432.3
519.944	30377.01
520.146	31038.5
520.348	30979.11
520.55	31341.6
520.752	31597.6
520.954	32408.59
521.155	31765.53
521.357	32363.54
521.559	32642.06
521.761	33022.98
521.963	33104.9
522.164	33481.73
522.366	33176.58
522.568	34036.73
522.77	33723.39
522.971	34503.67
523.173	34339.83
523.375	34624.5
523.576	34540.53
523.778	34606.06
523.98	35662.82
524.181	35394.53
524.383	35283.94
524.584	35589.09
524.786	36299.73
524.988	35529.7
525.189	36406.23
525.391	36443.09
525.592	36672.46
525.794	36871.12
525.995	36787.15
526.197	37106.63
526.398	37268.42
526.6	37518.28
526.801	37516.23
527.003	37708.74
527.204	37960.64
527.406	38218.68
527.607	37985.21
527.808	38261.69
528.01	37776.32
528.211	38144.95
528.412	39117.74
528.614	39017.39
528.815	38919.09
529.016	39009.2
529.218	38994.86
529.419	39400.36
529.62	39267.24
529.822	39211.95
530.023	39639.97
530.224	39375.78
530.425	39416.74
530.626	39637.92
530.828	39220.14
531.029	40141.72
531.23	39902.11
531.431	39934.88
531.632	40184.73
531.833	40289.18
532.035	39807.9
532.236	40379.29
532.437	40375.19
532.638	40612.76
532.839	39977.89
533.04	40801.17
533.241	40166.3
533.442	41026.45
533.643	40676.24
533.844	40577.94
534.045	40960.91
534.246	40113.05
534.447	40965.01
534.648	40815.51
534.849	41237.39
535.05	40600.47
535.251	40930.19
535.451	40903.57
535.652	41372.55
535.853	40833.94
536.054	40878.99
536.255	40731.54
536.456	41018.25
536.657	41382.79
536.857	40641.43
537.058	40870.8
537.259	41071.5
537.46	41001.87
537.66	41251.72
537.861	41102.22
538.062	40999.82
538.263	41118.6
538.463	40741.78
538.664	40938.38
538.865	41270.15
539.065	41458.57
539.266	40682.39
539.466	41221
539.667	40588.18
539.868	41282.44
540.068	41001.87
540.269	40932.24
540.469	41032.59
540.67	40985.49
540.87	41069.45
541.071	40922
541.271	41413.51
541.472	41192.33
541.672	41208.72
541.873	41233.29
542.073	40668.05
542.274	41159.56
542.474	41251.72
542.675	40563.61
542.875	41227.15
543.075	40960.91
543.276	40508.31
543.476	41366.41
543.676	41014.16
543.877	41077.65
544.077	41405.32
544.277	40997.77
544.478	41161.61
544.678	41505.67
544.878	40985.49
545.078	40680.34
545.279	40506.26
545.479	40553.37
545.679	41184.14
545.879	41169.8
546.079	40754.07
546.28	40948.62
546.48	40520.6
546.68	41284.49
546.88	41153.42
547.08	41108.36
547.28	41032.59
547.48	40733.59
547.68	40928.14
547.88	40305.56
548.081	41022.35
548.281	40913.81
548.481	40741.78
548.681	41040.78
548.881	41137.04
549.081	40854.42
549.28	40842.13
549.48	40969.1
549.68	41261.96
549.88	41319.31
550.08	40983.44
550.28	41089.93
550.48	40602.52
550.68	41044.88
550.88	40747.92
551.08	40938.38
551.279	40702.87
551.479	40704.91
551.679	40860.56
551.879	40647.57
552.079	41229.19
552.278	40514.45
552.478	40776.59
552.678	41108.36
552.878	41001.87
553.077	40831.89
553.277	40465.3
553.477	41272.2
553.676	40653.72
553.876	40549.27
554.076	40596.37
554.275	40383.38
554.475	40297.37
554.674	40643.48
554.874	40356.76
555.074	40526.74
555.273	40823.7
555.473	40672.15
555.672	40383.38
555.872	40483.73
556.071	40651.67
556.271	40627.09
556.47	40440.73
556.67	40125.34
556.869	39887.78
557.068	40276.89
557.268	40016.8
557.467	39977.89
557.667	40233.88
557.866	40203.16
558.065	39947.17
558.265	39678.88
558.464	39476.13
558.663	40229.79
558.863	39695.27
559.062	40117.15
559.261	39334.82
559.461	40027.04
559.66	39295.91
559.859	39228.33
560.058	39414.69
560.258	39672.74
560.457	39080.88
560.656	39322.54
560.855	39160.75
561.054	39662.5
561.253	38998.96
561.453	39216.04
561.652	39041.96
561.851	39269.29
562.05	39001
562.249	38812.59
562.448	39189.42
562.647	38740.91
562.846	38859.7
563.045	38861.74
563.244	38331.32
563.443	38941.61
563.642	38020.03
563.841	38316.98
564.04	38448.05
564.239	38726.58
564.438	38063.04
564.637	38271.93
564.836	38544.31
565.035	38245.3
565.234	37938.11
565.432	38331.32
565.631	37995.45
565.83	37913.53
566.029	37581.76
566.228	37886.91
566.427	37559.23
566.625	37714.88
566.824	36985.8
567.023	37471.17
567.222	37069.77
567.42	37516.23
567.619	37135.31
567.818	37319.62
568.016	36946.89
568.215	37366.73
568.414	36639.7
568.612	37028.81
568.811	37084.11
569.01	36516.82
569.208	36375.51
569.407	36596.69
569.605	36299.73
569.804	36234.2
570.002	36131.8
570.201	36387.8
570.4	35888.09
570.598	36060.12
570.797	35793.89
570.995	36152.28
571.193	35324.9
571.392	35763.17
571.59	35400.68
571.789	35570.66
571.987	35396.58
572.186	35455.97
572.384	35306.47
572.582	35312.61
572.781	35011.56
572.979	34718.7
573.177	34812.91
573.376	34817
573.574	34831.34
573.772	34708.46
573.971	34331.64
574.169	34122.74
574.367	34130.94
574.565	34403.32
574.763	34405.36
574.962	33895.42
575.16	33641.47
575.358	34003.96
575.556	33473.54
575.754	33825.79
575.952	33635.33
576.151	33684.48
576.349	33256.45
576.547	33418.24
576.745	33610.75
576.943	33287.17
577.141	33346.56
577.339	33223.69
577.537	33031.18
577.735	32799.76
577.933	32547.86
578.131	32693.26
578.329	32334.87
578.527	32373.78
578.725	32508.94
578.923	32351.25
579.121	32640.01
579.319	32128.02
579.516	32341.01
579.714	31992.86
579.912	31962.14
580.11	31669.28
580.308	32171.03
580.506	32142.36
580.704	31546.4
580.901	31763.48
581.099	31714.33
581.297	31476.77
581.495	31210.53
581.692	31452.19
581.89	30977.06
582.088	31376.42
582.285	30950.44
582.483	31261.73
582.681	31185.96
582.878	30549.04
583.076	30323.76
583.274	31212.58
583.471	30475.31
583.669	30643.24
583.866	30139.44
584.064	30585.9
584.262	30268.47
584.459	29981.75
584.657	30000.18
584.854	30278.71
585.052	29762.62
585.249	29805.63
585.447	29592.64
585.644	29666.36
585.841	29842.49
586.039	29545.53
586.236	29129.8
586.434	29219.91
586.631	29156.42
586.828	29430.85
587.026	29068.36
587.223	29006.92
587.42	28935.24
587.618	28859.46
587.815	28718.15
588.012	28449.87
588.21	28669
588.407	28494.93
588.604	28378.19
588.801	28439.63
588.999	28089.43
589.196	28179.54
589.393	28265.55
589.59	27808.86
589.787	28048.47
589.984	27761.75
590.182	27767.9
590.379	27450.46
590.576	27559
590.773	27880.53
590.97	27440.22
591.167	27458.65
591.364	27038.82
591.561	27294.82
591.758	26848.36
591.955	27155.55
592.152	27165.79
592.349	27188.32
592.546	26807.4
592.743	26885.22
592.94	26412.14
593.137	26594.41
593.334	26446.96
593.531	26207.34
593.727	26578.03
593.924	26408.05
594.121	26002.55
594.318	26348.65
594.515	25879.67
594.712	26266.74
594.908	25769.08
595.105	25957.49
595.302	25474.17
595.499	25539.71
595.696	25379.96
595.892	25625.72
596.089	25633.91
596.286	25693.3
596.482	25488.51
596.679	25259.13
596.876	25242.75
597.072	25015.43
597.269	25097.35
597.466	24859.78
597.662	24663.18
597.859	24980.61
598.055	24835.21
598.252	24663.18
598.448	24474.76
598.645	24480.91
598.841	24566.92
599.038	24218.77
599.234	24296.59
599.431	24159.38
599.627	23831.7
599.824	24087.7
600.02	24331.4
600.217	24075.41
600.413	23862.42
600.609	23903.38
600.806	23612.57
601.002	23676.05
601.198	23321.76
601.395	23518.36
601.591	23516.31
601.787	23426.2
601.984	23196.83
602.18	23495.83
602.376	23237.79
602.572	23020.7
602.769	23182.49
602.965	23012.51
603.161	22838.44
603.357	22695.08
603.553	22731.94
603.75	22727.85
603.946	22265
604.142	22777
604.338	22322.35
604.534	22377.64
604.73	22152.37
604.926	22121.65
605.122	22178.99
605.318	22336.68
605.514	22011.06
605.71	22115.5
605.906	21546.17
606.102	21867.7
606.298	21558.46
606.494	21748.92
606.69	21683.38
606.886	21623.99
607.082	21425.34
607.278	21558.46
607.474	21112
607.67	21408.95
607.866	21249.21
608.062	21163.2
608.257	21138.62
608.453	21056.7
608.649	21337.27
608.845	20899.01
609.041	20911.3
609.236	21089.47
609.432	21136.57
609.628	21011.65
609.824	20473.03
610.019	20661.44
610.215	20886.72
610.411	20733.12
610.606	20686.02
610.802	20919.49
610.998	20344.01
611.193	20495.56
611.389	20327.63
611.584	20262.09
611.78	20042.96
611.976	20100.3
612.171	20530.37
612.367	20311.24
612.562	20294.86
612.758	19936.46
612.953	19764.43
613.149	19934.42
613.344	19698.9
613.539	20002
613.735	19932.37
613.93	19975.38
614.126	20034.77
614.321	20012.24
614.517	20178.12
614.712	19604.69
614.907	19930.32
615.103	19651.8
615.298	19528.92
615.493	19518.68
615.688	19573.97
615.884	19563.73
616.079	19186.91
616.274	19487.96
616.47	19336.41
616.665	19371.22
616.86	19444.95
617.055	19098.84
617.25	18912.48
617.445	18992.35
617.641	18937.06
617.836	19170.52
618.031	18810.08
618.226	18971.87
618.421	18533.61
618.616	18892
618.811	18478.31
619.006	18349.29
619.201	18367.72
619.396	18668.77
619.591	18314.47
619.786	18425.06
619.981	18298.09
620.176	18210.03
620.371	17908.97
620.566	18234.6
620.761	17855.73
620.956	17968.37
621.151	17882.35
621.346	17843.44
621.541	17493.24
621.735	17874.16
621.93	17317.11
622.125	17444.09
622.32	17128.7
622.515	17573.11
622.709	17251.58
622.904	16895.23
623.099	17212.67
623.294	16921.85
623.488	16837.89
623.683	16878.85
623.878	16577.8
624.072	16708.87
624.267	16592.13
624.462	16329.99
624.656	16667.91
624.851	16006.41
625.046	15963.4
625.24	16041.23
625.435	15867.15
625.629	16002.32
625.824	15873.29
626.018	15658.26
626.213	15490.32
626.407	15645.97
626.602	15471.89
626.796	15557.91
626.991	15514.9
627.185	15422.74
627.38	15367.45
627.574	15203.61
627.768	14968.09
627.963	14847.26
628.157	14728.48
628.352	14828.83
628.546	14499.11
628.74	14587.17
628.935	14613.79
629.129	14664.99
629.323	14325.03
629.517	14122.28
629.712	14331.17
629.906	14189.86
630.1	14175.53
630.294	14083.37
630.489	13915.44
630.683	14021.93
630.877	13679.92
631.071	13684.02
631.265	13661.49
631.459	13606.19
631.653	13460.79
631.848	13462.83
632.042	13425.97
632.236	13430.07
632.43	13235.51
632.624	13409.59
632.818	12862.78
633.012	12950.84
633.206	13049.14
633.4	12889.4
633.594	12780.86
633.788	12735.81
633.982	12721.47
634.176	12696.89
634.369	12551.49
634.563	12668.22
634.757	12524.86
634.951	12551.49
635.145	12223.81
635.339	12315.97
635.533	12070.22
635.726	12332.36
635.92	11793.74
636.114	11830.6
636.308	12066.12
636.501	11928.91
636.695	11949.39
636.889	11668.81
637.083	11531.6
637.276	11515.22
637.47	11429.2
637.664	11466.07
637.857	11468.11
638.051	11353.43
638.244	11103.57
638.438	11122.01
638.632	11365.71
638.825	11103.57
639.019	11007.32
639.212	10863.96
639.406	10831.19
639.599	10831.19
639.793	10863.96
639.986	10653.02
640.18	10757.47
640.373	10794.33
640.567	10409.31
640.76	10548.58
640.954	10407.27
641.147	10175.84
641.34	10306.91
641.534	10175.84
641.727	10186.08
641.92	10245.48
642.114	10247.52
642.307	9835.88
642.5	9993.58
642.694	9723.24
642.887	9782.63
643.08	9616.75
643.273	9696.62
643.467	9721.2
643.66	9600.37
643.853	9698.67
644.046	9713
644.239	9483.63
644.432	9370.99
644.626	9321.84
644.819	9379.18
645.012	9356.66
645.205	9215.35
645.398	9080.18
645.591	9008.5
645.784	8992.12
645.977	8789.37
646.17	8992.12
646.363	8727.93
646.556	8691.07
646.749	8879.48
646.942	8813.95
647.135	8527.23
647.328	8457.6
647.521	8535.42
647.714	8435.07
647.907	8695.16
648.099	8433.02
648.292	8564.09
648.485	8568.19
648.678	8330.62
648.871	8377.73
649.064	8064.39
649.256	8070.53
649.449	8344.96
649.642	8091.01
649.835	7966.09
650.027	8088.96
650.22	7998.85
650.413	7953.8
650.605	7933.32
650.798	7781.77
650.991	7865.74
651.183	7720.33
651.376	7705.99
651.568	7558.54
651.761	7544.2
651.954	7472.53
652.146	7646.6
652.339	7310.74
652.531	7472.53
652.724	7452.05
652.916	7220.63
653.109	7253.39
653.301	7351.7
653.494	7208.34
653.686	7148.95
653.879	7339.41
654.071	7232.91
654.263	7015.83
654.456	7103.89
654.648	7146.9
654.84	6987.16
655.033	7073.17
655.225	6911.38
655.417	6782.36
655.61	6970.77
655.802	6782.36
655.994	6608.28
656.186	6649.24
656.379	6659.48
656.571	6649.24
656.763	6591.9
656.955	6804.89
657.148	6763.93
657.34	6688.15
657.532	6557.08
657.724	6415.77
657.916	6446.49
658.108	6428.06
658.3	6223.27
658.492	6348.19
658.684	6362.53
658.876	6317.47
659.068	6368.67
659.26	6366.62
659.452	6067.62
659.644	6094.24
659.836	5965.22
660.028	5948.84
660.22	6036.9
660.412	6127.01
660.604	5952.93
660.796	6081.96
660.988	5887.4
661.18	5803.43
661.372	5801.38
661.563	5885.35
661.755	5764.52
661.947	5868.97
662.139	5619.11
662.331	5873.06
662.522	5690.79
662.714	5637.55
662.906	5504.43
663.097	5555.63
663.289	5410.22
663.481	5348.78
663.673	5498.28
663.864	5348.78
664.056	5377.45
664.247	5363.12
664.439	5270.96
664.631	5270.96
664.822	5008.82
665.014	5473.71
665.205	5246.38
665.397	5150.13
665.588	5180.85
665.78	5178.8
665.971	5100.98
666.163	5146.03
666.354	5199.28
666.546	5082.55
666.737	4931
666.929	4896.18
667.12	4902.33
667.311	4939.19
667.503	4842.93
667.694	5035.44
667.885	4959.67
668.077	4871.61
668.268	4801.97
668.459	4865.46
668.651	4887.99
668.842	4804.02
669.033	4822.45
669.224	4726.2
669.416	4705.72
669.607	4810.17
669.798	4658.62
669.989	4685.24
670.18	4529.59
670.371	4605.37
670.563	4535.74
670.754	4681.14
670.945	4576.7
671.136	4644.28
671.327	4599.23
671.518	4427.2
671.709	4488.64
671.9	4652.47
672.091	4455.87
672.282	4453.82
672.473	4421.05
672.664	4478.4
672.855	4431.29
673.046	4500.92
673.237	4537.79
673.428	4365.76
673.619	4298.17
673.809	4261.31
674	4380.09
674.191	4439.48
674.382	4388.29
674.573	4296.13
674.764	4292.03
674.954	4312.51
675.145	4271.55
675.336	4138.43
675.527	4289.98
675.717	4289.98
675.908	4148.67
676.099	4079.04
676.289	4142.53
676.48	4109.76
676.671	4079.04
676.861	4130.24
677.052	4085.19
677.243	4113.86
677.433	4066.75
677.624	4060.61
677.814	4025.79
678.005	4187.58
678.195	4007.36
678.386	3999.17
678.576	3904.96
678.767	4072.9
678.957	4165.06
679.148	4060.61
679.338	3888.58
679.529	4099.52
679.719	3997.12
679.909	4025.79
680.1	4009.41
680.29	3874.24
680.481	3950.02
680.671	3988.93
680.861	3954.12
681.052	3995.08
681.242	3880.39
681.432	3907.01
681.622	3915.2
681.813	3947.97
682.003	4001.22
682.193	3687.88
682.383	3956.16
682.573	3831.24
682.764	3853.77
682.954	3980.74
683.144	3904.96
683.334	3800.52
683.524	3667.4
683.714	3929.54
683.904	3718.6
684.094	3962.31
684.284	3986.88
684.474	3972.55
684.664	4036.03
684.854	3788.23
685.044	3935.68
685.234	3759.56
685.424	3900.87
685.614	3759.56
685.804	3683.78
685.994	3837.38
686.184	3790.28
686.374	3677.64
686.564	3655.11
686.753	3765.7
686.943	3659.21
687.133	3675.59
687.323	3800.52
687.513	3663.3
687.702	3612.1
687.892	3673.54
688.082	3554.76
688.272	3616.2
688.461	3677.64
688.651	3530.19
688.841	3571.15
689.03	3632.58
689.22	3616.2
689.41	3562.95
689.599	3489.23
689.789	3536.33
689.979	3565
690.168	3493.32
690.358	3503.56
690.547	3384.78
690.737	3630.54
690.926	3345.87
691.116	3392.97
691.305	3499.47
691.495	3536.33
691.684	3356.11
691.874	3478.99
692.063	3458.51
692.252	3317.2
692.442	3290.57
692.631	3413.45
692.82	3311.05
693.01	3362.25
693.199	3403.21
693.388	3405.26
693.578	3376.59
693.767	3251.66
693.956	3380.68
694.146	3251.66
694.335	3302.86
694.524	3278.29
694.713	3382.73
694.902	3259.85
695.092	3274.19
695.281	3134.93
695.47	3157.46
695.659	3216.85
695.848	3141.07
696.037	3222.99
696.226	3177.94
696.415	3284.43
696.604	3161.55
696.793	3112.4
696.982	3114.45
697.171	3208.66
697.36	3208.66
697.549	3069.39
697.738	3182.03
697.927	3091.92
698.116	3077.59
698.305	3229.13
698.494	3130.83
698.683	3235.28
698.872	3169.74
699.061	3147.22
699.25	3157.46
699.438	3214.8
699.627	3173.84
699.816	3110.35
700.005	3184.08
700.193	3122.64
700.382	3034.58
700.571	3108.3
700.76	3112.4
700.948	3073.49
701.137	3053.01
701.326	3124.69
701.514	3169.74
701.703	3091.92
701.892	3071.44
702.08	2979.28
702.269	2932.18
702.457	3096.02
702.646	3100.11
702.834	3036.63
703.023	3161.55
703.212	3036.63
703.4	3075.54
703.589	3136.98
703.777	3059.15
703.965	2983.38
704.154	3098.06
704.342	3010
704.531	2995.67
704.719	3073.49
704.907	3143.12
705.096	3028.43
705.284	3055.06
705.472	3036.63
705.661	2901.46
705.849	2895.32
706.037	3192.27
706.226	3130.83
706.414	2917.84
706.602	3040.72
706.79	3089.87
706.979	3018.19
707.167	3018.19
707.355	2926.04
707.543	3001.81
707.731	2979.28
707.919	3005.91
708.107	3071.44
708.296	3030.48
708.484	3024.34
708.672	2958.8
708.86	2930.13
709.048	3053.01
709.236	2948.56
709.424	2932.18
709.612	2905.56
709.8	2973.14
709.988	2946.52
710.176	2950.61
710.364	2983.38
710.551	3073.49
710.739	2883.03
710.927	2891.22
711.115	2921.94
711.303	2858.45
711.491	2915.8
711.679	2973.14
711.866	2948.56
712.054	2930.13
712.242	2883.03
712.43	3014.1
712.617	2846.16
712.805	2893.27
712.993	2919.89
713.181	2797.01
713.368	3032.53
713.556	3122.64
713.744	2981.33
713.931	2946.52
714.119	2977.23
714.306	2897.36
714.494	2987.47
714.682	2837.97
714.869	2923.99
715.057	2923.99
715.244	2784.73
715.432	2954.71
715.619	3040.72
715.807	2950.61
715.994	2897.36
716.182	3024.34
716.369	2889.17
716.556	2899.41
716.744	2809.3
716.931	2854.36
717.119	2885.08
717.306	2803.16
717.493	2889.17
717.681	2905.56
717.868	2905.56
718.055	2876.88
718.242	2893.27
718.43	2831.83
718.617	2883.03
718.804	2969.04
718.991	2866.64
719.179	2731.48
719.366	2745.81
719.553	2909.65
719.74	2966.99
719.927	2848.21
720.114	2889.17
720.301	2872.79
720.488	2837.97
720.676	2854.36
720.863	2811.35
721.05	2823.64
721.237	2846.16
721.424	2883.03
721.611	2813.4
721.798	2799.06
721.985	2790.87
722.172	2733.53
722.358	2821.59
722.545	2819.54
722.732	2713.05
722.919	2821.59
723.106	2772.44
723.293	2721.24
723.48	2784.73
723.667	2706.9
723.853	2856.4
724.04	2921.94
724.227	2594.26
724.414	2817.49
724.6	2719.19
724.787	2813.4
724.974	2774.49
725.161	2774.49
725.347	2721.24
725.534	2784.73
725.72	2727.38
725.907	2725.33
726.094	2706.9
726.28	2797.01
726.467	2719.19
726.653	2706.9
726.84	2776.53
727.027	2786.77
727.213	2684.38
727.4	2797.01
727.586	2729.43
727.773	2739.67
727.959	2803.16
728.145	2698.71
728.332	2731.48
728.518	2704.85
728.705	2686.42
728.891	2817.49
729.077	2766.29
729.264	2610.65
729.45	2672.09
729.636	2762.2
729.823	2651.61
730.009	2749.91
730.195	2698.71
730.382	2715.09
730.568	2557.4
730.754	2756.05
730.94	2493.91
731.126	2739.67
731.313	2602.46
731.499	2747.86
731.685	2635.22
731.871	2715.09
732.057	2694.61
732.243	2684.38
732.429	2725.33
732.615	2559.45
732.801	2667.99
732.987	2647.51
733.173	2604.5
733.359	2571.74
733.545	2592.22
733.731	2545.11
733.917	2629.08
734.103	2534.87
734.289	2676.18
734.475	2504.15
734.661	2624.98
734.847	2551.26
735.033	2592.22
735.219	2598.36
735.404	2600.41
735.59	2577.88
735.776	2598.36
735.962	2569.69
736.148	2678.23
736.333	2635.22
736.519	2667.99
736.705	2610.65
736.89	2487.77
737.076	2608.6
737.262	2647.51
737.447	2565.59
737.633	2524.63
737.819	2473.43
738.004	2387.42
738.19	2401.76
738.375	2440.67
738.561	2530.78
738.747	2508.25
738.932	2516.44
739.118	2586.07
739.303	2342.36
739.489	2450.91
739.674	2354.65
739.859	2446.81
740.045	2477.53
740.23	2424.28
740.416	2334.17
740.601	2448.86
740.786	2352.6
740.972	2356.7
741.157	2440.67
741.342	2344.41
741.528	2260.45
741.713	2323.93
741.898	2461.15
742.084	2375.13
742.269	2272.73
742.454	2342.36
742.639	2467.29
742.824	2282.97
743.01	2264.54
743.195	2328.03
743.38	2199.01
743.565	2311.64
743.75	2293.21
743.935	2172.38
744.12	2317.79
744.305	2207.2
744.49	2217.44
744.675	2151.9
744.86	2153.95
745.045	2178.53
745.23	2276.83
745.415	2168.29
745.6	2174.43
745.785	2168.29
745.97	2123.23
746.155	2065.89
746.34	2082.27
746.525	2192.86
746.71	2170.33
746.895	2096.61
747.079	2160.1
747.264	2088.42
747.449	2053.6
747.634	2018.79
747.819	1895.91
748.003	1981.92
748.188	1979.87
748.373	1961.44
748.557	1955.3
748.742	1988.07
748.927	1961.44
749.111	1971.68
749.296	1867.24
749.481	1940.96
749.665	1824.23
749.85	1953.25
750.034	1859.04
750.219	1908.19
750.404	1766.89
750.588	1816.04
750.773	1785.32
750.957	1742.31
751.141	1709.54
751.326	1717.73
751.51	1658.34
751.695	1744.36
751.879	1682.92
752.064	1816.04
752.248	1637.86
752.432	1775.08
752.617	1736.17
752.801	1744.36
752.985	1695.21
753.17	1635.82
753.354	1580.52
753.538	1670.63
753.722	1594.86
753.907	1621.48
754.091	1639.91
754.275	1545.7
754.459	1584.62
754.643	1703.4
754.828	1621.48
755.012	1510.89
755.196	1512.94
755.38	1521.13
755.564	1498.6
755.748	1545.7
755.932	1424.87
756.116	1541.61
756.3	1488.36
756.484	1439.21
756.668	1297.9
756.852	1410.54
757.036	1496.55
757.22	1422.83
757.404	1461.74
757.588	1418.73
757.772	1428.97
757.956	1355.24
758.14	1365.48
758.323	1312.24
758.507	1287.66
758.691	1316.33
758.875	1385.96
759.059	1308.14
759.242	1357.29
759.426	1279.47
759.61	1320.43
759.794	1156.59
759.977	1289.71
760.161	1365.48
760.345	1318.38
760.528	1263.08
760.712	1158.64
760.895	1275.37
761.079	1207.79
761.263	1168.88
761.446	1177.07
761.63	1146.35
761.813	1146.35
761.997	1201.65
762.18	1181.17
762.364	1240.56
762.547	1140.21
762.731	1224.17
762.914	1236.46
763.098	1064.43
763.281	1154.54
763.464	1121.77
763.648	1148.4
763.831	1164.78
764.015	1162.73
764.198	1150.45
764.381	1105.39
764.564	1162.73
764.748	1162.73
764.931	1099.25
765.114	1132.01
765.297	1191.41
765.481	1082.86
765.664	1107.44
765.847	1091.06
766.03	1080.82
766.213	1072.62
766.397	1009.14
766.58	1056.24
766.763	1035.76
766.946	1084.91
767.129	986.61
767.312	1000.94
767.495	1050.1
767.678	1019.38
767.861	970.23
768.044	1027.57
768.227	949.75
768.41	1015.28
768.593	966.13
768.776	959.99
768.959	1105.39
769.142	972.27
769.324	937.46
769.507	966.13
769.69	923.12
769.873	1029.62
770.056	976.37
770.239	929.27
770.421	941.55
770.604	878.07
770.787	906.74
770.97	947.7
771.152	828.92
771.335	912.88
771.518	939.51
771.7	912.88
771.883	873.97
772.066	880.11
772.248	892.4
772.431	988.66
772.613	884.21
772.796	880.11
772.978	894.45
773.161	939.51
773.343	943.6
773.526	828.92
773.708	837.11
773.891	837.11
774.073	779.76
774.256	828.92
774.438	859.63
774.621	839.16
774.803	814.58
774.985	747
775.168	820.72
775.35	808.44
775.532	720.37
775.715	757.24
775.897	794.1
776.079	738.8
776.261	790
776.444	771.57
776.626	730.61
776.808	773.62
776.99	751.09
777.173	790
777.355	712.18
777.537	720.37
777.719	693.75
777.901	630.26
778.083	742.9
778.265	663.03
778.447	644.6
778.629	728.56
778.811	615.93
778.993	675.32
779.175	730.61
779.357	595.45
779.539	599.54
779.721	701.94
779.903	665.08
780.085	587.26
780.267	658.93
780.449	697.85
780.631	681.46
780.812	753.14
780.994	620.02
781.176	572.92
781.358	605.69
781.54	642.55
781.721	685.56
781.903	638.45
782.085	613.88
782.267	609.78
782.448	536.06
782.63	464.38
782.812	550.39
782.993	568.82
783.175	601.59
783.357	515.58
783.538	542.2
783.72	577.02
783.901	544.25
784.083	607.73
784.264	622.07
784.446	511.48
784.627	429.56
784.809	550.39
784.99	538.1
785.172	527.86
785.353	495.1
785.535	415.23
785.716	517.62
785.897	476.66
786.079	484.86
786.26	534.01
786.441	486.9
786.623	529.91
786.804	486.9
786.985	501.24
787.167	480.76
787.348	472.57
787.529	409.08
787.71	538.1
787.891	525.82
788.073	353.79
788.254	402.94
788.435	450.04
788.616	433.66
788.797	392.7
788.978	378.36
789.159	468.47
789.34	497.14
789.522	417.27
789.703	345.59
789.884	388.6
790.065	396.79
790.246	390.65
790.427	415.23
790.607	386.55
790.788	507.38
790.969	421.37
791.15	384.51
791.331	402.94
791.512	419.32
791.693	316.92
791.874	429.56
792.054	368.12
792.235	370.17
792.416	341.5
792.597	339.45
792.778	357.88
792.958	388.6
793.139	396.79
793.32	390.65
793.5	314.88
793.681	396.79
793.862	370.17
794.042	300.54
794.223	335.35
794.404	384.51
794.584	245.24
794.765	337.4
794.945	366.07
795.126	376.31
795.306	316.92
795.487	341.5
795.667	325.12
795.848	314.88
796.028	284.16
796.209	296.44
796.389	357.88
796.57	357.88
796.75	284.16
796.93	366.07
797.111	208.38
797.291	237.05
797.471	292.35
797.652	247.29
797.832	228.86
798.012	312.83
798.192	200.19
798.373	181.76
798.553	290.3
798.733	210.43
798.913	292.35
799.093	339.45
799.274	314.88
799.454	292.35
799.634	337.4
799.814	241.15
799.994	396.79
800.174	241.15
800.354	284.16
800.534	237.05
800.714	235
800.894	265.72
801.074	210.43
801.254	304.64
801.434	265.72
801.614	216.57
801.794	261.63
801.974	663.03
802.154	235
802.334	255.48
802.514	208.38
802.693	253.44
802.873	224.76
803.053	261.63
803.233	267.77
803.413	241.15
803.592	210.43
803.772	177.66
803.952	200.19
804.131	235
804.311	185.85
804.491	210.43
804.67	148.99
804.85	214.52
805.03	280.06
805.209	247.29
805.389	218.62
805.568	243.2
805.748	163.33
805.928	214.52
806.107	200.19
806.287	173.57
806.466	192
806.646	284.16
806.825	224.76
807.004	228.86
807.184	265.72
807.363	212.48
807.543	222.72
807.722	226.81
807.901	187.9
808.081	267.77
808.26	181.76
808.439	214.52
808.619	167.42
808.798	206.33
808.977	99.84
809.156	216.57
809.336	173.57
809.515	183.81
809.694	183.81
809.873	196.09
810.052	194.05
810.231	245.24
810.411	204.28
810.59	167.42
810.769	173.57
810.948	151.04
811.127	189.95
811.306	220.67
811.485	122.37
811.664	165.37
811.843	136.7
812.022	196.09
812.201	132.61
812.38	192
812.559	112.13
812.737	157.18
812.916	132.61
813.095	159.23
813.274	108.03
813.453	151.04
813.632	173.57
813.811	124.41
813.989	210.43
814.168	136.7
814.347	101.89
814.526	140.8
814.704	173.57
814.883	202.24
815.062	52.74
815.24	196.09
815.419	126.46
815.598	138.75
815.776	239.1
815.955	237.05
816.133	165.37
816.312	122.37
816.49	171.52
816.669	112.13
816.847	120.32
817.026	144.89
817.204	138.75
817.383	146.94
817.561	157.18
817.74	126.46
817.918	73.21
818.097	77.31
818.275	136.7
818.453	116.22
818.632	79.36
818.81	159.23
818.988	99.84
819.167	173.57
819.345	216.57
819.523	151.04
819.701	103.93
819.879	89.6
820.058	89.6
820.236	138.75
820.414	126.46
820.592	136.7
820.77	116.22
820.948	67.07
821.127	140.8
821.305	79.36
821.483	93.69
821.661	159.23
821.839	91.65
822.017	151.04
822.195	151.04
822.373	144.89
822.551	71.17
822.729	161.28
822.907	146.94
823.085	151.04
823.262	161.28
823.44	77.31
823.618	69.12
823.796	122.37
823.974	81.41
824.152	99.84
824.329	157.18
824.507	42.5
824.685	124.41
824.863	62.98
825.04	140.8
825.218	142.85
825.396	65.02
825.574	48.64
825.751	85.5
825.929	101.89
826.107	110.08
826.284	105.98
826.462	120.32
826.639	89.6
826.817	52.74
826.994	42.5
827.172	44.54
827.349	173.57
827.527	15.87
827.704	97.79
827.882	110.08
828.059	77.31
828.237	65.02
828.414	85.5
828.591	54.78
828.769	89.6
828.946	77.31
829.124	142.85
829.301	120.32
829.478	60.93
829.655	62.98
829.833	112.13
830.01	83.45
830.187	161.28
830.364	130.56
830.542	62.98
830.719	58.88
830.896	110.08
831.073	87.55
831.25	17.92
831.427	108.03
831.604	71.17
831.782	75.26
831.959	167.42
832.136	91.65
832.313	36.35
832.49	13.82
832.667	62.98
832.844	24.06
833.021	73.21
833.198	124.41
833.374	128.51
833.551	79.36
833.728	46.59
833.905	128.51
834.082	77.31
834.259	89.6
834.436	108.03
834.612	71.17
834.789	79.36
834.966	130.56
835.143	112.13
835.319	97.79
835.496	105.98
835.673	99.84
835.85	112.13
836.026	89.6
836.203	75.26
836.38	71.17
836.556	85.5
836.733	15.87
836.909	95.74
837.086	118.27
837.262	77.31
837.439	46.59
837.616	85.5
837.792	105.98
837.968	93.69
838.145	30.21
838.321	3.58
838.498	60.93
838.674	50.69
838.851	75.26
839.027	81.41
839.203	52.74
839.38	48.64
839.556	62.98
839.732	56.83
839.909	38.4
840.085	77.31
840.261	-10.75
840.437	71.17
840.614	71.17
840.79	11.78
840.966	144.89
841.142	58.88
841.318	15.87
841.494	79.36
841.671	52.74
841.847	75.26
842.023	30.21
842.199	60.93
842.375	22.02
842.551	56.83
842.727	7.68
842.903	48.64
843.079	140.8
843.255	58.88
843.431	5.63
843.607	114.17
843.783	73.21
843.959	97.79
844.134	87.55
844.31	112.13
844.486	46.59
844.662	130.56
844.838	85.5
845.013	38.4
845.189	58.88
845.365	-12.8
845.541	15.87
845.716	3.58
845.892	81.41
846.068	67.07
846.244	40.45
846.419	99.84
846.595	9.73
846.77	60.93
846.946	5.63
847.122	89.6
847.297	44.54
847.473	67.07
847.648	54.78
847.824	65.02
847.999	73.21
848.175	40.45
848.35	36.35
848.526	71.17
848.701	89.6
848.876	9.73
849.052	54.78
849.227	105.98
849.403	-14.85
849.578	26.11
849.753	22.02
849.929	103.93
850.104	58.88
850.279	9.73
850.454	-14.85
850.63	60.93
850.805	-2.56
850.98	36.35
851.155	24.06
851.33	1.54
851.505	65.02
851.681	-4.61
851.856	85.5
852.031	-27.14
852.206	101.89
852.381	103.93
852.556	36.35
852.731	79.36
852.906	7.68
853.081	44.54
853.256	97.79
853.431	50.69
853.606	-39.42
853.781	79.36
853.956	38.4
854.131	50.69
854.305	-0.51
854.48	-16.9
854.655	-43.52
854.83	54.78
855.005	-37.38
855.18	26.11
855.354	-6.66
855.529	-12.8
855.704	22.02
855.879	46.59
856.053	50.69
856.228	97.79
856.403	3.58
856.577	3.58
856.752	-31.23
856.926	69.12
857.101	71.17
857.276	87.55
857.45	-10.75
857.625	46.59
857.799	42.5
857.974	-14.85
858.148	3.58
858.323	-18.94
858.497	28.16
858.672	19.97
858.846	28.16
859.02	77.31
859.195	-29.18
859.369	77.31
859.543	58.88
859.718	7.68
859.892	69.12
860.066	83.45
860.241	65.02
860.415	15.87
860.589	-4.61
860.763	65.02
860.938	5.63
861.112	38.4
861.286	3.58
861.46	99.84
861.634	-31.23
861.808	9.73
861.982	56.83
862.157	5.63
862.331	7.68
862.505	9.73
862.679	28.16
862.853	-27.14
863.027	50.69
863.201	44.54
863.375	75.26
863.549	-6.66
863.722	65.02
863.896	46.59
864.07	30.21
864.244	103.93
864.418	124.41
864.592	114.17
864.766	-0.51
864.939	46.59
865.113	-6.66
865.287	32.26
865.461	15.87
865.634	73.21
865.808	-23.04
865.982	24.06
866.156	-35.33
866.329	9.73
866.503	-35.33
866.676	62.98
866.85	42.5
867.024	30.21
867.197	-41.47
867.371	42.5
867.544	34.3
867.718	-6.66
867.891	83.45
868.065	-8.7
868.238	-76.29
868.412	-6.66
868.585	17.92
868.759	19.97
868.932	-6.66
869.105	15.87
869.279	5.63
869.452	7.68
869.625	83.45
869.799	-8.7
869.972	24.06
870.145	40.45
870.319	-27.14
870.492	11.78
870.665	-37.38
870.838	-53.76
871.011	9.73
871.185	28.16
871.358	11.78
871.531	-14.85
871.704	13.82
871.877	95.74
872.05	-2.56
872.223	15.87
872.396	-20.99
872.569	58.88
872.742	-59.9
872.915	58.88
873.088	-29.18
873.261	83.45
873.434	87.55
873.607	-37.38
873.78	42.5
873.953	-0.51
874.126	17.92
874.299	24.06
874.471	22.02
874.644	-18.94
874.817	-27.14
874.99	48.64
875.163	5.63
875.335	-4.61
875.508	-23.04
875.681	79.36
875.853	-6.66
876.026	19.97
876.199	-47.62
876.371	73.21
876.544	5.63
876.717	85.5
876.889	77.31
877.062	50.69
877.234	38.4
877.407	-47.62
877.579	-25.09
877.752	65.02
877.924	-0.51
878.097	11.78
878.269	67.07
878.442	-29.18
878.614	-18.94
878.786	46.59
878.959	-14.85
879.131	24.06
879.303	1.54
879.476	62.98
879.648	1.54
879.82	28.16
879.993	1.54
880.165	42.5
880.337	40.45
880.509	-2.56
880.681	-12.8
880.854	-4.61
881.026	19.97
881.198	60.93
881.37	-10.75
881.542	-16.9
881.714	-41.47
881.886	67.07
882.058	-39.42
882.23	19.97
882.402	13.82
882.574	7.68
882.746	69.12
882.918	13.82
883.09	58.88
883.262	-80.38
883.434	-2.56
883.606	-23.04
883.778	56.83
883.95	73.21
884.122	34.3
884.293	60.93
884.465	-31.23
884.637	58.88
884.809	-41.47
884.98	-51.71
885.152	9.73
885.324	89.6
885.496	-10.75
885.667	1.54
885.839	11.78
886.011	81.41
886.182	-2.56
886.354	46.59
886.525	-4.61
886.697	-35.33
886.869	-0.51
887.04	-8.7
887.212	-4.61
887.383	81.41
887.555	69.12
887.726	-31.23
887.897	-25.09
888.069	5.63
888.24	-10.75
888.412	7.68
888.583	40.45
888.754	9.73
888.926	-45.57
889.097	15.87
889.268	15.87
889.44	1.54
889.611	24.06
889.782	36.35
889.953	-14.85
890.125	48.64
890.296	-12.8
890.467	-45.57
890.638	7.68
890.809	-41.47
890.98	-23.04
891.151	1.54
891.323	44.54
891.494	34.3
891.665	-31.23
891.836	60.93
892.007	7.68
892.178	-33.28
892.349	9.73
892.52	-49.66
892.691	-37.38
892.862	9.73
893.032	22.02
893.203	-12.8
893.374	11.78
893.545	73.21
893.716	-33.28
893.887	-43.52
894.057	-20.99
894.228	-25.09
894.399	-20.99
894.57	54.78
894.74	13.82
894.911	58.88
895.082	-29.18
895.253	-33.28
895.423	-57.86
895.594	3.58
895.764	-14.85
895.935	46.59
896.106	-39.42
896.276	5.63
896.447	-43.52
896.617	32.26
896.788	19.97
896.958	-10.75
897.129	3.58
897.299	15.87
897.47	32.26
897.64	-0.51
897.81	38.4
897.981	26.11
898.151	11.78
898.322	-6.66
898.492	17.92
898.662	15.87
898.832	7.68
899.003	-29.18
899.173	5.63
899.343	-31.23
899.513	-6.66
