Data from USB4F104151__98__11-53-02-478.txt Node

Date: Fri Mar 14 11:53:02 EDT 2025
User: louis
Spectrometer: USB4F10415
Trigger mode: 4
Integration Time (sec): 2.000000E-2
Scans to average: 1
Electric dark correction enabled: true
Nonlinearity correction enabled: false
Boxcar width: 0
XAxis mode: Wavelengths
Number of Pixels in Spectrum: 3648
>>>>>Begin Spectral Data<<<<<
178.204	-0.34
178.424	-0.34
178.644	-0.34
178.864	-80.21
179.084	-117.08
179.304	-49.49
179.524	97.96
179.744	-6.49
179.964	3.75
180.184	59.05
180.404	-24.92
180.624	-0.34
180.844	-0.34
181.064	-2.39
181.283	-47.44
181.503	-6.49
181.723	-22.87
181.943	-10.58
182.163	83.63
182.383	69.29
182.602	81.58
182.822	40.62
183.042	20.14
183.262	-6.49
183.482	69.29
183.701	65.19
183.921	-35.16
184.141	-33.11
184.361	13.99
184.58	54.95
184.8	30.38
185.02	3.75
185.239	40.62
185.459	50.86
185.679	32.43
185.898	-55.64
186.118	79.53
186.338	59.05
186.557	54.95
186.777	-0.34
186.997	34.47
187.216	30.38
187.436	89.77
187.655	-10.58
187.875	7.85
188.095	9.9
188.314	36.52
188.534	97.96
188.753	48.81
188.973	38.57
189.192	30.38
189.412	112.3
189.631	106.15
189.851	67.24
190.07	126.63
190.29	-16.73
190.509	-8.53
190.729	9.9
190.948	97.96
191.168	126.63
191.387	30.38
191.607	13.99
191.826	9.9
192.045	16.04
192.265	3.75
192.484	28.33
192.704	-20.82
192.923	34.47
193.142	106.15
193.362	20.14
193.581	38.57
193.8	52.91
194.02	116.39
194.239	22.19
194.458	59.05
194.678	30.38
194.897	-0.34
195.116	46.76
195.335	46.76
195.555	61.1
195.774	61.1
195.993	46.76
196.212	-4.44
196.432	20.14
196.651	-8.53
196.87	9.9
197.089	54.95
197.308	-18.77
197.528	-35.16
197.747	44.71
197.966	-4.44
198.185	42.67
198.404	16.04
198.623	40.62
198.842	22.19
199.062	124.58
199.281	85.67
199.5	-10.58
199.719	30.38
199.938	32.43
200.157	104.11
200.376	52.91
200.595	97.96
200.814	1.71
201.033	-33.11
201.252	7.85
201.471	3.75
201.69	57
201.909	69.29
202.128	79.53
202.347	61.1
202.566	-35.16
202.785	67.24
203.004	-26.96
203.223	71.34
203.442	-37.2
203.661	63.15
203.879	59.05
204.098	130.73
204.317	18.09
204.536	52.91
204.755	108.2
204.974	93.87
205.193	38.57
205.411	104.11
205.63	-26.96
205.849	48.81
206.068	44.71
206.287	-6.49
206.505	91.82
206.724	3.75
206.943	50.86
207.162	16.04
207.381	11.95
207.599	67.24
207.818	54.95
208.037	24.23
208.255	22.19
208.474	34.47
208.693	34.47
208.911	83.63
209.13	52.91
209.349	106.15
209.567	5.8
209.786	130.73
210.005	59.05
210.223	-31.06
210.442	-6.49
210.661	48.81
210.879	3.75
211.098	61.1
211.316	46.76
211.535	138.92
211.753	40.62
211.972	114.34
212.191	5.8
212.409	24.23
212.628	81.58
212.846	34.47
213.065	36.52
213.283	38.57
213.502	34.47
213.72	102.06
213.938	20.14
214.157	-10.58
214.375	28.33
214.594	75.43
214.812	52.91
215.031	34.47
215.249	65.19
215.467	77.48
215.686	28.33
215.904	36.52
216.122	46.76
216.341	110.25
216.559	-35.16
216.778	32.43
216.996	26.28
217.214	16.04
217.432	-4.44
217.651	40.62
217.869	22.19
218.087	32.43
218.306	7.85
218.524	52.91
218.742	16.04
218.96	48.81
219.179	-16.73
219.397	-26.96
219.615	81.58
219.833	38.57
220.051	-12.63
220.27	16.04
220.488	61.1
220.706	-20.82
220.924	24.23
221.142	11.95
221.36	20.14
221.578	42.67
221.796	11.95
222.015	83.63
222.233	34.47
222.451	83.63
222.669	7.85
222.887	-2.39
223.105	9.9
223.323	22.19
223.541	46.76
223.759	-0.34
223.977	34.47
224.195	89.77
224.413	83.63
224.631	-2.39
224.849	50.86
225.067	73.39
225.285	26.28
225.503	36.52
225.721	32.43
225.939	22.19
226.157	69.29
226.375	42.67
226.592	52.91
226.81	114.34
227.028	-8.53
227.246	50.86
227.464	89.77
227.682	32.43
227.9	75.43
228.117	13.99
228.335	3.75
228.553	16.04
228.771	85.67
228.989	50.86
229.206	20.14
229.424	-20.82
229.642	-53.59
229.86	38.57
230.077	118.44
230.295	3.75
230.513	11.95
230.731	63.15
230.948	38.57
231.166	132.78
231.384	-35.16
231.601	-6.49
231.819	40.62
232.037	48.81
232.254	36.52
232.472	22.19
232.689	30.38
232.907	30.38
233.125	36.52
233.342	20.14
233.56	28.33
233.777	40.62
233.995	-4.44
234.213	5.8
234.43	16.04
234.648	13.99
234.865	69.29
235.083	91.82
235.3	-10.58
235.518	57
235.735	75.43
235.953	46.76
236.17	102.06
236.388	20.14
236.605	16.04
236.822	93.87
237.04	1.71
237.257	-20.82
237.475	71.34
237.692	3.75
237.909	65.19
238.127	32.43
238.344	91.82
238.562	48.81
238.779	26.28
238.996	22.19
239.214	97.96
239.431	59.05
239.648	7.85
239.865	22.19
240.083	24.23
240.3	65.19
240.517	26.28
240.735	22.19
240.952	59.05
241.169	57
241.386	24.23
241.603	26.28
241.821	40.62
242.038	63.15
242.255	48.81
242.472	5.8
242.689	9.9
242.907	5.8
243.124	-22.87
243.341	30.38
243.558	69.29
243.775	-18.77
243.992	-12.63
244.209	-0.34
244.426	114.34
244.643	52.91
244.86	-12.63
245.078	59.05
245.295	-0.34
245.512	-6.49
245.729	59.05
245.946	30.38
246.163	50.86
246.38	91.82
246.597	24.23
246.814	57
247.031	3.75
247.248	89.77
247.464	-61.78
247.681	44.71
247.898	61.1
248.115	75.43
248.332	-16.73
248.549	63.15
248.766	38.57
248.983	46.76
249.2	-12.63
249.417	28.33
249.633	13.99
249.85	20.14
250.067	73.39
250.284	-12.63
250.501	77.48
250.717	81.58
250.934	-8.53
251.151	18.09
251.368	20.14
251.585	79.53
251.801	32.43
252.018	59.05
252.235	106.15
252.451	48.81
252.668	42.67
252.885	16.04
253.102	83.63
253.318	149.16
253.535	38.57
253.752	24.23
253.968	48.81
254.185	1.71
254.401	50.86
254.618	38.57
254.835	26.28
255.051	9.9
255.268	87.72
255.484	46.76
255.701	3.75
255.917	13.99
256.134	36.52
256.351	79.53
256.567	7.85
256.784	-12.63
257	1.71
257.217	46.76
257.433	30.38
257.65	18.09
257.866	24.23
258.082	-43.35
258.299	26.28
258.515	-18.77
258.732	36.52
258.948	32.43
259.165	36.52
259.381	65.19
259.597	34.47
259.814	54.95
260.03	59.05
260.246	46.76
260.463	-8.53
260.679	69.29
260.895	85.67
261.112	24.23
261.328	-14.68
261.544	67.24
261.761	79.53
261.977	18.09
262.193	75.43
262.409	48.81
262.626	18.09
262.842	20.14
263.058	13.99
263.274	100.01
263.49	36.52
263.707	-4.44
263.923	67.24
264.139	-0.34
264.355	-39.25
264.571	83.63
264.787	83.63
265.004	-6.49
265.22	9.9
265.436	38.57
265.652	-35.16
265.868	30.38
266.084	11.95
266.3	38.57
266.516	13.99
266.732	-18.77
266.948	22.19
267.164	30.38
267.38	67.24
267.596	26.28
267.812	87.72
268.028	69.29
268.244	-24.92
268.46	30.38
268.676	-0.34
268.892	52.91
269.108	24.23
269.324	110.25
269.54	26.28
269.756	48.81
269.972	71.34
270.188	-10.58
270.403	50.86
270.619	73.39
270.835	40.62
271.051	20.14
271.267	20.14
271.483	46.76
271.698	-12.63
271.914	42.67
272.13	-4.44
272.346	97.96
272.562	69.29
272.777	112.3
272.993	5.8
273.209	11.95
273.425	59.05
273.64	54.95
273.856	50.86
274.072	75.43
274.287	59.05
274.503	-0.34
274.719	77.48
274.934	24.23
275.15	5.8
275.366	38.57
275.581	18.09
275.797	61.1
276.012	7.85
276.228	9.9
276.444	59.05
276.659	-18.77
276.875	24.23
277.09	34.47
277.306	44.71
277.521	-10.58
277.737	-24.92
277.952	81.58
278.168	54.95
278.383	1.71
278.599	-26.96
278.814	48.81
279.03	5.8
279.245	38.57
279.461	-0.34
279.676	91.82
279.892	67.24
280.107	22.19
280.322	40.62
280.538	65.19
280.753	-0.34
280.969	30.38
281.184	48.81
281.399	118.44
281.615	69.29
281.83	28.33
282.045	59.05
282.26	30.38
282.476	75.43
282.691	46.76
282.906	65.19
283.122	-2.39
283.337	85.67
283.552	112.3
283.767	9.9
283.983	52.91
284.198	32.43
284.413	54.95
284.628	-29.01
284.843	5.8
285.058	52.91
285.274	108.2
285.489	57
285.704	9.9
285.919	77.48
286.134	30.38
286.349	75.43
286.564	9.9
286.779	46.76
286.995	28.33
287.21	3.75
287.425	79.53
287.64	-0.34
287.855	-0.34
288.07	-4.44
288.285	73.39
288.5	32.43
288.715	7.85
288.93	42.67
289.145	5.8
289.36	11.95
289.575	61.1
289.79	26.28
290.004	-10.58
290.219	87.72
290.434	34.47
290.649	13.99
290.864	54.95
291.079	-0.34
291.294	67.24
291.509	48.81
291.724	-10.58
291.938	-14.68
292.153	24.23
292.368	32.43
292.583	7.85
292.798	102.06
293.012	100.01
293.227	-45.4
293.442	-18.77
293.657	42.67
293.871	44.71
294.086	63.15
294.301	36.52
294.516	61.1
294.73	50.86
294.945	28.33
295.16	26.28
295.374	26.28
295.589	42.67
295.804	52.91
296.018	83.63
296.233	71.34
296.447	46.76
296.662	81.58
296.877	65.19
297.091	-14.68
297.306	93.87
297.52	34.47
297.735	42.67
297.949	40.62
298.164	71.34
298.378	7.85
298.593	18.09
298.807	11.95
299.022	-14.68
299.236	61.1
299.451	61.1
299.665	48.81
299.88	24.23
300.094	50.86
300.309	-10.58
300.523	11.95
300.737	61.1
300.952	1.71
301.166	102.06
301.381	-0.34
301.595	116.39
301.809	-0.34
302.024	3.75
302.238	-35.16
302.452	65.19
302.667	61.1
302.881	126.63
303.095	46.76
303.309	32.43
303.524	22.19
303.738	69.29
303.952	3.75
304.166	-4.44
304.381	-10.58
304.595	79.53
304.809	44.71
305.023	22.19
305.237	26.28
305.452	63.15
305.666	122.54
305.88	-49.49
306.094	44.71
306.308	54.95
306.522	46.76
306.736	1.71
306.95	46.76
307.164	61.1
307.379	-8.53
307.593	44.71
307.807	73.39
308.021	18.09
308.235	5.8
308.449	-12.63
308.663	5.8
308.877	95.91
309.091	44.71
309.305	13.99
309.519	-8.53
309.733	61.1
309.947	-61.78
310.161	63.15
310.374	50.86
310.588	122.54
310.802	28.33
311.016	42.67
311.23	128.68
311.444	63.15
311.658	-2.39
311.872	91.82
312.085	54.95
312.299	77.48
312.513	73.39
312.727	110.25
312.941	-8.53
313.154	3.75
313.368	71.34
313.582	-4.44
313.796	91.82
314.009	65.19
314.223	59.05
314.437	102.06
314.651	48.81
314.864	-0.34
315.078	-2.39
315.292	-16.73
315.505	-24.92
315.719	42.67
315.933	3.75
316.146	89.77
316.36	-33.11
316.573	93.87
316.787	28.33
317.001	40.62
317.214	48.81
317.428	42.67
317.641	52.91
317.855	52.91
318.068	106.15
318.282	87.72
318.495	44.71
318.709	28.33
318.922	102.06
319.136	46.76
319.349	67.24
319.563	108.2
319.776	36.52
319.99	30.38
320.203	50.86
320.417	50.86
320.63	71.34
320.843	40.62
321.057	36.52
321.27	11.95
321.483	149.16
321.697	67.24
321.91	44.71
322.124	79.53
322.337	-31.06
322.55	77.48
322.763	46.76
322.977	30.38
323.19	36.52
323.403	32.43
323.617	46.76
323.83	46.76
324.043	40.62
324.256	48.81
324.469	-4.44
324.683	13.99
324.896	40.62
325.109	59.05
325.322	108.2
325.535	59.05
325.748	134.82
325.962	71.34
326.175	22.19
326.388	42.67
326.601	28.33
326.814	59.05
327.027	46.76
327.24	57
327.453	36.52
327.666	16.04
327.879	16.04
328.092	54.95
328.305	-16.73
328.518	-20.82
328.731	-0.34
328.944	91.82
329.157	89.77
329.37	100.01
329.583	73.39
329.796	130.73
330.009	13.99
330.222	22.19
330.435	42.67
330.648	20.14
330.861	46.76
331.073	44.71
331.286	87.72
331.499	-20.82
331.712	48.81
331.925	48.81
332.138	44.71
332.35	50.86
332.563	-2.39
332.776	24.23
332.989	-20.82
333.202	26.28
333.414	16.04
333.627	61.1
333.84	87.72
334.053	67.24
334.265	52.91
334.478	73.39
334.691	40.62
334.903	-37.2
335.116	16.04
335.329	-22.87
335.541	-8.53
335.754	77.48
335.966	28.33
336.179	79.53
336.392	40.62
336.604	50.86
336.817	36.52
337.029	18.09
337.242	-37.2
337.454	126.63
337.667	-18.77
337.88	65.19
338.092	71.34
338.305	18.09
338.517	-18.77
338.729	77.48
338.942	3.75
339.154	77.48
339.367	-29.01
339.579	28.33
339.792	81.58
340.004	36.52
340.217	34.47
340.429	18.09
340.641	-4.44
340.854	34.47
341.066	57
341.278	-26.96
341.491	87.72
341.703	114.34
341.915	57
342.128	48.81
342.34	20.14
342.552	22.19
342.764	57
342.977	48.81
343.189	67.24
343.401	-2.39
343.613	54.95
343.826	36.52
344.038	28.33
344.25	83.63
344.462	46.76
344.674	132.78
344.886	81.58
345.099	89.77
345.311	32.43
345.523	67.24
345.735	-12.63
345.947	1.71
346.159	79.53
346.371	54.95
346.583	63.15
346.795	140.97
347.007	24.23
347.219	32.43
347.431	-12.63
347.643	30.38
347.855	-0.34
348.067	50.86
348.279	91.82
348.491	110.25
348.703	61.1
348.915	5.8
349.127	-22.87
349.339	95.91
349.551	-33.11
349.763	50.86
349.975	40.62
350.187	54.95
350.399	61.1
350.61	3.75
350.822	48.81
351.034	59.05
351.246	13.99
351.458	16.04
351.669	65.19
351.881	79.53
352.093	26.28
352.305	87.72
352.517	59.05
352.728	54.95
352.94	69.29
353.152	122.54
353.363	9.9
353.575	75.43
353.787	63.15
353.999	93.87
354.21	28.33
354.422	57
354.633	54.95
354.845	36.52
355.057	124.58
355.268	13.99
355.48	-39.25
355.692	-20.82
355.903	116.39
356.115	38.57
356.326	-16.73
356.538	50.86
356.749	73.39
356.961	57
357.172	28.33
357.384	42.67
357.595	11.95
357.807	28.33
358.018	5.8
358.23	-2.39
358.441	48.81
358.653	89.77
358.864	1.71
359.075	34.47
359.287	-26.96
359.498	102.06
359.709	3.75
359.921	18.09
360.132	59.05
360.344	22.19
360.555	16.04
360.766	26.28
360.977	71.34
361.189	57
361.4	28.33
361.611	67.24
361.823	130.73
362.034	108.2
362.245	16.04
362.456	40.62
362.667	65.19
362.879	89.77
363.09	44.71
363.301	95.91
363.512	102.06
363.723	5.8
363.935	63.15
364.146	65.19
364.357	85.67
364.568	30.38
364.779	-8.53
364.99	16.04
365.201	-8.53
365.412	79.53
365.623	42.67
365.834	32.43
366.045	48.81
366.256	50.86
366.467	65.19
366.678	26.28
366.889	65.19
367.1	30.38
367.311	44.71
367.522	40.62
367.733	59.05
367.944	97.96
368.155	38.57
368.366	54.95
368.577	79.53
368.788	79.53
368.999	65.19
369.209	46.76
369.42	112.3
369.631	85.67
369.842	69.29
370.053	-24.92
370.264	108.2
370.474	81.58
370.685	1.71
370.896	110.25
371.107	50.86
371.317	85.67
371.528	-2.39
371.739	124.58
371.95	71.34
372.16	16.04
372.371	36.52
372.582	50.86
372.792	122.54
373.003	89.77
373.214	-22.87
373.424	54.95
373.635	95.91
373.846	52.91
374.056	59.05
374.267	13.99
374.477	-10.58
374.688	36.52
374.898	63.15
375.109	46.76
375.319	36.52
375.53	130.73
375.74	-16.73
375.951	48.81
376.161	75.43
376.372	89.77
376.582	-10.58
376.793	130.73
377.003	77.48
377.214	38.57
377.424	3.75
377.635	71.34
377.845	-33.11
378.055	77.48
378.266	54.95
378.476	42.67
378.686	71.34
378.897	85.67
379.107	-12.63
379.317	116.39
379.528	46.76
379.738	108.2
379.948	5.8
380.158	63.15
380.369	67.24
380.579	36.52
380.789	65.19
380.999	42.67
381.21	77.48
381.42	75.43
381.63	16.04
381.84	57
382.05	28.33
382.261	124.58
382.471	-6.49
382.681	13.99
382.891	50.86
383.101	38.57
383.311	13.99
383.521	28.33
383.731	118.44
383.941	44.71
384.151	11.95
384.361	126.63
384.571	61.1
384.781	124.58
384.991	95.91
385.201	81.58
385.411	59.05
385.621	85.67
385.831	79.53
386.041	81.58
386.251	5.8
386.461	71.34
386.671	24.23
386.881	93.87
387.091	126.63
387.301	13.99
387.511	16.04
387.72	65.19
387.93	18.09
388.14	13.99
388.35	5.8
388.56	85.67
388.769	44.71
388.979	69.29
389.189	-14.68
389.399	42.67
389.609	116.39
389.818	57
390.028	32.43
390.238	48.81
390.447	106.15
390.657	65.19
390.867	79.53
391.076	36.52
391.286	61.1
391.496	69.29
391.705	50.86
391.915	91.82
392.125	120.49
392.334	-12.63
392.544	97.96
392.753	83.63
392.963	1.71
393.172	46.76
393.382	1.71
393.591	106.15
393.801	81.58
394.01	149.16
394.22	93.87
394.429	79.53
394.639	46.76
394.848	83.63
395.058	77.48
395.267	22.19
395.477	73.39
395.686	122.54
395.895	128.68
396.105	93.87
396.314	120.49
396.524	110.25
396.733	67.24
396.942	50.86
397.152	112.3
397.361	100.01
397.57	93.87
397.78	57
397.989	85.67
398.198	126.63
398.407	91.82
398.617	210.6
398.826	79.53
399.035	65.19
399.244	93.87
399.453	54.95
399.663	102.06
399.872	46.76
400.081	97.96
400.29	73.39
400.499	77.48
400.708	145.06
400.917	167.59
401.127	5.8
401.336	28.33
401.545	132.78
401.754	81.58
401.963	124.58
402.172	91.82
402.381	89.77
402.59	126.63
402.799	157.35
403.008	204.46
403.217	128.68
403.426	155.3
403.635	69.29
403.844	136.87
404.053	30.38
404.262	81.58
404.471	159.4
404.68	108.2
404.888	214.7
405.097	126.63
405.306	73.39
405.515	145.06
405.724	120.49
405.933	138.92
406.142	122.54
406.35	206.5
406.559	245.41
406.768	108.2
406.977	183.98
407.185	163.5
407.394	136.87
407.603	192.17
407.812	183.98
408.02	95.91
408.229	157.35
408.438	147.11
408.646	169.64
408.855	204.46
409.064	214.7
409.272	138.92
409.481	222.89
409.69	208.55
409.898	233.13
410.107	202.41
410.315	261.8
410.524	157.35
410.733	212.65
410.941	159.4
411.15	300.71
411.358	265.89
411.567	319.14
411.775	290.47
411.984	222.89
412.192	317.09
412.401	280.23
412.609	353.96
412.818	317.09
413.026	374.44
413.234	423.59
413.443	358.05
413.651	376.48
413.86	368.29
414.068	444.07
414.276	452.26
414.485	458.4
414.693	474.79
414.901	435.88
415.11	542.37
415.318	450.21
415.526	489.12
415.734	556.71
415.943	487.08
416.151	616.1
416.359	509.6
416.567	632.48
416.776	655.01
416.984	636.58
417.192	700.06
417.4	714.4
417.608	708.26
417.817	831.13
418.025	757.41
418.233	820.89
418.441	839.33
418.649	857.76
418.857	831.13
419.065	974.49
419.273	966.3
419.481	947.87
419.689	1056.41
419.897	1025.69
420.105	997.02
420.313	1162.9
420.521	1140.38
420.729	1074.84
420.937	1150.62
421.145	1179.29
421.353	1322.65
421.561	1265.3
421.769	1410.71
421.977	1466
422.185	1404.57
422.393	1494.68
422.601	1547.92
422.809	1676.95
423.017	1715.86
423.224	1554.07
423.432	1715.86
423.64	1672.85
423.848	1943.18
424.056	1832.59
424.263	1961.61
424.471	1910.41
424.679	1973.9
424.887	2172.55
425.094	2160.27
425.302	2205.32
425.51	2262.66
425.718	2242.18
425.925	2338.44
426.133	2356.87
426.341	2571.91
426.548	2762.37
426.756	2776.7
426.964	2764.42
427.171	2856.58
427.379	2920.06
427.586	2942.59
427.794	3114.62
428.001	3264.12
428.209	3395.19
428.417	3399.29
428.624	3604.08
428.832	3579.51
429.039	3536.5
429.247	3556.98
429.454	3827.31
429.662	4122.22
429.869	3868.27
430.076	4181.61
430.284	4028.01
430.491	4181.61
430.699	4535.91
430.906	4482.66
431.114	4451.94
431.321	4488.81
431.528	4777.57
431.736	4963.93
431.943	5269.08
432.15	5068.38
432.358	5332.57
432.565	5512.79
432.772	5414.49
432.979	5797.46
433.187	5764.69
433.394	5922.38
433.601	6215.24
433.808	6497.86
434.016	6331.98
434.223	6651.46
434.43	6913.6
434.637	6905.41
434.844	7286.33
435.052	7353.91
435.259	7110.21
435.466	7390.78
435.673	7364.15
435.88	7767.6
436.087	8173.1
436.294	8181.29
436.501	8005.17
436.708	7994.93
436.915	8558.12
437.122	8793.64
437.329	8961.57
437.537	9227.81
437.743	9348.64
437.95	9262.62
438.157	9504.28
438.364	9741.85
438.571	9856.53
438.778	10079.76
438.985	11017.73
439.192	10368.52
439.399	10966.53
439.606	10501.64
439.813	11417.08
440.02	11789.81
440.227	11542.01
440.433	11585.02
440.64	12043.76
440.847	11836.92
441.054	12156.4
441.261	13018.6
441.467	12811.75
441.674	13100.51
441.881	13434.33
442.088	13389.28
442.294	13460.96
442.501	13624.79
442.708	14104.02
442.914	14489.04
443.121	15162.82
443.328	14880.2
443.534	15809.98
443.741	15513.02
443.948	15269.31
444.154	16160.18
444.361	16004.53
444.568	16162.23
444.774	16207.28
444.981	16432.56
445.187	16768.43
445.394	17659.29
445.6	17380.77
445.807	19232.13
446.013	18437.52
446.22	18611.6
446.426	19416.45
446.633	19574.14
446.839	20153.72
447.046	19867
447.252	20227.45
447.459	20516.21
447.665	20409.72
447.871	21249.38
448.078	22087
448.284	21286.25
448.491	21570.91
448.697	22650.19
448.903	23090.51
449.11	23170.38
449.316	22902.09
449.522	23123.27
449.728	23713.09
449.935	23874.88
450.141	24003.9
450.347	24716.59
450.553	23541.06
450.76	24091.96
450.966	24845.62
451.172	24483.13
451.378	25206.06
451.584	24886.57
451.791	25541.92
451.997	25324.84
452.203	25834.78
452.409	25464.1
452.615	25617.7
452.821	24479.03
453.027	24497.46
453.233	25666.85
453.44	24851.76
453.646	24806.7
453.852	25077.04
454.058	25511.21
454.264	24751.41
454.47	25326.89
454.676	24550.71
454.882	25498.92
455.088	23438.66
455.294	23696.71
455.5	23868.73
455.705	24474.93
455.911	23676.23
456.117	22984.01
456.323	22639.95
456.529	21355.88
456.735	22363.48
456.941	21765.47
457.147	21599.59
457.352	20647.28
457.558	20530.55
457.764	20571.5
457.97	20098.42
458.176	19928.44
458.381	19916.15
458.587	18818.44
458.793	19051.91
458.999	17857.95
459.204	19314.05
459.41	18689.42
459.616	17309.09
459.821	17544.61
460.027	17259.94
460.233	16760.23
460.438	16231.86
460.644	16534.96
460.85	15478.21
461.055	15214.02
461.261	15480.25
461.466	14288.34
461.672	13673.95
461.878	14753.23
462.083	13686.23
462.289	13374.94
462.494	13370.85
462.7	12770.79
462.905	12340.72
463.111	12770.79
463.316	13106.66
463.522	12520.94
463.727	12660.2
463.932	12492.27
464.138	12490.22
464.343	12504.56
464.549	12129.78
464.754	12731.88
464.959	12496.36
465.165	12357.1
465.37	11886.07
465.575	11468.28
465.781	12037.62
465.986	12174.83
466.191	11480.57
466.397	11339.26
466.602	10810.89
466.807	11339.26
467.012	11183.62
467.218	11140.61
467.423	11054.59
467.628	11175.42
467.833	11601.4
468.038	11224.58
468.244	10751.49
468.449	11091.46
468.654	11099.65
468.859	10645
469.064	10663.43
469.269	10165.78
469.474	10421.77
469.679	10528.27
469.885	10219.02
470.09	10434.06
470.295	10419.72
470.5	10212.88
470.705	10184.21
470.91	10071.57
471.115	9707.03
471.32	10073.62
471.525	9885.2
471.73	9498.14
471.935	9690.65
472.139	9244.19
472.344	9461.27
472.549	9356.83
472.754	9475.61
472.959	9129.5
473.164	8801.83
473.369	8844.84
473.574	9205.28
473.778	9063.97
473.983	8762.92
474.188	8973.86
474.393	8594.98
474.598	8697.38
474.802	8271.4
475.007	8281.64
475.212	8519.21
475.417	8166.96
475.621	8076.85
475.826	8273.45
476.031	8169.01
476.235	7736.88
476.44	7913.01
476.645	7691.83
476.849	7724.6
477.054	7726.64
477.259	7783.99
477.463	7650.87
477.668	7476.79
477.872	7523.9
478.077	7392.83
478.282	7132.73
478.486	7165.5
478.691	7212.6
478.895	7036.48
479.1	7013.95
479.304	7118.4
479.509	6702.66
479.713	7050.82
479.918	6813.25
480.122	6686.28
480.326	6749.76
480.531	6739.52
480.735	6688.32
480.94	6469.19
481.144	6833.73
481.348	6495.82
481.553	6708.8
481.757	6327.88
481.961	6602.31
482.166	6557.25
482.37	6592.07
482.574	6385.23
482.778	6618.69
482.983	6526.54
483.187	6463.05
483.391	6487.62
483.595	6461
483.8	6344.27
484.004	6518.34
484.208	6532.68
484.412	6497.86
484.616	6508.1
484.821	6581.83
485.025	6329.93
485.229	6383.18
485.433	6338.12
485.637	6477.38
485.841	6403.66
486.045	6434.38
486.249	6510.15
486.453	6309.45
486.657	6475.34
486.861	6575.69
487.065	6403.66
487.269	6559.3
487.473	6331.98
487.677	6526.54
487.881	6725.19
488.085	6651.46
488.289	6690.37
488.493	6645.32
488.697	6481.48
488.901	6506.06
489.105	6448.71
489.309	6387.27
489.512	6489.67
489.716	6635.08
489.92	6684.23
490.124	6702.66
490.328	6800.96
490.531	6530.63
490.735	6581.83
490.939	6633.03
491.143	6772.29
491.346	6637.13
491.55	6813.25
491.754	6712.9
491.958	6846.02
492.161	6737.48
492.365	6960.7
492.569	6884.93
492.772	6972.99
492.976	7050.82
493.18	6909.51
493.383	6985.28
493.587	6958.66
493.79	6993.47
493.994	7052.86
494.197	7054.91
494.401	7120.45
494.605	7142.97
494.808	7214.65
495.012	7331.39
495.215	7411.26
495.419	7333.43
495.622	7317.05
495.825	7468.6
496.029	7417.4
496.232	7679.54
496.436	7534.14
496.639	7847.47
496.843	7790.13
497.046	7773.75
497.249	7931.44
497.453	7839.28
497.656	8039.98
497.859	8252.97
498.063	8300.08
498.266	8275.5
498.469	8242.73
498.673	8594.98
498.876	8486.44
499.079	8703.53
499.282	8564.26
499.485	8943.14
499.689	8869.41
499.892	9035.3
500.095	9080.35
500.298	9174.56
500.501	9152.03
500.705	9342.49
500.908	9489.95
501.111	9641.5
501.314	9694.74
501.517	9623.06
501.72	9676.31
501.923	9887.25
502.126	10106.38
502.329	10358.28
502.532	10346
502.735	10538.51
502.938	10530.31
503.141	10536.46
503.344	10800.65
503.547	10821.13
503.75	10655.24
503.953	11146.75
504.156	11120.13
504.359	11333.12
504.562	11363.84
504.765	11740.66
504.968	11550.2
505.17	11695.61
505.373	11734.52
505.576	12070.39
505.779	12375.53
505.982	12168.69
506.185	12510.7
506.387	12418.54
506.59	12627.43
506.793	12828.13
506.996	12594.67
507.198	13151.71
507.401	13139.43
507.604	13301.22
507.807	13514.2
508.009	13544.92
508.212	13721.05
508.415	13903.32
508.617	14018
508.82	14116.31
509.022	14122.45
509.225	14462.41
509.428	14611.92
509.63	14554.57
509.833	14677.45
510.035	15123.91
510.238	14847.43
510.44	15269.31
510.643	15338.94
510.845	15349.18
511.048	15269.31
511.25	15637.95
511.453	15916.47
511.655	16485.81
511.858	16211.38
512.06	16444.85
512.262	16747.95
512.465	16389.55
512.667	16623.02
512.87	16922.02
513.072	16670.12
513.274	17526.18
513.477	17368.48
513.679	17640.86
513.881	17773.98
514.084	17946.01
514.286	17862.04
514.488	18345.36
514.69	18613.65
514.893	18576.78
515.095	18763.15
515.297	19045.77
515.499	18992.52
515.701	19205.51
515.904	19299.72
516.106	19725.69
516.308	19766.65
516.51	19928.44
516.712	19715.45
516.914	20297.08
517.116	20368.76
517.318	20374.9
517.52	20651.38
517.722	20786.54
517.925	20993.39
518.127	21308.77
518.329	21327.21
518.531	20964.71
518.733	21933.4
518.935	21996.89
519.136	21765.47
519.338	22211.93
519.54	22705.49
519.742	22574.42
519.944	22682.96
520.146	23135.56
520.348	23225.67
520.55	23141.71
520.752	23262.54
520.954	23989.56
521.155	23733.57
521.357	23768.38
521.559	23919.93
521.761	24268.09
521.963	24190.27
522.164	24589.62
522.366	24687.92
522.568	24896.81
522.77	24886.57
522.971	25398.57
523.173	24950.06
523.375	25533.73
523.576	25550.12
523.778	25627.94
523.98	25953.57
524.181	26252.57
524.383	26227.99
524.584	26252.57
524.786	26524.95
524.988	26627.35
525.189	26739.99
525.391	27032.85
525.592	27202.83
525.794	27274.51
525.995	27430.15
526.197	27280.65
526.398	27495.69
526.6	27299.08
526.801	27774.21
527.003	27940.1
527.204	27587.85
527.406	28005.63
527.607	28077.31
527.808	28275.96
528.01	27897.09
528.211	28108.03
528.412	28523.77
528.614	28796.15
528.815	28544.25
529.016	28904.69
529.218	28513.53
529.419	29136.11
529.62	28927.22
529.822	28835.06
530.023	28927.22
530.224	29027.57
530.425	29209.84
530.626	28982.51
530.828	28949.74
531.029	29525.22
531.23	29170.93
531.431	29244.65
531.632	29351.15
531.833	29621.48
532.035	29656.29
532.236	29629.67
532.437	29988.07
532.638	29691.11
532.839	29701.35
533.04	29635.81
533.241	29547.75
533.442	29953.25
533.643	30096.61
533.844	29869.28
534.045	29842.66
534.246	29662.44
534.447	30051.55
534.648	29873.38
534.849	30227.68
535.05	29398.25
535.251	29979.87
535.451	29801.7
535.652	29881.57
535.853	29768.93
536.054	30061.79
536.255	29971.68
536.456	29902.05
536.657	30397.66
536.857	29920.48
537.058	29641.96
537.259	30516.44
537.46	30174.43
537.66	29900
537.861	29965.54
538.062	30295.26
538.263	30342.36
538.463	30059.74
538.664	29813.99
538.865	29920.48
539.065	30555.35
539.266	29687.01
539.466	30594.26
539.667	29756.64
539.868	30325.98
540.068	29738.21
540.269	30096.61
540.469	30508.25
540.67	29566.18
540.87	30186.72
541.071	30098.66
541.271	30135.52
541.472	29996.26
541.672	30029.02
541.873	29863.14
542.073	29551.85
542.274	30350.56
542.474	30319.84
542.675	29738.21
542.875	30260.44
543.075	29981.92
543.276	29863.14
543.476	30076.13
543.676	29672.68
543.877	30076.13
544.077	30147.81
544.277	29914.34
544.478	30174.43
544.678	30182.62
544.878	29859.04
545.078	29969.63
545.279	29506.79
545.479	29785.32
545.679	29783.27
545.879	29846.76
546.079	29709.54
546.28	30012.64
546.48	29703.4
546.68	29965.54
546.88	29830.37
547.08	29910.24
547.28	29885.67
547.48	29789.41
547.68	29744.36
547.88	29705.45
548.081	29836.52
548.281	29797.6
548.481	29580.52
548.681	29795.56
548.881	30055.65
549.081	29828.32
549.28	29594.86
549.48	29926.63
549.68	29629.67
549.88	29938.91
550.08	29510.89
550.28	29902.05
550.48	29881.57
550.68	30246.11
550.88	29644.01
551.08	29582.57
551.279	29783.27
551.479	29580.52
551.679	29838.56
551.879	29279.47
552.079	29797.6
552.278	29641.96
552.478	29580.52
552.678	29570.28
552.878	29469.93
553.077	29678.82
553.277	29383.91
553.477	29666.53
553.676	29840.61
553.876	29633.77
554.076	29617.38
554.275	29650.15
554.475	28900.59
554.674	29353.19
554.874	29066.48
555.074	29422.83
555.273	29367.53
555.473	29375.72
555.672	29086.96
555.872	29234.41
556.071	29263.08
556.271	29267.18
556.47	29390.06
556.67	28792.05
556.869	29111.53
557.068	29433.07
557.268	29146.35
557.467	29160.69
557.667	29236.46
557.866	28990.7
558.065	28806.39
558.265	28671.22
558.464	28617.97
558.663	29072.62
558.863	28464.38
559.062	29091.05
559.261	28744.95
559.461	28873.97
559.66	28691.7
559.859	28751.09
560.058	28421.37
560.258	28587.25
560.457	28404.99
560.656	28570.87
560.855	28380.41
561.054	28292.35
561.253	28087.55
561.453	28357.88
561.652	28718.32
561.851	28433.66
562.05	28341.5
562.249	28095.74
562.448	28300.54
562.647	28333.31
562.846	27987.2
563.045	27739.4
563.244	27641.09
563.443	28151.04
563.642	27481.35
563.841	27727.11
564.04	27628.81
564.239	27778.31
564.438	27163.92
564.637	27688.2
564.836	27886.85
565.035	27499.78
565.234	27600.13
565.432	27215.12
565.631	27364.62
565.83	27403.53
566.029	26832.15
566.228	27381
566.427	26780.95
566.625	26873.1
566.824	26928.4
567.023	27053.33
567.222	26481.94
567.42	26828.05
567.619	26623.25
567.818	26920.21
568.016	26518.81
568.215	26756.37
568.414	26465.56
568.612	26787.09
568.811	26096.92
569.01	26586.39
569.208	25881.89
569.407	26629.4
569.605	25910.56
569.804	26633.49
570.002	25935.13
570.201	25912.61
570.4	25763.11
570.598	25937.18
570.797	25654.56
570.995	25802.02
571.193	25642.28
571.392	25744.67
571.59	25580.84
571.789	25759.01
571.987	25429.29
572.186	25199.91
572.384	25384.23
572.582	25486.63
572.781	25394.47
572.979	25253.16
573.177	24931.63
573.376	25025.84
573.574	24730.93
573.772	25038.12
573.971	24775.98
574.169	24694.07
574.367	24845.62
574.565	24884.53
574.763	24915.25
574.962	24642.87
575.16	24253.75
575.358	24495.41
575.556	24575.28
575.754	24407.35
575.952	24280.38
576.151	24618.29
576.349	23983.42
576.547	24048.96
576.745	24036.67
576.943	24096.06
577.141	23848.25
577.339	24014.14
577.537	23639.36
577.735	23463.24
577.933	23555.4
578.131	23639.36
578.329	23348.55
578.527	23524.68
578.725	23555.4
578.923	23762.24
579.121	23115.08
579.319	23215.43
579.516	23235.91
579.714	23229.77
579.912	23270.73
580.11	22873.42
580.308	23141.71
580.506	22732.11
580.704	22355.29
580.901	22750.54
581.099	22992.2
581.297	22570.32
581.495	22408.53
581.692	22691.15
581.89	22515.03
582.088	22543.7
582.285	22154.58
582.483	22281.56
582.681	22242.65
582.878	22111.58
583.076	22009.18
583.274	22410.58
583.471	22156.63
583.669	21894.49
583.866	21728.61
584.064	21990.75
584.262	21761.37
584.459	21847.39
584.657	21552.48
584.854	21833.05
585.052	21263.72
585.249	21724.51
585.447	21824.86
585.644	21429.6
585.841	21267.81
586.039	21607.78
586.236	20761.97
586.434	21245.29
586.631	21142.89
586.828	21263.72
587.026	20972.91
587.223	20997.48
587.42	20925.8
587.618	20985.19
587.815	20727.15
588.012	20940.14
588.21	20698.48
588.407	20729.2
588.604	20522.35
588.801	20477.3
588.999	20526.45
589.196	20383.09
589.393	20417.91
589.59	20354.42
589.787	20092.28
589.984	20051.32
590.182	19981.69
590.379	20311.41
590.576	19842.43
590.773	20008.31
590.97	19883.39
591.167	19932.54
591.364	19703.17
591.561	19828.09
591.758	19565.95
591.955	19508.61
592.152	19803.52
592.349	19387.78
592.546	19496.32
592.743	19537.28
592.94	19264.9
593.137	19166.6
593.334	19154.31
593.531	19113.35
593.727	19072.39
593.924	19101.06
594.121	18824.59
594.318	18910.6
594.515	18781.58
594.712	18658.7
594.908	18759.05
595.105	18697.61
595.302	18597.26
595.499	18535.82
595.696	18646.41
595.892	18294.16
596.089	18476.43
596.286	18435.47
596.482	18259.35
596.679	18195.86
596.876	18171.29
597.072	18048.41
597.269	18159
597.466	17878.43
597.662	17804.7
597.859	18124.18
598.055	18177.43
598.252	17952.15
598.448	17905.05
598.645	17747.36
598.841	17595.81
599.038	17456.54
599.234	17509.79
599.431	17393.06
599.627	17563.04
599.824	17495.46
600.02	17401.25
600.217	17227.17
600.413	17370.53
600.609	17309.09
600.806	17335.71
601.002	17276.32
601.198	17096.1
601.395	17014.18
601.591	16952.74
601.787	16883.11
601.984	16944.55
602.18	16962.98
602.376	16872.87
602.572	16842.15
602.769	16772.52
602.965	16498.09
603.161	16584.11
603.357	16848.3
603.553	16307.63
603.75	16555.44
603.946	16317.87
604.142	16342.45
604.338	16037.3
604.534	16369.07
604.73	16311.73
604.926	16219.57
605.122	16242.1
605.318	15881.66
605.514	15869.37
605.71	15834.55
605.906	15756.73
606.102	15982.01
606.298	15934.9
606.494	15699.39
606.69	15734.2
606.886	15777.21
607.082	15465.92
607.278	15766.97
607.474	15386.05
607.67	15781.31
607.866	15267.27
608.062	15599.04
608.257	15254.98
608.453	15449.53
608.649	15287.75
608.845	15111.62
609.041	15068.61
609.236	15347.14
609.432	15287.75
609.628	15156.68
609.824	15132.1
610.019	15240.64
610.215	15183.3
610.411	15072.71
610.606	15111.62
610.802	15017.41
610.998	14892.49
611.193	14861.77
611.389	14759.37
611.584	14953.93
611.78	14683.59
611.976	14728.65
612.171	14626.25
612.367	14835.14
612.562	14702.03
612.758	14448.08
612.953	14536.14
613.149	14646.73
613.344	14464.46
613.539	14753.23
613.735	14310.86
613.93	14570.96
614.126	14452.17
614.321	14550.48
614.517	14519.76
614.712	14573
614.907	14306.77
615.103	14470.61
615.298	14177.75
615.493	14400.97
615.688	14144.98
615.884	14607.82
616.079	14024.15
616.274	14087.64
616.47	14034.39
616.665	14101.97
616.86	13966.81
617.055	13907.41
617.25	14173.65
617.445	14001.62
617.641	13972.95
617.836	14046.68
618.031	13581.79
618.226	14018
618.421	13577.69
618.616	13708.76
618.811	13630.94
619.006	13563.36
619.201	13508.06
619.396	13491.68
619.591	13401.57
619.786	13624.79
619.981	13450.72
620.176	13323.74
620.371	13215.2
620.566	13405.66
620.761	12893.67
620.956	13309.41
621.151	13217.25
621.346	13143.52
621.541	12613.1
621.735	12991.97
621.93	12674.54
622.125	12903.91
622.32	12510.7
622.515	12670.44
622.709	12789.22
622.904	12535.28
623.099	12316.14
623.294	12389.87
623.488	12064.24
623.683	12479.98
623.878	12043.76
624.072	12170.74
624.267	12275.18
624.462	11996.66
624.656	12203.5
624.851	12029.43
625.046	11836.92
625.24	11857.4
625.435	11628.03
625.629	11570.68
625.824	11709.94
626.018	11621.88
626.213	11419.13
626.407	11593.21
626.602	11173.38
626.796	11333.12
626.991	11159.04
627.185	11197.95
627.38	10999.3
627.574	11159.04
627.768	10927.62
627.963	11005.44
628.157	10712.58
628.352	10841.61
628.546	10692.1
628.74	10872.32
628.935	10567.18
629.129	10649.1
629.323	10446.35
629.517	10481.16
629.712	10532.36
629.906	10616.33
630.1	10104.34
630.294	10331.66
630.489	10118.67
630.683	10321.42
630.877	10124.82
631.071	10069.52
631.265	10315.28
631.459	9954.83
631.653	10038.8
631.848	10040.85
632.042	9725.46
632.236	9872.92
632.43	9711.13
632.624	9764.37
632.818	9692.69
633.012	9434.65
633.206	9385.5
633.4	9473.56
633.594	9297.44
633.788	9164.32
633.982	9428.51
634.176	9297.44
634.369	9178.65
634.563	9356.83
634.757	8969.76
634.951	9158.17
635.145	9072.16
635.339	9031.2
635.533	8920.61
635.726	8840.74
635.92	8879.65
636.114	8930.85
636.308	8764.96
636.501	8603.18
636.695	8615.46
636.889	8562.22
637.083	8543.78
637.276	8586.79
637.47	8408.62
637.664	8568.36
637.857	8394.28
638.051	8367.66
638.244	8244.78
638.438	8381.99
638.632	8203.82
638.825	8353.32
639.019	8128.05
639.212	7902.77
639.406	8269.36
639.599	8046.13
639.793	7949.87
639.986	7743.03
640.18	8142.38
640.373	7814.71
640.567	7794.23
640.76	7765.56
640.954	7722.55
641.147	7708.21
641.34	7587.38
641.534	7769.65
641.727	7661.11
641.92	7558.71
642.114	7527.99
642.307	7497.27
642.5	7302.72
642.694	7267.9
642.887	7151.17
643.08	7276.09
643.273	7235.13
643.467	7188.03
643.66	7200.32
643.853	7079.49
644.046	7091.77
644.239	7138.88
644.432	6958.66
644.626	6970.94
644.819	7046.72
645.012	6944.32
645.205	7026.24
645.398	6819.39
645.591	6819.39
645.784	6673.99
645.977	6751.81
646.17	6788.68
646.363	6530.63
646.556	6614.6
646.749	6544.97
646.942	6731.33
647.135	6624.84
647.328	6458.95
647.521	6549.06
647.714	6379.08
647.907	6405.7
648.099	6487.62
648.292	6344.27
648.485	6336.07
648.678	6168.14
648.871	6223.44
649.064	6260.3
649.256	6184.52
649.449	6254.16
649.642	6006.35
649.835	6012.49
650.027	6147.66
650.22	5971.54
650.413	5953.1
650.605	6127.18
650.798	5940.82
650.991	5854.8
651.183	5721.68
651.376	5903.95
651.568	5709.4
651.761	5828.18
651.954	5858.9
652.146	5695.06
652.339	5602.9
652.531	5748.31
652.724	5645.91
652.916	5527.13
653.109	5557.85
653.301	5725.78
653.494	5531.22
653.686	5375.58
653.879	5449.3
654.071	5371.48
654.263	5361.24
654.456	5318.23
654.648	5383.77
654.84	5480.02
655.033	5219.93
655.225	5189.21
655.417	5183.07
655.61	5232.22
655.802	5252.7
655.994	5281.37
656.186	5121.63
656.379	5232.22
656.571	5150.3
656.763	5029.47
656.955	5168.73
657.148	5117.53
657.34	4937.31
657.532	5052
657.724	5015.13
657.916	4802.15
658.108	4839.01
658.3	4775.52
658.492	4779.62
658.684	4908.64
658.876	4863.58
659.068	4662.88
659.26	4783.71
659.452	4806.24
659.644	4675.17
659.836	4404.84
660.028	4562.53
660.22	4402.79
660.412	4671.08
660.604	4529.77
660.796	4556.39
660.988	4576.87
661.18	4611.68
661.372	4585.06
661.563	4363.88
661.755	4578.92
661.947	4468.33
662.139	4339.3
662.331	4406.89
662.522	4341.35
662.714	4363.88
662.906	4255.34
663.097	4271.72
663.289	4212.33
663.481	4142.7
663.673	4142.7
663.864	4126.32
664.056	4087.4
664.247	4300.39
664.439	4179.56
664.631	4324.97
664.822	4187.75
665.014	4081.26
665.205	4093.55
665.397	4038.25
665.588	4075.12
665.78	3989.1
665.971	4032.11
666.163	4030.06
666.354	4030.06
666.546	3950.19
666.737	3868.27
666.929	3966.57
667.12	3870.32
667.311	3833.46
667.503	3812.98
667.694	3845.74
667.885	3741.3
668.077	3794.54
668.268	3839.6
668.459	3825.26
668.651	3677.81
668.842	3786.35
669.033	3733.11
669.224	3765.87
669.416	3669.62
669.607	3620.47
669.798	3544.69
669.989	3751.54
670.18	3825.26
670.371	3571.32
670.563	3673.71
670.754	3608.18
670.945	3587.7
671.136	3671.67
671.327	3585.65
671.518	3522.16
671.709	3597.94
671.9	3563.12
672.091	3595.89
672.282	3473.01
672.473	3415.67
672.664	3432.05
672.855	3507.83
673.046	3395.19
673.237	3528.31
673.428	3313.27
673.619	3479.16
673.809	3266.17
674	3450.49
674.191	3436.15
674.382	3409.53
674.573	3389.05
674.764	3274.36
674.954	3374.71
675.145	3292.79
675.336	3333.75
675.527	3444.34
675.717	3362.42
675.908	3331.7
676.099	3280.5
676.289	3237.5
676.48	3282.55
676.671	3311.22
676.861	3286.65
677.052	3387
677.243	3208.83
677.433	3092.09
677.624	3100.28
677.814	3245.69
678.005	3219.07
678.195	3292.79
678.386	3237.5
678.576	3085.95
678.767	3229.31
678.957	3120.76
679.148	3245.69
679.338	3145.34
679.529	3253.88
679.719	3051.13
679.909	3286.65
680.1	3159.67
680.29	3083.9
680.481	3092.09
680.671	3079.8
680.861	3180.15
681.052	3112.57
681.242	2946.69
681.432	3239.55
681.622	3026.56
681.813	3116.67
682.003	3014.27
682.193	3008.12
682.383	3036.8
682.573	3077.76
682.764	3057.28
682.954	3079.8
683.144	3016.32
683.334	3016.32
683.524	3067.52
683.714	3106.43
683.904	3059.32
684.094	3020.41
684.284	3034.75
684.474	3001.98
684.664	2911.87
684.854	2973.31
685.044	2977.41
685.234	2872.96
685.424	2868.86
685.614	2883.2
685.804	2928.25
685.994	2987.65
686.184	2948.73
686.374	2985.6
686.564	2881.15
686.753	2942.59
686.943	2905.73
687.133	2936.45
687.323	2807.42
687.513	2989.69
687.702	2791.04
687.892	2981.5
688.082	2854.53
688.272	2811.52
688.461	2780.8
688.651	2815.62
688.841	2764.42
689.03	2729.6
689.22	2723.46
689.41	2670.21
689.599	2684.55
689.789	2756.22
689.979	2655.87
690.168	2608.77
690.358	2702.98
690.547	2602.63
690.737	2578.05
690.926	2645.63
691.116	2674.31
691.305	2645.63
691.495	2571.91
691.684	2539.14
691.874	2565.76
692.063	2621.06
692.252	2440.84
692.442	2555.52
692.631	2457.22
692.82	2535.04
693.01	2526.85
693.199	2444.93
693.388	2430.6
693.578	2569.86
693.767	2524.8
693.956	2471.56
694.146	2424.45
694.335	2502.28
694.524	2426.5
694.713	2410.12
694.902	2403.97
695.092	2432.65
695.281	2248.33
695.47	2385.54
695.659	2270.86
695.848	2352.77
696.037	2422.41
696.226	2307.72
696.415	2346.63
696.604	2365.06
696.793	2340.49
696.982	2346.63
697.171	2408.07
697.36	2317.96
697.549	2299.53
697.738	2287.24
697.927	2360.97
698.116	2307.72
698.305	2291.34
698.494	2422.41
698.683	2293.38
698.872	2393.73
699.061	2238.09
699.25	2131.59
699.438	2246.28
699.627	2309.77
699.816	2293.38
700.005	2297.48
700.193	2250.38
700.382	2371.21
700.571	2225.8
700.76	2287.24
700.948	2186.89
701.137	2299.53
701.326	2270.86
701.514	2160.27
701.703	2344.58
701.892	2264.71
702.08	2289.29
702.269	2285.19
702.457	2260.62
702.646	2207.37
702.834	2238.09
703.023	2213.51
703.212	2211.46
703.4	2164.36
703.589	2262.66
703.777	2311.82
703.965	2236.04
704.154	2283.14
704.342	2250.38
704.531	2190.99
704.719	2190.99
704.907	2297.48
705.096	2227.85
705.284	2207.37
705.472	2272.9
705.661	2211.46
705.849	2283.14
706.037	2201.23
706.226	2131.59
706.414	2104.97
706.602	2266.76
706.79	2236.04
706.979	2213.51
707.167	2182.79
707.355	2143.88
707.543	2240.14
707.731	2193.03
707.919	2260.62
708.107	2145.93
708.296	2139.79
708.484	2145.93
708.672	2209.42
708.86	2274.95
709.048	2154.12
709.236	2186.89
709.424	2219.66
709.612	2147.98
709.8	2170.51
709.988	2154.12
710.176	2240.14
710.364	2231.94
710.551	2242.18
710.739	2160.27
710.927	2209.42
711.115	2260.62
711.303	2174.6
711.491	2266.76
711.679	2246.28
711.866	2125.45
712.054	2152.07
712.242	2270.86
712.43	2184.84
712.617	2254.47
712.805	2268.81
712.993	2168.46
713.181	2166.41
713.368	2223.75
713.556	2195.08
713.744	2102.92
713.931	2291.34
714.119	2143.88
714.306	2266.76
714.494	2348.68
714.682	2240.14
714.869	2293.38
715.057	2201.23
715.244	2262.66
715.432	2297.48
715.619	2139.79
715.807	2336.39
715.994	2168.46
716.182	2268.81
716.369	2336.39
716.556	2182.79
716.744	2131.59
716.931	2113.16
717.119	2158.22
717.306	2346.63
717.493	2233.99
717.681	2225.8
717.868	2219.66
718.055	2207.37
718.242	2207.37
718.43	2303.62
718.617	2317.96
718.804	2315.91
718.991	2207.37
719.179	2277
719.366	2317.96
719.553	2125.45
719.74	2162.31
719.927	2279.05
720.114	2260.62
720.301	2260.62
720.488	2262.66
720.676	2291.34
720.863	2299.53
721.05	2358.92
721.237	2281.1
721.424	2098.83
721.611	2219.66
721.798	2182.79
721.985	2332.3
722.172	2287.24
722.358	2137.74
722.545	2252.42
722.732	2254.47
722.919	2397.83
723.106	2252.42
723.293	2248.33
723.48	2219.66
723.667	2264.71
723.853	2221.7
724.04	2166.41
724.227	2244.23
724.414	2176.65
724.6	2145.93
724.787	2164.36
724.974	2324.1
725.161	2260.62
725.347	2166.41
725.534	2180.75
725.72	2279.05
725.907	2199.18
726.094	2301.58
726.28	2197.13
726.467	2297.48
726.653	2186.89
726.84	2178.7
727.027	2387.59
727.213	2150.03
727.4	2320.01
727.586	2338.44
727.773	2229.9
727.959	2221.7
728.145	2217.61
728.332	2219.66
728.518	2260.62
728.705	2279.05
728.891	2311.82
729.077	2236.04
729.264	2277
729.45	2227.85
729.636	2281.1
729.823	2111.11
730.009	2283.14
730.195	2168.46
730.382	2221.7
730.568	2211.46
730.754	2299.53
730.94	2066.06
731.126	2182.79
731.313	2215.56
731.499	2199.18
731.685	2248.33
731.871	2150.03
732.057	2262.66
732.243	2201.23
732.429	2236.04
732.615	2274.95
732.801	2203.27
732.987	2215.56
733.173	2242.18
733.359	2254.47
733.545	2096.78
733.731	2285.19
733.917	2281.1
734.103	2131.59
734.289	2281.1
734.475	2158.22
734.661	2213.51
734.847	2141.83
735.033	2164.36
735.219	2371.21
735.404	2264.71
735.59	2203.27
735.776	2272.9
735.962	2242.18
736.148	2129.55
736.333	2211.46
736.519	2121.35
736.705	2209.42
736.89	2162.31
737.076	2100.87
737.262	2143.88
737.447	2211.46
737.633	2141.83
737.819	2172.55
738.004	2180.75
738.19	2150.03
738.375	2064.01
738.561	2133.64
738.747	2047.63
738.932	2217.61
739.118	2152.07
739.303	2133.64
739.489	2125.45
739.674	1984.14
739.859	2100.87
740.045	2037.39
740.23	2156.17
740.416	1971.85
740.601	1984.14
740.786	2033.29
740.972	2018.96
741.157	2115.21
741.342	1953.42
741.528	2053.77
741.713	1965.71
741.898	2008.72
742.084	2070.16
742.269	2002.57
742.454	1965.71
742.639	2061.96
742.824	2000.52
743.01	1994.38
743.195	2006.67
743.38	1955.47
743.565	1969.8
743.75	2023.05
743.935	1920.65
744.12	1846.93
744.305	1914.51
744.49	2002.57
744.675	1867.41
744.86	1986.19
745.045	1908.37
745.23	1875.6
745.415	1859.21
745.6	2051.72
745.785	1904.27
745.97	1752.72
746.155	1916.56
746.34	1756.82
746.525	1848.97
746.71	1822.35
746.895	1834.64
747.079	1785.49
747.264	1834.64
747.449	1740.43
747.634	1705.62
747.819	1797.78
748.003	1760.91
748.188	1762.96
748.373	1900.17
748.557	1703.57
748.742	1693.33
748.927	1754.77
749.111	1695.38
749.296	1707.66
749.481	1638.03
749.665	1662.61
749.85	1656.47
750.034	1627.79
750.219	1660.56
750.404	1642.13
750.588	1685.14
750.773	1607.31
750.957	1566.35
751.141	1506.96
751.326	1500.82
751.51	1574.55
751.695	1504.92
751.879	1515.16
752.064	1592.98
752.248	1556.11
752.432	1509.01
752.617	1439.38
752.801	1588.88
752.985	1423
753.17	1468.05
753.354	1476.24
753.538	1490.58
753.722	1435.28
753.907	1459.86
754.091	1279.64
754.275	1459.86
754.459	1429.14
754.643	1416.85
754.828	1433.24
755.012	1369.75
755.196	1396.37
755.38	1336.98
755.564	1293.97
755.748	1244.82
755.932	1351.32
756.116	1277.59
756.3	1232.54
756.484	1275.54
756.668	1277.59
756.852	1167
757.036	1228.44
757.22	1263.26
757.404	1244.82
757.588	1226.39
757.772	1238.68
757.956	1263.26
758.14	1238.68
758.323	1218.2
758.507	1183.38
758.691	1113.75
758.875	1240.73
759.059	1173.14
759.242	1160.86
759.426	1097.37
759.61	1083.03
759.794	1183.38
759.977	1169.05
760.161	1175.19
760.345	1119.9
760.528	1037.98
760.712	1037.98
760.895	1078.94
761.079	1103.51
761.263	1068.7
761.446	1107.61
761.63	1007.26
761.813	1076.89
761.997	1056.41
762.18	1156.76
762.364	1103.51
762.547	923.29
762.731	1015.45
762.914	1005.21
763.098	1050.27
763.281	1013.4
763.464	1064.6
763.648	1093.27
763.831	988.83
764.015	970.4
764.198	1060.51
764.381	943.77
764.564	978.59
764.748	960.16
764.931	1035.93
765.114	1017.5
765.297	1031.83
765.481	911
765.664	1021.6
765.847	929.44
766.03	951.96
766.213	937.63
766.397	976.54
766.58	974.49
766.763	878.24
766.946	886.43
767.129	962.2
767.312	947.87
767.495	794.27
767.678	868
767.861	886.43
768.044	941.72
768.227	880.29
768.41	853.66
768.593	927.39
768.776	822.94
768.959	898.72
769.142	843.42
769.324	839.33
769.507	847.52
769.69	845.47
769.873	906.91
770.056	827.04
770.239	870.05
770.421	843.42
770.604	831.13
770.787	833.18
770.97	743.07
771.152	857.76
771.335	861.85
771.518	816.8
771.7	835.23
771.883	804.51
772.066	818.85
772.248	827.04
772.431	845.47
772.613	829.09
772.796	732.83
772.978	769.69
773.161	845.47
773.343	718.5
773.526	747.17
773.708	790.17
773.891	671.39
774.073	724.64
774.256	736.93
774.438	706.21
774.621	657.06
774.803	753.31
774.985	665.25
775.168	763.55
775.35	720.54
775.532	702.11
775.715	691.87
775.897	743.07
776.079	689.82
776.261	712.35
776.444	585.38
776.626	650.91
776.808	612
776.99	665.25
777.173	620.19
777.355	638.62
777.537	616.1
777.719	669.34
777.901	595.62
778.083	689.82
778.265	634.53
778.447	644.77
778.629	462.5
778.811	581.28
778.993	595.62
779.175	589.47
779.357	648.86
779.539	601.76
779.721	550.56
779.903	583.33
780.085	546.47
780.267	560.8
780.449	564.9
780.631	583.33
780.812	638.62
780.994	534.18
781.176	460.45
781.358	517.79
781.54	548.51
781.721	515.75
781.903	491.17
782.085	519.84
782.267	515.75
782.448	503.46
782.63	452.26
782.812	564.9
782.993	564.9
783.175	548.51
783.357	405.16
783.538	513.7
783.72	458.4
783.901	530.08
784.083	446.12
784.264	521.89
784.446	362.15
784.627	468.64
784.809	444.07
784.99	401.06
785.172	450.21
785.353	444.07
785.535	476.84
785.716	433.83
785.897	472.74
786.079	384.68
786.26	425.64
786.441	421.54
786.623	456.36
786.804	495.27
786.985	390.82
787.167	382.63
787.348	392.87
787.529	366.25
787.71	476.84
787.891	472.74
788.073	390.82
788.254	310.95
788.435	431.78
788.616	399.01
788.797	349.86
788.978	351.91
789.159	349.86
789.34	384.68
789.522	390.82
789.703	288.42
789.884	351.91
790.065	353.96
790.246	419.49
790.427	280.23
790.607	396.96
790.788	272.04
790.969	269.99
791.15	368.29
791.331	308.9
791.512	368.29
791.693	304.81
791.874	278.18
792.054	343.72
792.235	327.33
792.416	239.27
792.597	358.05
792.778	413.35
792.958	366.25
793.139	399.01
793.32	331.43
793.5	317.09
793.681	313
793.862	284.33
794.042	284.33
794.223	341.67
794.404	288.42
794.584	208.55
794.765	251.56
794.945	298.66
795.126	319.14
795.306	310.95
795.487	239.27
795.667	349.86
795.848	286.37
796.028	376.48
796.209	345.77
796.389	331.43
796.57	282.28
796.75	304.81
796.93	278.18
797.111	319.14
797.291	282.28
797.471	366.25
797.652	267.94
797.832	247.46
798.012	239.27
798.192	290.47
798.373	284.33
798.553	310.95
798.733	269.99
798.913	220.84
799.093	269.99
799.274	247.46
799.454	265.89
799.634	233.13
799.814	257.7
799.994	251.56
800.174	333.48
800.354	204.46
800.534	181.93
800.714	231.08
800.894	255.65
801.074	292.52
801.254	310.95
801.434	233.13
801.614	218.79
801.794	196.26
801.974	650.91
802.154	165.54
802.334	186.02
802.514	183.98
802.693	337.57
802.873	306.85
803.053	257.7
803.233	198.31
803.413	200.36
803.592	226.98
803.772	200.36
803.952	231.08
804.131	245.41
804.311	212.65
804.491	276.13
804.67	214.7
804.85	218.79
805.03	208.55
805.209	274.09
805.389	134.82
805.568	208.55
805.748	204.46
805.928	210.6
806.107	196.26
806.287	181.93
806.466	235.18
806.646	243.37
806.825	179.88
807.004	186.02
807.184	175.78
807.363	253.61
807.543	267.94
807.722	278.18
807.901	145.06
808.081	214.7
808.26	202.41
808.439	186.02
808.619	257.7
808.798	190.12
808.977	171.69
809.156	122.54
809.336	261.8
809.515	161.45
809.694	118.44
809.873	206.5
810.052	208.55
810.231	128.68
810.411	104.11
810.59	145.06
810.769	208.55
810.948	181.93
811.127	181.93
811.306	157.35
811.485	188.07
811.664	190.12
811.843	183.98
812.022	196.26
812.201	216.74
812.38	112.3
812.559	75.43
812.737	163.5
812.916	87.72
813.095	136.87
813.274	97.96
813.453	165.54
813.632	175.78
813.811	224.94
813.989	95.91
814.168	167.59
814.347	149.16
814.526	132.78
814.704	155.3
814.883	183.98
815.062	132.78
815.24	118.44
815.419	163.5
815.598	132.78
815.776	159.4
815.955	188.07
816.133	116.39
816.312	194.22
816.49	124.58
816.669	126.63
816.847	79.53
817.026	149.16
817.204	120.49
817.383	145.06
817.561	132.78
817.74	110.25
817.918	136.87
818.097	77.48
818.275	128.68
818.453	114.34
818.632	132.78
818.81	81.58
818.988	147.11
819.167	138.92
819.345	100.01
819.523	110.25
819.701	108.2
819.879	134.82
820.058	188.07
820.236	138.92
820.414	71.34
820.592	177.83
820.77	169.64
820.948	89.77
821.127	110.25
821.305	167.59
821.483	81.58
821.661	110.25
821.839	116.39
822.017	216.74
822.195	124.58
822.373	112.3
822.551	122.54
822.729	124.58
822.907	100.01
823.085	100.01
823.262	77.48
823.44	97.96
823.618	83.63
823.796	126.63
823.974	32.43
824.152	110.25
824.329	104.11
824.507	118.44
824.685	155.3
824.863	65.19
825.04	116.39
825.218	147.11
825.396	95.91
825.574	63.15
825.751	73.39
825.929	128.68
826.107	81.58
826.284	73.39
826.462	155.3
826.639	108.2
826.817	126.63
826.994	108.2
827.172	93.87
827.349	112.3
827.527	153.26
827.704	179.88
827.882	102.06
828.059	36.52
828.237	100.01
828.414	48.81
828.591	52.91
828.769	48.81
828.946	91.82
829.124	91.82
829.301	67.24
829.478	71.34
829.655	212.65
829.833	100.01
830.01	42.67
830.187	145.06
830.364	48.81
830.542	114.34
830.719	214.7
830.896	89.77
831.073	20.14
831.25	52.91
831.427	104.11
831.604	151.21
831.782	71.34
831.959	136.87
832.136	140.97
832.313	61.1
832.49	97.96
832.667	106.15
832.844	93.87
833.021	122.54
833.198	79.53
833.374	116.39
833.551	16.04
833.728	44.71
833.905	69.29
834.082	36.52
834.259	108.2
834.436	114.34
834.612	134.82
834.789	120.49
834.966	149.16
835.143	65.19
835.319	50.86
835.496	163.5
835.673	67.24
835.85	93.87
836.026	79.53
836.203	100.01
836.38	79.53
836.556	50.86
836.733	104.11
836.909	126.63
837.086	114.34
837.262	93.87
837.439	118.44
837.616	69.29
837.792	38.57
837.968	63.15
838.145	71.34
838.321	102.06
838.498	11.95
838.674	83.63
838.851	93.87
839.027	52.91
839.203	81.58
839.38	118.44
839.556	93.87
839.732	57
839.909	77.48
840.085	134.82
840.261	81.58
840.437	145.06
840.614	75.43
840.79	36.52
840.966	114.34
841.142	112.3
841.318	63.15
841.494	124.58
841.671	65.19
841.847	83.63
842.023	83.63
842.199	65.19
842.375	85.67
842.551	3.75
842.727	44.71
842.903	79.53
843.079	97.96
843.255	124.58
843.431	65.19
843.607	52.91
843.783	110.25
843.959	114.34
844.134	130.73
844.31	54.95
844.486	22.19
844.662	50.86
844.838	114.34
845.013	67.24
845.189	128.68
845.365	83.63
845.541	7.85
845.716	57
845.892	-4.44
846.068	30.38
846.244	-12.63
846.419	42.67
846.595	65.19
846.77	-88.4
846.946	69.29
847.122	30.38
847.297	-6.49
847.473	75.43
847.648	32.43
847.824	140.97
847.999	11.95
848.175	77.48
848.35	-10.58
848.526	63.15
848.701	116.39
848.876	126.63
849.052	34.47
849.227	-8.53
849.403	81.58
849.578	48.81
849.753	54.95
849.929	100.01
850.104	11.95
850.279	32.43
850.454	-8.53
850.63	61.1
850.805	57
850.98	30.38
851.155	50.86
851.33	114.34
851.505	24.23
851.681	77.48
851.856	79.53
852.031	102.06
852.206	65.19
852.381	65.19
852.556	114.34
852.731	34.47
852.906	61.1
853.081	40.62
853.256	102.06
853.431	89.77
853.606	18.09
853.781	57
853.956	32.43
854.131	118.44
854.305	-41.3
854.48	48.81
854.655	32.43
854.83	95.91
855.005	79.53
855.18	11.95
855.354	22.19
855.529	24.23
855.704	46.76
855.879	42.67
856.053	30.38
856.228	26.28
856.403	32.43
856.577	67.24
856.752	48.81
856.926	65.19
857.101	-18.77
857.276	40.62
857.45	116.39
857.625	50.86
857.799	42.67
857.974	40.62
858.148	36.52
858.323	24.23
858.497	22.19
858.672	1.71
858.846	-37.2
859.02	81.58
859.195	26.28
859.369	30.38
859.543	-37.2
859.718	100.01
859.892	9.9
860.066	9.9
860.241	73.39
860.415	28.33
860.589	151.21
860.763	38.57
860.938	-24.92
861.112	30.38
861.286	18.09
861.46	91.82
861.634	24.23
861.808	59.05
861.982	5.8
862.157	16.04
862.331	42.67
862.505	36.52
862.679	61.1
862.853	-6.49
863.027	-0.34
863.201	40.62
863.375	-31.06
863.549	38.57
863.722	16.04
863.896	46.76
864.07	11.95
864.244	71.34
864.418	57
864.592	67.24
864.766	16.04
864.939	87.72
865.113	38.57
865.287	26.28
865.461	-24.92
865.634	79.53
865.808	1.71
865.982	11.95
866.156	-6.49
866.329	46.76
866.503	79.53
866.676	71.34
866.85	-20.82
867.024	81.58
867.197	18.09
867.371	-26.96
867.544	-0.34
867.718	13.99
867.891	122.54
868.065	13.99
868.238	77.48
868.412	79.53
868.585	106.15
868.759	34.47
868.932	-41.3
869.105	38.57
869.279	7.85
869.452	40.62
869.625	97.96
869.799	32.43
869.972	3.75
870.145	40.62
870.319	40.62
870.492	1.71
870.665	36.52
870.838	26.28
871.011	-16.73
871.185	65.19
871.358	11.95
871.531	81.58
871.704	75.43
871.877	97.96
872.05	22.19
872.223	57
872.396	-65.88
872.569	81.58
872.742	13.99
872.915	22.19
873.088	-43.35
873.261	-20.82
873.434	-22.87
873.607	3.75
873.78	5.8
873.953	16.04
874.126	16.04
874.299	22.19
874.471	36.52
874.644	128.68
874.817	59.05
874.99	38.57
875.163	-29.01
875.335	-12.63
875.508	83.63
875.681	-2.39
875.853	-29.01
876.026	44.71
876.199	110.25
876.371	32.43
876.544	22.19
876.717	59.05
876.889	57
877.062	87.72
877.234	-45.4
877.407	22.19
877.579	48.81
877.752	61.1
877.924	36.52
878.097	-22.87
878.269	-33.11
878.442	16.04
878.614	48.81
878.786	102.06
878.959	3.75
879.131	67.24
879.303	11.95
879.476	18.09
879.648	-24.92
879.82	40.62
879.993	-0.34
880.165	1.71
880.337	-2.39
880.509	-22.87
880.681	-0.34
880.854	61.1
881.026	73.39
881.198	95.91
881.37	61.1
881.542	71.34
881.714	-10.58
881.886	83.63
882.058	7.85
882.23	18.09
882.402	34.47
882.574	50.86
882.746	9.9
882.918	36.52
883.09	54.95
883.262	-20.82
883.434	50.86
883.606	63.15
883.778	-39.25
883.95	44.71
884.122	65.19
884.293	40.62
884.465	40.62
884.637	112.3
884.809	-41.3
884.98	-4.44
885.152	18.09
885.324	32.43
885.496	-29.01
885.667	61.1
885.839	-45.4
886.011	110.25
886.182	-0.34
886.354	44.71
886.525	44.71
886.697	83.63
886.869	11.95
887.04	40.62
887.212	32.43
887.383	30.38
887.555	63.15
887.726	104.11
887.897	34.47
888.069	61.1
888.24	16.04
888.412	20.14
888.583	9.9
888.754	13.99
888.926	-33.11
889.097	-2.39
889.268	54.95
889.44	57
889.611	44.71
889.782	46.76
889.953	16.04
890.125	38.57
890.296	-35.16
890.467	106.15
890.638	65.19
890.809	-16.73
890.98	9.9
891.151	-4.44
891.323	30.38
891.494	20.14
891.665	32.43
891.836	-24.92
892.007	-18.77
892.178	63.15
892.349	59.05
892.52	-0.34
892.691	97.96
892.862	16.04
893.032	-31.06
893.203	50.86
893.374	-16.73
893.545	48.81
893.716	-4.44
893.887	61.1
894.057	-6.49
894.228	177.83
894.399	-57.68
894.57	38.57
894.74	11.95
894.911	-12.63
895.082	54.95
895.253	59.05
895.423	69.29
895.594	9.9
895.764	81.58
895.935	79.53
896.106	52.91
896.276	48.81
896.447	-53.59
896.617	1.71
896.788	20.14
896.958	50.86
897.129	-0.34
897.299	24.23
897.47	-6.49
897.64	48.81
897.81	-35.16
897.981	77.48
898.151	81.58
898.322	-24.92
898.492	-29.01
898.662	36.52
898.832	-61.78
899.003	59.05
899.173	24.23
899.343	18.09
899.513	-6.49
