Data from USB4F104151__25__11-51-29-189.txt Node

Date: Fri Mar 14 11:51:29 EDT 2025
User: louis
Spectrometer: USB4F10415
Trigger mode: 4
Integration Time (sec): 2.000000E-2
Scans to average: 1
Electric dark correction enabled: true
Nonlinearity correction enabled: false
Boxcar width: 0
XAxis mode: Wavelengths
Number of Pixels in Spectrum: 3648
>>>>>Begin Spectral Data<<<<<
178.204	-44.88
178.424	-44.88
178.644	-44.88
178.864	-18.26
179.084	-44.88
179.304	73.9
179.524	-14.17
179.744	0.17
179.964	28.84
180.184	-32.6
180.404	-40.79
180.624	-28.5
180.844	0.17
181.064	-30.55
181.283	65.71
181.503	-16.21
181.723	-5.97
181.943	14.51
182.163	61.61
182.383	-40.79
182.602	77.99
182.822	45.23
183.042	102.57
183.262	-24.4
183.482	0.17
183.701	-18.26
183.921	94.38
184.141	-16.21
184.361	30.89
184.58	57.51
184.8	86.19
185.02	43.18
185.239	22.7
185.459	67.75
185.679	32.94
185.898	-36.69
186.118	22.7
186.338	-10.07
186.557	14.51
186.777	73.9
186.997	4.27
187.216	57.51
187.436	77.99
187.655	59.56
187.875	114.86
188.095	43.18
188.314	43.18
188.534	141.48
188.753	4.27
188.973	2.22
189.192	73.9
189.412	10.41
189.631	77.99
189.851	57.51
190.07	2.22
190.29	0.17
190.509	90.28
190.729	41.13
190.948	75.95
191.168	116.9
191.387	12.46
191.607	0.17
191.826	24.75
192.045	26.79
192.265	67.75
192.484	8.36
192.704	24.75
192.923	55.47
193.142	32.94
193.362	24.75
193.581	51.37
193.8	75.95
194.02	6.31
194.239	55.47
194.458	43.18
194.678	-42.84
194.897	32.94
195.116	94.38
195.335	106.67
195.555	77.99
195.774	65.71
195.993	65.71
196.212	-8.02
196.432	-67.41
196.651	45.23
196.87	20.65
197.089	59.56
197.308	22.7
197.528	77.99
197.747	37.03
197.966	18.6
198.185	51.37
198.404	-16.21
198.623	45.23
198.842	10.41
199.062	-14.17
199.281	82.09
199.5	41.13
199.719	84.14
199.938	8.36
200.157	63.66
200.376	-1.88
200.595	45.23
200.814	4.27
201.033	39.08
201.252	49.32
201.471	-26.45
201.69	75.95
201.909	28.84
202.128	39.08
202.347	30.89
202.566	28.84
202.785	-20.31
203.004	-3.93
203.223	88.23
203.442	98.47
203.661	-42.84
203.879	2.22
204.098	65.71
204.317	30.89
204.536	61.61
204.755	22.7
204.974	12.46
205.193	49.32
205.411	67.75
205.63	71.85
205.849	10.41
206.068	55.47
206.287	71.85
206.505	-8.02
206.724	28.84
206.943	80.04
207.162	4.27
207.381	6.31
207.599	18.6
207.818	22.7
208.037	39.08
208.255	32.94
208.474	86.19
208.693	106.67
208.911	32.94
209.13	20.65
209.349	73.9
209.567	53.42
209.786	61.61
210.005	-18.26
210.223	2.22
210.442	-12.12
210.661	6.31
210.879	20.65
211.098	-69.46
211.316	65.71
211.535	43.18
211.753	37.03
211.972	39.08
212.191	-14.17
212.409	53.42
212.628	80.04
212.846	-38.74
213.065	47.27
213.283	75.95
213.502	-48.98
213.72	6.31
213.938	71.85
214.157	47.27
214.375	71.85
214.594	98.47
214.812	28.84
215.031	47.27
215.249	26.79
215.467	51.37
215.686	24.75
215.904	22.7
216.122	-14.17
216.341	18.6
216.559	-18.26
216.778	96.43
216.996	102.57
217.214	61.61
217.432	34.99
217.651	53.42
217.869	59.56
218.087	34.99
218.306	43.18
218.524	39.08
218.742	84.14
218.96	10.41
219.179	-48.98
219.397	22.7
219.615	51.37
219.833	6.31
220.051	-42.84
220.27	-20.31
220.488	28.84
220.706	125.1
220.924	14.51
221.142	86.19
221.36	73.9
221.578	8.36
221.796	37.03
222.015	53.42
222.233	-59.22
222.451	82.09
222.669	-40.79
222.887	32.94
223.105	-57.17
223.323	16.55
223.541	-1.88
223.759	49.32
223.977	8.36
224.195	59.56
224.413	61.61
224.631	108.71
224.849	16.55
225.067	20.65
225.285	20.65
225.503	53.42
225.721	-16.21
225.939	10.41
226.157	-5.97
226.375	98.47
226.592	22.7
226.81	30.89
227.028	10.41
227.246	43.18
227.464	-24.4
227.682	53.42
227.9	80.04
228.117	41.13
228.335	55.47
228.553	22.7
228.771	41.13
228.989	45.23
229.206	65.71
229.424	88.23
229.642	-30.55
229.86	12.46
230.077	37.03
230.295	22.7
230.513	10.41
230.731	43.18
230.948	32.94
231.166	22.7
231.384	65.71
231.601	43.18
231.819	57.51
232.037	77.99
232.254	-34.64
232.472	-48.98
232.689	26.79
232.907	75.95
233.125	71.85
233.342	26.79
233.56	-18.26
233.777	14.51
233.995	-12.12
234.213	16.55
234.43	-1.88
234.648	14.51
234.865	57.51
235.083	26.79
235.3	53.42
235.518	14.51
235.735	-5.97
235.953	32.94
236.17	37.03
236.388	-16.21
236.605	-3.93
236.822	86.19
237.04	71.85
237.257	28.84
237.475	14.51
237.692	86.19
237.909	14.51
238.127	80.04
238.344	67.75
238.562	82.09
238.779	-8.02
238.996	-32.6
239.214	10.41
239.431	153.77
239.648	69.8
239.865	65.71
240.083	10.41
240.3	80.04
240.517	41.13
240.735	90.28
240.952	57.51
241.169	114.86
241.386	59.56
241.603	94.38
241.821	61.61
242.038	14.51
242.255	55.47
242.472	-32.6
242.689	10.41
242.907	28.84
243.124	73.9
243.341	0.17
243.558	55.47
243.775	94.38
243.992	-8.02
244.209	57.51
244.426	77.99
244.643	49.32
244.86	34.99
245.078	49.32
245.295	10.41
245.512	20.65
245.729	-18.26
245.946	92.33
246.163	61.61
246.38	65.71
246.597	26.79
246.814	22.7
247.031	67.75
247.248	43.18
247.464	4.27
247.681	32.94
247.898	75.95
248.115	69.8
248.332	65.71
248.549	100.52
248.766	80.04
248.983	-26.45
249.2	2.22
249.417	92.33
249.633	-8.02
249.85	32.94
250.067	-8.02
250.284	-22.36
250.501	6.31
250.717	0.17
250.934	-16.21
251.151	24.75
251.368	96.43
251.585	51.37
251.801	67.75
252.018	-59.22
252.235	57.51
252.451	-5.97
252.668	30.89
252.885	24.75
253.102	71.85
253.318	14.51
253.535	14.51
253.752	22.7
253.968	37.03
254.185	-40.79
254.401	18.6
254.618	24.75
254.835	69.8
255.051	-10.07
255.268	90.28
255.484	47.27
255.701	90.28
255.917	45.23
256.134	49.32
256.351	37.03
256.567	-36.69
256.784	32.94
257	-36.69
257.217	14.51
257.433	55.47
257.65	77.99
257.866	43.18
258.082	6.31
258.299	-1.88
258.515	47.27
258.732	37.03
258.948	-8.02
259.165	61.61
259.381	10.41
259.597	18.6
259.814	-10.07
260.03	-5.97
260.246	57.51
260.463	55.47
260.679	26.79
260.895	53.42
261.112	-3.93
261.328	71.85
261.544	92.33
261.761	90.28
261.977	69.8
262.193	45.23
262.409	30.89
262.626	-16.21
262.842	51.37
263.058	-3.93
263.274	57.51
263.49	-26.45
263.707	55.47
263.923	-46.93
264.139	12.46
264.355	61.61
264.571	4.27
264.787	82.09
265.004	53.42
265.22	-8.02
265.436	16.55
265.652	41.13
265.868	14.51
266.084	59.56
266.3	57.51
266.516	-3.93
266.732	47.27
266.948	-16.21
267.164	6.31
267.38	45.23
267.596	37.03
267.812	4.27
268.028	0.17
268.244	-40.79
268.46	37.03
268.676	-5.97
268.892	18.6
269.108	-91.99
269.324	30.89
269.54	-55.12
269.756	116.9
269.972	18.6
270.188	45.23
270.403	-22.36
270.619	-5.97
270.835	118.95
271.051	49.32
271.267	28.84
271.483	12.46
271.698	69.8
271.914	82.09
272.13	-5.97
272.346	4.27
272.562	20.65
272.777	104.62
272.993	-8.02
273.209	12.46
273.425	30.89
273.64	-1.88
273.856	37.03
274.072	24.75
274.287	-51.03
274.503	14.51
274.719	63.66
274.934	69.8
275.15	-14.17
275.366	67.75
275.581	-63.32
275.797	133.29
276.012	-1.88
276.228	-1.88
276.444	-28.5
276.659	39.08
276.875	59.56
277.09	16.55
277.306	22.7
277.521	39.08
277.737	6.31
277.952	34.99
278.168	116.9
278.383	6.31
278.599	53.42
278.814	8.36
279.03	28.84
279.245	67.75
279.461	12.46
279.676	30.89
279.892	84.14
280.107	73.9
280.322	-40.79
280.538	80.04
280.753	39.08
280.969	45.23
281.184	34.99
281.399	100.52
281.615	61.61
281.83	34.99
282.045	53.42
282.26	30.89
282.476	39.08
282.691	71.85
282.906	108.71
283.122	65.71
283.337	24.75
283.552	18.6
283.767	-61.27
283.983	37.03
284.198	20.65
284.413	94.38
284.628	4.27
284.843	16.55
285.058	6.31
285.274	18.6
285.489	14.51
285.704	55.47
285.919	47.27
286.134	-32.6
286.349	-46.93
286.564	-16.21
286.779	12.46
286.995	-10.07
287.21	-5.97
287.425	37.03
287.64	45.23
287.855	32.94
288.07	45.23
288.285	49.32
288.5	-79.7
288.715	106.67
288.93	6.31
289.145	8.36
289.36	-8.02
289.575	43.18
289.79	-1.88
290.004	32.94
290.219	69.8
290.434	77.99
290.649	0.17
290.864	45.23
291.079	73.9
291.294	-1.88
291.509	-24.4
291.724	6.31
291.938	47.27
292.153	2.22
292.368	43.18
292.583	61.61
292.798	8.36
293.012	104.62
293.227	45.23
293.442	45.23
293.657	49.32
293.871	-30.55
294.086	123.05
294.301	121
294.516	73.9
294.73	67.75
294.945	10.41
295.16	92.33
295.374	73.9
295.589	104.62
295.804	32.94
296.018	20.65
296.233	63.66
296.447	-3.93
296.662	16.55
296.877	98.47
297.091	63.66
297.306	12.46
297.52	39.08
297.735	114.86
297.949	32.94
298.164	-38.74
298.378	71.85
298.593	51.37
298.807	30.89
299.022	-10.07
299.236	57.51
299.451	86.19
299.665	45.23
299.88	53.42
300.094	57.51
300.309	-20.31
300.523	18.6
300.737	-3.93
300.952	51.37
301.166	55.47
301.381	-65.36
301.595	32.94
301.809	61.61
302.024	43.18
302.238	18.6
302.452	125.1
302.667	-8.02
302.881	51.37
303.095	67.75
303.309	8.36
303.524	55.47
303.738	37.03
303.952	14.51
304.166	71.85
304.381	55.47
304.595	82.09
304.809	57.51
305.023	22.7
305.237	67.75
305.452	12.46
305.666	51.37
305.88	37.03
306.094	32.94
306.308	116.9
306.522	18.6
306.736	37.03
306.95	104.62
307.164	-1.88
307.379	-12.12
307.593	92.33
307.807	8.36
308.021	51.37
308.235	49.32
308.449	8.36
308.663	12.46
308.877	12.46
309.091	47.27
309.305	96.43
309.519	4.27
309.733	49.32
309.947	32.94
310.161	47.27
310.374	61.61
310.588	65.71
310.802	-18.26
311.016	22.7
311.23	86.19
311.444	10.41
311.658	53.42
311.872	67.75
312.085	59.56
312.299	65.71
312.513	20.65
312.727	-96.08
312.941	39.08
313.154	137.38
313.368	39.08
313.582	10.41
313.796	-10.07
314.009	118.95
314.223	80.04
314.437	0.17
314.651	10.41
314.864	0.17
315.078	37.03
315.292	22.7
315.505	59.56
315.719	106.67
315.933	45.23
316.146	2.22
316.36	10.41
316.573	14.51
316.787	71.85
317.001	24.75
317.214	-20.31
317.428	14.51
317.641	12.46
317.855	24.75
318.068	55.47
318.282	37.03
318.495	59.56
318.709	39.08
318.922	0.17
319.136	22.7
319.349	49.32
319.563	-34.64
319.776	10.41
319.99	59.56
320.203	84.14
320.417	71.85
320.63	10.41
320.843	88.23
321.057	80.04
321.27	63.66
321.483	49.32
321.697	90.28
321.91	96.43
322.124	77.99
322.337	-12.12
322.55	41.13
322.763	86.19
322.977	82.09
323.19	41.13
323.403	65.71
323.617	86.19
323.83	121
324.043	41.13
324.256	-1.88
324.469	16.55
324.683	47.27
324.896	-79.7
325.109	45.23
325.322	-42.84
325.535	65.71
325.748	49.32
325.962	37.03
326.175	-71.51
326.388	49.32
326.601	55.47
326.814	59.56
327.027	41.13
327.24	47.27
327.453	-24.4
327.666	30.89
327.879	-5.97
328.092	73.9
328.305	69.8
328.518	45.23
328.731	6.31
328.944	92.33
329.157	77.99
329.37	73.9
329.583	47.27
329.796	51.37
330.009	49.32
330.222	14.51
330.435	32.94
330.648	67.75
330.861	-5.97
331.073	57.51
331.286	47.27
331.499	59.56
331.712	-53.08
331.925	37.03
332.138	-10.07
332.35	-14.17
332.563	10.41
332.776	39.08
332.989	59.56
333.202	75.95
333.414	18.6
333.627	34.99
333.84	67.75
334.053	-8.02
334.265	77.99
334.478	77.99
334.691	92.33
334.903	129.19
335.116	16.55
335.329	69.8
335.541	45.23
335.754	102.57
335.966	2.22
336.179	41.13
336.392	-14.17
336.604	86.19
336.817	49.32
337.029	71.85
337.242	45.23
337.454	43.18
337.667	45.23
337.88	84.14
338.092	61.61
338.305	34.99
338.517	41.13
338.729	129.19
338.942	32.94
339.154	65.71
339.367	51.37
339.579	104.62
339.792	20.65
340.004	22.7
340.217	34.99
340.429	0.17
340.641	43.18
340.854	0.17
341.066	37.03
341.278	-38.74
341.491	98.47
341.703	41.13
341.915	32.94
342.128	90.28
342.34	8.36
342.552	61.61
342.764	34.99
342.977	63.66
343.189	63.66
343.401	41.13
343.613	-20.31
343.826	28.84
344.038	24.75
344.25	49.32
344.462	20.65
344.674	51.37
344.886	63.66
345.099	-1.88
345.311	-3.93
345.523	-5.97
345.735	4.27
345.947	39.08
346.159	51.37
346.371	28.84
346.583	4.27
346.795	114.86
347.007	61.61
347.219	28.84
347.431	24.75
347.643	96.43
347.855	94.38
348.067	151.72
348.279	123.05
348.491	22.7
348.703	75.95
348.915	86.19
349.127	-12.12
349.339	39.08
349.551	65.71
349.763	39.08
349.975	14.51
350.187	61.61
350.399	59.56
350.61	88.23
350.822	30.89
351.034	61.61
351.246	55.47
351.458	77.99
351.669	63.66
351.881	41.13
352.093	37.03
352.305	51.37
352.517	82.09
352.728	176.3
352.94	-59.22
353.152	18.6
353.363	131.24
353.575	67.75
353.787	82.09
353.999	49.32
354.21	127.14
354.422	8.36
354.633	84.14
354.845	55.47
355.057	73.9
355.268	41.13
355.48	8.36
355.692	45.23
355.903	22.7
356.115	10.41
356.326	65.71
356.538	77.99
356.749	-16.21
356.961	51.37
357.172	22.7
357.384	88.23
357.595	32.94
357.807	20.65
358.018	94.38
358.23	80.04
358.441	82.09
358.653	22.7
358.864	24.75
359.075	28.84
359.287	-8.02
359.498	39.08
359.709	37.03
359.921	20.65
360.132	114.86
360.344	49.32
360.555	61.61
360.766	0.17
360.977	-8.02
361.189	67.75
361.4	45.23
361.611	55.47
361.823	63.66
362.034	61.61
362.245	53.42
362.456	69.8
362.667	57.51
362.879	80.04
363.09	37.03
363.301	123.05
363.512	34.99
363.723	-44.88
363.935	49.32
364.146	65.71
364.357	14.51
364.568	112.81
364.779	-8.02
364.99	41.13
365.201	24.75
365.412	104.62
365.623	-16.21
365.834	71.85
366.045	94.38
366.256	28.84
366.467	18.6
366.678	32.94
366.889	32.94
367.1	26.79
367.311	65.71
367.522	67.75
367.733	63.66
367.944	82.09
368.155	24.75
368.366	67.75
368.577	43.18
368.788	100.52
368.999	80.04
369.209	34.99
369.42	34.99
369.631	59.56
369.842	82.09
370.053	32.94
370.264	104.62
370.474	30.89
370.685	28.84
370.896	100.52
371.107	84.14
371.317	37.03
371.528	86.19
371.739	65.71
371.95	80.04
372.16	-1.88
372.371	2.22
372.582	8.36
372.792	59.56
373.003	65.71
373.214	84.14
373.424	104.62
373.635	-36.69
373.846	100.52
374.056	45.23
374.267	75.95
374.477	16.55
374.688	14.51
374.898	26.79
375.109	43.18
375.319	75.95
375.53	37.03
375.74	41.13
375.951	34.99
376.161	77.99
376.372	94.38
376.582	14.51
376.793	18.6
377.003	84.14
377.214	24.75
377.424	45.23
377.635	73.9
377.845	22.7
378.055	45.23
378.266	12.46
378.476	63.66
378.686	32.94
378.897	32.94
379.107	51.37
379.317	-12.12
379.528	55.47
379.738	34.99
379.948	92.33
380.158	116.9
380.369	77.99
380.579	30.89
380.789	32.94
380.999	55.47
381.21	75.95
381.42	57.51
381.63	22.7
381.84	88.23
382.05	24.75
382.261	61.61
382.471	98.47
382.681	39.08
382.891	98.47
383.101	6.31
383.311	-8.02
383.521	-3.93
383.731	104.62
383.941	0.17
384.151	55.47
384.361	73.9
384.571	-36.69
384.781	43.18
384.991	90.28
385.201	125.1
385.411	157.86
385.621	77.99
385.831	49.32
386.041	37.03
386.251	39.08
386.461	98.47
386.671	100.52
386.881	118.95
387.091	24.75
387.301	22.7
387.511	133.29
387.72	43.18
387.93	-10.07
388.14	6.31
388.35	55.47
388.56	30.89
388.769	47.27
388.979	30.89
389.189	18.6
389.399	71.85
389.609	77.99
389.818	59.56
390.028	57.51
390.238	112.81
390.447	22.7
390.657	59.56
390.867	61.61
391.076	30.89
391.286	166.06
391.496	82.09
391.705	30.89
391.915	155.82
392.125	67.75
392.334	55.47
392.544	28.84
392.753	92.33
392.963	0.17
393.172	75.95
393.382	94.38
393.591	34.99
393.801	37.03
394.01	131.24
394.22	121
394.429	108.71
394.639	39.08
394.848	116.9
395.058	86.19
395.267	110.76
395.477	98.47
395.686	116.9
395.895	96.43
396.105	211.11
396.314	84.14
396.524	94.38
396.733	108.71
396.942	104.62
397.152	125.1
397.361	151.72
397.57	69.8
397.78	73.9
397.989	4.27
398.198	94.38
398.407	166.06
398.617	39.08
398.826	114.86
399.035	100.52
399.244	100.52
399.453	34.99
399.663	94.38
399.872	153.77
400.081	73.9
400.29	192.68
400.499	102.57
400.708	133.29
400.917	135.34
401.127	67.75
401.336	147.62
401.545	204.97
401.754	22.7
401.963	106.67
402.172	67.75
402.381	51.37
402.59	139.43
402.799	116.9
403.008	147.62
403.217	94.38
403.426	133.29
403.635	149.67
403.844	84.14
404.053	104.62
404.262	73.9
404.471	196.78
404.68	112.81
404.888	149.67
405.097	118.95
405.306	112.81
405.515	161.96
405.724	161.96
405.933	174.25
406.142	129.19
406.35	223.4
406.559	98.47
406.768	145.58
406.977	198.82
407.185	186.54
407.394	172.2
407.603	106.67
407.812	245.93
408.02	217.26
408.229	196.78
408.438	155.82
408.646	202.92
408.855	219.3
409.064	168.1
409.272	213.16
409.481	225.45
409.69	207.02
409.898	239.78
410.107	274.6
410.315	260.26
410.524	225.45
410.733	301.22
410.941	286.89
411.15	395.43
411.358	278.69
411.567	399.52
411.775	401.57
411.984	387.24
412.192	370.85
412.401	405.67
412.609	448.68
412.818	360.61
413.026	346.28
413.234	463.01
413.443	460.96
413.651	471.2
413.86	557.22
414.068	528.55
414.276	544.93
414.485	540.83
414.693	538.79
414.901	592.03
415.11	645.28
415.318	661.66
415.526	598.18
415.734	571.55
415.943	667.81
416.151	690.34
416.359	694.43
416.567	708.77
416.776	743.58
416.984	772.25
417.192	833.69
417.4	825.5
417.608	813.21
417.817	911.52
418.025	919.71
418.233	940.19
418.441	1083.55
418.649	991.39
418.857	993.44
419.065	1091.74
419.273	1171.61
419.481	1169.56
419.689	1253.53
419.897	1261.72
420.105	1241.24
420.313	1183.9
420.521	1351.83
420.729	1329.3
420.937	1341.59
421.145	1452.18
421.353	1521.81
421.561	1654.93
421.769	1663.12
421.977	1642.64
422.185	1699.98
422.393	1767.57
422.601	1929.36
422.809	1890.45
423.017	1790.1
423.224	2064.52
423.432	2080.91
423.64	2087.05
423.848	2289.8
424.056	2162.83
424.263	2244.74
424.471	2369.67
424.679	2470.02
424.887	2533.51
425.094	2562.18
425.302	2699.39
425.51	2715.78
425.718	2814.08
425.925	2871.42
426.133	2939.01
426.341	3156.09
426.548	3246.2
426.756	3201.15
426.964	3215.48
427.171	3311.74
427.379	3582.07
427.586	3659.89
427.794	3778.67
428.001	3852.4
428.209	4139.12
428.417	3977.33
428.624	4253.8
428.832	4284.52
429.039	4208.75
429.247	4294.76
429.454	4751.46
429.662	4980.83
429.869	4647.01
430.076	5093.47
430.284	4812.9
430.491	5179.48
430.699	5453.91
430.906	5269.59
431.114	5460.06
431.321	5439.58
431.528	5734.48
431.736	6070.35
431.943	6443.08
432.15	6078.54
432.358	6336.59
432.565	6639.69
432.772	6588.49
432.979	7100.48
433.187	6987.84
433.394	7141.44
433.601	7551.03
433.808	7675.96
434.016	7514.17
434.223	7831.6
434.43	8286.25
434.637	8312.88
434.844	8833.06
435.052	8814.63
435.259	8968.23
435.466	8837.16
435.673	8745
435.88	9502.75
436.087	9822.23
436.294	9736.21
436.501	9553.94
436.708	9992.21
436.915	10276.88
437.122	10604.55
437.329	10479.63
437.537	11067.39
437.743	11296.77
437.95	10813.45
438.157	11374.59
438.364	12017.65
438.571	11993.08
438.778	12013.56
438.985	13162.47
439.192	12853.22
439.399	12931.05
439.606	12900.33
439.813	13508.57
440.02	14383.06
440.227	14348.24
440.433	14079.96
440.64	14272.46
440.847	14307.28
441.054	14657.48
441.261	15536.06
441.467	15706.04
441.674	15955.9
441.881	16304.05
442.088	16408.5
442.294	16392.11
442.501	16588.72
442.708	16938.92
442.914	17313.7
443.121	18192.28
443.328	18024.34
443.534	19222.41
443.741	18530.19
443.948	18116.5
444.154	19371.91
444.361	19570.56
444.568	19683.2
444.774	19486.59
444.981	19967.87
445.187	20567.92
445.394	20928.36
445.6	21161.83
445.807	22943.56
446.013	22097.75
446.22	22507.35
446.426	23293.77
446.633	23459.65
446.839	24254.26
447.046	23326.53
447.252	24936.24
447.459	24432.44
447.665	24766.26
447.871	25765.67
448.078	26771.22
448.284	25800.48
448.491	26246.94
448.697	27418.38
448.903	27612.93
449.11	27895.55
449.316	27537.16
449.522	27901.7
449.728	28462.84
449.935	28978.93
450.141	28665.59
450.347	29429.48
450.553	28346.11
450.76	28692.21
450.966	30064.35
451.172	29523.69
451.378	30156.51
451.584	29558.5
451.791	30099.17
451.997	30193.37
452.203	31055.57
452.409	30605.02
452.615	30858.96
452.821	29499.11
453.027	29320.94
453.233	30523.1
453.44	29619.94
453.646	29804.26
453.852	30101.22
454.058	30480.09
454.264	29505.26
454.47	30220
454.676	29361.9
454.882	30183.13
455.088	28096.25
455.294	28032.77
455.5	28602.1
455.705	28925.68
455.911	27619.08
456.117	27225.87
456.323	26793.75
456.529	25362.22
456.735	26318.62
456.941	25958.17
457.147	25378.6
457.352	24493.88
457.558	24469.3
457.764	24569.65
457.97	24104.76
458.176	23476.04
458.381	23224.14
458.587	22296.41
458.793	22644.56
458.999	21088.1
459.204	22804.3
459.41	21968.73
459.616	20545.39
459.821	20692.85
460.027	20434.8
460.233	20019.07
460.438	19111.82
460.644	19302.28
460.85	18581.39
461.055	18120.6
461.261	18089.88
461.466	16742.32
461.672	16299.95
461.878	17217.44
462.083	16363.44
462.289	15802.3
462.494	15671.23
462.7	15069.12
462.905	14743.5
463.111	15194.05
463.316	15286.21
463.522	14954.44
463.727	14798.79
463.932	15087.56
464.138	14673.87
464.343	14841.8
464.549	14311.38
464.754	14962.63
464.959	14637
465.165	14694.35
465.37	14026.71
465.575	13717.47
465.781	14188.5
465.986	14176.21
466.191	13619.16
466.397	13633.5
466.602	12822.5
466.807	13481.95
467.012	13377.5
467.218	13250.53
467.423	13010.92
467.628	13184.99
467.833	13635.55
468.038	13338.59
468.244	12881.89
468.449	13445.09
468.654	12898.28
468.859	12904.42
469.064	12904.42
469.269	12171.25
469.474	12408.81
469.679	12503.02
469.885	12222.45
470.09	12374
470.295	12236.78
470.5	12144.63
470.705	12163.06
470.91	11915.25
471.115	11679.74
471.32	11931.64
471.525	11669.5
471.73	11587.58
471.935	11530.23
472.139	11145.22
472.344	11173.89
472.549	11134.98
472.754	11120.64
472.959	10694.66
473.164	10575.88
473.369	10436.62
473.574	10801.16
473.778	10704.9
473.983	10549.26
474.188	10477.58
474.393	10330.13
474.598	10029.07
474.802	9947.15
475.007	10139.66
475.212	9945.11
475.417	9515.03
475.621	9541.66
475.826	9898
476.031	9416.73
476.235	9259.04
476.44	9619.48
476.645	9123.87
476.849	9173.02
477.054	8951.84
477.259	9025.57
477.463	9025.57
477.668	8783.91
477.872	8953.89
478.077	8646.69
478.282	8339.5
478.486	8570.92
478.691	8359.98
478.895	8513.58
479.1	8448.04
479.304	8312.88
479.509	8044.59
479.713	8165.42
479.918	8190
480.122	7860.27
480.326	7905.33
480.531	8046.64
480.735	7821.36
480.94	7784.5
481.144	8091.7
481.348	7671.86
481.553	7964.72
481.757	7655.48
481.961	7864.37
482.166	8036.4
482.37	7659.57
482.574	7669.81
482.778	7729.2
482.983	7890.99
483.187	7485.5
483.391	7747.64
483.595	7682.1
483.8	7706.68
484.004	7833.65
484.208	7841.84
484.412	7692.34
484.616	7626.81
484.821	7761.97
485.025	7774.26
485.229	7725.11
485.433	7630.9
485.637	7630.9
485.841	7667.77
486.045	7700.53
486.249	7671.86
486.453	7567.42
486.657	7661.62
486.861	7886.9
487.065	7538.74
487.269	7784.5
487.473	7428.15
487.677	7856.18
487.881	7919.67
488.085	7747.64
488.289	7702.58
488.493	7518.26
488.697	7739.44
488.901	7733.3
489.105	7706.68
489.309	7553.08
489.512	7864.37
489.716	8073.26
489.92	7727.16
490.124	7561.27
490.328	7845.94
490.531	7905.33
490.735	7833.65
490.939	7823.41
491.143	7964.72
491.346	7923.76
491.55	7929.91
491.754	7972.91
491.958	7991.34
492.161	8181.81
492.365	8126.51
492.569	8099.89
492.772	7968.82
492.976	8081.46
493.18	8134.7
493.383	8310.83
493.587	8351.79
493.79	8456.23
493.994	8382.51
494.197	8325.16
494.401	8620.07
494.605	8462.38
494.808	8742.95
495.012	8628.26
495.215	8898.59
495.419	8706.09
495.622	8759.33
495.825	9011.23
496.029	8800.29
496.232	8904.74
496.436	8980.51
496.639	9443.35
496.843	9283.61
497.046	9533.47
497.249	9644.06
497.453	9451.55
497.656	9678.87
497.859	9613.34
498.063	9664.54
498.266	9818.13
498.469	9908.24
498.673	10100.75
498.876	10057.75
499.079	10332.17
499.282	10403.85
499.485	10594.31
499.689	10467.34
499.892	10936.32
500.095	10649.61
500.298	10874.88
500.501	10786.82
500.705	11229.18
500.908	11085.83
501.111	11374.59
501.314	11397.12
501.517	11571.19
501.72	11902.97
501.923	11894.77
502.126	11755.51
502.329	12410.86
502.532	12310.51
502.735	12339.18
502.938	12709.86
503.141	12670.95
503.344	12853.22
503.547	12742.63
503.75	13152.23
503.953	13264.86
504.156	13273.06
504.359	13238.24
504.562	13754.33
504.765	13746.14
504.968	13815.77
505.17	14102.48
505.373	14266.32
505.576	14405.58
505.779	14536.65
505.982	14651.34
506.185	14716.87
506.387	15028.17
506.59	14895.05
506.793	15398.85
506.996	15294.4
507.198	15740.86
507.401	15630.27
507.604	15853.5
507.807	16207.8
508.009	16140.21
508.212	16043.96
508.415	16564.14
508.617	16705.45
508.82	17057.7
509.022	16697.26
509.225	17235.88
509.428	17117.09
509.63	17555.36
509.833	17631.13
510.035	18147.22
510.238	17827.74
510.44	18220.95
510.643	18419.6
510.845	18472.85
511.048	18433.94
511.25	18939.79
511.453	18704.27
511.655	19781.5
511.858	19128.2
512.06	19449.73
512.262	19773.31
512.465	19758.97
512.667	19996.54
512.87	20266.87
513.072	20242.29
513.274	20535.15
513.477	20893.55
513.679	20875.12
513.881	21282.66
514.084	21354.34
514.286	21567.33
514.488	21643.1
514.69	22009.69
514.893	22312.79
515.095	22007.64
515.297	22474.58
515.499	22558.55
515.701	22685.52
515.904	22902.61
516.106	23244.62
516.308	23543.62
516.51	23770.94
516.712	23803.71
516.914	24033.08
517.116	24444.73
517.318	24414.01
517.52	24880.94
517.722	24891.18
517.925	25214.76
518.127	25220.91
518.329	25407.27
518.531	25538.34
518.733	25816.86
518.935	26216.22
519.136	26324.76
519.338	26392.34
519.54	26412.82
519.742	27021.07
519.944	27033.36
520.146	27344.65
520.348	27813.63
520.55	27340.55
520.752	27846.4
520.954	28129.02
521.155	27954.94
521.357	28808.95
521.559	28741.36
521.761	29275.88
521.963	29204.21
522.164	29273.84
522.366	29595.37
522.568	29578.98
522.77	30123.74
522.971	30480.09
523.173	29925.09
523.375	30426.84
523.576	30711.51
523.778	30662.36
523.98	31135.44
524.181	31336.14
524.383	30979.79
524.584	31672.01
524.786	31575.75
524.988	31438.54
525.189	31641.29
525.391	31948.48
525.592	32435.9
525.794	32411.32
525.995	32716.47
526.197	32532.15
526.398	32878.26
526.6	32822.97
526.801	33117.87
527.003	33294
527.204	33203.89
527.406	33134.26
527.607	33404.59
527.808	33681.06
528.01	33250.99
528.211	33461.93
528.412	34186.91
528.614	34322.08
528.815	34152.1
529.016	34442.91
529.218	33738.41
529.419	34582.17
529.62	33996.45
529.822	34342.56
530.023	34461.34
530.224	34555.55
530.425	34367.13
530.626	34293.41
530.828	34338.46
531.029	35202.71
531.23	34510.49
531.431	34764.44
531.632	35077.78
531.833	35305.1
532.035	35028.63
532.236	35053.2
532.437	35391.12
532.638	34969.24
532.839	35235.47
533.04	35362.45
533.241	34991.76
533.442	35690.12
533.643	35444.37
533.844	35399.31
534.045	35380.88
534.246	35153.55
534.447	35681.93
534.648	35235.47
534.849	35470.99
535.05	35346.06
535.251	35610.25
535.451	35552.91
535.652	35731.08
535.853	35729.03
536.054	35866.25
536.255	35782.28
536.456	35280.53
536.657	35706.51
536.857	35440.27
537.058	35286.67
537.259	35677.83
537.46	35769.99
537.66	35401.36
537.861	35557
538.062	35563.15
538.263	35557
538.463	35550.86
538.664	35268.24
538.865	35792.52
539.065	35810.95
539.266	35425.93
539.466	35794.57
539.667	35286.67
539.868	35813
540.068	35532.43
540.269	35505.8
540.469	35753.61
540.67	35622.54
540.87	35751.56
541.071	35554.96
541.271	36054.66
541.472	35618.44
541.672	35415.69
541.873	35524.24
542.073	34985.62
542.274	35636.87
542.474	35315.34
542.675	35360.4
542.875	35796.62
543.075	35497.61
543.276	35239.57
543.476	35411.6
543.676	35286.67
543.877	35706.51
544.077	35301.01
544.277	35479.18
544.478	35317.39
544.678	35632.78
544.878	35395.21
545.078	35491.47
545.279	35047.06
545.479	35128.98
545.679	35616.4
545.879	35284.62
546.079	35413.65
546.28	35280.53
546.48	35124.88
546.68	35524.24
546.88	35186.32
547.08	35116.69
547.28	35176.08
547.48	34764.44
547.68	35251.86
547.88	35065.49
548.081	35098.26
548.281	35305.1
548.481	35432.08
548.681	35677.83
548.881	35327.63
549.081	35493.52
549.28	34942.61
549.48	35485.33
549.68	34780.82
549.88	35085.97
550.08	34829.98
550.28	35067.54
550.48	34825.88
550.68	35319.44
550.88	34907.8
551.08	34920.09
551.279	34922.13
551.479	34703
551.679	34776.73
551.879	34965.14
552.079	35067.54
552.278	35051.16
552.478	34922.13
552.678	34754.2
552.878	35116.69
553.077	34811.54
553.277	34819.74
553.477	35077.78
553.676	34746.01
553.876	34846.36
554.076	34854.55
554.275	34625.18
554.475	34307.74
554.674	34743.96
554.874	34625.18
555.074	34555.55
555.273	34799.26
555.473	34793.11
555.672	34418.33
555.872	34311.84
556.071	34598.55
556.271	34870.93
556.47	34602.65
556.67	34229.92
556.869	34469.53
557.068	34293.41
557.268	34135.71
557.467	34557.6
557.667	34121.38
557.866	34375.33
558.065	33986.21
558.265	33853.09
558.464	33982.12
558.663	33992.36
558.863	33472.17
559.062	34180.77
559.261	33687.21
559.461	34266.78
559.66	33646.25
559.859	33726.12
560.058	33695.4
560.258	33916.58
560.457	33533.61
560.656	33697.45
560.855	33629.87
561.054	33740.46
561.253	33271.47
561.453	33226.42
561.652	33445.55
561.851	33605.29
562.05	33081.01
562.249	33023.67
562.448	33449.64
562.647	33027.76
562.846	33066.67
563.045	33302.19
563.244	32702.14
563.443	33289.9
563.642	32779.96
563.841	32796.34
564.04	32722.62
564.239	33076.91
564.438	32425.66
564.637	32470.72
564.836	32634.55
565.035	32216.77
565.234	32413.37
565.432	31975.11
565.631	32374.46
565.83	32274.11
566.029	31846.08
566.228	32075.46
566.427	31833.8
566.625	31747.78
566.824	31770.31
567.023	32149.18
567.222	31387.34
567.42	31893.19
567.619	31516.36
567.818	31463.11
568.016	31303.37
568.215	31465.16
568.414	31106.77
568.612	31256.27
568.811	31200.97
569.01	31178.45
569.208	30832.34
569.407	31413.96
569.605	30549.72
569.804	30977.75
570.002	30725.85
570.201	30813.91
570.4	30576.34
570.598	30392.03
570.797	30451.42
570.995	30451.42
571.193	30277.34
571.392	30369.5
571.59	29908.71
571.789	30060.26
571.987	30191.33
572.186	29851.36
572.384	29929.19
572.582	30027.49
572.781	29894.37
572.979	29615.85
573.177	29605.61
573.376	29603.56
573.574	29519.59
573.772	29275.88
573.971	29320.94
574.169	29126.38
574.367	28661.49
574.565	29380.33
574.763	29112.05
574.962	29009.65
575.16	28481.27
575.358	28983.02
575.556	28421.88
575.754	28845.81
575.952	28464.89
576.151	28681.97
576.349	28645.11
576.547	28225.28
576.745	28342.01
576.943	28417.79
577.141	28098.3
577.339	28397.31
577.537	28155.65
577.735	28026.62
577.933	27694.85
578.131	28124.93
578.329	27408.14
578.527	27277.07
578.725	27621.13
578.923	27932.42
579.121	27211.53
579.319	27457.29
579.516	27469.58
579.714	27107.09
579.912	27152.14
580.11	27189
580.308	26834.71
580.506	26969.87
580.704	26789.65
580.901	27055.89
581.099	26750.74
581.297	26650.39
581.495	26537.75
581.692	26550.04
581.89	26445.59
582.088	26664.72
582.285	26550.04
582.483	26537.75
582.681	26130.2
582.878	26330.9
583.076	25888.54
583.274	26316.57
583.471	25757.47
583.669	26007.33
583.866	25698.08
584.064	26029.85
584.262	25485.09
584.459	25976.61
584.657	25511.72
584.854	25851.68
585.052	25081.64
585.249	25397.03
585.447	25354.02
585.644	25175.85
585.841	25274.15
586.039	25300.78
586.236	24971.05
586.434	25016.11
586.631	24799.02
586.828	24985.39
587.026	24958.77
587.223	24747.83
587.42	24493.88
587.618	24440.63
587.815	24457.01
588.012	24649.52
588.21	24303.42
588.407	24487.73
588.604	24203.07
588.801	24176.44
588.999	24143.67
589.196	23928.64
589.393	24076.09
589.59	23910.21
589.787	23719.74
589.984	23543.62
590.182	23547.72
590.379	23840.57
590.576	23588.67
590.773	23437.13
590.97	23308.1
591.167	23455.56
591.364	23048.01
591.561	23484.23
591.758	22769.49
591.955	22832.97
592.152	23146.31
592.349	22800.21
592.546	23013.2
592.743	22818.64
592.94	22558.55
593.137	22706
593.334	23156.55
593.531	22556.5
593.727	22613.84
593.924	22230.87
594.121	22204.25
594.318	22581.07
594.515	21960.54
594.712	22349.65
594.908	21972.83
595.105	21913.44
595.302	22099.8
595.499	21995.36
595.696	21927.77
595.892	21874.52
596.089	21804.89
596.286	21739.36
596.482	21401.44
596.679	21567.33
596.876	21790.56
597.072	21407.59
597.269	21667.68
597.466	21262.18
597.662	21022.57
597.859	21272.42
598.055	21190.5
598.252	21045.1
598.448	21043.05
598.645	20809.58
598.841	20666.22
599.038	20907.88
599.234	20752.24
599.431	20670.32
599.627	20399.99
599.824	20645.74
600.02	20494.19
600.217	20590.45
600.413	20512.63
600.609	20477.81
600.806	20486
601.002	20215.67
601.198	20133.75
601.395	19922.81
601.591	20146.04
601.787	20250.49
601.984	19838.84
602.18	19808.12
602.376	19507.07
602.572	19883.9
602.769	19572.61
602.965	19451.78
603.161	19621.76
603.357	19322.76
603.553	19431.3
603.75	19429.25
603.946	18995.08
604.142	19433.35
604.338	19138.44
604.534	19277.7
604.73	19062.66
604.926	18898.83
605.122	19165.06
605.318	19027.85
605.514	18618.25
605.71	18737.04
605.906	19111.82
606.102	18907.02
606.298	18732.94
606.494	18669.45
606.69	18446.23
606.886	18569.1
607.082	18435.99
607.278	18786.19
607.474	18446.23
607.67	18534.29
607.866	17971.1
608.062	18335.63
608.257	18098.07
608.453	18167.7
608.649	18239.38
608.845	18223
609.041	18050.97
609.236	17827.74
609.432	17938.33
609.628	18151.32
609.824	17690.52
610.019	18139.03
610.215	17921.95
610.411	17917.85
610.606	17866.65
610.802	17817.5
610.998	17792.92
611.193	17760.16
611.389	17608.61
611.584	17526.69
611.78	17385.38
611.976	17481.63
612.171	17575.84
612.367	17680.28
612.562	17588.13
612.758	17147.81
612.953	17178.53
613.149	17504.16
613.344	17233.83
613.539	17260.45
613.735	17250.21
613.93	17153.96
614.126	17170.34
614.321	17334.18
614.517	17096.61
614.712	16920.49
614.907	17168.29
615.103	17186.72
615.298	16986.02
615.493	16990.12
615.688	16719.79
615.884	17166.24
616.079	16766.89
616.274	16652.2
616.47	16576.43
616.665	16715.69
616.86	16836.52
617.055	16684.97
617.25	16717.74
617.445	16775.08
617.641	16365.49
617.836	16519.09
618.031	16119.73
618.226	16572.33
618.421	16443.31
618.616	16543.66
618.811	16375.73
619.006	16336.82
619.201	15970.23
619.396	16254.9
619.591	15824.83
619.786	16193.46
619.981	15890.36
620.176	16031.67
620.371	15783.87
620.566	15663.04
620.761	15855.54
620.956	15767.48
621.151	15456.19
621.346	15448
621.541	15052.74
621.735	15491.01
621.93	15056.84
622.125	15214.53
622.32	14884.81
622.515	14979.01
622.709	14923.72
622.904	14993.35
623.099	14819.27
623.294	14698.44
623.488	14733.26
623.683	14798.79
623.878	14338
624.072	14401.49
624.267	14391.25
624.462	14411.73
624.656	14039
624.851	14088.15
625.046	14104.53
625.24	14073.81
625.435	13662.17
625.629	13684.7
625.824	13893.59
626.018	13830.1
626.213	13508.57
626.407	13664.22
626.602	13238.24
626.796	13625.31
626.991	13195.23
627.185	13260.77
627.38	12984.29
627.574	13062.12
627.768	13021.16
627.963	12967.91
628.157	12742.63
628.352	12765.16
628.546	12640.23
628.74	12685.29
628.935	12666.86
629.129	12443.63
629.323	12427.25
629.517	12445.68
629.712	12234.74
629.906	12242.93
630.1	12122.1
630.294	12136.43
630.489	12242.93
630.683	12249.07
630.877	11816.95
631.071	11988.98
631.265	11845.62
631.459	11724.79
631.653	11620.35
631.848	11673.59
632.042	11669.5
632.236	11374.59
632.43	11259.9
632.624	11372.54
632.818	11366.4
633.012	11208.7
633.206	11120.64
633.4	11264
633.594	11061.25
633.788	11112.45
633.982	11218.94
634.176	11104.26
634.369	10958.85
634.563	10981.38
634.757	10747.91
634.951	10573.83
635.145	10534.92
635.339	10602.5
635.533	10405.9
635.726	10504.2
635.92	10403.85
636.114	10430.48
636.308	10391.56
636.501	10426.38
636.695	10391.56
636.889	10082.32
637.083	9998.35
637.276	10295.31
637.47	10094.61
637.664	9807.89
637.857	10104.85
638.051	9957.39
638.244	9590.81
638.438	9760.79
638.632	9717.78
638.825	9650.2
639.019	9709.59
639.212	9416.73
639.406	9488.41
639.599	9515.03
639.793	9568.28
639.986	9265.18
640.18	9267.23
640.373	9265.18
640.567	9283.61
640.76	9142.3
640.954	9050.14
641.147	9003.04
641.34	9150.5
641.534	9056.29
641.727	8953.89
641.92	8783.91
642.114	9000.99
642.307	8818.72
642.5	8706.09
642.694	8568.87
642.887	8542.25
643.08	8636.45
643.273	8484.91
643.467	8468.52
643.66	8368.17
643.853	8400.94
644.046	8294.44
644.239	8306.73
644.432	8269.87
644.626	8249.39
644.819	8108.08
645.012	8144.94
645.205	8267.82
645.398	7948.34
645.591	7888.95
645.784	8110.13
645.977	7931.95
646.17	7989.3
646.363	7739.44
646.556	7573.56
646.749	7708.73
646.942	7917.62
647.135	7721.01
647.328	7804.98
647.521	7702.58
647.714	7602.23
647.907	7559.22
648.099	7606.33
648.292	7452.73
648.485	7651.38
648.678	7372.86
648.871	7374.91
649.064	7364.67
649.256	7430.2
649.449	7350.33
649.642	7104.57
649.835	7301.18
650.027	7030.85
650.22	7059.52
650.413	7075.9
650.605	7102.53
650.798	7075.9
650.991	6975.55
651.183	6914.11
651.376	6748.23
651.568	6885.44
651.761	6711.36
651.954	6848.58
652.146	6774.85
652.339	6838.34
652.531	6746.18
652.724	6692.93
652.916	6561.86
653.109	6420.55
653.301	6621.25
653.494	6584.39
653.686	6357.07
653.879	6471.75
654.071	6260.81
654.263	6436.94
654.456	6193.23
654.648	6363.21
654.84	6176.84
655.033	6148.17
655.225	6189.13
655.417	6129.74
655.61	6172.75
655.802	6215.76
655.994	6004.82
656.186	6164.56
656.379	5988.43
656.571	5761.11
656.763	5935.18
656.955	5849.17
657.148	6000.72
657.34	5865.55
657.532	5689.43
657.724	5779.54
657.916	5754.96
658.108	5644.37
658.3	5808.21
658.492	5691.48
658.684	5415
658.876	5548.12
659.068	5498.97
659.26	5498.97
659.452	5615.7
659.644	5431.38
659.836	5423.19
660.028	5527.64
660.22	5464.15
660.412	5234.78
660.604	5298.27
660.796	5187.68
660.988	5337.18
661.18	5116
661.372	5294.17
661.563	5275.74
661.755	5019.74
661.947	5023.84
662.139	5097.56
662.331	5173.34
662.522	5245.02
662.714	4982.88
662.906	5044.32
663.097	5019.74
663.289	5148.76
663.481	4849.76
663.673	4870.24
663.864	5029.98
664.056	5062.75
664.247	4911.2
664.439	4800.61
664.631	4816.99
664.822	4853.86
665.014	4884.58
665.205	4794.47
665.397	4739.17
665.588	4724.83
665.78	4587.62
665.971	4786.27
666.163	4642.92
666.354	4567.14
666.546	4624.48
666.737	4681.83
666.929	4610.15
667.12	4704.35
667.311	4552.81
667.503	4515.94
667.694	4618.34
667.885	4524.13
668.077	4532.33
668.268	4446.31
668.459	4474.98
668.651	4296.81
668.842	4436.07
669.033	4335.72
669.224	4270.19
669.416	4423.78
669.607	4425.83
669.798	4192.36
669.989	4245.61
670.18	4391.02
670.371	4243.56
670.563	4118.64
670.754	4233.32
670.945	4214.89
671.136	4266.09
671.327	4175.98
671.518	4006
671.709	4092.01
671.9	4059.24
672.091	4063.34
672.282	4089.96
672.473	3956.85
672.664	4053.1
672.855	3979.37
673.046	3989.61
673.237	4026.48
673.428	4036.72
673.619	4040.81
673.809	3881.07
674	3993.71
674.191	3879.02
674.382	3922.03
674.573	3944.56
674.764	3946.61
674.954	3883.12
675.145	3883.12
675.336	3813.49
675.527	3879.02
675.717	3895.41
675.908	3934.32
676.099	3903.6
676.289	3858.54
676.48	3776.63
676.671	3782.77
676.861	3932.27
677.052	3803.25
677.243	3876.98
677.433	3709.04
677.624	3625.08
677.814	3854.45
678.005	3737.71
678.195	3725.43
678.386	3780.72
678.576	3713.14
678.767	3815.54
678.957	3842.16
679.148	3750
679.338	3592.31
679.529	3686.51
679.719	3643.51
679.909	3727.47
680.1	3635.32
680.29	3528.82
680.481	3684.47
680.671	3633.27
680.861	3627.12
681.052	3528.82
681.242	3631.22
681.432	3586.16
681.622	3541.11
681.813	3625.08
682.003	3477.62
682.193	3479.67
682.383	3508.34
682.573	3647.6
682.764	3510.39
682.954	3537.01
683.144	3620.98
683.334	3391.61
683.524	3633.27
683.714	3448.95
683.904	3442.81
684.094	3352.7
684.284	3487.86
684.474	3539.06
684.664	3436.66
684.854	3448.95
685.044	3465.33
685.234	3397.75
685.424	3371.13
685.614	3434.61
685.804	3422.33
685.994	3534.96
686.184	3377.27
686.374	3412.09
686.564	3362.94
686.753	3256.44
686.943	3201.15
687.133	3391.61
687.323	3373.18
687.513	3354.74
687.702	3311.74
687.892	3367.03
688.082	3172.47
688.272	3270.78
688.461	3186.81
688.651	3283.06
688.841	3047.55
689.03	3180.67
689.22	3205.24
689.41	3158.14
689.599	3164.28
689.789	3182.71
689.979	3033.21
690.168	3084.41
690.358	2967.68
690.547	3010.68
690.737	3057.79
690.926	3010.68
691.116	3027.07
691.305	3031.16
691.495	3051.64
691.684	2793.6
691.874	3004.54
692.063	2951.29
692.252	3008.64
692.442	3055.74
692.631	2844.8
692.82	2902.14
693.01	2900.09
693.199	2865.28
693.388	2889.85
693.578	2900.09
693.767	2842.75
693.956	2916.48
694.146	2826.37
694.335	2801.79
694.524	2836.61
694.713	2750.59
694.902	2736.26
695.092	2908.29
695.281	2814.08
695.47	2676.87
695.659	2764.93
695.848	2635.91
696.037	2775.17
696.226	2762.88
696.415	2697.35
696.604	2812.03
696.793	2615.43
696.982	2701.44
697.171	2738.3
697.36	2740.35
697.549	2607.23
697.738	2640
697.927	2691.2
698.116	2658.43
698.305	2809.98
698.494	2623.62
698.683	2730.11
698.872	2652.29
699.061	2662.53
699.25	2701.44
699.438	2693.25
699.627	2705.54
699.816	2719.87
700.005	2689.15
700.193	2642.05
700.382	2693.25
700.571	2625.67
700.76	2562.18
700.948	2654.34
701.137	2650.24
701.326	2691.2
701.514	2539.65
701.703	2654.34
701.892	2547.84
702.08	2599.04
702.269	2551.94
702.457	2517.12
702.646	2709.63
702.834	2578.56
703.023	2603.14
703.212	2607.23
703.4	2656.39
703.589	2578.56
703.777	2572.42
703.965	2580.61
704.154	2609.28
704.342	2648.19
704.531	2615.43
704.719	2523.27
704.907	2553.99
705.096	2601.09
705.284	2488.45
705.472	2537.6
705.661	2510.98
705.849	2652.29
706.037	2502.79
706.226	2513.03
706.414	2646.15
706.602	2556.04
706.79	2615.43
706.979	2510.98
707.167	2564.23
707.355	2543.75
707.543	2640
707.731	2711.68
707.919	2459.78
708.107	2558.08
708.296	2523.27
708.484	2597
708.672	2537.6
708.86	2549.89
709.048	2508.93
709.236	2574.47
709.424	2537.6
709.612	2680.96
709.8	2623.62
709.988	2660.48
710.176	2558.08
710.364	2578.56
710.551	2586.76
710.739	2572.42
710.927	2547.84
711.115	2496.64
711.303	2576.52
711.491	2701.44
711.679	2547.84
711.866	2562.18
712.054	2607.23
712.242	2599.04
712.43	2703.49
712.617	2625.67
712.805	2465.93
712.993	2560.13
713.181	2543.75
713.368	2551.94
713.556	2597
713.744	2424.97
713.931	2551.94
714.119	2654.34
714.306	2560.13
714.494	2689.15
714.682	2609.28
714.869	2523.27
715.057	2541.7
715.244	2666.63
715.432	2717.83
715.619	2568.32
715.807	2478.21
715.994	2744.45
716.182	2543.75
716.369	2627.71
716.556	2691.2
716.744	2613.38
716.931	2656.39
717.119	2560.13
717.306	2572.42
717.493	2654.34
717.681	2582.66
717.868	2510.98
718.055	2586.76
718.242	2607.23
718.43	2652.29
718.617	2756.74
718.804	2642.05
718.991	2683.01
719.179	2789.5
719.366	2769.02
719.553	2654.34
719.74	2576.52
719.927	2580.61
720.114	2644.1
720.301	2605.19
720.488	2613.38
720.676	2676.87
720.863	2572.42
721.05	2683.01
721.237	2707.59
721.424	2805.89
721.611	2699.39
721.798	2644.1
721.985	2611.33
722.172	2541.7
722.358	2592.9
722.545	2625.67
722.732	2642.05
722.919	2553.99
723.106	2650.24
723.293	2672.77
723.48	2553.99
723.667	2642.05
723.853	2539.65
724.04	2691.2
724.227	2572.42
724.414	2693.25
724.6	2629.76
724.787	2683.01
724.974	2519.17
725.161	2640
725.347	2609.28
725.534	2611.33
725.72	2670.72
725.907	2646.15
726.094	2664.58
726.28	2635.91
726.467	2601.09
726.653	2629.76
726.84	2599.04
727.027	2613.38
727.213	2652.29
727.4	2803.84
727.586	2773.12
727.773	2605.19
727.959	2631.81
728.145	2652.29
728.332	2621.57
728.518	2687.11
728.705	2728.07
728.891	2617.47
729.077	2576.52
729.264	2642.05
729.45	2703.49
729.636	2668.67
729.823	2531.46
730.009	2683.01
730.195	2617.47
730.382	2703.49
730.568	2635.91
730.754	2654.34
730.94	2537.6
731.126	2664.58
731.313	2615.43
731.499	2599.04
731.685	2820.22
731.871	2660.48
732.057	2699.39
732.243	2756.74
732.429	2623.62
732.615	2642.05
732.801	2683.01
732.987	2789.5
733.173	2627.71
733.359	2697.35
733.545	2592.9
733.731	2689.15
733.917	2629.76
734.103	2527.36
734.289	2723.97
734.475	2691.2
734.661	2719.87
734.847	2732.16
735.033	2578.56
735.219	2597
735.404	2488.45
735.59	2588.8
735.776	2564.23
735.962	2723.97
736.148	2674.82
736.333	2625.67
736.519	2621.57
736.705	2699.39
736.89	2609.28
737.076	2545.8
737.262	2547.84
737.447	2549.89
737.633	2523.27
737.819	2676.87
738.004	2496.64
738.19	2646.15
738.375	2494.6
738.561	2590.85
738.747	2615.43
738.932	2590.85
739.118	2553.99
739.303	2476.16
739.489	2635.91
739.674	2568.32
739.859	2394.25
740.045	2443.4
740.23	2519.17
740.416	2379.91
740.601	2527.36
740.786	2459.78
740.972	2465.93
741.157	2365.57
741.342	2562.18
741.528	2474.12
741.713	2439.3
741.898	2453.64
742.084	2500.74
742.269	2414.73
742.454	2463.88
742.639	2521.22
742.824	2375.81
743.01	2420.87
743.195	2359.43
743.38	2347.14
743.565	2375.81
743.75	2459.78
743.935	2259.08
744.12	2377.86
744.305	2285.7
744.49	2357.38
744.675	2222.22
744.86	2277.51
745.045	2164.87
745.23	2291.85
745.415	2195.59
745.6	2312.33
745.785	2220.17
745.97	2279.56
746.155	2189.45
746.34	2150.54
746.525	2289.8
746.71	2187.4
746.895	2125.96
747.079	2125.96
747.264	2171.02
747.449	2128.01
747.634	2187.4
747.819	2109.58
748.003	2087.05
748.188	2076.81
748.373	2015.37
748.557	1986.7
748.742	2080.91
748.927	2025.61
749.111	2029.71
749.296	1921.17
749.481	2015.37
749.665	2003.08
749.85	1904.78
750.034	2052.24
750.219	1929.36
750.404	1872.01
750.588	1906.83
750.773	1927.31
750.957	1915.02
751.141	1874.06
751.326	1833.1
751.51	1820.81
751.695	1949.84
751.879	1806.48
752.064	1880.21
752.248	1798.29
752.432	1816.72
752.617	1777.81
752.801	1761.42
752.985	1749.14
753.17	1704.08
753.354	1845.39
753.538	1769.62
753.722	1634.45
753.907	1669.27
754.091	1646.74
754.275	1659.03
754.459	1607.83
754.643	1562.77
754.828	1624.21
755.012	1575.06
755.196	1656.98
755.38	1640.59
755.564	1538.2
755.748	1671.31
755.932	1538.2
756.116	1515.67
756.3	1521.81
756.484	1513.62
756.668	1544.34
756.852	1527.96
757.036	1573.01
757.22	1566.87
757.404	1511.57
757.588	1400.98
757.772	1413.27
757.956	1458.32
758.14	1482.9
758.323	1476.76
758.507	1421.46
758.691	1394.84
758.875	1388.69
759.059	1388.69
759.242	1384.6
759.426	1380.5
759.61	1362.07
759.794	1317.01
759.977	1314.97
760.161	1333.4
760.345	1390.74
760.528	1362.07
760.712	1282.2
760.895	1224.86
761.079	1296.53
761.263	1355.93
761.446	1269.91
761.63	1290.39
761.813	1306.77
761.997	1325.21
762.18	1241.24
762.364	1290.39
762.547	1300.63
762.731	1271.96
762.914	1177.75
763.098	1159.32
763.281	1306.77
763.464	1181.85
763.648	1175.7
763.831	1271.96
764.015	1251.48
764.198	1220.76
764.381	1247.38
764.564	1187.99
764.748	1118.36
764.931	1233.05
765.114	1149.08
765.297	1198.23
765.481	1187.99
765.664	1183.9
765.847	1144.99
766.03	1192.09
766.213	1126.55
766.397	1118.36
766.58	1136.79
766.763	1155.23
766.946	1122.46
767.129	1052.83
767.312	1075.35
767.495	1028.25
767.678	1032.35
767.861	1061.02
768.044	1067.16
768.227	1122.46
768.41	1130.65
768.593	1030.3
768.776	1022.11
768.959	1058.97
769.142	942.24
769.324	1009.82
769.507	1054.87
769.69	1003.68
769.873	1003.68
770.056	1046.68
770.239	1036.44
770.421	999.58
770.604	1061.02
770.787	940.19
770.97	981.15
771.152	991.39
771.335	991.39
771.518	991.39
771.7	991.39
771.883	1007.77
772.066	897.18
772.248	915.61
772.431	866.46
772.613	1032.35
772.796	917.66
772.978	964.76
773.161	841.89
773.343	901.28
773.526	882.85
773.708	823.45
773.891	819.36
774.073	919.71
774.256	858.27
774.438	901.28
774.621	909.47
774.803	891.04
774.985	919.71
775.168	798.88
775.35	796.83
775.532	827.55
775.715	843.93
775.897	827.55
776.079	886.94
776.261	864.41
776.444	782.49
776.626	831.65
776.808	780.45
776.99	766.11
777.173	819.36
777.355	835.74
777.537	708.77
777.719	825.5
777.901	780.45
778.083	766.11
778.265	770.21
778.447	696.48
778.629	737.44
778.811	684.19
778.993	721.06
779.175	747.68
779.357	770.21
779.539	643.23
779.721	653.47
779.903	645.28
780.085	714.91
780.267	723.1
780.449	764.06
780.631	698.53
780.812	716.96
780.994	643.23
781.176	592.03
781.358	653.47
781.54	651.42
781.721	544.93
781.903	612.51
782.085	622.75
782.267	639.14
782.448	577.7
782.63	659.62
782.812	626.85
782.993	481.44
783.175	635.04
783.357	571.55
783.538	567.46
783.72	546.98
783.901	630.95
784.083	530.59
784.264	557.22
784.446	520.35
784.627	460.96
784.809	616.61
784.99	645.28
785.172	612.51
785.353	542.88
785.535	585.89
785.716	501.92
785.897	440.48
786.079	538.79
786.26	549.03
786.441	567.46
786.623	460.96
786.804	577.7
786.985	503.97
787.167	546.98
787.348	508.07
787.529	458.92
787.71	411.81
787.891	522.4
788.073	446.63
788.254	417.96
788.435	450.72
788.616	477.35
788.797	368.81
788.978	438.44
789.159	487.59
789.34	446.63
789.522	424.1
789.703	456.87
789.884	456.87
790.065	440.48
790.246	467.11
790.427	452.77
790.607	456.87
790.788	342.18
790.969	460.96
791.15	411.81
791.331	340.13
791.512	336.04
791.693	385.19
791.874	370.85
792.054	491.68
792.235	422.05
792.416	383.14
792.597	391.33
792.778	442.53
792.958	454.82
793.139	350.37
793.32	450.72
793.5	456.87
793.681	372.9
793.862	350.37
794.042	438.44
794.223	417.96
794.404	440.48
794.584	280.74
794.765	342.18
794.945	284.84
795.126	448.68
795.306	397.48
795.487	340.13
795.667	356.52
795.848	381.09
796.028	239.78
796.209	342.18
796.389	370.85
796.57	293.03
796.75	256.17
796.93	338.09
797.111	336.04
797.291	252.07
797.471	319.65
797.652	274.6
797.832	299.17
798.012	340.13
798.192	245.93
798.373	274.6
798.553	290.98
798.733	278.69
798.913	344.23
799.093	336.04
799.274	266.41
799.454	278.69
799.634	303.27
799.814	284.84
799.994	254.12
800.174	346.28
800.354	254.12
800.534	321.7
800.714	290.98
800.894	290.98
801.074	307.37
801.254	286.89
801.434	243.88
801.614	272.55
801.794	276.65
801.974	743.58
802.154	288.93
802.334	268.45
802.514	266.41
802.693	286.89
802.873	264.36
803.053	309.41
803.233	239.78
803.413	278.69
803.592	252.07
803.772	260.26
803.952	274.6
804.131	272.55
804.311	213.16
804.491	235.69
804.67	204.97
804.85	309.41
805.03	268.45
805.209	233.64
805.389	243.88
805.568	225.45
805.748	211.11
805.928	241.83
806.107	276.65
806.287	186.54
806.466	217.26
806.646	184.49
806.825	200.87
807.004	225.45
807.184	295.08
807.363	256.17
807.543	164.01
807.722	272.55
807.901	262.31
808.081	215.21
808.26	213.16
808.439	237.74
808.619	159.91
808.798	231.59
808.977	211.11
809.156	264.36
809.336	290.98
809.515	192.68
809.694	215.21
809.873	231.59
810.052	207.02
810.231	182.44
810.411	172.2
810.59	186.54
810.769	241.83
810.948	303.27
811.127	174.25
811.306	190.63
811.485	221.35
811.664	278.69
811.843	182.44
812.022	174.25
812.201	131.24
812.38	221.35
812.559	149.67
812.737	219.3
812.916	164.01
813.095	223.4
813.274	182.44
813.453	252.07
813.632	147.62
813.811	168.1
813.989	174.25
814.168	192.68
814.347	170.15
814.526	159.91
814.704	184.49
814.883	243.88
815.062	153.77
815.24	200.87
815.419	182.44
815.598	204.97
815.776	213.16
815.955	186.54
816.133	98.47
816.312	135.34
816.49	131.24
816.669	176.3
816.847	86.19
817.026	204.97
817.204	121
817.383	159.91
817.561	164.01
817.74	155.82
817.918	147.62
818.097	194.73
818.275	141.48
818.453	157.86
818.632	110.76
818.81	157.86
818.988	153.77
819.167	188.58
819.345	178.34
819.523	184.49
819.701	174.25
819.879	143.53
820.058	123.05
820.236	157.86
820.414	112.81
820.592	90.28
820.77	145.58
820.948	207.02
821.127	166.06
821.305	133.29
821.483	82.09
821.661	192.68
821.839	129.19
822.017	69.8
822.195	137.38
822.373	180.39
822.551	129.19
822.729	170.15
822.907	49.32
823.085	194.73
823.262	161.96
823.44	127.14
823.618	151.72
823.796	110.76
823.974	133.29
824.152	112.81
824.329	112.81
824.507	170.15
824.685	223.4
824.863	106.67
825.04	151.72
825.218	116.9
825.396	90.28
825.574	114.86
825.751	161.96
825.929	227.5
826.107	127.14
826.284	159.91
826.462	137.38
826.639	157.86
826.817	137.38
826.994	34.99
827.172	63.66
827.349	116.9
827.527	114.86
827.704	125.1
827.882	157.86
828.059	123.05
828.237	24.75
828.414	129.19
828.591	121
828.769	123.05
828.946	65.71
829.124	84.14
829.301	159.91
829.478	125.1
829.655	143.53
829.833	164.01
830.01	69.8
830.187	39.08
830.364	102.57
830.542	168.1
830.719	121
830.896	73.9
831.073	77.99
831.25	71.85
831.427	155.82
831.604	71.85
831.782	112.81
831.959	114.86
832.136	98.47
832.313	98.47
832.49	92.33
832.667	86.19
832.844	80.04
833.021	170.15
833.198	43.18
833.374	43.18
833.551	75.95
833.728	98.47
833.905	133.29
834.082	125.1
834.259	32.94
834.436	108.71
834.612	145.58
834.789	86.19
834.966	75.95
835.143	47.27
835.319	100.52
835.496	151.72
835.673	82.09
835.85	96.43
836.026	110.76
836.203	51.37
836.38	16.55
836.556	112.81
836.733	80.04
836.909	147.62
837.086	32.94
837.262	137.38
837.439	80.04
837.616	47.27
837.792	96.43
837.968	57.51
838.145	10.41
838.321	34.99
838.498	98.47
838.674	106.67
838.851	123.05
839.027	65.71
839.203	30.89
839.38	94.38
839.556	73.9
839.732	90.28
839.909	69.8
840.085	137.38
840.261	28.84
840.437	114.86
840.614	51.37
840.79	49.32
840.966	57.51
841.142	84.14
841.318	-16.21
841.494	131.24
841.671	34.99
841.847	24.75
842.023	82.09
842.199	112.81
842.375	65.71
842.551	67.75
842.727	-8.02
842.903	131.24
843.079	96.43
843.255	49.32
843.431	26.79
843.607	69.8
843.783	-59.22
843.959	71.85
844.134	12.46
844.31	104.62
844.486	104.62
844.662	84.14
844.838	53.42
845.013	20.65
845.189	26.79
845.365	55.47
845.541	77.99
845.716	108.71
845.892	118.95
846.068	-53.08
846.244	82.09
846.419	2.22
846.595	18.6
846.77	16.55
846.946	96.43
847.122	-1.88
847.297	51.37
847.473	75.95
847.648	55.47
847.824	100.52
847.999	145.58
848.175	67.75
848.35	63.66
848.526	98.47
848.701	90.28
848.876	143.53
849.052	16.55
849.227	90.28
849.403	47.27
849.578	45.23
849.753	8.36
849.929	75.95
850.104	57.51
850.279	49.32
850.454	45.23
850.63	45.23
850.805	-30.55
850.98	65.71
851.155	-40.79
851.33	75.95
851.505	67.75
851.681	82.09
851.856	0.17
852.031	16.55
852.206	61.61
852.381	63.66
852.556	51.37
852.731	57.51
852.906	112.81
853.081	67.75
853.256	61.61
853.431	16.55
853.606	41.13
853.781	53.42
853.956	49.32
854.131	90.28
854.305	82.09
854.48	41.13
854.655	14.51
854.83	45.23
855.005	-1.88
855.18	73.9
855.354	69.8
855.529	73.9
855.704	65.71
855.879	39.08
856.053	6.31
856.228	61.61
856.403	59.56
856.577	61.61
856.752	34.99
856.926	34.99
857.101	12.46
857.276	63.66
857.45	45.23
857.625	49.32
857.799	4.27
857.974	-26.45
858.148	-59.22
858.323	20.65
858.497	12.46
858.672	86.19
858.846	6.31
859.02	112.81
859.195	32.94
859.369	12.46
859.543	75.95
859.718	39.08
859.892	12.46
860.066	-12.12
860.241	39.08
860.415	37.03
860.589	65.71
860.763	32.94
860.938	-26.45
861.112	45.23
861.286	8.36
861.46	65.71
861.634	14.51
861.808	90.28
861.982	14.51
862.157	37.03
862.331	63.66
862.505	41.13
862.679	4.27
862.853	84.14
863.027	-8.02
863.201	51.37
863.375	34.99
863.549	0.17
863.722	49.32
863.896	39.08
864.07	6.31
864.244	34.99
864.418	47.27
864.592	22.7
864.766	71.85
864.939	22.7
865.113	-1.88
865.287	-3.93
865.461	6.31
865.634	80.04
865.808	-5.97
865.982	37.03
866.156	30.89
866.329	-61.27
866.503	2.22
866.676	-40.79
866.85	37.03
867.024	-1.88
867.197	53.42
867.371	67.75
867.544	-3.93
867.718	20.65
867.891	22.7
868.065	-28.5
868.238	28.84
868.412	59.56
868.585	-28.5
868.759	34.99
868.932	-24.4
869.105	-12.12
869.279	0.17
869.452	37.03
869.625	12.46
869.799	12.46
869.972	-24.4
870.145	18.6
870.319	47.27
870.492	18.6
870.665	53.42
870.838	69.8
871.011	-5.97
871.185	-26.45
871.358	-1.88
871.531	20.65
871.704	-20.31
871.877	71.85
872.05	2.22
872.223	-3.93
872.396	20.65
872.569	14.51
872.742	63.66
872.915	102.57
873.088	-1.88
873.261	-51.03
873.434	96.43
873.607	-16.21
873.78	39.08
873.953	26.79
874.126	-3.93
874.299	-3.93
874.471	-16.21
874.644	127.14
874.817	0.17
874.99	86.19
875.163	45.23
875.335	77.99
875.508	24.75
875.681	-10.07
875.853	49.32
876.026	-44.88
876.199	37.03
876.371	57.51
876.544	14.51
876.717	20.65
876.889	-1.88
877.062	69.8
877.234	-5.97
877.407	-12.12
877.579	37.03
877.752	26.79
877.924	18.6
878.097	43.18
878.269	-24.4
878.442	41.13
878.614	73.9
878.786	69.8
878.959	49.32
879.131	-1.88
879.303	57.51
879.476	6.31
879.648	45.23
879.82	86.19
879.993	20.65
880.165	6.31
880.337	-18.26
880.509	77.99
880.681	-71.51
880.854	-67.41
881.026	37.03
881.198	108.71
881.37	67.75
881.542	24.75
881.714	69.8
881.886	14.51
882.058	26.79
882.23	18.6
882.402	32.94
882.574	20.65
882.746	18.6
882.918	37.03
883.09	24.75
883.262	-20.31
883.434	39.08
883.606	-3.93
883.778	67.75
883.95	10.41
884.122	-30.55
884.293	28.84
884.465	24.75
884.637	104.62
884.809	22.7
884.98	63.66
885.152	30.89
885.324	-10.07
885.496	-30.55
885.667	-24.4
885.839	2.22
886.011	139.43
886.182	24.75
886.354	43.18
886.525	0.17
886.697	63.66
886.869	-75.6
887.04	55.47
887.212	53.42
887.383	30.89
887.555	37.03
887.726	47.27
887.897	94.38
888.069	51.37
888.24	90.28
888.412	63.66
888.583	55.47
888.754	-38.74
888.926	-3.93
889.097	-3.93
889.268	88.23
889.44	-5.97
889.611	-24.4
889.782	4.27
889.953	59.56
890.125	104.62
890.296	8.36
890.467	-30.55
890.638	41.13
890.809	45.23
890.98	-40.79
891.151	-44.88
891.323	53.42
891.494	57.51
891.665	18.6
891.836	-3.93
892.007	-42.84
892.178	14.51
892.349	6.31
892.52	4.27
892.691	-22.36
892.862	34.99
893.032	2.22
893.203	30.89
893.374	57.51
893.545	26.79
893.716	39.08
893.887	-34.64
894.057	-12.12
894.228	61.61
894.399	-53.08
894.57	34.99
894.74	39.08
894.911	86.19
895.082	61.61
895.253	-102.23
895.423	28.84
895.594	77.99
895.764	-5.97
895.935	-26.45
896.106	10.41
896.276	37.03
896.447	-8.02
896.617	12.46
896.788	10.41
896.958	0.17
897.129	0.17
897.299	59.56
897.47	24.75
897.64	30.89
897.81	-44.88
897.981	-55.12
898.151	-24.4
898.322	14.51
898.492	22.7
898.662	-1.88
898.832	-3.93
899.003	-12.12
899.173	22.7
899.343	24.75
899.513	-26.45
