Data from USB4F104151__35__11-51-40-147.txt Node

Date: Fri Mar 14 11:51:40 EDT 2025
User: louis
Spectrometer: USB4F10415
Trigger mode: 4
Integration Time (sec): 2.000000E-2
Scans to average: 1
Electric dark correction enabled: true
Nonlinearity correction enabled: false
Boxcar width: 0
XAxis mode: Wavelengths
Number of Pixels in Spectrum: 3648
>>>>>Begin Spectral Data<<<<<
178.204	-36.69
178.424	-36.69
178.644	-36.69
178.864	-137.04
179.084	-130.9
179.304	14.51
179.524	24.75
179.744	-63.32
179.964	-40.79
180.184	-18.26
180.404	30.89
180.624	45.23
180.844	6.31
181.064	14.51
181.283	-20.31
181.503	2.22
181.723	4.27
181.943	-32.6
182.163	30.89
182.383	55.47
182.602	96.43
182.822	47.27
183.042	8.36
183.262	28.84
183.482	75.95
183.701	59.56
183.921	12.46
184.141	-26.45
184.361	45.23
184.58	-10.07
184.8	47.27
185.02	57.51
185.239	63.66
185.459	57.51
185.679	8.36
185.898	-34.64
186.118	69.8
186.338	61.61
186.557	-22.36
186.777	-12.12
186.997	-10.07
187.216	-46.93
187.436	10.41
187.655	12.46
187.875	63.66
188.095	-5.97
188.314	26.79
188.534	-30.55
188.753	37.03
188.973	0.17
189.192	53.42
189.412	-24.4
189.631	8.36
189.851	41.13
190.07	-14.17
190.29	24.75
190.509	20.65
190.729	63.66
190.948	86.19
191.168	92.33
191.387	75.95
191.607	-5.97
191.826	-18.26
192.045	-28.5
192.265	0.17
192.484	18.6
192.704	8.36
192.923	-18.26
193.142	47.27
193.362	69.8
193.581	59.56
193.8	8.36
194.02	26.79
194.239	-12.12
194.458	32.94
194.678	-1.88
194.897	39.08
195.116	10.41
195.335	30.89
195.555	43.18
195.774	30.89
195.993	71.85
196.212	-8.02
196.432	61.61
196.651	37.03
196.87	18.6
197.089	86.19
197.308	-36.69
197.528	6.31
197.747	0.17
197.966	24.75
198.185	-8.02
198.404	-1.88
198.623	26.79
198.842	71.85
199.062	12.46
199.281	57.51
199.5	59.56
199.719	-10.07
199.938	45.23
200.157	53.42
200.376	-3.93
200.595	22.7
200.814	41.13
201.033	20.65
201.252	-40.79
201.471	10.41
201.69	8.36
201.909	-22.36
202.128	20.65
202.347	-22.36
202.566	-36.69
202.785	65.71
203.004	-28.5
203.223	59.56
203.442	-10.07
203.661	2.22
203.879	59.56
204.098	102.57
204.317	8.36
204.536	18.6
204.755	39.08
204.974	12.46
205.193	24.75
205.411	90.28
205.63	12.46
205.849	39.08
206.068	39.08
206.287	24.75
206.505	18.6
206.724	57.51
206.943	14.51
207.162	34.99
207.381	32.94
207.599	-38.74
207.818	8.36
208.037	22.7
208.255	39.08
208.474	-20.31
208.693	-20.31
208.911	-32.6
209.13	43.18
209.349	86.19
209.567	-59.22
209.786	-67.41
210.005	100.52
210.223	65.71
210.442	-34.64
210.661	4.27
210.879	67.75
211.098	-20.31
211.316	-32.6
211.535	45.23
211.753	-30.55
211.972	-30.55
212.191	-14.17
212.409	80.04
212.628	-55.12
212.846	-69.46
213.065	-8.02
213.283	98.47
213.502	10.41
213.72	51.37
213.938	-1.88
214.157	-42.84
214.375	37.03
214.594	-26.45
214.812	-26.45
215.031	4.27
215.249	-16.21
215.467	65.71
215.686	-42.84
215.904	26.79
216.122	-10.07
216.341	96.43
216.559	4.27
216.778	32.94
216.996	0.17
217.214	84.14
217.432	-73.56
217.651	30.89
217.869	26.79
218.087	34.99
218.306	-24.4
218.524	82.09
218.742	2.22
218.96	4.27
219.179	6.31
219.397	6.31
219.615	102.57
219.833	49.32
220.051	18.6
220.27	114.86
220.488	34.99
220.706	-5.97
220.924	-24.4
221.142	20.65
221.36	-1.88
221.578	-34.64
221.796	-53.08
222.015	-108.37
222.233	0.17
222.451	43.18
222.669	-10.07
222.887	75.95
223.105	22.7
223.323	69.8
223.541	0.17
223.759	88.23
223.977	43.18
224.195	121
224.413	18.6
224.631	59.56
224.849	41.13
225.067	75.95
225.285	-36.69
225.503	12.46
225.721	-46.93
225.939	37.03
226.157	8.36
226.375	57.51
226.592	12.46
226.81	-10.07
227.028	71.85
227.246	-1.88
227.464	22.7
227.682	51.37
227.9	-59.22
228.117	51.37
228.335	49.32
228.553	14.51
228.771	-44.88
228.989	47.27
229.206	14.51
229.424	-3.93
229.642	-55.12
229.86	-14.17
230.077	86.19
230.295	92.33
230.513	34.99
230.731	90.28
230.948	39.08
231.166	82.09
231.384	73.9
231.601	37.03
231.819	104.62
232.037	-18.26
232.254	6.31
232.472	18.6
232.689	32.94
232.907	-22.36
233.125	-8.02
233.342	26.79
233.56	4.27
233.777	49.32
233.995	-8.02
234.213	86.19
234.43	32.94
234.648	22.7
234.865	77.99
235.083	26.79
235.3	28.84
235.518	45.23
235.735	69.8
235.953	6.31
236.17	69.8
236.388	45.23
236.605	-14.17
236.822	75.95
237.04	51.37
237.257	57.51
237.475	53.42
237.692	0.17
237.909	112.81
238.127	20.65
238.344	22.7
238.562	75.95
238.779	-44.88
238.996	-3.93
239.214	-5.97
239.431	53.42
239.648	49.32
239.865	32.94
240.083	-8.02
240.3	-63.32
240.517	-16.21
240.735	22.7
240.952	112.81
241.169	82.09
241.386	43.18
241.603	24.75
241.821	37.03
242.038	30.89
242.255	47.27
242.472	6.31
242.689	10.41
242.907	32.94
243.124	-24.4
243.341	80.04
243.558	-38.74
243.775	41.13
243.992	-12.12
244.209	53.42
244.426	22.7
244.643	-12.12
244.86	30.89
245.078	-12.12
245.295	65.71
245.512	34.99
245.729	-1.88
245.946	86.19
246.163	-1.88
246.38	-36.69
246.597	73.9
246.814	34.99
247.031	16.55
247.248	39.08
247.464	57.51
247.681	96.43
247.898	69.8
248.115	16.55
248.332	-34.64
248.549	82.09
248.766	47.27
248.983	67.75
249.2	-14.17
249.417	49.32
249.633	43.18
249.85	37.03
250.067	39.08
250.284	-40.79
250.501	8.36
250.717	-30.55
250.934	-34.64
251.151	34.99
251.368	10.41
251.585	59.56
251.801	47.27
252.018	-30.55
252.235	-44.88
252.451	-8.02
252.668	-10.07
252.885	-46.93
253.102	43.18
253.318	102.57
253.535	22.7
253.752	61.61
253.968	34.99
254.185	41.13
254.401	-102.23
254.618	49.32
254.835	-8.02
255.051	-20.31
255.268	10.41
255.484	4.27
255.701	-3.93
255.917	77.99
256.134	26.79
256.351	43.18
256.567	18.6
256.784	65.71
257	-85.84
257.217	0.17
257.433	37.03
257.65	59.56
257.866	10.41
258.082	-5.97
258.299	61.61
258.515	41.13
258.732	-10.07
258.948	-10.07
259.165	-8.02
259.381	6.31
259.597	39.08
259.814	37.03
260.03	4.27
260.246	71.85
260.463	12.46
260.679	71.85
260.895	10.41
261.112	57.51
261.328	2.22
261.544	20.65
261.761	32.94
261.977	32.94
262.193	20.65
262.409	22.7
262.626	67.75
262.842	67.75
263.058	49.32
263.274	12.46
263.49	10.41
263.707	-44.88
263.923	65.71
264.139	4.27
264.355	20.65
264.571	-1.88
264.787	-44.88
265.004	125.1
265.22	34.99
265.436	43.18
265.652	43.18
265.868	69.8
266.084	-20.31
266.3	-12.12
266.516	-22.36
266.732	12.46
266.948	18.6
267.164	98.47
267.38	108.71
267.596	-26.45
267.812	92.33
268.028	82.09
268.244	94.38
268.46	37.03
268.676	2.22
268.892	53.42
269.108	53.42
269.324	6.31
269.54	-1.88
269.756	67.75
269.972	-63.32
270.188	51.37
270.403	-38.74
270.619	39.08
270.835	2.22
271.051	69.8
271.267	6.31
271.483	41.13
271.698	59.56
271.914	41.13
272.13	67.75
272.346	-18.26
272.562	20.65
272.777	110.76
272.993	65.71
273.209	-38.74
273.425	41.13
273.64	69.8
273.856	24.75
274.072	47.27
274.287	-51.03
274.503	30.89
274.719	-22.36
274.934	10.41
275.15	0.17
275.366	51.37
275.581	16.55
275.797	-28.5
276.012	104.62
276.228	32.94
276.444	6.31
276.659	75.95
276.875	-48.98
277.09	32.94
277.306	8.36
277.521	16.55
277.737	55.47
277.952	-1.88
278.168	0.17
278.383	45.23
278.599	92.33
278.814	22.7
279.03	-44.88
279.245	80.04
279.461	41.13
279.676	20.65
279.892	24.75
280.107	41.13
280.322	45.23
280.538	63.66
280.753	-1.88
280.969	-67.41
281.184	63.66
281.399	135.34
281.615	6.31
281.83	26.79
282.045	-20.31
282.26	-12.12
282.476	49.32
282.691	88.23
282.906	14.51
283.122	82.09
283.337	-65.36
283.552	80.04
283.767	45.23
283.983	57.51
284.198	2.22
284.413	43.18
284.628	43.18
284.843	47.27
285.058	55.47
285.274	30.89
285.489	-24.4
285.704	47.27
285.919	14.51
286.134	-28.5
286.349	12.46
286.564	86.19
286.779	73.9
286.995	20.65
287.21	2.22
287.425	-34.64
287.64	26.79
287.855	47.27
288.07	2.22
288.285	51.37
288.5	92.33
288.715	26.79
288.93	-89.94
289.145	-3.93
289.36	32.94
289.575	10.41
289.79	10.41
290.004	59.56
290.219	24.75
290.434	-10.07
290.649	51.37
290.864	-28.5
291.079	30.89
291.294	6.31
291.509	8.36
291.724	34.99
291.938	57.51
292.153	82.09
292.368	41.13
292.583	59.56
292.798	-16.21
293.012	43.18
293.227	-38.74
293.442	69.8
293.657	12.46
293.871	28.84
294.086	75.95
294.301	92.33
294.516	67.75
294.73	41.13
294.945	4.27
295.16	110.76
295.374	49.32
295.589	24.75
295.804	24.75
296.018	14.51
296.233	47.27
296.447	47.27
296.662	71.85
296.877	0.17
297.091	43.18
297.306	34.99
297.52	18.6
297.735	94.38
297.949	102.57
298.164	24.75
298.378	49.32
298.593	59.56
298.807	-28.5
299.022	8.36
299.236	94.38
299.451	-26.45
299.665	-28.5
299.88	45.23
300.094	24.75
300.309	-26.45
300.523	65.71
300.737	-14.17
300.952	34.99
301.166	63.66
301.381	6.31
301.595	-51.03
301.809	43.18
302.024	28.84
302.238	61.61
302.452	28.84
302.667	-3.93
302.881	71.85
303.095	32.94
303.309	22.7
303.524	24.75
303.738	39.08
303.952	24.75
304.166	37.03
304.381	6.31
304.595	127.14
304.809	67.75
305.023	26.79
305.237	51.37
305.452	-22.36
305.666	10.41
305.88	51.37
306.094	-5.97
306.308	0.17
306.522	-1.88
306.736	-18.26
306.95	39.08
307.164	26.79
307.379	88.23
307.593	67.75
307.807	88.23
308.021	53.42
308.235	67.75
308.449	-1.88
308.663	-65.36
308.877	47.27
309.091	26.79
309.305	14.51
309.519	8.36
309.733	39.08
309.947	37.03
310.161	110.76
310.374	-38.74
310.588	100.52
310.802	-18.26
311.016	51.37
311.23	26.79
311.444	26.79
311.658	28.84
311.872	75.95
312.085	49.32
312.299	37.03
312.513	-48.98
312.727	90.28
312.941	-59.22
313.154	14.51
313.368	63.66
313.582	24.75
313.796	8.36
314.009	32.94
314.223	80.04
314.437	80.04
314.651	22.7
314.864	34.99
315.078	63.66
315.292	75.95
315.505	26.79
315.719	63.66
315.933	69.8
316.146	20.65
316.36	-12.12
316.573	116.9
316.787	20.65
317.001	55.47
317.214	22.7
317.428	-1.88
317.641	12.46
317.855	37.03
318.068	16.55
318.282	-3.93
318.495	47.27
318.709	47.27
318.922	45.23
319.136	59.56
319.349	51.37
319.563	67.75
319.776	28.84
319.99	-42.84
320.203	-32.6
320.417	24.75
320.63	34.99
320.843	102.57
321.057	39.08
321.27	30.89
321.483	20.65
321.697	63.66
321.91	-44.88
322.124	65.71
322.337	69.8
322.55	16.55
322.763	-22.36
322.977	10.41
323.19	18.6
323.403	59.56
323.617	45.23
323.83	-5.97
324.043	67.75
324.256	51.37
324.469	-3.93
324.683	53.42
324.896	88.23
325.109	8.36
325.322	73.9
325.535	8.36
325.748	26.79
325.962	-14.17
326.175	104.62
326.388	28.84
326.601	55.47
326.814	53.42
327.027	67.75
327.24	47.27
327.453	16.55
327.666	8.36
327.879	16.55
328.092	39.08
328.305	14.51
328.518	32.94
328.731	8.36
328.944	-24.4
329.157	67.75
329.37	110.76
329.583	123.05
329.796	59.56
330.009	22.7
330.222	45.23
330.435	10.41
330.648	22.7
330.861	16.55
331.073	45.23
331.286	96.43
331.499	65.71
331.712	37.03
331.925	-1.88
332.138	59.56
332.35	100.52
332.563	65.71
332.776	26.79
332.989	-44.88
333.202	63.66
333.414	-34.64
333.627	49.32
333.84	34.99
334.053	55.47
334.265	65.71
334.478	-24.4
334.691	47.27
334.903	8.36
335.116	43.18
335.329	51.37
335.541	39.08
335.754	57.51
335.966	4.27
336.179	28.84
336.392	-1.88
336.604	20.65
336.817	49.32
337.029	77.99
337.242	-22.36
337.454	24.75
337.667	26.79
337.88	137.38
338.092	22.7
338.305	-30.55
338.517	71.85
338.729	30.89
338.942	61.61
339.154	147.62
339.367	24.75
339.579	65.71
339.792	-22.36
340.004	71.85
340.217	20.65
340.429	0.17
340.641	53.42
340.854	59.56
341.066	45.23
341.278	131.24
341.491	94.38
341.703	61.61
341.915	24.75
342.128	20.65
342.34	0.17
342.552	-3.93
342.764	8.36
342.977	10.41
343.189	30.89
343.401	43.18
343.613	37.03
343.826	73.9
344.038	-20.31
344.25	112.81
344.462	47.27
344.674	32.94
344.886	71.85
345.099	75.95
345.311	8.36
345.523	-1.88
345.735	-108.37
345.947	16.55
346.159	-5.97
346.371	49.32
346.583	-28.5
346.795	39.08
347.007	41.13
347.219	43.18
347.431	75.95
347.643	84.14
347.855	90.28
348.067	65.71
348.279	75.95
348.491	18.6
348.703	6.31
348.915	32.94
349.127	-26.45
349.339	92.33
349.551	-10.07
349.763	34.99
349.975	10.41
350.187	96.43
350.399	12.46
350.61	12.46
350.822	30.89
351.034	45.23
351.246	45.23
351.458	41.13
351.669	41.13
351.881	-1.88
352.093	-16.21
352.305	96.43
352.517	94.38
352.728	41.13
352.94	-10.07
353.152	106.67
353.363	69.8
353.575	20.65
353.787	10.41
353.999	67.75
354.21	22.7
354.422	-8.02
354.633	47.27
354.845	71.85
355.057	26.79
355.268	114.86
355.48	37.03
355.692	47.27
355.903	30.89
356.115	10.41
356.326	10.41
356.538	51.37
356.749	10.41
356.961	16.55
357.172	20.65
357.384	-28.5
357.595	-20.31
357.807	-24.4
358.018	41.13
358.23	77.99
358.441	71.85
358.653	47.27
358.864	92.33
359.075	-12.12
359.287	2.22
359.498	39.08
359.709	53.42
359.921	49.32
360.132	47.27
360.344	57.51
360.555	14.51
360.766	65.71
360.977	69.8
361.189	51.37
361.4	-10.07
361.611	47.27
361.823	49.32
362.034	14.51
362.245	18.6
362.456	49.32
362.667	-26.45
362.879	-3.93
363.09	-28.5
363.301	92.33
363.512	106.67
363.723	39.08
363.935	45.23
364.146	55.47
364.357	59.56
364.568	16.55
364.779	67.75
364.99	53.42
365.201	37.03
365.412	65.71
365.623	-3.93
365.834	53.42
366.045	18.6
366.256	80.04
366.467	30.89
366.678	34.99
366.889	12.46
367.1	67.75
367.311	39.08
367.522	73.9
367.733	14.51
367.944	24.75
368.155	59.56
368.366	-3.93
368.577	84.14
368.788	71.85
368.999	-34.64
369.209	116.9
369.42	114.86
369.631	43.18
369.842	37.03
370.053	30.89
370.264	59.56
370.474	63.66
370.685	57.51
370.896	77.99
371.107	6.31
371.317	45.23
371.528	82.09
371.739	67.75
371.95	22.7
372.16	30.89
372.371	75.95
372.582	6.31
372.792	0.17
373.003	26.79
373.214	104.62
373.424	39.08
373.635	20.65
373.846	77.99
374.056	77.99
374.267	71.85
374.477	53.42
374.688	59.56
374.898	43.18
375.109	47.27
375.319	51.37
375.53	26.79
375.74	10.41
375.951	59.56
376.161	22.7
376.372	41.13
376.582	88.23
376.793	98.47
377.003	41.13
377.214	-20.31
377.424	127.14
377.635	96.43
377.845	51.37
378.055	77.99
378.266	-12.12
378.476	84.14
378.686	34.99
378.897	57.51
379.107	100.52
379.317	94.38
379.528	14.51
379.738	112.81
379.948	-16.21
380.158	12.46
380.369	30.89
380.579	57.51
380.789	73.9
380.999	100.52
381.21	12.46
381.42	96.43
381.63	-14.17
381.84	80.04
382.05	43.18
382.261	73.9
382.471	55.47
382.681	26.79
382.891	30.89
383.101	-46.93
383.311	-69.46
383.521	82.09
383.731	69.8
383.941	57.51
384.151	116.9
384.361	112.81
384.571	84.14
384.781	14.51
384.991	145.58
385.201	125.1
385.411	63.66
385.621	65.71
385.831	51.37
386.041	41.13
386.251	0.17
386.461	-36.69
386.671	28.84
386.881	67.75
387.091	30.89
387.301	135.34
387.511	-28.5
387.72	45.23
387.93	135.34
388.14	10.41
388.35	39.08
388.56	92.33
388.769	-48.98
388.979	102.57
389.189	37.03
389.399	57.51
389.609	34.99
389.818	108.71
390.028	26.79
390.238	90.28
390.447	55.47
390.657	67.75
390.867	125.1
391.076	-20.31
391.286	123.05
391.496	65.71
391.705	8.36
391.915	108.71
392.125	80.04
392.334	88.23
392.544	69.8
392.753	-3.93
392.963	80.04
393.172	59.56
393.382	51.37
393.591	159.91
393.801	63.66
394.01	100.52
394.22	12.46
394.429	47.27
394.639	82.09
394.848	86.19
395.058	51.37
395.267	49.32
395.477	57.51
395.686	28.84
395.895	166.06
396.105	51.37
396.314	94.38
396.524	-8.02
396.733	75.95
396.942	88.23
397.152	86.19
397.361	90.28
397.57	116.9
397.78	94.38
397.989	108.71
398.198	92.33
398.407	65.71
398.617	106.67
398.826	90.28
399.035	32.94
399.244	108.71
399.453	121
399.663	127.14
399.872	69.8
400.081	90.28
400.29	127.14
400.499	166.06
400.708	114.86
400.917	153.77
401.127	149.67
401.336	94.38
401.545	88.23
401.754	43.18
401.963	157.86
402.172	133.29
402.381	121
402.59	166.06
402.799	129.19
403.008	127.14
403.217	104.62
403.426	34.99
403.635	147.62
403.844	137.38
404.053	125.1
404.262	141.48
404.471	184.49
404.68	194.73
404.888	186.54
405.097	137.38
405.306	149.67
405.515	141.48
405.724	186.54
405.933	192.68
406.142	129.19
406.35	174.25
406.559	188.58
406.768	215.21
406.977	231.59
407.185	149.67
407.394	182.44
407.603	176.3
407.812	270.5
408.02	237.74
408.229	176.3
408.438	272.55
408.646	209.06
408.855	317.61
409.064	305.32
409.272	272.55
409.481	319.65
409.69	309.41
409.898	274.6
410.107	329.89
410.315	317.61
410.524	301.22
410.733	329.89
410.941	333.99
411.15	473.25
411.358	387.24
411.567	448.68
411.775	454.82
411.984	422.05
412.192	438.44
412.401	452.77
412.609	499.88
412.818	506.02
413.026	428.2
413.234	522.4
413.443	487.59
413.651	534.69
413.86	563.36
414.068	694.43
414.276	600.23
414.485	632.99
414.693	655.52
414.901	784.54
415.11	704.67
415.318	694.43
415.526	780.45
415.734	780.45
415.943	790.69
416.151	946.33
416.359	667.81
416.567	917.66
416.776	952.48
416.984	923.8
417.192	1052.83
417.4	1034.39
417.608	917.66
417.817	1095.83
418.025	1106.07
418.233	1231
418.441	1202.33
418.649	1231
418.857	1360.02
419.065	1302.68
419.273	1364.12
419.481	1405.08
419.689	1491.09
419.897	1466.52
420.105	1599.63
420.313	1603.73
420.521	1613.97
420.729	1656.98
420.937	1767.57
421.145	1892.49
421.353	1767.57
421.561	1992.84
421.769	1958.03
421.977	2109.58
422.185	2148.49
422.393	2234.5
422.601	2353.29
422.809	2324.62
423.017	2416.77
423.224	2420.87
423.432	2545.8
423.64	2650.24
423.848	2912.38
424.056	2668.67
424.263	3012.73
424.471	2979.97
424.679	2957.44
424.887	3154.04
425.094	3166.33
425.302	3215.48
425.51	3440.76
425.718	3524.72
425.925	3457.14
426.133	3719.28
426.341	3969.13
426.548	3985.52
426.756	4020.33
426.964	4214.89
427.171	4333.67
427.379	4462.69
427.586	4636.77
427.794	4554.85
428.001	4872.29
428.209	5058.65
428.417	5025.89
428.624	5371.99
428.832	5398.62
429.039	5406.81
429.247	5527.64
429.454	6015.05
429.662	6170.7
429.869	5967.95
430.076	6402.12
430.284	6002.77
430.491	6453.32
430.699	6668.36
430.906	6742.08
431.114	6793.28
431.321	7098.43
431.528	7163.97
431.736	7704.63
431.943	8167.47
432.15	7811.12
432.358	7911.47
432.565	8402.99
432.772	8359.98
432.979	8902.69
433.187	8720.42
433.394	8837.16
433.601	9646.1
433.808	9564.18
434.016	9328.67
434.223	9811.99
434.43	10489.87
434.637	10311.69
434.844	10872.84
435.052	11057.15
435.259	10844.17
435.466	10979.33
435.673	11116.55
435.88	11640.83
436.087	12355.57
436.294	12253.17
436.501	12187.63
436.708	12216.3
436.915	12736.49
437.122	13262.82
437.329	13262.82
437.537	13760.47
437.743	13852.63
437.95	13598.68
438.157	14575.56
438.364	15198.15
438.571	15046.6
438.778	14845.9
438.985	16594.86
439.192	15771.58
439.399	16345.01
439.606	16291.76
439.813	16758.7
440.02	17799.07
440.227	17553.31
440.433	17526.69
440.64	18188.18
440.847	17993.62
441.054	18249.62
441.261	19447.68
441.467	19287.94
441.674	19539.84
441.881	20236.15
442.088	20516.72
442.294	20031.35
442.501	20512.63
442.708	21245.8
442.914	21905.24
443.121	22736.72
443.328	22329.17
443.534	24053.56
443.741	23293.77
443.948	22716.24
444.154	24575.8
444.361	24502.07
444.568	24477.49
444.774	24467.25
444.981	24872.75
445.187	25454.37
445.394	26404.63
445.6	26101.53
445.807	28966.64
446.013	27713.28
446.22	28043.01
446.426	29275.88
446.633	29531.88
446.839	30238.43
447.046	29142.77
447.252	30740.18
447.459	30912.21
447.665	30791.38
447.871	32044.74
448.078	33316.53
448.284	31850.18
448.491	32390.84
448.697	34115.23
448.903	34483.87
449.11	34797.21
449.316	34268.83
449.522	34735.77
449.728	35417.74
449.935	35731.08
450.141	35825.29
450.347	36683.39
450.553	35432.08
450.76	36109.96
450.966	37500.53
451.172	36781.69
451.378	37279.35
451.584	36783.74
451.791	37672.56
451.997	37641.84
452.203	38397.54
452.409	38737.5
452.615	38096.49
452.821	36847.22
453.027	36437.63
453.233	38325.86
453.44	36927.1
453.646	37453.42
453.852	37437.04
454.058	38415.97
454.264	36904.57
454.47	37766.76
454.676	36718.2
454.882	38043.24
455.088	34713.24
455.294	35296.91
455.5	35692.17
455.705	35995.27
455.911	34795.16
456.117	34092.71
456.323	33570.47
456.529	31784.65
456.735	33392.3
456.941	32102.08
457.147	32016.07
457.352	30572.25
457.558	30404.31
457.764	30910.16
457.97	29869.79
458.176	29687.53
458.381	29339.37
458.587	28135.17
458.793	27844.35
458.999	26412.82
459.204	28266.24
459.41	27606.79
459.616	25843.49
459.821	26079
460.027	25902.88
460.233	25102.12
460.438	24209.21
460.644	24340.28
460.85	23091.02
461.055	22853.45
461.261	22892.37
461.466	21090.15
461.672	20440.95
461.878	22058.84
462.083	20223.86
462.289	19928.95
462.494	19683.2
462.7	19015.56
462.905	18378.64
463.111	18980.75
463.316	19160.97
463.522	18759.56
463.727	18493.33
463.932	18749.32
464.138	18472.85
464.343	18653.07
464.549	18134.93
464.754	18569.1
464.959	18284.44
465.165	18243.48
465.37	17612.7
465.575	17303.46
465.781	17698.72
465.986	17952.66
466.191	17231.78
466.397	16910.25
466.602	16258.99
466.807	16854.95
467.012	16619.44
467.218	16529.33
467.423	16394.16
467.628	16730.03
467.833	17082.28
468.038	16404.4
468.244	16215.99
468.449	16746.41
468.654	16230.32
468.859	16134.07
469.064	16117.68
469.269	15407.04
469.474	15683.52
469.679	15693.76
469.885	15325.12
470.09	15636.41
470.295	15493.05
470.5	15204.29
470.705	15452.09
470.91	14766.03
471.115	14800.84
471.32	14749.64
471.525	14772.17
471.73	14462.93
471.935	14438.35
472.139	13780.95
472.344	14047.19
472.549	13805.53
472.754	13817.82
472.959	13463.52
473.164	13232.1
473.369	13344.74
473.574	13230.05
473.778	13416.41
473.983	13486.04
474.188	13400.03
474.393	12681.19
474.598	12779.5
474.802	12507.12
475.007	12498.92
475.212	12523.5
475.417	11798.52
475.621	12042.23
475.826	12158.96
476.031	11909.11
476.235	11667.45
476.44	11802.61
476.645	11767.8
476.849	11841.53
477.054	11421.69
477.259	11345.92
477.463	11462.65
477.668	11139.07
477.872	11016.19
478.077	10919.94
478.282	10688.52
478.486	10448.91
478.691	10528.78
478.895	10377.23
479.1	10301.45
479.304	10653.7
479.509	10154
479.713	10395.66
479.918	10100.75
480.122	10078.22
480.326	9949.2
480.531	10154
480.735	9924.63
480.94	9861.14
481.144	10407.95
481.348	9668.63
481.553	9699.35
481.757	9531.42
481.961	9785.37
482.166	9850.9
482.37	9803.8
482.574	9551.9
482.778	9574.42
482.983	9828.37
483.187	9891.86
483.391	9752.6
483.595	9594.9
483.8	9488.41
484.004	9588.76
484.208	9732.12
484.412	9691.16
484.616	9682.97
484.821	9613.34
485.025	9619.48
485.229	9715.73
485.433	9660.44
485.637	9601.05
485.841	9510.94
486.045	9488.41
486.249	9535.51
486.453	9535.51
486.657	9703.45
486.861	9564.18
487.065	9375.77
487.269	9404.44
487.473	9531.42
487.677	9555.99
487.881	9599
488.085	9472.03
488.289	9631.77
488.493	9631.77
488.697	9625.62
488.901	9650.2
489.105	9682.97
489.309	9799.7
489.512	9472.03
489.716	9699.35
489.92	9670.68
490.124	9615.38
490.328	9959.44
490.531	9824.28
490.735	9934.87
490.939	9840.66
491.143	9859.09
491.346	9916.44
491.55	9898
491.754	10041.36
491.958	10039.31
492.161	10149.9
492.365	10067.99
492.569	9965.59
492.772	10039.31
492.976	10256.4
493.18	10256.4
493.383	10315.79
493.587	10371.08
493.79	10407.95
493.994	10397.71
494.197	10450.96
494.401	10594.31
494.605	10555.4
494.808	10829.83
495.012	10907.65
495.215	10754.05
495.419	10829.83
495.622	10719.24
495.825	11100.16
496.029	11020.29
496.232	11315.2
496.436	11405.31
496.639	11485.18
496.843	11534.33
497.046	11640.83
497.249	11857.91
497.453	11890.68
497.656	12025.84
497.859	11915.25
498.063	12333.04
498.266	12455.92
498.469	12496.88
498.673	12500.97
498.876	12707.82
499.079	12759.02
499.282	12611.56
499.485	13164.51
499.689	13101.03
499.892	13158.37
500.095	13342.69
500.298	13674.46
500.501	13387.74
500.705	13991.89
500.908	14389.2
501.111	14229.46
501.314	14278.61
501.517	14428.11
501.72	14766.03
501.923	14520.27
502.126	15028.17
502.329	15105.99
502.532	15077.32
502.735	15232.96
502.938	15429.57
503.141	15622.08
503.344	15912.89
503.547	16078.77
503.75	15949.75
503.953	16762.79
504.156	16517.04
504.359	16578.48
504.562	16775.08
504.765	17033.13
504.968	17270.69
505.17	17721.24
505.373	17469.34
505.576	18085.78
505.779	17837.98
505.982	17997.72
506.185	18376.59
506.387	18276.24
506.59	18636.69
506.793	18974.6
506.996	19011.46
507.198	19660.67
507.401	19451.78
507.604	19810.17
507.807	20139.9
508.009	20344.69
508.212	20074.36
508.415	20537.2
508.617	20520.82
508.82	20854.64
509.022	20766.57
509.225	21315.43
509.428	21528.42
509.63	21598.05
509.833	21647.2
510.035	22314.84
510.238	21913.44
510.44	22419.28
510.643	22523.73
510.845	23058.25
511.048	22755.15
511.25	23222.09
511.453	22998.86
511.655	24080.19
511.858	23881.53
512.06	23881.53
512.262	24530.74
512.465	24158.01
512.667	24555.32
512.87	24774.45
513.072	24889.13
513.274	25653.03
513.477	25788.19
513.679	26122.01
513.881	26177.31
514.084	26550.04
514.286	26449.69
514.488	26713.88
514.69	27176.72
514.893	27379.46
515.095	27688.71
515.297	27725.57
515.499	27946.75
515.701	28247.8
515.904	28548.86
516.106	28745.46
516.308	28704.5
516.51	29374.19
516.712	29488.87
516.914	29568.74
517.116	30363.36
517.318	30156.51
517.52	30451.42
517.722	30686.93
517.925	30842.58
518.127	31528.65
518.329	31428.3
518.531	31428.3
518.733	32216.77
518.935	32358.08
519.136	32374.46
519.338	32442.04
519.54	33095.35
519.742	33126.07
519.944	33273.52
520.146	33457.84
520.348	34266.78
520.55	33746.6
520.752	34295.46
520.954	34991.76
521.155	34330.27
521.357	34795.16
521.559	35417.74
521.761	35726.99
521.963	35622.54
522.164	35960.45
522.366	36214.4
522.568	36507.26
522.77	36662.91
522.971	37113.46
523.173	36796.03
523.375	36970.1
523.576	36900.47
523.778	37086.84
523.98	38170.21
524.181	38278.75
524.383	37891.69
524.584	38600.29
524.786	38405.73
524.988	38268.51
525.189	39261.78
525.391	39321.17
525.592	39964.23
525.794	39312.98
525.995	39630.41
526.197	39706.19
526.398	40070.73
526.6	40177.22
526.801	40318.53
527.003	40273.48
527.204	40586.82
527.406	40912.44
527.607	40519.23
527.808	40877.63
528.01	40463.94
528.211	40750.65
528.412	41666.09
528.614	41524.79
528.815	41442.87
529.016	41891.37
529.218	41481.78
529.419	41440.82
529.62	41938.47
529.822	41997.87
530.023	41879.08
530.224	42161.7
530.425	42157.61
530.626	41731.63
530.828	42241.57
531.029	43220.5
531.23	42360.36
531.431	42376.74
531.632	42862.11
531.833	42825.25
532.035	42413.6
532.236	42876.44
532.437	42831.39
532.638	42640.93
532.839	42909.21
533.04	43501.07
533.241	42288.68
533.442	43298.33
533.643	42890.78
533.844	43027.99
534.045	43378.2
534.246	42685.98
534.447	43183.64
534.648	42894.88
534.849	43582.99
535.05	42823.2
535.251	42913.31
535.451	43075.1
535.652	43445.78
535.853	43267.61
536.054	43236.89
536.255	43267.61
536.456	43009.56
536.657	43605.52
536.857	43247.13
537.058	43068.95
537.259	43423.25
537.46	43355.67
537.66	42972.7
537.861	43114.01
538.062	43146.78
538.263	43302.42
538.463	42817.05
538.664	43036.19
538.865	43750.93
539.065	43568.66
539.266	42974.75
539.466	43400.72
539.667	42536.48
539.868	44146.19
540.068	43300.37
540.269	42825.25
540.469	43363.86
540.67	43294.23
540.87	43210.26
541.071	43216.41
541.271	43578.9
541.472	43150.87
541.672	43161.11
541.873	43181.59
542.073	42397.22
542.274	43503.12
542.474	43169.3
542.675	42833.44
542.875	43099.67
543.075	43357.72
543.276	42661.41
543.476	43439.64
543.676	43224.6
543.877	43101.72
544.077	43240.98
544.277	42962.46
544.478	43034.14
544.678	43552.27
544.878	43126.3
545.078	43161.11
545.279	42690.08
545.479	42741.28
545.679	42741.28
545.879	43050.52
546.079	42896.92
546.28	43097.63
546.48	42327.59
546.68	43220.5
546.88	42606.11
547.08	43081.24
547.28	42597.92
547.48	42497.57
547.68	43230.74
547.88	42391.08
548.081	42847.77
548.281	43306.52
548.481	42602.02
548.681	42884.64
548.881	42794.53
549.081	42483.23
549.28	42561.06
549.48	42704.42
549.68	42446.37
549.88	42870.3
550.08	42505.76
550.28	42901.02
550.48	42489.38
550.68	42966.56
550.88	42307.11
551.08	42497.57
551.279	42946.08
551.479	42061.35
551.679	42438.18
551.879	42202.66
552.079	42927.64
552.278	42399.27
552.478	43009.56
552.678	42602.02
552.878	42616.35
553.077	42561.06
553.277	42194.47
553.477	42413.6
553.676	42368.55
553.876	42522.15
554.076	41858.6
554.275	42323.49
554.475	41674.29
554.674	42231.33
554.874	42092.07
555.074	41954.86
555.273	42231.33
555.473	42624.54
555.672	42202.66
555.872	42077.74
556.071	41971.24
556.271	42198.57
556.47	41678.38
556.67	41565.74
556.869	41815.6
557.068	41850.41
557.268	41274.93
557.467	41645.62
557.667	41455.15
557.866	41588.27
558.065	41547.31
558.265	41512.5
558.464	41342.52
558.663	41717.29
558.863	41125.43
559.062	41276.98
559.261	41324.08
559.461	41752.11
559.66	40379.97
559.859	41188.92
560.058	40810.04
560.258	41154.1
560.457	40644.16
560.656	41107
560.855	40623.68
561.054	40980.03
561.253	40754.75
561.453	40615.49
561.652	40621.63
561.851	40906.3
562.05	40592.96
562.249	40336.96
562.448	40535.62
562.647	40463.94
562.846	40367.68
563.045	40371.78
563.244	39683.66
563.443	40371.78
563.642	39845.45
563.841	39781.96
564.04	39513.68
564.239	40121.93
564.438	39691.85
564.637	39960.14
564.836	40005.19
565.035	39312.98
565.234	39538.26
565.432	39319.12
565.631	39114.33
565.83	39269.97
566.029	38962.78
566.228	38868.57
566.427	38970.97
566.625	38559.33
566.824	38749.79
567.023	38993.5
567.222	38137.44
567.42	39009.88
567.619	38657.63
567.818	38278.75
568.016	38256.23
568.215	38612.57
568.414	38678.11
568.612	38755.93
568.811	38362.72
569.01	38116.97
569.208	37529.2
569.407	38035.05
569.605	37297.78
569.804	37879.4
570.002	37125.75
570.201	37733.99
570.4	37457.52
570.598	37031.54
570.797	37209.71
570.995	37334.64
571.193	36716.15
571.392	37187.19
571.59	36740.73
571.789	36777.59
571.987	36732.54
572.186	36644.48
572.384	36433.53
572.582	36845.18
572.781	36888.18
572.979	36251.27
573.177	36400.77
573.376	35845.77
573.574	35886.73
573.772	36079.24
573.971	35815.05
574.169	35546.76
574.367	35143.31
574.565	35804.81
574.763	35892.87
574.962	35702.41
575.16	34930.33
575.358	35284.62
575.556	35036.82
575.754	35874.44
575.952	34547.36
576.151	35315.34
576.349	34924.18
576.547	34979.48
576.745	34684.57
576.943	34616.99
577.141	34459.29
577.339	34397.85
577.537	34707.1
577.735	34739.86
577.933	34045.6
578.131	34604.7
578.329	34125.47
578.527	33713.83
578.725	33996.45
578.923	33975.97
579.121	34070.18
579.319	33697.45
579.516	33791.66
579.714	33625.77
579.912	33605.29
580.11	33437.36
580.308	33218.22
580.506	33246.9
580.704	32974.52
580.901	32841.4
581.099	33248.94
581.297	32624.31
581.495	32638.65
581.692	32720.57
581.89	32319.17
582.088	32337.6
582.285	32489.15
582.483	32337.6
582.681	32454.33
582.878	32247.49
583.076	31983.3
583.274	32229.05
583.471	31721.16
583.669	31964.87
583.866	31524.55
584.064	31739.59
584.262	31338.19
584.459	31678.15
584.657	31364.81
584.854	31588.04
585.052	30895.83
585.249	31475.4
585.447	31465.16
585.644	30930.64
585.841	31094.48
586.039	30910.16
586.236	30877.4
586.434	30789.33
586.631	30820.05
586.828	30998.23
587.026	30768.85
587.223	30449.37
587.42	30492.38
587.618	30113.5
587.815	30070.5
588.012	29902.56
588.21	29787.88
588.407	30144.22
588.604	29826.79
588.801	29492.97
588.999	29869.79
589.196	29667.05
589.393	29818.6
589.59	29390.57
589.787	29425.39
589.984	29257.45
590.182	29064.94
590.379	29120.24
590.576	28946.16
590.773	28874.48
590.97	28741.36
591.167	29122.29
591.364	28403.45
591.561	28729.08
591.758	28286.72
591.955	28286.72
592.152	28546.81
592.349	28106.49
592.546	28473.08
592.743	28425.98
592.94	28129.02
593.137	28069.63
593.334	28073.73
593.531	27756.29
593.727	27770.63
593.924	27993.86
594.121	27662.08
594.318	27760.39
594.515	27324.17
594.712	27326.22
594.908	27059.98
595.105	27655.94
595.302	26869.52
595.499	27160.33
595.696	26812.18
595.892	26806.03
596.089	26775.31
596.286	26713.88
596.482	27100.94
596.679	26599.19
596.876	26728.21
597.072	26306.33
597.269	26613.52
597.466	26240.79
597.662	26304.28
597.859	26388.25
598.055	25970.46
598.252	25988.89
598.448	25851.68
598.645	25757.47
598.841	25663.27
599.038	25906.98
599.234	25777.95
599.431	25399.08
599.627	25282.34
599.824	25419.56
600.02	25587.49
600.217	25036.59
600.413	25042.73
600.609	25081.64
600.806	24692.53
601.002	25489.19
601.198	24901.42
601.395	24598.32
601.591	24887.09
601.787	24698.67
601.984	24653.62
602.18	24414.01
602.376	24274.74
602.572	24446.77
602.769	24680.24
602.965	24047.42
603.161	24416.05
603.357	24342.33
603.553	23959.36
603.75	24055.61
603.946	23695.17
604.142	23607.11
604.338	23619.39
604.534	23945.02
604.73	23277.38
604.926	23342.92
605.122	23598.91
605.318	23490.37
605.514	23146.31
605.71	23236.42
605.906	23377.73
606.102	23048.01
606.298	23263.05
606.494	22916.94
606.69	22894.41
606.886	23134.03
607.082	22495.06
607.278	22863.69
607.474	22591.31
607.67	22820.69
607.866	22124.38
608.062	22761.3
608.257	22310.74
608.453	22695.76
608.649	22574.93
608.845	22282.07
609.041	22234.97
609.236	22167.38
609.432	22288.21
609.628	22173.53
609.824	22220.63
610.019	21845.85
610.215	22095.71
610.411	21811.04
610.606	21639.01
610.802	22126.43
610.998	21788.51
611.193	21872.48
611.389	21778.27
611.584	21614.43
611.78	21722.98
611.976	21673.82
612.171	21391.2
612.367	21684.06
612.562	21522.27
612.758	21411.68
612.953	21305.19
613.149	21446.5
613.344	21303.14
613.539	21411.68
613.735	21389.16
613.93	21358.44
614.126	21081.96
614.321	21020.52
614.517	21227.37
614.712	21141.35
614.907	20903.79
615.103	21108.58
615.298	20766.57
615.493	21131.11
615.688	20801.39
615.884	21288.81
616.079	20510.58
616.274	20850.54
616.47	20660.08
616.665	20871.02
616.86	20582.26
617.055	20907.88
617.25	20492.15
617.445	20866.92
617.641	20074.36
617.836	20848.49
618.031	20234.1
618.226	20655.98
618.421	20176.76
618.616	20260.73
618.811	19857.28
619.006	20258.68
619.201	19826.56
619.396	20283.25
619.591	19591.04
619.786	19949.43
619.981	19287.94
620.176	19787.64
620.371	19419.01
620.566	19486.59
620.761	19367.81
620.956	19529.6
621.151	19376
621.346	19353.48
621.541	18802.57
621.735	19199.88
621.93	18495.38
622.125	18661.26
622.32	18569.1
622.515	18306.96
622.709	18554.77
622.904	18194.33
623.099	18229.14
623.294	18386.83
623.488	18132.89
623.683	17999.77
623.878	17676.19
624.072	18014.1
624.267	17592.22
624.462	17639.33
624.656	17358.75
624.851	17622.94
625.046	17387.43
625.24	17393.57
625.435	17379.23
625.629	17104.81
625.824	17151.91
626.018	16885.67
626.213	16656.3
626.407	16621.49
626.602	16326.58
626.796	16693.16
626.991	16488.37
627.185	16521.13
627.38	16494.51
627.574	16082.87
627.768	16134.07
627.963	16005.05
628.157	15878.07
628.352	16046.01
628.546	15691.71
628.74	15945.66
628.935	15691.71
629.129	15443.9
629.323	15298.5
629.517	15589.31
629.712	15218.63
629.906	15230.91
630.1	15065.03
630.294	14946.25
630.489	14979.01
630.683	14917.58
630.877	14645.2
631.071	14526.41
631.265	14761.93
631.459	14512.08
631.653	14370.77
631.848	14233.55
632.042	14407.63
632.236	14411.73
632.43	14010.32
632.624	14053.33
632.818	13979.61
633.012	13957.08
633.206	13995.99
633.4	13846.49
633.594	13510.62
633.788	13838.3
633.982	13760.47
634.176	13660.12
634.369	13307.87
634.563	13301.73
634.757	13375.45
634.951	13412.32
635.145	13299.68
635.339	13137.89
635.533	13148.13
635.726	13045.73
635.92	12730.34
636.114	12791.78
636.308	12953.57
636.501	12802.02
636.695	12812.26
636.889	12673
637.083	12466.16
637.276	12519.4
637.47	12435.44
637.664	12382.19
637.857	12404.72
638.051	12105.71
638.244	12140.53
638.438	12058.61
638.632	12040.18
638.825	11917.3
639.019	11923.44
639.212	11751.42
639.406	11704.31
639.599	11603.96
639.793	11888.63
639.986	11415.55
640.18	11505.66
640.373	11436.03
640.567	11464.7
640.76	11313.15
640.954	11337.73
641.147	11075.59
641.34	11032.58
641.534	11147.26
641.727	11010.05
641.92	10958.85
642.114	10870.79
642.307	10911.75
642.5	10741.77
642.694	10657.8
642.887	10709
643.08	10735.62
643.273	10633.22
643.467	10520.59
643.66	10317.84
643.853	10455.05
644.046	10258.45
644.239	10190.86
644.432	10319.89
644.626	9992.21
644.819	10235.92
645.012	10051.6
645.205	10096.66
645.398	9889.81
645.591	9719.83
645.784	10072.08
645.977	9848.85
646.17	9752.6
646.363	9748.5
646.556	9762.84
646.749	9650.2
646.942	9779.22
647.135	9449.5
647.328	9582.62
647.521	9353.24
647.714	9439.26
647.907	9459.74
648.099	9326.62
648.292	9310.24
648.485	9066.53
648.678	9218.08
648.871	9140.26
649.064	8925.22
649.256	9199.65
649.449	9070.62
649.642	8867.88
649.835	8898.59
650.027	8740.9
650.22	8804.39
650.413	8607.78
650.605	8572.97
650.798	8757.29
650.991	8734.76
651.183	8513.58
651.376	8372.27
651.568	8632.36
651.761	8439.85
651.954	8359.98
652.146	8230.96
652.339	8210.48
652.531	8335.4
652.724	8255.53
652.916	7977.01
653.109	8095.79
653.301	8128.56
653.494	8177.71
653.686	8030.26
653.879	8171.57
654.071	7979.06
654.263	7821.36
654.456	7884.85
654.648	7647.29
654.84	7647.29
655.033	7702.58
655.225	7651.38
655.417	7526.46
655.61	7606.33
655.802	7663.67
655.994	7385.15
656.186	7559.22
656.379	7454.78
656.571	7446.59
656.763	7256.12
656.955	7256.12
657.148	7383.1
657.34	7206.97
657.532	6985.79
657.724	7178.3
657.916	7225.4
658.108	7166.01
658.3	6981.7
658.492	7008.32
658.684	6883.39
658.876	6938.69
659.068	6973.5
659.26	6729.8
659.452	6944.83
659.644	6766.66
659.836	6729.8
660.028	6719.56
660.22	6647.88
660.412	6717.51
660.604	6707.27
660.796	6561.86
660.988	6576.2
661.18	6555.72
661.372	6447.18
661.563	6455.37
661.755	6373.45
661.947	6393.93
662.139	6406.22
662.331	6342.73
662.522	6428.74
662.714	6199.37
662.906	6256.72
663.097	6090.83
663.289	6314.06
663.481	6178.89
663.673	6271.05
663.864	6000.72
664.056	6144.08
664.247	5988.43
664.439	6113.36
664.631	5955.66
664.822	6035.53
665.014	6094.93
665.205	5918.8
665.397	5896.27
665.588	5875.79
665.78	5838.93
665.971	5855.31
666.163	5908.56
666.354	5736.53
666.546	5791.83
666.737	5695.57
666.929	5703.76
667.12	5660.76
667.311	5697.62
667.503	5584.98
667.694	5464.15
667.885	5662.8
668.077	5423.19
668.268	5378.14
668.459	5533.78
668.651	5312.6
668.842	5404.76
669.033	5199.96
669.224	5367.9
669.416	5275.74
669.607	5453.91
669.798	5152.86
669.989	5290.07
670.18	5171.29
670.371	5296.22
670.563	5271.64
670.754	5292.12
670.945	5259.35
671.136	5048.41
671.327	5103.71
671.518	4997.21
671.709	5062.75
671.9	4962.4
672.091	5251.16
672.282	5019.74
672.473	4841.57
672.664	4898.91
672.855	4917.34
673.046	5040.22
673.237	5025.89
673.428	4997.21
673.619	4798.56
673.809	4913.25
674	4784.23
674.191	4808.8
674.382	4835.42
674.573	4679.78
674.764	4937.82
674.954	4788.32
675.145	4773.99
675.336	4860
675.527	4612.2
675.717	4878.43
675.908	4575.33
676.099	4665.44
676.289	4724.83
676.48	4677.73
676.671	4552.81
676.861	4677.73
677.052	4561
677.243	4647.01
677.433	4620.39
677.624	4558.95
677.814	4604
678.005	4667.49
678.195	4618.34
678.386	4337.77
678.576	4460.65
678.767	4497.51
678.957	4399.21
679.148	4368.49
679.338	4601.96
679.529	4538.47
679.719	4509.8
679.909	4446.31
680.1	4493.41
680.29	4569.19
680.481	4321.38
680.671	4309.1
680.861	4366.44
681.052	4558.95
681.242	4317.29
681.432	4436.07
681.622	4421.74
681.813	4149.36
682.003	4380.78
682.193	4366.44
682.383	4196.46
682.573	4343.91
682.764	4208.75
682.954	4266.09
683.144	4313.19
683.334	4319.34
683.524	4257.9
683.714	4126.83
683.904	4118.64
684.094	4247.66
684.284	4233.32
684.474	4313.19
684.664	4151.4
684.854	4184.17
685.044	4180.07
685.234	4196.46
685.424	4153.45
685.614	4040.81
685.804	4175.98
685.994	4155.5
686.184	4182.12
686.374	4016.24
686.564	3938.41
686.753	4114.54
686.943	3985.52
687.133	3950.7
687.323	3893.36
687.513	3887.22
687.702	3860.59
687.892	3809.39
688.082	4124.78
688.272	3758.19
688.461	3930.22
688.651	3977.33
688.841	3737.71
689.03	3760.24
689.22	3678.32
689.41	3803.25
689.599	3731.57
689.789	3713.14
689.979	3688.56
690.168	3709.04
690.358	3692.66
690.547	3743.86
690.737	3657.84
690.926	3700.85
691.116	3647.6
691.305	3623.03
691.495	3735.67
691.684	3537.01
691.874	3487.86
692.063	3608.69
692.252	3549.3
692.442	3606.64
692.631	3405.94
692.82	3559.54
693.01	3424.37
693.199	3354.74
693.388	3457.14
693.578	3432.57
693.767	3403.89
693.956	3522.68
694.146	3399.8
694.335	3346.55
694.524	3381.37
694.713	3336.31
694.902	3436.66
695.092	3422.33
695.281	3330.17
695.47	3307.64
695.659	3205.24
695.848	3344.5
696.037	3283.06
696.226	3295.35
696.415	3119.23
696.604	3242.11
696.793	3262.58
696.982	3162.23
697.171	3186.81
697.36	3184.76
697.549	3168.38
697.738	3088.51
697.927	3127.42
698.116	3217.53
698.305	3180.67
698.494	3188.86
698.683	3233.91
698.872	3182.71
699.061	3127.42
699.25	3174.52
699.438	3203.19
699.627	3076.22
699.816	3274.87
700.005	3096.7
700.193	3203.19
700.382	3217.53
700.571	3166.33
700.76	3090.56
700.948	3014.78
701.137	3057.79
701.326	3188.86
701.514	3025.02
701.703	3022.97
701.892	3211.39
702.08	3061.88
702.269	3139.71
702.457	3242.11
702.646	3045.5
702.834	2994.3
703.023	3090.56
703.212	3018.88
703.4	3201.15
703.589	3022.97
703.777	3100.8
703.965	3070.08
704.154	2979.97
704.342	2971.77
704.531	2908.29
704.719	2953.34
704.907	3147.9
705.096	3090.56
705.284	3090.56
705.472	2994.3
705.661	2941.05
705.849	3004.54
706.037	2973.82
706.226	3008.64
706.414	3135.61
706.602	3078.27
706.79	2928.77
706.979	3037.31
707.167	2936.96
707.355	2963.58
707.543	3047.55
707.731	2973.82
707.919	3061.88
708.107	2967.68
708.296	3027.07
708.484	3018.88
708.672	2951.29
708.86	2873.47
709.048	2990.21
709.236	2973.82
709.424	3070.08
709.612	2961.53
709.8	3014.78
709.988	2900.09
710.176	3035.26
710.364	2977.92
710.551	2984.06
710.739	2961.53
710.927	2928.77
711.115	3031.16
711.303	3078.27
711.491	2871.42
711.679	2994.3
711.866	2922.62
712.054	2986.11
712.242	3049.6
712.43	2914.43
712.617	2992.25
712.805	3086.46
712.993	3098.75
713.181	2881.66
713.368	2969.73
713.556	2963.58
713.744	2969.73
713.931	3020.92
714.119	2984.06
714.306	2891.9
714.494	2844.8
714.682	3002.49
714.869	2846.85
715.057	3117.18
715.244	2861.18
715.432	3057.79
715.619	2912.38
715.807	3031.16
715.994	2961.53
716.182	2844.8
716.369	2951.29
716.556	2971.77
716.744	2887.81
716.931	2869.37
717.119	2953.34
717.306	3096.7
717.493	2832.51
717.681	2932.86
717.868	2955.39
718.055	2979.97
718.242	2994.3
718.43	2799.74
718.617	2889.85
718.804	2922.62
718.991	2840.7
719.179	2967.68
719.366	2924.67
719.553	2943.1
719.74	2910.33
719.927	3070.08
720.114	2996.35
720.301	2916.48
720.488	3018.88
720.676	2965.63
720.863	2879.61
721.05	2936.96
721.237	2965.63
721.424	2842.75
721.611	2881.66
721.798	2949.25
721.985	2885.76
722.172	2900.09
722.358	2951.29
722.545	3033.21
722.732	2818.18
722.919	2934.91
723.106	2955.39
723.293	2906.24
723.48	2805.89
723.667	2945.15
723.853	2873.47
724.04	3059.84
724.227	2902.14
724.414	3018.88
724.6	2881.66
724.787	2947.2
724.974	2994.3
725.161	3027.07
725.347	2887.81
725.534	2959.49
725.72	2945.15
725.907	2916.48
726.094	2945.15
726.28	2836.61
726.467	2875.52
726.653	2902.14
726.84	2945.15
727.027	2947.2
727.213	2791.55
727.4	2889.85
727.586	2941.05
727.773	2918.53
727.959	2961.53
728.145	2896
728.332	2902.14
728.518	2820.22
728.705	2990.21
728.891	2846.85
729.077	2936.96
729.264	2887.81
729.45	2916.48
729.636	2971.77
729.823	2879.61
730.009	2930.81
730.195	2807.94
730.382	2754.69
730.568	2873.47
730.754	2947.2
730.94	2885.76
731.126	2873.47
731.313	2930.81
731.499	2924.67
731.685	2807.94
731.871	2898.05
732.057	3113.08
732.243	2838.66
732.429	2783.36
732.615	2965.63
732.801	2912.38
732.987	2842.75
733.173	2951.29
733.359	2799.74
733.545	2760.83
733.731	2859.14
733.917	2850.94
734.103	2850.94
734.289	2889.85
734.475	2756.74
734.661	2857.09
734.847	2859.14
735.033	2799.74
735.219	2814.08
735.404	2787.46
735.59	2842.75
735.776	2816.13
735.962	2896
736.148	2867.33
736.333	2848.9
736.519	2889.85
736.705	2713.73
736.89	2734.21
737.076	2695.3
737.262	2777.22
737.447	2715.78
737.633	2715.78
737.819	2781.31
738.004	2828.42
738.19	2717.83
738.375	2666.63
738.561	2885.76
738.747	2758.78
738.932	2730.11
739.118	2713.73
739.303	2719.87
739.489	2670.72
739.674	2783.36
739.859	2805.89
740.045	2807.94
740.23	2791.55
740.416	2756.74
740.601	2668.67
740.786	2646.15
740.972	2674.82
741.157	2510.98
741.342	2664.58
741.528	2652.29
741.713	2627.71
741.898	2556.04
742.084	2678.91
742.269	2631.81
742.454	2510.98
742.639	2553.99
742.824	2541.7
743.01	2611.33
743.195	2529.41
743.38	2629.76
743.565	2564.23
743.75	2500.74
743.935	2492.55
744.12	2547.84
744.305	2504.84
744.49	2418.82
744.675	2492.55
744.86	2369.67
745.045	2353.29
745.23	2492.55
745.415	2341
745.6	2437.25
745.785	2351.24
745.97	2363.53
746.155	2488.45
746.34	2224.26
746.525	2381.96
746.71	2384.01
746.895	2244.74
747.079	2390.15
747.264	2240.65
747.449	2308.23
747.634	2312.33
747.819	2226.31
748.003	2250.89
748.188	2232.46
748.373	2138.25
748.557	2146.44
748.742	2254.98
748.927	2285.7
749.111	2218.12
749.296	2160.78
749.481	2138.25
749.665	2076.81
749.85	2179.21
750.034	2042
750.219	2005.13
750.404	1978.51
750.588	2072.72
750.773	2009.23
750.957	2080.91
751.141	2095.24
751.326	2027.66
751.51	1945.74
751.695	2013.32
751.879	1968.27
752.064	1855.63
752.248	1892.49
752.432	1874.06
752.617	1988.75
752.801	1900.69
752.985	1900.69
753.17	1880.21
753.354	1878.16
753.538	1816.72
753.722	1888.4
753.907	1824.91
754.091	1851.53
754.275	1806.48
754.459	1702.03
754.643	1769.62
754.828	1753.23
755.012	1788.05
755.196	1775.76
755.38	1763.47
755.564	1634.45
755.748	1679.51
755.932	1597.59
756.116	1656.98
756.3	1628.31
756.484	1601.68
756.668	1685.65
756.852	1568.91
757.036	1591.44
757.22	1659.03
757.404	1552.53
757.588	1577.11
757.772	1581.2
757.956	1589.39
758.14	1515.67
758.323	1493.14
758.507	1511.57
758.691	1509.52
758.875	1454.23
759.059	1538.2
759.242	1554.58
759.426	1466.52
759.61	1468.56
759.794	1333.4
759.977	1491.09
760.161	1421.46
760.345	1421.46
760.528	1431.7
760.712	1425.56
760.895	1374.36
761.079	1384.6
761.263	1312.92
761.446	1308.82
761.63	1302.68
761.813	1407.13
761.997	1370.26
762.18	1247.38
762.364	1310.87
762.547	1251.48
762.731	1312.92
762.914	1310.87
763.098	1282.2
763.281	1398.93
763.464	1325.21
763.648	1337.49
763.831	1224.86
764.015	1179.8
764.198	1251.48
764.381	1247.38
764.564	1292.44
764.748	1271.96
764.931	1257.62
765.114	1269.91
765.297	1200.28
765.481	1185.94
765.664	1271.96
765.847	1171.61
766.03	1200.28
766.213	1253.53
766.397	1183.9
766.58	1212.57
766.763	1175.7
766.946	1175.7
767.129	1126.55
767.312	1190.04
767.495	1165.46
767.678	1147.03
767.861	1212.57
768.044	1087.64
768.227	1132.7
768.41	1144.99
768.593	1122.46
768.776	1036.44
768.959	1071.26
769.142	1089.69
769.324	1038.49
769.507	997.53
769.69	1112.22
769.873	1061.02
770.056	1144.99
770.239	1056.92
770.421	1149.08
770.604	1089.69
770.787	1044.63
770.97	1087.64
771.152	989.34
771.335	977.05
771.518	1061.02
771.7	1013.92
771.883	964.76
772.066	958.62
772.248	999.58
772.431	1030.3
772.613	948.38
772.796	1030.3
772.978	975
773.161	1044.63
773.343	987.29
773.526	878.75
773.708	1040.54
773.891	893.09
774.073	940.19
774.256	977.05
774.438	1036.44
774.621	925.85
774.803	958.62
774.985	956.57
775.168	985.24
775.35	850.08
775.532	866.46
775.715	825.5
775.897	911.52
776.079	714.91
776.261	858.27
776.444	798.88
776.626	886.94
776.808	805.02
776.99	817.31
777.173	759.97
777.355	870.56
777.537	792.73
777.719	858.27
777.901	749.73
778.083	815.26
778.265	727.2
778.447	745.63
778.629	790.69
778.811	757.92
778.993	735.39
779.175	733.34
779.357	749.73
779.539	655.52
779.721	712.86
779.903	719.01
780.085	747.68
780.267	706.72
780.449	661.66
780.631	753.82
780.812	725.15
780.994	688.29
781.176	665.76
781.358	690.34
781.54	682.14
781.721	692.38
781.903	641.18
782.085	596.13
782.267	610.47
782.448	571.55
782.63	661.66
782.812	596.13
782.993	669.86
783.175	628.9
783.357	639.14
783.538	606.37
783.72	635.04
783.901	641.18
784.083	569.51
784.264	510.11
784.446	589.99
784.627	610.47
784.809	563.36
784.99	573.6
785.172	499.88
785.353	579.75
785.535	598.18
785.716	546.98
785.897	557.22
786.079	491.68
786.26	579.75
786.441	555.17
786.623	516.26
786.804	520.35
786.985	571.55
787.167	467.11
787.348	506.02
787.529	501.92
787.71	510.11
787.891	501.92
788.073	530.59
788.254	448.68
788.435	530.59
788.616	381.09
788.797	415.91
788.978	499.88
789.159	442.53
789.34	518.31
789.522	454.82
789.703	487.59
789.884	413.86
790.065	497.83
790.246	530.59
790.427	381.09
790.607	565.41
790.788	344.23
790.969	424.1
791.15	458.92
791.331	409.76
791.512	467.11
791.693	364.71
791.874	389.28
792.054	331.94
792.235	446.63
792.416	434.34
792.597	342.18
792.778	420
792.958	356.52
793.139	397.48
793.32	354.47
793.5	387.24
793.681	381.09
793.862	385.19
794.042	348.33
794.223	401.57
794.404	366.76
794.584	311.46
794.765	340.13
794.945	319.65
795.126	336.04
795.306	344.23
795.487	374.95
795.667	364.71
795.848	420
796.028	354.47
796.209	358.57
796.389	399.52
796.57	422.05
796.75	366.76
796.93	358.57
797.111	385.19
797.291	317.61
797.471	282.79
797.652	256.17
797.832	241.83
798.012	352.42
798.192	385.19
798.373	307.37
798.553	241.83
798.733	370.85
798.913	290.98
799.093	311.46
799.274	262.31
799.454	309.41
799.634	286.89
799.814	301.22
799.994	272.55
800.174	276.65
800.354	270.5
800.534	209.06
800.714	301.22
800.894	278.69
801.074	280.74
801.254	348.33
801.434	243.88
801.614	174.25
801.794	233.64
801.974	606.37
802.154	256.17
802.334	295.08
802.514	202.92
802.693	282.79
802.873	297.13
803.053	258.21
803.233	252.07
803.413	254.12
803.592	215.21
803.772	209.06
803.952	241.83
804.131	241.83
804.311	309.41
804.491	250.02
804.67	237.74
804.85	229.54
805.03	215.21
805.209	311.46
805.389	215.21
805.568	276.65
805.748	307.37
805.928	231.59
806.107	295.08
806.287	258.21
806.466	243.88
806.646	270.5
806.825	252.07
807.004	258.21
807.184	231.59
807.363	227.5
807.543	362.66
807.722	243.88
807.901	262.31
808.081	174.25
808.26	207.02
808.439	217.26
808.619	231.59
808.798	239.78
808.977	196.78
809.156	217.26
809.336	174.25
809.515	270.5
809.694	202.92
809.873	157.86
810.052	207.02
810.231	247.97
810.411	151.72
810.59	176.3
810.769	213.16
810.948	250.02
811.127	211.11
811.306	270.5
811.485	172.2
811.664	235.69
811.843	164.01
812.022	174.25
812.201	170.15
812.38	258.21
812.559	151.72
812.737	139.43
812.916	200.87
813.095	159.91
813.274	166.06
813.453	168.1
813.632	161.96
813.811	215.21
813.989	141.48
814.168	194.73
814.347	159.91
814.526	188.58
814.704	198.82
814.883	207.02
815.062	129.19
815.24	159.91
815.419	188.58
815.598	131.24
815.776	129.19
815.955	168.1
816.133	161.96
816.312	168.1
816.49	182.44
816.669	239.78
816.847	219.3
817.026	141.48
817.204	141.48
817.383	168.1
817.561	155.82
817.74	184.49
817.918	164.01
818.097	141.48
818.275	164.01
818.453	137.38
818.632	110.76
818.81	127.14
818.988	200.87
819.167	174.25
819.345	192.68
819.523	112.81
819.701	82.09
819.879	170.15
820.058	129.19
820.236	198.82
820.414	149.67
820.592	170.15
820.77	116.9
820.948	188.58
821.127	123.05
821.305	121
821.483	149.67
821.661	166.06
821.839	110.76
822.017	84.14
822.195	131.24
822.373	168.1
822.551	180.39
822.729	178.34
822.907	221.35
823.085	135.34
823.262	188.58
823.44	108.71
823.618	82.09
823.796	159.91
823.974	151.72
824.152	90.28
824.329	75.95
824.507	118.95
824.685	137.38
824.863	168.1
825.04	114.86
825.218	161.96
825.396	100.52
825.574	96.43
825.751	106.67
825.929	123.05
826.107	84.14
826.284	88.23
826.462	159.91
826.639	77.99
826.817	75.95
826.994	141.48
827.172	55.47
827.349	196.78
827.527	82.09
827.704	188.58
827.882	108.71
828.059	170.15
828.237	112.81
828.414	100.52
828.591	80.04
828.769	102.57
828.946	71.85
829.124	121
829.301	164.01
829.478	32.94
829.655	104.62
829.833	77.99
830.01	14.51
830.187	139.43
830.364	104.62
830.542	129.19
830.719	86.19
830.896	82.09
831.073	75.95
831.25	69.8
831.427	94.38
831.604	69.8
831.782	127.14
831.959	186.54
832.136	86.19
832.313	123.05
832.49	153.77
832.667	114.86
832.844	77.99
833.021	102.57
833.198	57.51
833.374	49.32
833.551	84.14
833.728	106.67
833.905	112.81
834.082	100.52
834.259	47.27
834.436	149.67
834.612	100.52
834.789	37.03
834.966	49.32
835.143	57.51
835.319	75.95
835.496	88.23
835.673	75.95
835.85	26.79
836.026	49.32
836.203	102.57
836.38	102.57
836.556	57.51
836.733	6.31
836.909	129.19
837.086	108.71
837.262	77.99
837.439	92.33
837.616	53.42
837.792	88.23
837.968	94.38
838.145	8.36
838.321	45.23
838.498	104.62
838.674	71.85
838.851	98.47
839.027	41.13
839.203	61.61
839.38	77.99
839.556	28.84
839.732	65.71
839.909	55.47
840.085	133.29
840.261	-48.98
840.437	96.43
840.614	51.37
840.79	125.1
840.966	170.15
841.142	-26.45
841.318	43.18
841.494	53.42
841.671	71.85
841.847	24.75
842.023	75.95
842.199	96.43
842.375	39.08
842.551	-12.12
842.727	106.67
842.903	139.43
843.079	-34.64
843.255	12.46
843.431	67.75
843.607	75.95
843.783	59.56
843.959	20.65
844.134	49.32
844.31	-14.17
844.486	86.19
844.662	37.03
844.838	43.18
845.013	80.04
845.189	75.95
845.365	88.23
845.541	8.36
845.716	104.62
845.892	112.81
846.068	-3.93
846.244	106.67
846.419	59.56
846.595	94.38
846.77	-3.93
846.946	147.62
847.122	57.51
847.297	-16.21
847.473	88.23
847.648	43.18
847.824	55.47
847.999	30.89
848.175	82.09
848.35	82.09
848.526	14.51
848.701	96.43
848.876	65.71
849.052	77.99
849.227	30.89
849.403	14.51
849.578	28.84
849.753	30.89
849.929	125.1
850.104	34.99
850.279	53.42
850.454	84.14
850.63	67.75
850.805	-22.36
850.98	92.33
851.155	24.75
851.33	59.56
851.505	34.99
851.681	112.81
851.856	59.56
852.031	14.51
852.206	-28.5
852.381	47.27
852.556	4.27
852.731	6.31
852.906	22.7
853.081	-53.08
853.256	-38.74
853.431	14.51
853.606	61.61
853.781	39.08
853.956	39.08
854.131	-34.64
854.305	41.13
854.48	114.86
854.655	-18.26
854.83	24.75
855.005	77.99
855.18	69.8
855.354	41.13
855.529	69.8
855.704	10.41
855.879	14.51
856.053	18.6
856.228	43.18
856.403	30.89
856.577	53.42
856.752	-55.12
856.926	20.65
857.101	96.43
857.276	28.84
857.45	-16.21
857.625	24.75
857.799	59.56
857.974	34.99
858.148	77.99
858.323	67.75
858.497	30.89
858.672	55.47
858.846	26.79
859.02	86.19
859.195	30.89
859.369	39.08
859.543	16.55
859.718	28.84
859.892	73.9
860.066	10.41
860.241	20.65
860.415	-5.97
860.589	8.36
860.763	45.23
860.938	82.09
861.112	75.95
861.286	30.89
861.46	-26.45
861.634	96.43
861.808	61.61
861.982	-32.6
862.157	49.32
862.331	10.41
862.505	-8.02
862.679	-18.26
862.853	4.27
863.027	18.6
863.201	57.51
863.375	8.36
863.549	73.9
863.722	45.23
863.896	28.84
864.07	-14.17
864.244	65.71
864.418	6.31
864.592	22.7
864.766	0.17
864.939	41.13
865.113	-63.32
865.287	96.43
865.461	-26.45
865.634	34.99
865.808	73.9
865.982	51.37
866.156	10.41
866.329	-8.02
866.503	55.47
866.676	0.17
866.85	-14.17
867.024	8.36
867.197	14.51
867.371	53.42
867.544	8.36
867.718	-36.69
867.891	0.17
868.065	16.55
868.238	18.6
868.412	45.23
868.585	-46.93
868.759	2.22
868.932	2.22
869.105	18.6
869.279	116.9
869.452	10.41
869.625	53.42
869.799	-3.93
869.972	-36.69
870.145	41.13
870.319	-3.93
870.492	24.75
870.665	41.13
870.838	41.13
871.011	-36.69
871.185	-10.07
871.358	-3.93
871.531	12.46
871.704	12.46
871.877	59.56
872.05	22.7
872.223	39.08
872.396	-24.4
872.569	4.27
872.742	-3.93
872.915	18.6
873.088	-42.84
873.261	22.7
873.434	-5.97
873.607	14.51
873.78	-12.12
873.953	4.27
874.126	26.79
874.299	12.46
874.471	22.7
874.644	-14.17
874.817	22.7
874.99	94.38
875.163	49.32
875.335	-16.21
875.508	-5.97
875.681	-10.07
875.853	-26.45
876.026	10.41
876.199	-34.64
876.371	-18.26
876.544	43.18
876.717	8.36
876.889	28.84
877.062	20.65
877.234	18.6
877.407	73.9
877.579	4.27
877.752	73.9
877.924	-63.32
878.097	-26.45
878.269	59.56
878.442	-16.21
878.614	67.75
878.786	-59.22
878.959	-18.26
879.131	41.13
879.303	10.41
879.476	34.99
879.648	16.55
879.82	10.41
879.993	45.23
880.165	92.33
880.337	-57.17
880.509	18.6
880.681	-16.21
880.854	-22.36
881.026	-8.02
881.198	63.66
881.37	20.65
881.542	-10.07
881.714	41.13
881.886	-18.26
882.058	0.17
882.23	0.17
882.402	-20.31
882.574	8.36
882.746	73.9
882.918	6.31
883.09	-96.08
883.262	0.17
883.434	41.13
883.606	-16.21
883.778	-46.93
883.95	34.99
884.122	-22.36
884.293	32.94
884.465	-53.08
884.637	39.08
884.809	12.46
884.98	12.46
885.152	73.9
885.324	26.79
885.496	-51.03
885.667	-61.27
885.839	-67.41
886.011	73.9
886.182	57.51
886.354	49.32
886.525	-3.93
886.697	41.13
886.869	-51.03
887.04	55.47
887.212	49.32
887.383	0.17
887.555	30.89
887.726	61.61
887.897	57.51
888.069	-10.07
888.24	-61.27
888.412	26.79
888.583	-3.93
888.754	41.13
888.926	-51.03
889.097	8.36
889.268	-75.6
889.44	-18.26
889.611	-12.12
889.782	41.13
889.953	-14.17
890.125	-28.5
890.296	14.51
890.467	63.66
890.638	-36.69
890.809	-32.6
890.98	88.23
891.151	-71.51
891.323	96.43
891.494	26.79
891.665	-34.64
891.836	22.7
892.007	8.36
892.178	41.13
892.349	4.27
892.52	-32.6
892.691	-14.17
892.862	-44.88
893.032	-8.02
893.203	32.94
893.374	18.6
893.545	80.04
893.716	-34.64
893.887	77.99
894.057	20.65
894.228	34.99
894.399	20.65
894.57	82.09
894.74	-26.45
894.911	24.75
895.082	-16.21
895.253	10.41
895.423	-28.5
895.594	34.99
895.764	-14.17
895.935	-5.97
896.106	32.94
896.276	10.41
896.447	73.9
896.617	77.99
896.788	18.6
896.958	22.7
897.129	8.36
897.299	47.27
897.47	-16.21
897.64	18.6
897.81	16.55
897.981	2.22
898.151	-63.32
898.322	2.22
898.492	-22.36
898.662	-1.88
898.832	-3.93
899.003	8.36
899.173	20.65
899.343	12.46
899.513	39.08
