Data from USB4F104151__12__11-51-11-711.txt Node

Date: Fri Mar 14 11:51:11 EDT 2025
User: louis
Spectrometer: USB4F10415
Trigger mode: 4
Integration Time (sec): 2.000000E-2
Scans to average: 1
Electric dark correction enabled: true
Nonlinearity correction enabled: false
Boxcar width: 0
XAxis mode: Wavelengths
Number of Pixels in Spectrum: 3648
>>>>>Begin Spectral Data<<<<<
178.204	-71.51
178.424	-71.51
178.644	-71.51
178.864	-67.41
179.084	-153.43
179.304	-8.02
179.524	-42.84
179.744	-12.12
179.964	2.22
180.184	-3.93
180.404	45.23
180.624	45.23
180.844	43.18
181.064	-20.31
181.283	-1.88
181.503	-61.27
181.723	14.51
181.943	-94.04
182.163	108.71
182.383	4.27
182.602	-3.93
182.822	-26.45
183.042	20.65
183.262	-44.88
183.482	8.36
183.701	30.89
183.921	26.79
184.141	-16.21
184.361	0.17
184.58	51.37
184.8	100.52
185.02	-3.93
185.239	18.6
185.459	-3.93
185.679	51.37
185.898	12.46
186.118	2.22
186.338	18.6
186.557	59.56
186.777	-22.36
186.997	20.65
187.216	-81.75
187.436	34.99
187.655	20.65
187.875	63.66
188.095	10.41
188.314	12.46
188.534	2.22
188.753	26.79
188.973	-20.31
189.192	51.37
189.412	-8.02
189.631	18.6
189.851	34.99
190.07	77.99
190.29	-53.08
190.509	49.32
190.729	26.79
190.948	30.89
191.168	41.13
191.387	-16.21
191.607	-46.93
191.826	30.89
192.045	32.94
192.265	6.31
192.484	32.94
192.704	-94.04
192.923	30.89
193.142	125.1
193.362	16.55
193.581	69.8
193.8	86.19
194.02	10.41
194.239	49.32
194.458	59.56
194.678	-18.26
194.897	10.41
195.116	-12.12
195.335	14.51
195.555	37.03
195.774	34.99
195.993	-8.02
196.212	24.75
196.432	-51.03
196.651	49.32
196.87	-14.17
197.089	20.65
197.308	12.46
197.528	61.61
197.747	45.23
197.966	118.95
198.185	28.84
198.404	43.18
198.623	28.84
198.842	129.19
199.062	-32.6
199.281	41.13
199.5	-3.93
199.719	22.7
199.938	28.84
200.157	41.13
200.376	37.03
200.595	8.36
200.814	-1.88
201.033	12.46
201.252	47.27
201.471	69.8
201.69	61.61
201.909	24.75
202.128	26.79
202.347	47.27
202.566	80.04
202.785	51.37
203.004	26.79
203.223	4.27
203.442	-12.12
203.661	6.31
203.879	-12.12
204.098	73.9
204.317	10.41
204.536	26.79
204.755	100.52
204.974	20.65
205.193	-8.02
205.411	0.17
205.63	-22.36
205.849	-14.17
206.068	6.31
206.287	67.75
206.505	-16.21
206.724	-69.46
206.943	-14.17
207.162	-18.26
207.381	14.51
207.599	-16.21
207.818	20.65
208.037	16.55
208.255	4.27
208.474	-1.88
208.693	45.23
208.911	22.7
209.13	65.71
209.349	24.75
209.567	37.03
209.786	34.99
210.005	-40.79
210.223	-5.97
210.442	0.17
210.661	26.79
210.879	-14.17
211.098	-57.17
211.316	26.79
211.535	41.13
211.753	20.65
211.972	8.36
212.191	14.51
212.409	61.61
212.628	-51.03
212.846	32.94
213.065	-5.97
213.283	18.6
213.502	6.31
213.72	41.13
213.938	6.31
214.157	41.13
214.375	80.04
214.594	12.46
214.812	8.36
215.031	88.23
215.249	77.99
215.467	24.75
215.686	14.51
215.904	-44.88
216.122	137.38
216.341	6.31
216.559	53.42
216.778	22.7
216.996	30.89
217.214	53.42
217.432	47.27
217.651	96.43
217.869	-30.55
218.087	59.56
218.306	-94.04
218.524	55.47
218.742	8.36
218.96	73.9
219.179	-32.6
219.397	30.89
219.615	55.47
219.833	2.22
220.051	30.89
220.27	75.95
220.488	43.18
220.706	86.19
220.924	37.03
221.142	10.41
221.36	77.99
221.578	32.94
221.796	49.32
222.015	67.75
222.233	-16.21
222.451	88.23
222.669	32.94
222.887	47.27
223.105	80.04
223.323	6.31
223.541	-10.07
223.759	-48.98
223.977	69.8
224.195	92.33
224.413	-1.88
224.631	39.08
224.849	8.36
225.067	-14.17
225.285	0.17
225.503	-10.07
225.721	24.75
225.939	-20.31
226.157	57.51
226.375	26.79
226.592	-24.4
226.81	20.65
227.028	90.28
227.246	4.27
227.464	-16.21
227.682	16.55
227.9	53.42
228.117	118.95
228.335	-44.88
228.553	-10.07
228.771	43.18
228.989	-18.26
229.206	12.46
229.424	75.95
229.642	73.9
229.86	2.22
230.077	-46.93
230.295	41.13
230.513	-5.97
230.731	6.31
230.948	-16.21
231.166	92.33
231.384	-34.64
231.601	37.03
231.819	92.33
232.037	22.7
232.254	67.75
232.472	12.46
232.689	45.23
232.907	16.55
233.125	24.75
233.342	20.65
233.56	30.89
233.777	57.51
233.995	-57.17
234.213	12.46
234.43	6.31
234.648	-3.93
234.865	39.08
235.083	-16.21
235.3	10.41
235.518	88.23
235.735	112.81
235.953	86.19
236.17	32.94
236.388	16.55
236.605	-18.26
236.822	2.22
237.04	67.75
237.257	16.55
237.475	61.61
237.692	63.66
237.909	8.36
238.127	4.27
238.344	4.27
238.562	32.94
238.779	6.31
238.996	43.18
239.214	20.65
239.431	94.38
239.648	-32.6
239.865	49.32
240.083	135.34
240.3	45.23
240.517	47.27
240.735	-18.26
240.952	69.8
241.169	63.66
241.386	16.55
241.603	20.65
241.821	-22.36
242.038	55.47
242.255	125.1
242.472	28.84
242.689	63.66
242.907	30.89
243.124	-40.79
243.341	49.32
243.558	24.75
243.775	-40.79
243.992	30.89
244.209	-44.88
244.426	-3.93
244.643	61.61
244.86	4.27
245.078	75.95
245.295	100.52
245.512	-14.17
245.729	10.41
245.946	-26.45
246.163	-46.93
246.38	18.6
246.597	80.04
246.814	-10.07
247.031	55.47
247.248	47.27
247.464	71.85
247.681	100.52
247.898	30.89
248.115	0.17
248.332	4.27
248.549	12.46
248.766	157.86
248.983	-30.55
249.2	-16.21
249.417	18.6
249.633	30.89
249.85	116.9
250.067	-12.12
250.284	55.47
250.501	55.47
250.717	-38.74
250.934	0.17
251.151	12.46
251.368	61.61
251.585	104.62
251.801	2.22
252.018	8.36
252.235	8.36
252.451	-5.97
252.668	16.55
252.885	80.04
253.102	-36.69
253.318	-14.17
253.535	28.84
253.752	59.56
253.968	-26.45
254.185	20.65
254.401	-14.17
254.618	55.47
254.835	57.51
255.051	73.9
255.268	6.31
255.484	18.6
255.701	-53.08
255.917	82.09
256.134	12.46
256.351	63.66
256.567	-12.12
256.784	39.08
257	-67.41
257.217	63.66
257.433	20.65
257.65	90.28
257.866	63.66
258.082	22.7
258.299	34.99
258.515	30.89
258.732	37.03
258.948	-34.64
259.165	28.84
259.381	-3.93
259.597	16.55
259.814	104.62
260.03	14.51
260.246	-32.6
260.463	41.13
260.679	-24.4
260.895	75.95
261.112	49.32
261.328	26.79
261.544	-12.12
261.761	0.17
261.977	-1.88
262.193	-18.26
262.409	14.51
262.626	86.19
262.842	53.42
263.058	28.84
263.274	53.42
263.49	61.61
263.707	43.18
263.923	24.75
264.139	-36.69
264.355	28.84
264.571	57.51
264.787	18.6
265.004	57.51
265.22	30.89
265.436	-8.02
265.652	22.7
265.868	6.31
266.084	37.03
266.3	6.31
266.516	-24.4
266.732	-3.93
266.948	30.89
267.164	67.75
267.38	-18.26
267.596	24.75
267.812	86.19
268.028	80.04
268.244	32.94
268.46	16.55
268.676	-28.5
268.892	30.89
269.108	24.75
269.324	67.75
269.54	6.31
269.756	41.13
269.972	-26.45
270.188	24.75
270.403	32.94
270.619	18.6
270.835	-10.07
271.051	-14.17
271.267	-3.93
271.483	20.65
271.698	30.89
271.914	16.55
272.13	-1.88
272.346	-1.88
272.562	0.17
272.777	86.19
272.993	-16.21
273.209	2.22
273.425	47.27
273.64	28.84
273.856	28.84
274.072	30.89
274.287	34.99
274.503	10.41
274.719	45.23
274.934	0.17
275.15	-3.93
275.366	28.84
275.581	41.13
275.797	61.61
276.012	30.89
276.228	-5.97
276.444	-32.6
276.659	41.13
276.875	-42.84
277.09	-12.12
277.306	-16.21
277.521	94.38
277.737	-32.6
277.952	20.65
278.168	41.13
278.383	2.22
278.599	59.56
278.814	65.71
279.03	2.22
279.245	18.6
279.461	-5.97
279.676	6.31
279.892	18.6
280.107	-36.69
280.322	20.65
280.538	18.6
280.753	-20.31
280.969	14.51
281.184	12.46
281.399	75.95
281.615	10.41
281.83	45.23
282.045	-8.02
282.26	-34.64
282.476	-1.88
282.691	-14.17
282.906	100.52
283.122	39.08
283.337	16.55
283.552	41.13
283.767	-5.97
283.983	88.23
284.198	34.99
284.413	34.99
284.628	45.23
284.843	-3.93
285.058	-85.84
285.274	73.9
285.489	-30.55
285.704	75.95
285.919	-20.31
286.134	88.23
286.349	-34.64
286.564	-10.07
286.779	8.36
286.995	-20.31
287.21	41.13
287.425	-1.88
287.64	-8.02
287.855	47.27
288.07	-20.31
288.285	82.09
288.5	4.27
288.715	18.6
288.93	-69.46
289.145	53.42
289.36	-16.21
289.575	30.89
289.79	8.36
290.004	32.94
290.219	14.51
290.434	-16.21
290.649	0.17
290.864	39.08
291.079	14.51
291.294	39.08
291.509	-8.02
291.724	57.51
291.938	4.27
292.153	32.94
292.368	4.27
292.583	16.55
292.798	37.03
293.012	32.94
293.227	-20.31
293.442	-16.21
293.657	30.89
293.871	100.52
294.086	-30.55
294.301	41.13
294.516	-20.31
294.73	55.47
294.945	61.61
295.16	4.27
295.374	84.14
295.589	8.36
295.804	-5.97
296.018	59.56
296.233	47.27
296.447	-20.31
296.662	-57.17
296.877	77.99
297.091	90.28
297.306	-26.45
297.52	-55.12
297.735	67.75
297.949	-67.41
298.164	-12.12
298.378	59.56
298.593	67.75
298.807	69.8
299.022	-1.88
299.236	45.23
299.451	49.32
299.665	63.66
299.88	61.61
300.094	-8.02
300.309	-24.4
300.523	41.13
300.737	112.81
300.952	53.42
301.166	73.9
301.381	-24.4
301.595	57.51
301.809	-8.02
302.024	26.79
302.238	12.46
302.452	-30.55
302.667	4.27
302.881	49.32
303.095	80.04
303.309	16.55
303.524	-22.36
303.738	71.85
303.952	6.31
304.166	28.84
304.381	0.17
304.595	61.61
304.809	-24.4
305.023	28.84
305.237	18.6
305.452	53.42
305.666	80.04
305.88	69.8
306.094	22.7
306.308	20.65
306.522	98.47
306.736	88.23
306.95	57.51
307.164	59.56
307.379	77.99
307.593	-3.93
307.807	71.85
308.021	49.32
308.235	-12.12
308.449	-16.21
308.663	20.65
308.877	133.29
309.091	34.99
309.305	55.47
309.519	4.27
309.733	57.51
309.947	-3.93
310.161	43.18
310.374	32.94
310.588	-14.17
310.802	49.32
311.016	24.75
311.23	34.99
311.444	24.75
311.658	71.85
311.872	2.22
312.085	-26.45
312.299	-61.27
312.513	59.56
312.727	-61.27
312.941	2.22
313.154	-14.17
313.368	71.85
313.582	28.84
313.796	-5.97
314.009	80.04
314.223	37.03
314.437	-51.03
314.651	63.66
314.864	-20.31
315.078	-12.12
315.292	69.8
315.505	28.84
315.719	39.08
315.933	49.32
316.146	14.51
316.36	67.75
316.573	26.79
316.787	0.17
317.001	20.65
317.214	30.89
317.428	8.36
317.641	-22.36
317.855	-3.93
318.068	-1.88
318.282	84.14
318.495	96.43
318.709	34.99
318.922	8.36
319.136	53.42
319.349	16.55
319.563	0.17
319.776	-24.4
319.99	-40.79
320.203	14.51
320.417	2.22
320.63	28.84
320.843	53.42
321.057	-34.64
321.27	49.32
321.483	65.71
321.697	20.65
321.91	147.62
322.124	57.51
322.337	92.33
322.55	12.46
322.763	28.84
322.977	14.51
323.19	6.31
323.403	4.27
323.617	55.47
323.83	104.62
324.043	-12.12
324.256	12.46
324.469	-10.07
324.683	57.51
324.896	28.84
325.109	-32.6
325.322	53.42
325.535	-44.88
325.748	6.31
325.962	41.13
326.175	47.27
326.388	30.89
326.601	53.42
326.814	92.33
327.027	53.42
327.24	53.42
327.453	-16.21
327.666	-3.93
327.879	10.41
328.092	8.36
328.305	-12.12
328.518	41.13
328.731	18.6
328.944	14.51
329.157	24.75
329.37	-44.88
329.583	22.7
329.796	65.71
330.009	28.84
330.222	55.47
330.435	65.71
330.648	86.19
330.861	32.94
331.073	-20.31
331.286	32.94
331.499	61.61
331.712	16.55
331.925	-1.88
332.138	10.41
332.35	67.75
332.563	-57.17
332.776	20.65
332.989	-28.5
333.202	-8.02
333.414	69.8
333.627	51.37
333.84	-26.45
334.053	49.32
334.265	41.13
334.478	-1.88
334.691	24.75
334.903	45.23
335.116	-38.74
335.329	47.27
335.541	49.32
335.754	10.41
335.966	-16.21
336.179	34.99
336.392	-12.12
336.604	106.67
336.817	0.17
337.029	10.41
337.242	47.27
337.454	4.27
337.667	22.7
337.88	10.41
338.092	6.31
338.305	24.75
338.517	32.94
338.729	51.37
338.942	63.66
339.154	12.46
339.367	-10.07
339.579	-5.97
339.792	-20.31
340.004	118.95
340.217	20.65
340.429	45.23
340.641	63.66
340.854	16.55
341.066	-48.98
341.278	34.99
341.491	84.14
341.703	49.32
341.915	118.95
342.128	80.04
342.34	-59.22
342.552	20.65
342.764	65.71
342.977	67.75
343.189	6.31
343.401	65.71
343.613	45.23
343.826	69.8
344.038	-8.02
344.25	45.23
344.462	45.23
344.674	30.89
344.886	-42.84
345.099	55.47
345.311	57.51
345.523	86.19
345.735	30.89
345.947	-14.17
346.159	47.27
346.371	0.17
346.583	59.56
346.795	67.75
347.007	8.36
347.219	-12.12
347.431	-12.12
347.643	49.32
347.855	-63.32
348.067	32.94
348.279	41.13
348.491	30.89
348.703	88.23
348.915	24.75
349.127	-3.93
349.339	-1.88
349.551	-16.21
349.763	43.18
349.975	20.65
350.187	63.66
350.399	-1.88
350.61	8.36
350.822	61.61
351.034	121
351.246	39.08
351.458	8.36
351.669	0.17
351.881	82.09
352.093	80.04
352.305	110.76
352.517	26.79
352.728	45.23
352.94	41.13
353.152	47.27
353.363	28.84
353.575	43.18
353.787	110.76
353.999	41.13
354.21	0.17
354.422	43.18
354.633	20.65
354.845	8.36
355.057	18.6
355.268	69.8
355.48	-8.02
355.692	26.79
355.903	65.71
356.115	73.9
356.326	6.31
356.538	45.23
356.749	14.51
356.961	59.56
357.172	18.6
357.384	34.99
357.595	131.24
357.807	84.14
358.018	4.27
358.23	34.99
358.441	49.32
358.653	12.46
358.864	-3.93
359.075	24.75
359.287	-28.5
359.498	43.18
359.709	80.04
359.921	53.42
360.132	-73.56
360.344	92.33
360.555	0.17
360.766	-20.31
360.977	-3.93
361.189	75.95
361.4	61.61
361.611	47.27
361.823	53.42
362.034	6.31
362.245	-55.12
362.456	-3.93
362.667	55.47
362.879	-12.12
363.09	18.6
363.301	63.66
363.512	-16.21
363.723	51.37
363.935	20.65
364.146	57.51
364.357	-46.93
364.568	-20.31
364.779	0.17
364.99	6.31
365.201	2.22
365.412	-1.88
365.623	-32.6
365.834	45.23
366.045	39.08
366.256	84.14
366.467	18.6
366.678	71.85
366.889	57.51
367.1	51.37
367.311	34.99
367.522	4.27
367.733	55.47
367.944	37.03
368.155	49.32
368.366	6.31
368.577	47.27
368.788	57.51
368.999	43.18
369.209	61.61
369.42	121
369.631	51.37
369.842	8.36
370.053	32.94
370.264	63.66
370.474	30.89
370.685	-5.97
370.896	41.13
371.107	32.94
371.317	53.42
371.528	-61.27
371.739	26.79
371.95	22.7
372.16	84.14
372.371	2.22
372.582	8.36
372.792	94.38
373.003	37.03
373.214	32.94
373.424	34.99
373.635	82.09
373.846	32.94
374.056	37.03
374.267	61.61
374.477	73.9
374.688	28.84
374.898	32.94
375.109	4.27
375.319	-14.17
375.53	77.99
375.74	0.17
375.951	90.28
376.161	88.23
376.372	2.22
376.582	-51.03
376.793	12.46
377.003	-16.21
377.214	61.61
377.424	92.33
377.635	63.66
377.845	-36.69
378.055	26.79
378.266	-53.08
378.476	6.31
378.686	12.46
378.897	55.47
379.107	65.71
379.317	77.99
379.528	14.51
379.738	77.99
379.948	-14.17
380.158	49.32
380.369	18.6
380.579	30.89
380.789	0.17
380.999	75.95
381.21	4.27
381.42	125.1
381.63	10.41
381.84	100.52
382.05	18.6
382.261	61.61
382.471	-14.17
382.681	-10.07
382.891	22.7
383.101	88.23
383.311	90.28
383.521	45.23
383.731	51.37
383.941	106.67
384.151	8.36
384.361	73.9
384.571	92.33
384.781	-5.97
384.991	55.47
385.201	57.51
385.411	63.66
385.621	-20.31
385.831	39.08
386.041	-44.88
386.251	59.56
386.461	53.42
386.671	8.36
386.881	63.66
387.091	32.94
387.301	86.19
387.511	71.85
387.72	67.75
387.93	34.99
388.14	-40.79
388.35	30.89
388.56	73.9
388.769	53.42
388.979	61.61
389.189	86.19
389.399	45.23
389.609	20.65
389.818	18.6
390.028	-18.26
390.238	49.32
390.447	6.31
390.657	2.22
390.867	12.46
391.076	106.67
391.286	63.66
391.496	67.75
391.705	28.84
391.915	-16.21
392.125	92.33
392.334	41.13
392.544	118.95
392.753	45.23
392.963	32.94
393.172	34.99
393.382	41.13
393.591	106.67
393.801	-42.84
394.01	75.95
394.22	55.47
394.429	45.23
394.639	43.18
394.848	112.81
395.058	12.46
395.267	92.33
395.477	73.9
395.686	28.84
395.895	55.47
396.105	88.23
396.314	118.95
396.524	57.51
396.733	69.8
396.942	125.1
397.152	39.08
397.361	10.41
397.57	10.41
397.78	73.9
397.989	125.1
398.198	131.24
398.407	71.85
398.617	32.94
398.826	-10.07
399.035	-1.88
399.244	65.71
399.453	100.52
399.663	18.6
399.872	28.84
400.081	65.71
400.29	84.14
400.499	-18.26
400.708	55.47
400.917	73.9
401.127	108.71
401.336	65.71
401.545	45.23
401.754	96.43
401.963	47.27
402.172	106.67
402.381	49.32
402.59	69.8
402.799	69.8
403.008	24.75
403.217	88.23
403.426	100.52
403.635	90.28
403.844	116.9
404.053	92.33
404.262	102.57
404.471	172.2
404.68	30.89
404.888	125.1
405.097	92.33
405.306	55.47
405.515	139.43
405.724	106.67
405.933	90.28
406.142	133.29
406.35	116.9
406.559	108.71
406.768	192.68
406.977	204.97
407.185	53.42
407.394	127.14
407.603	114.86
407.812	180.39
408.02	188.58
408.229	125.1
408.438	207.02
408.646	133.29
408.855	155.82
409.064	147.62
409.272	159.91
409.481	198.82
409.69	184.49
409.898	194.73
410.107	243.88
410.315	217.26
410.524	250.02
410.733	315.56
410.941	200.87
411.15	315.56
411.358	229.54
411.567	297.13
411.775	215.21
411.984	323.75
412.192	229.54
412.401	286.89
412.609	405.67
412.818	327.85
413.026	321.7
413.234	391.33
413.443	266.41
413.651	428.2
413.86	342.18
414.068	446.63
414.276	413.86
414.485	401.57
414.693	415.91
414.901	387.24
415.11	444.58
415.318	516.26
415.526	501.92
415.734	544.93
415.943	516.26
416.151	465.06
416.359	506.02
416.567	594.08
416.776	577.7
416.984	618.66
417.192	739.49
417.4	583.84
417.608	608.42
417.817	749.73
418.025	786.59
418.233	864.41
418.441	753.82
418.649	895.13
418.857	862.37
419.065	891.04
419.273	882.85
419.481	893.09
419.689	835.74
419.897	1007.77
420.105	997.53
420.313	1003.68
420.521	1134.75
420.729	1075.35
420.937	1071.26
421.145	1151.13
421.353	1192.09
421.561	1351.83
421.769	1366.17
421.977	1329.3
422.185	1378.45
422.393	1390.74
422.601	1536.15
422.809	1564.82
423.017	1501.33
423.224	1609.87
423.432	1683.6
423.64	1652.88
423.848	1898.64
424.056	1777.81
424.263	2005.13
424.471	1884.3
424.679	1968.27
424.887	2095.24
425.094	2072.72
425.302	2150.54
425.51	2310.28
425.718	2357.38
425.925	2308.23
426.133	2410.63
426.341	2418.82
426.548	2582.66
426.756	2695.3
426.964	2611.33
427.171	2756.74
427.379	2877.57
427.586	2914.43
427.794	2945.15
428.001	3313.78
428.209	3238.01
428.417	3229.82
428.624	3541.11
428.832	3369.08
429.039	3543.16
429.247	3512.44
429.454	3825.78
429.662	4034.67
429.869	3709.04
430.076	4018.29
430.284	3895.41
430.491	4178.03
430.699	4405.35
430.906	4384.87
431.114	4421.74
431.321	4444.26
431.528	4659.3
431.736	4884.58
431.943	5173.34
432.15	4896.86
432.358	5072.99
432.565	5355.61
432.772	5353.56
432.979	5621.84
433.187	5804.11
433.394	5740.63
433.601	6234.19
433.808	6246.48
434.016	6199.37
434.223	6279.24
434.43	6692.93
434.637	6658.12
434.844	7020.61
435.052	7116.86
435.259	7094.33
435.466	6996.03
435.673	7104.57
435.88	7575.61
436.087	7944.24
436.294	7940.15
436.501	7927.86
436.708	7700.53
436.915	8310.83
437.122	8577.06
437.329	8527.91
437.537	8755.24
437.743	8871.97
437.95	8867.88
438.157	9392.16
438.364	9719.83
438.571	9623.58
438.778	9703.45
438.985	10588.17
439.192	10344.46
439.399	10627.08
439.606	10360.84
439.813	10756.1
440.02	11472.89
440.227	11292.67
440.433	11087.87
440.64	11759.61
440.847	11515.9
441.054	11827.19
441.261	12732.39
441.467	12613.61
441.674	12818.41
441.881	12984.29
442.088	13254.62
442.294	13109.22
442.501	13334.5
442.708	13664.22
442.914	14186.45
443.121	14757.83
443.328	14258.13
443.534	15384.51
443.741	14868.42
443.948	14811.08
444.154	15898.55
444.361	15759.29
444.568	15765.43
444.774	15808.44
444.981	16060.34
445.187	16621.49
445.394	17029.03
445.6	16957.35
445.807	18397.07
446.013	17987.48
446.22	18132.89
446.426	18960.27
446.633	18874.25
446.839	19562.37
447.046	18630.54
447.252	19951.48
447.459	19505.03
447.665	19758.97
447.871	20850.54
448.078	21544.8
448.284	20543.35
448.491	21141.35
448.697	21905.24
448.903	22075.23
449.11	22456.15
449.316	21852
449.522	22570.83
449.728	23052.11
449.935	23217.99
450.141	22812.49
450.347	23693.12
450.553	22751.06
450.76	23234.38
450.966	24186.68
451.172	23576.39
451.378	24332.09
451.584	23744.32
451.791	24315.7
451.997	24377.14
452.203	24725.3
452.409	24686.39
452.615	24606.52
452.821	23611.2
453.027	23416.65
453.233	24839.98
453.44	23717.7
453.646	24063.8
453.852	23922.49
454.058	24387.38
454.264	23758.66
454.47	24211.26
454.676	23596.87
454.882	24268.6
455.088	22191.96
455.294	22761.3
455.5	22939.47
455.705	22970.19
455.911	22163.29
456.117	21739.36
456.323	21747.55
456.529	20295.54
456.735	21063.53
456.941	20592.5
457.147	20477.81
457.352	19601.28
457.558	19505.03
457.764	19578.75
457.97	19445.63
458.176	18661.26
458.381	18851.72
458.587	17878.94
458.793	17706.91
458.999	16754.6
459.204	18231.19
459.41	17792.92
459.616	16687.02
459.821	16482.22
460.027	16670.64
460.233	16078.77
460.438	15280.07
460.644	15478.72
460.85	14723.02
461.055	14589.9
461.261	14477.26
461.466	13688.79
461.672	13273.06
461.878	13981.65
462.083	13199.33
462.289	12828.65
462.494	12734.44
462.7	12216.3
462.905	11857.91
463.111	12267.5
463.316	12296.18
463.522	11853.81
463.727	11984.88
463.932	12079.09
464.138	11937.78
464.343	11847.67
464.549	11427.84
464.754	11642.87
464.959	11913.2
465.165	11755.51
465.37	11231.23
465.575	10936.32
465.781	11452.41
465.986	11372.54
466.191	10989.57
466.397	10739.72
466.602	10303.5
466.807	10858.5
467.012	10827.78
467.218	10633.22
467.423	10579.98
467.628	10579.98
467.833	11012.1
468.038	10481.67
468.244	10207.25
468.449	10737.67
468.654	10276.88
468.859	10088.46
469.064	10090.51
469.269	9801.75
469.474	9832.47
469.679	10010.64
469.885	9785.37
470.09	10010.64
470.295	9629.72
470.5	9644.06
470.705	9750.55
470.91	9349.15
471.115	9754.65
471.32	9519.13
471.525	9592.86
471.73	9310.24
471.935	9263.13
472.139	8972.32
472.344	9095.2
472.549	8951.84
472.754	8953.89
472.959	8693.8
473.164	8529.96
473.369	8448.04
473.574	8626.22
473.778	8517.67
473.983	8589.35
474.188	8482.86
474.393	8233.01
474.598	8024.11
474.802	8112.17
475.007	8022.06
475.212	8073.26
475.417	7725.11
475.621	7688.25
475.826	7708.73
476.031	7694.39
476.235	7661.62
476.44	7770.16
476.645	7469.11
476.849	7530.55
477.054	7391.29
477.259	7186.49
477.463	7262.27
477.668	6926.4
477.872	7129.15
478.077	7041.09
478.282	6733.89
478.486	6897.73
478.691	6711.36
478.895	6600.77
479.1	6791.24
479.304	6731.84
479.509	6627.4
479.713	6676.55
479.918	6436.94
480.122	6506.57
480.326	6547.53
480.531	6529.1
480.735	6488.14
480.94	6490.18
481.144	6537.29
481.348	6105.17
481.553	6275.15
481.757	6152.27
481.961	6219.85
482.166	6277.19
482.37	6447.18
482.574	6350.92
482.778	6316.11
482.983	6357.07
483.187	6207.56
483.391	6273.1
483.595	6320.2
483.8	6109.26
484.004	6197.32
484.208	6285.39
484.412	6240.33
484.616	6381.64
484.821	6326.35
485.025	6236.24
485.229	6377.55
485.433	6215.76
485.637	6467.66
485.841	6334.54
486.045	6150.22
486.249	6197.32
486.453	6146.12
486.657	6346.83
486.861	6336.59
487.065	6117.45
487.269	6156.36
487.473	6082.64
487.677	6289.48
487.881	6381.64
488.085	6322.25
488.289	6230.09
488.493	6180.94
488.697	6260.81
488.901	6299.72
489.105	6248.52
489.309	6293.58
489.512	6242.38
489.716	6271.05
489.92	6127.69
490.124	6154.32
490.328	6418.5
490.531	6264.91
490.735	6373.45
490.939	6525
491.143	6438.98
491.346	6387.79
491.55	6459.46
491.754	6479.94
491.958	6795.33
492.161	6692.93
492.365	6565.96
492.569	6461.51
492.772	6512.71
492.976	6592.58
493.18	6817.86
493.383	6754.37
493.587	6922.31
493.79	6750.28
493.994	6830.15
494.197	6910.02
494.401	7153.73
494.605	7004.22
494.808	7168.06
495.012	7067.71
495.215	7075.9
495.419	7100.48
495.622	7039.04
495.825	7340.09
496.029	7249.98
496.232	7288.89
496.436	7473.21
496.639	7512.12
496.843	7544.89
497.046	7796.79
497.249	7708.73
497.453	7751.73
497.656	7954.48
497.859	7860.27
498.063	7915.57
498.266	8169.52
498.469	8060.98
498.673	8118.32
498.876	8435.75
499.079	8343.6
499.282	8441.9
499.485	8501.29
499.689	8599.59
499.892	8759.33
500.095	8759.33
500.298	9052.19
500.501	8919.07
500.705	9259.04
500.908	9361.44
501.111	9379.87
501.314	9236.51
501.517	9865.24
501.72	9764.89
501.923	9549.85
502.126	9875.48
502.329	10129.42
502.532	10059.79
502.735	10027.03
502.938	10385.42
503.141	10469.39
503.344	10627.08
503.547	10428.43
503.75	10862.6
503.953	10715.14
504.156	10930.18
504.359	10885.12
504.562	11122.69
504.765	11307.01
504.968	11272.19
505.17	11427.84
505.373	11479.04
505.576	11866.1
505.779	11866.1
505.982	11857.91
506.185	12081.14
506.387	12212.21
506.59	12371.95
506.793	12629.99
506.996	12568.55
507.198	12898.28
507.401	12871.65
507.604	12875.75
507.807	13244.38
508.009	13232.1
508.212	13336.54
508.415	13498.33
508.617	13838.3
508.82	13971.41
509.022	13715.42
509.225	13922.26
509.428	14270.42
509.63	14229.46
509.833	14432.21
510.035	14727.11
510.238	14725.07
510.44	14575.56
510.643	15114.18
510.845	15110.08
511.048	15093.7
511.25	15370.18
511.453	15509.44
511.655	16097.21
511.858	15738.81
512.06	16029.62
512.262	16150.45
512.465	16091.06
512.667	16351.15
512.87	16580.53
513.072	16435.12
513.274	16926.63
513.477	17178.53
513.679	17092.52
513.881	17606.56
514.084	17594.27
514.286	17440.67
514.488	17823.64
514.69	18558.86
514.893	18243.48
515.095	18522
515.297	18730.89
515.499	18448.27
515.701	18978.7
515.904	18929.55
516.106	19163.01
516.308	19412.87
516.51	19677.05
516.712	19437.44
516.914	20027.26
517.116	20455.28
517.318	20135.8
517.52	20092.79
517.722	20465.52
517.925	20756.33
518.127	20797.29
518.329	20961.13
518.531	21286.76
518.733	21475.17
518.935	21876.57
519.136	21622.62
519.338	22275.93
519.54	22194.01
519.742	22277.97
519.944	22273.88
520.146	22904.65
520.348	23256.9
520.55	23103.31
520.752	23123.79
520.954	23545.67
521.155	23355.21
521.357	23387.97
521.559	24143.67
521.761	24141.63
521.963	24444.73
522.164	24665.91
522.366	24473.4
522.568	24780.59
522.77	24962.86
522.971	25177.9
523.173	25061.16
523.375	25392.94
523.576	25251.63
523.778	25442.09
523.98	26095.39
524.181	25952.03
524.383	26033.95
524.584	26425.11
524.786	26472.21
524.988	26629.91
525.189	26855.18
525.391	27225.87
525.592	26824.47
525.794	27291.4
525.995	27315.98
526.197	27387.66
526.398	27193.1
526.6	27590.41
526.801	28108.54
527.003	28133.12
527.204	27703.04
527.406	28417.79
527.607	28088.06
527.808	28296.95
528.01	27922.18
528.211	28118.78
528.412	28788.47
528.614	28753.65
528.815	28759.8
529.016	29040.37
529.218	28772.08
529.419	29193.97
529.62	29130.48
529.822	29114.09
530.023	29327.08
530.224	29048.56
530.425	29282.03
530.626	28935.92
530.828	28749.56
531.029	29681.38
531.23	29290.22
531.431	29460.2
531.632	29710.05
531.833	29875.94
532.035	29847.27
532.236	30099.17
532.437	29740.77
532.638	29613.8
532.839	29796.07
533.04	29996.77
533.241	29372.14
533.442	29984.48
533.643	30314.2
533.844	29941.47
534.045	30072.54
534.246	29974.24
534.447	30236.38
534.648	29984.48
534.849	30123.74
535.05	29920.99
535.251	30019.3
535.451	29912.8
535.652	30308.06
535.853	30125.79
536.054	30709.46
536.255	30015.2
536.456	30105.31
536.657	30394.07
536.857	30410.46
537.058	30064.35
537.259	30684.89
537.46	30076.64
537.66	30090.98
537.861	30562.01
538.062	30105.31
538.263	30572.25
538.463	30326.49
538.664	30400.22
538.865	30650.07
539.065	30752.47
539.266	30363.36
539.466	30760.66
539.667	30174.94
539.868	30545.62
540.068	30662.36
540.269	30172.89
540.469	30234.33
540.67	30605.02
540.87	30168.8
541.071	30310.11
541.271	29933.28
541.472	30392.03
541.672	30248.67
541.873	30181.09
542.073	29992.67
542.274	30500.57
542.474	30496.47
542.675	29777.64
542.875	30516.95
543.075	30185.18
543.276	29980.39
543.476	30639.83
543.676	29986.53
543.877	30179.04
544.077	29974.24
544.277	30041.82
544.478	29943.52
544.678	30281.44
544.878	30299.87
545.078	30455.51
545.279	30078.69
545.479	29726.44
545.679	30371.55
545.879	30150.37
546.079	30185.18
546.28	30019.3
546.48	29648.61
546.68	30076.64
546.88	30191.33
547.08	30322.4
547.28	30086.88
547.48	30166.75
547.68	30174.94
547.88	29947.62
548.081	30109.41
548.281	30330.59
548.481	29822.69
548.681	30475.99
548.881	30295.77
549.081	30133.98
549.28	29951.71
549.48	30070.5
549.68	30068.45
549.88	30369.5
550.08	29935.33
550.28	30068.45
550.48	30054.11
550.68	30463.71
550.88	29935.33
551.08	29964
551.279	30152.41
551.479	29544.17
551.679	30269.15
551.879	29906.66
552.079	30183.13
552.278	29949.67
552.478	29943.52
552.678	30154.46
552.878	29988.58
553.077	30090.98
553.277	29794.02
553.477	30082.78
553.676	29857.51
553.876	29703.91
554.076	29638.37
554.275	29880.03
554.475	29329.13
554.674	29589.22
554.874	29730.53
555.074	29538.02
555.273	29787.88
555.473	29718.25
555.672	29337.32
555.872	29630.18
556.071	30043.87
556.271	29687.53
556.47	29339.37
556.67	29368.04
556.869	29230.83
557.068	29349.61
557.268	29165.29
557.467	29400.81
557.667	29388.52
557.866	29380.33
558.065	28927.73
558.265	29118.19
558.464	28997.36
558.663	29206.25
558.863	28608.25
559.062	29155.05
559.261	28858.1
559.461	29255.4
559.66	28790.52
559.859	29126.38
560.058	28536.57
560.258	28839.67
560.457	28573.43
560.656	28802.8
560.855	28673.78
561.054	28704.5
561.253	28497.66
561.453	28522.23
561.652	28741.36
561.851	28462.84
562.05	28444.41
562.249	28212.99
562.448	28296.95
562.647	28434.17
562.846	27854.59
563.045	28321.53
563.244	27875.07
563.443	28266.24
563.642	27731.72
563.841	28057.34
564.04	27701
564.239	28212.99
564.438	27741.96
564.637	27895.55
564.836	27561.73
565.035	27791.11
565.234	27430.66
565.432	27438.86
565.631	27711.24
565.83	27649.8
566.029	27463.43
566.228	27156.24
566.427	27111.18
566.625	27129.61
566.824	26980.11
567.023	27223.82
567.222	26435.35
567.42	27160.33
567.619	27148.04
567.818	26736.4
568.016	26636.05
568.215	26556.18
568.414	26435.35
568.612	26607.38
568.811	26150.68
569.01	26345.24
569.208	25888.54
569.407	26316.57
569.605	25929.5
569.804	26167.07
570.002	25937.69
570.201	26224.41
570.4	25743.14
570.598	25714.47
570.797	25956.13
570.995	25931.55
571.193	25478.95
571.392	25722.66
571.59	25444.13
571.789	25409.32
571.987	25478.95
572.186	25620.26
572.384	25163.56
572.582	25085.74
572.781	25311.02
572.979	24846.13
573.177	24844.08
573.376	25198.38
573.574	24901.42
573.772	24956.72
573.971	24667.95
574.169	24573.75
574.367	24717.11
574.565	24684.34
574.763	24352.57
574.962	24037.18
575.16	24160.06
575.358	24452.92
575.556	24158.01
575.754	24346.42
575.952	23926.59
576.151	24178.49
576.349	23705.41
576.547	23961.41
576.745	23975.74
576.943	23928.64
577.141	23637.83
577.339	23852.86
577.537	23914.3
577.735	23725.89
577.933	23234.38
578.131	23594.82
578.329	23459.65
578.527	22992.72
578.725	23381.83
578.923	23183.18
579.121	23134.03
579.319	23172.94
579.516	22904.65
579.714	22845.26
579.912	22869.84
580.11	22732.62
580.308	22751.06
580.506	22806.35
580.704	22259.54
580.901	22493.01
581.099	22675.28
581.297	22560.59
581.495	22237.02
581.692	22388.57
581.89	22204.25
582.088	22314.84
582.285	22103.9
582.483	22097.75
582.681	22046.55
582.878	22163.29
583.076	22069.08
583.274	21856.09
583.471	21565.28
583.669	21786.46
583.866	21725.02
584.064	21682.02
584.262	21585.76
584.459	21804.89
584.657	21335.91
584.854	21452.64
585.052	21284.71
585.249	21542.75
585.447	21294.95
585.644	20774.77
585.841	21022.57
586.039	21137.26
586.236	20791.15
586.434	20866.92
586.631	20707.18
586.828	20780.91
587.026	20918.12
587.223	20789.1
587.42	20598.64
587.618	20690.8
587.815	20701.04
588.012	20496.24
588.21	20416.37
588.407	20486
588.604	20404.08
588.801	20176.76
588.999	20539.25
589.196	20305.78
589.393	20178.81
589.59	19980.15
589.787	20182.9
589.984	19791.74
590.182	19742.59
590.379	19898.24
590.576	19423.11
590.773	19656.57
590.97	19421.06
591.167	19599.23
591.364	19197.83
591.561	19414.91
591.758	19249.03
591.955	19216.26
592.152	19369.86
592.349	19042.18
592.546	19031.94
592.743	19003.27
592.94	18679.69
593.137	18751.37
593.334	19036.04
593.531	18696.08
593.727	18630.54
593.924	19048.33
594.121	18663.31
594.318	18628.49
594.515	18524.05
594.712	18646.93
594.908	18622.35
595.105	18620.3
595.302	18239.38
595.499	18483.09
595.696	18378.64
595.892	17923.99
596.089	18202.52
596.286	18157.46
596.482	18304.92
596.679	18020.25
596.876	18216.85
597.072	17954.71
597.269	17930.14
597.466	17829.79
597.662	17659.81
597.859	17778.59
598.055	17618.85
598.252	17504.16
598.448	17545.12
598.645	17338.27
598.841	17444.77
599.038	17526.69
599.234	17530.78
599.431	17158.05
599.627	17242.02
599.824	17356.71
600.02	17057.7
600.217	17022.89
600.413	16623.53
600.609	16836.52
600.806	16805.8
601.002	17123.24
601.198	16949.16
601.395	16797.61
601.591	16682.92
601.787	16420.78
601.984	16601.01
602.18	16650.16
602.376	16510.89
602.572	16428.98
602.769	16138.16
602.965	16363.44
603.161	16117.68
603.357	16238.51
603.553	16172.98
603.75	16258.99
603.946	15800.25
604.142	16226.23
604.338	15792.06
604.534	16211.89
604.73	15660.99
604.926	15892.41
605.122	15962.04
605.318	15550.4
605.514	15777.72
605.71	15611.84
605.906	15615.93
606.102	15736.76
606.298	15519.68
606.494	15423.42
606.69	15718.33
606.886	15583.16
607.082	15153.09
607.278	15355.84
607.474	14864.33
607.67	15366.08
607.866	15075.27
608.062	15138.76
608.257	15239.11
608.453	14804.94
608.649	15054.79
608.845	15019.97
609.041	14852.04
609.236	14911.43
609.432	14995.4
609.628	15011.78
609.824	14811.08
610.019	14878.66
610.215	14553.04
610.411	14936.01
610.606	14878.66
610.802	14890.95
610.998	14694.35
611.193	14933.96
611.389	14542.8
611.584	14409.68
611.78	14610.38
611.976	14647.24
612.171	14680.01
612.367	14321.62
612.562	14524.37
612.758	14477.26
612.953	14143.44
613.149	14630.86
613.344	14292.94
613.539	14544.84
613.735	14385.1
613.93	14237.65
614.126	14268.37
614.321	14366.67
614.517	14063.57
614.712	13955.03
614.907	14024.66
615.103	14319.57
615.298	13901.78
615.493	14102.48
615.688	13590.49
615.884	14280.66
616.079	13815.77
616.274	13746.14
616.47	13815.77
616.665	13864.92
616.86	13887.45
617.055	13811.67
617.25	13469.66
617.445	13950.93
617.641	13537.24
617.836	13557.72
618.031	13559.77
618.226	13506.52
618.421	13463.52
618.616	13498.33
618.811	13307.87
619.006	13537.24
619.201	13311.97
619.396	13291.49
619.591	12967.91
619.786	13367.26
619.981	12929
620.176	13090.79
620.371	12967.91
620.566	13019.11
620.761	13029.35
620.956	12869.61
621.151	12533.74
621.346	12732.39
621.541	12652.52
621.735	12523.5
621.93	12359.66
622.125	12660.71
622.32	12285.94
622.515	12507.12
622.709	12283.89
622.904	12257.26
623.099	12179.44
623.294	12074.99
623.488	12111.86
623.683	11968.5
623.878	11976.69
624.072	11911.16
624.267	11960.31
624.462	12023.8
624.656	11765.75
624.851	11347.97
625.046	11532.28
625.24	11608.06
625.435	11417.6
625.629	11474.94
625.824	11094.02
626.018	11325.44
626.213	11110.4
626.407	11309.05
626.602	11044.87
626.796	11149.31
626.991	11067.39
627.185	10967.04
627.38	10661.9
627.574	10854.41
627.768	10547.21
627.963	10719.24
628.157	10672.14
628.352	10686.47
628.546	10434.57
628.74	10496.01
628.935	10434.57
629.129	10377.23
629.323	10326.03
629.517	10223.63
629.712	9951.25
629.906	10117.14
630.1	9791.51
630.294	10172.43
630.489	9984.02
630.683	9969.68
630.877	9863.19
631.071	9627.67
631.265	9889.81
631.459	9656.34
631.653	9562.14
631.848	9500.7
632.042	9652.25
632.236	9529.37
632.43	9400.35
632.624	9381.92
632.818	9259.04
633.012	9244.7
633.206	9314.33
633.4	9183.26
633.594	9158.69
633.788	9228.32
633.982	8914.98
634.176	9080.86
634.369	9068.58
634.563	8828.96
634.757	8831.01
634.951	8874.02
635.145	8845.35
635.339	8781.86
635.533	8728.61
635.726	8648.74
635.92	8472.62
636.114	8415.27
636.308	8359.98
636.501	8575.02
636.695	8405.03
636.889	8192.05
637.083	8388.65
637.276	8187.95
637.47	8194.09
637.664	8230.96
637.857	8208.43
638.051	8294.44
638.244	8173.61
638.438	8022.06
638.632	8087.6
638.825	7993.39
639.019	7929.91
639.212	7862.32
639.406	7888.95
639.599	7759.92
639.793	7864.37
639.986	7739.44
640.18	7841.84
640.373	7600.18
640.567	7424.06
640.76	7540.79
640.954	7524.41
641.147	7532.6
641.34	7669.81
641.534	7467.06
641.727	7237.69
641.92	7260.22
642.114	7272.51
642.307	7313.47
642.5	7184.45
642.694	7137.34
642.887	7108.67
643.08	7184.45
643.273	7082.05
643.467	6875.2
643.66	6955.07
643.853	6887.49
644.046	6791.24
644.239	6715.46
644.432	6832.19
644.626	6678.6
644.819	6703.17
645.012	6629.45
645.205	6783.04
645.398	6715.46
645.591	6637.64
645.784	6598.73
645.977	6484.04
646.17	6631.49
646.363	6260.81
646.556	6424.65
646.749	6357.07
646.942	6547.53
647.135	6316.11
647.328	6266.96
647.521	6252.62
647.714	6369.35
647.907	6223.95
648.099	6189.13
648.292	6064.21
648.485	6099.02
648.678	5957.71
648.871	6086.73
649.064	6033.49
649.256	6015.05
649.449	5820.5
649.642	5984.34
649.835	5605.46
650.027	5959.76
650.22	5750.87
650.413	5726.29
650.605	5746.77
650.798	5767.25
650.991	5519.45
651.183	5619.8
651.376	5757.01
651.568	5714
651.761	5664.85
651.954	5632.08
652.146	5625.94
652.339	5548.12
652.531	5494.87
652.724	5517.4
652.916	5482.58
653.109	5449.82
653.301	5292.12
653.494	5324.89
653.686	5259.35
653.879	5380.18
654.071	5245.02
654.263	5156.96
654.456	5175.39
654.648	5130.33
654.84	5120.09
655.033	5052.51
655.225	4946.02
655.417	5011.55
655.61	4972.64
655.802	5054.56
655.994	5027.93
656.186	5034.08
656.379	4900.96
656.571	4884.58
656.763	4843.62
656.955	4827.23
657.148	4853.86
657.34	4706.4
657.532	4681.83
657.724	4798.56
657.916	4669.54
658.108	4644.96
658.3	4804.71
658.492	4739.17
658.684	4634.72
658.876	4595.81
659.068	4690.02
659.26	4685.92
659.452	4565.09
659.644	4669.54
659.836	4513.89
660.028	4436.07
660.22	4348.01
660.412	4417.64
660.604	4415.59
660.796	4356.2
660.988	4413.54
661.18	4393.06
661.372	4341.86
661.563	4321.38
661.755	4225.13
661.947	4440.17
662.139	4221.03
662.331	4270.19
662.522	4147.31
662.714	4202.6
662.906	4178.03
663.097	4112.49
663.289	4124.78
663.481	4186.22
663.673	4094.06
663.864	4018.29
664.056	3977.33
664.247	4206.7
664.439	3997.81
664.631	3956.85
664.822	4055.15
665.014	3913.84
665.205	3903.6
665.397	3936.37
665.588	3940.46
665.78	3887.22
665.971	3858.54
666.163	3797.1
666.354	3795.06
666.546	3778.67
666.737	3913.84
666.929	3788.91
667.12	3942.51
667.311	3694.71
667.503	3784.82
667.694	3745.91
667.885	3784.82
668.077	3860.59
668.268	3643.51
668.459	3643.51
668.651	3518.58
668.842	3702.9
669.033	3657.84
669.224	3543.16
669.416	3614.84
669.607	3623.03
669.798	3672.18
669.989	3598.45
670.18	3526.77
670.371	3580.02
670.563	3481.72
670.754	3494.01
670.945	3467.38
671.136	3573.88
671.327	3541.11
671.518	3520.63
671.709	3512.44
671.9	3489.91
672.091	3424.37
672.282	3485.81
672.473	3367.03
672.664	3248.25
672.855	3315.83
673.046	3477.62
673.237	3397.75
673.428	3235.96
673.619	3385.46
673.809	3391.61
674	3453.05
674.191	3287.16
674.382	3340.41
674.573	3274.87
674.764	3295.35
674.954	3256.44
675.145	3301.5
675.336	3334.26
675.527	3246.2
675.717	3250.3
675.908	3301.5
676.099	3235.96
676.289	3166.33
676.48	3227.77
676.671	3133.56
676.861	3143.8
677.052	3090.56
677.243	3238.01
677.433	3192.95
677.624	3217.53
677.814	3197.05
678.005	3145.85
678.195	3113.08
678.386	3127.42
678.576	2988.16
678.767	3190.91
678.957	3133.56
679.148	3166.33
679.338	3115.13
679.529	3205.24
679.719	3162.23
679.909	3102.84
680.1	3059.84
680.29	3125.37
680.481	3149.95
680.671	3192.95
680.861	3086.46
681.052	3151.99
681.242	3063.93
681.432	2986.11
681.622	3004.54
681.813	3143.8
682.003	3053.69
682.193	3037.31
682.383	3174.52
682.573	3070.08
682.764	2953.34
682.954	3049.6
683.144	3084.41
683.334	2969.73
683.524	2992.25
683.714	3059.84
683.904	2945.15
684.094	2924.67
684.284	2959.49
684.474	3108.99
684.664	2930.81
684.854	3088.51
685.044	2914.43
685.234	2945.15
685.424	2984.06
685.614	2928.77
685.804	2887.81
685.994	2969.73
686.184	2918.53
686.374	2865.28
686.564	2830.46
686.753	2879.61
686.943	2918.53
687.133	2883.71
687.323	2812.03
687.513	2812.03
687.702	2740.35
687.892	2762.88
688.082	2701.44
688.272	2766.98
688.461	2754.69
688.651	2797.7
688.841	2732.16
689.03	2764.93
689.22	2746.5
689.41	2812.03
689.599	2609.28
689.789	2613.38
689.979	2695.3
690.168	2754.69
690.358	2680.96
690.547	2754.69
690.737	2730.11
690.926	2545.8
691.116	2558.08
691.305	2689.15
691.495	2586.76
691.684	2517.12
691.874	2541.7
692.063	2568.32
692.252	2480.26
692.442	2527.36
692.631	2484.36
692.82	2496.64
693.01	2467.97
693.199	2484.36
693.388	2390.15
693.578	2439.3
693.767	2422.92
693.956	2449.54
694.146	2451.59
694.335	2336.9
694.524	2375.81
694.713	2400.39
694.902	2304.14
695.092	2408.58
695.281	2402.44
695.47	2437.25
695.659	2447.49
695.848	2351.24
696.037	2199.69
696.226	2357.38
696.415	2400.39
696.604	2367.62
696.793	2343.05
696.982	2373.77
697.171	2330.76
697.36	2312.33
697.549	2410.63
697.738	2410.63
697.927	2375.81
698.116	2209.93
698.305	2336.9
698.494	2226.31
698.683	2314.38
698.872	2338.95
699.061	2306.18
699.25	2312.33
699.438	2341
699.627	2257.03
699.816	2240.65
700.005	2306.18
700.193	2205.83
700.382	2277.51
700.571	2336.9
700.76	2234.5
700.948	2371.72
701.137	2289.8
701.326	2377.86
701.514	2242.7
701.703	2369.67
701.892	2236.55
702.08	2295.94
702.269	2146.44
702.457	2269.32
702.646	2236.55
702.834	2297.99
703.023	2224.26
703.212	2238.6
703.4	2197.64
703.589	2232.46
703.777	2265.22
703.965	2324.62
704.154	2285.7
704.342	2250.89
704.531	2269.32
704.719	2306.18
704.907	2367.62
705.096	2191.5
705.284	2164.87
705.472	2265.22
705.661	2373.77
705.849	2371.72
706.037	2181.26
706.226	2306.18
706.414	2271.37
706.602	2275.46
706.79	2287.75
706.979	2246.79
707.167	2177.16
707.355	2306.18
707.543	2224.26
707.731	2293.9
707.919	2287.75
708.107	2191.5
708.296	2244.74
708.484	2338.95
708.672	2314.38
708.86	2263.18
709.048	2216.07
709.236	2240.65
709.424	2400.39
709.612	2160.78
709.8	2216.07
709.988	2365.57
710.176	2318.47
710.364	2304.14
710.551	2365.57
710.739	2345.09
710.927	2269.32
711.115	2250.89
711.303	2402.44
711.491	2224.26
711.679	2195.59
711.866	2312.33
712.054	2291.85
712.242	2365.57
712.43	2281.61
712.617	2254.98
712.805	2273.42
712.993	2347.14
713.181	2322.57
713.368	2363.53
713.556	2281.61
713.744	2189.45
713.931	2314.38
714.119	2347.14
714.306	2336.9
714.494	2330.76
714.682	2332.81
714.869	2365.57
715.057	2324.62
715.244	2363.53
715.432	2302.09
715.619	2334.86
715.807	2361.48
715.994	2347.14
716.182	2257.03
716.369	2314.38
716.556	2281.61
716.744	2257.03
716.931	2314.38
717.119	2386.05
717.306	2412.68
717.493	2252.94
717.681	2230.41
717.868	2295.94
718.055	2377.86
718.242	2283.66
718.43	2451.59
718.617	2416.77
718.804	2351.24
718.991	2390.15
719.179	2381.96
719.366	2341
719.553	2277.51
719.74	2396.29
719.927	2429.06
720.114	2398.34
720.301	2472.07
720.488	2427.01
720.676	2338.95
720.863	2388.1
721.05	2424.97
721.237	2400.39
721.424	2394.25
721.611	2396.29
721.798	2367.62
721.985	2377.86
722.172	2418.82
722.358	2324.62
722.545	2451.59
722.732	2367.62
722.919	2308.23
723.106	2412.68
723.293	2320.52
723.48	2539.65
723.667	2390.15
723.853	2355.33
724.04	2373.77
724.227	2424.97
724.414	2351.24
724.6	2273.42
724.787	2367.62
724.974	2431.11
725.161	2420.87
725.347	2416.77
725.534	2381.96
725.72	2314.38
725.907	2478.21
726.094	2338.95
726.28	2343.05
726.467	2379.91
726.653	2504.84
726.84	2547.84
727.027	2414.73
727.213	2357.38
727.4	2478.21
727.586	2459.78
727.773	2283.66
727.959	2445.45
728.145	2410.63
728.332	2404.49
728.518	2408.58
728.705	2502.79
728.891	2328.71
729.077	2488.45
729.264	2226.31
729.45	2418.82
729.636	2560.13
729.823	2285.7
730.009	2441.35
730.195	2418.82
730.382	2439.3
730.568	2418.82
730.754	2386.05
730.94	2488.45
731.126	2478.21
731.313	2480.26
731.499	2314.38
731.685	2492.55
731.871	2494.6
732.057	2439.3
732.243	2449.54
732.429	2365.57
732.615	2476.16
732.801	2431.11
732.987	2424.97
733.173	2472.07
733.359	2357.38
733.545	2461.83
733.731	2343.05
733.917	2353.29
734.103	2379.91
734.289	2478.21
734.475	2449.54
734.661	2289.8
734.847	2381.96
735.033	2531.46
735.219	2427.01
735.404	2427.01
735.59	2334.86
735.776	2494.6
735.962	2406.53
736.148	2494.6
736.333	2422.92
736.519	2451.59
736.705	2375.81
736.89	2355.33
737.076	2408.58
737.262	2347.14
737.447	2459.78
737.633	2461.83
737.819	2513.03
738.004	2279.56
738.19	2306.18
738.375	2308.23
738.561	2345.09
738.747	2302.09
738.932	2234.5
739.118	2246.79
739.303	2408.58
739.489	2302.09
739.674	2269.32
739.859	2345.09
740.045	2148.49
740.23	2330.76
740.416	2211.98
740.601	2148.49
740.786	2304.14
740.972	2308.23
741.157	2326.66
741.342	2224.26
741.528	2228.36
741.713	2300.04
741.898	2287.75
742.084	2144.39
742.269	2191.5
742.454	2246.79
742.639	2138.25
742.824	2062.48
743.01	2119.82
743.195	2214.02
743.38	2105.48
743.565	2156.68
743.75	2216.07
743.935	2156.68
744.12	2189.45
744.305	2025.61
744.49	2154.63
744.675	2068.62
744.86	2138.25
745.045	1984.65
745.23	2033.8
745.415	2033.8
745.6	2097.29
745.785	2136.2
745.97	2005.13
746.155	2001.04
746.34	2070.67
746.525	1986.7
746.71	1986.7
746.895	2048.14
747.079	1964.17
747.264	1943.69
747.449	1949.84
747.634	1988.75
747.819	1933.45
748.003	1851.53
748.188	1839.25
748.373	1820.81
748.557	1847.44
748.742	1786
748.927	1755.28
749.111	1763.47
749.296	1767.57
749.481	1738.9
749.665	1794.19
749.85	1769.62
750.034	1786
750.219	1773.71
750.404	1638.55
750.588	1699.98
750.773	1599.63
750.957	1738.9
751.141	1630.35
751.326	1773.71
751.51	1648.79
751.695	1726.61
751.879	1669.27
752.064	1665.17
752.248	1693.84
752.432	1656.98
752.617	1622.16
752.801	1515.67
752.985	1573.01
753.17	1620.11
753.354	1544.34
753.538	1556.63
753.722	1558.67
753.907	1527.96
754.091	1536.15
754.275	1484.95
754.459	1503.38
754.643	1513.62
754.828	1466.52
755.012	1482.9
755.196	1419.41
755.38	1386.65
755.564	1366.17
755.748	1411.22
755.932	1341.59
756.116	1427.6
756.3	1413.27
756.484	1376.41
756.668	1429.65
756.852	1321.11
757.036	1429.65
757.22	1409.17
757.404	1384.6
757.588	1360.02
757.772	1417.37
757.956	1360.02
758.14	1376.41
758.323	1341.59
758.507	1222.81
758.691	1165.46
758.875	1306.77
759.059	1290.39
759.242	1210.52
759.426	1339.54
759.61	1132.7
759.794	1194.14
759.977	1130.65
760.161	1294.49
760.345	1165.46
760.528	1144.99
760.712	1159.32
760.895	1214.62
761.079	1243.29
761.263	1179.8
761.446	1179.8
761.63	1218.71
761.813	1194.14
761.997	1099.93
762.18	1128.6
762.364	1185.94
762.547	1099.93
762.731	1081.5
762.914	1097.88
763.098	1097.88
763.281	1085.59
763.464	1067.16
763.648	1101.98
763.831	1101.98
764.015	1067.16
764.198	1058.97
764.381	1015.96
764.564	1085.59
764.748	1061.02
764.931	1061.02
765.114	1018.01
765.297	993.44
765.481	1013.92
765.664	942.24
765.847	1034.39
766.03	1020.06
766.213	1013.92
766.397	1052.83
766.58	987.29
766.763	991.39
766.946	1042.59
767.129	954.52
767.312	909.47
767.495	1028.25
767.678	956.57
767.861	968.86
768.044	852.13
768.227	942.24
768.41	903.32
768.593	979.1
768.776	805.02
768.959	893.09
769.142	991.39
769.324	874.65
769.507	932
769.69	952.48
769.873	956.57
770.056	884.89
770.239	909.47
770.421	960.67
770.604	915.61
770.787	942.24
770.97	911.52
771.152	876.7
771.335	845.98
771.518	895.13
771.7	884.89
771.883	882.85
772.066	831.65
772.248	886.94
772.431	952.48
772.613	825.5
772.796	833.69
772.978	776.35
773.161	870.56
773.343	819.36
773.526	772.25
773.708	809.12
773.891	725.15
774.073	759.97
774.256	766.11
774.438	878.75
774.621	841.89
774.803	735.39
774.985	755.87
775.168	716.96
775.35	735.39
775.532	796.83
775.715	671.9
775.897	798.88
776.079	710.82
776.261	809.12
776.444	805.02
776.626	739.49
776.808	680.1
776.99	751.78
777.173	712.86
777.355	680.1
777.537	700.58
777.719	714.91
777.901	690.34
778.083	733.34
778.265	594.08
778.447	641.18
778.629	637.09
778.811	676
778.993	667.81
779.175	575.65
779.357	622.75
779.539	665.76
779.721	637.09
779.903	587.94
780.085	555.17
780.267	579.75
780.449	612.51
780.631	628.9
780.812	594.08
780.994	534.69
781.176	632.99
781.358	532.64
781.54	671.9
781.721	530.59
781.903	561.31
782.085	479.4
782.267	516.26
782.448	495.78
782.63	575.65
782.812	610.47
782.993	497.83
783.175	534.69
783.357	499.88
783.538	536.74
783.72	432.29
783.901	452.77
784.083	491.68
784.264	524.45
784.446	432.29
784.627	497.83
784.809	524.45
784.99	434.34
785.172	559.27
785.353	483.49
785.535	540.83
785.716	413.86
785.897	422.05
786.079	473.25
786.26	450.72
786.441	442.53
786.623	436.39
786.804	411.81
786.985	440.48
787.167	516.26
787.348	475.3
787.529	448.68
787.71	366.76
787.891	409.76
788.073	385.19
788.254	528.55
788.435	436.39
788.616	413.86
788.797	325.8
788.978	420
789.159	389.28
789.34	407.72
789.522	362.66
789.703	415.91
789.884	440.48
790.065	379.04
790.246	356.52
790.427	370.85
790.607	463.01
790.788	321.7
790.969	340.13
791.15	393.38
791.331	362.66
791.512	348.33
791.693	362.66
791.874	331.94
792.054	374.95
792.235	413.86
792.416	352.42
792.597	280.74
792.778	307.37
792.958	370.85
793.139	348.33
793.32	323.75
793.5	293.03
793.681	366.76
793.862	342.18
794.042	252.07
794.223	268.45
794.404	327.85
794.584	260.26
794.765	278.69
794.945	252.07
795.126	309.41
795.306	254.12
795.487	266.41
795.667	286.89
795.848	323.75
796.028	364.71
796.209	258.21
796.389	329.89
796.57	278.69
796.75	266.41
796.93	258.21
797.111	221.35
797.291	278.69
797.471	321.7
797.652	307.37
797.832	235.69
798.012	288.93
798.192	198.82
798.373	264.36
798.553	241.83
798.733	293.03
798.913	350.37
799.093	221.35
799.274	313.51
799.454	272.55
799.634	260.26
799.814	293.03
799.994	286.89
800.174	178.34
800.354	319.65
800.534	235.69
800.714	215.21
800.894	278.69
801.074	178.34
801.254	229.54
801.434	245.93
801.614	245.93
801.794	178.34
801.974	604.32
802.154	188.58
802.334	190.63
802.514	233.64
802.693	174.25
802.873	227.5
803.053	155.82
803.233	284.84
803.413	221.35
803.592	180.39
803.772	143.53
803.952	231.59
804.131	196.78
804.311	237.74
804.491	176.3
804.67	180.39
804.85	286.89
805.03	299.17
805.209	207.02
805.389	260.26
805.568	194.73
805.748	174.25
805.928	207.02
806.107	262.31
806.287	194.73
806.466	182.44
806.646	219.3
806.825	157.86
807.004	123.05
807.184	192.68
807.363	200.87
807.543	178.34
807.722	250.02
807.901	278.69
808.081	196.78
808.26	159.91
808.439	239.78
808.619	157.86
808.798	127.14
808.977	217.26
809.156	170.15
809.336	209.06
809.515	188.58
809.694	196.78
809.873	96.43
810.052	157.86
810.231	186.54
810.411	172.2
810.59	155.82
810.769	168.1
810.948	129.19
811.127	145.58
811.306	174.25
811.485	114.86
811.664	221.35
811.843	170.15
812.022	166.06
812.201	188.58
812.38	168.1
812.559	141.48
812.737	207.02
812.916	188.58
813.095	133.29
813.274	155.82
813.453	147.62
813.632	98.47
813.811	190.63
813.989	137.38
814.168	127.14
814.347	155.82
814.526	219.3
814.704	227.5
814.883	121
815.062	112.81
815.24	178.34
815.419	157.86
815.598	139.43
815.776	182.44
815.955	149.67
816.133	73.9
816.312	166.06
816.49	147.62
816.669	237.74
816.847	59.56
817.026	96.43
817.204	77.99
817.383	180.39
817.561	73.9
817.74	112.81
817.918	125.1
818.097	96.43
818.275	178.34
818.453	96.43
818.632	180.39
818.81	114.86
818.988	147.62
819.167	112.81
819.345	139.43
819.523	135.34
819.701	164.01
819.879	198.82
820.058	133.29
820.236	170.15
820.414	147.62
820.592	100.52
820.77	88.23
820.948	127.14
821.127	131.24
821.305	125.1
821.483	51.37
821.661	172.2
821.839	96.43
822.017	84.14
822.195	123.05
822.373	106.67
822.551	98.47
822.729	170.15
822.907	63.66
823.085	20.65
823.262	141.48
823.44	86.19
823.618	114.86
823.796	88.23
823.974	125.1
824.152	94.38
824.329	100.52
824.507	110.76
824.685	112.81
824.863	180.39
825.04	84.14
825.218	157.86
825.396	65.71
825.574	114.86
825.751	65.71
825.929	114.86
826.107	108.71
826.284	114.86
826.462	94.38
826.639	135.34
826.817	28.84
826.994	133.29
827.172	123.05
827.349	215.21
827.527	90.28
827.704	121
827.882	96.43
828.059	61.61
828.237	55.47
828.414	90.28
828.591	14.51
828.769	77.99
828.946	80.04
829.124	114.86
829.301	116.9
829.478	28.84
829.655	39.08
829.833	98.47
830.01	41.13
830.187	143.53
830.364	112.81
830.542	82.09
830.719	104.62
830.896	125.1
831.073	104.62
831.25	149.67
831.427	110.76
831.604	114.86
831.782	47.27
831.959	104.62
832.136	80.04
832.313	92.33
832.49	75.95
832.667	-1.88
832.844	94.38
833.021	164.01
833.198	102.57
833.374	55.47
833.551	84.14
833.728	20.65
833.905	100.52
834.082	67.75
834.259	131.24
834.436	123.05
834.612	110.76
834.789	133.29
834.966	49.32
835.143	137.38
835.319	-1.88
835.496	106.67
835.673	65.71
835.85	118.95
836.026	4.27
836.203	125.1
836.38	96.43
836.556	65.71
836.733	71.85
836.909	94.38
837.086	26.79
837.262	110.76
837.439	8.36
837.616	90.28
837.792	20.65
837.968	61.61
838.145	45.23
838.321	123.05
838.498	112.81
838.674	65.71
838.851	53.42
839.027	106.67
839.203	90.28
839.38	39.08
839.556	82.09
839.732	118.95
839.909	14.51
840.085	118.95
840.261	41.13
840.437	61.61
840.614	24.75
840.79	26.79
840.966	65.71
841.142	67.75
841.318	67.75
841.494	34.99
841.671	-38.74
841.847	63.66
842.023	96.43
842.199	67.75
842.375	28.84
842.551	-8.02
842.727	43.18
842.903	84.14
843.079	-3.93
843.255	26.79
843.431	73.9
843.607	75.95
843.783	49.32
843.959	55.47
844.134	28.84
844.31	127.14
844.486	28.84
844.662	2.22
844.838	-1.88
845.013	65.71
845.189	90.28
845.365	-5.97
845.541	73.9
845.716	100.52
845.892	47.27
846.068	34.99
846.244	34.99
846.419	49.32
846.595	4.27
846.77	86.19
846.946	53.42
847.122	8.36
847.297	-8.02
847.473	114.86
847.648	-20.31
847.824	123.05
847.999	41.13
848.175	24.75
848.35	37.03
848.526	43.18
848.701	63.66
848.876	94.38
849.052	90.28
849.227	8.36
849.403	14.51
849.578	14.51
849.753	65.71
849.929	37.03
850.104	90.28
850.279	41.13
850.454	127.14
850.63	18.6
850.805	-40.79
850.98	57.51
851.155	45.23
851.33	8.36
851.505	-10.07
851.681	80.04
851.856	80.04
852.031	51.37
852.206	77.99
852.381	49.32
852.556	41.13
852.731	86.19
852.906	18.6
853.081	57.51
853.256	4.27
853.431	55.47
853.606	-20.31
853.781	73.9
853.956	45.23
854.131	-28.5
854.305	80.04
854.48	34.99
854.655	0.17
854.83	143.53
855.005	16.55
855.18	55.47
855.354	34.99
855.529	112.81
855.704	18.6
855.879	80.04
856.053	16.55
856.228	45.23
856.403	102.57
856.577	8.36
856.752	12.46
856.926	22.7
857.101	39.08
857.276	139.43
857.45	51.37
857.625	69.8
857.799	73.9
857.974	-53.08
858.148	-8.02
858.323	28.84
858.497	39.08
858.672	43.18
858.846	-14.17
859.02	51.37
859.195	-18.26
859.369	39.08
859.543	65.71
859.718	69.8
859.892	98.47
860.066	16.55
860.241	34.99
860.415	43.18
860.589	-26.45
860.763	69.8
860.938	-5.97
861.112	-8.02
861.286	8.36
861.46	90.28
861.634	32.94
861.808	80.04
861.982	24.75
862.157	22.7
862.331	-34.64
862.505	34.99
862.679	8.36
862.853	20.65
863.027	75.95
863.201	8.36
863.375	-5.97
863.549	57.51
863.722	37.03
863.896	-20.31
864.07	34.99
864.244	20.65
864.418	73.9
864.592	61.61
864.766	-55.12
864.939	55.47
865.113	0.17
865.287	39.08
865.461	4.27
865.634	-18.26
865.808	49.32
865.982	51.37
866.156	16.55
866.329	4.27
866.503	39.08
866.676	-53.08
866.85	86.19
867.024	51.37
867.197	96.43
867.371	-32.6
867.544	-28.5
867.718	30.89
867.891	47.27
868.065	22.7
868.238	32.94
868.412	-20.31
868.585	14.51
868.759	-16.21
868.932	47.27
869.105	155.82
869.279	34.99
869.452	-44.88
869.625	39.08
869.799	55.47
869.972	22.7
870.145	18.6
870.319	92.33
870.492	71.85
870.665	26.79
870.838	59.56
871.011	10.41
871.185	63.66
871.358	-22.36
871.531	22.7
871.704	-14.17
871.877	84.14
872.05	-44.88
872.223	-44.88
872.396	6.31
872.569	49.32
872.742	-14.17
872.915	10.41
873.088	4.27
873.261	-53.08
873.434	-36.69
873.607	106.67
873.78	-32.6
873.953	63.66
874.126	47.27
874.299	-1.88
874.471	37.03
874.644	45.23
874.817	32.94
874.99	96.43
875.163	-30.55
875.335	82.09
875.508	67.75
875.681	45.23
875.853	24.75
876.026	-10.07
876.199	51.37
876.371	45.23
876.544	24.75
876.717	-16.21
876.889	-32.6
877.062	24.75
877.234	-57.17
877.407	18.6
877.579	65.71
877.752	-20.31
877.924	-14.17
878.097	30.89
878.269	61.61
878.442	98.47
878.614	41.13
878.786	-3.93
878.959	63.66
879.131	-8.02
879.303	-18.26
879.476	20.65
879.648	28.84
879.82	4.27
879.993	57.51
880.165	-59.22
880.337	16.55
880.509	4.27
880.681	-96.08
880.854	18.6
881.026	-28.5
881.198	114.86
881.37	20.65
881.542	47.27
881.714	-34.64
881.886	41.13
882.058	-8.02
882.23	-44.88
882.402	-38.74
882.574	18.6
882.746	-12.12
882.918	96.43
883.09	59.56
883.262	37.03
883.434	0.17
883.606	77.99
883.778	-61.27
883.95	10.41
884.122	12.46
884.293	-18.26
884.465	20.65
884.637	92.33
884.809	-18.26
884.98	39.08
885.152	10.41
885.324	-53.08
885.496	28.84
885.667	32.94
885.839	-51.03
886.011	43.18
886.182	16.55
886.354	30.89
886.525	-83.8
886.697	69.8
886.869	-67.41
887.04	6.31
887.212	28.84
887.383	-10.07
887.555	65.71
887.726	16.55
887.897	-57.17
888.069	22.7
888.24	6.31
888.412	-14.17
888.583	18.6
888.754	14.51
888.926	-38.74
889.097	-36.69
889.268	-26.45
889.44	-32.6
889.611	4.27
889.782	-24.4
889.953	-59.22
890.125	96.43
890.296	-8.02
890.467	10.41
890.638	-8.02
890.809	34.99
890.98	-12.12
891.151	-18.26
891.323	37.03
891.494	41.13
891.665	-81.75
891.836	28.84
892.007	37.03
892.178	82.09
892.349	-3.93
892.52	20.65
892.691	53.42
892.862	63.66
893.032	-1.88
893.203	63.66
893.374	-28.5
893.545	-8.02
893.716	2.22
893.887	-8.02
894.057	-71.51
894.228	-8.02
894.399	-44.88
894.57	37.03
894.74	37.03
894.911	139.43
895.082	-30.55
895.253	59.56
895.423	16.55
895.594	-10.07
895.764	20.65
895.935	-16.21
896.106	51.37
896.276	-1.88
896.447	-32.6
896.617	-61.27
896.788	57.51
896.958	-32.6
897.129	20.65
897.299	-40.79
897.47	-8.02
897.64	49.32
897.81	26.79
897.981	59.56
898.151	12.46
898.322	20.65
898.492	-5.97
898.662	24.75
898.832	73.9
899.003	-3.93
899.173	51.37
899.343	-12.12
899.513	22.7
