Data from USB4F104151__90__11-52-58-018.txt Node

Date: Fri Mar 14 11:52:58 EDT 2025
User: louis
Spectrometer: USB4F10415
Trigger mode: 4
Integration Time (sec): 2.000000E-2
Scans to average: 1
Electric dark correction enabled: true
Nonlinearity correction enabled: false
Boxcar width: 0
XAxis mode: Wavelengths
Number of Pixels in Spectrum: 3648
>>>>>Begin Spectral Data<<<<<
178.204	-14.68
178.424	-14.68
178.644	-14.68
178.864	-108.88
179.084	-57.68
179.304	-20.82
179.524	32.43
179.744	-33.11
179.964	13.99
180.184	-6.49
180.404	34.47
180.624	3.75
180.844	67.24
181.064	-51.54
181.283	-12.63
181.503	-22.87
181.723	-4.44
181.943	-16.73
182.163	83.63
182.383	28.33
182.602	116.39
182.822	95.91
183.042	57
183.262	36.52
183.482	11.95
183.701	-24.92
183.921	7.85
184.141	-2.39
184.361	93.87
184.58	13.99
184.8	7.85
185.02	50.86
185.239	61.1
185.459	134.82
185.679	73.39
185.898	65.19
186.118	42.67
186.338	46.76
186.557	30.38
186.777	-2.39
186.997	-31.06
187.216	42.67
187.436	128.68
187.655	42.67
187.875	26.28
188.095	73.39
188.314	-8.53
188.534	75.43
188.753	-37.2
188.973	38.57
189.192	48.81
189.412	44.71
189.631	73.39
189.851	36.52
190.07	42.67
190.29	-12.63
190.509	122.54
190.729	120.49
190.948	9.9
191.168	77.48
191.387	50.86
191.607	106.15
191.826	77.48
192.045	20.14
192.265	18.09
192.484	132.78
192.704	7.85
192.923	42.67
193.142	85.67
193.362	24.23
193.581	126.63
193.8	11.95
194.02	57
194.239	38.57
194.458	79.53
194.678	114.34
194.897	-29.01
195.116	-18.77
195.335	20.14
195.555	97.96
195.774	26.28
195.993	-12.63
196.212	73.39
196.432	85.67
196.651	40.62
196.87	40.62
197.089	44.71
197.308	57
197.528	95.91
197.747	32.43
197.966	28.33
198.185	73.39
198.404	118.44
198.623	52.91
198.842	91.82
199.062	106.15
199.281	155.3
199.5	69.29
199.719	9.9
199.938	61.1
200.157	59.05
200.376	48.81
200.595	7.85
200.814	87.72
201.033	57
201.252	79.53
201.471	22.19
201.69	28.33
201.909	42.67
202.128	61.1
202.347	73.39
202.566	67.24
202.785	65.19
203.004	-4.44
203.223	79.53
203.442	112.3
203.661	65.19
203.879	59.05
204.098	38.57
204.317	13.99
204.536	22.19
204.755	128.68
204.974	44.71
205.193	42.67
205.411	104.11
205.63	44.71
205.849	57
206.068	20.14
206.287	85.67
206.505	52.91
206.724	69.29
206.943	11.95
207.162	13.99
207.381	7.85
207.599	32.43
207.818	73.39
208.037	34.47
208.255	102.06
208.474	89.77
208.693	16.04
208.911	124.58
209.13	155.3
209.349	79.53
209.567	71.34
209.786	36.52
210.005	36.52
210.223	34.47
210.442	28.33
210.661	85.67
210.879	38.57
211.098	28.33
211.316	7.85
211.535	108.2
211.753	1.71
211.972	57
212.191	167.59
212.409	30.38
212.628	42.67
212.846	73.39
213.065	59.05
213.283	85.67
213.502	20.14
213.72	34.47
213.938	44.71
214.157	22.19
214.375	73.39
214.594	30.38
214.812	38.57
215.031	52.91
215.249	26.28
215.467	13.99
215.686	75.43
215.904	57
216.122	-33.11
216.341	-8.53
216.559	11.95
216.778	130.73
216.996	59.05
217.214	13.99
217.432	48.81
217.651	48.81
217.869	11.95
218.087	54.95
218.306	18.09
218.524	77.48
218.742	40.62
218.96	52.91
219.179	67.24
219.397	54.95
219.615	77.48
219.833	71.34
220.051	73.39
220.27	36.52
220.488	28.33
220.706	128.68
220.924	5.8
221.142	138.92
221.36	20.14
221.578	28.33
221.796	108.2
222.015	3.75
222.233	83.63
222.451	69.29
222.669	5.8
222.887	75.43
223.105	46.76
223.323	26.28
223.541	-4.44
223.759	44.71
223.977	67.24
224.195	108.2
224.413	44.71
224.631	5.8
224.849	36.52
225.067	40.62
225.285	100.01
225.503	5.8
225.721	20.14
225.939	59.05
226.157	50.86
226.375	165.54
226.592	52.91
226.81	73.39
227.028	69.29
227.246	106.15
227.464	77.48
227.682	13.99
227.9	67.24
228.117	65.19
228.335	79.53
228.553	50.86
228.771	34.47
228.989	65.19
229.206	87.72
229.424	22.19
229.642	34.47
229.86	54.95
230.077	83.63
230.295	50.86
230.513	46.76
230.731	9.9
230.948	69.29
231.166	85.67
231.384	7.85
231.601	95.91
231.819	11.95
232.037	61.1
232.254	-33.11
232.472	40.62
232.689	42.67
232.907	50.86
233.125	1.71
233.342	83.63
233.56	65.19
233.777	30.38
233.995	42.67
234.213	44.71
234.43	69.29
234.648	40.62
234.865	71.34
235.083	87.72
235.3	63.15
235.518	28.33
235.735	52.91
235.953	32.43
236.17	20.14
236.388	79.53
236.605	40.62
236.822	54.95
237.04	-2.39
237.257	59.05
237.475	57
237.692	54.95
237.909	81.58
238.127	63.15
238.344	54.95
238.562	38.57
238.779	-41.3
238.996	63.15
239.214	52.91
239.431	-4.44
239.648	26.28
239.865	67.24
240.083	52.91
240.3	54.95
240.517	40.62
240.735	16.04
240.952	102.06
241.169	69.29
241.386	38.57
241.603	36.52
241.821	81.58
242.038	50.86
242.255	87.72
242.472	73.39
242.689	20.14
242.907	57
243.124	30.38
243.341	71.34
243.558	-24.92
243.775	-8.53
243.992	42.67
244.209	26.28
244.426	110.25
244.643	20.14
244.86	36.52
245.078	48.81
245.295	89.77
245.512	22.19
245.729	-16.73
245.946	85.67
246.163	102.06
246.38	97.96
246.597	5.8
246.814	112.3
247.031	36.52
247.248	106.15
247.464	69.29
247.681	18.09
247.898	24.23
248.115	50.86
248.332	34.47
248.549	50.86
248.766	-14.68
248.983	42.67
249.2	73.39
249.417	54.95
249.633	18.09
249.85	22.19
250.067	95.91
250.284	85.67
250.501	59.05
250.717	34.47
250.934	48.81
251.151	5.8
251.368	54.95
251.585	95.91
251.801	30.38
252.018	54.95
252.235	20.14
252.451	13.99
252.668	85.67
252.885	38.57
253.102	118.44
253.318	44.71
253.535	85.67
253.752	79.53
253.968	22.19
254.185	32.43
254.401	24.23
254.618	100.01
254.835	11.95
255.051	118.44
255.268	-16.73
255.484	93.87
255.701	50.86
255.917	13.99
256.134	-31.06
256.351	102.06
256.567	61.1
256.784	38.57
257	13.99
257.217	89.77
257.433	89.77
257.65	44.71
257.866	89.77
258.082	-20.82
258.299	67.24
258.515	18.09
258.732	44.71
258.948	40.62
259.165	81.58
259.381	-29.01
259.597	69.29
259.814	65.19
260.03	52.91
260.246	100.01
260.463	-20.82
260.679	95.91
260.895	50.86
261.112	114.34
261.328	46.76
261.544	83.63
261.761	75.43
261.977	73.39
262.193	32.43
262.409	112.3
262.626	93.87
262.842	95.91
263.058	-20.82
263.274	57
263.49	26.28
263.707	110.25
263.923	75.43
264.139	52.91
264.355	97.96
264.571	102.06
264.787	18.09
265.004	79.53
265.22	-2.39
265.436	9.9
265.652	128.68
265.868	81.58
266.084	26.28
266.3	87.72
266.516	-35.16
266.732	75.43
266.948	67.24
267.164	22.19
267.38	48.81
267.596	5.8
267.812	52.91
268.028	38.57
268.244	3.75
268.46	89.77
268.676	83.63
268.892	67.24
269.108	26.28
269.324	3.75
269.54	24.23
269.756	59.05
269.972	46.76
270.188	16.04
270.403	20.14
270.619	85.67
270.835	59.05
271.051	16.04
271.267	28.33
271.483	102.06
271.698	32.43
271.914	71.34
272.13	87.72
272.346	50.86
272.562	16.04
272.777	97.96
272.993	81.58
273.209	16.04
273.425	40.62
273.64	13.99
273.856	63.15
274.072	71.34
274.287	22.19
274.503	67.24
274.719	102.06
274.934	-24.92
275.15	52.91
275.366	42.67
275.581	-14.68
275.797	67.24
276.012	59.05
276.228	-16.73
276.444	28.33
276.659	40.62
276.875	44.71
277.09	24.23
277.306	79.53
277.521	-26.96
277.737	16.04
277.952	71.34
278.168	81.58
278.383	54.95
278.599	57
278.814	40.62
279.03	20.14
279.245	57
279.461	77.48
279.676	50.86
279.892	28.33
280.107	69.29
280.322	7.85
280.538	126.63
280.753	71.34
280.969	24.23
281.184	52.91
281.399	97.96
281.615	-8.53
281.83	87.72
282.045	-33.11
282.26	73.39
282.476	54.95
282.691	38.57
282.906	155.3
283.122	9.9
283.337	126.63
283.552	73.39
283.767	52.91
283.983	67.24
284.198	30.38
284.413	36.52
284.628	-22.87
284.843	67.24
285.058	38.57
285.274	44.71
285.489	54.95
285.704	85.67
285.919	52.91
286.134	-2.39
286.349	11.95
286.564	65.19
286.779	77.48
286.995	18.09
287.21	87.72
287.425	71.34
287.64	100.01
287.855	100.01
288.07	46.76
288.285	102.06
288.5	71.34
288.715	69.29
288.93	20.14
289.145	63.15
289.36	1.71
289.575	52.91
289.79	46.76
290.004	13.99
290.219	71.34
290.434	34.47
290.649	22.19
290.864	57
291.079	59.05
291.294	106.15
291.509	44.71
291.724	130.73
291.938	20.14
292.153	97.96
292.368	54.95
292.583	54.95
292.798	11.95
293.012	112.3
293.227	20.14
293.442	110.25
293.657	79.53
293.871	50.86
294.086	67.24
294.301	79.53
294.516	36.52
294.73	91.82
294.945	9.9
295.16	24.23
295.374	100.01
295.589	30.38
295.804	57
296.018	-14.68
296.233	32.43
296.447	52.91
296.662	1.71
296.877	65.19
297.091	-8.53
297.306	79.53
297.52	13.99
297.735	-0.34
297.949	134.82
298.164	118.44
298.378	71.34
298.593	18.09
298.807	65.19
299.022	18.09
299.236	67.24
299.451	36.52
299.665	32.43
299.88	65.19
300.094	97.96
300.309	59.05
300.523	32.43
300.737	77.48
300.952	-33.11
301.166	106.15
301.381	65.19
301.595	9.9
301.809	57
302.024	44.71
302.238	-6.49
302.452	52.91
302.667	-2.39
302.881	89.77
303.095	59.05
303.309	52.91
303.524	100.01
303.738	-22.87
303.952	61.1
304.166	40.62
304.381	50.86
304.595	38.57
304.809	-12.63
305.023	18.09
305.237	-26.96
305.452	48.81
305.666	11.95
305.88	38.57
306.094	73.39
306.308	79.53
306.522	48.81
306.736	20.14
306.95	87.72
307.164	93.87
307.379	79.53
307.593	104.11
307.807	63.15
308.021	48.81
308.235	32.43
308.449	20.14
308.663	52.91
308.877	106.15
309.091	48.81
309.305	91.82
309.519	-0.34
309.733	100.01
309.947	104.11
310.161	48.81
310.374	40.62
310.588	110.25
310.802	5.8
311.016	59.05
311.23	11.95
311.444	69.29
311.658	13.99
311.872	87.72
312.085	81.58
312.299	124.58
312.513	79.53
312.727	118.44
312.941	91.82
313.154	32.43
313.368	52.91
313.582	61.1
313.796	18.09
314.009	63.15
314.223	44.71
314.437	75.43
314.651	85.67
314.864	89.77
315.078	16.04
315.292	57
315.505	44.71
315.719	118.44
315.933	73.39
316.146	73.39
316.36	18.09
316.573	112.3
316.787	44.71
317.001	73.39
317.214	5.8
317.428	89.77
317.641	73.39
317.855	44.71
318.068	85.67
318.282	106.15
318.495	104.11
318.709	116.39
318.922	18.09
319.136	73.39
319.349	50.86
319.563	116.39
319.776	57
319.99	38.57
320.203	67.24
320.417	52.91
320.63	65.19
320.843	122.54
321.057	54.95
321.27	89.77
321.483	95.91
321.697	77.48
321.91	34.47
322.124	100.01
322.337	38.57
322.55	79.53
322.763	116.39
322.977	50.86
323.19	73.39
323.403	44.71
323.617	108.2
323.83	57
324.043	91.82
324.256	73.39
324.469	34.47
324.683	122.54
324.896	36.52
325.109	52.91
325.322	61.1
325.535	65.19
325.748	126.63
325.962	48.81
326.175	75.43
326.388	13.99
326.601	79.53
326.814	30.38
327.027	126.63
327.24	57
327.453	87.72
327.666	57
327.879	59.05
328.092	57
328.305	42.67
328.518	61.1
328.731	73.39
328.944	26.28
329.157	63.15
329.37	57
329.583	93.87
329.796	65.19
330.009	89.77
330.222	83.63
330.435	36.52
330.648	50.86
330.861	63.15
331.073	120.49
331.286	52.91
331.499	38.57
331.712	-29.01
331.925	63.15
332.138	52.91
332.35	89.77
332.563	-4.44
332.776	181.93
332.989	28.33
333.202	106.15
333.414	24.23
333.627	22.19
333.84	57
334.053	44.71
334.265	36.52
334.478	75.43
334.691	134.82
334.903	97.96
335.116	52.91
335.329	-22.87
335.541	13.99
335.754	89.77
335.966	5.8
336.179	93.87
336.392	87.72
336.604	48.81
336.817	140.97
337.029	57
337.242	59.05
337.454	83.63
337.667	48.81
337.88	95.91
338.092	22.19
338.305	104.11
338.517	11.95
338.729	13.99
338.942	120.49
339.154	40.62
339.367	63.15
339.579	50.86
339.792	44.71
340.004	85.67
340.217	13.99
340.429	44.71
340.641	48.81
340.854	11.95
341.066	61.1
341.278	34.47
341.491	120.49
341.703	26.28
341.915	26.28
342.128	147.11
342.34	46.76
342.552	11.95
342.764	75.43
342.977	110.25
343.189	100.01
343.401	118.44
343.613	63.15
343.826	87.72
344.038	91.82
344.25	85.67
344.462	50.86
344.674	108.2
344.886	79.53
345.099	75.43
345.311	18.09
345.523	112.3
345.735	61.1
345.947	38.57
346.159	61.1
346.371	20.14
346.583	52.91
346.795	130.73
347.007	85.67
347.219	61.1
347.431	57
347.643	93.87
347.855	63.15
348.067	140.97
348.279	57
348.491	136.87
348.703	61.1
348.915	54.95
349.127	71.34
349.339	57
349.551	65.19
349.763	-22.87
349.975	20.14
350.187	52.91
350.399	100.01
350.61	128.68
350.822	69.29
351.034	36.52
351.246	20.14
351.458	155.3
351.669	106.15
351.881	87.72
352.093	67.24
352.305	54.95
352.517	122.54
352.728	100.01
352.94	54.95
353.152	100.01
353.363	40.62
353.575	59.05
353.787	97.96
353.999	87.72
354.21	79.53
354.422	102.06
354.633	48.81
354.845	93.87
355.057	67.24
355.268	67.24
355.48	75.43
355.692	40.62
355.903	38.57
356.115	79.53
356.326	57
356.538	83.63
356.749	36.52
356.961	46.76
357.172	75.43
357.384	95.91
357.595	120.49
357.807	44.71
358.018	61.1
358.23	83.63
358.441	24.23
358.653	71.34
358.864	59.05
359.075	69.29
359.287	95.91
359.498	69.29
359.709	124.58
359.921	38.57
360.132	81.58
360.344	50.86
360.555	13.99
360.766	11.95
360.977	-4.44
361.189	57
361.4	161.45
361.611	126.63
361.823	40.62
362.034	61.1
362.245	57
362.456	44.71
362.667	67.24
362.879	-22.87
363.09	52.91
363.301	122.54
363.512	57
363.723	65.19
363.935	91.82
364.146	-14.68
364.357	116.39
364.568	61.1
364.779	77.48
364.99	67.24
365.201	48.81
365.412	48.81
365.623	59.05
365.834	40.62
366.045	-10.58
366.256	118.44
366.467	61.1
366.678	50.86
366.889	61.1
367.1	75.43
367.311	83.63
367.522	75.43
367.733	161.45
367.944	108.2
368.155	112.3
368.366	110.25
368.577	50.86
368.788	110.25
368.999	54.95
369.209	34.47
369.42	89.77
369.631	179.88
369.842	57
370.053	46.76
370.264	124.58
370.474	1.71
370.685	110.25
370.896	163.5
371.107	122.54
371.317	1.71
371.528	-29.01
371.739	65.19
371.95	61.1
372.16	77.48
372.371	42.67
372.582	54.95
372.792	77.48
373.003	85.67
373.214	54.95
373.424	155.3
373.635	28.33
373.846	102.06
374.056	75.43
374.267	67.24
374.477	75.43
374.688	30.38
374.898	28.33
375.109	22.19
375.319	177.83
375.53	91.82
375.74	145.06
375.951	87.72
376.161	79.53
376.372	13.99
376.582	136.87
376.793	118.44
377.003	91.82
377.214	91.82
377.424	30.38
377.635	112.3
377.845	59.05
378.055	147.11
378.266	-0.34
378.476	52.91
378.686	32.43
378.897	83.63
379.107	128.68
379.317	73.39
379.528	22.19
379.738	87.72
379.948	73.39
380.158	110.25
380.369	-14.68
380.579	54.95
380.789	95.91
380.999	116.39
381.21	73.39
381.42	130.73
381.63	54.95
381.84	46.76
382.05	79.53
382.261	57
382.471	161.45
382.681	61.1
382.891	81.58
383.101	116.39
383.311	18.09
383.521	52.91
383.731	67.24
383.941	120.49
384.151	52.91
384.361	93.87
384.571	91.82
384.781	18.09
384.991	110.25
385.201	67.24
385.411	71.34
385.621	61.1
385.831	24.23
386.041	57
386.251	79.53
386.461	36.52
386.671	97.96
386.881	112.3
387.091	54.95
387.301	40.62
387.511	69.29
387.72	42.67
387.93	73.39
388.14	30.38
388.35	48.81
388.56	104.11
388.769	59.05
388.979	118.44
389.189	118.44
389.399	61.1
389.609	75.43
389.818	128.68
390.028	44.71
390.238	46.76
390.447	106.15
390.657	108.2
390.867	54.95
391.076	71.34
391.286	83.63
391.496	67.24
391.705	9.9
391.915	116.39
392.125	112.3
392.334	95.91
392.544	100.01
392.753	100.01
392.963	132.78
393.172	89.77
393.382	54.95
393.591	122.54
393.801	54.95
394.01	165.54
394.22	91.82
394.429	108.2
394.639	42.67
394.848	112.3
395.058	108.2
395.267	87.72
395.477	126.63
395.686	108.2
395.895	61.1
396.105	110.25
396.314	147.11
396.524	79.53
396.733	42.67
396.942	77.48
397.152	91.82
397.361	104.11
397.57	134.82
397.78	52.91
397.989	151.21
398.198	196.26
398.407	83.63
398.617	138.92
398.826	93.87
399.035	132.78
399.244	77.48
399.453	136.87
399.663	132.78
399.872	95.91
400.081	54.95
400.29	136.87
400.499	145.06
400.708	122.54
400.917	145.06
401.127	104.11
401.336	157.35
401.545	218.79
401.754	126.63
401.963	167.59
402.172	83.63
402.381	116.39
402.59	38.57
402.799	124.58
403.008	110.25
403.217	124.58
403.426	190.12
403.635	118.44
403.844	106.15
404.053	173.74
404.262	173.74
404.471	188.07
404.68	153.26
404.888	157.35
405.097	143.02
405.306	87.72
405.515	198.31
405.724	292.52
405.933	120.49
406.142	198.31
406.35	192.17
406.559	216.74
406.768	159.4
406.977	218.79
407.185	173.74
407.394	259.75
407.603	200.36
407.812	188.07
408.02	304.81
408.229	247.46
408.438	276.13
408.646	229.03
408.855	257.7
409.064	274.09
409.272	198.31
409.481	233.13
409.69	267.94
409.898	292.52
410.107	235.18
410.315	321.19
410.524	306.85
410.733	335.53
410.941	347.81
411.15	374.44
411.358	319.14
411.567	380.58
411.775	329.38
411.984	403.11
412.192	396.96
412.401	388.77
412.609	476.84
412.818	411.3
413.026	448.16
413.234	435.88
413.443	454.31
413.651	470.69
413.86	536.23
414.068	521.89
414.276	616.1
414.485	550.56
414.693	523.94
414.901	581.28
415.11	607.91
415.318	671.39
415.526	657.06
415.734	712.35
415.943	609.95
416.151	814.75
416.359	753.31
416.567	669.34
416.776	796.32
416.984	843.42
417.192	923.29
417.4	894.62
417.608	913.05
417.817	933.53
418.025	958.11
418.233	999.07
418.441	1037.98
418.649	1001.12
418.857	1212.06
419.065	1087.13
419.273	1111.71
419.481	1117.85
419.689	1310.36
419.897	1336.98
420.105	1355.41
420.313	1300.12
420.521	1404.57
420.729	1484.44
420.937	1599.12
421.145	1523.35
421.353	1691.28
421.561	1633.94
421.769	1678.99
421.977	1771.15
422.185	1734.29
422.393	1906.32
422.601	1947.28
422.809	1887.89
423.017	2039.44
423.224	2076.3
423.432	2227.85
423.64	2174.6
423.848	2358.92
424.056	2242.18
424.263	2459.27
424.471	2539.14
424.679	2524.8
424.887	2637.44
425.094	2780.8
425.302	2770.56
425.51	2782.85
425.718	3055.23
425.925	3131
426.133	3098.24
426.341	3198.59
426.548	3368.57
426.756	3446.39
426.964	3372.66
427.171	3692.15
427.379	3712.63
427.586	3690.1
427.794	3888.75
428.001	4034.16
428.209	4281.96
428.417	4122.22
428.624	4492.9
428.832	4548.2
429.039	4480.61
429.247	4363.88
429.454	5013.09
429.662	5213.79
429.869	4908.64
430.076	5351
430.284	5064.29
430.491	5355.1
430.699	5641.81
430.906	5588.57
431.114	5793.36
431.321	5989.97
431.528	6012.49
431.736	6176.33
431.943	6770.24
432.15	6424.14
432.358	6575.69
432.565	6944.32
432.772	6882.88
432.979	7122.49
433.187	7378.49
433.394	7525.94
433.601	7892.53
433.808	7982.64
434.016	7939.63
434.223	8414.76
434.43	8685.09
434.637	8605.22
434.844	9174.56
435.052	9225.76
435.259	9182.75
435.466	9520.67
435.673	9268.77
435.88	9715.22
436.087	10264.08
436.294	10374.67
436.501	10305.04
436.708	10315.28
436.915	10745.35
437.122	11152.9
437.329	11070.98
437.537	11412.99
437.743	11527.67
437.95	11658.74
438.157	12348.91
438.364	12459.5
438.571	12658.15
438.778	12686.83
438.985	13647.32
439.192	13434.33
439.399	13809.11
439.606	13383.13
439.813	14140.88
440.02	14841.29
440.227	14767.56
440.433	14519.76
440.64	15216.07
440.847	14829
441.054	15361.47
441.261	16383.41
441.467	16068.02
441.674	16750
441.881	16774.57
442.088	17200.55
442.294	16965.03
442.501	17434.02
442.708	17931.67
442.914	18783.63
443.121	19232.13
443.328	18630.03
443.534	19985.79
443.741	19410.31
443.948	19086.73
444.154	20673.9
444.361	20571.5
444.568	20700.53
444.774	20919.66
444.981	20872.56
445.187	21572.96
445.394	22199.64
445.6	22162.78
445.807	24012.09
446.013	22986.06
446.22	23639.36
446.426	24513.84
446.633	24753.46
446.839	25632.04
447.046	24464.69
447.252	25746.72
447.459	25629.99
447.665	26045.73
447.871	26967.31
448.078	28296.44
448.284	26731.79
448.491	27835.65
448.697	28536.06
448.903	29105.39
449.11	29238.51
449.316	28484.86
449.522	29248.75
449.728	30031.07
449.935	30411.99
450.141	30225.63
450.347	30780.63
450.553	30166.24
450.76	30430.43
450.966	31646.92
451.172	30864.6
451.378	31884.48
451.584	31075.54
451.791	31927.49
451.997	31968.45
452.203	32611.51
452.409	32537.79
452.615	31950.02
452.821	31241.42
453.027	30944.47
453.233	32316.61
453.44	30999.76
453.646	31266
453.852	31585.48
454.058	32318.65
454.264	31274.19
454.47	31847.62
454.676	30815.44
454.882	31984.83
455.088	29031.66
455.294	29791.46
455.5	29983.97
455.705	30749.91
455.911	29201.65
456.117	28652.79
456.323	28413.18
456.529	26930.45
456.735	28001.54
456.941	27432.2
457.147	26907.92
457.352	26043.68
457.558	25763.11
457.764	25902.37
457.97	25419.05
458.176	25087.28
458.381	24816.94
458.587	23702.85
458.793	23684.42
458.999	22302.04
459.204	23921.98
459.41	23190.86
459.616	21792.09
459.821	21800.29
460.027	21525.86
460.233	21140.84
460.438	20266.36
460.644	20667.76
460.85	19572.1
461.055	19170.69
461.261	19146.12
461.466	17702.3
461.672	17272.23
461.878	18181.53
462.083	17089.96
462.289	16772.52
462.494	16868.78
462.7	16090.55
462.905	15347.14
463.111	16047.54
463.316	16197.04
463.522	15893.94
463.727	15973.81
463.932	15547.84
464.138	15803.83
464.343	15947.19
464.549	15336.9
464.754	15926.71
464.959	15613.37
465.165	15556.03
465.37	14781.9
465.575	14235.09
465.781	15005.13
465.986	14884.3
466.191	14521.81
466.397	14368.21
466.602	13807.06
466.807	14007.76
467.012	14046.68
467.218	13917.65
467.423	13987.29
467.628	13977.05
467.833	14439.89
468.038	13993.43
468.244	13616.6
468.449	14095.83
468.654	13790.68
468.859	13538.78
469.064	13579.74
469.269	13254.11
469.474	13104.61
469.679	13327.84
469.885	12920.29
470.09	13295.07
470.295	12926.44
470.5	12826.09
470.705	12883.43
470.91	12598.76
471.115	12381.68
471.32	12727.78
471.525	12393.97
471.73	12391.92
471.935	12393.97
472.139	11673.08
472.344	11781.62
472.549	11814.39
472.754	11595.26
472.959	11701.75
473.164	10952.2
473.369	11089.41
473.574	11558.39
473.778	11363.84
473.983	11308.54
474.188	11177.47
474.393	10511.88
474.598	10804.74
474.802	10663.43
475.007	10804.74
475.212	10452.49
475.417	10214.93
475.621	10155.54
475.826	10266.13
476.031	10231.31
476.235	9819.67
476.44	10012.18
476.645	9805.33
476.849	9930.26
477.054	9733.65
477.259	9600.54
477.463	9643.54
477.668	9403.93
477.872	9313.82
478.077	9256.48
478.282	9008.67
478.486	9045.54
478.691	8947.23
478.895	8951.33
479.1	8963.62
479.304	8838.69
479.509	8586.79
479.713	8822.31
479.918	8556.07
480.122	8646.18
480.326	8705.57
480.531	8508.97
480.735	8396.33
480.94	8502.82
481.144	8609.32
481.348	8191.53
481.553	8437.29
481.757	8130.09
481.961	8371.75
482.166	8463.91
482.37	8498.73
482.574	8244.78
482.778	8132.14
482.983	8420.91
483.187	8279.6
483.391	8175.15
483.595	8304.17
483.8	8259.12
484.004	8285.74
484.208	8275.5
484.412	8091.18
484.616	8295.98
484.821	8322.6
485.025	8009.26
485.229	8283.69
485.433	8058.42
485.637	8240.68
485.841	8035.89
486.045	8306.22
486.249	8336.94
486.453	8136.24
486.657	8291.88
486.861	8271.4
487.065	8080.94
487.269	8322.6
487.473	8103.47
487.677	8209.97
487.881	8429.1
488.085	8154.67
488.289	8261.16
488.493	8201.77
488.697	8373.8
488.901	8087.09
489.105	8289.84
489.309	8291.88
489.512	8300.08
489.716	8328.75
489.92	8447.53
490.124	8502.82
490.328	8492.59
490.531	8422.95
490.735	8410.67
490.939	8562.22
491.143	8437.29
491.346	8312.36
491.55	8539.69
491.754	8721.96
491.958	8713.77
492.161	8422.95
492.365	8767.01
492.569	8769.06
492.772	8607.27
492.976	8744.49
493.18	8820.26
493.383	8896.03
493.587	9041.44
493.79	8975.91
493.994	9016.87
494.197	9078.3
494.401	9096.74
494.605	9149.98
494.808	9287.2
495.012	9221.66
495.215	9342.49
495.419	9270.81
495.622	9346.59
495.825	9612.82
496.029	9578.01
496.232	9678.36
496.436	9754.13
496.639	10128.91
496.843	10063.38
497.046	10302.99
497.249	10352.14
497.453	10360.33
497.656	10481.16
497.859	10393.1
498.063	10460.68
498.266	10841.61
498.469	10649.1
498.673	10956.29
498.876	11097.6
499.079	11169.28
499.282	11161.09
499.485	11406.84
499.689	11552.25
499.892	11707.9
500.095	11537.91
500.298	12070.39
500.501	11826.68
500.705	12170.74
500.908	12373.49
501.111	12367.34
501.314	12482.03
501.517	12633.58
501.72	12541.42
501.923	12494.32
502.126	13014.5
502.329	13014.5
502.532	13155.81
502.735	13415.9
502.938	13682.14
503.141	13729.24
503.344	13981.14
503.547	13995.48
503.75	14093.78
503.953	14364.11
504.156	14478.8
504.359	14603.72
504.562	14626.25
504.765	14890.44
504.968	15252.93
505.17	15408.58
505.373	15353.28
505.576	15484.35
505.779	15764.92
505.982	15746.49
506.185	16450.99
506.387	16297.39
506.59	16455.09
506.793	16721.32
506.996	16827.82
507.198	17294.75
507.401	17087.91
507.604	17247.65
507.807	17640.86
508.009	17898.91
508.212	17986.97
508.415	18021.78
508.617	18279.83
508.82	18320.79
509.022	18363.79
509.225	18533.78
509.428	18955.66
509.63	19109.26
509.833	19281.28
510.035	19703.17
510.238	19565.95
510.44	19809.66
510.643	20335.99
510.845	20278.65
511.048	20227.45
511.25	20721.01
511.453	20819.31
511.655	21552.48
511.858	21255.53
512.06	21462.37
512.262	21618.02
512.465	21689.7
512.667	22197.59
512.87	22314.33
513.072	22318.42
513.274	22930.76
513.477	22971.72
513.679	23272.78
513.881	23610.69
514.084	23657.79
514.286	24048.96
514.488	23848.25
514.69	24753.46
514.893	24444.21
515.095	24474.93
515.297	25048.36
515.499	25296.17
515.701	25517.35
515.904	25419.05
516.106	25894.18
516.308	26129.69
516.51	26463.51
516.712	26193.18
516.914	26957.07
517.116	27313.42
517.318	27673.86
517.52	27434.25
517.722	27577.61
517.925	27727.11
518.127	28480.76
518.329	28908.79
518.531	27974.91
518.733	29338.86
518.935	29299.95
519.136	29140.21
519.338	29803.75
519.54	29521.13
519.742	30459.1
519.944	30371.04
520.146	30667.99
520.348	31055.06
520.55	31014.1
520.752	31128.78
520.954	31853.76
521.155	31442.12
521.357	32185.54
521.559	32568.51
521.761	32752.82
521.963	32646.33
522.164	33172.66
522.366	33158.32
522.568	33674.41
522.77	33791.14
522.971	34559.13
523.173	34116.77
523.375	34587.8
523.576	34180.26
523.778	34532.51
523.98	35163.28
524.181	35275.92
524.383	35183.76
524.584	35374.22
524.786	35636.36
524.988	35744.91
525.189	36099.2
525.391	36283.52
525.592	36463.74
525.794	36764.79
525.995	36770.94
526.197	36621.44
526.398	36992.12
526.6	37321.84
526.801	37741.67
527.003	37676.14
527.204	37690.48
527.406	38093.93
527.607	38190.18
527.808	38728.8
528.01	37940.33
528.211	38181.99
528.412	38966.36
528.614	38782.04
528.815	38376.55
529.016	38786.14
529.218	38845.53
529.419	39076.95
529.62	39240.79
529.822	39007.32
530.023	39351.38
530.224	39287.89
530.425	39949.39
530.626	39470.16
530.828	39253.08
531.029	39867.47
531.23	39566.41
531.431	39674.96
531.632	39947.34
531.833	40467.52
532.035	40059.98
532.236	40008.78
532.437	40170.57
532.638	40178.76
532.839	40363.07
533.04	40428.61
533.241	39967.82
533.442	40979.51
533.643	40270.92
533.844	40709.18
534.045	40334.4
534.246	40418.37
534.447	40961.08
534.648	40498.24
534.849	40903.74
535.05	40334.4
535.251	40358.98
535.451	40477.76
535.652	41114.68
535.853	40508.48
536.054	40789.05
536.255	40967.23
536.456	40084.55
536.657	41425.97
536.857	40774.72
537.058	40750.14
537.259	41010.23
537.46	40956.99
537.66	41196.6
537.861	41141.3
538.062	40989.75
538.263	41022.52
538.463	40686.65
538.664	40860.73
538.865	40903.74
539.065	41190.45
539.266	40850.49
539.466	41309.24
539.667	40479.81
539.868	41251.89
540.068	40651.84
540.269	40830.01
540.469	41051.19
540.67	40797.24
540.87	40744
541.071	40631.36
541.271	40932.41
541.472	40893.5
541.672	40703.04
541.873	41212.98
542.073	40074.31
542.274	41137.21
542.474	40780.86
542.675	40096.84
542.875	41043
543.075	40977.47
543.276	40133.7
543.476	40868.92
543.676	40584.26
543.877	41047.1
544.077	41217.08
544.277	41043
544.478	40948.79
544.678	40979.51
544.878	40735.81
545.078	41235.51
545.279	40488
545.479	40516.67
545.679	40748.09
545.879	40995.9
546.079	40832.06
546.28	40942.65
546.48	40440.9
546.68	40772.67
546.88	41014.33
547.08	40891.45
547.28	40488
547.48	40195.14
547.68	40717.37
547.88	40723.52
548.081	40664.13
548.281	40807.48
548.481	40524.86
548.681	41053.24
548.881	40860.73
549.081	40801.34
549.28	40682.56
549.48	40784.96
549.68	40229.96
549.88	40913.98
550.08	40598.59
550.28	40213.57
550.48	40643.65
550.68	40756.28
550.88	40416.32
551.08	40700.99
551.279	41032.76
551.479	40395.84
551.679	40750.14
551.879	40520.77
552.079	40842.3
552.278	40387.65
552.478	40641.6
552.678	40748.09
552.878	40813.63
553.077	40854.59
553.277	40348.74
553.477	40686.65
553.676	40547.39
553.876	40358.98
554.076	39943.24
554.275	40240.2
554.475	39894.09
554.674	40342.6
554.874	40156.23
555.074	40006.73
555.273	40160.33
555.473	40553.54
555.672	39910.47
555.872	40334.4
556.071	40014.92
556.271	40309.83
556.47	39924.81
556.67	39582.8
556.869	40117.32
557.068	39922.76
557.268	39392.34
557.467	39515.22
557.667	39629.9
557.866	39883.85
558.065	39316.56
558.265	39490.64
558.464	39330.9
558.663	40068.17
558.863	39171.16
559.062	39605.33
559.261	39091.29
559.461	39601.23
559.66	39134.29
559.859	39208.02
560.058	38859.87
560.258	39033.94
560.457	38984.79
560.656	39087.19
560.855	38992.98
561.054	38769.76
561.253	39021.66
561.453	38650.97
561.652	38696.03
561.851	38665.31
562.05	38470.75
562.249	38515.81
562.448	38921.3
562.647	38677.6
562.846	38222.95
563.045	38364.26
563.244	37745.77
563.443	38567.01
563.642	37839.98
563.841	38192.23
564.04	38225
564.239	38480.99
564.438	37569.65
564.637	37872.74
564.836	37659.76
565.035	37284.98
565.234	37606.51
565.432	37176.44
565.631	37489.77
565.83	37610.6
566.029	37229.68
566.228	36963.45
566.427	36977.78
566.625	36658.3
566.824	36451.45
567.023	37063.8
567.222	36283.52
567.42	36904.06
567.619	36500.61
567.818	36678.78
568.016	36494.46
568.215	36701.31
568.414	36400.26
568.612	36187.27
568.811	36320.38
569.01	36187.27
569.208	35908.74
569.407	36203.65
569.605	35662.99
569.804	36080.77
570.002	35667.08
570.201	35683.47
570.4	35527.82
570.598	35107.99
570.797	35585.16
570.995	35140.75
571.193	35007.64
571.392	35464.33
571.59	35157.14
571.789	35318.93
571.987	34741.4
572.186	34743.45
572.384	34714.78
572.582	34600.09
572.781	34735.26
572.979	34178.21
573.177	34587.8
573.376	34364.57
573.574	34018.47
573.772	34270.37
573.971	33821.86
574.169	33686.7
574.367	33348.78
574.565	33692.84
574.763	33569.96
574.962	33463.47
575.16	32941.24
575.358	33318.06
575.556	33103.03
575.754	33328.3
575.952	32896.18
576.151	33361.07
576.349	32715.96
576.547	32955.57
576.745	32601.27
576.943	32904.37
577.141	31993.03
577.339	32783.54
577.537	32453.82
577.735	32222.4
577.933	31925.44
578.131	32345.28
578.329	31757.51
578.527	31626.44
578.725	31722.69
578.923	32335.04
579.121	31489.23
579.319	31530.19
579.516	31673.54
579.714	31663.3
579.912	31728.84
580.11	31114.45
580.308	31501.51
580.506	31448.27
580.704	30880.98
580.901	31120.59
581.099	31306.96
581.297	30954.71
581.495	30885.08
581.692	31147.22
581.89	30643.42
582.088	30631.13
582.285	30264.54
582.483	30366.94
582.681	30381.28
582.878	30205.15
583.076	29791.46
583.274	30444.76
583.471	29717.73
583.669	29895.91
583.866	29398.25
584.064	29988.07
584.262	29721.83
584.459	29705.45
584.657	29279.47
584.854	29652.2
585.052	29275.37
585.249	29418.73
585.447	29271.28
585.644	28906.74
585.841	28785.91
586.039	29332.72
586.236	28937.46
586.434	28636.41
586.631	28577.01
586.828	28703.99
587.026	28554.49
587.223	28239.1
587.42	28280.06
587.618	28777.72
587.815	28271.87
588.012	28124.41
588.21	27835.65
588.407	28241.15
588.604	27821.31
588.801	27704.58
588.999	27852.03
589.196	27407.62
589.393	27723.01
589.59	27284.75
589.787	27479.3
589.984	27262.22
590.182	27102.48
590.379	27641.09
590.576	26883.34
590.773	27313.42
590.97	26805.52
591.167	26897.68
591.364	26584.34
591.561	26842.39
591.758	26400.02
591.955	26588.44
592.152	26680.6
592.349	26342.68
592.546	26483.99
592.743	26483.99
592.94	26047.77
593.137	25976.09
593.334	25957.66
593.531	25978.14
593.727	25961.76
593.924	25928.99
594.121	25498.92
594.318	25812.26
594.515	25333.03
594.712	25494.82
594.908	25736.48
595.105	25517.35
595.302	24984.88
595.499	25566.5
595.696	25314.6
595.892	24700.21
596.089	25128.24
596.286	24970.54
596.482	24829.23
596.679	24954.16
596.876	24794.42
597.072	24546.61
597.269	24796.46
597.466	24315.19
597.662	24206.65
597.859	24280.38
598.055	24294.71
598.252	24286.52
598.448	24075.58
598.645	23985.47
598.841	23803.2
599.038	23776.58
599.234	23786.82
599.431	23629.12
599.627	23817.54
599.824	23481.67
600.02	23612.74
600.217	23444.8
600.413	23377.22
600.609	23174.47
600.806	23344.45
601.002	23344.45
601.198	23022.92
601.395	23137.61
601.591	22955.34
601.787	23018.83
601.984	22871.37
602.18	22820.17
602.376	22543.7
602.572	22674.77
602.769	22480.21
602.965	22553.94
603.161	22609.23
603.357	22242.65
603.553	22244.7
603.75	22310.23
603.946	21984.6
604.142	22173.02
604.338	21788
604.534	21994.84
604.73	21849.44
604.926	21445.99
605.122	21939.55
605.318	21445.99
605.514	21593.44
605.71	21370.21
605.906	21335.4
606.102	21488.99
606.298	21351.78
606.494	21405.03
606.69	21482.85
606.886	21294.44
607.082	21327.21
607.278	21411.17
607.474	20917.61
607.67	21173.61
607.866	20743.53
608.062	21194.09
608.257	20909.42
608.453	20667.76
608.649	20833.64
608.845	20589.94
609.041	20503.92
609.236	20751.73
609.432	20456.82
609.628	20544.88
609.824	20604.27
610.019	20258.17
610.215	20268.41
610.411	20245.88
610.606	20225.4
610.802	20108.66
610.998	20370.8
611.193	20422
611.389	19981.69
611.584	20016.51
611.78	19631.49
611.976	19881.34
612.171	19877.24
612.367	20315.51
612.562	19750.27
612.758	19461.51
612.953	19604.86
613.149	19817.85
613.344	19422.59
613.539	19967.35
613.735	19641.73
613.93	19500.42
614.126	19443.07
614.321	19658.11
614.517	19176.84
614.712	19307.91
614.907	19113.35
615.103	19424.64
615.298	19111.3
615.493	19246.47
615.688	19115.4
615.884	19318.15
616.079	18849.16
616.274	19041.67
616.47	19185.03
616.665	18951.56
616.86	18945.42
617.055	18793.87
617.25	18734.48
617.445	18742.67
617.641	18615.69
617.836	18802.06
618.031	18472.34
618.226	18525.58
618.421	18359.7
618.616	18425.23
618.811	18245.01
619.006	18363.79
619.201	18124.18
619.396	18378.13
619.591	17669.53
619.786	18011.54
619.981	18029.98
620.176	17915.29
620.371	17628.57
620.566	17708.44
620.761	17663.39
620.956	17866.14
621.151	17448.35
621.346	17462.69
621.541	17288.61
621.735	17237.41
621.93	16944.55
622.125	16975.27
622.32	16782.76
622.515	16860.59
622.709	16793
622.904	16684.46
623.099	16723.37
623.294	16586.16
623.488	16381.36
623.683	16844.2
623.878	16287.15
624.072	16405.94
624.267	16195
624.462	16000.44
624.656	15865.27
624.851	16014.77
625.046	15934.9
625.24	15697.34
625.435	15664.57
625.629	15461.82
625.824	15416.77
626.018	15408.58
626.213	15252.93
626.407	15254.98
626.602	14968.26
626.796	15265.22
626.991	15103.43
627.185	15095.24
627.38	15121.86
627.574	14751.18
627.768	14675.4
627.963	14573
628.157	14470.61
628.352	14382.54
628.546	14321.1
628.74	14228.95
628.935	14280.14
629.129	14505.42
629.323	14126.55
629.517	13956.57
629.712	14034.39
629.906	14056.92
630.1	13575.64
630.294	13680.09
630.489	13719
630.683	13565.4
630.877	13530.59
631.071	13397.47
631.265	13508.06
631.459	13153.76
631.653	13174.24
631.848	13184.48
632.042	13104.61
632.236	13276.64
632.43	13020.64
632.624	13022.69
632.818	12856.81
633.012	12668.39
633.206	12711.4
633.4	12778.98
633.594	12482.03
633.788	12537.32
633.982	12363.25
634.176	12326.38
634.369	12250.61
634.563	12250.61
634.757	12221.94
634.951	12054
635.145	12064.24
635.339	12154.35
635.533	12004.85
635.726	11863.54
635.92	11615.74
636.114	11771.38
636.308	11697.66
636.501	11628.03
636.695	11634.17
636.889	11755
637.083	11281.92
637.276	11304.45
637.47	11200
637.664	11320.83
637.857	11232.77
638.051	11333.12
638.244	11070.98
638.438	11042.31
638.632	10821.13
638.825	10814.98
639.019	10956.29
639.212	10800.65
639.406	10702.34
639.599	10597.9
639.793	10610.18
639.986	10436.11
640.18	10442.25
640.373	10618.38
640.567	10255.89
640.76	10429.96
640.954	10362.38
641.147	10112.53
641.34	10198.54
641.534	10014.23
641.727	9960.98
641.92	9938.45
642.114	9948.69
642.307	9647.64
642.5	9903.64
642.694	9664.02
642.887	9762.33
643.08	9711.13
643.273	9575.96
643.467	9467.42
643.66	9516.57
643.853	9367.07
644.046	9233.95
644.239	9276.96
644.432	9313.82
644.626	9279.01
644.819	9068.06
645.012	9098.78
645.205	9115.17
645.398	9072.16
645.591	8799.78
645.784	9180.7
645.977	8855.08
646.17	8820.26
646.363	8707.62
646.556	8646.18
646.749	8633.89
646.942	8724.01
647.135	8717.86
647.328	8617.51
647.521	8492.59
647.714	8357.42
647.907	8500.78
648.099	8295.98
648.292	8418.86
648.485	8435.24
648.678	8091.18
648.871	8103.47
649.064	8060.46
649.256	8078.9
649.449	8101.42
649.642	8044.08
649.835	7644.73
650.027	7902.77
650.22	7878.19
650.413	7843.38
650.605	7751.22
650.798	7712.31
650.991	7616.05
651.183	7888.43
651.376	7525.94
651.568	7511.61
651.761	7558.71
651.954	7353.91
652.146	7499.32
652.339	7456.31
652.531	7339.58
652.724	7052.86
652.916	7304.76
653.109	7245.37
653.301	7200.32
653.494	7315
653.686	7091.77
653.879	7097.92
654.071	7126.59
654.263	7079.49
654.456	6825.54
654.648	6989.38
654.84	6868.55
655.033	6936.13
655.225	6733.38
655.417	6794.82
655.61	6682.18
655.802	6643.27
655.994	6563.4
656.186	6704.71
656.379	6630.98
656.571	6655.56
656.763	6624.84
656.955	6665.8
657.148	6551.11
657.34	6442.57
657.532	6506.06
657.724	6456.9
657.916	6436.42
658.108	6377.03
658.3	6291.02
658.492	6364.75
658.684	6176.33
658.876	6118.99
659.068	6198.86
659.26	6055.5
659.452	6159.95
659.644	5961.3
659.836	5928.53
660.028	6078.03
660.22	5946.96
660.412	5889.62
660.604	5772.88
660.796	5674.58
660.988	5871.19
661.18	5822.03
661.372	5877.33
661.563	5748.31
661.755	5822.03
661.947	5738.07
662.139	5776.98
662.331	5637.72
662.522	5711.44
662.714	5502.55
662.906	5486.17
663.097	5549.65
663.289	5545.56
663.481	5480.02
663.673	5408.34
663.864	5553.75
664.056	5570.13
664.247	5367.38
664.439	5260.89
664.631	5328.47
664.822	5430.87
665.014	5244.51
665.205	5256.79
665.397	5246.55
665.588	5209.69
665.78	5097.05
665.971	5054.05
666.163	5135.96
666.354	5082.72
666.546	4955.74
666.737	5029.47
666.929	4906.59
667.12	4931.17
667.311	4916.83
667.503	4871.78
667.694	4949.6
667.885	4845.15
668.077	4953.7
668.268	4910.69
668.459	4879.97
668.651	4859.49
668.842	4658.79
669.033	4873.82
669.224	4671.08
669.416	4740.71
669.607	4630.12
669.798	4666.98
669.989	4818.53
670.18	4714.08
670.371	4642.4
670.563	4587.11
670.754	4617.83
670.945	4480.61
671.136	4628.07
671.327	4472.42
671.518	4527.72
671.709	4611.68
671.9	4482.66
672.091	4435.56
672.282	4523.62
672.473	4445.8
672.664	4636.26
672.855	4552.29
673.046	4494.95
673.237	4460.13
673.428	4486.76
673.619	4247.15
673.809	4464.23
674	4314.73
674.191	4267.63
674.382	4542.05
674.573	4425.32
674.764	4177.51
674.954	4347.5
675.145	4230.76
675.336	4187.75
675.527	4185.71
675.717	4175.47
675.908	4187.75
676.099	4212.33
676.289	4245.1
676.48	4120.17
676.671	4150.89
676.861	4161.13
677.052	4114.03
677.243	4040.3
677.433	4163.18
677.624	4093.55
677.814	4089.45
678.005	4077.16
678.195	4138.6
678.386	4189.8
678.576	3970.67
678.767	4058.73
678.957	4081.26
679.148	4148.84
679.338	4030.06
679.529	4271.72
679.719	4058.73
679.909	4044.4
680.1	3937.9
680.29	4134.51
680.481	4025.97
680.671	3997.29
680.861	4021.87
681.052	3968.62
681.242	3890.8
681.432	4169.32
681.622	3950.19
681.813	3948.14
682.003	3913.33
682.193	3954.29
682.383	3937.9
682.573	3933.81
682.764	3958.38
682.954	4048.49
683.144	4007.53
683.334	3937.9
683.524	3944.05
683.714	4005.49
683.904	3847.79
684.094	3925.61
684.284	3851.89
684.474	3905.14
684.664	3860.08
684.854	3855.98
685.044	3917.42
685.234	3688.05
685.424	3890.8
685.614	3788.4
685.804	3743.35
685.994	3907.18
686.184	3763.83
686.374	3790.45
686.564	3602.04
686.753	3706.48
686.943	3720.82
687.133	3790.45
687.323	3710.58
687.513	3718.77
687.702	3704.43
687.892	3673.71
688.082	3810.93
688.272	3743.35
688.461	3556.98
688.651	3659.38
688.841	3573.36
689.03	3597.94
689.22	3636.85
689.41	3610.23
689.599	3524.21
689.789	3585.65
689.979	3577.46
690.168	3599.99
690.358	3479.16
690.547	3438.2
690.737	3593.84
690.926	3595.89
691.116	3470.97
691.305	3624.56
691.495	3401.33
691.684	3538.55
691.874	3444.34
692.063	3444.34
692.252	3511.93
692.442	3438.2
692.631	3374.71
692.82	3407.48
693.01	3374.71
693.199	3288.7
693.388	3350.14
693.578	3364.47
693.767	3280.5
693.956	3450.49
694.146	3241.59
694.335	3327.61
694.524	3303.03
694.713	3202.68
694.902	3309.18
695.092	3309.18
695.281	3382.9
695.47	3270.26
695.659	3180.15
695.848	3296.89
696.037	3233.4
696.226	3286.65
696.415	3321.46
696.604	3311.22
696.793	3151.48
696.982	3255.93
697.171	3202.68
697.36	3145.34
697.549	3245.69
697.738	3116.67
697.927	3214.97
698.116	3180.15
698.305	3255.93
698.494	3208.83
698.683	3178.11
698.872	3184.25
699.061	3055.23
699.25	3114.62
699.438	3143.29
699.627	3174.01
699.816	3274.36
700.005	3155.58
700.193	3214.97
700.382	3245.69
700.571	3149.43
700.76	3108.48
700.948	3153.53
701.137	3241.59
701.326	3159.67
701.514	3100.28
701.703	3208.83
701.892	3223.16
702.08	3167.87
702.269	3182.2
702.457	3174.01
702.646	3110.52
702.834	3008.12
703.023	3040.89
703.212	3118.72
703.4	3161.72
703.589	2969.21
703.777	3145.34
703.965	2973.31
704.154	3051.13
704.342	3061.37
704.531	3004.03
704.719	3016.32
704.907	3088
705.096	3090.04
705.284	3051.13
705.472	3042.94
705.661	3026.56
705.849	3067.52
706.037	3016.32
706.226	3137.15
706.414	3034.75
706.602	3079.8
706.79	3192.44
706.979	3186.3
707.167	3024.51
707.355	3020.41
707.543	3088
707.731	3157.63
707.919	3174.01
708.107	3108.48
708.296	3145.34
708.484	3057.28
708.672	3141.24
708.86	3042.94
709.048	3008.12
709.236	3112.57
709.424	3030.65
709.612	3090.04
709.8	3006.08
709.988	3047.04
710.176	3108.48
710.364	3139.19
710.551	3022.46
710.739	3006.08
710.927	3196.54
711.115	3018.36
711.303	3102.33
711.491	3018.36
711.679	2965.12
711.866	2965.12
712.054	2981.5
712.242	3112.57
712.43	3053.18
712.617	2975.36
712.805	3038.84
712.993	2985.6
713.181	2985.6
713.368	3001.98
713.556	2946.69
713.744	3059.32
713.931	3049.08
714.119	3131
714.306	2954.88
714.494	2995.84
714.682	3016.32
714.869	2983.55
715.057	3032.7
715.244	2932.35
715.432	3075.71
715.619	3040.89
715.807	3044.99
715.994	3065.47
716.182	2866.81
716.369	2979.45
716.556	3036.8
716.744	2877.05
716.931	2920.06
717.119	3016.32
717.306	3024.51
717.493	2979.45
717.681	3032.7
717.868	3038.84
718.055	2991.74
718.242	2903.68
718.43	3053.18
718.617	3042.94
718.804	2961.02
718.991	3065.47
719.179	3071.61
719.366	2936.45
719.553	3008.12
719.74	2954.88
719.927	2944.64
720.114	3026.56
720.301	2977.41
720.488	2860.67
720.676	2930.3
720.863	3116.67
721.05	2971.26
721.237	2862.72
721.424	3030.65
721.611	2954.88
721.798	2969.21
721.985	2889.34
722.172	2905.73
722.358	2875.01
722.545	3069.56
722.732	2799.23
722.919	2961.02
723.106	2885.25
723.293	3010.17
723.48	2997.88
723.667	3034.75
723.853	2932.35
724.04	2973.31
724.227	2920.06
724.414	2965.12
724.6	2963.07
724.787	3010.17
724.974	3016.32
725.161	2850.43
725.347	2926.21
725.534	2868.86
725.72	2973.31
725.907	2920.06
726.094	3051.13
726.28	2819.71
726.467	2946.69
726.653	2995.84
726.84	3014.27
727.027	2985.6
727.213	2942.59
727.4	2938.49
727.586	2911.87
727.773	2748.03
727.959	2844.29
728.145	2944.64
728.332	2989.69
728.518	2856.58
728.705	2946.69
728.891	2915.97
729.077	2913.92
729.264	2860.67
729.45	2940.54
729.636	2952.83
729.823	2786.94
730.009	2858.62
730.195	2862.72
730.382	2918.01
730.568	2872.96
730.754	2829.95
730.94	2834.05
731.126	2965.12
731.313	2899.58
731.499	2922.11
731.685	2823.81
731.871	2875.01
732.057	2780.8
732.243	2901.63
732.429	2838.14
732.615	2846.34
732.801	2924.16
732.987	2870.91
733.173	2977.41
733.359	2852.48
733.545	2891.39
733.731	2813.57
733.917	2752.13
734.103	2799.23
734.289	2879.1
734.475	2762.37
734.661	2735.74
734.847	2840.19
735.033	2907.77
735.219	2840.19
735.404	2827.9
735.59	2793.09
735.776	2692.74
735.962	2936.45
736.148	2803.33
736.333	2842.24
736.519	2745.98
736.705	2868.86
736.89	2688.64
737.076	2784.9
737.262	2627.2
737.447	2737.79
737.633	2862.72
737.819	2776.7
738.004	2879.1
738.19	2698.88
738.375	2563.72
738.561	2737.79
738.747	2584.2
738.932	2625.15
739.118	2711.17
739.303	2645.63
739.489	2592.39
739.674	2629.25
739.859	2639.49
740.045	2705.03
740.23	2772.61
740.416	2629.25
740.601	2698.88
740.786	2584.2
740.972	2645.63
741.157	2629.25
741.342	2565.76
741.528	2670.21
741.713	2651.78
741.898	2559.62
742.084	2629.25
742.269	2430.6
742.454	2625.15
742.639	2598.53
742.824	2520.71
743.01	2506.37
743.195	2485.89
743.38	2504.32
743.565	2422.41
743.75	2518.66
743.935	2461.32
744.12	2545.28
744.305	2524.8
744.49	2401.93
744.675	2461.32
744.86	2277
745.045	2401.93
745.23	2360.97
745.415	2346.63
745.6	2379.4
745.785	2266.76
745.97	2438.79
746.155	2305.67
746.34	2305.67
746.525	2203.27
746.71	2391.69
746.895	2301.58
747.079	2131.59
747.264	2240.14
747.449	2211.46
747.634	2168.46
747.819	2166.41
748.003	2055.82
748.188	2135.69
748.373	2166.41
748.557	2147.98
748.742	2123.4
748.927	2117.26
749.111	2104.97
749.296	2018.96
749.481	2109.07
749.665	2078.35
749.85	2010.76
750.034	1988.24
750.219	2014.86
750.404	1963.66
750.588	2000.52
750.773	1836.69
750.957	1992.33
751.141	1951.37
751.326	2000.52
751.51	1947.28
751.695	1887.89
751.879	1924.75
752.064	1955.47
752.248	1912.46
752.432	1937.04
752.617	1826.45
752.801	1861.26
752.985	1715.86
753.17	1803.92
753.354	1736.34
753.538	1900.17
753.722	1826.45
753.907	1832.59
754.091	1791.63
754.275	1654.42
754.459	1664.66
754.643	1640.08
754.828	1816.21
755.012	1756.82
755.196	1648.27
755.38	1726.1
755.564	1736.34
755.748	1592.98
755.932	1732.24
756.116	1644.18
756.3	1554.07
756.484	1638.03
756.668	1625.75
756.852	1506.96
757.036	1601.17
757.22	1486.48
757.404	1590.93
757.588	1406.61
757.772	1398.42
757.956	1474.2
758.14	1539.73
758.323	1457.81
758.507	1492.63
758.691	1439.38
758.875	1527.44
759.059	1492.63
759.242	1498.77
759.426	1445.52
759.61	1392.28
759.794	1463.96
759.977	1529.49
760.161	1490.58
760.345	1427.09
760.528	1343.13
760.712	1437.33
760.895	1375.89
761.079	1433.24
761.263	1308.31
761.446	1279.64
761.63	1328.79
761.813	1355.41
761.997	1316.5
762.18	1363.61
762.364	1291.93
762.547	1320.6
762.731	1361.56
762.914	1283.74
763.098	1281.69
763.281	1207.96
763.464	1269.4
763.648	1234.58
763.831	1253.02
764.015	1132.19
764.198	1216.15
764.381	1185.43
764.564	1281.69
764.748	1232.54
764.931	1345.17
765.114	1199.77
765.297	1179.29
765.481	1158.81
765.664	1228.44
765.847	1150.62
766.03	1234.58
766.213	1197.72
766.397	1109.66
766.58	1140.38
766.763	1154.71
766.946	1248.92
767.129	1273.5
767.312	1089.18
767.495	1154.71
767.678	1027.74
767.861	1144.47
768.044	1123.99
768.227	1058.46
768.41	1160.86
768.593	1115.8
768.776	1169.05
768.959	1146.52
769.142	1074.84
769.324	1146.52
769.507	1060.51
769.69	1070.75
769.873	1138.33
770.056	1134.23
770.239	1011.36
770.421	1078.94
770.604	1087.13
770.787	1015.45
770.97	1080.99
771.152	1007.26
771.335	1025.69
771.518	1005.21
771.7	999.07
771.883	970.4
772.066	986.78
772.248	960.16
772.431	931.48
772.613	1019.55
772.796	935.58
772.978	984.73
773.161	929.44
773.343	937.63
773.526	894.62
773.708	906.91
773.891	962.2
774.073	931.48
774.256	884.38
774.438	861.85
774.621	939.68
774.803	962.2
774.985	870.05
775.168	878.24
775.35	851.61
775.532	890.53
775.715	911
775.897	808.61
776.079	829.09
776.261	849.57
776.444	923.29
776.626	773.79
776.808	853.66
776.99	818.85
777.173	822.94
777.355	796.32
777.537	853.66
777.719	851.61
777.901	753.31
778.083	773.79
778.265	880.29
778.447	784.03
778.629	777.89
778.811	808.61
778.993	714.4
779.175	708.26
779.357	698.02
779.539	755.36
779.721	652.96
779.903	736.93
780.085	708.26
780.267	775.84
780.449	769.69
780.631	741.02
780.812	630.43
780.994	700.06
781.176	738.98
781.358	634.53
781.54	657.06
781.721	644.77
781.903	599.71
782.085	618.15
782.267	755.36
782.448	652.96
782.63	612
782.812	579.23
782.993	655.01
783.175	710.3
783.357	589.47
783.538	640.67
783.72	577.19
783.901	583.33
784.083	640.67
784.264	614.05
784.446	562.85
784.627	513.7
784.809	612
784.99	568.99
785.172	632.48
785.353	513.7
785.535	534.18
785.716	536.23
785.897	573.09
786.079	601.76
786.26	536.23
786.441	495.27
786.623	515.75
786.804	495.27
786.985	544.42
787.167	511.65
787.348	546.47
787.529	513.7
787.71	566.95
787.891	528.03
788.073	519.84
788.254	456.36
788.435	450.21
788.616	511.65
788.797	376.48
788.978	548.51
789.159	419.49
789.34	450.21
789.522	442.02
789.703	505.51
789.884	480.93
790.065	446.12
790.246	427.68
790.427	511.65
790.607	450.21
790.788	491.17
790.969	384.68
791.15	464.55
791.331	392.87
791.512	497.32
791.693	437.92
791.874	380.58
792.054	485.03
792.235	468.64
792.416	421.54
792.597	380.58
792.778	417.44
792.958	364.2
793.139	423.59
793.32	423.59
793.5	401.06
793.681	409.25
793.862	392.87
794.042	442.02
794.223	278.18
794.404	302.76
794.584	358.05
794.765	374.44
794.945	384.68
795.126	378.53
795.306	415.4
795.487	413.35
795.667	368.29
795.848	380.58
796.028	345.77
796.209	306.85
796.389	358.05
796.57	341.67
796.75	378.53
796.93	329.38
797.111	274.09
797.291	399.01
797.471	366.25
797.652	327.33
797.832	403.11
798.012	384.68
798.192	313
798.373	358.05
798.553	345.77
798.733	405.16
798.913	315.05
799.093	374.44
799.274	335.53
799.454	323.24
799.634	366.25
799.814	308.9
799.994	310.95
800.174	353.96
800.354	362.15
800.534	290.47
800.714	351.91
800.894	319.14
801.074	351.91
801.254	370.34
801.434	315.05
801.614	308.9
801.794	284.33
801.974	732.83
802.154	292.52
802.334	306.85
802.514	278.18
802.693	257.7
802.873	253.61
803.053	329.38
803.233	276.13
803.413	263.85
803.592	302.76
803.772	290.47
803.952	298.66
804.131	249.51
804.311	243.37
804.491	306.85
804.67	315.05
804.85	173.74
805.03	284.33
805.209	245.41
805.389	196.26
805.568	204.46
805.748	280.23
805.928	245.41
806.107	292.52
806.287	237.22
806.466	290.47
806.646	265.89
806.825	169.64
807.004	263.85
807.184	304.81
807.363	200.36
807.543	202.41
807.722	140.97
807.901	155.3
808.081	177.83
808.26	267.94
808.439	239.27
808.619	163.5
808.798	210.6
808.977	257.7
809.156	210.6
809.336	206.5
809.515	292.52
809.694	192.17
809.873	259.75
810.052	212.65
810.231	204.46
810.411	167.59
810.59	169.64
810.769	200.36
810.948	202.41
811.127	245.41
811.306	247.46
811.485	210.6
811.664	229.03
811.843	194.22
812.022	130.73
812.201	112.3
812.38	208.55
812.559	216.74
812.737	267.94
812.916	241.32
813.095	149.16
813.274	208.55
813.453	237.22
813.632	169.64
813.811	202.41
813.989	163.5
814.168	206.5
814.347	186.02
814.526	210.6
814.704	212.65
814.883	229.03
815.062	161.45
815.24	173.74
815.419	169.64
815.598	155.3
815.776	112.3
815.955	177.83
816.133	190.12
816.312	183.98
816.49	116.39
816.669	138.92
816.847	149.16
817.026	114.34
817.204	229.03
817.383	196.26
817.561	163.5
817.74	214.7
817.918	243.37
818.097	181.93
818.275	67.24
818.453	171.69
818.632	231.08
818.81	149.16
818.988	102.06
819.167	190.12
819.345	192.17
819.523	190.12
819.701	157.35
819.879	147.11
820.058	171.69
820.236	118.44
820.414	165.54
820.592	143.02
820.77	192.17
820.948	153.26
821.127	147.11
821.305	198.31
821.483	85.67
821.661	159.4
821.839	198.31
822.017	151.21
822.195	212.65
822.373	167.59
822.551	210.6
822.729	136.87
822.907	116.39
823.085	143.02
823.262	126.63
823.44	177.83
823.618	149.16
823.796	120.49
823.974	118.44
824.152	169.64
824.329	190.12
824.507	159.4
824.685	202.41
824.863	204.46
825.04	110.25
825.218	108.2
825.396	110.25
825.574	149.16
825.751	93.87
825.929	138.92
826.107	34.47
826.284	177.83
826.462	140.97
826.639	126.63
826.817	132.78
826.994	192.17
827.172	134.82
827.349	104.11
827.527	108.2
827.704	173.74
827.882	145.06
828.059	143.02
828.237	79.53
828.414	231.08
828.591	85.67
828.769	110.25
828.946	118.44
829.124	167.59
829.301	67.24
829.478	128.68
829.655	165.54
829.833	138.92
830.01	100.01
830.187	138.92
830.364	175.78
830.542	136.87
830.719	138.92
830.896	171.69
831.073	112.3
831.25	188.07
831.427	106.15
831.604	149.16
831.782	95.91
831.959	171.69
832.136	126.63
832.313	85.67
832.49	13.99
832.667	128.68
832.844	97.96
833.021	143.02
833.198	204.46
833.374	159.4
833.551	161.45
833.728	44.71
833.905	165.54
834.082	134.82
834.259	77.48
834.436	114.34
834.612	114.34
834.789	77.48
834.966	59.05
835.143	85.67
835.319	108.2
835.496	79.53
835.673	104.11
835.85	171.69
836.026	89.77
836.203	134.82
836.38	136.87
836.556	110.25
836.733	118.44
836.909	192.17
837.086	69.29
837.262	122.54
837.439	61.1
837.616	138.92
837.792	54.95
837.968	138.92
838.145	52.91
838.321	52.91
838.498	81.58
838.674	102.06
838.851	118.44
839.027	79.53
839.203	1.71
839.38	163.5
839.556	83.63
839.732	114.34
839.909	32.43
840.085	87.72
840.261	87.72
840.437	114.34
840.614	69.29
840.79	132.78
840.966	46.76
841.142	97.96
841.318	73.39
841.494	114.34
841.671	69.29
841.847	149.16
842.023	48.81
842.199	108.2
842.375	97.96
842.551	73.39
842.727	120.49
842.903	155.3
843.079	79.53
843.255	130.73
843.431	124.58
843.607	177.83
843.783	128.68
843.959	32.43
844.134	85.67
844.31	118.44
844.486	50.86
844.662	77.48
844.838	67.24
845.013	196.26
845.189	122.54
845.365	73.39
845.541	59.05
845.716	93.87
845.892	83.63
846.068	34.47
846.244	46.76
846.419	122.54
846.595	9.9
846.77	22.19
846.946	93.87
847.122	130.73
847.297	71.34
847.473	57
847.648	57
847.824	87.72
847.999	26.28
848.175	89.77
848.35	95.91
848.526	151.21
848.701	46.76
848.876	79.53
849.052	57
849.227	71.34
849.403	75.43
849.578	104.11
849.753	18.09
849.929	54.95
850.104	32.43
850.279	42.67
850.454	143.02
850.63	87.72
850.805	63.15
850.98	54.95
851.155	116.39
851.33	79.53
851.505	95.91
851.681	46.76
851.856	40.62
852.031	65.19
852.206	81.58
852.381	34.47
852.556	13.99
852.731	54.95
852.906	75.43
853.081	124.58
853.256	52.91
853.431	26.28
853.606	-10.58
853.781	22.19
853.956	-12.63
854.131	50.86
854.305	-4.44
854.48	77.48
854.655	85.67
854.83	38.57
855.005	95.91
855.18	97.96
855.354	34.47
855.529	69.29
855.704	108.2
855.879	42.67
856.053	16.04
856.228	126.63
856.403	65.19
856.577	1.71
856.752	-20.82
856.926	89.77
857.101	32.43
857.276	5.8
857.45	106.15
857.625	83.63
857.799	42.67
857.974	44.71
858.148	20.14
858.323	54.95
858.497	85.67
858.672	32.43
858.846	124.58
859.02	44.71
859.195	11.95
859.369	57
859.543	106.15
859.718	102.06
859.892	69.29
860.066	75.43
860.241	16.04
860.415	61.1
860.589	73.39
860.763	69.29
860.938	67.24
861.112	30.38
861.286	-31.06
861.46	124.58
861.634	5.8
861.808	93.87
861.982	-41.3
862.157	52.91
862.331	50.86
862.505	95.91
862.679	87.72
862.853	54.95
863.027	44.71
863.201	77.48
863.375	81.58
863.549	-10.58
863.722	75.43
863.896	-31.06
864.07	50.86
864.244	79.53
864.418	-6.49
864.592	40.62
864.766	48.81
864.939	79.53
865.113	46.76
865.287	112.3
865.461	50.86
865.634	7.85
865.808	9.9
865.982	48.81
866.156	71.34
866.329	24.23
866.503	89.77
866.676	54.95
866.85	75.43
867.024	57
867.197	11.95
867.371	71.34
867.544	-33.11
867.718	50.86
867.891	71.34
868.065	18.09
868.238	61.1
868.412	50.86
868.585	69.29
868.759	81.58
868.932	18.09
869.105	16.04
869.279	67.24
869.452	-18.77
869.625	67.24
869.799	40.62
869.972	54.95
870.145	3.75
870.319	73.39
870.492	38.57
870.665	22.19
870.838	-8.53
871.011	-39.25
871.185	79.53
871.358	85.67
871.531	22.19
871.704	87.72
871.877	-20.82
872.05	16.04
872.223	3.75
872.396	79.53
872.569	42.67
872.742	69.29
872.915	46.76
873.088	48.81
873.261	67.24
873.434	50.86
873.607	69.29
873.78	-8.53
873.953	7.85
874.126	-22.87
874.299	106.15
874.471	89.77
874.644	3.75
874.817	-4.44
874.99	57
875.163	16.04
875.335	32.43
875.508	52.91
875.681	73.39
875.853	9.9
876.026	102.06
876.199	52.91
876.371	38.57
876.544	28.33
876.717	30.38
876.889	-8.53
877.062	13.99
877.234	52.91
877.407	9.9
877.579	69.29
877.752	9.9
877.924	46.76
878.097	-18.77
878.269	-4.44
878.442	18.09
878.614	-0.34
878.786	44.71
878.959	48.81
879.131	108.2
879.303	95.91
879.476	-6.49
879.648	54.95
879.82	59.05
879.993	100.01
880.165	71.34
880.337	54.95
880.509	40.62
880.681	77.48
880.854	104.11
881.026	7.85
881.198	30.38
881.37	20.14
881.542	61.1
881.714	-14.68
881.886	-20.82
882.058	-29.01
882.23	20.14
882.402	89.77
882.574	48.81
882.746	-33.11
882.918	32.43
883.09	46.76
883.262	-24.92
883.434	22.19
883.606	30.38
883.778	28.33
883.95	38.57
884.122	24.23
884.293	73.39
884.465	95.91
884.637	108.2
884.809	-39.25
884.98	57
885.152	69.29
885.324	34.47
885.496	28.33
885.667	-2.39
885.839	7.85
886.011	44.71
886.182	-16.73
886.354	57
886.525	114.34
886.697	61.1
886.869	-0.34
887.04	20.14
887.212	106.15
887.383	44.71
887.555	40.62
887.726	-49.49
887.897	1.71
888.069	-6.49
888.24	20.14
888.412	-6.49
888.583	32.43
888.754	3.75
888.926	36.52
889.097	26.28
889.268	-29.01
889.44	36.52
889.611	-18.77
889.782	61.1
889.953	-0.34
890.125	30.38
890.296	30.38
890.467	16.04
890.638	-59.73
890.809	16.04
890.98	65.19
891.151	-24.92
891.323	22.19
891.494	-2.39
891.665	100.01
891.836	79.53
892.007	50.86
892.178	18.09
892.349	73.39
892.52	65.19
892.691	52.91
892.862	18.09
893.032	20.14
893.203	-41.3
893.374	34.47
893.545	13.99
893.716	20.14
893.887	24.23
894.057	-26.96
894.228	13.99
894.399	28.33
894.57	54.95
894.74	89.77
894.911	75.43
895.082	71.34
895.253	36.52
895.423	-22.87
895.594	1.71
895.764	75.43
895.935	-4.44
896.106	-4.44
896.276	32.43
896.447	50.86
896.617	48.81
896.788	57
896.958	83.63
897.129	-39.25
897.299	34.47
897.47	34.47
897.64	81.58
897.81	57
897.981	22.19
898.151	-2.39
898.322	-49.49
898.492	16.04
898.662	34.47
898.832	36.52
899.003	22.19
899.173	-8.53
899.343	79.53
899.513	32.43
