Data from USB4F104151__6__11-51-06-017.txt Node

Date: Fri Mar 14 11:51:06 EDT 2025
User: louis
Spectrometer: USB4F10415
Trigger mode: 4
Integration Time (sec): 2.000000E-2
Scans to average: 1
Electric dark correction enabled: true
Nonlinearity correction enabled: false
Boxcar width: 0
XAxis mode: Wavelengths
Number of Pixels in Spectrum: 3648
>>>>>Begin Spectral Data<<<<<
178.204	-101.89
178.424	-101.89
178.644	-101.89
178.864	-24.06
179.084	-81.41
179.304	-7.68
179.524	37.38
179.744	-30.21
179.964	33.28
180.184	37.38
180.404	-19.97
180.624	20.99
180.844	-32.26
181.064	14.85
181.283	37.38
181.503	-50.69
181.723	-40.45
181.943	-26.11
182.163	27.14
182.383	2.56
182.602	-32.26
182.822	-34.3
183.042	-52.74
183.262	-26.11
183.482	43.52
183.701	-11.78
183.921	-13.82
184.141	-15.87
184.361	25.09
184.58	33.28
184.8	-34.3
185.02	-97.79
185.239	12.8
185.459	-38.4
185.679	18.94
185.898	-5.63
186.118	-38.4
186.338	8.7
186.557	39.42
186.777	-26.11
186.997	4.61
187.216	-22.02
187.436	-17.92
187.655	-9.73
187.875	33.28
188.095	2.56
188.314	25.09
188.534	51.71
188.753	27.14
188.973	-11.78
189.192	-22.02
189.412	16.9
189.631	-7.68
189.851	-62.98
190.07	39.42
190.29	-28.16
190.509	68.09
190.729	0.51
190.948	-30.21
191.168	88.57
191.387	72.19
191.607	16.9
191.826	23.04
192.045	8.7
192.265	-22.02
192.484	39.42
192.704	47.62
192.923	-19.97
193.142	84.48
193.362	-30.21
193.581	31.23
193.8	10.75
194.02	64
194.239	20.99
194.458	35.33
194.678	12.8
194.897	-9.73
195.116	-7.68
195.335	-24.06
195.555	-30.21
195.774	14.85
195.993	-15.87
196.212	-7.68
196.432	-75.26
196.651	29.18
196.87	59.9
197.089	45.57
197.308	10.75
197.528	88.57
197.747	59.9
197.966	-7.68
198.185	113.15
198.404	41.47
198.623	8.7
198.842	12.8
199.062	23.04
199.281	-24.06
199.5	12.8
199.719	45.57
199.938	-28.16
200.157	-1.54
200.376	68.09
200.595	-112.13
200.814	-5.63
201.033	6.66
201.252	-5.63
201.471	-46.59
201.69	-36.35
201.909	-3.58
202.128	-5.63
202.347	-50.69
202.566	-58.88
202.785	27.14
203.004	10.75
203.223	100.86
203.442	23.04
203.661	-58.88
203.879	59.9
204.098	-67.07
204.317	-73.21
204.536	2.56
204.755	-26.11
204.974	-7.68
205.193	2.56
205.411	80.38
205.63	43.52
205.849	-69.12
206.068	23.04
206.287	-52.74
206.505	-50.69
206.724	-42.5
206.943	-65.02
207.162	-1.54
207.381	10.75
207.599	-5.63
207.818	-30.21
208.037	-54.78
208.255	55.81
208.474	-17.92
208.693	-38.4
208.911	82.43
209.13	12.8
209.349	-5.63
209.567	64
209.786	-22.02
210.005	45.57
210.223	4.61
210.442	-9.73
210.661	-34.3
210.879	-56.83
211.098	82.43
211.316	23.04
211.535	-46.59
211.753	-26.11
211.972	78.33
212.191	-69.12
212.409	8.7
212.628	0.51
212.846	55.81
213.065	-44.54
213.283	27.14
213.502	-38.4
213.72	-42.5
213.938	4.61
214.157	53.76
214.375	10.75
214.594	66.05
214.812	-26.11
215.031	4.61
215.249	10.75
215.467	-26.11
215.686	-79.36
215.904	-65.02
216.122	29.18
216.341	72.19
216.559	20.99
216.778	-28.16
216.996	51.71
217.214	-77.31
217.432	-81.41
217.651	-26.11
217.869	-30.21
218.087	-24.06
218.306	-3.58
218.524	82.43
218.742	-30.21
218.96	12.8
219.179	0.51
219.397	-62.98
219.615	12.8
219.833	37.38
220.051	49.66
220.27	29.18
220.488	-38.4
220.706	29.18
220.924	31.23
221.142	-46.59
221.36	23.04
221.578	-15.87
221.796	-58.88
222.015	-32.26
222.233	-15.87
222.451	25.09
222.669	20.99
222.887	33.28
223.105	-81.41
223.323	-32.26
223.541	-71.17
223.759	12.8
223.977	-3.58
224.195	76.29
224.413	27.14
224.631	-42.5
224.849	2.56
225.067	31.23
225.285	25.09
225.503	14.85
225.721	10.75
225.939	8.7
226.157	4.61
226.375	45.57
226.592	14.85
226.81	8.7
227.028	-50.69
227.246	4.61
227.464	-40.45
227.682	51.71
227.9	-9.73
228.117	-19.97
228.335	-60.93
228.553	-3.58
228.771	-24.06
228.989	78.33
229.206	0.51
229.424	76.29
229.642	-67.07
229.86	-34.3
230.077	-38.4
230.295	-13.82
230.513	-40.45
230.731	-48.64
230.948	33.28
231.166	12.8
231.384	-28.16
231.601	-5.63
231.819	10.75
232.037	23.04
232.254	-40.45
232.472	-1.54
232.689	-56.83
232.907	2.56
233.125	0.51
233.342	37.38
233.56	-7.68
233.777	-60.93
233.995	47.62
234.213	23.04
234.43	2.56
234.648	45.57
234.865	2.56
235.083	100.86
235.3	27.14
235.518	57.86
235.735	2.56
235.953	31.23
236.17	8.7
236.388	-36.35
236.605	-24.06
236.822	18.94
237.04	76.29
237.257	-1.54
237.475	-3.58
237.692	-38.4
237.909	29.18
238.127	-11.78
238.344	-67.07
238.562	29.18
238.779	10.75
238.996	8.7
239.214	-22.02
239.431	4.61
239.648	-9.73
239.865	74.24
240.083	-38.4
240.3	-46.59
240.517	29.18
240.735	25.09
240.952	-54.78
241.169	-30.21
241.386	-15.87
241.603	2.56
241.821	35.33
242.038	39.42
242.255	-9.73
242.472	-60.93
242.689	41.47
242.907	-54.78
243.124	-3.58
243.341	35.33
243.558	-26.11
243.775	23.04
243.992	18.94
244.209	70.14
244.426	23.04
244.643	-50.69
244.86	-3.58
245.078	10.75
245.295	59.9
245.512	59.9
245.729	31.23
245.946	-13.82
246.163	51.71
246.38	76.29
246.597	-26.11
246.814	16.9
247.031	-44.54
247.248	61.95
247.464	27.14
247.681	-1.54
247.898	-1.54
248.115	-13.82
248.332	-40.45
248.549	-11.78
248.766	23.04
248.983	18.94
249.2	-1.54
249.417	-26.11
249.633	-1.54
249.85	-9.73
250.067	12.8
250.284	45.57
250.501	-3.58
250.717	53.76
250.934	10.75
251.151	-13.82
251.368	-28.16
251.585	2.56
251.801	18.94
252.018	-30.21
252.235	47.62
252.451	-48.64
252.668	-87.55
252.885	12.8
253.102	-99.84
253.318	-40.45
253.535	-19.97
253.752	-36.35
253.968	51.71
254.185	12.8
254.401	10.75
254.618	-9.73
254.835	18.94
255.051	39.42
255.268	49.66
255.484	-73.21
255.701	-9.73
255.917	4.61
256.134	-19.97
256.351	-28.16
256.567	-48.64
256.784	-3.58
257	64
257.217	41.47
257.433	-17.92
257.65	78.33
257.866	47.62
258.082	-99.84
258.299	84.48
258.515	-17.92
258.732	12.8
258.948	16.9
259.165	43.52
259.381	8.7
259.597	4.61
259.814	39.42
260.03	-40.45
260.246	16.9
260.463	-9.73
260.679	31.23
260.895	16.9
261.112	-17.92
261.328	-34.3
261.544	47.62
261.761	37.38
261.977	-15.87
262.193	-11.78
262.409	-30.21
262.626	55.81
262.842	8.7
263.058	-17.92
263.274	53.76
263.49	2.56
263.707	10.75
263.923	-17.92
264.139	-11.78
264.355	33.28
264.571	-28.16
264.787	-11.78
265.004	16.9
265.22	49.66
265.436	-30.21
265.652	57.86
265.868	8.7
266.084	66.05
266.3	23.04
266.516	-42.5
266.732	59.9
266.948	-17.92
267.164	12.8
267.38	20.99
267.596	107.01
267.812	-1.54
268.028	-38.4
268.244	-52.74
268.46	14.85
268.676	35.33
268.892	18.94
269.108	-15.87
269.324	20.99
269.54	-9.73
269.756	18.94
269.972	-46.59
270.188	12.8
270.403	-36.35
270.619	-38.4
270.835	0.51
271.051	-19.97
271.267	-1.54
271.483	-3.58
271.698	-36.35
271.914	-7.68
272.13	-11.78
272.346	2.56
272.562	43.52
272.777	45.57
272.993	-40.45
273.209	45.57
273.425	-13.82
273.64	23.04
273.856	61.95
274.072	2.56
274.287	14.85
274.503	-11.78
274.719	10.75
274.934	-56.83
275.15	-1.54
275.366	14.85
275.581	0.51
275.797	41.47
276.012	-34.3
276.228	-34.3
276.444	-32.26
276.659	29.18
276.875	-42.5
277.09	-26.11
277.306	31.23
277.521	43.52
277.737	-36.35
277.952	61.95
278.168	12.8
278.383	78.33
278.599	23.04
278.814	20.99
279.03	-58.88
279.245	61.95
279.461	-17.92
279.676	39.42
279.892	-17.92
280.107	4.61
280.322	-7.68
280.538	39.42
280.753	-11.78
280.969	10.75
281.184	-1.54
281.399	20.99
281.615	-17.92
281.83	-5.63
282.045	-34.3
282.26	-34.3
282.476	6.66
282.691	76.29
282.906	68.09
283.122	-5.63
283.337	80.38
283.552	-34.3
283.767	2.56
283.983	-28.16
284.198	-32.26
284.413	-42.5
284.628	-22.02
284.843	-38.4
285.058	18.94
285.274	45.57
285.489	-81.41
285.704	33.28
285.919	-28.16
286.134	27.14
286.349	-77.31
286.564	-24.06
286.779	-11.78
286.995	8.7
287.21	16.9
287.425	-60.93
287.64	-42.5
287.855	-36.35
288.07	-30.21
288.285	31.23
288.5	53.76
288.715	8.7
288.93	-17.92
289.145	12.8
289.36	41.47
289.575	14.85
289.79	-13.82
290.004	37.38
290.219	68.09
290.434	43.52
290.649	12.8
290.864	-3.58
291.079	2.56
291.294	-30.21
291.509	-38.4
291.724	18.94
291.938	-99.84
292.153	-56.83
292.368	-30.21
292.583	6.66
292.798	37.38
293.012	-34.3
293.227	29.18
293.442	6.66
293.657	14.85
293.871	-85.5
294.086	-28.16
294.301	10.75
294.516	57.86
294.73	-34.3
294.945	35.33
295.16	-71.17
295.374	55.81
295.589	23.04
295.804	-126.46
296.018	20.99
296.233	39.42
296.447	57.86
296.662	0.51
296.877	39.42
297.091	20.99
297.306	2.56
297.52	35.33
297.735	-42.5
297.949	41.47
298.164	-30.21
298.378	16.9
298.593	-11.78
298.807	14.85
299.022	-56.83
299.236	39.42
299.451	80.38
299.665	10.75
299.88	-60.93
300.094	-11.78
300.309	20.99
300.523	-13.82
300.737	-30.21
300.952	-1.54
301.166	47.62
301.381	-30.21
301.595	-3.58
301.809	-62.98
302.024	37.38
302.238	-19.97
302.452	-19.97
302.667	-3.58
302.881	33.28
303.095	45.57
303.309	51.71
303.524	29.18
303.738	-28.16
303.952	18.94
304.166	-7.68
304.381	18.94
304.595	14.85
304.809	16.9
305.023	-3.58
305.237	-9.73
305.452	18.94
305.666	-1.54
305.88	27.14
306.094	72.19
306.308	43.52
306.522	25.09
306.736	35.33
306.95	57.86
307.164	51.71
307.379	6.66
307.593	53.76
307.807	90.62
308.021	-22.02
308.235	6.66
308.449	12.8
308.663	61.95
308.877	35.33
309.091	-79.36
309.305	20.99
309.519	-112.13
309.733	74.24
309.947	2.56
310.161	55.81
310.374	-24.06
310.588	31.23
310.802	-40.45
311.016	-5.63
311.23	-7.68
311.444	25.09
311.658	33.28
311.872	45.57
312.085	49.66
312.299	20.99
312.513	100.86
312.727	59.9
312.941	-67.07
313.154	29.18
313.368	-17.92
313.582	-17.92
313.796	27.14
314.009	16.9
314.223	-46.59
314.437	61.95
314.651	-69.12
314.864	-69.12
315.078	4.61
315.292	-69.12
315.505	2.56
315.719	-11.78
315.933	64
316.146	-3.58
316.36	-83.45
316.573	96.77
316.787	-15.87
317.001	6.66
317.214	35.33
317.428	29.18
317.641	-13.82
317.855	-24.06
318.068	-9.73
318.282	107.01
318.495	31.23
318.709	23.04
318.922	-69.12
319.136	27.14
319.349	0.51
319.563	27.14
319.776	-11.78
319.99	23.04
320.203	55.81
320.417	16.9
320.63	0.51
320.843	-52.74
321.057	31.23
321.27	29.18
321.483	-1.54
321.697	55.81
321.91	-38.4
322.124	-17.92
322.337	35.33
322.55	-136.7
322.763	-60.93
322.977	41.47
323.19	-13.82
323.403	-1.54
323.617	4.61
323.83	12.8
324.043	-40.45
324.256	-11.78
324.469	10.75
324.683	-38.4
324.896	-17.92
325.109	-44.54
325.322	-1.54
325.535	45.57
325.748	29.18
325.962	37.38
326.175	47.62
326.388	29.18
326.601	10.75
326.814	45.57
327.027	-19.97
327.24	45.57
327.453	25.09
327.666	-67.07
327.879	-19.97
328.092	12.8
328.305	35.33
328.518	-44.54
328.731	-83.45
328.944	68.09
329.157	-28.16
329.37	14.85
329.583	-52.74
329.796	35.33
330.009	-5.63
330.222	37.38
330.435	27.14
330.648	39.42
330.861	37.38
331.073	41.47
331.286	10.75
331.499	-28.16
331.712	-60.93
331.925	-17.92
332.138	25.09
332.35	41.47
332.563	55.81
332.776	61.95
332.989	-65.02
333.202	-11.78
333.414	80.38
333.627	-11.78
333.84	-7.68
334.053	23.04
334.265	-56.83
334.478	-7.68
334.691	20.99
334.903	31.23
335.116	43.52
335.329	-11.78
335.541	2.56
335.754	35.33
335.966	-7.68
336.179	12.8
336.392	74.24
336.604	-28.16
336.817	-26.11
337.029	-52.74
337.242	41.47
337.454	16.9
337.667	-101.89
337.88	55.81
338.092	2.56
338.305	55.81
338.517	-52.74
338.729	29.18
338.942	-58.88
339.154	47.62
339.367	-30.21
339.579	-1.54
339.792	-36.35
340.004	31.23
340.217	-3.58
340.429	25.09
340.641	-54.78
340.854	-58.88
341.066	-5.63
341.278	-9.73
341.491	61.95
341.703	-32.26
341.915	57.86
342.128	27.14
342.34	-46.59
342.552	-34.3
342.764	2.56
342.977	12.8
343.189	-62.98
343.401	43.52
343.613	-13.82
343.826	76.29
344.038	-1.54
344.25	-13.82
344.462	90.62
344.674	57.86
344.886	16.9
345.099	20.99
345.311	-24.06
345.523	33.28
345.735	51.71
345.947	70.14
346.159	-1.54
346.371	-40.45
346.583	-50.69
346.795	49.66
347.007	-52.74
347.219	0.51
347.431	2.56
347.643	39.42
347.855	43.52
348.067	-28.16
348.279	-36.35
348.491	37.38
348.703	80.38
348.915	18.94
349.127	47.62
349.339	14.85
349.551	-1.54
349.763	74.24
349.975	-71.17
350.187	43.52
350.399	31.23
350.61	74.24
350.822	-40.45
351.034	68.09
351.246	49.66
351.458	-17.92
351.669	31.23
351.881	66.05
352.093	25.09
352.305	20.99
352.517	-28.16
352.728	61.95
352.94	43.52
353.152	-3.58
353.363	2.56
353.575	-9.73
353.787	-28.16
353.999	12.8
354.21	74.24
354.422	37.38
354.633	18.94
354.845	-58.88
355.057	16.9
355.268	-5.63
355.48	41.47
355.692	-13.82
355.903	-79.36
356.115	68.09
356.326	-42.5
356.538	64
356.749	10.75
356.961	-13.82
357.172	-22.02
357.384	10.75
357.595	55.81
357.807	57.86
358.018	68.09
358.23	29.18
358.441	72.19
358.653	-1.54
358.864	-3.58
359.075	51.71
359.287	90.62
359.498	18.94
359.709	96.77
359.921	14.85
360.132	-38.4
360.344	80.38
360.555	-34.3
360.766	20.99
360.977	-30.21
361.189	-30.21
361.4	16.9
361.611	33.28
361.823	-11.78
362.034	66.05
362.245	0.51
362.456	76.29
362.667	6.66
362.879	33.28
363.09	57.86
363.301	-36.35
363.512	80.38
363.723	25.09
363.935	-42.5
364.146	20.99
364.357	-46.59
364.568	29.18
364.779	-42.5
364.99	16.9
365.201	-67.07
365.412	45.57
365.623	-36.35
365.834	-11.78
366.045	35.33
366.256	-40.45
366.467	0.51
366.678	-69.12
366.889	57.86
367.1	-28.16
367.311	14.85
367.522	16.9
367.733	43.52
367.944	-24.06
368.155	0.51
368.366	68.09
368.577	59.9
368.788	14.85
368.999	37.38
369.209	-36.35
369.42	64
369.631	53.76
369.842	-28.16
370.053	-28.16
370.264	-46.59
370.474	74.24
370.685	12.8
370.896	-15.87
371.107	27.14
371.317	35.33
371.528	41.47
371.739	-11.78
371.95	94.72
372.16	59.9
372.371	4.61
372.582	10.75
372.792	20.99
373.003	31.23
373.214	39.42
373.424	68.09
373.635	-54.78
373.846	49.66
374.056	27.14
374.267	64
374.477	-30.21
374.688	23.04
374.898	6.66
375.109	51.71
375.319	47.62
375.53	10.75
375.74	-22.02
375.951	45.57
376.161	31.23
376.372	31.23
376.582	27.14
376.793	-7.68
377.003	16.9
377.214	41.47
377.424	100.86
377.635	14.85
377.845	-34.3
378.055	2.56
378.266	12.8
378.476	25.09
378.686	8.7
378.897	4.61
379.107	-9.73
379.317	59.9
379.528	-58.88
379.738	37.38
379.948	-15.87
380.158	-7.68
380.369	109.05
380.579	12.8
380.789	-9.73
380.999	0.51
381.21	49.66
381.42	14.85
381.63	-9.73
381.84	-1.54
382.05	68.09
382.261	33.28
382.471	27.14
382.681	2.56
382.891	102.91
383.101	-1.54
383.311	-9.73
383.521	-26.11
383.731	61.95
383.941	-22.02
384.151	-5.63
384.361	10.75
384.571	41.47
384.781	43.52
384.991	33.28
385.201	31.23
385.411	-11.78
385.621	39.42
385.831	6.66
386.041	31.23
386.251	33.28
386.461	12.8
386.671	25.09
386.881	27.14
387.091	53.76
387.301	35.33
387.511	76.29
387.72	25.09
387.93	4.61
388.14	-9.73
388.35	-7.68
388.56	25.09
388.769	94.72
388.979	-19.97
389.189	35.33
389.399	68.09
389.609	29.18
389.818	53.76
390.028	-22.02
390.238	78.33
390.447	-28.16
390.657	-56.83
390.867	43.52
391.076	74.24
391.286	-17.92
391.496	39.42
391.705	-17.92
391.915	37.38
392.125	35.33
392.334	33.28
392.544	6.66
392.753	111.1
392.963	25.09
393.172	43.52
393.382	20.99
393.591	31.23
393.801	72.19
394.01	82.43
394.22	43.52
394.429	76.29
394.639	10.75
394.848	84.48
395.058	51.71
395.267	72.19
395.477	12.8
395.686	14.85
395.895	14.85
396.105	119.29
396.314	66.05
396.524	86.53
396.733	16.9
396.942	74.24
397.152	57.86
397.361	55.81
397.57	49.66
397.78	66.05
397.989	4.61
398.198	94.72
398.407	43.52
398.617	45.57
398.826	45.57
399.035	37.38
399.244	29.18
399.453	125.44
399.663	68.09
399.872	111.1
400.081	57.86
400.29	55.81
400.499	-3.58
400.708	135.68
400.917	61.95
401.127	72.19
401.336	68.09
401.545	84.48
401.754	74.24
401.963	115.2
402.172	37.38
402.381	102.91
402.59	104.96
402.799	125.44
403.008	147.97
403.217	57.86
403.426	154.11
403.635	88.57
403.844	94.72
404.053	121.34
404.262	80.38
404.471	154.11
404.68	162.3
404.888	82.43
405.097	43.52
405.306	147.97
405.515	90.62
405.724	158.21
405.933	113.15
406.142	98.81
406.35	137.73
406.559	88.57
406.768	98.81
406.977	225.79
407.185	117.25
407.394	150.01
407.603	145.92
407.812	190.97
408.02	213.5
408.229	281.08
408.438	150.01
408.646	158.21
408.855	162.3
409.064	150.01
409.272	145.92
409.481	244.22
409.69	207.36
409.898	258.56
410.107	287.23
410.315	324.09
410.524	281.08
410.733	330.23
410.941	254.46
411.15	295.42
411.358	295.42
411.567	391.67
411.775	371.19
411.984	272.89
412.192	309.76
412.401	309.76
412.609	369.15
412.818	393.72
413.026	375.29
413.234	418.3
413.443	397.82
413.651	492.02
413.86	463.35
414.068	438.78
414.276	545.27
414.485	522.74
414.693	584.18
414.901	608.76
415.11	573.94
415.318	631.29
415.526	614.9
415.734	633.33
415.943	633.33
416.151	762.36
416.359	672.25
416.567	686.58
416.776	784.88
416.984	852.47
417.192	918
417.4	795.12
417.608	848.37
417.817	870.9
418.025	868.85
418.233	1036.78
418.441	952.82
418.649	1012.21
418.857	1163.76
419.065	1126.89
419.273	1061.36
419.481	1112.56
419.689	1225.2
419.897	1278.44
420.105	1325.55
420.313	1276.4
420.521	1473
420.729	1378.79
420.937	1487.34
421.145	1546.73
421.353	1489.39
421.561	1720.81
421.769	1642.98
421.977	1772
422.185	1765.86
422.393	1829.35
422.601	1929.7
422.809	2021.86
423.017	2040.29
423.224	2034.14
423.432	2163.17
423.64	2197.98
423.848	2343.39
424.056	2394.59
424.263	2501.08
424.471	2591.19
424.679	2556.38
424.887	2660.82
425.094	2810.33
425.302	2630.1
425.51	2810.33
425.718	2914.77
425.925	2882
426.133	3000.79
426.341	3283.41
426.548	3396.04
426.756	3443.15
426.964	3289.55
427.171	3533.26
427.379	3813.83
427.586	3852.74
427.794	4000.19
428.001	4112.83
428.209	4192.7
428.417	4276.67
428.624	4530.62
428.832	4612.54
429.039	4469.18
429.247	4549.05
429.454	5003.7
429.662	5310.89
429.869	4833.72
430.076	5319.09
430.284	4954.55
430.491	5345.71
430.699	5710.25
430.906	5650.86
431.114	5759.4
431.321	5921.19
431.528	5874.09
431.736	6394.27
431.943	6707.61
432.15	6498.72
432.358	6574.49
432.565	7063.96
432.772	6883.73
432.979	7221.65
433.187	7410.06
433.394	7444.88
433.601	8001.93
433.808	8040.84
434.016	7864.71
434.223	8325.5
434.43	8655.23
434.637	8737.15
434.844	8933.75
435.052	9306.48
435.259	9292.15
435.466	9390.45
435.673	9169.27
435.88	9898.34
436.087	10348.9
436.294	10279.27
436.501	10240.36
436.708	10211.68
436.915	10742.11
437.122	11161.94
437.329	10924.38
437.537	11432.27
437.743	11700.56
437.95	11512.14
438.157	12063.05
438.364	12624.19
438.571	12630.34
438.778	12597.57
438.985	13613.36
439.192	13265.21
439.399	13576.5
439.606	13568.3
439.813	14299.43
440.02	14997.79
440.227	14739.74
440.433	14534.95
440.64	14993.69
440.847	15001.88
441.054	15042.84
441.261	16292.1
441.467	15782.16
441.674	16408.84
441.881	17035.52
442.088	16949.5
442.294	17017.08
442.501	17447.16
442.708	17846.51
442.914	18317.54
443.121	18981.09
443.328	19095.77
443.534	19857.62
443.741	19480.79
443.948	19335.38
444.154	20633.8
444.361	20523.21
444.568	20785.35
444.774	20728
444.981	21039.29
445.187	21385.4
445.394	22626.47
445.6	22225.07
445.807	24195.21
446.013	22892.71
446.22	23664.79
446.426	24297.61
446.633	24856.71
446.839	25497.72
447.046	24649.86
447.252	25817.21
447.459	25698.42
447.665	25444.48
447.871	26990.69
448.078	28153.94
448.284	26910.82
448.491	27480.16
448.697	28663.88
448.903	29151.3
449.11	29145.16
449.316	28469.33
449.522	29542.46
449.728	30017.59
449.935	30103.6
450.141	29974.58
450.347	30777.39
450.553	29911.1
450.76	30091.32
450.966	31516.7
451.172	30535.73
451.378	31631.39
451.584	31072.29
451.791	31858.71
451.997	31555.61
452.203	32200.72
452.409	32227.35
452.615	32006.17
452.821	30859.31
453.027	30552.11
453.233	32124.95
453.44	31139.88
453.646	31221.8
453.852	31633.44
454.058	32352.27
454.264	30724.14
454.47	31655.96
454.676	30998.57
454.882	32096.28
455.088	29147.2
455.294	29667.39
455.5	30076.98
455.705	30466.1
455.911	29210.69
456.117	28883.02
456.323	28076.12
456.529	26808.42
456.735	28065.88
456.941	26992.74
457.147	26736.74
457.352	25843.83
457.558	25485.44
457.764	25852.02
457.97	25135.23
458.176	24500.36
458.381	24613
458.587	23316.64
458.793	23478.43
458.999	22225.07
459.204	23640.22
459.41	23421.08
459.616	21668.02
459.821	21416.12
460.027	21571.77
460.233	21045.44
460.438	19874
460.644	20345.03
460.85	19226.84
461.055	19091.68
461.261	18804.96
461.466	17690.87
461.672	17213.69
461.878	18233.58
462.083	17025.28
462.289	16709.89
462.494	16554.24
462.7	15862.03
462.905	15470.87
463.111	16064.78
463.316	16105.74
463.522	15616.27
463.727	15921.42
463.932	15722.77
464.138	15362.33
464.343	15612.18
464.549	15124.76
464.754	15468.82
464.959	15358.23
465.165	15577.36
465.37	14690.59
465.575	14170.41
465.781	14872.86
465.986	14991.64
466.191	14266.66
466.397	14248.23
466.602	13607.22
466.807	13893.93
467.012	14078.25
467.218	13988.14
467.423	13842.73
467.628	13670.7
467.833	14489.89
468.038	13787.44
468.244	13515.06
468.449	13967.66
468.654	13383.99
468.859	13445.43
469.064	13191.48
469.269	12878.14
469.474	12958.01
469.679	13263.16
469.885	12630.34
470.09	12908.86
470.295	12816.7
470.5	12579.14
470.705	12724.54
470.91	12374.34
471.115	12269.89
471.32	12413.25
471.525	12380.48
471.73	11845.96
471.935	12230.98
472.139	11497.81
472.344	11749.71
472.549	11708.75
472.754	11503.95
472.959	11458.9
473.164	10914.14
473.369	10869.08
473.574	11395.41
473.778	11288.92
473.983	11012.44
474.188	11069.78
474.393	10531.17
474.598	10482.02
474.802	10314.08
475.007	10451.3
475.212	10287.46
475.417	10156.39
475.621	10295.65
475.826	10140.01
476.031	9918.82
476.235	9582.96
476.44	9826.67
476.645	9634.16
476.849	9646.44
477.054	9679.21
477.259	9412.98
477.463	9320.82
477.668	9142.64
477.872	9365.87
478.077	9144.69
478.282	8823.16
478.486	8923.51
478.691	8728.95
478.895	8751.48
479.1	8753.53
479.304	8704.38
479.509	8673.66
479.713	8696.19
479.918	8126.85
480.122	8434.05
480.326	8579.45
480.531	8298.88
480.735	8298.88
480.94	8305.03
481.144	8395.14
481.348	8161.67
481.553	8176
481.757	8083.84
481.961	8214.91
482.166	8296.83
482.37	8137.09
482.574	7889.29
482.778	7874.95
482.983	8257.92
483.187	8065.41
483.391	8196.48
483.595	7911.82
483.8	7954.82
484.004	8073.6
484.208	8087.94
484.412	8118.66
484.616	8163.72
484.821	8204.67
485.025	8024.45
485.229	8036.74
485.433	8089.99
485.637	7987.59
485.841	7981.45
486.045	7786.89
486.249	7993.73
486.453	7903.62
486.657	8055.17
486.861	8126.85
487.065	7854.47
487.269	8079.75
487.473	7827.85
487.677	8073.6
487.881	8006.02
488.085	8120.71
488.289	8044.93
488.493	7977.35
488.697	8145.28
488.901	8141.19
489.105	8067.46
489.309	8368.51
489.512	8165.76
489.716	8180.1
489.92	8227.2
490.124	7930.25
490.328	8241.54
490.531	8161.67
490.735	8186.24
490.939	8186.24
491.143	8245.63
491.346	8098.18
491.55	8386.94
491.754	8563.07
491.958	8456.57
492.161	8495.49
492.365	8350.08
492.569	8331.65
492.772	8444.29
492.976	8634.75
493.18	8483.2
493.383	8677.76
493.587	8761.72
493.79	8743.29
493.994	8601.98
494.197	8855.93
494.401	8810.87
494.605	9044.34
494.808	8937.85
495.012	8970.62
495.215	8927.61
495.419	9193.84
495.622	9126.26
495.825	9345.39
496.029	9214.32
496.232	9259.38
496.436	9388.4
496.639	9705.84
496.843	9662.83
497.046	9804.14
497.249	9967.98
497.453	10121.57
497.656	9947.5
497.859	9892.2
498.063	10289.51
498.266	10412.39
498.469	10324.32
498.673	10586.46
498.876	10576.22
499.079	10649.95
499.282	10729.82
499.485	10957.14
499.689	10973.53
499.892	11264.34
500.095	11352.4
500.298	11469.14
500.501	11368.79
500.705	11823.44
500.908	11866.44
501.111	11905.35
501.314	12036.42
501.517	12116.3
501.72	12302.66
501.923	12167.49
502.126	12433.73
502.329	12800.32
502.532	12937.53
502.735	12822.84
502.938	13197.62
503.141	13205.81
503.344	13297.97
503.547	13355.32
503.75	13658.42
503.953	13867.31
504.156	13975.85
504.359	14016.81
504.562	14174.5
504.765	14500.13
504.968	14496.03
505.17	14573.86
505.373	14670.11
505.576	15008.03
505.779	15149.34
505.982	15388.95
506.185	15483.16
506.387	15411.48
506.59	15673.62
506.793	15925.52
506.996	15929.61
507.198	16359.69
507.401	16050.44
507.604	16292.1
507.807	16916.73
508.009	16785.66
508.212	16900.35
508.415	17340.66
508.617	17406.2
508.82	17713.39
509.022	17445.11
509.225	18034.92
509.428	18114.8
509.63	18098.41
509.833	18383.08
510.035	18682.08
510.238	18413.8
510.44	18962.65
510.643	19210.46
510.845	19060.96
511.048	19298.52
511.25	19493.08
511.453	19667.16
511.655	20345.03
511.858	20015.31
512.06	20361.42
512.262	20713.67
512.465	20637.89
512.667	20861.12
512.87	21053.63
513.072	21156.03
513.274	21489.85
513.477	21534.9
513.679	22014.13
513.881	22282.41
514.084	22169.77
514.286	22302.89
514.488	22579.37
514.69	22925.47
514.893	23054.5
515.095	23064.74
515.297	23656.6
515.499	23580.82
515.701	23890.07
515.904	23918.74
516.106	24058
516.308	24461.45
516.51	24584.33
516.712	24635.53
516.914	24918.15
517.116	25376.89
517.318	25387.13
517.52	25479.29
517.722	25614.46
517.925	26005.62
518.127	26599.53
518.329	26501.23
518.531	26417.26
518.733	26986.6
518.935	27050.08
519.136	27095.14
519.338	27844.7
519.54	27693.15
519.742	27955.29
519.944	28033.11
520.146	28358.74
520.348	28678.22
520.55	29091.91
520.752	28731.47
520.954	29298.75
521.155	29290.56
521.357	29655.1
521.559	29898.81
521.761	30308.4
521.963	30216.24
522.164	30400.56
522.366	30894.12
522.568	30658.6
522.77	30898.22
522.971	31209.51
523.173	30951.46
523.375	31866.91
523.576	31488.03
523.778	31627.29
523.98	32260.12
524.181	32145.43
524.383	32157.72
524.584	32677.9
524.786	32567.31
524.988	32538.64
525.189	33308.68
525.391	33153.03
525.592	33355.78
525.794	33462.27
525.995	33552.38
526.197	33484.8
526.398	33507.33
526.6	34021.37
526.801	34375.67
527.003	34250.74
527.204	34254.84
527.406	34625.52
527.607	34631.66
527.808	35104.74
528.01	34750.45
528.211	34598.9
528.412	35399.65
528.614	35067.88
528.815	35448.8
529.016	35502.05
529.218	35174.38
529.419	35665.89
529.62	35377.12
529.822	35446.76
530.023	35635.17
530.224	35915.74
530.425	35745.76
530.626	35790.81
530.828	35551.2
531.029	36360.15
531.23	35612.64
531.431	36005.85
531.632	36011.99
531.833	36566.99
532.035	36294.61
532.236	36294.61
532.437	36345.81
532.638	35944.41
532.839	36319.19
533.04	36507.6
533.241	35993.56
533.442	36857.81
533.643	36624.34
533.844	36558.8
534.045	36462.55
534.246	36507.6
534.447	36822.99
534.648	36743.12
534.849	36720.59
535.05	36509.65
535.251	36779.98
535.451	36519.89
535.652	36880.33
535.853	36812.75
536.054	36868.05
536.255	36806.61
536.456	36450.26
536.657	37490.63
536.857	36771.79
537.058	36593.62
537.259	37031.88
537.46	36913.1
537.66	37040.07
537.861	37187.53
538.062	37048.27
538.263	36638.67
538.463	37042.12
538.664	36882.38
538.865	36992.97
539.065	37097.42
539.266	36526.03
539.466	36982.73
539.667	36618.19
539.868	36884.43
540.068	36612.05
540.269	36870.09
540.469	36904.91
540.67	36595.67
540.87	36911.05
541.071	36831.18
541.271	36870.09
541.472	36671.44
541.672	36403.16
541.873	36286.42
542.073	36497.36
542.274	37111.75
542.474	36589.52
542.675	36448.21
542.875	37023.69
543.075	36974.54
543.276	36282.33
543.476	36849.61
543.676	36569.04
543.877	36591.57
544.077	36429.78
544.277	36644.82
544.478	36669.39
544.678	37015.5
544.878	36519.89
545.078	36816.85
545.279	36661.2
545.479	36583.38
545.679	36605.91
545.879	36227.03
546.079	36388.82
546.28	36345.81
546.48	36179.93
546.68	36503.51
546.88	36851.66
547.08	36626.39
547.28	36548.56
547.48	36026.33
547.68	36534.23
547.88	36149.21
548.081	36364.25
548.281	36388.82
548.481	36407.25
548.681	36581.33
548.881	36425.68
549.081	36507.6
549.28	36526.03
549.48	36947.92
549.68	36149.21
549.88	36659.15
550.08	36509.65
550.28	36513.75
550.48	36419.54
550.68	36868.05
550.88	36386.77
551.08	36272.09
551.279	36247.51
551.479	36425.68
551.679	36325.33
551.879	35966.94
552.079	36138.97
552.278	36356.05
552.478	35794.91
552.678	36329.43
552.878	36575.19
553.077	35866.59
553.277	35821.53
553.477	36583.38
553.676	35921.88
553.876	36302.81
554.076	35987.42
554.275	35872.73
554.475	35592.16
554.674	35583.97
554.874	36216.79
555.074	35557.35
555.273	36050.91
555.473	36134.87
555.672	35647.46
555.872	35622.88
556.071	35655.65
556.271	36245.46
556.47	35807.2
556.67	35368.93
556.869	35352.55
557.068	36108.25
557.268	35667.94
557.467	35811.29
557.667	35700.7
557.866	35823.58
558.065	35424.23
558.265	35364.84
558.464	34990.06
558.663	35205.09
558.863	34957.29
559.062	35608.54
559.261	35076.07
559.461	35016.68
559.66	34676.72
559.859	34988.01
560.058	34607.09
560.258	35166.18
560.457	34476.02
560.656	34875.37
560.855	34584.56
561.054	34873.32
561.253	34590.7
561.453	34844.65
561.652	34562.03
561.851	34390
562.05	34289.65
562.249	34248.69
562.448	34555.89
562.647	34537.46
562.846	34107.38
563.045	34150.39
563.244	33886.2
563.443	34310.13
563.642	33894.39
563.841	34064.38
564.04	33785.85
564.239	34195.45
564.438	33675.26
564.637	33744.89
564.836	33392.64
565.035	33458.18
565.234	33296.39
565.432	33542.14
565.631	33304.58
565.83	33462.27
566.029	33144.84
566.228	32985.1
566.427	33222.66
566.625	32608.27
566.824	32755.72
567.023	33099.78
567.222	32561.17
567.42	33030.15
567.619	32772.11
567.818	32475.15
568.016	32753.68
568.215	32761.87
568.414	32106.52
568.612	32483.34
568.811	32323.6
569.01	32012.31
569.208	32063.51
569.407	32241.68
569.605	31705.12
569.804	32157.72
570.002	31744.03
570.201	32114.71
570.4	31578.14
570.598	31787.03
570.797	31229.99
570.995	31658.01
571.193	31254.56
571.392	31449.12
571.59	31197.22
571.789	31324.19
571.987	31113.25
572.186	31201.32
572.384	30621.74
572.582	30869.54
572.781	31184.93
572.979	30472.24
573.177	30629.93
573.376	30890.02
573.574	30613.55
573.772	30771.24
573.971	30443.57
574.169	30296.11
574.367	30101.56
574.565	30511.15
574.763	29937.72
574.962	30148.66
575.16	29796.41
575.358	29884.47
575.556	29575.23
575.754	29571.13
575.952	29585.47
576.151	29782.07
576.349	29243.46
576.547	29433.92
576.745	29425.73
576.943	29675.58
577.141	29470.78
577.339	29530.17
577.537	28997.7
577.735	28870.73
577.933	28840.01
578.131	28659.79
578.329	28883.02
578.527	28651.59
578.725	28700.75
578.923	28878.92
579.121	28293.2
579.319	28149.84
579.516	28420.17
579.714	28160.08
579.912	28493.9
580.11	28086.36
580.308	28489.81
580.506	28002.39
580.704	27465.82
580.901	27977.81
581.099	28022.87
581.297	27664.47
581.495	27758.68
581.692	27930.71
581.89	27582.56
582.088	27605.08
582.285	27549.79
582.483	27459.68
582.681	27258.98
582.878	27258.98
583.076	26726.5
583.274	27275.36
583.471	26800.23
583.669	26880.1
583.866	26841.19
584.064	27058.28
584.262	26175.6
584.459	26759.27
584.657	26579.05
584.854	26546.28
585.052	25979
585.249	26366.06
585.447	26310.77
585.644	26398.83
585.841	26036.34
586.039	26247.28
586.236	26030.19
586.434	25933.94
586.631	26087.54
586.828	25907.32
587.026	26026.1
587.223	25536.63
587.42	25559.16
587.618	25577.59
587.815	25329.79
588.012	25495.67
588.21	24854.66
588.407	25827.45
588.604	25086.08
588.801	24961.16
588.999	25045.12
589.196	24711.3
589.393	25049.22
589.59	24903.81
589.787	24797.32
589.984	24658.06
590.182	24195.21
590.379	24672.39
590.576	24569.99
590.773	24270.99
590.97	24068.24
591.167	24414.35
591.364	23920.79
591.561	24082.58
591.758	24062.1
591.955	23771.29
592.152	24000.66
592.349	23779.48
592.546	23619.74
592.743	23722.13
592.94	23511.19
593.137	23496.86
593.334	23722.13
593.531	23009.44
593.727	23177.37
593.924	23310.49
594.121	23181.47
594.318	23437.47
594.515	23107.74
594.712	23339.16
594.908	22876.32
595.105	22868.13
595.302	22743.2
595.499	22827.17
595.696	22821.03
595.892	22327.47
596.089	22362.28
596.286	22567.08
596.482	22161.58
596.679	22487.21
596.876	22212.78
597.072	22134.96
597.269	22007.98
597.466	22014.13
597.662	21997.74
597.859	22198.45
598.055	21842.1
598.252	21641.4
598.448	21885.11
598.645	21713.08
598.841	21514.42
599.038	21555.38
599.234	21346.49
599.431	21577.91
599.627	21264.57
599.824	21526.71
600.02	21065.92
600.217	21164.22
600.413	21129.41
600.609	21188.8
600.806	20732.1
601.002	20912.32
601.198	20897.99
601.395	20558.02
601.591	20439.24
601.787	20652.23
601.984	20660.42
602.18	20871.36
602.376	20377.8
602.572	20453.58
602.769	20392.14
602.965	20275.4
603.161	20205.77
603.357	20160.72
603.553	19972.3
603.75	20009.17
603.946	20027.6
604.142	19980.5
604.338	19583.19
604.534	20183.24
604.73	19566.81
604.926	19648.72
605.122	19833.04
605.318	19421.4
605.514	19265.75
605.71	19232.99
605.906	19265.75
606.102	19425.5
606.298	19384.54
606.494	19095.77
606.69	19253.47
606.886	19151.07
607.082	18850.02
607.278	19269.85
607.474	18888.93
607.67	19085.53
607.866	18698.47
608.062	18757.86
608.257	18813.15
608.453	18794.72
608.649	18694.37
608.845	18620.64
609.041	18741.47
609.236	18817.25
609.432	18688.23
609.628	18596.07
609.824	18313.45
610.019	18548.96
610.215	18143.47
610.411	18540.77
610.606	18159.85
610.802	18471.14
610.998	17965.29
611.193	18180.33
611.389	18272.49
611.584	18120.94
611.78	18112.75
611.976	18022.64
612.171	17981.68
612.367	17989.87
612.562	17953.01
612.758	17625.33
612.953	17780.98
613.149	18016.49
613.344	17772.78
613.539	18075.88
613.735	17877.23
613.93	17965.29
614.126	17613.04
614.321	17916.14
614.517	17570.04
614.712	17756.4
614.907	17410.29
615.103	17621.24
615.298	17537.27
615.493	17477.88
615.688	17307.9
615.884	17633.52
616.079	17035.52
616.274	17402.1
616.47	17451.25
616.665	17338.62
616.86	16924.93
617.055	17260.79
617.25	17199.35
617.445	17209.59
617.641	16689.41
617.836	17027.32
618.031	16562.44
618.226	17154.3
618.421	16838.91
618.616	16900.35
618.811	16595.2
619.006	16660.74
619.201	16484.61
619.396	16546.05
619.591	16466.18
619.786	16361.73
619.981	16052.49
620.176	16378.12
620.371	16085.26
620.566	16283.91
620.761	15995.15
620.956	16029.96
621.151	15876.37
621.346	16093.45
621.541	15630.61
621.735	15874.32
621.93	15470.87
622.125	15739.15
622.32	15388.95
622.515	15563.03
622.709	15405.33
622.904	15360.28
623.099	15200.54
623.294	15442.2
623.488	14919.96
623.683	15026.46
623.878	15016.22
624.072	14930.2
624.267	14836
624.462	14575.91
624.656	14680.35
624.851	14817.57
625.046	14395.68
625.24	14420.26
625.435	14311.72
625.629	13875.5
625.824	14303.53
626.018	14106.92
626.213	13709.61
626.407	13981.99
626.602	13652.27
626.796	13682.99
626.991	13816.11
627.185	13670.7
627.38	13570.35
627.574	13519.15
627.768	13314.36
627.963	13308.21
628.157	13320.5
628.352	13236.53
628.546	13144.38
628.74	13187.38
628.935	12818.75
629.129	12990.78
629.323	12583.23
629.517	12769.6
629.712	12646.72
629.906	12544.32
630.1	12298.56
630.294	12392.77
630.489	12413.25
630.683	12310.85
630.877	12183.88
631.071	12357.96
631.265	12169.54
631.459	12069.19
631.653	11934.03
631.848	11942.22
632.042	11934.03
632.236	12001.61
632.43	11837.77
632.624	11608.4
632.818	11903.31
633.012	11419.99
633.206	11497.81
633.4	11559.25
633.594	11379.03
633.788	11231.57
633.982	11311.44
634.176	11221.33
634.369	11188.57
634.563	10946.9
634.757	11057.5
634.951	11098.45
635.145	10989.91
635.339	11127.13
635.533	10883.42
635.726	10795.36
635.92	10615.13
636.114	10608.99
636.308	10727.77
636.501	10471.78
636.695	10539.36
636.889	10473.82
637.083	10486.11
637.276	10328.42
637.47	10309.99
637.664	10264.93
637.857	10426.72
638.051	10195.3
638.244	9965.93
638.438	10008.94
638.632	9980.26
638.825	9740.65
639.019	9705.84
639.212	9595.25
639.406	9906.54
639.599	9765.23
639.793	9687.4
639.986	9566.57
640.18	9566.57
640.373	9595.25
640.567	9527.66
640.76	9443.7
640.954	9269.62
641.147	9369.97
641.34	9406.83
641.534	9329.01
641.727	9283.95
641.92	9075.06
642.114	9005.43
642.307	9036.15
642.5	8896.89
642.694	8833.4
642.887	8991.09
643.08	8913.27
643.273	8581.5
643.467	8737.15
643.66	8409.47
643.853	8634.75
644.046	8429.95
644.239	8788.35
644.432	8505.73
644.626	8456.57
644.819	8315.27
645.012	8315.27
645.205	8358.27
645.398	8339.84
645.591	8176
645.784	8087.94
645.977	8163.72
646.17	8030.6
646.363	7942.53
646.556	7920.01
646.749	7997.83
646.942	8071.56
647.135	7868.81
647.328	7836.04
647.521	7776.65
647.714	7831.94
647.907	7823.75
648.099	7784.84
648.292	7670.15
648.485	7588.24
648.678	7491.98
648.871	7532.94
649.064	7573.9
649.256	7602.57
649.449	7405.97
649.642	7547.28
649.835	7463.31
650.027	7201.17
650.22	7278.99
650.413	7219.6
650.605	7133.59
650.798	7133.59
650.991	7072.15
651.183	7127.44
651.376	7086.48
651.568	7276.94
651.761	6904.21
651.954	6816.15
652.146	6879.64
652.339	6885.78
652.531	6816.15
652.724	6773.14
652.916	6640.03
653.109	6756.76
653.301	6701.47
653.494	6515.1
653.686	6547.87
653.879	6594.97
654.071	6515.1
654.263	6607.26
654.456	6412.7
654.648	6482.33
654.84	6375.84
655.033	6357.41
655.225	6406.56
655.417	6207.91
655.61	6214.05
655.802	6218.15
655.994	6082.98
656.186	6179.23
656.379	6154.66
656.571	6068.64
656.763	6054.31
656.955	6044.07
657.148	6035.88
657.34	5970.34
657.532	5743.02
657.724	5943.72
657.916	5986.72
658.108	5888.42
658.3	5761.45
658.492	5917.09
658.684	5820.84
658.876	5882.28
659.068	5740.97
659.26	5718.44
659.452	5634.47
659.644	5726.63
659.836	5493.16
660.028	5593.51
660.22	5503.4
660.412	5593.51
660.604	5493.16
660.796	5544.36
660.988	5446.06
661.18	5462.44
661.372	5450.16
661.563	5423.53
661.755	5298.61
661.947	5368.24
662.139	5241.26
662.331	5222.83
662.522	5335.47
662.714	5269.94
662.906	5224.88
663.097	5224.88
663.289	4993.46
663.481	5042.61
663.673	5044.66
663.864	5044.66
664.056	5007.8
664.247	5077.43
664.439	4815.29
664.631	4919.73
664.822	4927.92
665.014	4979.12
665.205	4958.64
665.397	4841.91
665.588	4938.16
665.78	4835.77
665.971	4733.37
666.163	4776.38
666.354	4676.02
666.546	4741.56
666.737	4618.68
666.929	4592.06
667.12	4655.54
667.311	4606.39
667.503	4420.03
667.694	4583.87
667.885	4547
668.077	4561.34
668.268	4551.1
668.459	4620.73
668.651	4354.49
668.842	4446.65
669.033	4413.88
669.224	4387.26
669.416	4434.36
669.607	4266.43
669.798	4469.18
669.989	4569.53
670.18	4360.64
670.371	4356.54
670.563	4307.39
670.754	4313.53
670.945	4202.94
671.136	4268.48
671.327	4231.62
671.518	4153.79
671.709	4243.9
671.9	4264.38
672.091	4155.84
672.282	4125.12
672.473	4092.35
672.664	4223.42
672.855	4028.87
673.046	4002.24
673.237	4041.15
673.428	4030.91
673.619	4020.67
673.809	3983.81
674	3992
674.191	4104.64
674.382	3996.1
674.573	4022.72
674.764	4018.63
674.954	4028.87
675.145	3899.84
675.336	3985.86
675.527	3848.65
675.717	3799.49
675.908	3908.04
676.099	3959.24
676.289	3795.4
676.48	3953.09
676.671	3940.8
676.861	3774.92
677.052	3975.62
677.243	3852.74
677.433	3854.79
677.624	3885.51
677.814	3850.69
678.005	3811.78
678.195	3879.36
678.386	3748.29
678.576	3776.97
678.767	3725.77
678.957	3736.01
679.148	3840.45
679.338	3797.45
679.529	3762.63
679.719	3670.47
679.909	3932.61
680.1	3660.23
680.29	3824.07
680.481	3809.73
680.671	3731.91
680.861	3715.53
681.052	3609.03
681.242	3576.27
681.432	3727.82
681.622	3662.28
681.813	3609.03
682.003	3697.1
682.193	3604.94
682.383	3647.94
682.573	3652.04
682.764	3531.21
682.954	3477.96
683.144	3664.33
683.334	3656.14
683.524	3510.73
683.714	3613.13
683.904	3506.63
684.094	3439.05
684.284	3582.41
684.474	3568.07
684.664	3430.86
684.854	3613.13
685.044	3357.13
685.234	3396.04
685.424	3568.07
685.614	3373.52
685.804	3402.19
685.994	3457.48
686.184	3461.58
686.374	3332.56
686.564	3369.42
686.753	3422.67
686.943	3320.27
687.133	3408.33
687.323	3303.89
687.513	3281.36
687.702	3301.84
687.892	3291.6
688.082	3297.74
688.272	3236.3
688.461	3336.65
688.651	3355.08
688.841	3201.49
689.03	3420.62
689.22	3045.84
689.41	3140.05
689.599	3160.53
689.789	3164.62
689.979	3094.99
690.168	3244.49
690.358	3125.71
690.547	3125.71
690.737	3013.07
690.926	3008.98
691.116	3047.89
691.305	3164.62
691.495	3011.03
691.684	2935.25
691.874	2879.96
692.063	2992.59
692.252	2933.2
692.442	2937.3
692.631	2896.34
692.82	2990.55
693.01	2925.01
693.199	2798.04
693.388	2775.51
693.578	2877.91
693.767	3025.36
693.956	2830.8
694.146	2828.76
694.335	2814.42
694.524	2877.91
694.713	2820.56
694.902	2800.09
695.092	2902.48
695.281	2769.37
695.47	2785.75
695.659	2798.04
695.848	2705.88
696.037	2773.46
696.226	2740.69
696.415	2679.26
696.604	2761.17
696.793	2660.82
696.982	2679.26
697.171	2724.31
697.36	2671.06
697.549	2585.05
697.738	2628.06
697.927	2669.02
698.116	2671.06
698.305	2656.73
698.494	2728.41
698.683	2730.45
698.872	2601.43
699.061	2589.14
699.25	2531.8
699.438	2599.38
699.627	2632.15
699.816	2777.56
700.005	2583
700.193	2570.71
700.382	2542.04
700.571	2621.91
700.76	2554.33
700.948	2583
701.137	2623.96
701.326	2580.95
701.514	2513.37
701.703	2587.1
701.892	2601.43
702.08	2666.97
702.269	2556.38
702.457	2527.71
702.646	2533.85
702.834	2572.76
703.023	2509.27
703.212	2650.58
703.4	2558.42
703.589	2449.88
703.777	2644.44
703.965	2496.99
704.154	2642.39
704.342	2525.66
704.531	2650.58
704.719	2496.99
704.907	2593.24
705.096	2531.8
705.284	2531.8
705.472	2527.71
705.661	2478.55
705.849	2539.99
706.037	2542.04
706.226	2669.02
706.414	2593.24
706.602	2423.26
706.79	2615.77
706.979	2603.48
707.167	2611.67
707.355	2494.94
707.543	2404.83
707.731	2636.25
707.919	2458.07
708.107	2630.1
708.296	2607.58
708.484	2400.73
708.672	2564.57
708.86	2478.55
709.048	2521.56
709.236	2476.51
709.424	2568.66
709.612	2490.84
709.8	2556.38
709.988	2507.23
710.176	2560.47
710.364	2666.97
710.551	2591.19
710.739	2433.5
710.927	2496.99
711.115	2535.9
711.303	2513.37
711.491	2560.47
711.679	2599.38
711.866	2517.47
712.054	2562.52
712.242	2568.66
712.43	2626.01
712.617	2492.89
712.805	2513.37
712.993	2421.21
713.181	2460.12
713.368	2507.23
713.556	2525.66
713.744	2478.55
713.931	2527.71
714.119	2605.53
714.306	2587.1
714.494	2478.55
714.682	2521.56
714.869	2568.66
715.057	2574.81
715.244	2513.37
715.432	2535.9
715.619	2513.37
715.807	2576.86
715.994	2642.39
716.182	2615.77
716.369	2660.82
716.556	2544.09
716.744	2443.74
716.931	2462.17
717.119	2505.18
717.306	2585.05
717.493	2517.47
717.681	2470.36
717.868	2513.37
718.055	2554.33
718.242	2626.01
718.43	2505.18
718.617	2617.82
718.804	2570.71
718.991	2576.86
719.179	2615.77
719.366	2666.97
719.553	2580.95
719.74	2640.34
719.927	2490.84
720.114	2546.14
720.301	2484.7
720.488	2458.07
720.676	2519.51
720.863	2617.82
721.05	2599.38
721.237	2564.57
721.424	2611.67
721.611	2499.03
721.798	2552.28
721.985	2597.34
722.172	2548.19
722.358	2531.8
722.545	2699.73
722.732	2525.66
722.919	2503.13
723.106	2501.08
723.293	2687.45
723.48	2597.34
723.667	2615.77
723.853	2535.9
724.04	2527.71
724.227	2607.58
724.414	2621.91
724.6	2595.29
724.787	2628.06
724.974	2658.78
725.161	2580.95
725.347	2697.69
725.534	2628.06
725.72	2587.1
725.907	2638.3
726.094	2642.39
726.28	2564.57
726.467	2658.78
726.653	2626.01
726.84	2449.88
727.027	2628.06
727.213	2572.76
727.4	2529.75
727.586	2707.93
727.773	2460.12
727.959	2683.35
728.145	2535.9
728.332	2580.95
728.518	2640.34
728.705	2650.58
728.891	2671.06
729.077	2572.76
729.264	2466.27
729.45	2521.56
729.636	2654.68
729.823	2521.56
730.009	2542.04
730.195	2599.38
730.382	2613.72
730.568	2656.73
730.754	2646.49
730.94	2636.25
731.126	2709.97
731.313	2501.08
731.499	2755.03
731.685	2677.21
731.871	2425.31
732.057	2595.29
732.243	2580.95
732.429	2562.52
732.615	2648.54
732.801	2658.78
732.987	2470.36
733.173	2535.9
733.359	2531.8
733.545	2515.42
733.731	2517.47
733.917	2601.43
734.103	2548.19
734.289	2535.9
734.475	2464.22
734.661	2531.8
734.847	2583
735.033	2712.02
735.219	2591.19
735.404	2740.69
735.59	2611.67
735.776	2513.37
735.962	2591.19
736.148	2531.8
736.333	2521.56
736.519	2638.3
736.705	2587.1
736.89	2656.73
737.076	2591.19
737.262	2548.19
737.447	2681.3
737.633	2591.19
737.819	2529.75
738.004	2525.66
738.19	2472.41
738.375	2449.88
738.561	2515.42
738.747	2580.95
738.932	2542.04
739.118	2613.72
739.303	2550.23
739.489	2402.78
739.674	2523.61
739.859	2562.52
740.045	2464.22
740.23	2443.74
740.416	2468.31
740.601	2410.97
740.786	2335.2
740.972	2361.82
741.157	2533.85
741.342	2398.68
741.528	2443.74
741.713	2480.6
741.898	2392.54
742.084	2378.2
742.269	2456.03
742.454	2329.05
742.639	2370.01
742.824	2396.64
743.01	2357.72
743.195	2478.55
743.38	2384.35
743.565	2357.72
743.75	2245.09
743.935	2380.25
744.12	2372.06
744.305	2300.38
744.49	2320.86
744.675	2216.41
744.86	2230.75
745.045	2232.8
745.23	2265.57
745.415	2210.27
745.6	2302.43
745.785	2154.98
745.97	2181.6
746.155	2103.78
746.34	2218.46
746.525	2087.39
746.71	2216.41
746.895	2142.69
747.079	2140.64
747.264	2116.06
747.449	2101.73
747.634	2075.1
747.819	2138.59
748.003	2044.38
748.188	2154.98
748.373	1995.23
748.557	2083.3
748.742	2009.57
748.927	1948.13
749.111	1997.28
749.296	2003.43
749.481	1976.8
749.665	2040.29
749.85	1837.54
750.034	2095.58
750.219	1954.27
750.404	1960.42
750.588	2011.62
750.773	1829.35
750.957	1941.99
751.141	1919.46
751.326	1862.12
751.51	1843.68
751.695	1767.91
751.879	1855.97
752.064	1804.77
752.248	1704.42
752.432	1706.47
752.617	1810.92
752.801	1792.48
752.985	1696.23
753.17	1671.65
753.354	1622.5
753.538	1823.2
753.722	1735.14
753.907	1739.24
754.091	1735.14
754.275	1595.88
754.459	1653.22
754.643	1628.65
754.828	1610.22
755.012	1681.89
755.196	1577.45
755.38	1534.44
755.564	1602.02
755.748	1518.06
755.932	1579.5
756.116	1487.34
756.3	1528.3
756.484	1505.77
756.668	1470.95
756.852	1516.01
757.036	1550.82
757.22	1483.24
757.404	1458.67
757.588	1382.89
757.772	1534.44
757.956	1300.97
758.14	1421.8
758.323	1413.61
758.507	1423.85
758.691	1331.69
758.875	1300.97
759.059	1419.75
759.242	1399.27
759.426	1237.49
759.61	1331.69
759.794	1368.56
759.977	1487.34
760.161	1364.46
760.345	1341.93
760.528	1333.74
760.712	1286.64
760.895	1358.32
761.079	1356.27
761.263	1225.2
761.446	1243.63
761.63	1188.33
761.813	1276.4
761.997	1202.67
762.18	1163.76
762.364	1237.49
762.547	1114.61
762.731	1262.06
762.914	1192.43
763.098	1217.01
763.281	1165.81
763.464	1270.25
763.648	1149.42
763.831	1161.71
764.015	1182.19
764.198	1214.96
764.381	1157.61
764.564	1184.24
764.748	1112.56
764.931	1206.77
765.114	1075.7
765.297	1192.43
765.481	1149.42
765.664	1112.56
765.847	1106.42
766.03	1122.8
766.213	1178.09
766.397	1104.37
766.58	1055.22
766.763	1137.13
766.946	997.87
767.129	1094.13
767.312	1010.16
767.495	1096.18
767.678	1026.54
767.861	1038.83
768.044	1057.26
768.227	1022.45
768.41	981.49
768.593	983.54
768.776	1061.36
768.959	987.63
769.142	991.73
769.324	993.78
769.507	1047.02
769.69	985.58
769.873	1075.7
770.056	1067.5
770.239	874.99
770.421	1028.59
770.604	958.96
770.787	928.24
770.97	981.49
771.152	981.49
771.335	946.67
771.518	889.33
771.7	1020.4
771.883	993.78
772.066	993.78
772.248	874.99
772.431	895.47
772.613	891.38
772.796	809.46
772.978	934.39
773.161	903.67
773.343	834.04
773.526	821.75
773.708	815.6
773.891	907.76
774.073	868.85
774.256	827.89
774.438	956.91
774.621	834.04
774.803	772.6
774.985	850.42
775.168	885.23
775.35	766.45
775.532	786.93
775.715	819.7
775.897	723.44
776.079	786.93
776.261	778.74
776.444	801.27
776.626	766.45
776.808	748.02
776.99	764.4
777.173	727.54
777.355	719.35
777.537	709.11
777.719	719.35
777.901	766.45
778.083	737.78
778.265	655.86
778.447	696.82
778.629	721.4
778.811	739.83
778.993	717.3
779.175	653.81
779.357	678.39
779.539	631.29
779.721	649.72
779.903	608.76
780.085	717.3
780.267	623.09
780.449	633.33
780.631	598.52
780.812	598.52
780.994	586.23
781.176	561.66
781.358	616.95
781.54	547.32
781.721	604.66
781.903	688.63
782.085	590.33
782.267	657.91
782.448	614.9
782.63	510.46
782.812	594.42
782.993	492.02
783.175	590.33
783.357	506.36
783.538	588.28
783.72	567.8
783.901	549.37
784.083	528.89
784.264	539.13
784.446	467.45
784.627	465.4
784.809	483.83
784.99	494.07
785.172	506.36
785.353	432.63
785.535	530.94
785.716	465.4
785.897	469.5
786.079	471.54
786.26	516.6
786.441	444.92
786.623	461.3
786.804	473.59
786.985	369.15
787.167	481.78
787.348	428.54
787.529	485.88
787.71	485.88
787.891	428.54
788.073	422.39
788.254	451.07
788.435	508.41
788.616	436.73
788.797	367.1
788.978	487.93
789.159	303.61
789.34	457.21
789.522	399.87
789.703	399.87
789.884	479.74
790.065	496.12
790.246	428.54
790.427	358.91
790.607	420.35
790.788	467.45
790.969	393.72
791.15	385.53
791.331	264.7
791.512	367.1
791.693	391.67
791.874	360.95
792.054	406.01
792.235	295.42
792.416	342.52
792.597	309.76
792.778	424.44
792.958	350.71
793.139	338.43
793.32	311.8
793.5	397.82
793.681	371.19
793.862	289.28
794.042	287.23
794.223	240.12
794.404	369.15
794.584	385.53
794.765	305.66
794.945	315.9
795.126	346.62
795.306	377.34
795.487	287.23
795.667	229.88
795.848	360.95
796.028	305.66
796.209	346.62
796.389	295.42
796.57	379.39
796.75	328.19
796.93	279.04
797.111	289.28
797.291	311.8
797.471	233.98
797.652	268.8
797.832	258.56
798.012	317.95
798.192	340.47
798.373	211.45
798.553	246.27
798.733	287.23
798.913	176.64
799.093	268.8
799.274	250.36
799.454	293.37
799.634	264.7
799.814	283.13
799.994	365.05
800.174	246.27
800.354	266.75
800.534	197.12
800.714	211.45
800.894	215.55
801.074	256.51
801.254	229.88
801.434	326.14
801.614	295.42
801.794	279.04
801.974	678.39
802.154	195.07
802.334	258.56
802.514	233.98
802.693	293.37
802.873	209.4
803.053	279.04
803.233	225.79
803.413	188.93
803.592	178.69
803.772	250.36
803.952	227.84
804.131	190.97
804.311	190.97
804.491	268.8
804.67	229.88
804.85	184.83
805.03	244.22
805.209	252.41
805.389	207.36
805.568	137.73
805.748	223.74
805.928	186.88
806.107	186.88
806.287	223.74
806.466	213.5
806.646	184.83
806.825	168.45
807.004	201.21
807.184	174.59
807.363	197.12
807.543	152.06
807.722	211.45
807.901	213.5
808.081	190.97
808.26	195.07
808.439	217.6
808.619	199.16
808.798	158.21
808.977	137.73
809.156	317.95
809.336	180.73
809.515	213.5
809.694	240.12
809.873	186.88
810.052	180.73
810.231	219.64
810.411	231.93
810.59	188.93
810.769	188.93
810.948	186.88
811.127	174.59
811.306	123.39
811.485	107.01
811.664	180.73
811.843	154.11
812.022	141.82
812.201	139.77
812.38	184.83
812.559	281.08
812.737	186.88
812.916	133.63
813.095	150.01
813.274	115.2
813.453	143.87
813.632	170.49
813.811	92.67
813.989	115.2
814.168	145.92
814.347	98.81
814.526	123.39
814.704	205.31
814.883	168.45
815.062	119.29
815.24	193.02
815.419	195.07
815.598	135.68
815.776	88.57
815.955	117.25
816.133	117.25
816.312	131.58
816.49	51.71
816.669	195.07
816.847	139.77
817.026	45.57
817.204	160.25
817.383	49.66
817.561	59.9
817.74	248.32
817.918	145.92
818.097	137.73
818.275	59.9
818.453	115.2
818.632	115.2
818.81	133.63
818.988	104.96
819.167	72.19
819.345	27.14
819.523	64
819.701	168.45
819.879	209.4
820.058	152.06
820.236	70.14
820.414	115.2
820.592	147.97
820.77	107.01
820.948	74.24
821.127	104.96
821.305	145.92
821.483	39.42
821.661	143.87
821.839	92.67
822.017	68.09
822.195	107.01
822.373	104.96
822.551	70.14
822.729	96.77
822.907	68.09
823.085	47.62
823.262	80.38
823.44	115.2
823.618	51.71
823.796	125.44
823.974	57.86
824.152	76.29
824.329	86.53
824.507	156.16
824.685	156.16
824.863	188.93
825.04	76.29
825.218	84.48
825.396	74.24
825.574	147.97
825.751	49.66
825.929	127.49
826.107	115.2
826.284	35.33
826.462	117.25
826.639	6.66
826.817	57.86
826.994	59.9
827.172	100.86
827.349	141.82
827.527	80.38
827.704	111.1
827.882	49.66
828.059	115.2
828.237	145.92
828.414	94.72
828.591	72.19
828.769	156.16
828.946	61.95
829.124	53.76
829.301	137.73
829.478	72.19
829.655	100.86
829.833	137.73
830.01	25.09
830.187	66.05
830.364	41.47
830.542	31.23
830.719	55.81
830.896	127.49
831.073	86.53
831.25	121.34
831.427	127.49
831.604	80.38
831.782	59.9
831.959	164.35
832.136	117.25
832.313	94.72
832.49	27.14
832.667	57.86
832.844	6.66
833.021	115.2
833.198	31.23
833.374	51.71
833.551	68.09
833.728	37.38
833.905	43.52
834.082	-1.54
834.259	8.7
834.436	90.62
834.612	-19.97
834.789	111.1
834.966	119.29
835.143	35.33
835.319	27.14
835.496	88.57
835.673	16.9
835.85	41.47
836.026	80.38
836.203	100.86
836.38	-13.82
836.556	-26.11
836.733	27.14
836.909	74.24
837.086	-32.26
837.262	115.2
837.439	51.71
837.616	49.66
837.792	37.38
837.968	29.18
838.145	-32.26
838.321	49.66
838.498	51.71
838.674	33.28
838.851	43.52
839.027	25.09
839.203	31.23
839.38	8.7
839.556	70.14
839.732	55.81
839.909	14.85
840.085	2.56
840.261	115.2
840.437	27.14
840.614	74.24
840.79	45.57
840.966	102.91
841.142	74.24
841.318	-5.63
841.494	70.14
841.671	145.92
841.847	18.94
842.023	70.14
842.199	29.18
842.375	61.95
842.551	-17.92
842.727	39.42
842.903	88.57
843.079	41.47
843.255	100.86
843.431	37.38
843.607	8.7
843.783	35.33
843.959	27.14
844.134	-24.06
844.31	41.47
844.486	6.66
844.662	57.86
844.838	35.33
845.013	76.29
845.189	84.48
845.365	-11.78
845.541	23.04
845.716	20.99
845.892	57.86
846.068	10.75
846.244	59.9
846.419	41.47
846.595	27.14
846.77	29.18
846.946	23.04
847.122	45.57
847.297	41.47
847.473	111.1
847.648	10.75
847.824	78.33
847.999	33.28
848.175	61.95
848.35	25.09
848.526	20.99
848.701	41.47
848.876	31.23
849.052	-7.68
849.227	4.61
849.403	20.99
849.578	55.81
849.753	25.09
849.929	47.62
850.104	8.7
850.279	-34.3
850.454	-71.17
850.63	-28.16
850.805	57.86
850.98	92.67
851.155	4.61
851.33	-3.58
851.505	6.66
851.681	6.66
851.856	0.51
852.031	8.7
852.206	20.99
852.381	12.8
852.556	49.66
852.731	68.09
852.906	61.95
853.081	8.7
853.256	45.57
853.431	35.33
853.606	72.19
853.781	-34.3
853.956	47.62
854.131	8.7
854.305	-67.07
854.48	37.38
854.655	10.75
854.83	0.51
855.005	-19.97
855.18	2.56
855.354	23.04
855.529	16.9
855.704	0.51
855.879	14.85
856.053	4.61
856.228	2.56
856.403	-19.97
856.577	70.14
856.752	-3.58
856.926	74.24
857.101	29.18
857.276	25.09
857.45	-50.69
857.625	55.81
857.799	2.56
857.974	-28.16
858.148	-36.35
858.323	23.04
858.497	-30.21
858.672	31.23
858.846	-36.35
859.02	-1.54
859.195	-42.5
859.369	0.51
859.543	-38.4
859.718	8.7
859.892	27.14
860.066	20.99
860.241	10.75
860.415	6.66
860.589	41.47
860.763	-34.3
860.938	49.66
861.112	6.66
861.286	-7.68
861.46	12.8
861.634	-54.78
861.808	-22.02
861.982	2.56
862.157	-19.97
862.331	-19.97
862.505	-56.83
862.679	-9.73
862.853	-22.02
863.027	-54.78
863.201	94.72
863.375	51.71
863.549	-11.78
863.722	20.99
863.896	14.85
864.07	-28.16
864.244	45.57
864.418	35.33
864.592	18.94
864.766	0.51
864.939	23.04
865.113	-7.68
865.287	39.42
865.461	-11.78
865.634	-26.11
865.808	2.56
865.982	-7.68
866.156	0.51
866.329	-30.21
866.503	10.75
866.676	31.23
866.85	25.09
867.024	-26.11
867.197	45.57
867.371	-36.35
867.544	-36.35
867.718	-54.78
867.891	18.94
868.065	-3.58
868.238	10.75
868.412	-5.63
868.585	-13.82
868.759	-50.69
868.932	10.75
869.105	-69.12
869.279	8.7
869.452	-38.4
869.625	12.8
869.799	14.85
869.972	-24.06
870.145	-7.68
870.319	-56.83
870.492	-26.11
870.665	-28.16
870.838	10.75
871.011	-103.93
871.185	-13.82
871.358	-40.45
871.531	35.33
871.704	-5.63
871.877	4.61
872.05	31.23
872.223	-1.54
872.396	53.76
872.569	-103.93
872.742	-34.3
872.915	14.85
873.088	-32.26
873.261	-19.97
873.434	80.38
873.607	-7.68
873.78	-28.16
873.953	-54.78
874.126	-30.21
874.299	27.14
874.471	-22.02
874.644	-7.68
874.817	-13.82
874.99	14.85
875.163	-69.12
875.335	-11.78
875.508	-22.02
875.681	12.8
875.853	-65.02
876.026	-7.68
876.199	25.09
876.371	10.75
876.544	-30.21
876.717	29.18
876.889	-77.31
877.062	-67.07
877.234	-34.3
877.407	12.8
877.579	-26.11
877.752	-44.54
877.924	-71.17
878.097	-3.58
878.269	10.75
878.442	29.18
878.614	-34.3
878.786	14.85
878.959	-30.21
879.131	-7.68
879.303	-54.78
879.476	-1.54
879.648	-30.21
879.82	-5.63
879.993	-11.78
880.165	4.61
880.337	-38.4
880.509	14.85
880.681	-30.21
880.854	-11.78
881.026	-75.26
881.198	70.14
881.37	-30.21
881.542	49.66
881.714	47.62
881.886	27.14
882.058	-67.07
882.23	-3.58
882.402	51.71
882.574	-40.45
882.746	-13.82
882.918	-40.45
883.09	12.8
883.262	8.7
883.434	14.85
883.606	-38.4
883.778	4.61
883.95	12.8
884.122	16.9
884.293	2.56
884.465	-13.82
884.637	-46.59
884.809	-13.82
884.98	47.62
885.152	-50.69
885.324	25.09
885.496	-52.74
885.667	-1.54
885.839	8.7
886.011	-19.97
886.182	-19.97
886.354	12.8
886.525	39.42
886.697	-11.78
886.869	-9.73
887.04	-13.82
887.212	-3.58
887.383	92.67
887.555	-46.59
887.726	-34.3
887.897	-32.26
888.069	27.14
888.24	57.86
888.412	-38.4
888.583	-69.12
888.754	35.33
888.926	-79.36
889.097	18.94
889.268	-17.92
889.44	12.8
889.611	-28.16
889.782	-79.36
889.953	-81.41
890.125	29.18
890.296	-34.3
890.467	-40.45
890.638	-38.4
890.809	16.9
890.98	31.23
891.151	-24.06
891.323	43.52
891.494	-11.78
891.665	-62.98
891.836	-24.06
892.007	8.7
892.178	-69.12
892.349	4.61
892.52	-38.4
892.691	-60.93
892.862	-7.68
893.032	-71.17
893.203	57.86
893.374	2.56
893.545	25.09
893.716	18.94
893.887	-48.64
894.057	-34.3
894.228	-38.4
894.399	-3.58
894.57	2.56
894.74	6.66
894.911	84.48
895.082	-22.02
895.253	16.9
895.423	-30.21
895.594	35.33
895.764	-30.21
895.935	23.04
896.106	-36.35
896.276	6.66
896.447	-67.07
896.617	-42.5
896.788	-46.59
896.958	-48.64
897.129	-32.26
897.299	53.76
897.47	45.57
897.64	2.56
897.81	-5.63
897.981	23.04
898.151	-17.92
898.322	0.51
898.492	-26.11
898.662	-22.02
898.832	-13.82
899.003	-28.16
899.173	-22.02
899.343	0.51
899.513	-38.4
