Data from USB4F104151__37__11-51-43-828.txt Node

Date: Fri Mar 14 11:51:43 EDT 2025
User: louis
Spectrometer: USB4F10415
Trigger mode: 4
Integration Time (sec): 2.000000E-2
Scans to average: 1
Electric dark correction enabled: true
Nonlinearity correction enabled: false
Boxcar width: 0
XAxis mode: Wavelengths
Number of Pixels in Spectrum: 3648
>>>>>Begin Spectral Data<<<<<
178.204	-81.41
178.424	-81.41
178.644	-81.41
178.864	-101.89
179.084	-19.97
179.304	-56.83
179.524	12.8
179.744	14.85
179.964	72.19
180.184	-56.83
180.404	43.52
180.624	-32.26
180.844	10.75
181.064	-36.35
181.283	27.14
181.503	-22.02
181.723	23.04
181.943	-32.26
182.163	25.09
182.383	14.85
182.602	18.94
182.822	86.53
183.042	-3.58
183.262	-17.92
183.482	27.14
183.701	37.38
183.921	-3.58
184.141	-40.45
184.361	-32.26
184.58	18.94
184.8	-15.87
185.02	-11.78
185.239	-9.73
185.459	12.8
185.679	76.29
185.898	-67.07
186.118	-9.73
186.338	27.14
186.557	-7.68
186.777	-40.45
186.997	-13.82
187.216	-7.68
187.436	82.43
187.655	-28.16
187.875	-40.45
188.095	20.99
188.314	27.14
188.534	6.66
188.753	-15.87
188.973	10.75
189.192	57.86
189.412	-38.4
189.631	-3.58
189.851	-26.11
190.07	96.77
190.29	20.99
190.509	-30.21
190.729	-5.63
190.948	16.9
191.168	-28.16
191.387	27.14
191.607	33.28
191.826	-36.35
192.045	0.51
192.265	57.86
192.484	49.66
192.704	23.04
192.923	-3.58
193.142	49.66
193.362	-17.92
193.581	98.81
193.8	55.81
194.02	18.94
194.239	12.8
194.458	51.71
194.678	74.24
194.897	-30.21
195.116	25.09
195.335	-3.58
195.555	-65.02
195.774	-75.26
195.993	-7.68
196.212	29.18
196.432	-30.21
196.651	-3.58
196.87	27.14
197.089	49.66
197.308	0.51
197.528	-1.54
197.747	-38.4
197.966	-52.74
198.185	-15.87
198.404	59.9
198.623	-5.63
198.842	68.09
199.062	6.66
199.281	37.38
199.5	12.8
199.719	10.75
199.938	-30.21
200.157	102.91
200.376	90.62
200.595	-48.64
200.814	53.76
201.033	-7.68
201.252	33.28
201.471	53.76
201.69	-34.3
201.909	25.09
202.128	4.61
202.347	-13.82
202.566	-11.78
202.785	-42.5
203.004	31.23
203.223	70.14
203.442	14.85
203.661	39.42
203.879	41.47
204.098	31.23
204.317	-36.35
204.536	-11.78
204.755	-11.78
204.974	33.28
205.193	16.9
205.411	41.47
205.63	31.23
205.849	70.14
206.068	20.99
206.287	-24.06
206.505	0.51
206.724	-26.11
206.943	37.38
207.162	25.09
207.381	47.62
207.599	43.52
207.818	31.23
208.037	23.04
208.255	2.56
208.474	111.1
208.693	6.66
208.911	-9.73
209.13	37.38
209.349	66.05
209.567	-11.78
209.786	-26.11
210.005	27.14
210.223	51.71
210.442	14.85
210.661	2.56
210.879	-69.12
211.098	10.75
211.316	-28.16
211.535	20.99
211.753	49.66
211.972	14.85
212.191	0.51
212.409	27.14
212.628	18.94
212.846	-17.92
213.065	70.14
213.283	-11.78
213.502	-22.02
213.72	-5.63
213.938	-36.35
214.157	-17.92
214.375	-42.5
214.594	23.04
214.812	-22.02
215.031	-9.73
215.249	23.04
215.467	31.23
215.686	-34.3
215.904	-7.68
216.122	-58.88
216.341	39.42
216.559	61.95
216.778	35.33
216.996	37.38
217.214	33.28
217.432	6.66
217.651	29.18
217.869	-46.59
218.087	37.38
218.306	18.94
218.524	23.04
218.742	16.9
218.96	-52.74
219.179	-17.92
219.397	25.09
219.615	51.71
219.833	25.09
220.051	-11.78
220.27	10.75
220.488	14.85
220.706	16.9
220.924	18.94
221.142	-19.97
221.36	23.04
221.578	14.85
221.796	80.38
222.015	-1.54
222.233	12.8
222.451	92.67
222.669	10.75
222.887	8.7
223.105	33.28
223.323	12.8
223.541	-13.82
223.759	37.38
223.977	-40.45
224.195	20.99
224.413	-9.73
224.631	68.09
224.849	16.9
225.067	150.01
225.285	-26.11
225.503	29.18
225.721	-3.58
225.939	10.75
226.157	8.7
226.375	94.72
226.592	-93.69
226.81	66.05
227.028	-24.06
227.246	18.94
227.464	0.51
227.682	23.04
227.9	8.7
228.117	64
228.335	41.47
228.553	2.56
228.771	20.99
228.989	-7.68
229.206	68.09
229.424	49.66
229.642	-11.78
229.86	-9.73
230.077	-34.3
230.295	-30.21
230.513	49.66
230.731	98.81
230.948	31.23
231.166	39.42
231.384	27.14
231.601	109.05
231.819	-15.87
232.037	-17.92
232.254	45.57
232.472	16.9
232.689	-19.97
232.907	8.7
233.125	2.56
233.342	53.76
233.56	16.9
233.777	2.56
233.995	29.18
234.213	-9.73
234.43	33.28
234.648	12.8
234.865	12.8
235.083	16.9
235.3	-62.98
235.518	-32.26
235.735	-9.73
235.953	64
236.17	-17.92
236.388	-38.4
236.605	25.09
236.822	37.38
237.04	-19.97
237.257	-32.26
237.475	-67.07
237.692	47.62
237.909	10.75
238.127	-5.63
238.344	-28.16
238.562	23.04
238.779	-28.16
238.996	-22.02
239.214	-9.73
239.431	0.51
239.648	-34.3
239.865	25.09
240.083	66.05
240.3	-36.35
240.517	51.71
240.735	33.28
240.952	41.47
241.169	-5.63
241.386	16.9
241.603	-15.87
241.821	8.7
242.038	6.66
242.255	12.8
242.472	-44.54
242.689	-50.69
242.907	35.33
243.124	4.61
243.341	0.51
243.558	-38.4
243.775	-9.73
243.992	6.66
244.209	-1.54
244.426	45.57
244.643	-54.78
244.86	-11.78
245.078	31.23
245.295	20.99
245.512	35.33
245.729	-24.06
245.946	0.51
246.163	16.9
246.38	43.52
246.597	-19.97
246.814	84.48
247.031	25.09
247.248	18.94
247.464	33.28
247.681	16.9
247.898	37.38
248.115	27.14
248.332	-19.97
248.549	55.81
248.766	72.19
248.983	-9.73
249.2	88.57
249.417	8.7
249.633	39.42
249.85	20.99
250.067	-32.26
250.284	8.7
250.501	-1.54
250.717	43.52
250.934	-17.92
251.151	84.48
251.368	-44.54
251.585	-3.58
251.801	41.47
252.018	25.09
252.235	92.67
252.451	16.9
252.668	12.8
252.885	8.7
253.102	-38.4
253.318	6.66
253.535	49.66
253.752	86.53
253.968	41.47
254.185	25.09
254.401	53.76
254.618	31.23
254.835	-77.31
255.051	107.01
255.268	25.09
255.484	66.05
255.701	-7.68
255.917	-22.02
256.134	-22.02
256.351	20.99
256.567	-32.26
256.784	-17.92
257	-3.58
257.217	-1.54
257.433	82.43
257.65	35.33
257.866	-3.58
258.082	78.33
258.299	55.81
258.515	104.96
258.732	12.8
258.948	31.23
259.165	78.33
259.381	-9.73
259.597	49.66
259.814	-38.4
260.03	29.18
260.246	10.75
260.463	-42.5
260.679	-36.35
260.895	-5.63
261.112	-7.68
261.328	47.62
261.544	33.28
261.761	23.04
261.977	-19.97
262.193	33.28
262.409	45.57
262.626	-13.82
262.842	-38.4
263.058	-26.11
263.274	68.09
263.49	-44.54
263.707	55.81
263.923	14.85
264.139	-40.45
264.355	-13.82
264.571	-13.82
264.787	-3.58
265.004	-9.73
265.22	-11.78
265.436	-3.58
265.652	-17.92
265.868	8.7
266.084	-26.11
266.3	-56.83
266.516	10.75
266.732	-7.68
266.948	-19.97
267.164	10.75
267.38	98.81
267.596	37.38
267.812	45.57
268.028	109.05
268.244	37.38
268.46	53.76
268.676	33.28
268.892	8.7
269.108	-38.4
269.324	-3.58
269.54	-7.68
269.756	41.47
269.972	41.47
270.188	-17.92
270.403	57.86
270.619	-28.16
270.835	-15.87
271.051	41.47
271.267	-44.54
271.483	4.61
271.698	6.66
271.914	86.53
272.13	0.51
272.346	27.14
272.562	14.85
272.777	57.86
272.993	-5.63
273.209	-17.92
273.425	49.66
273.64	-42.5
273.856	-48.64
274.072	18.94
274.287	8.7
274.503	80.38
274.719	-28.16
274.934	-19.97
275.15	6.66
275.366	-19.97
275.581	-9.73
275.797	55.81
276.012	-17.92
276.228	80.38
276.444	27.14
276.659	53.76
276.875	39.42
277.09	64
277.306	-38.4
277.521	39.42
277.737	-54.78
277.952	80.38
278.168	39.42
278.383	4.61
278.599	2.56
278.814	41.47
279.03	55.81
279.245	88.57
279.461	86.53
279.676	90.62
279.892	43.52
280.107	-44.54
280.322	33.28
280.538	-11.78
280.753	-30.21
280.969	35.33
281.184	29.18
281.399	12.8
281.615	31.23
281.83	25.09
282.045	45.57
282.26	-5.63
282.476	-46.59
282.691	76.29
282.906	20.99
283.122	29.18
283.337	-17.92
283.552	68.09
283.767	27.14
283.983	76.29
284.198	14.85
284.413	31.23
284.628	-48.64
284.843	29.18
285.058	29.18
285.274	20.99
285.489	-60.93
285.704	61.95
285.919	-11.78
286.134	98.81
286.349	20.99
286.564	12.8
286.779	12.8
286.995	-30.21
287.21	-38.4
287.425	0.51
287.64	27.14
287.855	-48.64
288.07	-62.98
288.285	49.66
288.5	25.09
288.715	39.42
288.93	88.57
289.145	-11.78
289.36	-1.54
289.575	29.18
289.79	-19.97
290.004	51.71
290.219	57.86
290.434	-5.63
290.649	107.01
290.864	-15.87
291.079	51.71
291.294	66.05
291.509	16.9
291.724	-17.92
291.938	66.05
292.153	-32.26
292.368	35.33
292.583	43.52
292.798	74.24
293.012	35.33
293.227	47.62
293.442	72.19
293.657	6.66
293.871	33.28
294.086	16.9
294.301	47.62
294.516	27.14
294.73	-32.26
294.945	-5.63
295.16	6.66
295.374	20.99
295.589	10.75
295.804	25.09
296.018	39.42
296.233	14.85
296.447	10.75
296.662	51.71
296.877	72.19
297.091	-36.35
297.306	-24.06
297.52	-24.06
297.735	61.95
297.949	-11.78
298.164	29.18
298.378	47.62
298.593	-9.73
298.807	109.05
299.022	78.33
299.236	51.71
299.451	10.75
299.665	-1.54
299.88	29.18
300.094	16.9
300.309	4.61
300.523	61.95
300.737	43.52
300.952	-5.63
301.166	-17.92
301.381	23.04
301.595	6.66
301.809	41.47
302.024	74.24
302.238	25.09
302.452	84.48
302.667	74.24
302.881	96.77
303.095	-13.82
303.309	-1.54
303.524	80.38
303.738	10.75
303.952	27.14
304.166	57.86
304.381	31.23
304.595	33.28
304.809	-22.02
305.023	49.66
305.237	55.81
305.452	33.28
305.666	78.33
305.88	31.23
306.094	18.94
306.308	25.09
306.522	51.71
306.736	43.52
306.95	8.7
307.164	-5.63
307.379	2.56
307.593	4.61
307.807	0.51
308.021	90.62
308.235	80.38
308.449	-5.63
308.663	-15.87
308.877	74.24
309.091	-1.54
309.305	64
309.519	41.47
309.733	104.96
309.947	-1.54
310.161	68.09
310.374	47.62
310.588	-58.88
310.802	-11.78
311.016	-9.73
311.23	-36.35
311.444	55.81
311.658	20.99
311.872	35.33
312.085	-13.82
312.299	23.04
312.513	8.7
312.727	100.86
312.941	37.38
313.154	51.71
313.368	29.18
313.582	72.19
313.796	51.71
314.009	47.62
314.223	94.72
314.437	8.7
314.651	61.95
314.864	35.33
315.078	-54.78
315.292	25.09
315.505	6.66
315.719	47.62
315.933	0.51
316.146	27.14
316.36	37.38
316.573	25.09
316.787	94.72
317.001	37.38
317.214	2.56
317.428	-60.93
317.641	27.14
317.855	-5.63
318.068	-17.92
318.282	20.99
318.495	70.14
318.709	59.9
318.922	-17.92
319.136	70.14
319.349	31.23
319.563	68.09
319.776	25.09
319.99	35.33
320.203	25.09
320.417	10.75
320.63	16.9
320.843	78.33
321.057	39.42
321.27	12.8
321.483	43.52
321.697	16.9
321.91	35.33
322.124	82.43
322.337	88.57
322.55	80.38
322.763	-13.82
322.977	64
323.19	35.33
323.403	-3.58
323.617	35.33
323.83	-38.4
324.043	27.14
324.256	-26.11
324.469	70.14
324.683	-69.12
324.896	31.23
325.109	115.2
325.322	-36.35
325.535	20.99
325.748	-17.92
325.962	-52.74
326.175	31.23
326.388	35.33
326.601	41.47
326.814	2.56
327.027	-32.26
327.24	23.04
327.453	-69.12
327.666	14.85
327.879	25.09
328.092	37.38
328.305	37.38
328.518	31.23
328.731	2.56
328.944	78.33
329.157	53.76
329.37	29.18
329.583	72.19
329.796	47.62
330.009	16.9
330.222	76.29
330.435	12.8
330.648	-1.54
330.861	70.14
331.073	6.66
331.286	-24.06
331.499	12.8
331.712	-30.21
331.925	2.56
332.138	23.04
332.35	-15.87
332.563	-13.82
332.776	-9.73
332.989	-3.58
333.202	6.66
333.414	35.33
333.627	6.66
333.84	27.14
334.053	-15.87
334.265	-1.54
334.478	72.19
334.691	-1.54
334.903	29.18
335.116	-85.5
335.329	33.28
335.541	23.04
335.754	57.86
335.966	35.33
336.179	31.23
336.392	-9.73
336.604	-9.73
336.817	20.99
337.029	20.99
337.242	-3.58
337.454	104.96
337.667	29.18
337.88	98.81
338.092	45.57
338.305	29.18
338.517	31.23
338.729	18.94
338.942	2.56
339.154	18.94
339.367	-7.68
339.579	41.47
339.792	6.66
340.004	49.66
340.217	57.86
340.429	-1.54
340.641	94.72
340.854	-32.26
341.066	-26.11
341.278	43.52
341.491	80.38
341.703	-36.35
341.915	-95.74
342.128	39.42
342.34	33.28
342.552	70.14
342.764	70.14
342.977	41.47
343.189	80.38
343.401	88.57
343.613	25.09
343.826	6.66
344.038	-24.06
344.25	0.51
344.462	16.9
344.674	74.24
344.886	70.14
345.099	-46.59
345.311	16.9
345.523	-7.68
345.735	-116.22
345.947	86.53
346.159	70.14
346.371	43.52
346.583	35.33
346.795	61.95
347.007	39.42
347.219	37.38
347.431	35.33
347.643	64
347.855	0.51
348.067	31.23
348.279	25.09
348.491	-62.98
348.703	53.76
348.915	-56.83
349.127	84.48
349.339	39.42
349.551	25.09
349.763	39.42
349.975	59.9
350.187	41.47
350.399	33.28
350.61	43.52
350.822	92.67
351.034	47.62
351.246	-65.02
351.458	16.9
351.669	4.61
351.881	18.94
352.093	57.86
352.305	74.24
352.517	-3.58
352.728	49.66
352.94	0.51
353.152	72.19
353.363	2.56
353.575	-71.17
353.787	10.75
353.999	49.66
354.21	10.75
354.422	-7.68
354.633	18.94
354.845	-1.54
355.057	37.38
355.268	-24.06
355.48	27.14
355.692	14.85
355.903	37.38
356.115	12.8
356.326	-30.21
356.538	70.14
356.749	-42.5
356.961	70.14
357.172	29.18
357.384	-71.17
357.595	20.99
357.807	-11.78
358.018	-5.63
358.23	-17.92
358.441	51.71
358.653	0.51
358.864	39.42
359.075	-17.92
359.287	55.81
359.498	47.62
359.709	-7.68
359.921	18.94
360.132	35.33
360.344	64
360.555	-34.3
360.766	6.66
360.977	14.85
361.189	53.76
361.4	-36.35
361.611	61.95
361.823	43.52
362.034	25.09
362.245	10.75
362.456	-15.87
362.667	100.86
362.879	57.86
363.09	39.42
363.301	41.47
363.512	23.04
363.723	25.09
363.935	10.75
364.146	-15.87
364.357	16.9
364.568	-7.68
364.779	8.7
364.99	41.47
365.201	59.9
365.412	64
365.623	-15.87
365.834	49.66
366.045	41.47
366.256	100.86
366.467	18.94
366.678	16.9
366.889	33.28
367.1	66.05
367.311	31.23
367.522	20.99
367.733	18.94
367.944	31.23
368.155	90.62
368.366	-9.73
368.577	25.09
368.788	104.96
368.999	31.23
369.209	31.23
369.42	64
369.631	74.24
369.842	4.61
370.053	4.61
370.264	43.52
370.474	10.75
370.685	0.51
370.896	45.57
371.107	57.86
371.317	39.42
371.528	-46.59
371.739	102.91
371.95	-3.58
372.16	12.8
372.371	51.71
372.582	-28.16
372.792	29.18
373.003	70.14
373.214	86.53
373.424	10.75
373.635	23.04
373.846	94.72
374.056	2.56
374.267	4.61
374.477	39.42
374.688	-42.5
374.898	4.61
375.109	12.8
375.319	33.28
375.53	16.9
375.74	121.34
375.951	-19.97
376.161	45.57
376.372	-32.26
376.582	70.14
376.793	64
377.003	33.28
377.214	10.75
377.424	57.86
377.635	66.05
377.845	-26.11
378.055	47.62
378.266	-5.63
378.476	6.66
378.686	45.57
378.897	59.9
379.107	80.38
379.317	-30.21
379.528	80.38
379.738	47.62
379.948	-58.88
380.158	12.8
380.369	57.86
380.579	51.71
380.789	57.86
380.999	43.52
381.21	43.52
381.42	68.09
381.63	10.75
381.84	92.67
382.05	-58.88
382.261	84.48
382.471	45.57
382.681	49.66
382.891	76.29
383.101	78.33
383.311	6.66
383.521	2.56
383.731	92.67
383.941	31.23
384.151	31.23
384.361	100.86
384.571	43.52
384.781	10.75
384.991	84.48
385.201	53.76
385.411	47.62
385.621	16.9
385.831	-13.82
386.041	16.9
386.251	66.05
386.461	37.38
386.671	72.19
386.881	29.18
387.091	64
387.301	141.82
387.511	2.56
387.72	45.57
387.93	27.14
388.14	12.8
388.35	14.85
388.56	57.86
388.769	53.76
388.979	6.66
389.189	55.81
389.399	25.09
389.609	-9.73
389.818	-1.54
390.028	23.04
390.238	45.57
390.447	4.61
390.657	53.76
390.867	49.66
391.076	53.76
391.286	23.04
391.496	59.9
391.705	16.9
391.915	64
392.125	78.33
392.334	43.52
392.544	37.38
392.753	31.23
392.963	-3.58
393.172	107.01
393.382	-7.68
393.591	135.68
393.801	12.8
394.01	94.72
394.22	55.81
394.429	57.86
394.639	84.48
394.848	76.29
395.058	113.15
395.267	76.29
395.477	27.14
395.686	66.05
395.895	154.11
396.105	92.67
396.314	-3.58
396.524	59.9
396.733	-3.58
396.942	82.43
397.152	86.53
397.361	152.06
397.57	45.57
397.78	-7.68
397.989	80.38
398.198	123.39
398.407	53.76
398.617	84.48
398.826	64
399.035	100.86
399.244	145.92
399.453	90.62
399.663	43.52
399.872	127.49
400.081	119.29
400.29	88.57
400.499	33.28
400.708	84.48
400.917	82.43
401.127	55.81
401.336	74.24
401.545	31.23
401.754	82.43
401.963	66.05
402.172	147.97
402.381	23.04
402.59	78.33
402.799	35.33
403.008	115.2
403.217	135.68
403.426	37.38
403.635	86.53
403.844	61.95
404.053	92.67
404.262	47.62
404.471	141.82
404.68	121.34
404.888	154.11
405.097	127.49
405.306	123.39
405.515	129.53
405.724	137.73
405.933	137.73
406.142	147.97
406.35	107.01
406.559	131.58
406.768	207.36
406.977	201.21
407.185	176.64
407.394	213.5
407.603	166.4
407.812	215.55
408.02	221.69
408.229	195.07
408.438	125.44
408.646	174.59
408.855	231.93
409.064	207.36
409.272	213.5
409.481	285.18
409.69	227.84
409.898	240.12
410.107	301.56
410.315	299.52
410.524	322.04
410.733	254.46
410.941	311.8
411.15	350.71
411.358	385.53
411.567	303.61
411.775	307.71
411.984	406.01
412.192	430.59
412.401	406.01
412.609	399.87
412.818	360.95
413.026	395.77
413.234	416.25
413.443	506.36
413.651	498.17
413.86	549.37
414.068	537.08
414.276	518.65
414.485	596.47
414.693	575.99
414.901	598.52
415.11	653.81
415.318	643.57
415.526	627.19
415.734	668.15
415.943	752.12
416.151	723.44
416.359	754.16
416.567	840.18
416.776	883.19
416.984	825.84
417.192	838.13
417.4	942.58
417.608	950.77
417.817	952.82
418.025	965.11
418.233	1069.55
418.441	1032.69
418.649	1087.98
418.857	1149.42
419.065	1257.96
419.273	1014.26
419.481	1118.7
419.689	1276.4
419.897	1360.36
420.105	1403.37
420.313	1358.32
420.521	1475.05
420.729	1583.59
420.937	1561.06
421.145	1673.7
421.353	1616.36
421.561	1831.4
421.769	1843.68
421.977	1794.53
422.185	1729
422.393	1960.42
422.601	2161.12
422.809	2040.29
423.017	2150.88
423.224	2116.06
423.432	2298.33
423.64	2300.38
423.848	2468.31
424.056	2453.98
424.263	2587.1
424.471	2460.12
424.679	2652.63
424.887	2761.17
425.094	2798.04
425.302	2908.63
425.51	2980.31
425.718	2970.07
425.925	3103.18
426.133	3154.38
426.341	3482.06
426.548	3658.18
426.756	3537.35
426.964	3613.13
427.171	3770.82
427.379	4041.15
427.586	3807.69
427.794	3942.85
428.001	4379.07
428.209	4368.83
428.417	4524.47
428.624	4680.12
428.832	4772.28
429.039	4753.85
429.247	4641.21
429.454	5190.06
429.662	5495.21
429.869	5063.09
430.076	5593.51
430.284	5468.59
430.491	5616.04
430.699	5933.48
430.906	5761.45
431.114	6070.69
431.321	6193.57
431.528	6377.89
431.736	6822.3
431.943	7172.5
432.15	6801.82
432.358	7051.67
432.565	7334.29
432.772	7252.37
432.979	7588.24
433.187	7913.86
433.394	7872.9
433.601	8380.8
433.808	8190.34
434.016	8309.12
434.223	8761.72
434.43	9101.69
434.637	9015.67
434.844	9636.2
435.052	9871.72
435.259	9849.19
435.466	9845.1
435.673	9668.97
435.88	10348.9
436.087	10862.94
436.294	10959.19
436.501	10647.9
436.708	10815.83
436.915	11403.6
437.122	11641.17
437.329	11581.78
437.537	11993.42
437.743	12407.11
437.95	12104.01
438.157	12902.72
438.364	13287.73
438.571	13248.82
438.778	13084.98
438.985	14549.28
439.192	14008.62
439.399	14467.36
439.606	14123.3
439.813	15038.75
440.02	15704.34
440.227	15405.33
440.433	15401.24
440.64	15907.09
440.847	15894.8
441.054	16089.35
441.261	17193.21
441.467	17039.61
441.674	17537.27
441.881	17905.9
442.088	17914.09
442.294	17731.83
442.501	18340.07
442.708	18948.32
442.914	19462.36
443.121	20269.26
443.328	19732.69
443.534	21135.55
443.741	20609.22
443.948	19992.78
444.154	21614.77
444.361	21407.93
444.568	21627.06
444.774	21649.59
444.981	21885.11
445.187	22902.95
445.394	23500.95
445.6	22802.6
445.807	25399.42
446.013	24244.37
446.22	24619.14
446.426	25661.56
446.633	25876.6
446.839	26759.27
447.046	25569.4
447.252	27441.25
447.459	27258.98
447.665	27371.61
447.871	28209.23
448.078	29362.24
448.284	28344.4
448.491	28553.29
448.697	29892.66
448.903	30617.64
449.11	30367.79
449.316	30167.09
449.522	30593.07
449.728	31567.9
449.935	31715.36
450.141	31737.88
450.347	32491.54
450.553	31277.09
450.76	32073.75
450.966	32530.45
451.172	32608.27
451.378	33497.09
451.584	32831.5
451.791	33370.11
451.997	33165.32
452.203	33857.53
452.409	33689.6
452.615	33779.71
452.821	32815.12
453.027	31957.02
453.233	33812.48
453.44	32659.47
453.646	33024.01
453.852	33138.69
454.058	33677.31
454.264	32567.31
454.47	33196.04
454.676	32167.96
454.882	33511.42
455.088	30599.21
455.294	31117.35
455.5	31565.85
455.705	31825.95
455.911	30695.47
456.117	29857.85
456.323	29421.63
456.529	27801.69
456.735	29130.82
456.941	28383.31
457.147	27992.15
457.352	27189.35
457.558	27076.71
457.764	26771.56
457.97	26347.63
458.176	26124.4
458.381	25553.02
458.587	24424.59
458.793	24539.27
458.999	23441.56
459.204	25096.32
459.41	24055.95
459.616	22583.46
459.821	22452.39
460.027	22509.74
460.233	22204.59
460.438	21137.6
460.644	21266.62
460.85	20299.98
461.055	19775.7
461.261	19912.91
461.466	18520.29
461.672	17993.97
461.878	19181.79
462.083	18012.4
462.289	17649.91
462.494	17203.45
462.7	16769.28
462.905	16230.66
463.111	16894.21
463.316	16705.79
463.522	16259.34
463.727	16683.27
463.932	16380.17
464.138	16263.43
464.343	16431.37
464.549	15913.23
464.754	16255.24
464.959	16120.07
465.165	16052.49
465.37	15317.27
465.575	15005.98
465.781	15614.23
465.986	15632.66
466.191	15200.54
466.397	14868.77
466.602	14281
466.807	14715.17
467.012	14987.55
467.218	14543.14
467.423	14596.39
467.628	14633.25
467.833	15042.84
468.038	14696.74
468.244	13979.95
468.449	14864.67
468.654	14047.53
468.859	14088.49
469.064	14000.43
469.269	13340.98
469.474	13775.15
469.679	13760.81
469.885	13353.27
470.09	13609.26
470.295	13609.26
470.5	13369.65
470.705	13187.38
470.91	13277.49
471.115	13048.12
471.32	13154.62
471.525	13054.26
471.73	12800.32
471.935	12601.66
472.139	12241.22
472.344	12712.25
472.549	12167.49
472.754	12177.73
472.959	11944.27
473.164	11628.88
473.369	11546.96
473.574	11770.19
473.778	11600.21
473.983	11708.75
474.188	11618.64
474.393	11245.91
474.598	11020.63
474.802	10977.62
475.007	10848.6
475.212	11100.5
475.417	10322.27
475.621	10643.81
475.826	10647.9
476.031	10371.43
476.235	10291.55
476.44	10467.68
476.645	10000.74
476.849	10146.15
477.054	9961.83
477.259	10078.57
477.463	9775.47
477.668	9572.72
477.872	9619.82
478.077	9544.05
478.282	9468.27
478.486	9445.74
478.691	9261.43
478.895	9171.32
479.1	9253.23
479.304	9066.87
479.509	9091.45
479.713	9187.7
479.918	8937.85
480.122	8735.1
480.326	8962.42
480.531	8819.07
480.735	8806.78
480.94	8526.21
481.144	8806.78
481.348	8495.49
481.553	8841.59
481.757	8556.93
481.961	8593.79
482.166	8751.48
482.37	8511.87
482.574	8593.79
482.778	8509.82
482.983	8741.24
483.187	8601.98
483.391	8753.53
483.595	8499.58
483.8	8399.23
484.004	8450.43
484.208	8681.85
484.412	8438.14
484.616	8446.34
484.821	8571.26
485.025	8470.91
485.229	8724.86
485.433	8434.05
485.637	8571.26
485.841	8280.45
486.045	8407.42
486.249	8530.3
486.453	8341.89
486.657	8548.73
486.861	8407.42
487.065	8354.18
487.269	8520.06
487.473	8311.17
487.677	8458.62
487.881	8696.19
488.085	8413.57
488.289	8513.92
488.493	8372.61
488.697	8479.1
488.901	8456.57
489.105	8606.08
489.309	8475.01
489.512	8489.34
489.716	8440.19
489.92	8659.32
490.124	8554.88
490.328	8800.63
490.531	8753.53
490.735	8821.11
490.939	8855.93
491.143	8913.27
491.346	8595.84
491.55	8704.38
491.754	8796.54
491.958	8817.02
492.161	8862.07
492.365	8960.38
492.569	8970.62
492.772	9077.11
492.976	9044.34
493.18	9222.52
493.383	9113.97
493.587	9245.04
493.79	9236.85
493.994	9335.15
494.197	9169.27
494.401	9279.86
494.605	9353.59
494.808	9589.1
495.012	9564.53
495.215	9681.26
495.419	9617.77
495.622	9677.16
495.825	9896.3
496.029	9955.69
496.232	9976.17
496.436	9869.67
496.639	10168.68
496.843	10309.99
497.046	10299.75
497.249	10203.49
497.453	10684.76
497.656	10576.22
497.859	10774.88
498.063	10621.28
498.266	11094.36
498.469	11084.12
498.673	10740.06
498.876	11184.47
499.079	11393.36
499.282	11223.38
499.485	11702.61
499.689	11708.75
499.892	11692.37
500.095	11891.02
500.298	12114.25
500.501	11805
500.705	12398.91
500.908	12527.94
501.111	12544.32
501.314	12425.54
501.517	12806.46
501.72	13023.55
501.923	13035.83
502.126	13244.73
502.329	13422.9
502.532	13623.6
502.735	13637.94
502.938	13988.14
503.141	13863.21
503.344	14125.35
503.547	14156.07
503.75	14477.6
503.953	14686.5
504.156	14659.87
504.359	14909.72
504.562	14844.19
504.765	15425.81
504.968	15366.42
505.17	15505.68
505.373	15468.82
505.576	15905.04
505.779	15970.57
505.982	16109.83
506.185	16306.44
506.387	16443.65
506.59	16652.55
506.793	16861.44
506.996	16791.81
507.198	17301.75
507.401	17154.3
507.604	17432.82
507.807	17721.59
508.009	17768.69
508.212	17752.31
508.415	18190.57
508.617	18364.65
508.82	18589.92
509.022	18608.36
509.225	18925.79
509.428	19235.03
509.63	19159.26
509.833	19161.31
510.035	20046.03
510.238	19742.93
510.44	19871.95
510.643	20107.47
510.845	20476.1
511.048	20355.27
511.25	20779.2
511.453	20707.52
511.655	21702.84
511.858	21319.87
512.06	21319.87
512.262	21770.42
512.465	21692.6
512.667	22040.75
512.87	22395.05
513.072	22323.37
513.274	22743.2
513.477	22948
513.679	23072.93
513.881	23453.85
514.084	23484.57
514.286	23562.39
514.488	23769.24
514.69	24375.44
514.893	24647.82
515.095	24479.88
515.297	24606.86
515.499	25038.98
515.701	24977.54
515.904	25522.3
516.106	25444.48
516.308	25745.53
516.51	26114.16
516.712	26058.87
516.914	26835.05
517.116	26783.85
517.318	26962.02
517.52	27119.71
517.722	27332.7
517.925	27660.38
518.127	27912.28
518.329	28428.37
518.531	28203.09
518.733	28667.98
518.935	29067.33
519.136	28999.75
519.338	29286.47
519.54	29204.55
519.742	29954.1
519.944	29509.69
520.146	30482.48
520.348	30568.49
520.55	30345.26
520.752	30746.67
520.954	30994.47
521.155	30511.15
521.357	31189.03
521.559	31801.37
521.761	32184.34
521.963	32124.95
522.164	32296.98
522.366	32143.38
522.568	32837.64
522.77	32514.06
522.971	33302.53
523.173	33232.9
523.375	33421.31
523.576	33474.56
523.778	33462.27
523.98	34189.3
524.181	34084.86
524.383	34447.35
524.584	34858.99
524.786	34545.65
524.988	34779.12
525.189	35168.23
525.391	35110.89
525.592	35201
525.794	35319.78
525.995	35669.98
526.197	35530.72
526.398	35715.04
526.6	35885.02
526.801	35950.56
527.003	36233.18
527.204	36511.7
527.406	36638.67
527.607	36728.78
527.808	36681.68
528.01	36321.24
528.211	37279.69
528.412	37580.74
528.614	37101.51
528.815	37238.73
529.016	37326.79
529.218	37400.52
529.419	37605.31
529.62	37892.03
529.822	37816.25
530.023	37793.73
530.224	37693.38
530.425	38487.99
530.626	37539.78
530.828	37507.01
531.029	38729.65
531.23	38070.2
531.431	38354.87
531.632	38188.99
531.833	38551.48
532.035	38336.44
532.236	38901.68
532.437	38672.31
532.638	38256.57
532.839	38629.3
533.04	38502.32
533.241	38625.2
533.442	39272.36
533.643	38707.12
533.844	39065.52
534.045	38860.72
534.246	38637.49
534.447	38963.12
534.648	38965.17
534.849	39100.33
535.05	38762.42
535.251	38791.09
535.451	38387.64
535.652	39137.19
535.853	39677.86
536.054	39188.39
536.255	38967.21
536.456	38621.11
536.657	39565.22
536.857	39092.14
537.058	38971.31
537.259	39004.08
537.46	38946.73
537.66	39147.43
537.861	39049.13
538.062	39020.46
538.263	39057.32
538.463	39100.33
538.664	38606.77
538.865	39131.05
539.065	39077.8
539.266	38420.41
539.466	39428.01
539.667	39118.76
539.868	39501.73
540.068	38942.64
540.269	38842.29
540.469	39376.81
540.67	38408.12
540.87	38676.4
541.071	38891.44
541.271	39067.56
541.472	38987.69
541.672	38625.2
541.873	38866.86
542.073	38195.13
542.274	39053.23
542.474	38825.9
542.675	38655.92
542.875	39405.48
543.075	38690.74
543.276	38401.97
543.476	39090.09
543.676	38565.81
543.877	38924.21
544.077	38594.48
544.277	38936.49
544.478	38623.15
544.678	39184.3
544.878	38676.4
545.078	38471.6
545.279	38608.82
545.479	38580.15
545.679	38721.46
545.879	38705.07
546.079	38576.05
546.28	38363.06
546.48	38279.1
546.68	38877.1
546.88	38870.96
547.08	38565.81
547.28	38793.14
547.48	38541.24
547.68	38727.6
547.88	38590.39
548.081	38653.87
548.281	38709.17
548.481	38211.51
548.681	38778.8
548.881	38690.74
549.081	38578.1
549.28	38326.2
549.48	38707.12
549.68	38477.75
549.88	39221.16
550.08	38444.98
550.28	38682.55
550.48	38264.76
550.68	38848.43
550.88	37949.37
551.08	38150.07
551.279	38541.24
551.479	37795.78
551.679	38410.17
551.879	38451.13
552.079	38866.86
552.278	37980.09
552.478	38428.6
552.678	38465.46
552.878	38598.58
553.077	37793.73
553.277	37963.71
553.477	38711.22
553.676	37865.41
553.876	38305.72
554.076	37785.54
554.275	38344.63
554.475	37687.23
554.674	38088.63
554.874	38186.94
555.074	38148.03
555.273	38254.52
555.473	38375.35
555.672	37470.15
555.872	37926.85
556.071	37771.2
556.271	37920.7
556.47	37728.19
556.67	37240.78
556.869	37902.27
557.068	37693.38
557.268	37427.14
557.467	37273.54
557.667	37294.02
557.866	37558.21
558.065	37502.92
558.265	37076.94
558.464	37384.13
558.663	37642.18
558.863	37064.65
559.062	37586.88
559.261	36890.57
559.461	37531.59
559.66	36724.69
559.859	37089.23
560.058	36896.72
560.258	36739.02
560.457	36519.89
560.656	37095.37
560.855	36876.24
561.054	36866
561.253	36847.57
561.453	36605.91
561.652	37023.69
561.851	37054.41
562.05	36599.76
562.249	36384.72
562.448	36626.39
562.647	36390.87
562.846	36280.28
563.045	36292.57
563.244	35917.79
563.443	36218.84
563.642	35706.85
563.841	36083.67
564.04	35815.39
564.239	35987.42
564.438	35518.43
564.637	35674.08
564.836	36141.02
565.035	35481.57
565.234	35905.5
565.432	35528.67
565.631	35065.83
565.83	35602.4
566.029	35157.99
566.228	35350.5
566.427	34727.92
566.625	34965.48
566.824	34680.81
567.023	35315.69
567.222	34539.5
567.42	35483.62
567.619	34461.68
567.818	34668.53
568.016	34582.51
568.215	34891.76
568.414	34676.72
568.612	34709.49
568.811	34097.14
569.01	33978.36
569.208	33667.07
569.407	34244.6
569.605	33726.46
569.804	34117.62
570.002	33640.45
570.201	33652.73
570.4	33607.68
570.598	33394.69
570.797	33263.62
570.995	33630.21
571.193	33218.57
571.392	33511.42
571.59	33300.48
571.789	32788.49
571.987	32974.86
572.186	33040.39
572.384	32868.36
572.582	32714.76
572.781	33021.96
572.979	32329.75
573.177	32907.27
573.376	32526.35
573.574	32282.64
573.772	32630.8
573.971	32290.84
574.169	32086.04
574.367	31991.83
574.565	32163.86
574.763	31891.48
574.962	31963.16
575.16	31541.28
575.358	31803.42
575.556	31236.13
575.754	31533.09
575.952	31248.42
576.151	31533.09
576.349	30967.85
576.547	31014.95
576.745	31432.74
576.943	30935.08
577.141	31041.57
577.339	31174.69
577.537	30873.64
577.735	30943.27
577.933	30666.8
578.131	30652.46
578.329	30392.37
578.527	30445.62
578.725	30742.57
578.923	30638.12
579.121	30316.59
579.319	30050.36
579.516	30300.21
579.714	30165.04
579.912	30328.88
580.11	29976.63
580.308	29909.05
580.506	29892.66
580.704	29448.25
580.901	30013.49
581.099	29784.12
581.297	29065.28
581.495	29384.77
581.692	29501.5
581.89	29067.33
582.088	29362.24
582.285	29001.8
582.483	29282.37
582.681	29141.06
582.878	28835.91
583.076	28604.49
583.274	28715.08
583.471	28782.66
583.669	28975.17
583.866	28485.71
584.064	28373.07
584.262	28088.4
584.459	28418.13
584.657	28297.3
584.854	28037.2
585.052	27791.45
585.249	27973.72
585.447	28405.84
585.644	27699.29
585.841	27816.02
586.039	28010.58
586.236	27500.64
586.434	27353.18
586.631	27498.59
586.828	27469.92
587.026	27582.56
587.223	27576.41
587.42	27228.26
587.618	27152.48
587.815	27056.23
588.012	26933.35
588.21	26818.66
588.407	27062.37
588.604	26810.47
588.801	26828.9
588.999	26865.77
589.196	26503.28
589.393	26392.69
589.59	26312.81
589.787	26478.7
589.984	26466.41
590.182	26015.86
590.379	26140.79
590.576	26118.26
590.773	26226.8
590.97	25972.85
591.167	25895.03
591.364	25510.01
591.561	25929.84
591.758	25669.75
591.955	25528.44
592.152	25684.09
592.349	25587.83
592.546	25178.24
592.743	25600.12
592.94	25088.13
593.137	25008.26
593.334	25149.57
593.531	24946.82
593.727	24912
593.924	24764.55
594.121	24479.88
594.318	24817.8
594.515	24440.97
594.712	24615.05
594.908	24430.73
595.105	24387.72
595.302	24154.26
595.499	24297.61
595.696	23961.75
595.892	24203.41
596.089	24283.28
596.286	23904.4
596.482	23935.12
596.679	23605.4
596.876	24068.24
597.072	23750.81
597.269	23632.02
597.466	23472.28
597.662	23527.58
597.859	23529.62
598.055	23525.53
598.252	23185.57
598.448	23242.91
598.645	23386.27
598.841	23068.83
599.038	23333.02
599.234	22921.38
599.431	22614.18
599.627	22425.77
599.824	22829.22
600.02	22616.23
600.217	22651.05
600.413	22616.23
600.609	22255.79
600.806	22286.51
601.002	22284.46
601.198	22354.09
601.395	22448.3
601.591	22083.76
601.787	22263.98
601.984	22124.72
602.18	22423.72
602.376	21766.32
602.572	21737.65
602.769	21776.56
602.965	21618.87
603.161	21604.53
603.357	21178.56
603.553	21553.34
603.75	21516.47
603.946	21457.08
604.142	21401.79
604.338	21201.08
604.534	21307.58
604.73	21014.72
604.926	21182.65
605.122	20967.62
605.318	21063.87
605.514	21051.58
605.71	20709.57
605.906	20666.56
606.102	20768.96
606.298	20594.89
606.494	20529.35
606.69	20592.84
606.886	20449.48
607.082	20420.81
607.278	20490.44
607.474	20140.24
607.67	20297.93
607.866	19978.45
608.062	20465.86
608.257	20046.03
608.453	20078.8
608.649	20033.74
608.845	19587.29
609.041	20046.03
609.236	20048.08
609.432	19941.58
609.628	19933.39
609.824	19867.86
610.019	19716.31
610.215	19661.01
610.411	19611.86
610.606	19382.49
610.802	19405.02
610.998	19583.19
611.193	19724.5
611.389	19202.27
611.584	19341.53
611.78	19245.27
611.976	19343.58
612.171	19357.91
612.367	19380.44
612.562	19144.92
612.758	18966.75
612.953	18923.74
613.149	19212.51
613.344	19001.57
613.539	19386.58
613.735	19075.29
613.93	18976.99
614.126	19050.72
614.321	19171.55
614.517	18979.04
614.712	19028.19
614.907	18659.56
615.103	18890.98
615.298	18649.32
615.493	19144.92
615.688	18499.81
615.884	19036.38
616.079	18469.09
616.274	18698.47
616.47	18669.8
616.665	18630.88
616.86	18424.04
617.055	18399.46
617.25	18280.68
617.445	18675.94
617.641	18010.35
617.836	18184.43
618.031	17918.19
618.226	17989.87
618.421	18090.22
618.616	18391.27
618.811	17918.19
619.006	18026.73
619.201	17490.17
619.396	17805.55
619.591	17527.03
619.786	17684.72
619.981	17301.75
620.176	17543.41
620.371	17357.05
620.566	17527.03
620.761	17420.53
620.956	17381.62
621.151	17051.9
621.346	17287.42
621.541	17000.7
621.735	17031.42
621.93	16605.44
622.125	16802.05
622.32	16374.02
622.515	16640.26
622.709	16431.37
622.904	16263.43
623.099	16300.3
623.294	16281.86
623.488	16066.83
623.683	16173.32
623.878	15831.31
624.072	15917.33
624.267	15857.93
624.462	15706.38
624.656	15773.97
624.851	15517.97
625.046	15247.64
625.24	15790.35
625.435	15483.16
625.629	15274.26
625.824	14991.64
626.018	15163.67
626.213	14676.26
626.407	15100.19
626.602	14758.17
626.796	14870.81
626.991	14819.61
627.185	14577.95
627.38	14444.84
627.574	14668.06
627.768	14295.33
627.963	14369.06
628.157	13934.89
628.352	14250.28
628.546	13908.27
628.74	14217.51
628.935	13742.38
629.129	13615.41
629.323	13744.43
629.517	13646.13
629.712	13728.05
629.906	13459.76
630.1	13240.63
630.294	13506.87
630.489	13400.37
630.683	13295.93
630.877	13111.61
631.071	12988.73
631.265	13082.94
631.459	13171
631.653	12898.62
631.848	12947.77
632.042	12695.87
632.236	12757.31
632.43	12661.05
632.624	12775.74
632.818	12398.91
633.012	12122.44
633.206	12433.73
633.4	12310.85
633.594	12134.73
633.788	12267.84
633.982	12327.24
634.176	12061
634.369	11960.65
634.563	11850.06
634.757	11823.44
634.951	12065.1
635.145	11878.73
635.339	11858.25
635.533	11583.82
635.726	11692.37
635.92	11424.08
636.114	11854.16
636.308	11424.08
636.501	11356.5
636.695	11333.97
636.889	11327.83
637.083	11239.76
637.276	11106.65
637.47	11082.07
637.664	10928.47
637.857	10844.51
638.051	11004.25
638.244	10887.51
638.438	10715.48
638.632	10711.39
638.825	10568.03
639.019	10723.68
639.212	10473.82
639.406	10588.51
639.599	10738.01
639.793	10375.52
639.986	10123.62
640.18	10277.22
640.373	10316.13
640.567	9857.39
640.76	10205.54
640.954	9863.53
641.147	9939.3
641.34	9898.34
641.534	9949.54
641.727	9797.99
641.92	9718.12
642.114	9814.38
642.307	9886.06
642.5	9736.56
642.694	9378.16
642.887	9673.07
643.08	9808.23
643.273	9429.36
643.467	9277.81
643.66	9333.11
643.853	9347.44
644.046	9193.84
644.239	9404.78
644.432	9152.88
644.626	9034.1
644.819	8974.71
645.012	8935.8
645.205	8982.9
645.398	8857.98
645.591	9034.1
645.784	8884.6
645.977	8653.18
646.17	8804.73
646.363	8685.95
646.556	8475.01
646.749	8489.34
646.942	8577.41
647.135	8323.46
647.328	8456.57
647.521	8374.66
647.714	8335.74
647.907	8466.81
648.099	8176
648.292	8292.74
648.485	8087.94
648.678	8137.09
648.871	8186.24
649.064	8075.65
649.256	7922.06
649.449	7989.64
649.642	7938.44
649.835	7958.92
650.027	7756.17
650.22	7997.83
650.413	7643.53
650.605	7627.15
650.798	7659.92
650.991	7782.79
651.183	7534.99
651.376	7412.11
651.568	7610.76
651.761	7586.19
651.954	7403.92
652.146	7352.72
652.339	7510.41
652.531	7506.32
652.724	7387.54
652.916	7442.83
653.109	7260.56
653.301	7195.03
653.494	7188.88
653.686	6996.37
653.879	7186.83
654.071	6967.7
654.263	7020.95
654.456	7129.49
654.648	6869.4
654.84	6715.8
655.033	6656.41
655.225	6982.04
655.417	6760.86
655.61	6646.17
655.802	6975.89
655.994	6709.66
656.186	6664.6
656.379	6570.4
656.571	6597.02
656.763	6535.58
656.955	6459.81
657.148	6537.63
657.34	6396.32
657.532	6162.85
657.724	6377.89
657.916	6267.3
658.108	6257.06
658.3	6277.54
658.492	6236.58
658.684	6087.08
658.876	6394.27
659.068	6205.86
659.26	6019.49
659.452	6136.23
659.644	5986.72
659.836	6080.93
660.028	6111.65
660.22	6017.44
660.412	5814.7
660.604	5861.8
660.796	5878.18
660.988	5796.26
661.18	5691.82
661.372	5734.82
661.563	5648.81
661.755	5745.06
661.947	5693.87
662.139	5577.13
662.331	5646.76
662.522	5501.36
662.714	5624.23
662.906	5607.85
663.097	5601.71
663.289	5411.25
663.481	5546.41
663.673	5474.73
663.864	5474.73
664.056	5384.62
664.247	5339.57
664.439	5403.05
664.631	5366.19
664.822	5235.12
665.014	5093.81
665.205	5204.4
665.397	5161.39
665.588	5214.64
665.78	5179.82
665.971	5306.8
666.163	5054.9
666.354	4929.97
666.546	4966.84
666.737	5003.7
666.929	5083.57
667.12	5034.42
667.311	4889.01
667.503	4917.68
667.694	4983.22
667.885	4975.03
668.077	4880.82
668.268	4653.5
668.459	4784.57
668.651	4688.31
668.842	4862.39
669.033	4805.05
669.224	4768.18
669.416	4733.37
669.607	4719.03
669.798	4590.01
669.989	4831.67
670.18	4645.31
670.371	4567.48
670.563	4506.04
670.754	4547
670.945	4645.31
671.136	4555.19
671.327	4604.35
671.518	4592.06
671.709	4585.91
671.9	4538.81
672.091	4495.8
672.282	4364.73
672.473	4409.79
672.664	4436.41
672.855	4458.94
673.046	4424.12
673.237	4444.6
673.428	4252.1
673.619	4299.2
673.809	4264.38
674	4219.33
674.191	4407.74
674.382	4301.25
674.573	4360.64
674.764	4301.25
674.954	4284.86
675.145	4166.08
675.336	4155.84
675.527	4166.08
675.717	4213.18
675.908	4168.13
676.099	4116.93
676.289	4147.65
676.48	4147.65
676.671	4202.94
676.861	4129.22
677.052	4078.02
677.243	4118.98
677.433	4106.69
677.624	4161.98
677.814	4182.46
678.005	4157.89
678.195	3996.1
678.386	4155.84
678.576	4098.5
678.767	4151.74
678.957	4137.41
679.148	4047.3
679.338	3996.1
679.529	3887.56
679.719	4118.98
679.909	4020.67
680.1	3932.61
680.29	3885.51
680.481	3910.08
680.671	3908.04
680.861	4114.88
681.052	3809.73
681.242	3893.7
681.432	3977.67
681.622	3842.5
681.813	3834.31
682.003	3862.98
682.193	3774.92
682.383	3822.02
682.573	3914.18
682.764	3867.08
682.954	3996.1
683.144	4051.39
683.334	3762.63
683.524	3901.89
683.714	3889.6
683.904	3699.14
684.094	3721.67
684.284	3817.93
684.474	4035.01
684.664	3709.38
684.854	3740.1
685.044	3811.78
685.234	3631.56
685.424	3586.51
685.614	3701.19
685.804	3795.4
685.994	3678.66
686.184	3709.38
686.374	3553.74
686.564	3606.98
686.753	3645.9
686.943	3604.94
687.133	3768.77
687.323	3545.55
687.513	3668.42
687.702	3588.55
687.892	3451.34
688.082	3371.47
688.272	3621.32
688.461	3490.25
688.651	3430.86
688.841	3297.74
689.03	3369.42
689.22	3346.89
689.41	3320.27
689.599	3514.83
689.789	3291.6
689.979	3303.89
690.168	3299.79
690.358	3408.33
690.547	3289.55
690.737	3262.93
690.926	3236.3
691.116	3183.06
691.305	3373.52
691.495	3193.3
691.684	3303.89
691.874	3123.66
692.063	3113.42
692.252	3131.86
692.442	3199.44
692.631	2998.74
692.82	3070.42
693.01	3162.58
693.199	3156.43
693.388	3056.08
693.578	3099.09
693.767	3242.45
693.956	3029.46
694.146	3146.19
694.335	3025.36
694.524	2957.78
694.713	3031.51
694.902	3109.33
695.092	2968.02
695.281	3023.31
695.47	2994.64
695.659	2929.11
695.848	2955.73
696.037	2906.58
696.226	3021.27
696.415	3031.51
696.604	3086.8
696.793	2927.06
696.982	2933.2
697.171	3033.55
697.36	2976.21
697.549	2914.77
697.738	2886.1
697.927	2906.58
698.116	2888.15
698.305	2851.28
698.494	2914.77
698.683	2867.67
698.872	2820.56
699.061	2871.76
699.25	2759.13
699.438	2861.52
699.627	2847.19
699.816	2886.1
700.005	2851.28
700.193	2855.38
700.382	2908.63
700.571	2806.23
700.76	2961.87
700.948	2814.42
701.137	2904.53
701.326	2853.33
701.514	2707.93
701.703	2816.47
701.892	2771.41
702.08	2867.67
702.269	2765.27
702.457	2916.82
702.646	2912.72
702.834	2861.52
703.023	2761.17
703.212	2898.39
703.4	2810.33
703.589	2767.32
703.777	2871.76
703.965	2738.65
704.154	2757.08
704.342	2730.45
704.531	2771.41
704.719	2826.71
704.907	2849.24
705.096	2798.04
705.284	2732.5
705.472	2802.13
705.661	2656.73
705.849	2673.11
706.037	2679.26
706.226	2736.6
706.414	2773.46
706.602	2677.21
706.79	2800.09
706.979	2853.33
707.167	2705.88
707.355	2638.3
707.543	2693.59
707.731	2740.69
707.919	2830.8
708.107	2718.17
708.296	2744.79
708.484	2693.59
708.672	2722.26
708.86	2664.92
709.048	2767.32
709.236	2759.13
709.424	2738.65
709.612	2716.12
709.8	2750.93
709.988	2761.17
710.176	2720.21
710.364	2845.14
710.551	2728.41
710.739	2660.82
710.927	2769.37
711.115	2681.3
711.303	2855.38
711.491	2695.64
711.679	2644.44
711.866	2654.68
712.054	2705.88
712.242	2619.86
712.43	2820.56
712.617	2791.89
712.805	2709.97
712.993	2832.85
713.181	2658.78
713.368	2691.54
713.556	2640.34
713.744	2660.82
713.931	2849.24
714.119	2564.57
714.306	2808.28
714.494	2703.83
714.682	2693.59
714.869	2734.55
715.057	2765.27
715.244	2646.49
715.432	2742.74
715.619	2656.73
715.807	2795.99
715.994	2752.98
716.182	2736.6
716.369	2683.35
716.556	2810.33
716.744	2679.26
716.931	2648.54
717.119	2867.67
717.306	2812.37
717.493	2732.5
717.681	2716.12
717.868	2775.51
718.055	2812.37
718.242	2781.65
718.43	2767.32
718.617	2542.04
718.804	2591.19
718.991	2617.82
719.179	2720.21
719.366	2748.89
719.553	2746.84
719.74	2824.66
719.927	2736.6
720.114	2752.98
720.301	2763.22
720.488	2769.37
720.676	2810.33
720.863	2626.01
721.05	2755.03
721.237	2609.62
721.424	2671.06
721.611	2789.85
721.798	2669.02
721.985	2759.13
722.172	2660.82
722.358	2787.8
722.545	2660.82
722.732	2722.26
722.919	2679.26
723.106	2619.86
723.293	2636.25
723.48	2568.66
723.667	2660.82
723.853	2695.64
724.04	2802.13
724.227	2785.75
724.414	2683.35
724.6	2714.07
724.787	2769.37
724.974	2765.27
725.161	2542.04
725.347	2687.45
725.534	2673.11
725.72	2693.59
725.907	2695.64
726.094	2720.21
726.28	2666.97
726.467	2740.69
726.653	2648.54
726.84	2689.49
727.027	2775.51
727.213	2607.58
727.4	2818.52
727.586	2640.34
727.773	2626.01
727.959	2714.07
728.145	2707.93
728.332	2693.59
728.518	2755.03
728.705	2730.45
728.891	2732.5
729.077	2732.5
729.264	2769.37
729.45	2638.3
729.636	2712.02
729.823	2660.82
730.009	2689.49
730.195	2648.54
730.382	2765.27
730.568	2601.43
730.754	2771.41
730.94	2623.96
731.126	2669.02
731.313	2712.02
731.499	2628.06
731.685	2644.44
731.871	2626.01
732.057	2630.1
732.243	2617.82
732.429	2660.82
732.615	2640.34
732.801	2658.78
732.987	2660.82
733.173	2830.8
733.359	2599.38
733.545	2589.14
733.731	2605.53
733.917	2662.87
734.103	2705.88
734.289	2544.09
734.475	2642.39
734.661	2707.93
734.847	2611.67
735.033	2544.09
735.219	2736.6
735.404	2585.05
735.59	2662.87
735.776	2511.32
735.962	2480.6
736.148	2666.97
736.333	2578.9
736.519	2593.24
736.705	2621.91
736.89	2603.48
737.076	2630.1
737.262	2585.05
737.447	2593.24
737.633	2525.66
737.819	2683.35
738.004	2560.47
738.19	2529.75
738.375	2570.71
738.561	2470.36
738.747	2462.17
738.932	2552.28
739.118	2546.14
739.303	2626.01
739.489	2480.6
739.674	2562.52
739.859	2372.06
740.045	2429.4
740.23	2503.13
740.416	2429.4
740.601	2456.03
740.786	2499.03
740.972	2359.77
741.157	2542.04
741.342	2476.51
741.528	2494.94
741.713	2318.81
741.898	2357.72
742.084	2277.85
742.269	2443.74
742.454	2386.4
742.639	2402.78
742.824	2355.68
743.01	2318.81
743.195	2435.55
743.38	2400.73
743.565	2298.33
743.75	2261.47
743.935	2234.85
744.12	2214.37
744.305	2208.22
744.49	2232.8
744.675	2226.65
744.86	2234.85
745.045	2279.9
745.23	2259.42
745.415	2157.02
745.6	2193.89
745.785	2210.27
745.97	2243.04
746.155	2171.36
746.34	2222.56
746.525	2124.26
746.71	2109.92
746.895	2056.67
747.079	2058.72
747.264	2042.34
747.449	2083.3
747.634	2240.99
747.819	2103.78
748.003	2122.21
748.188	2068.96
748.373	2017.76
748.557	2013.67
748.742	2077.15
748.927	1956.32
749.111	1896.93
749.296	2009.57
749.481	1987.04
749.665	1935.84
749.85	1958.37
750.034	1874.4
750.219	1946.08
750.404	1966.56
750.588	1919.46
750.773	1808.87
750.957	1810.92
751.141	1745.38
751.326	1888.74
751.51	1833.44
751.695	1761.77
751.879	1823.2
752.064	1765.86
752.248	1774.05
752.432	1774.05
752.617	1688.04
752.801	1704.42
752.985	1747.43
753.17	1642.98
753.354	1683.94
753.538	1718.76
753.722	1669.61
753.907	1608.17
754.091	1640.93
754.275	1616.36
754.459	1612.26
754.643	1577.45
754.828	1528.3
755.012	1548.78
755.196	1581.54
755.38	1544.68
755.564	1563.11
755.748	1552.87
755.932	1516.01
756.116	1489.39
756.3	1573.35
756.484	1452.52
756.668	1425.9
756.852	1393.13
757.036	1442.28
757.22	1401.32
757.404	1378.79
757.588	1417.71
757.772	1477.1
757.956	1368.56
758.14	1442.28
758.323	1350.12
758.507	1339.88
758.691	1393.13
758.875	1282.54
759.059	1356.27
759.242	1274.35
759.426	1303.02
759.61	1305.07
759.794	1380.84
759.977	1290.73
760.161	1206.77
760.345	1380.84
760.528	1214.96
760.712	1229.29
760.895	1237.49
761.079	1325.55
761.263	1200.62
761.446	1186.29
761.63	1270.25
761.813	1249.77
761.997	1280.49
762.18	1231.34
762.364	1278.44
762.547	1108.46
762.731	1126.89
762.914	1114.61
763.098	1270.25
763.281	1104.37
763.464	1112.56
763.648	1067.5
763.831	1178.09
764.015	1116.65
764.198	1206.77
764.381	1114.61
764.564	1100.27
764.748	1126.89
764.931	1149.42
765.114	1176.05
765.297	1071.6
765.481	1157.61
765.664	1075.7
765.847	1083.89
766.03	1104.37
766.213	1090.03
766.397	1026.54
766.58	1004.02
766.763	1059.31
766.946	1026.54
767.129	1038.83
767.312	995.82
767.495	1012.21
767.678	952.82
767.861	991.73
768.044	963.06
768.227	1026.54
768.41	999.92
768.593	1032.69
768.776	1067.5
768.959	1016.3
769.142	1047.02
769.324	1069.55
769.507	999.92
769.69	1008.11
769.873	911.86
770.056	1042.93
770.239	924.15
770.421	1014.26
770.604	967.15
770.787	973.3
770.97	1047.02
771.152	989.68
771.335	944.63
771.518	887.28
771.7	961.01
771.883	891.38
772.066	936.43
772.248	905.71
772.431	918
772.613	973.3
772.796	854.51
772.978	895.47
773.161	950.77
773.343	993.78
773.526	829.94
773.708	846.32
773.891	864.75
774.073	889.33
774.256	893.43
774.438	768.5
774.621	825.84
774.803	879.09
774.985	782.84
775.168	782.84
775.35	745.97
775.532	874.99
775.715	758.26
775.897	825.84
776.079	741.88
776.261	852.47
776.444	844.28
776.626	682.49
776.808	856.56
776.99	725.49
777.173	752.12
777.355	748.02
777.537	651.77
777.719	686.58
777.901	756.21
778.083	639.48
778.265	721.4
778.447	700.92
778.629	682.49
778.811	649.72
778.993	735.73
779.175	743.92
779.357	584.18
779.539	729.59
779.721	608.76
779.903	690.68
780.085	600.57
780.267	670.2
780.449	627.19
780.631	608.76
780.812	641.53
780.994	571.9
781.176	582.14
781.358	657.91
781.54	682.49
781.721	653.81
781.903	547.32
782.085	545.27
782.267	612.85
782.448	565.75
782.63	600.57
782.812	645.62
782.993	551.42
783.175	555.51
783.357	569.85
783.538	561.66
783.72	610.81
783.901	545.27
784.083	592.37
784.264	557.56
784.446	483.83
784.627	528.89
784.809	561.66
784.99	512.5
785.172	463.35
785.353	467.45
785.535	453.11
785.716	444.92
785.897	465.4
786.079	496.12
786.26	455.16
786.441	510.46
786.623	508.41
786.804	520.7
786.985	451.07
787.167	457.21
787.348	547.32
787.529	444.92
787.71	410.11
787.891	469.5
788.073	485.88
788.254	438.78
788.435	408.06
788.616	446.97
788.797	410.11
788.978	459.26
789.159	518.65
789.34	430.59
789.522	397.82
789.703	356.86
789.884	422.39
790.065	379.39
790.246	422.39
790.427	422.39
790.607	455.16
790.788	442.87
790.969	391.67
791.15	430.59
791.331	363
791.512	395.77
791.693	326.14
791.874	342.52
792.054	412.15
792.235	399.87
792.416	369.15
792.597	334.33
792.778	320
792.958	410.11
793.139	295.42
793.32	463.35
793.5	295.42
793.681	293.37
793.862	397.82
794.042	293.37
794.223	270.84
794.404	309.76
794.584	248.32
794.765	313.85
794.945	346.62
795.126	254.46
795.306	324.09
795.487	350.71
795.667	317.95
795.848	291.32
796.028	285.18
796.209	373.24
796.389	322.04
796.57	250.36
796.75	305.66
796.93	299.52
797.111	352.76
797.291	238.08
797.471	289.28
797.652	283.13
797.832	356.86
798.012	250.36
798.192	285.18
798.373	287.23
798.553	270.84
798.733	268.8
798.913	295.42
799.093	246.27
799.274	309.76
799.454	268.8
799.634	311.8
799.814	258.56
799.994	264.7
800.174	365.05
800.354	229.88
800.534	250.36
800.714	264.7
800.894	195.07
801.074	205.31
801.254	209.4
801.434	217.6
801.614	190.97
801.794	145.92
801.974	653.81
802.154	256.51
802.334	274.94
802.514	160.25
802.693	242.17
802.873	209.4
803.053	190.97
803.233	205.31
803.413	236.03
803.592	150.01
803.772	211.45
803.952	197.12
804.131	205.31
804.311	154.11
804.491	303.61
804.67	227.84
804.85	225.79
805.03	182.78
805.209	158.21
805.389	225.79
805.568	186.88
805.748	184.83
805.928	207.36
806.107	178.69
806.287	215.55
806.466	211.45
806.646	160.25
806.825	186.88
807.004	154.11
807.184	252.41
807.363	209.4
807.543	205.31
807.722	203.26
807.901	244.22
808.081	242.17
808.26	150.01
808.439	213.5
808.619	182.78
808.798	156.16
808.977	164.35
809.156	301.56
809.336	217.6
809.515	158.21
809.694	111.1
809.873	195.07
810.052	236.03
810.231	236.03
810.411	180.73
810.59	201.21
810.769	164.35
810.948	107.01
811.127	193.02
811.306	205.31
811.485	150.01
811.664	104.96
811.843	186.88
812.022	168.45
812.201	221.69
812.38	209.4
812.559	184.83
812.737	133.63
812.916	94.72
813.095	162.3
813.274	145.92
813.453	176.64
813.632	154.11
813.811	135.68
813.989	152.06
814.168	168.45
814.347	170.49
814.526	201.21
814.704	197.12
814.883	129.53
815.062	45.57
815.24	172.54
815.419	127.49
815.598	172.54
815.776	121.34
815.955	150.01
816.133	133.63
816.312	154.11
816.49	125.44
816.669	197.12
816.847	66.05
817.026	147.97
817.204	129.53
817.383	96.77
817.561	96.77
817.74	86.53
817.918	129.53
818.097	117.25
818.275	117.25
818.453	207.36
818.632	176.64
818.81	197.12
818.988	96.77
819.167	166.4
819.345	203.26
819.523	111.1
819.701	150.01
819.879	107.01
820.058	88.57
820.236	207.36
820.414	129.53
820.592	92.67
820.77	61.95
820.948	82.43
821.127	18.94
821.305	180.73
821.483	47.62
821.661	174.59
821.839	84.48
822.017	96.77
822.195	115.2
822.373	111.1
822.551	80.38
822.729	123.39
822.907	80.38
823.085	121.34
823.262	100.86
823.44	152.06
823.618	172.54
823.796	68.09
823.974	53.76
824.152	86.53
824.329	18.94
824.507	117.25
824.685	88.57
824.863	137.73
825.04	31.23
825.218	193.02
825.396	61.95
825.574	80.38
825.751	109.05
825.929	137.73
826.107	27.14
826.284	168.45
826.462	109.05
826.639	104.96
826.817	49.66
826.994	164.35
827.172	121.34
827.349	121.34
827.527	104.96
827.704	123.39
827.882	170.49
828.059	154.11
828.237	121.34
828.414	86.53
828.591	-9.73
828.769	166.4
828.946	74.24
829.124	158.21
829.301	41.47
829.478	98.81
829.655	109.05
829.833	53.76
830.01	96.77
830.187	47.62
830.364	29.18
830.542	115.2
830.719	150.01
830.896	176.64
831.073	72.19
831.25	27.14
831.427	41.47
831.604	104.96
831.782	31.23
831.959	125.44
832.136	107.01
832.313	29.18
832.49	23.04
832.667	107.01
832.844	100.86
833.021	88.57
833.198	61.95
833.374	76.29
833.551	109.05
833.728	49.66
833.905	70.14
834.082	8.7
834.259	25.09
834.436	111.1
834.612	66.05
834.789	20.99
834.966	47.62
835.143	25.09
835.319	55.81
835.496	-30.21
835.673	96.77
835.85	94.72
836.026	35.33
836.203	88.57
836.38	27.14
836.556	-1.54
836.733	92.67
836.909	98.81
837.086	31.23
837.262	86.53
837.439	37.38
837.616	86.53
837.792	33.28
837.968	20.99
838.145	104.96
838.321	23.04
838.498	0.51
838.674	141.82
838.851	-24.06
839.027	78.33
839.203	41.47
839.38	29.18
839.556	35.33
839.732	59.9
839.909	4.61
840.085	121.34
840.261	64
840.437	64
840.614	68.09
840.79	113.15
840.966	51.71
841.142	121.34
841.318	84.48
841.494	27.14
841.671	33.28
841.847	78.33
842.023	74.24
842.199	68.09
842.375	55.81
842.551	-38.4
842.727	45.57
842.903	78.33
843.079	4.61
843.255	14.85
843.431	66.05
843.607	78.33
843.783	-9.73
843.959	29.18
844.134	37.38
844.31	45.57
844.486	10.75
844.662	27.14
844.838	-30.21
845.013	-7.68
845.189	84.48
845.365	41.47
845.541	10.75
845.716	-9.73
845.892	133.63
846.068	84.48
846.244	29.18
846.419	45.57
846.595	10.75
846.77	2.56
846.946	-5.63
847.122	33.28
847.297	39.42
847.473	-9.73
847.648	43.52
847.824	104.96
847.999	16.9
848.175	84.48
848.35	70.14
848.526	-11.78
848.701	51.71
848.876	25.09
849.052	43.52
849.227	78.33
849.403	35.33
849.578	57.86
849.753	61.95
849.929	59.9
850.104	80.38
850.279	68.09
850.454	88.57
850.63	39.42
850.805	61.95
850.98	51.71
851.155	59.9
851.33	45.57
851.505	70.14
851.681	49.66
851.856	20.99
852.031	64
852.206	47.62
852.381	100.86
852.556	6.66
852.731	41.47
852.906	82.43
853.081	16.9
853.256	64
853.431	14.85
853.606	66.05
853.781	31.23
853.956	-3.58
854.131	18.94
854.305	25.09
854.48	-19.97
854.655	23.04
854.83	-30.21
855.005	55.81
855.18	-1.54
855.354	39.42
855.529	4.61
855.704	25.09
855.879	27.14
856.053	-3.58
856.228	20.99
856.403	-1.54
856.577	-11.78
856.752	47.62
856.926	-44.54
857.101	35.33
857.276	18.94
857.45	45.57
857.625	4.61
857.799	64
857.974	10.75
858.148	-22.02
858.323	29.18
858.497	6.66
858.672	96.77
858.846	37.38
859.02	49.66
859.195	23.04
859.369	39.42
859.543	-9.73
859.718	70.14
859.892	4.61
860.066	12.8
860.241	6.66
860.415	51.71
860.589	53.76
860.763	66.05
860.938	25.09
861.112	61.95
861.286	6.66
861.46	41.47
861.634	2.56
861.808	33.28
861.982	27.14
862.157	76.29
862.331	16.9
862.505	8.7
862.679	23.04
862.853	10.75
863.027	-40.45
863.201	25.09
863.375	-103.93
863.549	-3.58
863.722	-24.06
863.896	27.14
864.07	-11.78
864.244	10.75
864.418	-7.68
864.592	59.9
864.766	-65.02
864.939	23.04
865.113	27.14
865.287	29.18
865.461	-28.16
865.634	37.38
865.808	2.56
865.982	47.62
866.156	-1.54
866.329	0.51
866.503	86.53
866.676	-7.68
866.85	23.04
867.024	-38.4
867.197	-17.92
867.371	16.9
867.544	-56.83
867.718	20.99
867.891	-5.63
868.065	-22.02
868.238	-22.02
868.412	-26.11
868.585	29.18
868.759	33.28
868.932	-38.4
869.105	-5.63
869.279	20.99
869.452	-56.83
869.625	-40.45
869.799	41.47
869.972	49.66
870.145	-46.59
870.319	-7.68
870.492	53.76
870.665	45.57
870.838	-9.73
871.011	-52.74
871.185	6.66
871.358	-62.98
871.531	55.81
871.704	-44.54
871.877	12.8
872.05	-1.54
872.223	-54.78
872.396	31.23
872.569	-13.82
872.742	-17.92
872.915	-36.35
873.088	16.9
873.261	-48.64
873.434	-13.82
873.607	25.09
873.78	-22.02
873.953	23.04
874.126	-15.87
874.299	16.9
874.471	-9.73
874.644	20.99
874.817	41.47
874.99	-17.92
875.163	-34.3
875.335	43.52
875.508	-44.54
875.681	35.33
875.853	-42.5
876.026	-17.92
876.199	2.56
876.371	23.04
876.544	37.38
876.717	76.29
876.889	-22.02
877.062	-30.21
877.234	20.99
877.407	-5.63
877.579	-17.92
877.752	61.95
877.924	-17.92
878.097	61.95
878.269	-22.02
878.442	-15.87
878.614	-40.45
878.786	-46.59
878.959	0.51
879.131	86.53
879.303	-30.21
879.476	-9.73
879.648	31.23
879.82	23.04
879.993	-38.4
880.165	12.8
880.337	-40.45
880.509	33.28
880.681	-5.63
880.854	-42.5
881.026	37.38
881.198	80.38
881.37	-1.54
881.542	72.19
881.714	-32.26
881.886	-26.11
882.058	-60.93
882.23	-15.87
882.402	-13.82
882.574	76.29
882.746	16.9
882.918	8.7
883.09	94.72
883.262	35.33
883.434	-32.26
883.606	-32.26
883.778	33.28
883.95	-19.97
884.122	-42.5
884.293	-28.16
884.465	-36.35
884.637	-11.78
884.809	-36.35
884.98	20.99
885.152	45.57
885.324	45.57
885.496	-67.07
885.667	18.94
885.839	-38.4
886.011	51.71
886.182	16.9
886.354	8.7
886.525	6.66
886.697	41.47
886.869	-28.16
887.04	-62.98
887.212	33.28
887.383	10.75
887.555	14.85
887.726	-17.92
887.897	45.57
888.069	31.23
888.24	-15.87
888.412	-1.54
888.583	-38.4
888.754	45.57
888.926	23.04
889.097	-26.11
889.268	-24.06
889.44	-1.54
889.611	-46.59
889.782	-22.02
889.953	6.66
890.125	16.9
890.296	-22.02
890.467	14.85
890.638	-95.74
890.809	-81.41
890.98	18.94
891.151	-36.35
891.323	35.33
891.494	10.75
891.665	-26.11
891.836	-3.58
892.007	-65.02
892.178	-3.58
892.349	12.8
892.52	-50.69
892.691	47.62
892.862	-40.45
893.032	-22.02
893.203	35.33
893.374	-3.58
893.545	16.9
893.716	-22.02
893.887	8.7
894.057	12.8
894.228	31.23
894.399	-32.26
894.57	86.53
894.74	-52.74
894.911	16.9
895.082	23.04
895.253	-17.92
895.423	14.85
895.594	43.52
895.764	27.14
895.935	-58.88
896.106	-11.78
896.276	47.62
896.447	-15.87
896.617	-42.5
896.788	6.66
896.958	-26.11
897.129	-73.21
897.299	-1.54
897.47	33.28
897.64	16.9
897.81	31.23
897.981	27.14
898.151	-87.55
898.322	53.76
898.492	-19.97
898.662	-3.58
898.832	-50.69
899.003	-5.63
899.173	-30.21
899.343	16.9
899.513	-36.35
