Data from USB4F104151__80__11-52-49-300.txt Node

Date: Fri Mar 14 11:52:49 EDT 2025
User: louis
Spectrometer: USB4F10415
Trigger mode: 4
Integration Time (sec): 2.000000E-2
Scans to average: 1
Electric dark correction enabled: true
Nonlinearity correction enabled: false
Boxcar width: 0
XAxis mode: Wavelengths
Number of Pixels in Spectrum: 3648
>>>>>Begin Spectral Data<<<<<
178.204	-60.76
178.424	-60.76
178.644	-60.76
178.864	-81.24
179.084	-27.99
179.304	62.12
179.524	2.73
179.744	4.78
179.964	55.98
180.184	-11.61
180.404	-5.46
180.624	15.02
180.844	-19.8
181.064	-85.33
181.283	0.68
181.503	-38.23
181.723	19.11
181.943	2.73
182.163	49.83
182.383	-36.18
182.602	19.11
182.822	45.74
183.042	-15.7
183.262	-11.61
183.482	-68.95
183.701	37.55
183.921	35.5
184.141	4.78
184.361	25.26
184.58	-36.18
184.8	15.02
185.02	-32.08
185.239	-15.7
185.459	84.65
185.679	4.78
185.898	-19.8
186.118	15.02
186.338	19.11
186.557	10.92
186.777	39.59
186.997	41.64
187.216	68.27
187.436	43.69
187.655	-27.99
187.875	-7.51
188.095	15.02
188.314	70.31
188.534	-5.46
188.753	17.07
188.973	0.68
189.192	127.66
189.412	25.26
189.631	68.27
189.851	41.64
190.07	2.73
190.29	-13.65
190.509	37.55
190.729	-27.99
190.948	29.35
191.168	62.12
191.387	21.16
191.607	29.35
191.826	66.22
192.045	-25.94
192.265	-9.56
192.484	8.87
192.704	-3.41
192.923	96.94
193.142	2.73
193.362	47.79
193.581	90.79
193.8	-13.65
194.02	121.51
194.239	-7.51
194.458	-9.56
194.678	19.11
194.897	25.26
195.116	6.83
195.335	-9.56
195.555	21.16
195.774	-11.61
195.993	-56.66
196.212	29.35
196.432	41.64
196.651	-40.28
196.87	51.88
197.089	88.75
197.308	35.5
197.528	39.59
197.747	2.73
197.966	176.81
198.185	37.55
198.404	51.88
198.623	72.36
198.842	23.21
199.062	82.6
199.281	41.64
199.5	39.59
199.719	27.31
199.938	6.83
200.157	-3.41
200.376	-3.41
200.595	-54.61
200.814	84.65
201.033	-48.47
201.252	68.27
201.471	8.87
201.69	-11.61
201.909	55.98
202.128	-27.99
202.347	25.26
202.566	47.79
202.785	49.83
203.004	-23.89
203.223	62.12
203.442	12.97
203.661	27.31
203.879	33.45
204.098	80.55
204.317	-3.41
204.536	53.93
204.755	29.35
204.974	92.84
205.193	37.55
205.411	37.55
205.63	49.83
205.849	51.88
206.068	12.97
206.287	-23.89
206.505	94.89
206.724	-34.13
206.943	47.79
207.162	55.98
207.381	62.12
207.599	82.6
207.818	4.78
208.037	6.83
208.255	-17.75
208.474	-11.61
208.693	55.98
208.911	37.55
209.13	27.31
209.349	70.31
209.567	70.31
209.786	17.07
210.005	19.11
210.223	78.51
210.442	-44.37
210.661	2.73
210.879	39.59
211.098	21.16
211.316	21.16
211.535	80.55
211.753	27.31
211.972	31.4
212.191	31.4
212.409	62.12
212.628	49.83
212.846	-5.46
213.065	58.03
213.283	27.31
213.502	23.21
213.72	70.31
213.938	123.56
214.157	92.84
214.375	10.92
214.594	4.78
214.812	21.16
215.031	49.83
215.249	-5.46
215.467	43.69
215.686	19.11
215.904	88.75
216.122	-9.56
216.341	80.55
216.559	33.45
216.778	90.79
216.996	31.4
217.214	-1.37
217.432	66.22
217.651	-27.99
217.869	41.64
218.087	12.97
218.306	12.97
218.524	55.98
218.742	23.21
218.96	29.35
219.179	17.07
219.397	0.68
219.615	-9.56
219.833	74.41
220.051	-60.76
220.27	129.7
220.488	10.92
220.706	-3.41
220.924	-13.65
221.142	8.87
221.36	0.68
221.578	98.99
221.796	8.87
222.015	92.84
222.233	37.55
222.451	39.59
222.669	41.64
222.887	-50.52
223.105	-50.52
223.323	29.35
223.541	-34.13
223.759	17.07
223.977	12.97
224.195	15.02
224.413	-7.51
224.631	35.5
224.849	15.02
225.067	55.98
225.285	-7.51
225.503	70.31
225.721	23.21
225.939	21.16
226.157	33.45
226.375	64.17
226.592	-7.51
226.81	27.31
227.028	88.75
227.246	101.03
227.464	82.6
227.682	-11.61
227.9	8.87
228.117	35.5
228.335	-5.46
228.553	15.02
228.771	-11.61
228.989	17.07
229.206	101.03
229.424	19.11
229.642	10.92
229.86	0.68
230.077	84.65
230.295	21.16
230.513	33.45
230.731	27.31
230.948	60.07
231.166	12.97
231.384	51.88
231.601	35.5
231.819	117.42
232.037	29.35
232.254	6.83
232.472	74.41
232.689	15.02
232.907	0.68
233.125	74.41
233.342	15.02
233.56	66.22
233.777	-1.37
233.995	51.88
234.213	-13.65
234.43	37.55
234.648	-46.42
234.865	2.73
235.083	0.68
235.3	33.45
235.518	84.65
235.735	15.02
235.953	8.87
236.17	-15.7
236.388	19.11
236.605	37.55
236.822	41.64
237.04	60.07
237.257	78.51
237.475	37.55
237.692	4.78
237.909	-9.56
238.127	-13.65
238.344	-1.37
238.562	45.74
238.779	-48.47
238.996	-9.56
239.214	55.98
239.431	25.26
239.648	-11.61
239.865	72.36
240.083	51.88
240.3	35.5
240.517	6.83
240.735	101.03
240.952	51.88
241.169	55.98
241.386	60.07
241.603	78.51
241.821	0.68
242.038	15.02
242.255	27.31
242.472	-68.95
242.689	53.93
242.907	-19.8
243.124	8.87
243.341	41.64
243.558	21.16
243.775	-9.56
243.992	-11.61
244.209	33.45
244.426	86.7
244.643	35.5
244.86	60.07
245.078	-34.13
245.295	-17.75
245.512	-13.65
245.729	-68.95
245.946	41.64
246.163	-54.61
246.38	74.41
246.597	-17.75
246.814	51.88
247.031	-3.41
247.248	10.92
247.464	51.88
247.681	23.21
247.898	-1.37
248.115	15.02
248.332	33.45
248.549	55.98
248.766	58.03
248.983	8.87
249.2	4.78
249.417	49.83
249.633	-23.89
249.85	82.6
250.067	17.07
250.284	72.36
250.501	15.02
250.717	70.31
250.934	-48.47
251.151	31.4
251.368	-38.23
251.585	25.26
251.801	55.98
252.018	2.73
252.235	72.36
252.451	15.02
252.668	-15.7
252.885	129.7
253.102	0.68
253.318	41.64
253.535	58.03
253.752	39.59
253.968	-5.46
254.185	23.21
254.401	6.83
254.618	47.79
254.835	27.31
255.051	111.27
255.268	41.64
255.484	12.97
255.701	-9.56
255.917	-13.65
256.134	37.55
256.351	4.78
256.567	-15.7
256.784	2.73
257	-38.23
257.217	2.73
257.433	-23.89
257.65	88.75
257.866	23.21
258.082	27.31
258.299	-48.47
258.515	74.41
258.732	-13.65
258.948	31.4
259.165	4.78
259.381	105.13
259.597	78.51
259.814	39.59
260.03	60.07
260.246	-23.89
260.463	-58.71
260.679	68.27
260.895	-7.51
261.112	21.16
261.328	-23.89
261.544	39.59
261.761	127.66
261.977	29.35
262.193	29.35
262.409	94.89
262.626	4.78
262.842	8.87
263.058	70.31
263.274	12.97
263.49	4.78
263.707	53.93
263.923	-15.7
264.139	-44.37
264.355	76.46
264.571	10.92
264.787	68.27
265.004	94.89
265.22	-3.41
265.436	70.31
265.652	35.5
265.868	72.36
266.084	66.22
266.3	31.4
266.516	-15.7
266.732	10.92
266.948	76.46
267.164	2.73
267.38	39.59
267.596	47.79
267.812	117.42
268.028	6.83
268.244	19.11
268.46	31.4
268.676	31.4
268.892	17.07
269.108	45.74
269.324	35.5
269.54	-11.61
269.756	27.31
269.972	47.79
270.188	60.07
270.403	31.4
270.619	17.07
270.835	37.55
271.051	49.83
271.267	2.73
271.483	-9.56
271.698	37.55
271.914	39.59
272.13	62.12
272.346	51.88
272.562	-21.84
272.777	88.75
272.993	62.12
273.209	6.83
273.425	-50.52
273.64	41.64
273.856	43.69
274.072	21.16
274.287	-17.75
274.503	94.89
274.719	-60.76
274.934	35.5
275.15	12.97
275.366	-66.9
275.581	-5.46
275.797	58.03
276.012	107.18
276.228	0.68
276.444	12.97
276.659	58.03
276.875	-15.7
277.09	21.16
277.306	109.23
277.521	-5.46
277.737	-85.33
277.952	23.21
278.168	66.22
278.383	-19.8
278.599	8.87
278.814	62.12
279.03	37.55
279.245	125.61
279.461	19.11
279.676	8.87
279.892	0.68
280.107	-58.71
280.322	78.51
280.538	66.22
280.753	66.22
280.969	39.59
281.184	15.02
281.399	86.7
281.615	47.79
281.83	-13.65
282.045	64.17
282.26	21.16
282.476	53.93
282.691	41.64
282.906	8.87
283.122	117.42
283.337	2.73
283.552	33.45
283.767	41.64
283.983	12.97
284.198	51.88
284.413	-36.18
284.628	-27.99
284.843	45.74
285.058	47.79
285.274	2.73
285.489	29.35
285.704	2.73
285.919	15.02
286.134	62.12
286.349	74.41
286.564	-1.37
286.779	49.83
286.995	74.41
287.21	-11.61
287.425	51.88
287.64	82.6
287.855	41.64
288.07	29.35
288.285	39.59
288.5	86.7
288.715	107.18
288.93	74.41
289.145	2.73
289.36	80.55
289.575	8.87
289.79	39.59
290.004	55.98
290.219	19.11
290.434	107.18
290.649	-17.75
290.864	6.83
291.079	37.55
291.294	66.22
291.509	-25.94
291.724	43.69
291.938	0.68
292.153	55.98
292.368	117.42
292.583	12.97
292.798	51.88
293.012	2.73
293.227	35.5
293.442	31.4
293.657	-15.7
293.871	29.35
294.086	72.36
294.301	82.6
294.516	45.74
294.73	78.51
294.945	6.83
295.16	49.83
295.374	64.17
295.589	-1.37
295.804	-5.46
296.018	86.7
296.233	62.12
296.447	17.07
296.662	-9.56
296.877	53.93
297.091	25.26
297.306	70.31
297.52	45.74
297.735	51.88
297.949	29.35
298.164	-7.51
298.378	27.31
298.593	23.21
298.807	4.78
299.022	47.79
299.236	-34.13
299.451	8.87
299.665	45.74
299.88	-11.61
300.094	96.94
300.309	10.92
300.523	-13.65
300.737	-15.7
300.952	17.07
301.166	49.83
301.381	-21.84
301.595	15.02
301.809	37.55
302.024	23.21
302.238	41.64
302.452	55.98
302.667	-27.99
302.881	-23.89
303.095	12.97
303.309	31.4
303.524	51.88
303.738	27.31
303.952	31.4
304.166	33.45
304.381	10.92
304.595	49.83
304.809	23.21
305.023	-5.46
305.237	64.17
305.452	70.31
305.666	137.9
305.88	-11.61
306.094	15.02
306.308	-1.37
306.522	80.55
306.736	-1.37
306.95	23.21
307.164	49.83
307.379	-21.84
307.593	72.36
307.807	0.68
308.021	78.51
308.235	47.79
308.449	8.87
308.663	-48.47
308.877	70.31
309.091	60.07
309.305	58.03
309.519	-40.28
309.733	86.7
309.947	29.35
310.161	33.45
310.374	88.75
310.588	78.51
310.802	-34.13
311.016	49.83
311.23	10.92
311.444	21.16
311.658	-9.56
311.872	23.21
312.085	-7.51
312.299	37.55
312.513	53.93
312.727	51.88
312.941	-7.51
313.154	70.31
313.368	-7.51
313.582	58.03
313.796	31.4
314.009	62.12
314.223	29.35
314.437	80.55
314.651	4.78
314.864	98.99
315.078	27.31
315.292	15.02
315.505	17.07
315.719	19.11
315.933	64.17
316.146	33.45
316.36	-36.18
316.573	17.07
316.787	8.87
317.001	-15.7
317.214	51.88
317.428	101.03
317.641	72.36
317.855	31.4
318.068	49.83
318.282	58.03
318.495	68.27
318.709	53.93
318.922	82.6
319.136	6.83
319.349	51.88
319.563	80.55
319.776	10.92
319.99	-27.99
320.203	21.16
320.417	82.6
320.63	72.36
320.843	117.42
321.057	-13.65
321.27	-42.32
321.483	80.55
321.697	96.94
321.91	62.12
322.124	-15.7
322.337	35.5
322.55	62.12
322.763	68.27
322.977	43.69
323.19	82.6
323.403	-23.89
323.617	49.83
323.83	33.45
324.043	39.59
324.256	4.78
324.469	8.87
324.683	39.59
324.896	76.46
325.109	8.87
325.322	17.07
325.535	49.83
325.748	129.7
325.962	62.12
326.175	15.02
326.388	43.69
326.601	49.83
326.814	55.98
327.027	-15.7
327.24	66.22
327.453	-11.61
327.666	49.83
327.879	53.93
328.092	-1.37
328.305	41.64
328.518	47.79
328.731	62.12
328.944	-1.37
329.157	80.55
329.37	-13.65
329.583	74.41
329.796	53.93
330.009	2.73
330.222	90.79
330.435	27.31
330.648	15.02
330.861	19.11
331.073	86.7
331.286	31.4
331.499	27.31
331.712	53.93
331.925	27.31
332.138	35.5
332.35	53.93
332.563	-25.94
332.776	41.64
332.989	8.87
333.202	76.46
333.414	17.07
333.627	-15.7
333.84	-38.23
334.053	31.4
334.265	-5.46
334.478	74.41
334.691	35.5
334.903	84.65
335.116	19.11
335.329	43.69
335.541	68.27
335.754	47.79
335.966	-60.76
336.179	6.83
336.392	27.31
336.604	17.07
336.817	53.93
337.029	66.22
337.242	41.64
337.454	82.6
337.667	51.88
337.88	107.18
338.092	47.79
338.305	53.93
338.517	94.89
338.729	107.18
338.942	21.16
339.154	45.74
339.367	-13.65
339.579	17.07
339.792	10.92
340.004	72.36
340.217	39.59
340.429	4.78
340.641	31.4
340.854	88.75
341.066	49.83
341.278	0.68
341.491	70.31
341.703	33.45
341.915	-19.8
342.128	84.65
342.34	29.35
342.552	21.16
342.764	10.92
342.977	31.4
343.189	2.73
343.401	64.17
343.613	-62.8
343.826	68.27
344.038	39.59
344.25	74.41
344.462	21.16
344.674	64.17
344.886	17.07
345.099	76.46
345.311	105.13
345.523	51.88
345.735	49.83
345.947	-36.18
346.159	47.79
346.371	41.64
346.583	35.5
346.795	33.45
347.007	6.83
347.219	60.07
347.431	109.23
347.643	17.07
347.855	70.31
348.067	70.31
348.279	76.46
348.491	6.83
348.703	2.73
348.915	15.02
349.127	-58.71
349.339	25.26
349.551	66.22
349.763	45.74
349.975	2.73
350.187	68.27
350.399	133.8
350.61	66.22
350.822	51.88
351.034	82.6
351.246	45.74
351.458	8.87
351.669	37.55
351.881	51.88
352.093	66.22
352.305	148.14
352.517	25.26
352.728	64.17
352.94	37.55
353.152	80.55
353.363	51.88
353.575	62.12
353.787	10.92
353.999	33.45
354.21	35.5
354.422	-3.41
354.633	53.93
354.845	-17.75
355.057	0.68
355.268	78.51
355.48	78.51
355.692	4.78
355.903	17.07
356.115	19.11
356.326	-23.89
356.538	94.89
356.749	27.31
356.961	101.03
357.172	31.4
357.384	-1.37
357.595	74.41
357.807	131.75
358.018	47.79
358.23	2.73
358.441	43.69
358.653	70.31
358.864	51.88
359.075	4.78
359.287	92.84
359.498	33.45
359.709	27.31
359.921	43.69
360.132	96.94
360.344	-34.13
360.555	-1.37
360.766	51.88
360.977	80.55
361.189	92.84
361.4	82.6
361.611	62.12
361.823	43.69
362.034	-7.51
362.245	-5.46
362.456	43.69
362.667	15.02
362.879	29.35
363.09	62.12
363.301	60.07
363.512	76.46
363.723	-9.56
363.935	19.11
364.146	90.79
364.357	4.78
364.568	53.93
364.779	49.83
364.99	51.88
365.201	21.16
365.412	58.03
365.623	39.59
365.834	6.83
366.045	109.23
366.256	29.35
366.467	55.98
366.678	21.16
366.889	31.4
367.1	-9.56
367.311	90.79
367.522	41.64
367.733	53.93
367.944	43.69
368.155	-30.04
368.366	10.92
368.577	43.69
368.788	55.98
368.999	80.55
369.209	6.83
369.42	-5.46
369.631	70.31
369.842	64.17
370.053	21.16
370.264	60.07
370.474	66.22
370.685	17.07
370.896	-3.41
371.107	64.17
371.317	23.21
371.528	12.97
371.739	103.08
371.95	47.79
372.16	35.5
372.371	-1.37
372.582	43.69
372.792	43.69
373.003	80.55
373.214	66.22
373.424	127.66
373.635	43.69
373.846	141.99
374.056	2.73
374.267	33.45
374.477	-11.61
374.688	12.97
374.898	31.4
375.109	47.79
375.319	101.03
375.53	107.18
375.74	35.5
375.951	33.45
376.161	55.98
376.372	109.23
376.582	39.59
376.793	92.84
377.003	55.98
377.214	29.35
377.424	51.88
377.635	49.83
377.845	21.16
378.055	41.64
378.266	4.78
378.476	31.4
378.686	51.88
378.897	53.93
379.107	-25.94
379.317	31.4
379.528	23.21
379.738	31.4
379.948	35.5
380.158	6.83
380.369	37.55
380.579	43.69
380.789	37.55
380.999	43.69
381.21	19.11
381.42	21.16
381.63	37.55
381.84	68.27
382.05	150.18
382.261	84.65
382.471	8.87
382.681	98.99
382.891	12.97
383.101	62.12
383.311	33.45
383.521	74.41
383.731	41.64
383.941	6.83
384.151	-7.51
384.361	66.22
384.571	47.79
384.781	68.27
384.991	47.79
385.201	125.61
385.411	51.88
385.621	21.16
385.831	-19.8
386.041	94.89
386.251	72.36
386.461	21.16
386.671	10.92
386.881	8.87
387.091	88.75
387.301	51.88
387.511	37.55
387.72	-3.41
387.93	35.5
388.14	45.74
388.35	84.65
388.56	115.37
388.769	92.84
388.979	49.83
389.189	8.87
389.399	53.93
389.609	15.02
389.818	33.45
390.028	62.12
390.238	55.98
390.447	105.13
390.657	66.22
390.867	94.89
391.076	49.83
391.286	-44.37
391.496	82.6
391.705	43.69
391.915	12.97
392.125	25.26
392.334	76.46
392.544	80.55
392.753	115.37
392.963	29.35
393.172	84.65
393.382	21.16
393.591	72.36
393.801	8.87
394.01	109.23
394.22	92.84
394.429	111.27
394.639	29.35
394.848	17.07
395.058	107.18
395.267	45.74
395.477	37.55
395.686	62.12
395.895	90.79
396.105	135.85
396.314	113.32
396.524	37.55
396.733	58.03
396.942	92.84
397.152	80.55
397.361	35.5
397.57	51.88
397.78	39.59
397.989	72.36
398.198	72.36
398.407	90.79
398.617	58.03
398.826	113.32
399.035	103.08
399.244	82.6
399.453	119.46
399.663	121.51
399.872	49.83
400.081	21.16
400.29	154.28
400.499	51.88
400.708	146.09
400.917	37.55
401.127	88.75
401.336	62.12
401.545	139.94
401.754	78.51
401.963	74.41
402.172	72.36
402.381	115.37
402.59	135.85
402.799	162.47
403.008	17.07
403.217	109.23
403.426	107.18
403.635	66.22
403.844	92.84
404.053	88.75
404.262	113.32
404.471	162.47
404.68	125.61
404.888	109.23
405.097	103.08
405.306	123.56
405.515	162.47
405.724	86.7
405.933	135.85
406.142	195.24
406.35	103.08
406.559	176.81
406.768	170.66
406.977	178.86
407.185	170.66
407.394	178.86
407.603	162.47
407.812	101.03
408.02	115.37
408.229	154.28
408.438	154.28
408.646	137.9
408.855	86.7
409.064	197.29
409.272	201.38
409.481	238.25
409.69	209.58
409.898	217.77
410.107	164.52
410.315	217.77
410.524	230.06
410.733	252.58
410.941	236.2
411.15	295.59
411.358	262.82
411.567	332.45
411.775	350.89
411.984	303.78
412.192	277.16
412.401	402.08
412.609	338.6
412.818	418.47
413.026	373.41
413.234	350.89
413.443	391.84
413.651	410.28
413.86	414.37
414.068	455.33
414.276	469.67
414.485	467.62
414.693	363.17
414.901	445.09
415.11	461.48
415.318	481.96
415.526	463.52
415.734	617.12
415.943	588.45
416.151	621.22
416.359	524.96
416.567	578.21
416.776	572.07
416.984	660.13
417.192	662.18
417.4	686.75
417.608	672.42
417.817	705.18
418.025	711.33
418.233	920.22
418.441	864.93
418.649	819.87
418.857	987.8
419.065	856.73
419.273	952.99
419.481	961.18
419.689	873.12
419.897	1045.15
420.105	1030.81
420.313	1182.36
420.521	1112.73
420.729	1219.22
420.937	1114.78
421.145	1278.62
421.353	1237.66
421.561	1438.36
421.769	1452.69
421.977	1481.36
422.185	1516.18
422.393	1516.18
422.601	1696.4
422.809	1630.87
423.017	1657.49
423.224	1702.54
423.432	1759.89
423.64	1723.02
423.848	1940.11
424.056	1923.73
424.263	1991.31
424.471	2054.8
424.679	2177.67
424.887	2384.52
425.094	2253.45
425.302	2302.6
425.51	2355.85
425.718	2431.62
425.925	2491.01
426.133	2527.88
426.341	2697.86
426.548	2876.03
426.756	2851.46
426.964	2833.02
427.171	3043.96
427.379	3017.34
427.586	3168.89
427.794	3254.9
428.001	3259
428.209	3543.67
428.417	3367.54
428.624	3637.88
428.832	3680.88
429.039	3711.6
429.247	3723.89
429.454	4074.09
429.662	4254.31
429.869	3977.84
430.076	4397.67
430.284	4166.25
430.491	4401.77
430.699	4723.3
430.906	4581.99
431.114	4741.73
431.321	4891.23
431.528	4924
431.736	5204.57
431.943	5501.53
432.15	5370.46
432.358	5460.57
432.565	5710.42
432.772	5636.69
432.979	5907.02
433.187	6038.09
433.394	6007.38
433.601	6613.57
433.808	6488.65
434.016	6603.33
434.223	6840.9
434.43	7045.7
434.637	7129.66
434.844	7529.02
435.052	7602.74
435.259	7506.49
435.466	7514.68
435.673	7606.84
435.88	8196.65
436.087	8389.16
436.294	8411.69
436.501	8290.86
436.708	8483.37
436.915	8624.68
437.122	9032.22
437.329	9044.51
437.537	9413.15
437.743	9669.14
437.95	9345.56
438.157	10019.35
438.364	10256.91
438.571	10244.62
438.778	10330.64
438.985	11170.3
439.192	10975.75
439.399	11248.13
439.606	10902.02
439.813	11610.62
440.02	12270.06
440.227	12327.41
440.433	12016.12
440.64	12440.04
440.847	12294.64
441.054	12622.31
441.261	13222.37
441.467	13341.15
441.674	13353.44
441.881	13887.96
442.088	14014.93
442.294	13797.85
442.501	14262.74
442.708	14518.73
442.914	14918.09
443.121	15591.87
443.328	15032.77
443.534	16163.25
443.741	15862.2
443.948	15835.58
444.154	16781.74
444.361	16538.03
444.568	16859.56
444.774	16900.52
444.981	16966.06
445.187	17521.06
445.394	18317.72
445.6	18006.42
445.807	19642.75
446.013	18821.52
446.22	19489.15
446.426	19831.16
446.633	20072.82
446.839	21252.45
447.046	19941.75
447.252	21164.39
447.459	21053.8
447.665	21172.58
447.871	22067.55
448.078	23040.33
448.284	21813.6
448.491	22358.36
448.697	23329.09
448.903	23695.68
449.11	24031.55
449.316	23511.36
449.522	24011.07
449.728	24615.22
449.935	24664.37
450.141	24607.03
450.347	24914.22
450.553	24361.27
450.76	24813.87
450.966	25579.81
451.172	25164.07
451.378	25909.54
451.584	25301.29
451.791	26106.14
451.997	25651.49
452.203	26579.22
452.409	26482.97
452.615	26233.11
452.821	25248.04
453.027	25082.16
453.233	26280.22
453.44	25174.31
453.646	25895.2
453.852	25411.88
454.058	25884.96
454.264	25485.61
454.47	26087.71
454.676	25129.26
454.882	26200.35
455.088	24054.08
455.294	24179
455.5	24324.41
455.705	24699.19
455.911	24068.41
456.117	23503.17
456.323	22878.54
456.529	21672.29
456.735	23056.71
456.941	22268.25
457.147	21827.93
457.352	21164.39
457.558	20836.72
457.764	21264.74
457.97	20728.17
458.176	20205.94
458.381	20601.2
458.587	19300.74
458.793	19192.2
458.999	18198.93
459.204	19696
459.41	18882.95
459.616	17670.56
459.821	17355.17
460.027	17803.67
460.233	16923.05
460.438	16353.71
460.644	16697.77
460.85	16062.9
461.055	15761.85
461.261	15579.58
461.466	14291.41
461.672	13916.63
461.878	15028.68
462.083	13973.97
462.289	13701.59
462.494	13490.65
462.7	12974.56
462.905	12585.45
463.111	12954.08
463.316	13103.59
463.522	13007.33
463.727	13089.25
463.932	12796.39
464.138	12605.93
464.343	12892.65
464.549	12397.04
464.754	12804.58
464.959	12820.97
465.165	12607.98
465.37	12249.58
465.575	11717.11
465.781	12255.73
465.986	12149.23
466.191	11960.82
466.397	11637.24
466.602	10994.18
466.807	11461.12
467.012	11414.01
467.218	11444.73
467.423	11215.36
467.628	11164.16
467.833	11792.89
468.038	11432.44
468.244	11149.82
468.449	11424.25
468.654	11063.81
468.859	11151.87
469.064	11178.5
469.269	10560.01
469.474	10506.76
469.679	10574.35
469.885	10371.6
470.09	10693.13
470.295	10764.81
470.5	10424.84
470.705	10394.12
470.91	10078.74
471.115	10230.29
471.32	10447.37
471.525	10199.57
471.73	10007.06
471.935	9968.15
472.139	9413.15
472.344	9599.51
472.549	9402.91
472.754	9536.03
472.959	9394.72
473.164	9026.08
473.369	9044.51
473.574	9511.45
473.778	9230.88
473.983	9237.02
474.188	9110.05
474.393	8706.6
474.598	8716.84
474.802	8489.51
475.007	8692.26
475.212	8677.93
475.417	8249.9
475.621	8487.47
475.826	8247.85
476.031	8194.61
476.235	7875.12
476.44	8155.69
476.645	7903.79
476.849	7828.02
477.054	7787.06
477.259	7848.5
477.463	7754.29
477.668	7524.92
477.872	7637.56
478.077	7420.47
478.282	7457.34
478.486	7344.7
478.691	7438.91
478.895	7318.07
479.1	7131.71
479.304	7238.2
479.509	7008.83
479.713	7217.72
479.918	6902.34
480.122	6820.42
480.326	7010.88
480.531	7057.98
480.735	6879.81
480.94	6767.17
481.144	6992.45
481.348	6578.76
481.553	6863.43
481.757	6656.58
481.961	6857.28
482.166	6951.49
482.37	6761.03
482.574	6519.37
482.778	6713.92
482.983	6789.7
483.187	6709.83
483.391	6857.28
483.595	6658.63
483.8	6638.15
484.004	6861.38
484.208	6634.05
484.412	6732.36
484.616	6722.12
484.821	6793.8
485.025	6582.85
485.229	6742.6
485.433	6748.74
485.637	6812.23
485.841	6558.28
486.045	6675.01
486.249	6711.88
486.453	6527.56
486.657	6718.02
486.861	6732.36
487.065	6533.7
487.269	6582.85
487.473	6597.19
487.677	6697.54
487.881	6730.31
488.085	6511.18
488.289	6799.94
488.493	6681.16
488.697	6720.07
488.901	6666.82
489.105	6765.12
489.309	6742.6
489.512	6775.36
489.716	6828.61
489.92	6908.48
490.124	6853.19
490.328	6867.52
490.531	6705.73
490.735	6865.47
490.939	7008.83
491.143	6883.91
491.346	6754.88
491.55	6910.53
491.754	7002.69
491.958	6828.61
492.161	7019.07
492.365	6998.59
492.569	7019.07
492.772	7137.85
492.976	7236.16
493.18	7029.31
493.383	7225.92
493.587	7219.77
493.79	7391.8
493.994	7336.51
494.197	7260.73
494.401	7387.71
494.605	7627.32
494.808	7705.14
495.012	7645.75
495.215	7649.85
495.419	7617.08
495.622	7592.5
495.825	7766.58
496.029	7662.13
496.232	8014.38
496.436	7918.13
496.639	8114.73
496.843	8094.26
497.046	8210.99
497.249	8391.21
497.453	8231.47
497.656	8708.65
497.859	8454.7
498.063	8571.43
498.266	8626.73
498.469	8561.19
498.673	8886.82
498.876	8831.52
499.079	8849.96
499.282	8886.82
499.485	9261.6
499.689	9253.41
499.892	9398.81
500.095	9433.63
500.298	9681.43
500.501	9599.51
500.705	9720.34
500.908	9953.81
501.111	10158.61
501.314	10050.07
501.517	10365.45
501.72	10381.84
501.923	10224.14
502.126	10478.09
502.329	10555.91
502.532	10736.13
502.735	10764.81
502.938	11041.28
503.141	11092.48
503.344	11225.6
503.547	11241.98
503.75	11493.88
503.953	11801.08
504.156	11801.08
504.359	12028.4
504.562	11858.42
504.765	12173.81
504.968	12143.09
505.17	12274.16
505.373	12458.48
505.576	12675.56
505.779	12784.1
505.982	12704.23
506.185	13236.7
506.387	12880.36
506.59	13031.91
506.793	13586.91
506.996	13337.06
507.198	13789.66
507.401	13750.74
507.604	14004.69
507.807	14113.24
508.009	14268.88
508.212	14402
508.415	14563.79
508.617	14682.57
508.82	14887.37
509.022	14694.86
509.225	15141.32
509.428	15350.21
509.63	15401.41
509.833	15417.79
510.035	15716.79
510.238	15675.84
510.44	15864.25
510.643	16193.97
510.845	16263.6
511.048	16079.29
511.25	16617.9
511.453	16685.48
511.655	17426.85
511.858	16896.42
512.06	17226.15
512.262	17402.27
512.465	17312.16
512.667	17781.15
512.87	17705.37
513.072	17840.54
513.274	18325.91
513.477	18381.2
513.679	18356.63
513.881	18952.59
514.084	18637.2
514.286	18973.07
514.488	18948.49
514.69	19720.57
514.893	19687.81
515.095	19609.98
515.297	19904.89
515.499	20091.26
515.701	20328.82
515.904	20875.63
516.106	20281.72
516.308	20830.57
516.51	21061.99
516.712	20930.92
516.914	21307.75
517.116	21705.06
517.318	21905.76
517.52	21651.81
517.722	21926.24
517.925	22354.26
518.127	22587.73
518.329	22636.88
518.531	22487.38
518.733	22899.02
518.935	23408.97
519.136	23234.89
519.338	23613.76
519.54	23966.01
519.742	23982.4
519.944	24299.83
520.146	24535.35
520.348	24674.61
520.55	24701.23
520.752	25143.6
520.954	25528.61
521.155	25012.53
521.357	25665.83
521.559	25598.24
521.761	26003.74
521.963	25823.52
522.164	26251.55
522.366	26411.29
522.568	26962.19
522.77	26806.55
522.971	27375.88
523.173	27076.88
523.375	27146.51
523.576	27128.08
523.778	27146.51
523.98	27959.55
524.181	27990.27
524.383	28358.91
524.584	28268.8
524.786	28223.74
524.988	28451.06
525.189	28692.72
525.391	29118.7
525.592	28934.39
525.794	29378.79
525.995	29284.59
526.197	29085.93
526.398	29487.34
526.6	29716.71
526.801	29675.75
527.003	30064.86
527.204	29941.99
527.406	30036.19
527.607	30460.12
527.808	30740.69
528.01	29941.99
528.211	30345.44
528.412	30458.07
528.614	30834.9
528.815	30853.33
529.016	30945.49
529.218	30771.41
529.419	31084.75
529.62	31135.95
529.822	31109.33
530.023	30843.09
530.224	31475.91
530.425	31316.17
530.626	31252.69
530.828	31275.21
531.029	31908.04
531.23	31416.52
531.431	31772.87
531.632	31850.69
531.833	31742.15
532.035	31871.17
532.236	31963.33
532.437	32065.73
532.638	31926.47
532.839	32147.65
533.04	32342.21
533.241	31715.53
533.442	32411.84
533.643	32487.61
533.844	32094.4
534.045	32393.4
534.246	31959.24
534.447	32204.99
534.648	32280.77
534.849	32321.73
535.05	32315.58
535.251	32264.38
535.451	32301.25
535.652	32579.77
535.853	32270.53
536.054	32561.34
536.255	32776.37
536.456	32305.34
536.657	32653.5
536.857	32389.31
537.058	32594.11
537.259	32856.25
537.46	32532.67
537.66	32039.11
537.861	32522.43
538.062	32510.14
538.263	32938.16
538.463	32340.16
538.664	32610.49
538.865	32399.55
539.065	32538.81
539.266	32540.86
539.466	32559.29
539.667	32012.48
539.868	32891.06
540.068	32499.9
540.269	32606.39
540.469	32870.58
540.67	32708.79
540.87	32278.72
541.071	32966.84
541.271	32633.02
541.472	32667.83
541.672	32432.32
541.873	32635.06
542.073	32127.17
542.274	32680.12
542.474	32506.04
542.675	32112.83
542.875	32690.36
543.075	32420.03
543.276	31953.09
543.476	32725.18
543.676	32379.07
543.877	32671.93
544.077	32278.72
544.277	32258.24
544.478	32512.19
544.678	32716.98
544.878	32469.18
545.078	32286.91
545.279	32248
545.479	32272.57
545.679	32430.27
545.879	32194.75
546.079	32268.48
546.28	32399.55
546.48	32225.47
546.68	32348.35
546.88	32309.44
547.08	32172.22
547.28	32407.74
547.48	32141.5
547.68	32381.12
547.88	31912.13
548.081	32678.07
548.281	32288.96
548.481	32379.07
548.681	32405.69
548.881	32559.29
549.081	32463.04
549.28	32360.64
549.48	32463.04
549.68	32180.42
549.88	32479.42
550.08	32274.62
550.28	32112.83
550.48	32501.95
550.68	32518.33
550.88	31889.6
551.08	31955.14
551.279	32204.99
551.479	31801.54
551.679	32256.19
551.879	32293.05
552.079	32475.32
552.278	31897.8
552.478	31910.08
552.678	32176.32
552.878	32594.11
553.077	32299.2
553.277	31822.02
553.477	32620.73
553.676	32153.79
553.876	31793.35
554.076	32018.63
554.275	31985.86
554.475	31793.35
554.674	31776.97
554.874	32065.73
555.074	31709.38
555.273	32243.9
555.473	32069.83
555.672	31862.98
555.872	31928.52
556.071	31695.05
556.271	31975.62
556.47	31799.49
556.67	31662.28
556.869	31748.29
557.068	31830.21
557.268	31434.96
557.467	31451.34
557.667	31449.29
557.866	31326.41
558.065	31516.87
558.265	31291.6
558.464	31330.51
558.663	31334.6
558.863	30947.54
559.062	31862.98
559.261	30595.29
559.461	31359.18
559.66	30779.6
559.859	31318.22
560.058	30689.49
560.258	31008.98
560.457	30867.67
560.656	31047.89
560.855	30705.88
561.054	30839
561.253	30400.73
561.453	30554.33
561.652	30619.86
561.851	30904.53
562.05	30589.14
562.249	30501.08
562.448	30636.25
562.647	30470.36
562.846	30439.64
563.045	30173.41
563.244	29989.09
563.443	30716.12
563.642	29559.02
563.841	30040.29
564.04	29792.48
564.239	30521.56
564.438	29941.99
564.637	29851.88
564.836	29714.66
565.035	29411.56
565.234	29645.03
565.432	29681.89
565.631	29567.21
565.83	29489.38
566.029	29370.6
566.228	29044.98
566.427	29438.19
566.625	29178.09
566.824	28573.94
567.023	29057.26
567.222	28551.42
567.42	29202.67
567.619	28616.95
567.818	28555.51
568.016	28420.35
568.215	28745.97
568.414	28639.48
568.612	28750.07
568.811	28408.06
569.01	28018.94
569.208	28242.17
569.407	28578.04
569.605	28154.11
569.804	28219.64
570.002	27781.38
570.201	28092.67
570.4	27732.23
570.598	27820.29
570.797	27687.17
570.995	27414.79
571.193	27324.68
571.392	27674.88
571.59	27334.92
571.789	27085.07
571.987	27437.32
572.186	27322.63
572.384	27222.28
572.582	27173.13
572.781	27201.8
572.979	26804.5
573.177	26970.38
573.376	27080.97
573.574	26507.54
573.772	26607.89
573.971	26390.81
574.169	26329.37
574.367	26233.11
574.565	26474.77
574.763	26218.78
574.962	26222.87
575.16	25958.69
575.358	26024.22
575.556	25930.01
575.754	26208.54
575.952	25571.62
576.151	25800.99
576.349	25563.43
576.547	25438.5
576.745	25461.03
576.943	25768.23
577.141	25561.38
577.339	25444.65
577.537	25356.58
577.735	25041.2
577.933	25422.12
578.131	25282.86
578.329	24928.56
578.527	24901.93
578.725	25112.88
578.923	24877.36
579.121	24590.64
579.319	24662.32
579.516	24883.5
579.714	24676.66
579.912	24738.1
580.11	24469.81
580.308	24688.95
580.506	24584.5
580.704	23968.06
580.901	24125.75
581.099	24490.29
581.297	24035.64
581.495	24185.15
581.692	24291.64
581.89	23656.77
582.088	23914.81
582.285	23413.06
582.483	23898.43
582.681	23505.22
582.878	23501.12
583.076	23062.86
583.274	23652.67
583.471	23380.29
583.669	23232.84
583.866	23036.24
584.064	23419.21
584.262	23079.24
584.459	23109.96
584.657	22784.33
584.854	23226.7
585.052	22552.91
585.249	22937.93
585.447	23112.01
585.644	22579.54
585.841	22667.6
586.039	22659.41
586.236	22403.41
586.434	22102.36
586.631	22169.94
586.828	22206.81
587.026	22380.89
587.223	22128.99
587.42	22106.46
587.618	21866.85
587.815	21838.17
588.012	21852.51
588.21	21987.68
588.407	21973.34
588.604	21735.78
588.801	21389.67
588.999	21545.31
589.196	21545.31
589.393	21447.01
589.59	21334.37
589.787	21322.09
589.984	21258.6
590.182	21000.55
590.379	21391.72
590.576	21078.38
590.773	20967.79
590.97	20801.9
591.167	20777.33
591.364	20584.82
591.561	20693.36
591.758	20812.14
591.955	20603.25
592.152	20736.37
592.349	20867.44
592.546	20437.36
592.743	20654.45
592.94	20337.01
593.137	20281.72
593.334	20543.86
593.531	20017.53
593.727	20283.77
593.924	20074.87
594.121	20144.5
594.318	20144.5
594.515	19951.99
594.712	20130.17
594.908	20081.02
595.105	20199.8
595.302	19427.71
595.499	19716.48
595.696	19503.49
595.892	19466.63
596.089	19530.11
596.286	19376.51
596.482	19401.09
596.679	19351.94
596.876	19155.33
597.072	18997.64
597.269	19298.69
597.466	18983.31
597.662	19249.54
597.859	19014.02
598.055	18895.24
598.252	18893.19
598.448	18995.59
598.645	18923.91
598.841	18518.42
599.038	18577.81
599.234	18446.74
599.431	18393.49
599.627	18289.04
599.824	18178.45
600.02	18284.95
600.217	18338.19
600.413	18260.37
600.609	17912.22
600.806	18203.03
601.002	18151.83
601.198	17764.76
601.395	17961.37
601.591	18014.62
601.787	17961.37
601.984	17549.73
602.18	17838.49
602.376	17621.41
602.572	17600.93
602.769	17373.6
602.965	17349.03
603.161	17691.04
603.357	17238.44
603.553	17525.15
603.75	17469.86
603.946	17029.54
604.142	17469.86
604.338	16904.62
604.534	17107.37
604.73	16849.32
604.926	16789.93
605.122	17121.7
605.318	16624.04
605.514	16587.18
605.71	17013.16
605.906	16552.37
606.102	16701.87
606.298	16798.12
606.494	16548.27
606.69	16732.59
606.886	16562.61
607.082	16122.29
607.278	16495.02
607.474	16167.35
607.67	16245.17
607.866	16200.12
608.062	16474.54
608.257	16165.3
608.453	16032.18
608.649	16040.37
608.845	15993.27
609.041	15937.98
609.236	16449.97
609.432	15788.47
609.628	15901.11
609.824	16019.89
610.019	15901.11
610.215	15950.26
610.411	15923.64
610.606	15641.02
610.802	15686.08
610.998	15757.75
611.193	15753.66
611.389	15514.05
611.584	15526.33
611.78	15598.01
611.976	15714.75
612.171	15464.89
612.367	15628.73
612.562	15155.65
612.758	15212.99
612.953	15235.52
613.149	15411.65
613.344	15182.27
613.539	15468.99
613.735	15034.82
613.93	15387.07
614.126	15284.67
614.321	15268.29
614.517	14940.61
614.712	15133.12
614.907	15137.22
615.103	14989.77
615.298	15008.2
615.493	15307.2
615.688	14586.32
615.884	15309.25
616.079	14639.56
616.274	14832.07
616.47	14827.98
616.665	14729.67
616.86	14614.99
617.055	14799.3
617.25	14625.23
617.445	14606.8
617.641	14412.24
617.836	14643.66
618.031	14289.36
618.226	14576.08
618.421	14404.05
618.616	14483.92
618.811	14119.38
619.006	14344.66
619.201	14209.49
619.396	13896.15
619.591	13869.53
619.786	13922.77
619.981	13814.23
620.176	13930.97
620.371	13732.31
620.566	13607.39
620.761	13859.29
620.956	13953.49
621.151	13529.56
621.346	13674.97
621.541	13539.8
621.735	13418.97
621.93	13470.17
622.125	13165.03
622.32	13273.57
622.515	13183.46
622.709	13189.6
622.904	13122.02
623.099	13033.96
623.294	12941.8
623.488	12806.63
623.683	13054.44
623.878	12700.14
624.072	12782.06
624.267	12796.39
624.462	12423.66
624.656	12499.44
624.851	12364.27
625.046	12378.61
625.24	12237.3
625.435	12343.79
625.629	12319.21
625.824	12091.89
626.018	12208.62
626.213	11739.64
626.407	11872.76
626.602	11778.55
626.796	11887.09
626.991	11842.04
627.185	11678.2
627.38	11883
627.574	11545.08
627.768	11268.61
627.963	11411.96
628.157	11346.43
628.352	11131.39
628.546	11026.95
628.74	11258.37
628.935	11092.48
629.129	10992.13
629.323	10930.69
629.517	10975.75
629.712	10816.01
629.906	10682.89
630.1	10693.13
630.294	10850.82
630.489	10631.69
630.683	10666.5
630.877	10301.97
631.071	10678.79
631.265	10523.15
631.459	10275.34
631.653	10263.05
631.848	10400.27
632.042	10174.99
632.236	10258.96
632.43	10138.13
632.624	10187.28
632.818	10097.17
633.012	9974.29
633.206	9880.08
633.4	9849.36
633.594	9683.48
633.788	9779.73
633.982	9636.38
634.176	9763.35
634.369	9568.79
634.563	9615.9
634.757	9468.44
634.951	9658.9
635.145	9548.31
635.339	9331.23
635.533	9224.73
635.726	9314.84
635.92	9187.87
636.114	9144.86
636.308	9175.58
636.501	9151.01
636.695	9173.53
636.889	8925.73
637.083	8849.96
637.276	8995.36
637.47	8759.84
637.664	8899.11
637.857	8823.33
638.051	8688.17
638.244	8622.63
638.438	8675.88
638.632	8737.32
638.825	8579.62
639.019	8440.36
639.212	8301.1
639.406	8428.07
639.599	8258.09
639.793	8221.23
639.986	8129.07
640.18	8239.66
640.373	8135.21
640.567	8086.06
640.76	8135.21
640.954	7995.95
641.147	8110.64
641.34	7873.07
641.534	7772.72
641.727	7969.33
641.92	7883.31
642.114	7725.62
642.307	7651.89
642.5	7696.95
642.694	7549.5
642.887	7539.26
643.08	7639.61
643.273	7582.26
643.467	7588.41
643.66	7330.36
643.853	7303.74
644.046	7195.2
644.239	7504.44
644.432	7205.44
644.626	7236.16
644.819	7146.05
645.012	7172.67
645.205	7047.74
645.398	6959.68
645.591	6890.05
645.784	6877.76
645.977	7006.78
646.17	6890.05
646.363	6951.49
646.556	6849.09
646.749	6797.89
646.942	6715.97
647.135	6795.84
647.328	6842.95
647.521	6615.62
647.714	6531.65
647.907	6699.59
648.099	6744.64
648.292	6621.77
648.485	6525.51
648.678	6443.59
648.871	6312.52
649.064	6427.21
649.256	6249.04
649.449	6322.76
649.642	6382.15
649.835	6259.28
650.027	6210.12
650.22	6077.01
650.413	6048.33
650.605	6062.67
650.798	6163.02
650.991	6025.81
651.183	6240.84
651.376	6062.67
651.568	6093.39
651.761	5929.55
651.954	5917.26
652.146	5925.46
652.339	5790.29
652.531	5900.88
652.724	5814.87
652.916	5694.04
653.109	5753.43
653.301	5771.86
653.494	5761.62
653.686	5651.03
653.879	5640.79
654.071	5640.79
654.263	5636.69
654.456	5548.63
654.648	5818.96
654.84	5364.31
655.033	5497.43
655.225	5442.14
655.417	5360.22
655.61	5339.74
655.802	5220.95
655.994	5282.39
656.186	5296.73
656.379	5294.68
656.571	5206.62
656.763	5126.75
656.955	5298.78
657.148	5112.41
657.34	5132.89
657.532	5026.4
657.724	5050.97
657.916	5136.99
658.108	5169.76
658.3	5010.01
658.492	4895.33
658.684	4860.51
658.876	4938.34
659.068	5108.32
659.26	4840.03
659.452	4784.74
659.644	4842.08
659.836	4782.69
660.028	4823.65
660.22	4811.36
660.412	4719.2
660.604	4680.29
660.796	4739.68
660.988	4700.77
661.18	4625
661.372	4563.56
661.563	4579.94
661.755	4541.03
661.947	4471.4
662.139	4502.12
662.331	4440.68
662.522	4428.39
662.714	4305.51
662.906	4389.48
663.097	4352.62
663.289	4399.72
663.481	4495.97
663.673	4426.34
663.864	4430.44
664.056	4379.24
664.247	4334.18
664.439	4170.35
664.631	4246.12
664.822	4196.97
665.014	4178.54
665.205	4125.29
665.397	4192.87
665.588	4207.21
665.78	3988.08
665.971	4086.38
666.163	4168.3
666.354	4135.53
666.546	4029.04
666.737	3959.41
666.929	4100.72
667.12	4092.52
667.311	4004.46
667.503	3990.13
667.694	3988.08
667.885	3965.55
668.077	3992.17
668.268	3988.08
668.459	3996.27
668.651	3885.68
668.842	3824.24
669.033	3834.48
669.224	3777.14
669.416	3830.38
669.607	3924.59
669.798	3723.89
669.989	3703.41
670.18	3727.99
670.371	3846.77
670.563	3678.83
670.754	3871.34
670.945	3760.75
671.136	3725.94
671.327	3783.28
671.518	3777.14
671.709	3785.33
671.9	3648.11
672.091	3521.14
672.282	3631.73
672.473	3576.44
672.664	3635.83
672.855	3553.91
673.046	3666.55
673.237	3627.64
673.428	3537.52
673.619	3598.96
673.809	3639.92
674	3437.17
674.191	3480.18
674.382	3480.18
674.573	3525.24
674.764	3377.78
674.954	3560.05
675.145	3521.14
675.336	3553.91
675.527	3461.75
675.717	3435.13
675.908	3418.74
676.099	3392.12
676.289	3574.39
676.48	3517.05
676.671	3418.74
676.861	3510.9
677.052	3383.93
677.243	3365.5
677.433	3494.52
677.624	3336.82
677.814	3381.88
678.005	3377.78
678.195	3328.63
678.386	3449.46
678.576	3422.84
678.767	3371.64
678.957	3394.17
679.148	3408.5
679.338	3345.02
679.529	3277.43
679.719	3277.43
679.909	3310.2
680.1	3353.21
680.29	3392.12
680.481	3279.48
680.671	3287.67
680.861	3222.14
681.052	3222.14
681.242	3336.82
681.432	3412.6
681.622	3105.4
681.813	3281.53
682.003	3355.26
682.193	3302.01
682.383	3234.43
682.573	3179.13
682.764	3138.17
682.954	3150.46
683.144	3324.54
683.334	3207.8
683.524	3117.69
683.714	3246.71
683.904	3144.31
684.094	3099.26
684.284	3074.68
684.474	3181.18
684.664	3189.37
684.854	3203.71
685.044	3152.51
685.234	3134.07
685.424	3152.51
685.614	3144.31
685.804	3129.98
685.994	3181.18
686.184	3187.32
686.374	3025.53
686.564	3148.41
686.753	3068.54
686.943	2855.55
687.133	3015.29
687.323	3111.55
687.513	2990.72
687.702	3031.68
687.892	3068.54
688.082	3041.92
688.272	3158.65
688.461	2974.33
688.651	3031.68
688.841	2931.33
689.03	2902.65
689.22	2914.94
689.41	2902.65
689.599	2818.69
689.789	2888.32
689.979	2775.68
690.168	2890.37
690.358	3019.39
690.547	2833.02
690.737	2802.3
690.926	2790.02
691.116	2751.1
691.305	2671.23
691.495	2847.36
691.684	2804.35
691.874	2873.98
692.063	2714.24
692.252	2699.91
692.442	2845.31
692.631	2671.23
692.82	2781.82
693.01	2593.41
693.199	2660.99
693.388	2734.72
693.578	2654.85
693.767	2765.44
693.956	2689.67
694.146	2710.15
694.335	2546.31
694.524	2638.47
694.713	2701.95
694.902	2611.84
695.092	2615.94
695.281	2642.56
695.47	2538.12
695.659	2656.9
695.848	2531.97
696.037	2486.92
696.226	2636.42
696.415	2499.2
696.604	2605.7
696.793	2574.98
696.982	2593.41
697.171	2560.64
697.36	2669.19
697.549	2568.84
697.738	2638.47
697.927	2554.5
698.116	2538.12
698.305	2501.25
698.494	2558.6
698.683	2491.01
698.872	2556.55
699.061	2527.88
699.25	2464.39
699.438	2587.27
699.627	2505.35
699.816	2529.92
700.005	2540.16
700.193	2503.3
700.382	2615.94
700.571	2558.6
700.76	2564.74
700.948	2519.68
701.137	2466.44
701.326	2624.13
701.514	2558.6
701.703	2437.77
701.892	2491.01
702.08	2452.1
702.269	2495.11
702.457	2439.81
702.646	2419.33
702.834	2482.82
703.023	2511.49
703.212	2439.81
703.4	2548.36
703.589	2448.01
703.777	2470.53
703.965	2413.19
704.154	2458.25
704.342	2529.92
704.531	2462.34
704.719	2423.43
704.907	2501.25
705.096	2495.11
705.284	2429.57
705.472	2560.64
705.661	2556.55
705.849	2511.49
706.037	2519.68
706.226	2566.79
706.414	2501.25
706.602	2583.17
706.79	2529.92
706.979	2515.59
707.167	2476.68
707.355	2501.25
707.543	2495.11
707.731	2468.49
707.919	2488.96
708.107	2327.18
708.296	2429.57
708.484	2531.97
708.672	2501.25
708.86	2460.29
709.048	2497.16
709.236	2570.88
709.424	2566.79
709.612	2581.12
709.8	2364.04
709.988	2484.87
710.176	2540.16
710.364	2564.74
710.551	2603.65
710.739	2443.91
710.927	2364.04
711.115	2458.25
711.303	2474.63
711.491	2499.2
711.679	2497.16
711.866	2548.36
712.054	2458.25
712.242	2570.88
712.43	2626.18
712.617	2478.72
712.805	2513.54
712.993	2570.88
713.181	2456.2
713.368	2497.16
713.556	2484.87
713.744	2466.44
713.931	2560.64
714.119	2521.73
714.306	2607.75
714.494	2511.49
714.682	2480.77
714.869	2499.2
715.057	2521.73
715.244	2579.08
715.432	2658.95
715.619	2534.02
715.807	2513.54
715.994	2515.59
716.182	2529.92
716.369	2601.6
716.556	2624.13
716.744	2529.92
716.931	2599.55
717.119	2579.08
717.306	2687.62
717.493	2454.15
717.681	2656.9
717.868	2525.83
718.055	2568.84
718.242	2585.22
718.43	2650.75
718.617	2626.18
718.804	2511.49
718.991	2593.41
719.179	2519.68
719.366	2548.36
719.553	2589.32
719.74	2626.18
719.927	2546.31
720.114	2615.94
720.301	2529.92
720.488	2585.22
720.676	2585.22
720.863	2605.7
721.05	2699.91
721.237	2531.97
721.424	2648.71
721.611	2644.61
721.798	2536.07
721.985	2558.6
722.172	2620.03
722.358	2548.36
722.545	2609.79
722.732	2456.2
722.919	2628.23
723.106	2534.02
723.293	2628.23
723.48	2599.55
723.667	2599.55
723.853	2562.69
724.04	2724.48
724.227	2665.09
724.414	2638.47
724.6	2548.36
724.787	2536.07
724.974	2732.67
725.161	2591.36
725.347	2566.79
725.534	2548.36
725.72	2546.31
725.907	2628.23
726.094	2470.53
726.28	2620.03
726.467	2503.3
726.653	2716.29
726.84	2663.04
727.027	2615.94
727.213	2568.84
727.4	2624.13
727.586	2550.4
727.773	2538.12
727.959	2601.6
728.145	2605.7
728.332	2701.95
728.518	2536.07
728.705	2644.61
728.891	2589.32
729.077	2605.7
729.264	2574.98
729.45	2577.03
729.636	2624.13
729.823	2593.41
730.009	2724.48
730.195	2609.79
730.382	2685.57
730.568	2697.86
730.754	2574.98
730.94	2544.26
731.126	2615.94
731.313	2646.66
731.499	2521.73
731.685	2378.37
731.871	2540.16
732.057	2646.66
732.243	2554.5
732.429	2589.32
732.615	2536.07
732.801	2648.71
732.987	2499.2
733.173	2527.88
733.359	2609.79
733.545	2632.32
733.731	2658.95
733.917	2538.12
734.103	2568.84
734.289	2601.6
734.475	2529.92
734.661	2636.42
734.847	2482.82
735.033	2626.18
735.219	2644.61
735.404	2654.85
735.59	2605.7
735.776	2402.95
735.962	2609.79
736.148	2529.92
736.333	2607.75
736.519	2617.99
736.705	2607.75
736.89	2476.68
737.076	2458.25
737.262	2529.92
737.447	2470.53
737.633	2445.96
737.819	2488.96
738.004	2476.68
738.19	2474.63
738.375	2531.97
738.561	2503.3
738.747	2638.47
738.932	2470.53
739.118	2425.48
739.303	2429.57
739.489	2640.51
739.674	2478.72
739.859	2421.38
740.045	2290.31
740.23	2400.9
740.416	2417.29
740.601	2456.2
740.786	2437.77
740.972	2382.47
741.157	2413.19
741.342	2333.32
741.528	2370.18
741.713	2374.28
741.898	2294.41
742.084	2310.79
742.269	2353.8
742.454	2318.98
742.639	2296.46
742.824	2374.28
743.01	2290.31
743.195	2474.63
743.38	2349.7
743.565	2298.5
743.75	2452.1
743.935	2275.98
744.12	2429.57
744.305	2175.63
744.49	2275.98
744.675	2214.54
744.86	2208.39
745.045	2286.22
745.23	2241.16
745.415	2263.69
745.6	2120.33
745.785	2103.95
745.97	2175.63
746.155	2146.95
746.34	2128.52
746.525	2132.62
746.71	2075.28
746.895	2144.91
747.079	1985.16
747.264	2036.36
747.449	2136.71
747.634	2112.14
747.819	2087.56
748.003	1985.16
748.188	1981.07
748.373	2062.99
748.557	1991.31
748.742	1923.73
748.927	1944.2
749.111	1890.96
749.296	1917.58
749.481	1938.06
749.665	2069.13
749.85	1798.8
750.034	1866.38
750.219	1919.63
750.404	1864.33
750.588	1888.91
750.773	1942.16
750.957	1884.81
751.141	1833.61
751.326	1798.8
751.51	1827.47
751.695	1778.32
751.879	1739.41
752.064	1811.09
752.248	1766.03
752.432	1735.31
752.617	1710.74
752.801	1753.74
752.985	1776.27
753.17	1653.39
753.354	1637.01
753.538	1567.38
753.722	1702.54
753.907	1723.02
754.091	1579.67
754.275	1565.33
754.459	1569.43
754.643	1612.43
754.828	1598.1
755.012	1680.02
755.196	1557.14
755.38	1604.24
755.564	1538.71
755.748	1581.71
755.932	1499.8
756.116	1530.52
756.3	1491.6
756.484	1499.8
756.668	1532.56
756.852	1364.63
757.036	1497.75
757.22	1401.49
757.404	1448.6
757.588	1340.05
757.772	1417.88
757.956	1458.84
758.14	1471.12
758.323	1344.15
758.507	1350.29
758.691	1397.4
758.875	1325.72
759.059	1450.64
759.242	1282.71
759.426	1354.39
759.61	1319.57
759.794	1340.05
759.977	1307.29
760.161	1346.2
760.345	1319.57
760.528	1264.28
760.712	1233.56
760.895	1268.38
761.079	1178.26
761.263	1237.66
761.446	1165.98
761.63	1227.42
761.813	1264.28
761.997	1225.37
762.18	1266.33
762.364	1245.85
762.547	1100.44
762.731	1178.26
762.914	1194.65
763.098	1165.98
763.281	1147.55
763.464	1194.65
763.648	1145.5
763.831	1100.44
764.015	1190.55
764.198	1139.35
764.381	1192.6
764.564	1096.35
764.748	1110.68
764.931	1163.93
765.114	1165.98
765.297	1004.19
765.481	1082.01
765.664	1057.43
765.847	1108.63
766.03	1061.53
766.213	1022.62
766.397	1024.67
766.58	1055.39
766.763	1110.68
766.946	1096.35
767.129	1041.05
767.312	1073.82
767.495	1043.1
767.678	1006.24
767.861	1030.81
768.044	1131.16
768.227	1059.48
768.41	924.32
768.593	1024.67
768.776	1041.05
768.959	1000.09
769.142	955.04
769.324	961.18
769.507	936.6
769.69	1057.43
769.873	987.8
770.056	1143.45
770.239	942.75
770.421	905.88
770.604	930.46
770.787	934.56
770.97	938.65
771.152	887.45
771.335	856.73
771.518	924.32
771.7	883.36
771.883	891.55
772.066	854.69
772.248	909.98
772.431	914.08
772.613	930.46
772.796	871.07
772.978	905.88
773.161	877.21
773.343	932.51
773.526	834.21
773.708	869.02
773.891	836.25
774.073	797.34
774.256	942.75
774.438	850.59
774.621	768.67
774.803	799.39
774.985	813.73
775.168	746.14
775.35	815.77
775.532	848.54
775.715	836.25
775.897	768.67
776.079	780.96
776.261	797.34
776.444	735.9
776.626	844.45
776.808	692.9
776.99	780.96
777.173	737.95
777.355	682.66
777.537	756.38
777.719	711.33
777.901	721.57
778.083	711.33
778.265	629.41
778.447	733.86
778.629	651.94
778.811	727.71
778.993	725.66
779.175	703.14
779.357	604.83
779.539	619.17
779.721	694.94
779.903	639.65
780.085	696.99
780.267	645.79
780.449	635.55
780.631	692.9
780.812	621.22
780.994	653.98
781.176	699.04
781.358	512.67
781.54	676.51
781.721	653.98
781.903	596.64
782.085	615.07
782.267	580.26
782.448	555.68
782.63	527.01
782.812	537.25
782.993	641.7
783.175	520.87
783.357	479.91
783.538	662.18
783.72	494.24
783.901	627.36
784.083	563.87
784.264	592.55
784.446	506.53
784.627	504.48
784.809	502.44
784.99	500.39
785.172	527.01
785.353	508.58
785.535	438.95
785.716	553.63
785.897	428.71
786.079	432.8
786.26	518.82
786.441	479.91
786.623	445.09
786.804	500.39
786.985	434.85
787.167	447.14
787.348	498.34
787.529	449.19
787.71	563.87
787.891	518.82
788.073	420.52
788.254	457.38
788.435	449.19
788.616	430.76
788.797	465.57
788.978	385.7
789.159	434.85
789.34	434.85
789.522	441
789.703	426.66
789.884	479.91
790.065	381.6
790.246	354.98
790.427	416.42
790.607	408.23
790.788	424.61
790.969	402.08
791.15	449.19
791.331	400.04
791.512	334.5
791.693	348.84
791.874	400.04
792.054	438.95
792.235	406.18
792.416	383.65
792.597	422.56
792.778	363.17
792.958	381.6
793.139	426.66
793.32	375.46
793.5	332.45
793.681	400.04
793.862	412.32
794.042	342.69
794.223	326.31
794.404	354.98
794.584	379.56
794.765	299.69
794.945	357.03
795.126	238.25
795.306	350.89
795.487	369.32
795.667	254.63
795.848	395.94
796.028	295.59
796.209	252.58
796.389	285.35
796.57	279.21
796.75	336.55
796.93	285.35
797.111	318.12
797.291	207.53
797.471	311.97
797.652	291.49
797.832	387.75
798.012	230.06
798.192	350.89
798.373	277.16
798.553	266.92
798.733	318.12
798.913	342.69
799.093	262.82
799.274	273.06
799.454	205.48
799.634	320.17
799.814	328.36
799.994	281.25
800.174	260.77
800.354	250.53
800.534	205.48
800.714	340.65
800.894	250.53
801.074	254.63
801.254	283.3
801.434	238.25
801.614	264.87
801.794	293.54
801.974	645.79
802.154	266.92
802.334	266.92
802.514	264.87
802.693	244.39
802.873	236.2
803.053	209.58
803.233	232.1
803.413	277.16
803.592	240.3
803.772	275.11
803.952	223.91
804.131	217.77
804.311	285.35
804.491	225.96
804.67	209.58
804.85	271.01
805.03	240.3
805.209	242.34
805.389	219.82
805.568	262.82
805.748	199.34
805.928	230.06
806.107	268.97
806.287	191.14
806.466	252.58
806.646	236.2
806.825	234.15
807.004	244.39
807.184	238.25
807.363	189.1
807.543	219.82
807.722	230.06
807.901	223.91
808.081	289.45
808.26	172.71
808.439	207.53
808.619	209.58
808.798	273.06
808.977	199.34
809.156	162.47
809.336	174.76
809.515	174.76
809.694	217.77
809.873	232.1
810.052	250.53
810.231	156.33
810.411	111.27
810.59	187.05
810.769	176.81
810.948	180.9
811.127	162.47
811.306	201.38
811.485	189.1
811.664	154.28
811.843	217.77
812.022	166.57
812.201	182.95
812.38	217.77
812.559	96.94
812.737	199.34
812.916	121.51
813.095	107.18
813.274	201.38
813.453	160.42
813.632	207.53
813.811	191.14
813.989	180.9
814.168	133.8
814.347	98.99
814.526	191.14
814.704	137.9
814.883	215.72
815.062	180.9
815.24	244.39
815.419	191.14
815.598	232.1
815.776	144.04
815.955	158.38
816.133	154.28
816.312	119.46
816.49	170.66
816.669	133.8
816.847	129.7
817.026	207.53
817.204	115.37
817.383	156.33
817.561	121.51
817.74	137.9
817.918	107.18
818.097	180.9
818.275	117.42
818.453	193.19
818.632	160.42
818.81	123.56
818.988	96.94
819.167	176.81
819.345	172.71
819.523	189.1
819.701	168.62
819.879	109.23
820.058	92.84
820.236	154.28
820.414	178.86
820.592	141.99
820.77	195.24
820.948	127.66
821.127	39.59
821.305	176.81
821.483	103.08
821.661	146.09
821.839	131.75
822.017	113.32
822.195	152.23
822.373	107.18
822.551	107.18
822.729	131.75
822.907	74.41
823.085	141.99
823.262	78.51
823.44	170.66
823.618	152.23
823.796	172.71
823.974	133.8
824.152	88.75
824.329	62.12
824.507	129.7
824.685	80.55
824.863	109.23
825.04	123.56
825.218	121.51
825.396	8.87
825.574	125.61
825.751	144.04
825.929	107.18
826.107	139.94
826.284	172.71
826.462	78.51
826.639	123.56
826.817	96.94
826.994	113.32
827.172	107.18
827.349	168.62
827.527	119.46
827.704	111.27
827.882	117.42
828.059	84.65
828.237	98.99
828.414	84.65
828.591	29.35
828.769	80.55
828.946	178.86
829.124	203.43
829.301	74.41
829.478	146.09
829.655	135.85
829.833	27.31
830.01	29.35
830.187	166.57
830.364	119.46
830.542	133.8
830.719	135.85
830.896	162.47
831.073	88.75
831.25	25.26
831.427	158.38
831.604	146.09
831.782	98.99
831.959	88.75
832.136	127.66
832.313	109.23
832.49	80.55
832.667	152.23
832.844	119.46
833.021	125.61
833.198	125.61
833.374	115.37
833.551	58.03
833.728	113.32
833.905	92.84
834.082	98.99
834.259	25.26
834.436	96.94
834.612	119.46
834.789	127.66
834.966	58.03
835.143	113.32
835.319	70.31
835.496	133.8
835.673	98.99
835.85	131.75
836.026	41.64
836.203	82.6
836.38	53.93
836.556	51.88
836.733	70.31
836.909	31.4
837.086	19.11
837.262	31.4
837.439	47.79
837.616	8.87
837.792	78.51
837.968	72.36
838.145	82.6
838.321	64.17
838.498	141.99
838.674	90.79
838.851	96.94
839.027	58.03
839.203	74.41
839.38	119.46
839.556	64.17
839.732	88.75
839.909	41.64
840.085	96.94
840.261	60.07
840.437	129.7
840.614	53.93
840.79	53.93
840.966	12.97
841.142	8.87
841.318	-1.37
841.494	94.89
841.671	62.12
841.847	86.7
842.023	58.03
842.199	90.79
842.375	25.26
842.551	27.31
842.727	19.11
842.903	123.56
843.079	68.27
843.255	19.11
843.431	72.36
843.607	115.37
843.783	43.69
843.959	115.37
844.134	12.97
844.31	68.27
844.486	21.16
844.662	49.83
844.838	86.7
845.013	150.18
845.189	66.22
845.365	49.83
845.541	-1.37
845.716	53.93
845.892	96.94
846.068	47.79
846.244	90.79
846.419	101.03
846.595	88.75
846.77	25.26
846.946	76.46
847.122	-32.08
847.297	62.12
847.473	113.32
847.648	58.03
847.824	86.7
847.999	-25.94
848.175	19.11
848.35	72.36
848.526	80.55
848.701	17.07
848.876	90.79
849.052	103.08
849.227	31.4
849.403	47.79
849.578	53.93
849.753	-32.08
849.929	60.07
850.104	51.88
850.279	119.46
850.454	17.07
850.63	127.66
850.805	55.98
850.98	41.64
851.155	-1.37
851.33	68.27
851.505	25.26
851.681	8.87
851.856	-3.41
852.031	17.07
852.206	90.79
852.381	96.94
852.556	55.98
852.731	45.74
852.906	64.17
853.081	45.74
853.256	78.51
853.431	90.79
853.606	-17.75
853.781	47.79
853.956	19.11
854.131	41.64
854.305	39.59
854.48	35.5
854.655	84.65
854.83	4.78
855.005	19.11
855.18	21.16
855.354	47.79
855.529	115.37
855.704	-7.51
855.879	-13.65
856.053	43.69
856.228	-9.56
856.403	-40.28
856.577	80.55
856.752	8.87
856.926	8.87
857.101	82.6
857.276	94.89
857.45	49.83
857.625	82.6
857.799	92.84
857.974	64.17
858.148	-7.51
858.323	53.93
858.497	-25.94
858.672	2.73
858.846	47.79
859.02	111.27
859.195	43.69
859.369	6.83
859.543	-5.46
859.718	55.98
859.892	41.64
860.066	64.17
860.241	21.16
860.415	29.35
860.589	51.88
860.763	4.78
860.938	84.65
861.112	51.88
861.286	64.17
861.46	49.83
861.634	80.55
861.808	39.59
861.982	25.26
862.157	-15.7
862.331	10.92
862.505	33.45
862.679	31.4
862.853	41.64
863.027	-9.56
863.201	103.08
863.375	15.02
863.549	10.92
863.722	-30.04
863.896	43.69
864.07	27.31
864.244	-46.42
864.418	37.55
864.592	-40.28
864.766	19.11
864.939	33.45
865.113	8.87
865.287	129.7
865.461	70.31
865.634	4.78
865.808	-7.51
865.982	-17.75
866.156	23.21
866.329	39.59
866.503	4.78
866.676	94.89
866.85	-23.89
867.024	17.07
867.197	88.75
867.371	68.27
867.544	45.74
867.718	47.79
867.891	29.35
868.065	-21.84
868.238	27.31
868.412	47.79
868.585	23.21
868.759	-7.51
868.932	82.6
869.105	-5.46
869.279	47.79
869.452	29.35
869.625	19.11
869.799	47.79
869.972	-27.99
870.145	-38.23
870.319	80.55
870.492	121.51
870.665	19.11
870.838	-21.84
871.011	4.78
871.185	43.69
871.358	25.26
871.531	27.31
871.704	31.4
871.877	10.92
872.05	-48.47
872.223	15.02
872.396	21.16
872.569	64.17
872.742	37.55
872.915	64.17
873.088	53.93
873.261	35.5
873.434	8.87
873.607	-50.52
873.78	23.21
873.953	-5.46
874.126	68.27
874.299	72.36
874.471	10.92
874.644	-9.56
874.817	19.11
874.99	8.87
875.163	19.11
875.335	88.75
875.508	-32.08
875.681	98.99
875.853	-34.13
876.026	23.21
876.199	-19.8
876.371	25.26
876.544	51.88
876.717	96.94
876.889	10.92
877.062	-32.08
877.234	23.21
877.407	47.79
877.579	23.21
877.752	21.16
877.924	49.83
878.097	-23.89
878.269	8.87
878.442	-48.47
878.614	29.35
878.786	68.27
878.959	0.68
879.131	0.68
879.303	-50.52
879.476	27.31
879.648	-46.42
879.82	0.68
879.993	101.03
880.165	51.88
880.337	29.35
880.509	21.16
880.681	76.46
880.854	37.55
881.026	53.93
881.198	12.97
881.37	49.83
881.542	49.83
881.714	-5.46
881.886	53.93
882.058	55.98
882.23	25.26
882.402	6.83
882.574	82.6
882.746	84.65
882.918	27.31
883.09	4.78
883.262	-66.9
883.434	33.45
883.606	47.79
883.778	8.87
883.95	45.74
884.122	-27.99
884.293	10.92
884.465	43.69
884.637	49.83
884.809	33.45
884.98	78.51
885.152	-25.94
885.324	90.79
885.496	39.59
885.667	10.92
885.839	-9.56
886.011	-7.51
886.182	43.69
886.354	0.68
886.525	47.79
886.697	8.87
886.869	80.55
887.04	-54.61
887.212	19.11
887.383	66.22
887.555	35.5
887.726	51.88
887.897	33.45
888.069	-25.94
888.24	-27.99
888.412	39.59
888.583	74.41
888.754	60.07
888.926	-17.75
889.097	74.41
889.268	58.03
889.44	-21.84
889.611	-85.33
889.782	35.5
889.953	6.83
890.125	47.79
890.296	80.55
890.467	53.93
890.638	-40.28
890.809	-44.37
890.98	-15.7
891.151	-9.56
891.323	103.08
891.494	4.78
891.665	-60.76
891.836	-60.76
892.007	-48.47
892.178	-9.56
892.349	0.68
892.52	-15.7
892.691	33.45
892.862	72.36
893.032	-44.37
893.203	8.87
893.374	94.89
893.545	31.4
893.716	4.78
893.887	60.07
894.057	-40.28
894.228	2.73
894.399	12.97
894.57	68.27
894.74	25.26
894.911	45.74
895.082	12.97
895.253	51.88
895.423	-42.32
895.594	-5.46
895.764	58.03
895.935	-21.84
896.106	115.37
896.276	21.16
896.447	-19.8
896.617	37.55
896.788	-13.65
896.958	17.07
897.129	15.02
897.299	27.31
897.47	4.78
897.64	60.07
897.81	21.16
897.981	103.08
898.151	-27.99
898.322	-9.56
898.492	84.65
898.662	-73.04
898.832	39.59
899.003	70.31
899.173	29.35
899.343	-36.18
899.513	-42.32
