Data from USB4F104151__10__11-51-07-891.txt Node

Date: Fri Mar 14 11:51:07 EDT 2025
User: louis
Spectrometer: USB4F10415
Trigger mode: 4
Integration Time (sec): 2.000000E-2
Scans to average: 1
Electric dark correction enabled: true
Nonlinearity correction enabled: false
Boxcar width: 0
XAxis mode: Wavelengths
Number of Pixels in Spectrum: 3648
>>>>>Begin Spectral Data<<<<<
178.204	-158.03
178.424	-158.03
178.644	-158.03
178.864	-57.68
179.084	-76.12
179.304	5.8
179.524	1.71
179.744	-47.44
179.964	18.09
180.184	3.75
180.404	5.8
180.624	13.99
180.844	73.39
181.064	-37.2
181.283	-43.35
181.503	20.14
181.723	-14.68
181.943	-0.34
182.163	89.77
182.383	-20.82
182.602	83.63
182.822	93.87
183.042	36.52
183.262	61.1
183.482	48.81
183.701	13.99
183.921	9.9
184.141	67.24
184.361	5.8
184.58	34.47
184.8	52.91
185.02	7.85
185.239	149.16
185.459	93.87
185.679	5.8
185.898	-43.35
186.118	81.58
186.338	28.33
186.557	1.71
186.777	-92.5
186.997	18.09
187.216	50.86
187.436	67.24
187.655	59.05
187.875	36.52
188.095	26.28
188.314	16.04
188.534	-6.49
188.753	-26.96
188.973	108.2
189.192	26.28
189.412	-14.68
189.631	59.05
189.851	120.49
190.07	3.75
190.29	13.99
190.509	-8.53
190.729	18.09
190.948	36.52
191.168	89.77
191.387	97.96
191.607	-14.68
191.826	48.81
192.045	-82.26
192.265	-14.68
192.484	30.38
192.704	-2.39
192.923	38.57
193.142	26.28
193.362	16.04
193.581	89.77
193.8	32.43
194.02	-2.39
194.239	-8.53
194.458	34.47
194.678	-53.59
194.897	63.15
195.116	13.99
195.335	22.19
195.555	16.04
195.774	26.28
195.993	52.91
196.212	83.63
196.432	-4.44
196.651	-29.01
196.87	-4.44
197.089	79.53
197.308	-14.68
197.528	79.53
197.747	-43.35
197.966	52.91
198.185	63.15
198.404	-6.49
198.623	16.04
198.842	46.76
199.062	77.48
199.281	61.1
199.5	-57.68
199.719	106.15
199.938	30.38
200.157	34.47
200.376	-47.44
200.595	34.47
200.814	42.67
201.033	3.75
201.252	65.19
201.471	61.1
201.69	52.91
201.909	48.81
202.128	-6.49
202.347	1.71
202.566	-18.77
202.785	28.33
203.004	5.8
203.223	-10.58
203.442	42.67
203.661	-22.87
203.879	36.52
204.098	102.06
204.317	-74.07
204.536	57
204.755	-26.96
204.974	89.77
205.193	38.57
205.411	120.49
205.63	22.19
205.849	16.04
206.068	20.14
206.287	-0.34
206.505	18.09
206.724	32.43
206.943	69.29
207.162	-24.92
207.381	38.57
207.599	30.38
207.818	42.67
208.037	-45.4
208.255	-24.92
208.474	-31.06
208.693	1.71
208.911	-10.58
209.13	30.38
209.349	42.67
209.567	-4.44
209.786	46.76
210.005	59.05
210.223	106.15
210.442	-14.68
210.661	11.95
210.879	69.29
211.098	22.19
211.316	-67.92
211.535	-31.06
211.753	65.19
211.972	9.9
212.191	3.75
212.409	18.09
212.628	79.53
212.846	5.8
213.065	116.39
213.283	50.86
213.502	16.04
213.72	110.25
213.938	13.99
214.157	48.81
214.375	28.33
214.594	-14.68
214.812	38.57
215.031	26.28
215.249	-20.82
215.467	42.67
215.686	26.28
215.904	46.76
216.122	-80.21
216.341	59.05
216.559	-88.4
216.778	24.23
216.996	28.33
217.214	57
217.432	89.77
217.651	3.75
217.869	85.67
218.087	30.38
218.306	-12.63
218.524	26.28
218.742	52.91
218.96	34.47
219.179	40.62
219.397	46.76
219.615	120.49
219.833	1.71
220.051	11.95
220.27	18.09
220.488	36.52
220.706	57
220.924	-29.01
221.142	59.05
221.36	-14.68
221.578	22.19
221.796	20.14
222.015	71.34
222.233	73.39
222.451	24.23
222.669	24.23
222.887	87.72
223.105	44.71
223.323	-29.01
223.541	114.34
223.759	-6.49
223.977	59.05
224.195	61.1
224.413	5.8
224.631	87.72
224.849	-0.34
225.067	114.34
225.285	-41.3
225.503	-2.39
225.721	9.9
225.939	18.09
226.157	-35.16
226.375	93.87
226.592	-33.11
226.81	-16.73
227.028	85.67
227.246	89.77
227.464	-6.49
227.682	93.87
227.9	36.52
228.117	1.71
228.335	42.67
228.553	-41.3
228.771	24.23
228.989	71.34
229.206	50.86
229.424	73.39
229.642	69.29
229.86	63.15
230.077	20.14
230.295	16.04
230.513	11.95
230.731	30.38
230.948	87.72
231.166	52.91
231.384	-4.44
231.601	75.43
231.819	95.91
232.037	52.91
232.254	24.23
232.472	13.99
232.689	42.67
232.907	54.95
233.125	54.95
233.342	44.71
233.56	18.09
233.777	-4.44
233.995	59.05
234.213	26.28
234.43	7.85
234.648	77.48
234.865	-24.92
235.083	59.05
235.3	-6.49
235.518	32.43
235.735	130.73
235.953	110.25
236.17	57
236.388	59.05
236.605	91.82
236.822	36.52
237.04	5.8
237.257	-22.87
237.475	-8.53
237.692	59.05
237.909	50.86
238.127	20.14
238.344	-16.73
238.562	1.71
238.779	-2.39
238.996	36.52
239.214	-41.3
239.431	59.05
239.648	-2.39
239.865	79.53
240.083	85.67
240.3	42.67
240.517	-63.83
240.735	48.81
240.952	50.86
241.169	67.24
241.386	-41.3
241.603	77.48
241.821	-43.35
242.038	79.53
242.255	65.19
242.472	50.86
242.689	34.47
242.907	50.86
243.124	61.1
243.341	28.33
243.558	-16.73
243.775	73.39
243.992	40.62
244.209	16.04
244.426	85.67
244.643	57
244.86	52.91
245.078	5.8
245.295	28.33
245.512	108.2
245.729	16.04
245.946	69.29
246.163	46.76
246.38	28.33
246.597	48.81
246.814	44.71
247.031	3.75
247.248	38.57
247.464	81.58
247.681	28.33
247.898	36.52
248.115	18.09
248.332	-2.39
248.549	126.63
248.766	77.48
248.983	89.77
249.2	26.28
249.417	36.52
249.633	-12.63
249.85	50.86
250.067	-8.53
250.284	40.62
250.501	1.71
250.717	116.39
250.934	-8.53
251.151	63.15
251.368	-0.34
251.585	18.09
251.801	1.71
252.018	13.99
252.235	50.86
252.451	24.23
252.668	-8.53
252.885	73.39
253.102	71.34
253.318	-10.58
253.535	32.43
253.752	71.34
253.968	-67.92
254.185	9.9
254.401	71.34
254.618	69.29
254.835	77.48
255.051	28.33
255.268	-6.49
255.484	16.04
255.701	61.1
255.917	11.95
256.134	38.57
256.351	46.76
256.567	-33.11
256.784	13.99
257	3.75
257.217	79.53
257.433	-14.68
257.65	65.19
257.866	26.28
258.082	7.85
258.299	34.47
258.515	52.91
258.732	26.28
258.948	32.43
259.165	52.91
259.381	54.95
259.597	26.28
259.814	83.63
260.03	126.63
260.246	36.52
260.463	50.86
260.679	67.24
260.895	36.52
261.112	7.85
261.328	54.95
261.544	32.43
261.761	40.62
261.977	11.95
262.193	-53.59
262.409	89.77
262.626	102.06
262.842	-8.53
263.058	20.14
263.274	97.96
263.49	36.52
263.707	40.62
263.923	20.14
264.139	20.14
264.355	36.52
264.571	100.01
264.787	22.19
265.004	54.95
265.22	57
265.436	-14.68
265.652	32.43
265.868	26.28
266.084	26.28
266.3	108.2
266.516	26.28
266.732	-4.44
266.948	87.72
267.164	13.99
267.38	20.14
267.596	1.71
267.812	124.58
268.028	24.23
268.244	-22.87
268.46	-14.68
268.676	42.67
268.892	61.1
269.108	44.71
269.324	-4.44
269.54	-8.53
269.756	3.75
269.972	24.23
270.188	46.76
270.403	-6.49
270.619	34.47
270.835	48.81
271.051	11.95
271.267	46.76
271.483	-0.34
271.698	52.91
271.914	91.82
272.13	67.24
272.346	77.48
272.562	5.8
272.777	-51.54
272.993	26.28
273.209	11.95
273.425	48.81
273.64	44.71
273.856	91.82
274.072	7.85
274.287	50.86
274.503	-0.34
274.719	30.38
274.934	22.19
275.15	59.05
275.366	63.15
275.581	44.71
275.797	20.14
276.012	-29.01
276.228	61.1
276.444	67.24
276.659	7.85
276.875	32.43
277.09	-2.39
277.306	40.62
277.521	48.81
277.737	3.75
277.952	54.95
278.168	63.15
278.383	-0.34
278.599	38.57
278.814	34.47
279.03	44.71
279.245	93.87
279.461	20.14
279.676	69.29
279.892	-18.77
280.107	-57.68
280.322	9.9
280.538	52.91
280.753	-18.77
280.969	-0.34
281.184	18.09
281.399	67.24
281.615	40.62
281.83	24.23
282.045	28.33
282.26	71.34
282.476	7.85
282.691	100.01
282.906	5.8
283.122	36.52
283.337	18.09
283.552	26.28
283.767	5.8
283.983	-10.58
284.198	26.28
284.413	34.47
284.628	22.19
284.843	89.77
285.058	73.39
285.274	34.47
285.489	-16.73
285.704	69.29
285.919	-35.16
286.134	77.48
286.349	69.29
286.564	5.8
286.779	65.19
286.995	11.95
287.21	54.95
287.425	44.71
287.64	5.8
287.855	67.24
288.07	28.33
288.285	38.57
288.5	7.85
288.715	-31.06
288.93	69.29
289.145	77.48
289.36	24.23
289.575	-2.39
289.79	9.9
290.004	30.38
290.219	87.72
290.434	1.71
290.649	40.62
290.864	57
291.079	42.67
291.294	52.91
291.509	3.75
291.724	69.29
291.938	-22.87
292.153	28.33
292.368	91.82
292.583	100.01
292.798	48.81
293.012	57
293.227	20.14
293.442	-12.63
293.657	83.63
293.871	18.09
294.086	20.14
294.301	20.14
294.516	165.54
294.73	61.1
294.945	-16.73
295.16	-39.25
295.374	63.15
295.589	44.71
295.804	83.63
296.018	7.85
296.233	61.1
296.447	26.28
296.662	48.81
296.877	-8.53
297.091	67.24
297.306	54.95
297.52	-12.63
297.735	110.25
297.949	-6.49
298.164	18.09
298.378	28.33
298.593	63.15
298.807	42.67
299.022	100.01
299.236	48.81
299.451	30.38
299.665	5.8
299.88	20.14
300.094	-10.58
300.309	59.05
300.523	-2.39
300.737	61.1
300.952	42.67
301.166	67.24
301.381	20.14
301.595	-49.49
301.809	44.71
302.024	-14.68
302.238	30.38
302.452	20.14
302.667	7.85
302.881	61.1
303.095	79.53
303.309	18.09
303.524	30.38
303.738	16.04
303.952	67.24
304.166	65.19
304.381	-45.4
304.595	97.96
304.809	26.28
305.023	73.39
305.237	65.19
305.452	54.95
305.666	16.04
305.88	46.76
306.094	50.86
306.308	91.82
306.522	65.19
306.736	93.87
306.95	5.8
307.164	13.99
307.379	26.28
307.593	26.28
307.807	30.38
308.021	52.91
308.235	79.53
308.449	3.75
308.663	13.99
308.877	79.53
309.091	46.76
309.305	59.05
309.519	26.28
309.733	138.92
309.947	11.95
310.161	16.04
310.374	118.44
310.588	11.95
310.802	-0.34
311.016	42.67
311.23	46.76
311.444	50.86
311.658	9.9
311.872	-14.68
312.085	75.43
312.299	5.8
312.513	1.71
312.727	13.99
312.941	-0.34
313.154	26.28
313.368	36.52
313.582	65.19
313.796	44.71
314.009	50.86
314.223	42.67
314.437	48.81
314.651	91.82
314.864	59.05
315.078	77.48
315.292	30.38
315.505	16.04
315.719	-2.39
315.933	65.19
316.146	-29.01
316.36	5.8
316.573	69.29
316.787	75.43
317.001	57
317.214	85.67
317.428	52.91
317.641	-24.92
317.855	38.57
318.068	100.01
318.282	59.05
318.495	32.43
318.709	157.35
318.922	151.21
319.136	85.67
319.349	63.15
319.563	22.19
319.776	38.57
319.99	-0.34
320.203	100.01
320.417	46.76
320.63	69.29
320.843	32.43
321.057	13.99
321.27	69.29
321.483	63.15
321.697	87.72
321.91	-18.77
322.124	52.91
322.337	26.28
322.55	7.85
322.763	46.76
322.977	-22.87
323.19	67.24
323.403	73.39
323.617	34.47
323.83	36.52
324.043	57
324.256	54.95
324.469	65.19
324.683	57
324.896	-55.64
325.109	48.81
325.322	22.19
325.535	42.67
325.748	28.33
325.962	16.04
326.175	67.24
326.388	20.14
326.601	52.91
326.814	77.48
327.027	30.38
327.24	69.29
327.453	5.8
327.666	89.77
327.879	71.34
328.092	-4.44
328.305	61.1
328.518	-8.53
328.731	46.76
328.944	7.85
329.157	50.86
329.37	50.86
329.583	59.05
329.796	97.96
330.009	32.43
330.222	-0.34
330.435	13.99
330.648	73.39
330.861	67.24
331.073	91.82
331.286	79.53
331.499	-18.77
331.712	24.23
331.925	83.63
332.138	-2.39
332.35	97.96
332.563	-16.73
332.776	-0.34
332.989	87.72
333.202	1.71
333.414	-24.92
333.627	130.73
333.84	28.33
334.053	73.39
334.265	32.43
334.478	42.67
334.691	7.85
334.903	163.5
335.116	42.67
335.329	30.38
335.541	38.57
335.754	87.72
335.966	16.04
336.179	30.38
336.392	-49.49
336.604	-35.16
336.817	-10.58
337.029	81.58
337.242	13.99
337.454	61.1
337.667	38.57
337.88	5.8
338.092	54.95
338.305	61.1
338.517	-0.34
338.729	61.1
338.942	75.43
339.154	87.72
339.367	9.9
339.579	44.71
339.792	-4.44
340.004	46.76
340.217	149.16
340.429	112.3
340.641	-14.68
340.854	87.72
341.066	79.53
341.278	69.29
341.491	34.47
341.703	30.38
341.915	24.23
342.128	89.77
342.34	67.24
342.552	20.14
342.764	28.33
342.977	63.15
343.189	30.38
343.401	46.76
343.613	1.71
343.826	73.39
344.038	38.57
344.25	128.68
344.462	61.1
344.674	118.44
344.886	18.09
345.099	-6.49
345.311	87.72
345.523	59.05
345.735	3.75
345.947	9.9
346.159	110.25
346.371	26.28
346.583	28.33
346.795	83.63
347.007	46.76
347.219	100.01
347.431	57
347.643	48.81
347.855	24.23
348.067	13.99
348.279	28.33
348.491	34.47
348.703	13.99
348.915	-6.49
349.127	7.85
349.339	26.28
349.551	26.28
349.763	83.63
349.975	18.09
350.187	67.24
350.399	34.47
350.61	128.68
350.822	-29.01
351.034	54.95
351.246	54.95
351.458	89.77
351.669	77.48
351.881	87.72
352.093	-10.58
352.305	93.87
352.517	69.29
352.728	77.48
352.94	-35.16
353.152	20.14
353.363	11.95
353.575	46.76
353.787	61.1
353.999	50.86
354.21	50.86
354.422	-10.58
354.633	-2.39
354.845	32.43
355.057	93.87
355.268	81.58
355.48	67.24
355.692	-31.06
355.903	69.29
356.115	32.43
356.326	-6.49
356.538	104.11
356.749	59.05
356.961	97.96
357.172	-65.88
357.384	30.38
357.595	13.99
357.807	-18.77
358.018	57
358.23	122.54
358.441	83.63
358.653	28.33
358.864	46.76
359.075	22.19
359.287	22.19
359.498	91.82
359.709	11.95
359.921	30.38
360.132	40.62
360.344	54.95
360.555	5.8
360.766	93.87
360.977	65.19
361.189	108.2
361.4	-55.64
361.611	171.69
361.823	69.29
362.034	59.05
362.245	67.24
362.456	11.95
362.667	13.99
362.879	-10.58
363.09	42.67
363.301	65.19
363.512	42.67
363.723	116.39
363.935	-8.53
364.146	36.52
364.357	83.63
364.568	59.05
364.779	-24.92
364.99	46.76
365.201	59.05
365.412	83.63
365.623	42.67
365.834	-8.53
366.045	48.81
366.256	48.81
366.467	95.91
366.678	22.19
366.889	26.28
367.1	77.48
367.311	44.71
367.522	34.47
367.733	54.95
367.944	52.91
368.155	16.04
368.366	102.06
368.577	40.62
368.788	59.05
368.999	3.75
369.209	108.2
369.42	42.67
369.631	108.2
369.842	54.95
370.053	26.28
370.264	106.15
370.474	-20.82
370.685	77.48
370.896	34.47
371.107	93.87
371.317	-10.58
371.528	57
371.739	57
371.95	20.14
372.16	-2.39
372.371	-4.44
372.582	85.67
372.792	-2.39
373.003	140.97
373.214	38.57
373.424	100.01
373.635	38.57
373.846	63.15
374.056	97.96
374.267	32.43
374.477	50.86
374.688	34.47
374.898	11.95
375.109	75.43
375.319	36.52
375.53	38.57
375.74	-4.44
375.951	97.96
376.161	-0.34
376.372	16.04
376.582	44.71
376.793	44.71
377.003	18.09
377.214	67.24
377.424	30.38
377.635	1.71
377.845	7.85
378.055	30.38
378.266	30.38
378.476	106.15
378.686	73.39
378.897	108.2
379.107	46.76
379.317	57
379.528	32.43
379.738	126.63
379.948	42.67
380.158	102.06
380.369	1.71
380.579	59.05
380.789	52.91
380.999	24.23
381.21	11.95
381.42	57
381.63	1.71
381.84	48.81
382.05	44.71
382.261	34.47
382.471	26.28
382.681	46.76
382.891	54.95
383.101	26.28
383.311	16.04
383.521	38.57
383.731	122.54
383.941	89.77
384.151	42.67
384.361	46.76
384.571	13.99
384.781	36.52
384.991	83.63
385.201	89.77
385.411	-51.54
385.621	63.15
385.831	138.92
386.041	145.06
386.251	57
386.461	100.01
386.671	87.72
386.881	38.57
387.091	100.01
387.301	97.96
387.511	26.28
387.72	85.67
387.93	32.43
388.14	65.19
388.35	34.47
388.56	57
388.769	18.09
388.979	89.77
389.189	75.43
389.399	54.95
389.609	54.95
389.818	85.67
390.028	73.39
390.238	28.33
390.447	81.58
390.657	40.62
390.867	54.95
391.076	13.99
391.286	106.15
391.496	-22.87
391.705	102.06
391.915	57
392.125	149.16
392.334	34.47
392.544	30.38
392.753	106.15
392.963	30.38
393.172	93.87
393.382	16.04
393.591	42.67
393.801	3.75
394.01	34.47
394.22	46.76
394.429	59.05
394.639	46.76
394.848	100.01
395.058	71.34
395.267	85.67
395.477	87.72
395.686	-14.68
395.895	112.3
396.105	130.73
396.314	122.54
396.524	63.15
396.733	116.39
396.942	48.81
397.152	63.15
397.361	75.43
397.57	79.53
397.78	85.67
397.989	132.78
398.198	143.02
398.407	97.96
398.617	79.53
398.826	124.58
399.035	118.44
399.244	95.91
399.453	153.26
399.663	79.53
399.872	91.82
400.081	100.01
400.29	122.54
400.499	67.24
400.708	108.2
400.917	85.67
401.127	198.31
401.336	169.64
401.545	130.73
401.754	198.31
401.963	106.15
402.172	118.44
402.381	118.44
402.59	71.34
402.799	159.4
403.008	108.2
403.217	130.73
403.426	100.01
403.635	93.87
403.844	87.72
404.053	-6.49
404.262	48.81
404.471	130.73
404.68	102.06
404.888	93.87
405.097	120.49
405.306	167.59
405.515	159.4
405.724	169.64
405.933	208.55
406.142	175.78
406.35	169.64
406.559	110.25
406.768	100.01
406.977	292.52
407.185	229.03
407.394	284.33
407.603	132.78
407.812	235.18
408.02	181.93
408.229	159.4
408.438	263.85
408.646	186.02
408.855	194.22
409.064	249.51
409.272	239.27
409.481	280.23
409.69	265.89
409.898	214.7
410.107	286.37
410.315	267.94
410.524	376.48
410.733	308.9
410.941	308.9
411.15	358.05
411.358	274.09
411.567	337.57
411.775	394.92
411.984	343.72
412.192	310.95
412.401	415.4
412.609	413.35
412.818	419.49
413.026	489.12
413.234	468.64
413.443	505.51
413.651	470.69
413.86	544.42
414.068	550.56
414.276	564.9
414.485	593.57
414.693	497.32
414.901	624.29
415.11	525.99
415.318	630.43
415.526	675.49
415.734	747.17
415.943	810.65
416.151	798.37
416.359	685.73
416.567	781.98
416.776	794.27
416.984	898.72
417.192	839.33
417.4	890.53
417.608	921.24
417.817	954.01
418.025	902.81
418.233	966.3
418.441	1087.13
418.649	1044.12
418.857	1191.58
419.065	1207.96
419.273	1203.86
419.481	1293.97
419.689	1275.54
419.897	1230.49
420.105	1461.91
420.313	1398.42
420.521	1404.57
420.729	1414.81
420.937	1560.21
421.145	1504.92
421.353	1662.61
421.561	1586.83
421.769	1775.25
421.977	1754.77
422.185	1783.44
422.393	1900.17
422.601	1894.03
422.809	2096.78
423.017	1978
423.224	2082.44
423.432	2180.75
423.64	2199.18
423.848	2479.75
424.056	2328.2
424.263	2508.42
424.471	2414.21
424.679	2557.57
424.887	2647.68
425.094	2725.51
425.302	2883.2
425.51	2821.76
425.718	3044.99
425.925	3083.9
426.133	3143.29
426.341	3317.37
426.548	3434.1
426.756	3409.53
426.964	3296.89
427.171	3675.76
427.379	3708.53
427.586	3939.95
427.794	4038.25
428.001	4103.79
428.209	4150.89
428.417	4195.95
428.624	4404.84
428.832	4595.3
429.039	4408.94
429.247	4499.05
429.454	4757.09
429.662	5217.88
429.869	4873.82
430.076	5170.78
430.284	5267.03
430.491	5357.14
430.699	5639.76
430.906	5635.67
431.114	5621.33
431.321	5985.87
431.528	6020.69
431.736	6209.1
431.943	6798.91
432.15	6590.02
432.358	6565.45
432.565	7003.71
432.772	6905.41
432.979	7112.25
433.187	7411.26
433.394	7331.39
433.601	7978.54
433.808	7980.59
434.016	8009.26
434.223	8074.8
434.43	8807.97
434.637	8568.36
434.844	9020.96
435.052	9236
435.259	9145.89
435.466	9356.83
435.673	9358.88
435.88	9926.16
436.087	10487.31
436.294	10331.66
436.501	10053.14
436.708	10182.16
436.915	10591.75
437.122	11212.29
437.329	11249.15
437.537	11433.47
437.743	11775.48
437.95	11746.81
438.157	11828.73
438.364	12545.52
438.571	12537.32
438.778	12842.47
438.985	13643.23
439.192	13479.39
439.399	13823.45
439.606	13139.43
439.813	14175.7
440.02	14841.29
440.227	14738.89
440.433	14550.48
440.64	15007.17
440.847	15111.62
441.054	15398.34
441.261	16432.56
441.467	16367.02
441.674	16438.7
441.881	17167.78
442.088	17218.98
442.294	17053.09
442.501	17286.56
442.708	17638.81
442.914	18339.22
443.121	19295.62
443.328	18763.15
443.534	19885.44
443.741	19639.68
443.948	19275.14
444.154	20587.89
444.361	20661.62
444.568	20714.86
444.774	20788.59
444.981	20909.42
445.187	21411.17
445.394	22168.92
445.6	21833.05
445.807	24341.82
446.013	23373.13
446.22	23764.29
446.426	24636.72
446.633	24583.48
446.839	25640.23
447.046	24401.21
447.252	25578.79
447.459	25947.42
447.665	25531.69
447.871	26897.68
448.078	27936
448.284	26608.92
448.491	27593.99
448.697	28417.27
448.903	29072.62
449.11	29322.48
449.316	28583.16
449.522	28927.22
449.728	30082.27
449.935	30237.92
450.141	30092.51
450.347	31020.24
450.553	29885.67
450.76	30031.07
450.966	31411.4
451.172	31100.11
451.378	31624.39
451.584	30993.62
451.791	31929.54
451.997	31626.44
452.203	32515.26
452.409	32623.8
452.615	31909.06
452.821	30876.88
453.027	30725.33
453.233	32457.92
453.44	31038.67
453.646	31493.32
453.852	31370.44
454.058	32027.84
454.264	30684.37
454.47	31581.38
454.676	30733.53
454.882	31767.75
455.088	29297.9
455.294	29652.2
455.5	30391.51
455.705	30350.56
455.911	29019.38
456.117	28515.58
456.323	28341.5
456.529	26932.5
456.735	27751.68
456.941	27188.49
457.147	26807.57
457.352	26125.6
457.558	25615.65
457.764	25857.31
457.97	25128.24
458.176	24853.81
458.381	24573.24
458.587	23229.77
458.793	23313.73
458.999	22099.29
459.204	23788.86
459.41	23072.07
459.616	21624.16
459.821	21706.08
460.027	21898.59
460.233	21083.5
460.438	20313.46
460.644	20272.5
460.85	19260.8
461.055	19164.55
461.261	18955.66
461.466	17434.02
461.672	17208.74
461.878	17974.68
462.083	17180.07
462.289	16750
462.494	16604.59
462.7	15826.36
462.905	15451.58
463.111	15936.95
463.316	16346.55
463.522	15529.41
463.727	15838.65
463.932	15869.37
464.138	15320.51
464.343	15730.11
464.549	15080.9
464.754	15582.65
464.959	15412.67
465.165	15326.66
465.37	14630.35
465.575	14179.79
465.781	14886.34
465.986	14921.16
466.191	14302.67
466.397	14106.07
466.602	13620.7
466.807	13979.09
467.012	14271.95
467.218	14134.74
467.423	13620.7
467.628	13929.94
467.833	14435.79
468.038	13753.82
468.244	13415.9
468.449	14200.27
468.654	13219.3
468.859	13549.02
469.064	13348.32
469.269	12885.48
469.474	12924.39
469.679	13254.11
469.885	12920.29
470.09	13092.32
470.295	12983.78
470.5	12684.78
470.705	12733.93
470.91	12359.15
471.115	12293.62
471.32	12301.81
471.525	12226.03
471.73	11914.74
471.935	12004.85
472.139	11746.81
472.344	11705.85
472.549	11654.65
472.754	11785.72
472.959	11380.22
473.164	11169.28
473.369	10911.24
473.574	11343.36
473.778	11025.92
473.983	10921.48
474.188	10974.72
474.393	10673.67
474.598	10847.75
474.802	10323.47
475.007	10376.72
475.212	10501.64
475.417	10237.45
475.621	10022.42
475.826	10075.66
476.031	9969.17
476.235	9702.93
476.44	9899.54
476.645	9717.27
476.849	9596.44
477.054	9491.99
477.259	9446.94
477.463	9311.77
477.668	8947.23
477.872	9457.18
478.077	9188.89
478.282	8838.69
478.486	8789.54
478.691	8728.1
478.895	8635.94
479.1	8717.86
479.304	8779.3
479.509	8498.73
479.713	8779.3
479.918	8488.49
480.122	8250.92
480.326	8433.19
480.531	8455.72
480.735	8232.49
480.94	8082.99
481.144	8381.99
481.348	8132.14
481.553	8255.02
481.757	8080.94
481.961	8248.88
482.166	8285.74
482.37	8189.49
482.574	7956.02
482.778	8050.22
482.983	8314.41
483.187	8152.62
483.391	8029.74
483.595	7867.95
483.8	7915.06
484.004	8242.73
484.208	8218.16
484.412	8087.09
484.616	7999.02
484.821	7956.02
485.025	8113.71
485.229	8095.28
485.433	7980.59
485.637	8113.71
485.841	7882.29
486.045	8017.46
486.249	8154.67
486.453	7855.67
486.657	7966.26
486.861	8105.52
487.065	7964.21
487.269	7886.39
487.473	7796.28
487.677	8099.38
487.881	8050.22
488.085	8089.14
488.289	8037.94
488.493	8062.51
488.697	8134.19
488.901	8046.13
489.105	8199.73
489.309	8033.84
489.512	7992.88
489.716	8265.26
489.92	7990.83
490.124	8097.33
490.328	8248.88
490.531	8306.22
490.735	8173.1
490.939	8207.92
491.143	8115.76
491.346	8298.03
491.55	8306.22
491.754	8367.66
491.958	8392.23
492.161	8480.3
492.365	8259.12
492.569	8502.82
492.772	8308.27
492.976	8664.61
493.18	8715.81
493.383	8732.2
493.587	8676.9
493.79	8896.03
493.994	8578.6
494.197	8721.96
494.401	8986.15
494.605	9057.82
494.808	9057.82
495.012	9055.78
495.215	8936.99
495.419	9260.57
495.622	9158.17
495.825	9227.81
496.029	9186.85
496.232	9580.06
496.436	9438.75
496.639	9750.04
496.843	9762.33
497.046	9864.72
497.249	9850.39
497.453	9901.59
497.656	10090
497.859	9885.2
498.063	10112.53
498.266	10290.7
498.469	10475.02
498.673	10665.48
498.876	10581.51
499.079	10591.75
499.282	10642.95
499.485	10784.26
499.689	11062.79
499.892	11107.84
500.095	11306.49
500.298	11441.66
500.501	11308.54
500.705	11662.84
500.908	11814.39
501.111	11757.05
501.314	12230.13
501.517	12256.75
501.72	12248.56
501.923	12367.34
502.126	12555.76
502.329	12709.35
502.532	12924.39
502.735	12799.46
502.938	13037.03
503.141	13266.4
503.344	13309.41
503.547	13383.13
503.75	13774.3
503.953	13665.75
504.156	13936.09
504.359	13909.46
504.562	13981.14
504.765	14302.67
504.968	14351.82
505.17	14654.92
505.373	14568.91
505.576	14798.28
505.779	15226.31
505.982	15179.2
506.185	15400.38
506.387	15562.17
506.59	15637.95
506.793	15961.53
506.996	15977.91
507.198	16348.59
507.401	16387.5
507.604	16309.68
507.807	16711.08
508.009	17053.09
508.212	17216.93
508.415	17362.34
508.617	17438.11
508.82	17595.81
509.022	17388.96
509.225	17898.91
509.428	18111.89
509.63	18148.76
509.833	18208.15
510.035	18578.83
510.238	18371.99
510.44	18736.52
510.643	19107.21
510.845	19273.09
511.048	19281.28
511.25	19658.11
511.453	19594.62
511.655	20256.12
511.858	20071.8
512.06	20254.07
512.262	20495.73
512.465	20518.26
512.667	20645.23
512.87	21159.27
513.072	21278.05
513.274	21546.34
513.477	21831.01
513.679	21769.57
513.881	21951.84
514.084	22422.87
514.286	22392.15
514.488	22551.89
514.69	23113.03
514.893	23104.84
515.095	23029.07
515.297	23604.55
515.499	23356.74
515.701	23745.86
515.904	24026.43
516.106	24018.24
516.308	24505.65
516.51	24726.83
516.712	24730.93
516.914	25249.07
517.116	25089.32
517.318	25546.02
517.52	25568.55
517.722	25716
517.925	26176.8
518.127	26088.73
518.329	26629.4
518.531	26303.77
518.733	26705.17
518.935	27018.51
519.136	27049.23
519.338	27460.87
519.54	27614.47
519.742	28192
519.944	28093.69
520.146	28568.82
520.348	28747
520.55	29054.19
520.752	28859.63
520.954	29447.4
521.155	29109.49
521.357	29555.94
521.559	29783.27
521.761	30018.78
521.963	30041.31
522.164	30201.05
522.366	30256.35
522.568	30792.92
522.77	31128.78
522.971	31474.89
523.173	30823.64
523.375	31601.86
523.576	31714.5
523.778	31904.96
523.98	31657.16
524.181	32322.75
524.383	31913.16
524.584	32644.28
524.786	32476.35
524.988	32801.97
525.189	33021.11
525.391	33244.34
525.592	33359.02
525.794	33420.46
525.995	33506.48
526.197	33670.31
526.398	33793.19
526.6	34493.6
526.801	33893.54
527.003	34280.61
527.204	34450.59
527.406	34583.71
527.607	34692.25
527.808	35165.33
528.01	34473.12
528.211	34514.08
528.412	35560.59
528.614	35234.96
528.815	35146.9
529.016	35804.3
529.218	35409.04
529.419	35464.33
529.62	35556.49
529.822	35470.48
530.023	35695.75
530.224	35845.26
530.425	35892.36
530.626	35609.74
530.828	35585.16
531.029	36136.07
531.23	35859.59
531.431	36119.68
531.632	36095.11
531.833	35914.89
532.035	36365.44
532.236	35867.78
532.437	36945.01
532.638	36146.31
532.839	36521.09
533.04	36998.26
533.241	36209.79
533.442	36744.31
533.643	36846.71
533.844	36639.87
534.045	36631.68
534.246	36406.4
534.447	37131.38
534.648	36459.65
534.849	36410.5
535.05	36238.47
535.251	36750.46
535.451	36695.16
535.652	37069.94
535.853	36768.89
536.054	36545.66
536.255	36955.25
536.456	36482.17
536.657	37194.87
536.857	36754.55
537.058	36537.47
537.259	36852.86
537.46	36711.55
537.66	36834.42
537.861	36678.78
538.062	36670.59
538.263	36779.13
538.463	36715.64
538.664	36725.88
538.865	36736.12
539.065	37198.96
539.266	36594.81
539.466	37063.8
539.667	36467.84
539.868	37323.89
540.068	36691.07
540.269	36813.94
540.469	36899.96
540.67	36785.27
540.87	37063.8
541.071	36727.93
541.271	36832.38
541.472	36727.93
541.672	36306.05
541.873	36832.38
542.073	35945.61
542.274	37104.76
542.474	36473.98
542.675	36295.81
542.875	36592.76
543.075	36240.51
543.276	36488.32
543.476	36936.82
543.676	36547.71
543.877	36723.83
544.077	36582.52
544.277	36752.51
544.478	36455.55
544.678	36783.23
544.878	36461.69
545.078	36691.07
545.279	36353.15
545.479	36570.24
545.679	36584.57
545.879	36787.32
546.079	36639.87
546.28	36363.39
546.48	36310.14
546.68	36359.3
546.88	36897.91
547.08	36361.34
547.28	36082.82
547.48	36172.93
547.68	36605.05
547.88	36396.16
548.081	36580.48
548.281	36547.71
548.481	36326.53
548.681	36566.14
548.881	36476.03
549.081	36127.88
549.28	36199.55
549.48	36740.22
549.68	36390.02
549.88	37014.65
550.08	36201.6
550.28	36377.73
550.48	36555.9
550.68	36430.97
550.88	35972.23
551.08	36289.66
551.279	36396.16
551.479	36170.88
551.679	36465.79
551.879	36250.75
552.079	36461.69
552.278	36107.4
552.478	36187.27
552.678	35886.22
552.878	36473.98
553.077	36174.98
553.277	35740.81
553.477	36365.44
553.676	35945.61
553.876	36160.64
554.076	35878.02
554.275	35986.57
554.475	35691.66
554.674	35765.38
554.874	35796.1
555.074	35468.43
555.273	35699.85
555.473	36031.62
555.672	35789.96
555.872	35751.05
556.071	36068.48
556.271	35624.08
556.47	35824.78
556.67	35482.77
556.869	35212.43
557.068	35484.81
557.268	35386.51
557.467	35564.68
557.667	35431.57
557.866	35556.49
558.065	35040.4
558.265	34745.5
558.464	35499.15
558.663	35597.45
558.863	35026.07
559.062	35572.88
559.261	35050.64
559.461	35548.3
559.66	34639
559.859	34911.38
560.058	34940.05
560.258	34829.46
560.457	34757.78
560.656	34968.73
560.855	34585.75
561.054	34616.47
561.253	34493.6
561.453	34524.32
561.652	34585.75
561.851	34741.4
562.05	34679.96
562.249	34725.02
562.448	34632.86
562.647	34618.52
562.846	34448.54
563.045	34380.96
563.244	33774.76
563.443	34077.86
563.642	33819.81
563.841	34235.55
564.04	33653.93
564.239	34049.19
564.438	33664.17
564.637	33729.7
564.836	34057.38
565.035	33371.31
565.234	33942.69
565.432	33131.7
565.631	33385.65
565.83	33328.3
566.029	33359.02
566.228	33131.7
566.427	33086.64
566.625	32926.9
566.824	32574.65
567.023	33053.87
567.222	32701.62
567.42	32943.28
567.619	32842.93
567.818	32654.52
568.016	32298.17
568.215	32808.12
568.414	32773.3
568.612	32732.34
568.811	32541.88
569.01	32558.27
569.208	32163.01
569.407	32208.06
569.605	31513.8
569.804	32152.77
570.002	31726.79
570.201	32109.76
570.4	31734.98
570.598	31562.95
570.797	31380.68
570.995	31603.91
571.193	31157.46
571.392	31583.43
571.59	31126.74
571.789	31177.93
571.987	31145.17
572.186	30981.33
572.384	30665.94
572.582	30874.84
572.781	31012.05
572.979	30807.25
573.177	30723.29
573.376	30657.75
573.574	30688.47
573.772	30518.49
573.971	30127.33
574.169	30049.5
574.367	30186.72
574.565	30233.82
574.763	30012.64
574.962	30016.74
575.16	29791.46
575.358	29996.26
575.556	29525.22
575.754	29811.94
575.952	29701.35
576.151	29834.47
576.349	29471.98
576.547	29271.28
576.745	29336.81
576.943	29177.07
577.141	29189.36
577.339	29361.39
577.537	29144.3
577.735	29080.81
577.933	28914.93
578.131	28843.25
578.329	28933.36
578.527	28488.95
578.725	28687.6
578.923	28740.85
579.121	28310.78
579.319	28601.59
579.516	28151.04
579.714	28296.44
579.912	28450.04
580.11	28097.79
580.308	28036.35
580.506	28144.89
580.704	27587.85
580.901	28075.26
581.099	28224.76
581.297	27614.47
581.495	27430.15
581.692	27587.85
581.89	27749.64
582.088	27737.35
582.285	27297.03
582.483	27630.85
582.681	27153.68
582.878	27204.88
583.076	26869.01
583.274	27165.96
583.471	26594.58
583.669	26838.29
583.866	26565.91
584.064	26805.52
584.262	26535.19
584.459	26776.85
584.657	26311.96
584.854	26684.69
585.052	25969.95
585.249	26496.28
585.447	26524.95
585.644	26162.46
585.841	25928.99
586.039	26318.11
586.236	25894.18
586.434	26019.1
586.631	25660.71
586.828	25756.96
587.026	25697.57
587.223	25750.82
587.42	25476.39
587.618	25308.46
587.815	25214.25
588.012	25586.98
588.21	24997.17
588.407	25431.33
588.604	25156.91
588.801	24823.09
588.999	24833.33
589.196	24902.96
589.393	25021.74
589.59	24956.21
589.787	24724.79
589.984	24632.63
590.182	24563
590.379	24673.59
590.576	24489.27
590.773	24442.17
590.97	24294.71
591.167	24192.31
591.364	23977.28
591.561	24153.4
591.758	23872.83
591.955	23780.67
592.152	23993.66
592.349	23756.1
592.546	23680.32
592.743	23917.89
592.94	23362.89
593.137	23655.75
593.334	23803.2
593.531	22824.27
593.727	23608.64
593.924	23377.22
594.121	23201.1
594.318	23237.96
594.515	23014.73
594.712	23250.25
594.908	23047.5
595.105	23151.95
595.302	22740.3
595.499	22850.89
595.696	22965.58
595.892	22547.79
596.089	22492.5
596.286	22482.26
596.482	22261.08
596.679	22275.41
596.876	22072.67
597.072	22050.14
597.269	22058.33
597.466	21759.33
597.662	22115.67
597.859	22158.68
598.055	22050.14
598.252	21812.57
598.448	21822.81
598.645	21781.85
598.841	21540.19
599.038	21738.85
599.234	21448.04
599.431	21204.33
599.627	21280.1
599.824	21421.41
600.02	21558.63
600.217	21314.92
600.413	21192.04
600.609	20807.02
600.806	20897.13
601.002	21042.54
601.198	20882.8
601.395	20723.05
601.591	20753.77
601.787	20741.49
601.984	20577.65
602.18	20585.84
602.376	20577.65
602.572	20442.48
602.769	20524.4
602.965	20260.21
603.161	20235.64
603.357	20219.25
603.553	19920.25
603.75	19987.83
603.946	19809.66
604.142	19977.59
604.338	19885.44
604.534	19903.87
604.73	19666.3
604.926	19553.66
605.122	19500.42
605.318	19606.91
605.514	19322.24
605.71	19441.03
605.906	19316.1
606.102	19107.21
606.298	19475.84
606.494	19330.44
606.69	19266.95
606.886	19187.08
607.082	18703.76
607.278	19236.23
607.474	18810.25
607.67	19197.32
607.866	18861.45
608.062	18865.55
608.257	18611.6
608.453	18814.35
608.649	18804.11
608.845	18648.46
609.041	18507.15
609.236	18460.05
609.432	18464.14
609.628	18716.05
609.824	18644.37
610.019	18511.25
610.215	18398.61
610.411	18757
610.606	18533.78
610.802	18255.25
610.998	18331.03
611.193	18279.83
611.389	18087.32
611.584	18365.84
611.78	17812.89
611.976	18144.66
612.171	18228.63
612.367	18101.65
612.562	17733.02
612.758	17792.41
612.953	17708.44
613.149	17905.05
613.344	17714.59
613.539	18232.72
613.735	17962.39
613.93	18009.5
614.126	17575.33
614.321	17857.95
614.517	17583.52
614.712	17882.52
614.907	17421.73
615.103	17841.56
615.298	17413.54
615.493	17859.99
615.688	17218.98
615.884	17565.09
616.079	17229.22
616.274	17431.97
616.47	17253.8
616.665	17304.99
616.86	17046.95
617.055	16954.79
617.25	17233.32
617.445	17106.34
617.641	16616.88
617.836	17063.33
618.031	16620.97
618.226	17069.48
618.421	16715.18
618.616	16917.93
618.811	16551.34
619.006	16850.35
619.201	16616.88
619.396	16911.78
619.591	16367.02
619.786	16481.71
619.981	16276.91
620.176	16631.21
620.371	16041.4
620.566	16184.76
620.761	15777.21
620.956	16043.45
621.151	15959.48
621.346	16149.94
621.541	15594.94
621.735	16047.54
621.93	15881.66
622.125	15482.3
622.32	15488.45
622.515	15578.56
622.709	15320.51
622.904	15261.12
623.099	15136.2
623.294	15158.72
623.488	14880.2
623.683	15089.09
623.878	14751.18
624.072	14695.88
624.267	14546.38
624.462	14552.52
624.656	14759.37
624.851	14507.47
625.046	14222.8
625.24	14384.59
625.435	14036.44
625.629	14261.71
625.824	13977.05
626.018	14118.36
626.213	13764.06
626.407	13942.23
626.602	13819.35
626.796	14138.83
626.991	13829.59
627.185	13854.17
627.38	13702.62
627.574	13526.49
627.768	13424.09
627.963	13288.93
628.157	13317.6
628.352	13293.02
628.546	12981.73
628.74	13133.28
628.935	13188.58
629.129	12883.43
629.323	12897.77
629.517	12647.91
629.712	12652.01
629.906	12662.25
630.1	12494.32
630.294	12664.3
630.489	12344.81
630.683	12461.55
630.877	12301.81
631.071	12432.88
631.265	12248.56
631.459	12004.85
631.653	12264.94
631.848	12172.78
632.042	11746.81
632.236	11986.42
632.43	11795.96
632.624	11703.8
632.818	11761.14
633.012	11718.14
633.206	11476.48
633.4	11544.06
633.594	11578.87
633.788	11427.32
633.982	11359.74
634.176	11308.54
634.369	11130.37
634.563	11156.99
634.757	11175.42
634.951	11048.45
635.145	10946.05
635.339	10941.96
635.533	10718.73
635.726	10761.73
635.92	10757.64
636.114	10993.15
636.308	10749.45
636.501	10706.44
636.695	10513.93
636.889	10368.52
637.083	10520.07
637.276	10343.95
637.47	10323.47
637.664	10202.64
637.857	10395.15
638.051	10219.02
638.244	10079.76
638.438	10061.33
638.632	9997.84
638.825	10006.03
639.019	9870.87
639.212	9821.72
639.406	9811.48
639.599	9768.47
639.793	9618.97
639.986	9518.62
640.18	9453.08
640.373	9692.69
640.567	9401.88
640.76	9532.95
640.954	9428.51
641.147	9172.51
641.34	9289.24
641.534	9236
641.727	9227.81
641.92	9217.57
642.114	9043.49
642.307	9190.94
642.5	9051.68
642.694	8924.71
642.887	8926.75
643.08	8795.68
643.273	8945.19
643.467	8898.08
643.66	8646.18
643.853	8488.49
644.046	8631.85
644.239	8500.78
644.432	8590.89
644.626	8465.96
644.819	8451.63
645.012	8285.74
645.205	8310.32
645.398	8222.25
645.591	8171.05
645.784	8310.32
645.977	7982.64
646.17	8140.33
646.363	7935.54
646.556	7958.07
646.749	7896.63
646.942	7900.72
647.135	7884.34
647.328	7888.43
647.521	7804.47
647.714	7726.64
647.907	7808.56
648.099	7556.66
648.292	7818.8
648.485	7728.69
648.678	7550.52
648.871	7476.79
649.064	7482.94
649.256	7544.38
649.449	7546.42
649.642	7411.26
649.835	7296.57
650.027	7136.83
650.22	7370.3
650.413	7192.12
650.605	7218.75
650.798	7038.53
650.991	7003.71
651.183	7122.49
651.376	6956.61
651.568	7126.59
651.761	6936.13
651.954	7075.39
652.146	7061.05
652.339	6989.38
652.531	7050.82
652.724	6794.82
652.916	6823.49
653.109	6702.66
653.301	6532.68
653.494	6682.18
653.686	6454.86
653.879	6727.24
654.071	6555.21
654.263	6555.21
654.456	6350.41
654.648	6510.15
654.84	6348.36
655.033	6465.1
655.225	6325.83
655.417	6211.15
655.61	6340.17
655.802	6403.66
655.994	6170.19
656.186	6096.46
656.379	6123.09
656.571	6196.81
656.763	5951.06
656.955	6178.38
657.148	6129.23
657.34	6178.38
657.532	6012.49
657.724	5871.19
657.916	5955.15
658.108	6002.26
658.3	5975.63
658.492	5899.86
658.684	5697.11
658.876	5664.34
659.068	5809.75
659.26	5645.91
659.452	5701.2
659.644	5553.75
659.836	5633.62
660.028	5607
660.22	5566.04
660.412	5643.86
660.604	5338.71
660.796	5428.82
660.988	5496.41
661.18	5416.54
661.372	5516.89
661.563	5430.87
661.755	5342.81
661.947	5324.38
662.139	5295.71
662.331	5129.82
662.522	5312.09
662.714	5195.36
662.906	5181.02
663.097	5174.88
663.289	5150.3
663.481	5156.44
663.673	5015.13
663.864	5070.43
664.056	5123.68
664.247	5019.23
664.439	4974.17
664.631	4927.07
664.822	4806.24
665.014	5025.37
665.205	4812.39
665.397	4822.63
665.588	4791.91
665.78	5015.13
665.971	4822.63
666.163	4927.07
666.354	4535.91
666.546	4691.56
666.737	4701.79
666.929	4716.13
667.12	4752.99
667.311	4705.89
667.503	4603.49
667.694	4732.51
667.885	4724.32
668.077	4421.22
668.268	4636.26
668.459	4456.04
668.651	4566.63
668.842	4449.89
669.033	4497
669.224	4359.78
669.416	4476.52
669.607	4437.61
669.798	4349.54
669.989	4302.44
670.18	4259.43
670.371	4437.61
670.563	4337.26
670.754	4222.57
670.945	4406.89
671.136	4351.59
671.327	4363.88
671.518	4267.63
671.709	4308.58
671.9	4212.33
672.091	4327.02
672.282	4130.41
672.473	4111.98
672.664	4142.7
672.855	4310.63
673.046	4265.58
673.237	4273.77
673.428	4142.7
673.619	4036.21
673.809	4111.98
674	4019.82
674.191	4052.59
674.382	4025.97
674.573	4154.99
674.764	4097.64
674.954	4048.49
675.145	3946.09
675.336	3921.52
675.527	3982.96
675.717	3976.81
675.908	3972.72
676.099	4068.97
676.289	4036.21
676.48	3982.96
676.671	3841.65
676.861	4111.98
677.052	3812.98
677.243	3901.04
677.433	3843.7
677.624	3858.03
677.814	3812.98
678.005	3917.42
678.195	3798.64
678.386	3810.93
678.576	3757.68
678.767	3864.18
678.957	3827.31
679.148	3804.78
679.338	3929.71
679.529	3827.31
679.719	3694.19
679.909	3794.54
680.1	3700.34
680.29	3884.66
680.481	3726.96
680.671	3726.96
680.861	3655.28
681.052	3794.54
681.242	3706.48
681.432	3780.21
681.622	3460.73
681.813	3817.07
682.003	3640.95
682.193	3542.64
682.383	3753.59
682.573	3722.87
682.764	3581.56
682.954	3530.36
683.144	3599.99
683.334	3511.93
683.524	3491.45
683.714	3591.8
683.904	3593.84
684.094	3522.16
684.284	3483.25
684.474	3530.36
684.664	3446.39
684.854	3499.64
685.044	3536.5
685.234	3604.08
685.424	3475.06
685.614	3403.38
685.804	3432.05
685.994	3456.63
686.184	3477.11
686.374	3540.6
686.564	3419.77
686.753	3503.73
686.943	3323.51
687.133	3419.77
687.323	3120.76
687.513	3323.51
687.702	3415.67
687.892	3331.7
688.082	3346.04
688.272	3393.14
688.461	3225.21
688.651	3370.62
688.841	3221.11
689.03	3303.03
689.22	3194.49
689.41	3415.67
689.599	3133.05
689.789	3161.72
689.979	3192.44
690.168	3169.91
690.358	3245.69
690.547	3184.25
690.737	3208.83
690.926	3159.67
691.116	3059.32
691.305	3055.23
691.495	3024.51
691.684	3026.56
691.874	3051.13
692.063	3085.95
692.252	3104.38
692.442	2999.93
692.631	3014.27
692.82	2989.69
693.01	2985.6
693.199	2868.86
693.388	2954.88
693.578	2979.45
693.767	3020.41
693.956	2823.81
694.146	2870.91
694.335	2854.53
694.524	2743.94
694.713	2827.9
694.902	2713.22
695.092	2838.14
695.281	2801.28
695.47	2858.62
695.659	2895.49
695.848	2799.23
696.037	2713.22
696.226	2721.41
696.415	2844.29
696.604	2838.14
696.793	2721.41
696.982	2752.13
697.171	2696.83
697.36	2854.53
697.549	2731.65
697.738	2557.57
697.927	2653.83
698.116	2766.46
698.305	2584.2
698.494	2666.11
698.683	2553.48
698.872	2793.09
699.061	2690.69
699.25	2780.8
699.438	2682.5
699.627	2774.66
699.816	2674.31
700.005	2598.53
700.193	2780.8
700.382	2625.15
700.571	2643.59
700.76	2901.63
700.948	2547.33
701.137	2573.96
701.326	2686.59
701.514	2651.78
701.703	2647.68
701.892	2641.54
702.08	2690.69
702.269	2684.55
702.457	2662.02
702.646	2420.36
702.834	2678.4
703.023	2551.43
703.212	2543.24
703.4	2670.21
703.589	2561.67
703.777	2637.44
703.965	2713.22
704.154	2700.93
704.342	2576
704.531	2524.8
704.719	2651.78
704.907	2655.87
705.096	2580.1
705.284	2680.45
705.472	2619.01
705.661	2598.53
705.849	2563.72
706.037	2616.96
706.226	2627.2
706.414	2700.93
706.602	2465.41
706.79	2651.78
706.979	2483.84
707.167	2639.49
707.355	2496.13
707.543	2539.14
707.731	2557.57
707.919	2596.48
708.107	2584.2
708.296	2647.68
708.484	2616.96
708.672	2524.8
708.86	2711.17
709.048	2664.07
709.236	2555.52
709.424	2700.93
709.612	2592.39
709.8	2555.52
709.988	2467.46
710.176	2584.2
710.364	2709.12
710.551	2641.54
710.739	2733.7
710.927	2576
711.115	2580.1
711.303	2594.44
711.491	2571.91
711.679	2670.21
711.866	2639.49
712.054	2727.55
712.242	2602.63
712.43	2637.44
712.617	2668.16
712.805	2639.49
712.993	2614.91
713.181	2621.06
713.368	2578.05
713.556	2586.24
713.744	2475.65
713.931	2608.77
714.119	2559.62
714.306	2608.77
714.494	2594.44
714.682	2637.44
714.869	2537.09
715.057	2598.53
715.244	2600.58
715.432	2594.44
715.619	2649.73
715.807	2489.99
715.994	2549.38
716.182	2596.48
716.369	2709.12
716.556	2770.56
716.744	2600.58
716.931	2625.15
717.119	2598.53
717.306	2543.24
717.493	2739.84
717.681	2623.11
717.868	2612.87
718.055	2567.81
718.242	2588.29
718.43	2692.74
718.617	2629.25
718.804	2633.35
718.991	2612.87
719.179	2682.5
719.366	2565.76
719.553	2643.59
719.74	2471.56
719.927	2551.43
720.114	2504.32
720.301	2586.24
720.488	2578.05
720.676	2711.17
720.863	2786.94
721.05	2727.55
721.237	2653.83
721.424	2686.59
721.611	2600.58
721.798	2604.67
721.985	2637.44
722.172	2614.91
722.358	2625.15
722.545	2678.4
722.732	2625.15
722.919	2619.01
723.106	2567.81
723.293	2707.07
723.48	2774.66
723.667	2688.64
723.853	2567.81
724.04	2639.49
724.227	2547.33
724.414	2625.15
724.6	2659.97
724.787	2633.35
724.974	2616.96
725.161	2584.2
725.347	2668.16
725.534	2625.15
725.72	2610.82
725.907	2629.25
726.094	2758.27
726.28	2627.2
726.467	2569.86
726.653	2739.84
726.84	2836.1
727.027	2750.08
727.213	2713.22
727.4	2655.87
727.586	2600.58
727.773	2678.4
727.959	2698.88
728.145	2705.03
728.332	2580.1
728.518	2567.81
728.705	2635.39
728.891	2696.83
729.077	2600.58
729.264	2545.28
729.45	2670.21
729.636	2748.03
729.823	2719.36
730.009	2719.36
730.195	2633.35
730.382	2678.4
730.568	2694.79
730.754	2676.35
730.94	2610.82
731.126	2674.31
731.313	2752.13
731.499	2637.44
731.685	2715.27
731.871	2659.97
732.057	2627.2
732.243	2651.78
732.429	2760.32
732.615	2651.78
732.801	2686.59
732.987	2647.68
733.173	2694.79
733.359	2623.11
733.545	2627.2
733.731	2735.74
733.917	2664.07
734.103	2647.68
734.289	2604.67
734.475	2635.39
734.661	2573.96
734.847	2662.02
735.033	2690.69
735.219	2686.59
735.404	2768.51
735.59	2655.87
735.776	2702.98
735.962	2672.26
736.148	2576
736.333	2629.25
736.519	2543.24
736.705	2578.05
736.89	2506.37
737.076	2561.67
737.262	2592.39
737.447	2678.4
737.633	2561.67
737.819	2629.25
738.004	2528.9
738.19	2569.86
738.375	2489.99
738.561	2586.24
738.747	2489.99
738.932	2625.15
739.118	2516.61
739.303	2479.75
739.489	2592.39
739.674	2592.39
739.859	2545.28
740.045	2567.81
740.23	2449.03
740.416	2412.17
740.601	2426.5
740.786	2510.47
740.972	2494.08
741.157	2317.96
741.342	2422.41
741.528	2455.17
741.713	2520.71
741.898	2487.94
742.084	2365.06
742.269	2524.8
742.454	2414.21
742.639	2467.46
742.824	2446.98
743.01	2412.17
743.195	2389.64
743.38	2446.98
743.565	2430.6
743.75	2322.06
743.935	2393.73
744.12	2379.4
744.305	2346.63
744.49	2264.71
744.675	2348.68
744.86	2262.66
745.045	2367.11
745.23	2221.7
745.415	2233.99
745.6	2262.66
745.785	2311.82
745.97	2168.46
746.155	2350.73
746.34	2246.28
746.525	2256.52
746.71	2154.12
746.895	2213.51
747.079	2154.12
747.264	2260.62
747.449	2170.51
747.634	2174.6
747.819	2113.16
748.003	2141.83
748.188	2088.59
748.373	2053.77
748.557	2141.83
748.742	2086.54
748.927	2127.5
749.111	2137.74
749.296	1986.19
749.481	1932.94
749.665	2059.92
749.85	1934.99
750.034	2055.82
750.219	1947.28
750.404	1863.31
750.588	1959.56
750.773	1902.22
750.957	1934.99
751.141	1904.27
751.326	1934.99
751.51	1855.12
751.695	1812.11
751.879	1879.69
752.064	1814.16
752.248	1681.04
752.432	1900.17
752.617	1818.25
752.801	1900.17
752.985	1812.11
753.17	1810.06
753.354	1848.97
753.538	1750.67
753.722	1730.19
753.907	1760.91
754.091	1681.04
754.275	1672.85
754.459	1762.96
754.643	1644.18
754.828	1578.64
755.012	1635.99
755.196	1617.55
755.38	1609.36
755.564	1572.5
755.748	1578.64
755.932	1631.89
756.116	1562.26
756.3	1547.92
756.484	1521.3
756.668	1513.11
756.852	1549.97
757.036	1502.87
757.22	1539.73
757.404	1521.3
757.588	1513.11
757.772	1476.24
757.956	1478.29
758.14	1586.83
758.323	1459.86
758.507	1472.15
758.691	1398.42
758.875	1427.09
759.059	1564.31
759.242	1429.14
759.426	1406.61
759.61	1392.28
759.794	1361.56
759.977	1410.71
760.161	1478.29
760.345	1330.84
760.528	1420.95
760.712	1300.12
760.895	1373.85
761.079	1259.16
761.263	1314.45
761.446	1324.69
761.63	1283.74
761.813	1306.26
761.997	1267.35
762.18	1273.5
762.364	1289.88
762.547	1263.26
762.731	1207.96
762.914	1250.97
763.098	1302.17
763.281	1152.67
763.464	1152.67
763.648	1230.49
763.831	1285.78
764.015	1199.77
764.198	1207.96
764.381	1199.77
764.564	1224.34
764.748	1091.23
764.931	1144.47
765.114	1140.38
765.297	1097.37
765.481	1212.06
765.664	1158.81
765.847	1142.43
766.03	1236.63
766.213	1148.57
766.397	1113.75
766.58	1101.47
766.763	1187.48
766.946	1048.22
767.129	1097.37
767.312	1162.9
767.495	1072.79
767.678	1085.08
767.861	1132.19
768.044	1048.22
768.227	1009.31
768.41	1072.79
768.593	1044.12
768.776	1023.64
768.959	1091.23
769.142	1107.61
769.324	1072.79
769.507	1119.9
769.69	1048.22
769.873	1095.32
770.056	1031.83
770.239	949.92
770.421	986.78
770.604	1058.46
770.787	1015.45
770.97	935.58
771.152	939.68
771.335	1019.55
771.518	949.92
771.7	947.87
771.883	1019.55
772.066	949.92
772.248	902.81
772.431	980.64
772.613	917.15
772.796	956.06
772.978	906.91
773.161	911
773.343	911
773.526	839.33
773.708	876.19
773.891	935.58
774.073	956.06
774.256	814.75
774.438	970.4
774.621	902.81
774.803	892.57
774.985	839.33
775.168	859.81
775.35	843.42
775.532	847.52
775.715	796.32
775.897	892.57
776.079	806.56
776.261	837.28
776.444	753.31
776.626	779.93
776.808	829.09
776.99	824.99
777.173	763.55
777.355	722.59
777.537	763.55
777.719	736.93
777.901	845.47
778.083	853.66
778.265	661.15
778.447	738.98
778.629	743.07
778.811	796.32
778.993	673.44
779.175	751.26
779.357	712.35
779.539	679.58
779.721	734.88
779.903	759.46
780.085	612
780.267	751.26
780.449	679.58
780.631	659.1
780.812	767.65
780.994	722.59
781.176	632.48
781.358	661.15
781.54	599.71
781.721	612
781.903	675.49
782.085	642.72
782.267	710.3
782.448	624.29
782.63	540.32
782.812	568.99
782.993	523.94
783.175	650.91
783.357	564.9
783.538	591.52
783.72	622.24
783.901	568.99
784.083	593.57
784.264	601.76
784.446	599.71
784.627	603.81
784.809	581.28
784.99	609.95
785.172	454.31
785.353	575.14
785.535	577.19
785.716	472.74
785.897	532.13
786.079	532.13
786.26	501.41
786.441	618.15
786.623	446.12
786.804	552.61
786.985	525.99
787.167	525.99
787.348	458.4
787.529	462.5
787.71	501.41
787.891	536.23
788.073	386.72
788.254	415.4
788.435	431.78
788.616	558.75
788.797	444.07
788.978	427.68
789.159	437.92
789.34	503.46
789.522	413.35
789.703	351.91
789.884	337.57
790.065	466.6
790.246	356.01
790.427	499.36
790.607	452.26
790.788	403.11
790.969	370.34
791.15	437.92
791.331	405.16
791.512	386.72
791.693	378.53
791.874	323.24
792.054	450.21
792.235	417.44
792.416	343.72
792.597	327.33
792.778	335.53
792.958	472.74
793.139	431.78
793.32	347.81
793.5	345.77
793.681	351.91
793.862	341.67
794.042	282.28
794.223	224.94
794.404	321.19
794.584	306.85
794.765	315.05
794.945	345.77
795.126	345.77
795.306	339.62
795.487	345.77
795.667	368.29
795.848	358.05
796.028	345.77
796.209	378.53
796.389	315.05
796.57	261.8
796.75	265.89
796.93	333.48
797.111	269.99
797.291	335.53
797.471	382.63
797.652	335.53
797.832	235.18
798.012	345.77
798.192	280.23
798.373	274.09
798.553	343.72
798.733	290.47
798.913	317.09
799.093	321.19
799.274	315.05
799.454	296.61
799.634	251.56
799.814	380.58
799.994	276.13
800.174	284.33
800.354	247.46
800.534	276.13
800.714	272.04
800.894	306.85
801.074	237.22
801.254	263.85
801.434	286.37
801.614	292.52
801.794	222.89
801.974	577.19
802.154	286.37
802.334	315.05
802.514	337.57
802.693	253.61
802.873	245.41
803.053	255.65
803.233	261.8
803.413	278.18
803.592	274.09
803.772	229.03
803.952	224.94
804.131	249.51
804.311	239.27
804.491	196.26
804.67	288.42
804.85	200.36
805.03	317.09
805.209	292.52
805.389	224.94
805.568	249.51
805.748	265.89
805.928	220.84
806.107	247.46
806.287	226.98
806.466	325.29
806.646	231.08
806.825	206.5
807.004	269.99
807.184	233.13
807.363	229.03
807.543	208.55
807.722	274.09
807.901	253.61
808.081	206.5
808.26	247.46
808.439	255.65
808.619	173.74
808.798	247.46
808.977	220.84
809.156	202.41
809.336	171.69
809.515	165.54
809.694	165.54
809.873	237.22
810.052	202.41
810.231	192.17
810.411	190.12
810.59	210.6
810.769	140.97
810.948	214.7
811.127	220.84
811.306	212.65
811.485	239.27
811.664	257.7
811.843	233.13
812.022	235.18
812.201	159.4
812.38	192.17
812.559	183.98
812.737	198.31
812.916	167.59
813.095	196.26
813.274	186.02
813.453	196.26
813.632	147.11
813.811	235.18
813.989	89.77
814.168	235.18
814.347	147.11
814.526	179.88
814.704	140.97
814.883	175.78
815.062	188.07
815.24	183.98
815.419	102.06
815.598	206.5
815.776	196.26
815.955	151.21
816.133	192.17
816.312	181.93
816.49	159.4
816.669	157.35
816.847	210.6
817.026	138.92
817.204	136.87
817.383	181.93
817.561	159.4
817.74	167.59
817.918	218.79
818.097	237.22
818.275	143.02
818.453	181.93
818.632	140.97
818.81	124.58
818.988	87.72
819.167	181.93
819.345	126.63
819.523	138.92
819.701	91.82
819.879	151.21
820.058	153.26
820.236	161.45
820.414	118.44
820.592	132.78
820.77	100.01
820.948	118.44
821.127	108.2
821.305	157.35
821.483	163.5
821.661	155.3
821.839	181.93
822.017	114.34
822.195	106.15
822.373	159.4
822.551	206.5
822.729	163.5
822.907	40.62
823.085	147.11
823.262	134.82
823.44	114.34
823.618	100.01
823.796	153.26
823.974	134.82
824.152	83.63
824.329	93.87
824.507	202.41
824.685	153.26
824.863	100.01
825.04	134.82
825.218	120.49
825.396	128.68
825.574	143.02
825.751	124.58
825.929	132.78
826.107	97.96
826.284	124.58
826.462	165.54
826.639	46.76
826.817	132.78
826.994	97.96
827.172	87.72
827.349	136.87
827.527	118.44
827.704	155.3
827.882	52.91
828.059	75.43
828.237	132.78
828.414	163.5
828.591	46.76
828.769	153.26
828.946	153.26
829.124	108.2
829.301	108.2
829.478	87.72
829.655	143.02
829.833	81.58
830.01	128.68
830.187	165.54
830.364	20.14
830.542	169.64
830.719	112.3
830.896	79.53
831.073	63.15
831.25	102.06
831.427	181.93
831.604	116.39
831.782	77.48
831.959	102.06
832.136	83.63
832.313	118.44
832.49	71.34
832.667	110.25
832.844	198.31
833.021	69.29
833.198	73.39
833.374	159.4
833.551	61.1
833.728	102.06
833.905	140.97
834.082	140.97
834.259	83.63
834.436	59.05
834.612	-20.82
834.789	91.82
834.966	54.95
835.143	71.34
835.319	65.19
835.496	118.44
835.673	54.95
835.85	46.76
836.026	79.53
836.203	89.77
836.38	104.11
836.556	108.2
836.733	59.05
836.909	118.44
837.086	36.52
837.262	48.81
837.439	77.48
837.616	75.43
837.792	79.53
837.968	40.62
838.145	30.38
838.321	73.39
838.498	63.15
838.674	102.06
838.851	104.11
839.027	118.44
839.203	5.8
839.38	118.44
839.556	28.33
839.732	57
839.909	108.2
840.085	59.05
840.261	34.47
840.437	26.28
840.614	132.78
840.79	83.63
840.966	46.76
841.142	100.01
841.318	26.28
841.494	38.57
841.671	28.33
841.847	1.71
842.023	97.96
842.199	138.92
842.375	50.86
842.551	61.1
842.727	110.25
842.903	91.82
843.079	63.15
843.255	102.06
843.431	-49.49
843.607	102.06
843.783	-0.34
843.959	149.16
844.134	54.95
844.31	89.77
844.486	-2.39
844.662	100.01
844.838	138.92
845.013	34.47
845.189	67.24
845.365	61.1
845.541	36.52
845.716	83.63
845.892	48.81
846.068	40.62
846.244	67.24
846.419	108.2
846.595	73.39
846.77	93.87
846.946	75.43
847.122	54.95
847.297	102.06
847.473	87.72
847.648	38.57
847.824	83.63
847.999	122.54
848.175	73.39
848.35	106.15
848.526	93.87
848.701	18.09
848.876	46.76
849.052	114.34
849.227	3.75
849.403	81.58
849.578	100.01
849.753	93.87
849.929	71.34
850.104	-16.73
850.279	97.96
850.454	83.63
850.63	126.63
850.805	61.1
850.98	38.57
851.155	-29.01
851.33	48.81
851.505	36.52
851.681	75.43
851.856	128.68
852.031	9.9
852.206	24.23
852.381	54.95
852.556	79.53
852.731	40.62
852.906	26.28
853.081	108.2
853.256	54.95
853.431	18.09
853.606	-18.77
853.781	52.91
853.956	69.29
854.131	11.95
854.305	54.95
854.48	48.81
854.655	-8.53
854.83	-41.3
855.005	22.19
855.18	-4.44
855.354	11.95
855.529	30.38
855.704	18.09
855.879	100.01
856.053	5.8
856.228	61.1
856.403	-8.53
856.577	61.1
856.752	18.09
856.926	91.82
857.101	73.39
857.276	22.19
857.45	9.9
857.625	24.23
857.799	63.15
857.974	85.67
858.148	34.47
858.323	9.9
858.497	34.47
858.672	-22.87
858.846	3.75
859.02	87.72
859.195	24.23
859.369	28.33
859.543	-2.39
859.718	46.76
859.892	42.67
860.066	69.29
860.241	52.91
860.415	46.76
860.589	61.1
860.763	95.91
860.938	40.62
861.112	13.99
861.286	-0.34
861.46	63.15
861.634	38.57
861.808	-18.77
861.982	-10.58
862.157	57
862.331	67.24
862.505	-18.77
862.679	5.8
862.853	52.91
863.027	-82.26
863.201	32.43
863.375	106.15
863.549	32.43
863.722	48.81
863.896	32.43
864.07	32.43
864.244	-6.49
864.418	67.24
864.592	71.34
864.766	100.01
864.939	65.19
865.113	-18.77
865.287	57
865.461	65.19
865.634	50.86
865.808	59.05
865.982	36.52
866.156	-8.53
866.329	22.19
866.503	36.52
866.676	28.33
866.85	-37.2
867.024	-41.3
867.197	-6.49
867.371	1.71
867.544	69.29
867.718	-22.87
867.891	69.29
868.065	-20.82
868.238	-8.53
868.412	63.15
868.585	18.09
868.759	59.05
868.932	52.91
869.105	67.24
869.279	46.76
869.452	-12.63
869.625	-12.63
869.799	75.43
869.972	-10.58
870.145	18.09
870.319	59.05
870.492	34.47
870.665	61.1
870.838	63.15
871.011	20.14
871.185	52.91
871.358	-0.34
871.531	32.43
871.704	54.95
871.877	36.52
872.05	-10.58
872.223	-8.53
872.396	-131.41
872.569	42.67
872.742	34.47
872.915	32.43
873.088	-31.06
873.261	-4.44
873.434	32.43
873.607	-14.68
873.78	42.67
873.953	16.04
874.126	30.38
874.299	57
874.471	126.63
874.644	67.24
874.817	79.53
874.99	52.91
875.163	38.57
875.335	20.14
875.508	34.47
875.681	38.57
875.853	7.85
876.026	28.33
876.199	44.71
876.371	11.95
876.544	50.86
876.717	63.15
876.889	11.95
877.062	26.28
877.234	-10.58
877.407	-2.39
877.579	-8.53
877.752	50.86
877.924	24.23
878.097	-2.39
878.269	-0.34
878.442	40.62
878.614	106.15
878.786	120.49
878.959	22.19
879.131	69.29
879.303	-24.92
879.476	32.43
879.648	34.47
879.82	20.14
879.993	50.86
880.165	77.48
880.337	-24.92
880.509	20.14
880.681	13.99
880.854	32.43
881.026	24.23
881.198	-12.63
881.37	81.58
881.542	-2.39
881.714	-41.3
881.886	-57.68
882.058	-4.44
882.23	3.75
882.402	-4.44
882.574	-2.39
882.746	104.11
882.918	26.28
883.09	-8.53
883.262	36.52
883.434	1.71
883.606	-0.34
883.778	-12.63
883.95	59.05
884.122	-45.4
884.293	42.67
884.465	30.38
884.637	-6.49
884.809	24.23
884.98	-8.53
885.152	42.67
885.324	13.99
885.496	61.1
885.667	13.99
885.839	9.9
886.011	124.58
886.182	20.14
886.354	87.72
886.525	-37.2
886.697	104.11
886.869	3.75
887.04	-2.39
887.212	54.95
887.383	50.86
887.555	79.53
887.726	26.28
887.897	-24.92
888.069	5.8
888.24	52.91
888.412	34.47
888.583	1.71
888.754	13.99
888.926	1.71
889.097	52.91
889.268	-63.83
889.44	50.86
889.611	-33.11
889.782	-29.01
889.953	9.9
890.125	40.62
890.296	26.28
890.467	-4.44
890.638	57
890.809	26.28
890.98	-22.87
891.151	42.67
891.323	22.19
891.494	-6.49
891.665	69.29
891.836	-22.87
892.007	-29.01
892.178	46.76
892.349	-35.16
892.52	-31.06
892.691	44.71
892.862	28.33
893.032	-16.73
893.203	-35.16
893.374	-26.96
893.545	-20.82
893.716	75.43
893.887	7.85
894.057	-14.68
894.228	11.95
894.399	32.43
894.57	-29.01
894.74	7.85
894.911	-2.39
895.082	-39.25
895.253	79.53
895.423	1.71
895.594	108.2
895.764	9.9
895.935	-14.68
896.106	26.28
896.276	-2.39
896.447	26.28
896.617	-8.53
896.788	32.43
896.958	34.47
897.129	-2.39
897.299	-24.92
897.47	46.76
897.64	46.76
897.81	-22.87
897.981	-33.11
898.151	-51.54
898.322	73.39
898.492	44.71
898.662	28.33
898.832	48.81
899.003	-0.34
899.173	73.39
899.343	-16.73
899.513	1.71
