Data from USB4F104151__8__11-51-06-992.txt Node

Date: Fri Mar 14 11:51:06 EDT 2025
User: louis
Spectrometer: USB4F10415
Trigger mode: 4
Integration Time (sec): 2.000000E-2
Scans to average: 1
Electric dark correction enabled: true
Nonlinearity correction enabled: false
Boxcar width: 0
XAxis mode: Wavelengths
Number of Pixels in Spectrum: 3648
>>>>>Begin Spectral Data<<<<<
178.204	-61.27
178.424	-61.27
178.644	-61.27
178.864	-59.22
179.084	-85.84
179.304	-24.4
179.524	-34.64
179.744	-53.08
179.964	-3.93
180.184	30.89
180.404	34.99
180.624	16.55
180.844	30.89
181.064	-53.08
181.283	39.08
181.503	14.51
181.723	2.22
181.943	0.17
182.163	24.75
182.383	-53.08
182.602	37.03
182.822	26.79
183.042	26.79
183.262	-5.97
183.482	39.08
183.701	6.31
183.921	8.36
184.141	-110.42
184.361	-5.97
184.58	-14.17
184.8	-5.97
185.02	-14.17
185.239	39.08
185.459	34.99
185.679	4.27
185.898	-83.8
186.118	24.75
186.338	14.51
186.557	0.17
186.777	47.27
186.997	12.46
187.216	12.46
187.436	100.52
187.655	59.56
187.875	51.37
188.095	-1.88
188.314	59.56
188.534	67.75
188.753	24.75
188.973	20.65
189.192	14.51
189.412	53.42
189.631	34.99
189.851	59.56
190.07	28.84
190.29	61.61
190.509	-44.88
190.729	34.99
190.948	49.32
191.168	96.43
191.387	47.27
191.607	-20.31
191.826	0.17
192.045	55.47
192.265	6.31
192.484	-34.64
192.704	6.31
192.923	-20.31
193.142	67.75
193.362	2.22
193.581	32.94
193.8	63.66
194.02	43.18
194.239	28.84
194.458	12.46
194.678	10.41
194.897	37.03
195.116	45.23
195.335	47.27
195.555	39.08
195.774	-12.12
195.993	20.65
196.212	-5.97
196.432	-14.17
196.651	-20.31
196.87	14.51
197.089	114.86
197.308	18.6
197.528	39.08
197.747	6.31
197.966	59.56
198.185	8.36
198.404	16.55
198.623	-36.69
198.842	71.85
199.062	51.37
199.281	14.51
199.5	-38.74
199.719	-59.22
199.938	43.18
200.157	41.13
200.376	2.22
200.595	65.71
200.814	8.36
201.033	30.89
201.252	39.08
201.471	6.31
201.69	-34.64
201.909	69.8
202.128	80.04
202.347	73.9
202.566	-5.97
202.785	0.17
203.004	-22.36
203.223	8.36
203.442	-8.02
203.661	-59.22
203.879	34.99
204.098	14.51
204.317	-24.4
204.536	2.22
204.755	10.41
204.974	18.6
205.193	47.27
205.411	86.19
205.63	24.75
205.849	-24.4
206.068	4.27
206.287	-22.36
206.505	45.23
206.724	41.13
206.943	10.41
207.162	45.23
207.381	-1.88
207.599	8.36
207.818	8.36
208.037	71.85
208.255	-3.93
208.474	71.85
208.693	6.31
208.911	-14.17
209.13	6.31
209.349	10.41
209.567	-20.31
209.786	43.18
210.005	55.47
210.223	77.99
210.442	-22.36
210.661	92.33
210.879	-22.36
211.098	73.9
211.316	20.65
211.535	-8.02
211.753	-10.07
211.972	59.56
212.191	6.31
212.409	112.81
212.628	-8.02
212.846	12.46
213.065	77.99
213.283	55.47
213.502	-42.84
213.72	77.99
213.938	75.95
214.157	-57.17
214.375	18.6
214.594	-22.36
214.812	30.89
215.031	-1.88
215.249	-18.26
215.467	80.04
215.686	43.18
215.904	-22.36
216.122	-5.97
216.341	-20.31
216.559	-61.27
216.778	14.51
216.996	-59.22
217.214	106.67
217.432	-18.26
217.651	-51.03
217.869	-32.6
218.087	34.99
218.306	-61.27
218.524	24.75
218.742	0.17
218.96	26.79
219.179	12.46
219.397	26.79
219.615	-14.17
219.833	30.89
220.051	-42.84
220.27	26.79
220.488	22.7
220.706	37.03
220.924	47.27
221.142	63.66
221.36	53.42
221.578	-5.97
221.796	2.22
222.015	-10.07
222.233	2.22
222.451	73.9
222.669	4.27
222.887	45.23
223.105	-34.64
223.323	18.6
223.541	-30.55
223.759	39.08
223.977	24.75
224.195	98.47
224.413	88.23
224.631	43.18
224.849	6.31
225.067	57.51
225.285	28.84
225.503	51.37
225.721	-28.5
225.939	30.89
226.157	-59.22
226.375	32.94
226.592	2.22
226.81	-3.93
227.028	77.99
227.246	-3.93
227.464	39.08
227.682	2.22
227.9	71.85
228.117	41.13
228.335	94.38
228.553	32.94
228.771	47.27
228.989	69.8
229.206	65.71
229.424	55.47
229.642	18.6
229.86	84.14
230.077	20.65
230.295	69.8
230.513	22.7
230.731	2.22
230.948	49.32
231.166	16.55
231.384	37.03
231.601	69.8
231.819	-5.97
232.037	28.84
232.254	24.75
232.472	96.43
232.689	2.22
232.907	75.95
233.125	39.08
233.342	-36.69
233.56	-22.36
233.777	14.51
233.995	-18.26
234.213	-8.02
234.43	30.89
234.648	-71.51
234.865	-51.03
235.083	-8.02
235.3	28.84
235.518	39.08
235.735	8.36
235.953	28.84
236.17	28.84
236.388	26.79
236.605	75.95
236.822	53.42
237.04	100.52
237.257	4.27
237.475	-20.31
237.692	51.37
237.909	53.42
238.127	24.75
238.344	-16.21
238.562	22.7
238.779	-24.4
238.996	-14.17
239.214	-59.22
239.431	94.38
239.648	22.7
239.865	28.84
240.083	88.23
240.3	4.27
240.517	16.55
240.735	51.37
240.952	88.23
241.169	6.31
241.386	34.99
241.603	8.36
241.821	80.04
242.038	71.85
242.255	20.65
242.472	28.84
242.689	8.36
242.907	41.13
243.124	32.94
243.341	-32.6
243.558	6.31
243.775	-18.26
243.992	-67.41
244.209	75.95
244.426	43.18
244.643	20.65
244.86	-30.55
245.078	6.31
245.295	-42.84
245.512	37.03
245.729	-36.69
245.946	-28.5
246.163	-5.97
246.38	-10.07
246.597	-10.07
246.814	-40.79
247.031	18.6
247.248	110.76
247.464	67.75
247.681	-5.97
247.898	71.85
248.115	6.31
248.332	-55.12
248.549	65.71
248.766	39.08
248.983	65.71
249.2	22.7
249.417	14.51
249.633	-10.07
249.85	43.18
250.067	37.03
250.284	4.27
250.501	67.75
250.717	92.33
250.934	45.23
251.151	32.94
251.368	32.94
251.585	20.65
251.801	16.55
252.018	24.75
252.235	12.46
252.451	0.17
252.668	30.89
252.885	47.27
253.102	100.52
253.318	16.55
253.535	-32.6
253.752	2.22
253.968	0.17
254.185	-34.64
254.401	16.55
254.618	30.89
254.835	73.9
255.051	51.37
255.268	26.79
255.484	41.13
255.701	8.36
255.917	-5.97
256.134	-28.5
256.351	24.75
256.567	16.55
256.784	-67.41
257	49.32
257.217	71.85
257.433	8.36
257.65	80.04
257.866	22.7
258.082	-8.02
258.299	0.17
258.515	43.18
258.732	-10.07
258.948	88.23
259.165	2.22
259.381	-24.4
259.597	-3.93
259.814	34.99
260.03	-10.07
260.246	22.7
260.463	28.84
260.679	57.51
260.895	39.08
261.112	12.46
261.328	16.55
261.544	24.75
261.761	-24.4
261.977	16.55
262.193	-8.02
262.409	55.47
262.626	55.47
262.842	30.89
263.058	-14.17
263.274	51.37
263.49	-3.93
263.707	59.56
263.923	-55.12
264.139	-1.88
264.355	-34.64
264.571	53.42
264.787	20.65
265.004	2.22
265.22	22.7
265.436	59.56
265.652	18.6
265.868	98.47
266.084	26.79
266.3	37.03
266.516	-85.84
266.732	-32.6
266.948	30.89
267.164	34.99
267.38	45.23
267.596	73.9
267.812	-34.64
268.028	24.75
268.244	63.66
268.46	20.65
268.676	20.65
268.892	77.99
269.108	22.7
269.324	75.95
269.54	53.42
269.756	53.42
269.972	47.27
270.188	67.75
270.403	37.03
270.619	-1.88
270.835	20.65
271.051	32.94
271.267	-34.64
271.483	18.6
271.698	45.23
271.914	10.41
272.13	14.51
272.346	51.37
272.562	32.94
272.777	75.95
272.993	-14.17
273.209	8.36
273.425	39.08
273.64	49.32
273.856	63.66
274.072	51.37
274.287	18.6
274.503	14.51
274.719	12.46
274.934	14.51
275.15	-8.02
275.366	61.61
275.581	18.6
275.797	10.41
276.012	24.75
276.228	-42.84
276.444	-1.88
276.659	77.99
276.875	18.6
277.09	18.6
277.306	0.17
277.521	-16.21
277.737	-18.26
277.952	30.89
278.168	10.41
278.383	28.84
278.599	32.94
278.814	71.85
279.03	12.46
279.245	45.23
279.461	34.99
279.676	59.56
279.892	63.66
280.107	41.13
280.322	-1.88
280.538	-36.69
280.753	30.89
280.969	14.51
281.184	100.52
281.399	92.33
281.615	-8.02
281.83	37.03
282.045	57.51
282.26	121
282.476	-5.97
282.691	20.65
282.906	10.41
283.122	86.19
283.337	-16.21
283.552	24.75
283.767	4.27
283.983	26.79
284.198	57.51
284.413	65.71
284.628	20.65
284.843	18.6
285.058	28.84
285.274	2.22
285.489	-5.97
285.704	-10.07
285.919	-40.79
286.134	75.95
286.349	73.9
286.564	51.37
286.779	61.61
286.995	24.75
287.21	26.79
287.425	65.71
287.64	-38.74
287.855	49.32
288.07	-63.32
288.285	69.8
288.5	2.22
288.715	59.56
288.93	6.31
289.145	10.41
289.36	34.99
289.575	18.6
289.79	59.56
290.004	133.29
290.219	-1.88
290.434	28.84
290.649	-34.64
290.864	45.23
291.079	47.27
291.294	55.47
291.509	0.17
291.724	-59.22
291.938	28.84
292.153	39.08
292.368	-46.93
292.583	116.9
292.798	39.08
293.012	-42.84
293.227	77.99
293.442	4.27
293.657	18.6
293.871	88.23
294.086	-1.88
294.301	94.38
294.516	-18.26
294.73	39.08
294.945	10.41
295.16	121
295.374	14.51
295.589	10.41
295.804	-5.97
296.018	-10.07
296.233	47.27
296.447	6.31
296.662	84.14
296.877	65.71
297.091	57.51
297.306	16.55
297.52	6.31
297.735	-3.93
297.949	65.71
298.164	57.51
298.378	-28.5
298.593	-12.12
298.807	-28.5
299.022	-48.98
299.236	69.8
299.451	-20.31
299.665	65.71
299.88	59.56
300.094	39.08
300.309	-20.31
300.523	-22.36
300.737	12.46
300.952	32.94
301.166	-1.88
301.381	-5.97
301.595	57.51
301.809	-38.74
302.024	37.03
302.238	-20.31
302.452	26.79
302.667	20.65
302.881	34.99
303.095	-14.17
303.309	92.33
303.524	0.17
303.738	43.18
303.952	12.46
304.166	92.33
304.381	0.17
304.595	86.19
304.809	-12.12
305.023	67.75
305.237	4.27
305.452	75.95
305.666	37.03
305.88	14.51
306.094	84.14
306.308	0.17
306.522	18.6
306.736	63.66
306.95	18.6
307.164	-14.17
307.379	2.22
307.593	65.71
307.807	26.79
308.021	112.81
308.235	55.47
308.449	-71.51
308.663	-18.26
308.877	39.08
309.091	-32.6
309.305	-12.12
309.519	0.17
309.733	51.37
309.947	-16.21
310.161	-5.97
310.374	49.32
310.588	32.94
310.802	53.42
311.016	6.31
311.23	34.99
311.444	98.47
311.658	37.03
311.872	26.79
312.085	39.08
312.299	26.79
312.513	47.27
312.727	-3.93
312.941	14.51
313.154	6.31
313.368	-8.02
313.582	51.37
313.796	28.84
314.009	59.56
314.223	41.13
314.437	45.23
314.651	63.66
314.864	0.17
315.078	2.22
315.292	-34.64
315.505	45.23
315.719	41.13
315.933	45.23
316.146	90.28
316.36	-26.45
316.573	32.94
316.787	88.23
317.001	30.89
317.214	18.6
317.428	20.65
317.641	-46.93
317.855	-1.88
318.068	16.55
318.282	61.61
318.495	98.47
318.709	123.05
318.922	0.17
319.136	30.89
319.349	71.85
319.563	55.47
319.776	8.36
319.99	-14.17
320.203	-1.88
320.417	90.28
320.63	-20.31
320.843	86.19
321.057	47.27
321.27	8.36
321.483	37.03
321.697	69.8
321.91	-12.12
322.124	71.85
322.337	28.84
322.55	65.71
322.763	65.71
322.977	82.09
323.19	14.51
323.403	-5.97
323.617	88.23
323.83	75.95
324.043	-8.02
324.256	28.84
324.469	34.99
324.683	-1.88
324.896	26.79
325.109	34.99
325.322	18.6
325.535	8.36
325.748	49.32
325.962	61.61
326.175	-1.88
326.388	41.13
326.601	-30.55
326.814	49.32
327.027	-14.17
327.24	49.32
327.453	0.17
327.666	-59.22
327.879	43.18
328.092	67.75
328.305	47.27
328.518	88.23
328.731	18.6
328.944	86.19
329.157	18.6
329.37	32.94
329.583	49.32
329.796	90.28
330.009	18.6
330.222	112.81
330.435	20.65
330.648	57.51
330.861	65.71
331.073	51.37
331.286	69.8
331.499	112.81
331.712	-8.02
331.925	-20.31
332.138	-65.36
332.35	39.08
332.563	16.55
332.776	39.08
332.989	34.99
333.202	26.79
333.414	55.47
333.627	-36.69
333.84	8.36
334.053	98.47
334.265	14.51
334.478	-8.02
334.691	108.71
334.903	-22.36
335.116	-24.4
335.329	59.56
335.541	28.84
335.754	108.71
335.966	-38.74
336.179	51.37
336.392	51.37
336.604	43.18
336.817	30.89
337.029	12.46
337.242	-10.07
337.454	71.85
337.667	-26.45
337.88	16.55
338.092	92.33
338.305	8.36
338.517	-18.26
338.729	80.04
338.942	106.67
339.154	24.75
339.367	-28.5
339.579	26.79
339.792	16.55
340.004	43.18
340.217	0.17
340.429	116.9
340.641	41.13
340.854	80.04
341.066	-42.84
341.278	139.43
341.491	57.51
341.703	22.7
341.915	-10.07
342.128	18.6
342.34	45.23
342.552	10.41
342.764	-34.64
342.977	-20.31
343.189	116.9
343.401	110.76
343.613	26.79
343.826	43.18
344.038	-3.93
344.25	-1.88
344.462	45.23
344.674	73.9
344.886	39.08
345.099	92.33
345.311	-46.93
345.523	0.17
345.735	10.41
345.947	92.33
346.159	55.47
346.371	94.38
346.583	32.94
346.795	67.75
347.007	-10.07
347.219	28.84
347.431	-18.26
347.643	180.39
347.855	6.31
348.067	63.66
348.279	20.65
348.491	4.27
348.703	59.56
348.915	55.47
349.127	-44.88
349.339	-18.26
349.551	-20.31
349.763	43.18
349.975	43.18
350.187	110.76
350.399	-8.02
350.61	-18.26
350.822	-18.26
351.034	41.13
351.246	65.71
351.458	69.8
351.669	10.41
351.881	57.51
352.093	30.89
352.305	14.51
352.517	75.95
352.728	100.52
352.94	59.56
353.152	-10.07
353.363	-18.26
353.575	43.18
353.787	-22.36
353.999	53.42
354.21	80.04
354.422	30.89
354.633	65.71
354.845	41.13
355.057	22.7
355.268	59.56
355.48	57.51
355.692	22.7
355.903	100.52
356.115	43.18
356.326	-10.07
356.538	10.41
356.749	32.94
356.961	125.1
357.172	-1.88
357.384	73.9
357.595	45.23
357.807	-67.41
358.018	-18.26
358.23	47.27
358.441	84.14
358.653	57.51
358.864	18.6
359.075	94.38
359.287	96.43
359.498	67.75
359.709	123.05
359.921	28.84
360.132	-22.36
360.344	51.37
360.555	-8.02
360.766	30.89
360.977	98.47
361.189	94.38
361.4	67.75
361.611	39.08
361.823	67.75
362.034	49.32
362.245	92.33
362.456	43.18
362.667	-3.93
362.879	49.32
363.09	-10.07
363.301	61.61
363.512	18.6
363.723	30.89
363.935	59.56
364.146	34.99
364.357	24.75
364.568	47.27
364.779	49.32
364.99	149.67
365.201	18.6
365.412	28.84
365.623	57.51
365.834	77.99
366.045	-44.88
366.256	39.08
366.467	63.66
366.678	10.41
366.889	22.7
367.1	53.42
367.311	20.65
367.522	16.55
367.733	34.99
367.944	28.84
368.155	84.14
368.366	63.66
368.577	18.6
368.788	123.05
368.999	121
369.209	55.47
369.42	104.62
369.631	104.62
369.842	53.42
370.053	41.13
370.264	24.75
370.474	-8.02
370.685	41.13
370.896	39.08
371.107	28.84
371.317	43.18
371.528	14.51
371.739	123.05
371.95	73.9
372.16	-57.17
372.371	28.84
372.582	92.33
372.792	14.51
373.003	26.79
373.214	30.89
373.424	4.27
373.635	-73.56
373.846	82.09
374.056	28.84
374.267	63.66
374.477	47.27
374.688	75.95
374.898	53.42
375.109	4.27
375.319	-34.64
375.53	73.9
375.74	-5.97
375.951	41.13
376.161	82.09
376.372	75.95
376.582	86.19
376.793	80.04
377.003	53.42
377.214	51.37
377.424	47.27
377.635	75.95
377.845	47.27
378.055	-1.88
378.266	2.22
378.476	65.71
378.686	53.42
378.897	2.22
379.107	86.19
379.317	28.84
379.528	57.51
379.738	14.51
379.948	14.51
380.158	6.31
380.369	10.41
380.579	63.66
380.789	-42.84
380.999	131.24
381.21	118.95
381.42	65.71
381.63	2.22
381.84	18.6
382.05	71.85
382.261	37.03
382.471	65.71
382.681	8.36
382.891	73.9
383.101	51.37
383.311	6.31
383.521	12.46
383.731	63.66
383.941	-18.26
384.151	39.08
384.361	39.08
384.571	4.27
384.781	30.89
384.991	8.36
385.201	-5.97
385.411	114.86
385.621	24.75
385.831	80.04
386.041	80.04
386.251	18.6
386.461	-3.93
386.671	2.22
386.881	92.33
387.091	16.55
387.301	45.23
387.511	28.84
387.72	80.04
387.93	49.32
388.14	43.18
388.35	10.41
388.56	30.89
388.769	0.17
388.979	127.14
389.189	-36.69
389.399	-16.21
389.609	12.46
389.818	77.99
390.028	59.56
390.238	82.09
390.447	112.81
390.657	49.32
390.867	43.18
391.076	80.04
391.286	80.04
391.496	39.08
391.705	63.66
391.915	53.42
392.125	55.47
392.334	18.6
392.544	51.37
392.753	41.13
392.963	131.24
393.172	67.75
393.382	39.08
393.591	34.99
393.801	-12.12
394.01	133.29
394.22	80.04
394.429	61.61
394.639	80.04
394.848	61.61
395.058	90.28
395.267	104.62
395.477	55.47
395.686	57.51
395.895	77.99
396.105	73.9
396.314	67.75
396.524	4.27
396.733	30.89
396.942	57.51
397.152	75.95
397.361	147.62
397.57	59.56
397.78	65.71
397.989	159.91
398.198	75.95
398.407	151.72
398.617	96.43
398.826	149.67
399.035	125.1
399.244	43.18
399.453	104.62
399.663	57.51
399.872	82.09
400.081	75.95
400.29	112.81
400.499	57.51
400.708	135.34
400.917	96.43
401.127	69.8
401.336	116.9
401.545	125.1
401.754	159.91
401.963	92.33
402.172	127.14
402.381	65.71
402.59	135.34
402.799	75.95
403.008	65.71
403.217	88.23
403.426	57.51
403.635	49.32
403.844	18.6
404.053	129.19
404.262	131.24
404.471	164.01
404.68	155.82
404.888	114.86
405.097	151.72
405.306	133.29
405.515	194.73
405.724	192.68
405.933	198.82
406.142	157.86
406.35	231.59
406.559	268.45
406.768	145.58
406.977	198.82
407.185	114.86
407.394	166.06
407.603	200.87
407.812	174.25
408.02	217.26
408.229	223.4
408.438	256.17
408.646	207.02
408.855	168.1
409.064	233.64
409.272	217.26
409.481	293.03
409.69	223.4
409.898	200.87
410.107	260.26
410.315	256.17
410.524	223.4
410.733	299.17
410.941	315.56
411.15	260.26
411.358	366.76
411.567	362.66
411.775	299.17
411.984	336.04
412.192	368.81
412.401	377
412.609	422.05
412.818	403.62
413.026	481.44
413.234	401.57
413.443	526.5
413.651	395.43
413.86	465.06
414.068	491.68
414.276	575.65
414.485	510.11
414.693	622.75
414.901	587.94
415.11	645.28
415.318	598.18
415.526	645.28
415.734	692.38
415.943	688.29
416.151	714.91
416.359	737.44
416.567	759.97
416.776	784.54
416.984	815.26
417.192	809.12
417.4	860.32
417.608	813.21
417.817	819.36
418.025	919.71
418.233	1022.11
418.441	1024.16
418.649	1040.54
418.857	1153.18
419.065	1196.18
419.273	1126.55
419.481	1108.12
419.689	1349.78
419.897	1298.58
420.105	1374.36
420.313	1360.02
420.521	1380.5
420.729	1411.22
420.937	1296.53
421.145	1489.04
421.353	1638.55
421.561	1671.31
421.769	1720.46
421.977	1712.27
422.185	1816.72
422.393	1771.66
422.601	1949.84
422.809	2062.48
423.017	2001.04
423.224	2091.15
423.432	2209.93
423.64	2259.08
423.848	2402.44
424.056	2277.51
424.263	2420.87
424.471	2543.75
424.679	2500.74
424.887	2658.43
425.094	2779.26
425.302	2828.42
425.51	2963.58
425.718	2967.68
425.925	3125.37
426.133	3022.97
426.341	3270.78
426.548	3416.18
426.756	3395.7
426.964	3580.02
427.171	3598.45
427.379	3780.72
427.586	3858.54
427.794	3917.93
428.001	4053.1
428.209	4362.34
428.417	4149.36
428.624	4548.71
428.832	4649.06
429.039	4489.32
429.247	4606.05
429.454	4954.21
429.662	5105.76
429.869	4923.49
430.076	5230.68
430.284	5163.1
430.491	5396.57
430.699	5523.54
430.906	5724.24
431.114	5761.11
431.321	5836.88
431.528	5935.18
431.736	6389.83
431.943	6686.79
432.15	6461.51
432.358	6467.66
432.565	6885.44
432.772	6694.98
432.979	7176.25
433.187	7401.53
433.394	7327.8
433.601	7942.19
433.808	8011.82
434.016	8001.58
434.223	8222.77
434.43	8745
434.637	8529.96
434.844	9248.8
435.052	9351.2
435.259	9400.35
435.466	9369.63
435.673	9222.17
435.88	9850.9
436.087	10506.25
436.294	10422.28
436.501	10197.01
436.708	10205.2
436.915	10995.71
437.122	11165.7
437.329	11192.32
437.537	11429.88
437.743	11812.85
437.95	11370.49
438.157	12142.58
438.364	12591.08
438.571	12574.7
438.778	12656.62
438.985	14053.33
439.192	13193.19
439.399	13866.97
439.606	13535.2
439.813	14204.88
440.02	14936.01
440.227	14653.39
440.433	14585.8
440.64	15241.15
440.847	14927.81
441.054	15200.19
441.261	16447.41
441.467	16244.66
441.674	16756.65
441.881	17145.77
442.088	17084.33
442.294	16842.67
442.501	17483.68
442.708	17870.75
442.914	18386.83
443.121	19095.43
443.328	18700.17
443.534	20002.68
443.741	19513.22
443.948	19185.54
444.154	20539.25
444.361	20598.64
444.568	20653.94
444.774	20596.59
444.981	20825.96
445.187	21288.81
445.394	22251.35
445.6	22327.13
445.807	24221.5
446.013	23045.96
446.22	23594.82
446.426	24407.86
446.633	24477.49
446.839	25710.37
447.046	24350.52
447.252	25718.56
447.459	25585.44
447.665	25806.62
447.871	27027.21
448.078	28247.8
448.284	26705.68
448.491	27459.34
448.697	28700.4
448.903	29239.02
449.11	29095.66
449.316	28595.96
449.522	29460.2
449.728	30160.61
449.935	30111.46
450.141	30056.16
450.347	30752.47
450.553	30144.22
450.76	30414.55
450.966	31338.19
451.172	30871.25
451.378	31901.38
451.584	31121.1
451.791	31502.03
451.997	31604.42
452.203	32157.38
452.409	32538.3
452.615	31954.63
452.821	30924.5
453.027	30576.34
453.233	32335.55
453.44	31018.71
453.646	31387.34
453.852	31330
454.058	32022.21
454.264	30967.51
454.47	31616.71
454.676	30889.68
454.882	32079.55
455.088	29222.64
455.294	29605.61
455.5	29990.63
455.705	30400.22
455.911	29320.94
456.117	28546.81
456.323	27924.22
456.529	26984.21
456.735	27889.41
456.941	27082.51
457.147	26713.88
457.352	25947.93
457.558	25841.44
457.764	25751.33
457.97	25089.84
458.176	24583.99
458.381	24917.81
458.587	23492.42
458.793	23617.35
458.999	22089.56
459.204	23621.44
459.41	23310.15
459.616	21895
459.821	21643.1
460.027	21276.52
460.233	21069.67
460.438	20035.45
460.644	20209.53
460.85	19300.23
461.055	18835.34
461.261	18943.88
461.466	17487.78
461.672	17201.06
461.878	17932.19
462.083	17321.89
462.289	16664.49
462.494	16562.09
462.7	15968.18
462.905	15419.33
463.111	16086.97
463.316	15857.59
463.522	15474.62
463.727	15755.19
463.932	15650.75
464.138	15318.98
464.343	15587.26
464.549	15026.12
464.754	15519.68
464.959	15329.22
465.165	15228.87
465.37	14434.25
465.575	14178.26
465.781	14854.09
465.986	14878.66
466.191	14501.84
466.397	14397.39
466.602	13492.19
466.807	13811.67
467.012	13991.89
467.218	13821.91
467.423	13731.8
467.628	13803.48
467.833	14428.11
468.038	13846.49
468.244	13273.06
468.449	13807.58
468.654	13490.14
468.859	13320.16
469.064	13299.68
469.269	12759.02
469.474	13131.75
469.679	13121.51
469.885	12652.52
470.09	13094.88
470.295	13043.68
470.5	12589.03
470.705	12799.98
470.91	12390.38
471.115	12242.93
471.32	12472.3
471.525	12341.23
471.73	12140.53
471.935	11872.25
472.139	11628.54
472.344	11835.38
472.549	11569.15
472.754	11556.86
472.959	11319.29
473.164	10893.32
473.369	10950.66
473.574	11339.77
473.778	11274.24
473.983	11063.3
474.188	11057.15
474.393	10504.2
474.598	10491.91
474.802	10582.03
475.007	10641.42
475.212	10354.7
475.417	9898
475.621	10192.91
475.826	10192.91
476.031	10051.6
476.235	9807.89
476.44	9996.31
476.645	9625.62
476.849	9793.56
477.054	9656.34
477.259	9392.16
477.463	9392.16
477.668	9447.45
477.872	9338.91
478.077	9099.3
478.282	8898.59
478.486	8886.31
478.691	8714.28
478.895	8847.4
479.1	8681.51
479.304	8540.2
479.509	8554.54
479.713	8521.77
479.918	8509.48
480.122	8355.88
480.326	8362.03
480.531	8271.92
480.735	8214.57
480.94	8384.55
481.144	8429.61
481.348	7993.39
481.553	8120.37
481.757	8163.37
481.961	8417.32
482.166	8159.28
482.37	8124.46
482.574	7968.82
482.778	7942.19
482.983	7985.2
483.187	8044.59
483.391	8044.59
483.595	7940.15
483.8	7852.08
484.004	8079.41
484.208	8163.37
484.412	8028.21
484.616	8149.04
484.821	8114.22
485.025	7952.43
485.229	8067.12
485.433	7876.66
485.637	8144.94
485.841	7981.1
486.045	7993.39
486.249	8020.02
486.453	8161.33
486.657	8065.07
486.861	8067.12
487.065	7882.8
487.269	8013.87
487.473	7794.74
487.677	7749.68
487.881	8028.21
488.085	8101.94
488.289	8157.23
488.493	7827.51
488.697	7966.77
488.901	8114.22
489.105	8216.62
489.309	8063.02
489.512	8216.62
489.716	8110.13
489.92	8230.96
490.124	8128.56
490.328	8200.24
490.531	8171.57
490.735	8130.61
490.939	8095.79
491.143	8079.41
491.346	8233.01
491.55	8351.79
491.754	8480.81
491.958	8562.73
492.161	8210.48
492.365	8312.88
492.569	8613.93
492.772	8271.92
492.976	8556.58
493.18	8443.95
493.383	8661.03
493.587	8683.56
493.79	8876.07
493.994	8478.76
494.197	8857.64
494.401	8908.83
494.605	8949.79
494.808	8888.36
495.012	9109.54
495.215	9142.3
495.419	9240.61
495.622	9093.15
495.825	9093.15
496.029	9189.41
496.232	9525.27
496.436	9416.73
496.639	9603.1
496.843	9615.38
497.046	9926.68
497.249	9820.18
497.453	9836.56
497.656	10076.18
497.859	10102.8
498.063	10438.67
498.266	10395.66
498.469	10536.97
498.673	10366.99
498.876	10696.71
499.079	10801.16
499.282	10670.09
499.485	10934.28
499.689	10989.57
499.892	10997.76
500.095	11239.42
500.298	11495.42
500.501	11495.42
500.705	11687.93
500.908	11642.87
501.111	12019.7
501.314	11896.82
501.517	12169.2
501.72	12247.02
501.923	12275.7
502.126	12716.01
502.329	12691.43
502.532	12726.25
502.735	12804.07
502.938	13184.99
503.141	13410.27
503.344	13264.86
503.547	13440.99
503.75	13553.63
503.953	13940.69
504.156	13883.35
504.359	13823.96
504.562	14063.57
504.765	14424.01
504.968	14413.77
505.17	14866.38
505.373	14733.26
505.576	15108.04
505.779	15329.22
505.982	15169.48
506.185	15445.95
506.387	15554.49
506.59	15853.5
506.793	15972.28
506.996	16039.86
507.198	16455.6
507.401	16222.13
507.604	16422.83
507.807	16809.9
508.009	16834.47
508.212	17086.37
508.415	17192.87
508.617	17348.51
508.82	17405.86
509.022	17479.58
509.225	17860.51
509.428	18081.69
509.63	18087.83
509.833	18190.23
510.035	18679.69
510.238	18374.55
510.44	18872.2
510.643	19267.46
510.845	19234.69
511.048	19152.77
511.25	19595.14
511.453	19500.93
511.655	20465.52
511.858	20064.12
512.06	20158.33
512.262	20537.2
512.465	20496.24
512.667	20952.94
512.87	20934.51
513.072	21022.57
513.274	21450.6
513.477	21516.13
513.679	21735.26
513.881	22302.55
514.084	22187.86
514.286	22226.78
514.488	22388.57
514.69	22953.8
514.893	23101.26
515.095	23177.03
515.297	23525.19
515.499	23451.46
515.701	24096.57
515.904	24106.81
516.106	24268.6
516.308	24477.49
516.51	24561.46
516.712	24618.8
516.914	24940.33
517.116	25366.31
517.318	25308.97
517.52	25474.85
517.722	25640.74
517.925	26193.69
518.127	26283.8
518.329	26591
518.531	26175.26
518.733	26992.4
518.935	27037.45
519.136	27002.64
519.338	27488.01
519.54	27504.39
519.742	28000
519.944	27991.81
520.146	28663.54
520.348	28542.71
520.55	28964.59
520.752	28882.67
520.954	29566.7
521.155	28942.07
521.357	29564.65
521.559	29591.27
521.761	30447.32
521.963	30373.6
522.164	30191.33
522.366	30740.18
522.568	30805.72
522.77	30645.98
522.971	31387.34
523.173	31049.42
523.375	31291.09
523.576	31620.81
523.778	31790.79
523.98	32046.79
524.181	32095.94
524.383	32190.14
524.584	32499.39
524.786	32528.06
524.988	32454.33
525.189	33013.43
525.391	33294
525.592	33142.45
525.794	33748.65
525.995	33689.26
526.197	33294
526.398	33609.39
526.6	33906.34
526.801	34051.75
527.003	34416.29
527.204	34285.22
527.406	34774.68
527.607	34596.51
527.808	34815.64
528.01	34145.95
528.211	34813.59
528.412	35626.64
528.614	35632.78
528.815	35409.55
529.016	35522.19
529.218	35245.71
529.419	35479.18
529.62	35364.5
529.822	35636.87
530.023	35446.41
530.224	35903.11
530.425	35491.47
530.626	35364.5
530.828	35616.4
531.029	36138.63
531.23	35790.47
531.431	35894.92
531.632	36394.62
531.833	36148.87
532.035	36314.75
532.236	36462.21
532.437	36345.47
532.638	36017.8
532.839	36548.22
533.04	36615.8
533.241	36142.72
533.442	36753.02
533.643	36306.56
533.844	36157.06
534.045	36535.93
534.246	36253.31
534.447	36578.94
534.648	36464.25
534.849	36406.91
535.05	36636.28
535.251	36986.49
535.451	36417.15
535.652	36822.65
535.853	36875.9
536.054	36796.03
536.255	36732.54
536.456	36290.18
536.657	37373.55
536.857	36464.25
537.058	36609.66
537.259	36966.01
537.46	36943.48
537.66	36558.46
537.861	36908.66
538.062	36773.5
538.263	36853.37
538.463	36865.66
538.664	36765.31
538.865	36724.35
539.065	37129.84
539.266	36478.59
539.466	36816.5
539.667	36748.92
539.868	37156.47
540.068	36720.25
540.269	36697.72
540.469	36722.3
540.67	37109.36
540.87	36828.79
541.071	36626.04
541.271	36750.97
541.472	36652.67
541.672	37011.06
541.873	36437.63
542.073	36441.73
542.274	36605.56
542.474	36920.95
542.675	36445.82
542.875	36931.19
543.075	36759.16
543.276	36462.21
543.476	36875.9
543.676	36753.02
543.877	37185.14
544.077	36667
544.277	36408.96
544.478	36189.83
544.678	36601.47
544.878	36546.17
545.078	36599.42
545.279	36126.34
545.479	36638.33
545.679	36894.33
545.879	36370.05
546.079	36540.03
546.28	36454.01
546.48	36245.12
546.68	36640.38
546.88	36361.86
547.08	36767.35
547.28	36298.37
547.48	36265.6
547.68	36318.85
547.88	36212.35
548.081	36396.67
548.281	36298.37
548.481	36378.24
548.681	36548.22
548.881	36306.56
549.081	36341.38
549.28	35978.89
549.48	36318.85
549.68	36241.03
549.88	36961.91
550.08	36402.82
550.28	36355.71
550.48	36314.75
550.68	36652.67
550.88	36150.92
551.08	36089.48
551.279	36273.79
551.479	36261.51
551.679	36208.26
551.879	36112
552.079	36220.55
552.278	36025.99
552.478	36314.75
552.678	36089.48
552.878	36308.61
553.077	36273.79
553.277	35503.76
553.477	36521.6
553.676	36314.75
553.876	36107.91
554.076	36091.52
554.275	35999.37
554.475	36058.76
554.674	35778.18
554.874	35790.47
555.074	35786.38
555.273	35888.78
555.473	36060.8
555.672	35624.59
555.872	35604.11
556.071	35679.88
556.271	36122.24
556.47	35708.55
556.67	35538.57
556.869	35993.22
557.068	35577.48
557.268	35286.67
557.467	35489.42
557.667	35331.73
557.866	35337.87
558.065	35511.95
558.265	34922.13
558.464	35083.92
558.663	35372.69
558.863	35036.82
559.062	35307.15
559.261	35059.35
559.461	35536.52
559.66	35077.78
559.859	35045.01
560.058	34735.77
560.258	35012.24
560.457	34633.37
560.656	35065.49
560.855	34559.64
561.054	34582.17
561.253	34279.07
561.453	34516.64
561.652	34512.54
561.851	34578.08
562.05	34102.95
562.249	34248.35
562.448	34887.32
562.647	34451.1
562.846	34274.98
563.045	34266.78
563.244	33990.31
563.443	34512.54
563.642	33613.48
563.841	34078.37
564.04	33672.87
564.239	34137.76
564.438	33670.82
564.637	33943.2
564.836	33793.7
565.035	33431.21
565.234	33334.96
565.432	33365.68
565.631	33132.21
565.83	33439.4
566.029	33228.46
566.228	33023.67
566.427	33095.35
566.625	32939.7
566.824	32743.1
567.023	33113.78
567.222	32407.23
567.42	32667.32
567.619	32874.17
567.818	32583.35
568.016	32591.55
568.215	32845.49
568.414	32097.98
568.612	32757.43
568.811	32423.61
569.01	32235.2
569.208	31741.64
569.407	32138.94
569.605	32030.4
569.804	32231.1
570.002	31637.19
570.201	31950.53
570.4	31690.44
570.598	31303.37
570.797	31393.48
570.995	31553.23
571.193	31366.86
571.392	31397.58
571.59	31080.14
571.789	31047.38
571.987	31047.38
572.186	31182.54
572.384	30949.07
572.582	30971.6
572.781	31252.17
572.979	30523.1
573.177	30775
573.376	30729.94
573.574	30402.27
573.772	30609.11
573.971	30590.68
574.169	30058.21
574.367	30035.68
574.565	30357.21
574.763	30060.26
574.962	30121.7
575.16	29460.2
575.358	30015.2
575.556	29462.25
575.754	30041.82
575.952	29458.15
576.151	30019.3
576.349	29372.14
576.547	29150.96
576.745	29535.98
576.943	29081.33
577.141	29327.08
577.339	29081.33
577.537	29165.29
577.735	29331.18
577.933	29122.29
578.131	29249.26
578.329	28411.64
578.527	28368.63
578.725	28569.33
578.923	28675.83
579.121	28339.96
579.319	28385.02
579.516	28653.3
579.714	28014.34
579.912	28204.8
580.11	28344.06
580.308	27967.23
580.506	28153.6
580.704	27397.9
580.901	28004.1
581.099	27848.45
581.297	27705.09
581.495	27576.07
581.692	27498.25
581.89	27266.83
582.088	27930.37
582.285	27600.65
582.483	27602.69
582.681	27229.96
582.878	26986.25
583.076	27205.39
583.274	26912.53
583.471	26820.37
583.669	27064.08
583.866	26842.9
584.064	27166.48
584.262	26588.95
584.459	26806.03
584.657	26443.54
584.854	26474.26
585.052	26162.97
585.249	26656.53
585.447	26427.16
585.644	26150.68
585.841	26150.68
586.039	26289.95
586.236	25802.53
586.434	25960.22
586.631	25728.8
586.828	25790.24
587.026	25755.43
587.223	25724.71
587.42	25673.51
587.618	25581.35
587.815	25390.89
588.012	25200.43
588.21	25335.59
588.407	25317.16
588.604	25026.35
588.801	24975.15
588.999	25089.84
589.196	24866.61
589.393	24807.22
589.59	24772.4
589.787	24915.76
589.984	24756.02
590.182	24010.56
590.379	24420.15
590.576	24364.85
590.773	24534.84
590.97	24387.38
591.167	24350.52
591.364	23856.96
591.561	24280.89
591.758	23662.4
591.955	23799.62
592.152	24026.94
592.349	23756.61
592.546	23779.14
592.743	23572.29
592.94	23271.24
593.137	23557.96
593.334	23695.17
593.531	23181.13
593.727	23445.32
593.924	23396.17
594.121	22796.11
594.318	23002.96
594.515	22937.42
594.712	23121.74
594.908	22658.9
595.105	23164.75
595.302	22589.27
595.499	22986.57
595.696	22574.93
595.892	22493.01
596.089	22558.55
596.286	22531.92
596.482	22677.33
596.679	22523.73
596.876	22624.08
597.072	22339.41
597.269	22179.67
597.466	21958.49
597.662	21999.45
597.859	21911.39
598.055	21487.46
598.252	21569.38
598.448	21626.72
598.645	21634.91
598.841	21520.23
599.038	21491.55
599.234	21639.01
599.431	21362.53
599.627	21342.05
599.824	21297
600.02	21276.52
600.217	21206.89
600.413	21385.06
600.609	20961.13
600.806	20787.05
601.002	20834.16
601.198	20569.97
601.395	20633.46
601.591	20629.36
601.787	20651.89
601.984	20686.7
602.18	20748.14
602.376	20578.16
602.572	20479.86
602.769	20313.97
602.965	20381.56
603.161	20627.31
603.357	20182.9
603.553	19922.81
603.75	20199.29
603.946	19986.3
604.142	20084.6
604.338	19615.62
604.534	20043.64
604.73	19517.31
604.926	19578.75
605.122	19554.18
605.318	19679.1
605.514	19343.24
605.71	19369.86
605.906	19261.32
606.102	19414.91
606.298	19640.19
606.494	19007.37
606.69	19302.28
606.886	19363.72
607.082	19210.12
607.278	19003.27
607.474	18579.34
607.67	18902.92
607.866	18780.04
608.062	18958.22
608.257	18669.45
608.453	18919.31
608.649	18718.61
608.845	18700.17
609.041	18775.95
609.236	18720.65
609.432	18651.02
609.628	18550.67
609.824	18552.72
610.019	18638.73
610.215	18114.45
610.411	18536.34
610.606	18452.37
610.802	18233.24
610.998	18323.35
611.193	18249.62
611.389	17903.51
611.584	18003.86
611.78	18079.64
611.976	18141.08
612.171	17954.71
612.367	18132.89
612.562	17639.33
612.758	17616.8
612.953	17743.77
613.149	18225.04
613.344	17489.82
613.539	18110.36
613.735	17837.98
613.93	17602.46
614.126	17645.47
614.321	17823.64
614.517	17477.54
614.712	17741.72
614.907	17510.3
615.103	17788.83
615.298	17799.07
615.493	17743.77
615.688	17221.54
615.884	17653.66
616.079	17229.73
616.274	17426.34
616.47	17115.05
616.665	17289.12
616.86	17242.02
617.055	17151.91
617.25	17178.53
617.445	17010.6
617.641	16830.38
617.836	17059.75
618.031	16695.21
618.226	16844.71
618.421	16969.64
618.616	16990.12
618.811	16357.3
619.006	16756.65
619.201	16390.06
619.396	16568.24
619.591	16396.21
619.786	16527.28
619.981	16123.83
620.176	16283.57
620.371	16084.92
620.566	16273.33
620.761	16119.73
620.956	16101.3
621.151	15742.91
621.346	15984.57
621.541	15599.55
621.735	15867.83
621.93	15613.88
622.125	15861.69
622.32	15497.15
622.515	15376.32
622.709	15413.18
622.904	15302.59
623.099	15177.67
623.294	15214.53
623.488	14890.95
623.683	14987.21
623.878	14813.13
624.072	14817.22
624.267	14663.63
624.462	14784.46
624.656	14718.92
624.851	14737.35
625.046	14364.62
625.24	14264.27
625.435	14278.61
625.629	14389.2
625.824	14069.72
626.018	14018.52
626.213	13674.46
626.407	13809.62
626.602	13608.92
626.796	13864.92
626.991	13602.78
627.185	13678.55
627.38	13479.9
627.574	13443.04
627.768	13254.62
627.963	13350.88
628.157	13180.9
628.352	13244.38
628.546	12965.86
628.74	13160.42
628.935	12705.77
629.129	13006.82
629.323	12677.1
629.517	12650.47
629.712	12398.57
629.906	12513.26
630.1	12572.65
630.294	12789.74
630.489	12320.75
630.683	12314.61
630.877	12081.14
631.071	12208.11
631.265	12232.69
631.459	12107.76
631.653	12019.7
631.848	12113.91
632.042	11694.07
632.236	11814.9
632.43	11794.42
632.624	11763.7
632.818	11798.52
633.012	11601.91
633.206	11436.03
633.4	11407.36
633.594	11388.92
633.788	11282.43
633.982	11632.63
634.176	11376.64
634.369	11112.45
634.563	11208.7
634.757	11319.29
634.951	11139.07
635.145	11063.3
635.339	10944.52
635.533	10870.79
635.726	10934.28
635.92	10551.31
636.114	10661.9
636.308	10692.62
636.501	10530.83
636.695	10559.5
636.889	10227.73
637.083	10530.83
637.276	10334.22
637.47	10340.36
637.664	10268.69
637.857	10262.54
638.051	10110.99
638.244	10115.09
638.438	10000.4
638.632	10035.22
638.825	9811.99
639.019	9947.15
639.212	9811.99
639.406	9707.54
639.599	9625.62
639.793	9756.69
639.986	9494.55
640.18	9627.67
640.373	9482.27
640.567	9441.31
640.76	9537.56
640.954	9265.18
641.147	9304.09
641.34	9300
641.534	9283.61
641.727	9191.45
641.92	9097.25
642.114	9025.57
642.307	9259.04
642.5	9003.04
642.694	8648.74
642.887	8925.22
643.08	8968.23
643.273	8790.05
643.467	8712.23
643.66	8769.57
643.853	8628.26
644.046	8689.7
644.239	8568.87
644.432	8572.97
644.626	8620.07
644.819	8482.86
645.012	8388.65
645.205	8468.52
645.398	8417.32
645.591	8282.16
645.784	8214.57
645.977	8292.4
646.17	8108.08
646.363	8034.35
646.556	8081.46
646.749	8081.46
646.942	7970.87
647.135	8128.56
647.328	7833.65
647.521	7860.27
647.714	7770.16
647.907	7921.71
648.099	7686.2
648.292	7667.77
648.485	7614.52
648.678	7391.29
648.871	7540.79
649.064	7510.07
649.256	7442.49
649.449	7391.29
649.642	7508.02
649.835	7389.24
650.027	7260.22
650.22	7348.28
650.413	7190.59
650.605	7268.41
650.798	7211.07
650.991	7196.73
651.183	7213.12
651.376	7010.37
651.568	7153.73
651.761	7123.01
651.954	6903.87
652.146	6832.19
652.339	6846.53
652.531	6844.48
652.724	6772.8
652.916	6697.03
653.109	6674.5
653.301	6621.25
653.494	6584.39
653.686	6635.59
653.879	6625.35
654.071	6563.91
654.263	6451.27
654.456	6555.72
654.648	6596.68
654.84	6340.68
655.033	6322.25
655.225	6465.61
655.417	6279.24
655.61	6318.15
655.802	6285.39
655.994	6326.35
656.186	6228.04
656.379	5994.58
656.571	6152.27
656.763	6064.21
656.955	6162.51
657.148	6133.84
657.34	5900.37
657.532	5797.97
657.724	6019.15
657.916	6010.96
658.108	5965.9
658.3	5789.78
658.492	5970
658.684	5828.69
658.876	5765.2
659.068	5744.72
659.26	5855.31
659.452	5552.21
659.644	5677.14
659.836	5466.2
660.028	5613.65
660.22	5521.49
660.412	5521.49
660.604	5318.75
660.796	5525.59
660.988	5494.87
661.18	5386.33
661.372	5533.78
661.563	5345.37
661.755	5441.62
661.947	5345.37
662.139	5392.47
662.331	5308.51
662.522	5304.41
662.714	5159
662.906	5222.49
663.097	5232.73
663.289	5126.24
663.481	4974.69
663.673	5083.23
663.864	5077.09
664.056	4956.26
664.247	5015.65
664.439	4941.92
664.631	4903.01
664.822	4993.12
665.014	4948.06
665.205	4816.99
665.397	4835.42
665.588	4878.43
665.78	4821.09
665.971	4862.05
666.163	4860
666.354	4716.64
666.546	4669.54
666.737	4593.76
666.929	4708.45
667.12	4479.08
667.311	4745.31
667.503	4638.82
667.694	4685.92
667.885	4497.51
668.077	4593.76
668.268	4442.21
668.459	4587.62
668.651	4417.64
668.842	4554.85
669.033	4436.07
669.224	4425.83
669.416	4343.91
669.607	4331.62
669.798	4378.73
669.989	4382.82
670.18	4458.6
670.371	4376.68
670.563	4288.62
670.754	4358.25
670.945	4237.42
671.136	4311.14
671.327	4345.96
671.518	4118.64
671.709	4159.6
671.9	4171.88
672.091	4186.22
672.282	4065.39
672.473	4169.84
672.664	4350.06
672.855	4118.64
673.046	4049
673.237	4100.2
673.428	4108.4
673.619	4153.45
673.809	4057.2
674	4098.16
674.191	4163.69
674.382	3983.47
674.573	3993.71
674.764	3975.28
674.954	3975.28
675.145	4069.48
675.336	3926.13
675.527	3864.69
675.717	3952.75
675.908	3793.01
676.099	3942.51
676.289	3870.83
676.48	3934.32
676.671	3706.99
676.861	3924.08
677.052	3850.35
677.243	3854.45
677.433	3803.25
677.624	3858.54
677.814	3944.56
678.005	3838.06
678.195	3840.11
678.386	3807.34
678.576	3745.91
678.767	3780.72
678.957	3893.36
679.148	3799.15
679.338	3764.34
679.529	3600.5
679.719	3807.34
679.909	3649.65
680.1	3604.6
680.29	3577.97
680.481	3668.08
680.671	3768.43
680.861	3706.99
681.052	3641.46
681.242	3590.26
681.432	3618.93
681.622	3678.32
681.813	3670.13
682.003	3610.74
682.193	3625.08
682.383	3704.95
682.573	3672.18
682.764	3641.46
682.954	3696.75
683.144	3479.67
683.334	3537.01
683.524	3657.84
683.714	3555.44
683.904	3604.6
684.094	3508.34
684.284	3584.12
684.474	3559.54
684.664	3610.74
684.854	3592.31
685.044	3532.92
685.234	3416.18
685.424	3448.95
685.614	3444.85
685.804	3532.92
685.994	3407.99
686.184	3506.29
686.374	3428.47
686.564	3387.51
686.753	3412.09
686.943	3451
687.133	3305.59
687.323	3364.98
687.513	3377.27
687.702	3246.2
687.892	3244.15
688.082	3432.57
688.272	3166.33
688.461	3223.67
688.651	3346.55
688.841	3270.78
689.03	3246.2
689.22	3229.82
689.41	3158.14
689.599	3131.51
689.789	3235.96
689.979	3174.52
690.168	3047.55
690.358	3027.07
690.547	3086.46
690.737	2955.39
690.926	3149.95
691.116	3020.92
691.305	2994.3
691.495	2963.58
691.684	3020.92
691.874	3016.83
692.063	2973.82
692.252	2910.33
692.442	2824.32
692.631	2945.15
692.82	3031.16
693.01	3043.45
693.199	2910.33
693.388	2957.44
693.578	2855.04
693.767	2898.05
693.956	2982.01
694.146	2824.32
694.335	2785.41
694.524	2801.79
694.713	2748.54
694.902	2867.33
695.092	2848.9
695.281	2775.17
695.47	2685.06
695.659	2756.74
695.848	2736.26
696.037	2652.29
696.226	2750.59
696.415	2705.54
696.604	2734.21
696.793	2730.11
696.982	2691.2
697.171	2791.55
697.36	2664.58
697.549	2828.42
697.738	2605.19
697.927	2619.52
698.116	2687.11
698.305	2635.91
698.494	2685.06
698.683	2533.51
698.872	2728.07
699.061	2568.32
699.25	2619.52
699.438	2762.88
699.627	2492.55
699.816	2635.91
700.005	2590.85
700.193	2642.05
700.382	2633.86
700.571	2533.51
700.76	2556.04
700.948	2672.77
701.137	2617.47
701.326	2719.87
701.514	2594.95
701.703	2558.08
701.892	2613.38
702.08	2672.77
702.269	2648.19
702.457	2449.54
702.646	2543.75
702.834	2670.72
703.023	2619.52
703.212	2586.76
703.4	2635.91
703.589	2529.41
703.777	2551.94
703.965	2547.84
704.154	2621.57
704.342	2588.8
704.531	2521.22
704.719	2523.27
704.907	2562.18
705.096	2584.71
705.284	2560.13
705.472	2580.61
705.661	2521.22
705.849	2564.23
706.037	2558.08
706.226	2547.84
706.414	2465.93
706.602	2568.32
706.79	2537.6
706.979	2592.9
707.167	2513.03
707.355	2551.94
707.543	2527.36
707.731	2609.28
707.919	2625.67
708.107	2414.73
708.296	2488.45
708.484	2394.25
708.672	2467.97
708.86	2578.56
709.048	2476.16
709.236	2525.32
709.424	2570.37
709.612	2689.15
709.8	2582.66
709.988	2504.84
710.176	2615.43
710.364	2556.04
710.551	2566.28
710.739	2556.04
710.927	2543.75
711.115	2519.17
711.303	2588.8
711.491	2484.36
711.679	2492.55
711.866	2535.56
712.054	2609.28
712.242	2502.79
712.43	2496.64
712.617	2601.09
712.805	2480.26
712.993	2615.43
713.181	2578.56
713.368	2549.89
713.556	2566.28
713.744	2502.79
713.931	2603.14
714.119	2658.43
714.306	2523.27
714.494	2496.64
714.682	2597
714.869	2484.36
715.057	2613.38
715.244	2498.69
715.432	2672.77
715.619	2582.66
715.807	2566.28
715.994	2568.32
716.182	2533.51
716.369	2588.8
716.556	2531.46
716.744	2574.47
716.931	2537.6
717.119	2535.56
717.306	2640
717.493	2523.27
717.681	2635.91
717.868	2506.88
718.055	2730.11
718.242	2683.01
718.43	2662.53
718.617	2617.47
718.804	2523.27
718.991	2629.76
719.179	2599.04
719.366	2644.1
719.553	2609.28
719.74	2506.88
719.927	2609.28
720.114	2592.9
720.301	2494.6
720.488	2580.61
720.676	2601.09
720.863	2605.19
721.05	2668.67
721.237	2642.05
721.424	2717.83
721.611	2580.61
721.798	2627.71
721.985	2697.35
722.172	2588.8
722.358	2510.98
722.545	2607.23
722.732	2588.8
722.919	2619.52
723.106	2656.39
723.293	2597
723.48	2740.35
723.667	2627.71
723.853	2623.62
724.04	2644.1
724.227	2658.43
724.414	2660.48
724.6	2490.5
724.787	2631.81
724.974	2617.47
725.161	2633.86
725.347	2629.76
725.534	2547.84
725.72	2611.33
725.907	2529.41
726.094	2683.01
726.28	2648.19
726.467	2523.27
726.653	2676.87
726.84	2683.01
727.027	2748.54
727.213	2549.89
727.4	2543.75
727.586	2668.67
727.773	2629.76
727.959	2549.89
728.145	2666.63
728.332	2619.52
728.518	2695.3
728.705	2646.15
728.891	2551.94
729.077	2683.01
729.264	2607.23
729.45	2707.59
729.636	2695.3
729.823	2574.47
730.009	2640
730.195	2683.01
730.382	2844.8
730.568	2619.52
730.754	2564.23
730.94	2656.39
731.126	2635.91
731.313	2601.09
731.499	2619.52
731.685	2617.47
731.871	2578.56
732.057	2683.01
732.243	2637.95
732.429	2617.47
732.615	2640
732.801	2640
732.987	2658.43
733.173	2664.58
733.359	2635.91
733.545	2678.91
733.731	2629.76
733.917	2775.17
734.103	2611.33
734.289	2699.39
734.475	2486.4
734.661	2879.61
734.847	2633.86
735.033	2666.63
735.219	2568.32
735.404	2625.67
735.59	2607.23
735.776	2439.3
735.962	2646.15
736.148	2625.67
736.333	2701.44
736.519	2625.67
736.705	2541.7
736.89	2541.7
737.076	2619.52
737.262	2531.46
737.447	2549.89
737.633	2623.62
737.819	2547.84
738.004	2594.95
738.19	2533.51
738.375	2549.89
738.561	2562.18
738.747	2547.84
738.932	2496.64
739.118	2650.24
739.303	2410.63
739.489	2510.98
739.674	2437.25
739.859	2478.21
740.045	2418.82
740.23	2502.79
740.416	2369.67
740.601	2441.35
740.786	2373.77
740.972	2470.02
741.157	2463.88
741.342	2449.54
741.528	2355.33
741.713	2465.93
741.898	2402.44
742.084	2465.93
742.269	2588.8
742.454	2365.57
742.639	2388.1
742.824	2318.47
743.01	2433.16
743.195	2357.38
743.38	2287.75
743.565	2359.43
743.75	2338.95
743.935	2259.08
744.12	2476.16
744.305	2302.09
744.49	2347.14
744.675	2222.22
744.86	2175.11
745.045	2345.09
745.23	2201.74
745.415	2324.62
745.6	2242.7
745.785	2197.64
745.97	2295.94
746.155	2171.02
746.34	2291.85
746.525	2199.69
746.71	2207.88
746.895	2230.41
747.079	2091.15
747.264	1996.94
747.449	2279.56
747.634	2089.1
747.819	2095.24
748.003	2175.11
748.188	2087.05
748.373	2062.48
748.557	2138.25
748.742	2007.18
748.927	2064.52
749.111	2039.95
749.296	1884.3
749.481	2091.15
749.665	2048.14
749.85	1921.17
750.034	1884.3
750.219	1804.43
750.404	1964.17
750.588	2072.72
750.773	1857.68
750.957	1951.88
751.141	1896.59
751.326	1861.77
751.51	1814.67
751.695	1841.29
751.879	1751.18
752.064	1943.69
752.248	1757.33
752.432	1824.91
752.617	1769.62
752.801	1716.37
752.985	1757.33
753.17	1761.42
753.354	1814.67
753.538	1663.12
753.722	1734.8
753.907	1718.42
754.091	1712.27
754.275	1726.61
754.459	1652.88
754.643	1699.98
754.828	1722.51
755.012	1640.59
755.196	1673.36
755.38	1634.45
755.564	1538.2
755.748	1683.6
755.932	1544.34
756.116	1646.74
756.3	1538.2
756.484	1556.63
756.668	1462.42
756.852	1405.08
757.036	1458.32
757.22	1540.24
757.404	1499.28
757.588	1499.28
757.772	1491.09
757.956	1425.56
758.14	1466.52
758.323	1312.92
758.507	1384.6
758.691	1337.49
758.875	1419.41
759.059	1468.56
759.242	1343.64
759.426	1423.51
759.61	1362.07
759.794	1306.77
759.977	1390.74
760.161	1376.41
760.345	1314.97
760.528	1355.93
760.712	1323.16
760.895	1417.37
761.079	1319.06
761.263	1325.21
761.446	1284.25
761.63	1310.87
761.813	1241.24
761.997	1228.95
762.18	1214.62
762.364	1259.67
762.547	1122.46
762.731	1192.09
762.914	1216.66
763.098	1239.19
763.281	1222.81
763.464	1171.61
763.648	1231
763.831	1210.52
764.015	1116.31
764.198	1138.84
764.381	1192.09
764.564	1224.86
764.748	1226.9
764.931	1147.03
765.114	1073.31
765.297	1136.79
765.481	1118.36
765.664	1118.36
765.847	1093.79
766.03	1097.88
766.213	1071.26
766.397	1108.12
766.58	1083.55
766.763	1028.25
766.946	1071.26
767.129	1114.27
767.312	1101.98
767.495	1085.59
767.678	1038.49
767.861	1077.4
768.044	1018.01
768.227	979.1
768.41	1099.93
768.593	1101.98
768.776	987.29
768.959	991.39
769.142	1120.41
769.324	1001.63
769.507	1050.78
769.69	1048.73
769.873	1126.55
770.056	981.15
770.239	979.1
770.421	1058.97
770.604	983.2
770.787	901.28
770.97	995.48
771.152	977.05
771.335	956.57
771.518	950.43
771.7	999.58
771.883	946.33
772.066	868.51
772.248	999.58
772.431	872.61
772.613	989.34
772.796	934.04
772.978	874.65
773.161	929.95
773.343	905.37
773.526	843.93
773.708	751.78
773.891	837.79
774.073	958.62
774.256	845.98
774.438	968.86
774.621	825.5
774.803	929.95
774.985	833.69
775.168	811.17
775.35	821.41
775.532	821.41
775.715	884.89
775.897	800.93
776.079	839.84
776.261	923.8
776.444	837.79
776.626	745.63
776.808	745.63
776.99	749.73
777.173	743.58
777.355	829.6
777.537	792.73
777.719	743.58
777.901	663.71
778.083	727.2
778.265	788.64
778.447	678.05
778.629	696.48
778.811	749.73
778.993	723.1
779.175	710.82
779.357	798.88
779.539	669.86
779.721	688.29
779.903	708.77
780.085	694.43
780.267	694.43
780.449	653.47
780.631	618.66
780.812	688.29
780.994	667.81
781.176	655.52
781.358	669.86
781.54	628.9
781.721	587.94
781.903	612.51
782.085	600.23
782.267	604.32
782.448	653.47
782.63	635.04
782.812	575.65
782.993	622.75
783.175	596.13
783.357	549.03
783.538	493.73
783.72	450.72
783.901	565.41
784.083	501.92
784.264	569.51
784.446	499.88
784.627	600.23
784.809	585.89
784.99	508.07
785.172	506.02
785.353	563.36
785.535	485.54
785.716	506.02
785.897	542.88
786.079	532.64
786.26	391.33
786.441	544.93
786.623	467.11
786.804	452.77
786.985	549.03
787.167	467.11
787.348	526.5
787.529	473.25
787.71	503.97
787.891	510.11
788.073	440.48
788.254	444.58
788.435	430.24
788.616	469.16
788.797	422.05
788.978	460.96
789.159	405.67
789.34	487.59
789.522	383.14
789.703	475.3
789.884	450.72
790.065	358.57
790.246	467.11
790.427	463.01
790.607	405.67
790.788	377
790.969	446.63
791.15	450.72
791.331	405.67
791.512	358.57
791.693	284.84
791.874	342.18
792.054	456.87
792.235	323.75
792.416	395.43
792.597	374.95
792.778	366.76
792.958	368.81
793.139	374.95
793.32	415.91
793.5	278.69
793.681	344.23
793.862	307.37
794.042	356.52
794.223	348.33
794.404	297.13
794.584	393.38
794.765	405.67
794.945	381.09
795.126	344.23
795.306	364.71
795.487	360.61
795.667	368.81
795.848	336.04
796.028	290.98
796.209	370.85
796.389	350.37
796.57	290.98
796.75	311.46
796.93	297.13
797.111	276.65
797.291	327.85
797.471	303.27
797.652	270.5
797.832	250.02
798.012	331.94
798.192	309.41
798.373	239.78
798.553	227.5
798.733	317.61
798.913	356.52
799.093	237.74
799.274	315.56
799.454	297.13
799.634	252.07
799.814	305.32
799.994	286.89
800.174	274.6
800.354	317.61
800.534	311.46
800.714	284.84
800.894	237.74
801.074	311.46
801.254	260.26
801.434	295.08
801.614	178.34
801.794	198.82
801.974	694.43
802.154	260.26
802.334	225.45
802.514	235.69
802.693	204.97
802.873	336.04
803.053	293.03
803.233	268.45
803.413	252.07
803.592	207.02
803.772	229.54
803.952	243.88
804.131	250.02
804.311	225.45
804.491	182.44
804.67	262.31
804.85	229.54
805.03	276.65
805.209	280.74
805.389	260.26
805.568	286.89
805.748	227.5
805.928	192.68
806.107	190.63
806.287	217.26
806.466	237.74
806.646	174.25
806.825	260.26
807.004	182.44
807.184	170.15
807.363	194.73
807.543	182.44
807.722	190.63
807.901	256.17
808.081	166.06
808.26	178.34
808.439	151.72
808.619	217.26
808.798	159.91
808.977	170.15
809.156	155.82
809.336	237.74
809.515	252.07
809.694	186.54
809.873	178.34
810.052	211.11
810.231	241.83
810.411	196.78
810.59	237.74
810.769	233.64
810.948	198.82
811.127	194.73
811.306	170.15
811.485	221.35
811.664	217.26
811.843	100.52
812.022	209.06
812.201	207.02
812.38	178.34
812.559	112.81
812.737	209.06
812.916	252.07
813.095	108.71
813.274	174.25
813.453	213.16
813.632	190.63
813.811	166.06
813.989	133.29
814.168	182.44
814.347	147.62
814.526	161.96
814.704	161.96
814.883	166.06
815.062	94.38
815.24	172.2
815.419	174.25
815.598	168.1
815.776	121
815.955	174.25
816.133	133.29
816.312	153.77
816.49	92.33
816.669	192.68
816.847	151.72
817.026	207.02
817.204	168.1
817.383	118.95
817.561	221.35
817.74	133.29
817.918	43.18
818.097	184.49
818.275	172.2
818.453	190.63
818.632	139.43
818.81	80.04
818.988	147.62
819.167	123.05
819.345	125.1
819.523	161.96
819.701	194.73
819.879	166.06
820.058	114.86
820.236	129.19
820.414	102.57
820.592	188.58
820.77	149.67
820.948	129.19
821.127	116.9
821.305	71.85
821.483	127.14
821.661	166.06
821.839	123.05
822.017	43.18
822.195	137.38
822.373	139.43
822.551	108.71
822.729	86.19
822.907	92.33
823.085	192.68
823.262	139.43
823.44	77.99
823.618	80.04
823.796	104.62
823.974	34.99
824.152	92.33
824.329	118.95
824.507	96.43
824.685	123.05
824.863	110.76
825.04	88.23
825.218	172.2
825.396	84.14
825.574	84.14
825.751	100.52
825.929	121
826.107	96.43
826.284	184.49
826.462	125.1
826.639	139.43
826.817	65.71
826.994	192.68
827.172	131.24
827.349	108.71
827.527	176.3
827.704	133.29
827.882	151.72
828.059	139.43
828.237	16.55
828.414	71.85
828.591	100.52
828.769	34.99
828.946	71.85
829.124	51.37
829.301	102.57
829.478	55.47
829.655	65.71
829.833	131.24
830.01	127.14
830.187	114.86
830.364	100.52
830.542	127.14
830.719	157.86
830.896	164.01
831.073	49.32
831.25	26.79
831.427	127.14
831.604	69.8
831.782	67.75
831.959	82.09
832.136	145.58
832.313	102.57
832.49	49.32
832.667	34.99
832.844	106.67
833.021	73.9
833.198	51.37
833.374	110.76
833.551	2.22
833.728	61.61
833.905	108.71
834.082	88.23
834.259	20.65
834.436	108.71
834.612	22.7
834.789	61.61
834.966	77.99
835.143	75.95
835.319	86.19
835.496	69.8
835.673	80.04
835.85	141.48
836.026	135.34
836.203	92.33
836.38	49.32
836.556	73.9
836.733	34.99
836.909	182.44
837.086	61.61
837.262	28.84
837.439	80.04
837.616	135.34
837.792	30.89
837.968	88.23
838.145	43.18
838.321	47.27
838.498	55.47
838.674	84.14
838.851	96.43
839.027	30.89
839.203	108.71
839.38	129.19
839.556	-20.31
839.732	161.96
839.909	59.56
840.085	100.52
840.261	30.89
840.437	84.14
840.614	47.27
840.79	43.18
840.966	51.37
841.142	108.71
841.318	96.43
841.494	20.65
841.671	67.75
841.847	22.7
842.023	14.51
842.199	77.99
842.375	161.96
842.551	71.85
842.727	63.66
842.903	104.62
843.079	55.47
843.255	77.99
843.431	88.23
843.607	153.77
843.783	18.6
843.959	139.43
844.134	26.79
844.31	51.37
844.486	55.47
844.662	-12.12
844.838	20.65
845.013	-14.17
845.189	53.42
845.365	-42.84
845.541	67.75
845.716	49.32
845.892	0.17
846.068	18.6
846.244	106.67
846.419	69.8
846.595	51.37
846.77	20.65
846.946	10.41
847.122	26.79
847.297	51.37
847.473	41.13
847.648	-14.17
847.824	55.47
847.999	10.41
848.175	-12.12
848.35	22.7
848.526	41.13
848.701	28.84
848.876	22.7
849.052	96.43
849.227	6.31
849.403	-26.45
849.578	28.84
849.753	-18.26
849.929	18.6
850.104	82.09
850.279	75.95
850.454	53.42
850.63	65.71
850.805	28.84
850.98	37.03
851.155	59.56
851.33	88.23
851.505	-16.21
851.681	32.94
851.856	49.32
852.031	100.52
852.206	110.76
852.381	41.13
852.556	4.27
852.731	8.36
852.906	-3.93
853.081	24.75
853.256	49.32
853.431	34.99
853.606	-1.88
853.781	12.46
853.956	-38.74
854.131	49.32
854.305	24.75
854.48	39.08
854.655	98.47
854.83	51.37
855.005	108.71
855.18	39.08
855.354	59.56
855.529	118.95
855.704	51.37
855.879	75.95
856.053	37.03
856.228	-14.17
856.403	2.22
856.577	22.7
856.752	73.9
856.926	0.17
857.101	28.84
857.276	-3.93
857.45	30.89
857.625	51.37
857.799	4.27
857.974	57.51
858.148	0.17
858.323	0.17
858.497	24.75
858.672	20.65
858.846	96.43
859.02	51.37
859.195	32.94
859.369	4.27
859.543	16.55
859.718	65.71
859.892	-5.97
860.066	4.27
860.241	0.17
860.415	37.03
860.589	6.31
860.763	63.66
860.938	-3.93
861.112	45.23
861.286	-14.17
861.46	-12.12
861.634	-1.88
861.808	32.94
861.982	16.55
862.157	-12.12
862.331	-5.97
862.505	10.41
862.679	16.55
862.853	4.27
863.027	8.36
863.201	2.22
863.375	-53.08
863.549	39.08
863.722	6.31
863.896	55.47
864.07	-3.93
864.244	71.85
864.418	28.84
864.592	4.27
864.766	20.65
864.939	28.84
865.113	47.27
865.287	96.43
865.461	45.23
865.634	-40.79
865.808	71.85
865.982	37.03
866.156	-57.17
866.329	-48.98
866.503	-26.45
866.676	22.7
866.85	-36.69
867.024	26.79
867.197	43.18
867.371	55.47
867.544	-18.26
867.718	-18.26
867.891	24.75
868.065	-55.12
868.238	24.75
868.412	22.7
868.585	37.03
868.759	28.84
868.932	-53.08
869.105	-10.07
869.279	4.27
869.452	34.99
869.625	-5.97
869.799	10.41
869.972	18.6
870.145	77.99
870.319	75.95
870.492	47.27
870.665	-34.64
870.838	-46.93
871.011	-20.31
871.185	4.27
871.358	-5.97
871.531	18.6
871.704	-28.5
871.877	96.43
872.05	49.32
872.223	51.37
872.396	39.08
872.569	-3.93
872.742	-3.93
872.915	34.99
873.088	-3.93
873.261	-63.32
873.434	-46.93
873.607	-12.12
873.78	32.94
873.953	71.85
874.126	-1.88
874.299	-10.07
874.471	28.84
874.644	43.18
874.817	75.95
874.99	30.89
875.163	75.95
875.335	84.14
875.508	24.75
875.681	4.27
875.853	-18.26
876.026	28.84
876.199	34.99
876.371	16.55
876.544	-22.36
876.717	28.84
876.889	24.75
877.062	30.89
877.234	-10.07
877.407	47.27
877.579	57.51
877.752	0.17
877.924	4.27
878.097	-5.97
878.269	2.22
878.442	18.6
878.614	47.27
878.786	16.55
878.959	47.27
879.131	-1.88
879.303	-51.03
879.476	22.7
879.648	10.41
879.82	-1.88
879.993	41.13
880.165	26.79
880.337	-69.46
880.509	10.41
880.681	-20.31
880.854	18.6
881.026	55.47
881.198	14.51
881.37	30.89
881.542	-12.12
881.714	-30.55
881.886	6.31
882.058	-44.88
882.23	-77.65
882.402	4.27
882.574	22.7
882.746	16.55
882.918	106.67
883.09	59.56
883.262	16.55
883.434	-24.4
883.606	-51.03
883.778	37.03
883.95	106.67
884.122	10.41
884.293	8.36
884.465	39.08
884.637	-14.17
884.809	0.17
884.98	43.18
885.152	22.7
885.324	53.42
885.496	2.22
885.667	30.89
885.839	-14.17
886.011	37.03
886.182	26.79
886.354	106.67
886.525	-34.64
886.697	47.27
886.869	-8.02
887.04	-5.97
887.212	-61.27
887.383	4.27
887.555	22.7
887.726	41.13
887.897	45.23
888.069	-10.07
888.24	24.75
888.412	-18.26
888.583	59.56
888.754	28.84
888.926	-3.93
889.097	-20.31
889.268	-26.45
889.44	14.51
889.611	8.36
889.782	-22.36
889.953	14.51
890.125	20.65
890.296	-51.03
890.467	-3.93
890.638	-24.4
890.809	0.17
890.98	0.17
891.151	24.75
891.323	47.27
891.494	102.57
891.665	63.66
891.836	37.03
892.007	-63.32
892.178	-53.08
892.349	0.17
892.52	39.08
892.691	71.85
892.862	4.27
893.032	-18.26
893.203	8.36
893.374	-12.12
893.545	30.89
893.716	20.65
893.887	12.46
894.057	-100.18
894.228	65.71
894.399	-32.6
894.57	12.46
894.74	-18.26
894.911	65.71
895.082	-30.55
895.253	-10.07
895.423	10.41
895.594	-24.4
895.764	45.23
895.935	14.51
896.106	-42.84
896.276	51.37
896.447	41.13
896.617	-22.36
896.788	-38.74
896.958	8.36
897.129	-55.12
897.299	49.32
897.47	43.18
897.64	-3.93
897.81	-18.26
897.981	24.75
898.151	-12.12
898.322	51.37
898.492	-16.21
898.662	10.41
898.832	-44.88
899.003	4.27
899.173	-14.17
899.343	43.18
899.513	-30.55
