Data from USB4F104151__94__11-52-59-618.txt Node

Date: Fri Mar 14 11:52:59 EDT 2025
User: louis
Spectrometer: USB4F10415
Trigger mode: 4
Integration Time (sec): 2.000000E-2
Scans to average: 1
Electric dark correction enabled: true
Nonlinearity correction enabled: false
Boxcar width: 0
XAxis mode: Wavelengths
Number of Pixels in Spectrum: 3648
>>>>>Begin Spectral Data<<<<<
178.204	-100.86
178.424	-100.86
178.644	-100.86
178.864	-94.72
179.084	-33.28
179.304	-29.18
179.524	26.11
179.744	-37.38
179.964	15.87
180.184	-43.52
180.404	-14.85
180.624	-6.66
180.844	-2.56
181.064	-6.66
181.283	17.92
181.503	3.58
181.723	77.31
181.943	-25.09
182.163	73.21
182.383	46.59
182.602	24.06
182.822	26.11
183.042	-2.56
183.262	-6.66
183.482	-4.61
183.701	69.12
183.921	44.54
184.141	-4.61
184.361	1.54
184.58	1.54
184.8	75.26
185.02	11.78
185.239	36.35
185.459	69.12
185.679	13.82
185.898	-2.56
186.118	-20.99
186.338	22.02
186.557	38.4
186.777	3.58
186.997	32.26
187.216	38.4
187.436	105.98
187.655	71.17
187.875	-25.09
188.095	24.06
188.314	7.68
188.534	13.82
188.753	30.21
188.973	83.45
189.192	97.79
189.412	79.36
189.631	13.82
189.851	52.74
190.07	15.87
190.29	5.63
190.509	-4.61
190.729	28.16
190.948	112.13
191.168	110.08
191.387	77.31
191.607	-64
191.826	11.78
192.045	50.69
192.265	58.88
192.484	65.02
192.704	9.73
192.923	-14.85
193.142	91.65
193.362	-2.56
193.581	95.74
193.8	101.89
194.02	50.69
194.239	9.73
194.458	40.45
194.678	-4.61
194.897	97.79
195.116	36.35
195.335	-35.33
195.555	73.21
195.774	46.59
195.993	13.82
196.212	75.26
196.432	79.36
196.651	58.88
196.87	11.78
197.089	130.56
197.308	87.55
197.528	67.07
197.747	-43.52
197.966	40.45
198.185	99.84
198.404	50.69
198.623	7.68
198.842	34.3
199.062	22.02
199.281	32.26
199.5	30.21
199.719	-18.94
199.938	58.88
200.157	105.98
200.376	26.11
200.595	50.69
200.814	50.69
201.033	40.45
201.252	-57.86
201.471	3.58
201.69	46.59
201.909	124.41
202.128	26.11
202.347	-2.56
202.566	56.83
202.785	93.69
203.004	17.92
203.223	38.4
203.442	13.82
203.661	-29.18
203.879	46.59
204.098	99.84
204.317	-43.52
204.536	67.07
204.755	7.68
204.974	3.58
205.193	30.21
205.411	26.11
205.63	-39.42
205.849	22.02
206.068	34.3
206.287	-10.75
206.505	34.3
206.724	19.97
206.943	15.87
207.162	9.73
207.381	58.88
207.599	-33.28
207.818	32.26
208.037	13.82
208.255	60.93
208.474	44.54
208.693	60.93
208.911	1.54
209.13	36.35
209.349	-14.85
209.567	19.97
209.786	13.82
210.005	22.02
210.223	32.26
210.442	-4.61
210.661	-43.52
210.879	-16.9
211.098	56.83
211.316	128.51
211.535	73.21
211.753	67.07
211.972	13.82
212.191	46.59
212.409	3.58
212.628	7.68
212.846	62.98
213.065	13.82
213.283	-20.99
213.502	87.55
213.72	-29.18
213.938	46.59
214.157	48.64
214.375	-8.7
214.594	3.58
214.812	65.02
215.031	87.55
215.249	-18.94
215.467	62.98
215.686	89.6
215.904	38.4
216.122	50.69
216.341	81.41
216.559	67.07
216.778	46.59
216.996	3.58
217.214	73.21
217.432	-41.47
217.651	85.5
217.869	-27.14
218.087	62.98
218.306	44.54
218.524	50.69
218.742	-0.51
218.96	56.83
219.179	36.35
219.397	19.97
219.615	22.02
219.833	-18.94
220.051	-39.42
220.27	58.88
220.488	9.73
220.706	-18.94
220.924	34.3
221.142	48.64
221.36	-8.7
221.578	52.74
221.796	1.54
222.015	5.63
222.233	69.12
222.451	62.98
222.669	79.36
222.887	67.07
223.105	-25.09
223.323	67.07
223.541	83.45
223.759	13.82
223.977	1.54
224.195	75.26
224.413	19.97
224.631	-8.7
224.849	44.54
225.067	95.74
225.285	30.21
225.503	-33.28
225.721	32.26
225.939	5.63
226.157	34.3
226.375	65.02
226.592	48.64
226.81	17.92
227.028	-49.66
227.246	97.79
227.464	34.3
227.682	71.17
227.9	56.83
228.117	-4.61
228.335	75.26
228.553	-14.85
228.771	73.21
228.989	11.78
229.206	-16.9
229.424	34.3
229.642	-8.7
229.86	19.97
230.077	101.89
230.295	11.78
230.513	19.97
230.731	71.17
230.948	-33.28
231.166	85.5
231.384	118.27
231.601	11.78
231.819	136.7
232.037	85.5
232.254	26.11
232.472	-47.62
232.689	-10.75
232.907	85.5
233.125	79.36
233.342	13.82
233.56	-55.81
233.777	17.92
233.995	46.59
234.213	71.17
234.43	28.16
234.648	22.02
234.865	30.21
235.083	48.64
235.3	60.93
235.518	24.06
235.735	108.03
235.953	75.26
236.17	103.93
236.388	13.82
236.605	15.87
236.822	157.18
237.04	11.78
237.257	28.16
237.475	19.97
237.692	38.4
237.909	28.16
238.127	-16.9
238.344	67.07
238.562	44.54
238.779	7.68
238.996	46.59
239.214	7.68
239.431	17.92
239.648	52.74
239.865	93.69
240.083	65.02
240.3	46.59
240.517	-16.9
240.735	9.73
240.952	40.45
241.169	-0.51
241.386	-18.94
241.603	77.31
241.821	40.45
242.038	-53.76
242.255	73.21
242.472	19.97
242.689	-10.75
242.907	46.59
243.124	-2.56
243.341	50.69
243.558	-18.94
243.775	-14.85
243.992	-29.18
244.209	42.5
244.426	105.98
244.643	7.68
244.86	-0.51
245.078	67.07
245.295	103.93
245.512	-2.56
245.729	22.02
245.946	-2.56
246.163	15.87
246.38	48.64
246.597	42.5
246.814	91.65
247.031	103.93
247.248	97.79
247.464	46.59
247.681	54.78
247.898	24.06
248.115	42.5
248.332	52.74
248.549	32.26
248.766	79.36
248.983	-0.51
249.2	73.21
249.417	99.84
249.633	-18.94
249.85	30.21
250.067	42.5
250.284	58.88
250.501	81.41
250.717	26.11
250.934	9.73
251.151	22.02
251.368	118.27
251.585	32.26
251.801	114.17
252.018	26.11
252.235	7.68
252.451	1.54
252.668	48.64
252.885	-4.61
253.102	3.58
253.318	77.31
253.535	38.4
253.752	40.45
253.968	71.17
254.185	1.54
254.401	99.84
254.618	40.45
254.835	48.64
255.051	93.69
255.268	28.16
255.484	58.88
255.701	1.54
255.917	105.98
256.134	7.68
256.351	19.97
256.567	-8.7
256.784	15.87
257	-16.9
257.217	75.26
257.433	42.5
257.65	26.11
257.866	19.97
258.082	56.83
258.299	46.59
258.515	17.92
258.732	-8.7
258.948	-14.85
259.165	62.98
259.381	-6.66
259.597	87.55
259.814	34.3
260.03	15.87
260.246	-47.62
260.463	79.36
260.679	22.02
260.895	44.54
261.112	46.59
261.328	-0.51
261.544	28.16
261.761	126.46
261.977	22.02
262.193	38.4
262.409	101.89
262.626	52.74
262.842	44.54
263.058	83.45
263.274	48.64
263.49	89.6
263.707	1.54
263.923	56.83
264.139	65.02
264.355	11.78
264.571	22.02
264.787	17.92
265.004	75.26
265.22	-20.99
265.436	-47.62
265.652	-51.71
265.868	15.87
266.084	58.88
266.3	118.27
266.516	-4.61
266.732	-20.99
266.948	-0.51
267.164	-0.51
267.38	-4.61
267.596	77.31
267.812	136.7
268.028	5.63
268.244	19.97
268.46	1.54
268.676	28.16
268.892	-2.56
269.108	38.4
269.324	-35.33
269.54	24.06
269.756	124.41
269.972	34.3
270.188	28.16
270.403	11.78
270.619	83.45
270.835	17.92
271.051	-43.52
271.267	-35.33
271.483	1.54
271.698	69.12
271.914	44.54
272.13	9.73
272.346	-14.85
272.562	-33.28
272.777	60.93
272.993	-14.85
273.209	36.35
273.425	34.3
273.64	-20.99
273.856	116.22
274.072	-31.23
274.287	-31.23
274.503	-2.56
274.719	44.54
274.934	126.46
275.15	110.08
275.366	-10.75
275.581	19.97
275.797	26.11
276.012	-43.52
276.228	67.07
276.444	46.59
276.659	62.98
276.875	-12.8
277.09	97.79
277.306	77.31
277.521	32.26
277.737	-25.09
277.952	19.97
278.168	19.97
278.383	73.21
278.599	44.54
278.814	9.73
279.03	52.74
279.245	24.06
279.461	38.4
279.676	85.5
279.892	-55.81
280.107	56.83
280.322	52.74
280.538	60.93
280.753	-8.7
280.969	19.97
281.184	36.35
281.399	22.02
281.615	118.27
281.83	36.35
282.045	-20.99
282.26	44.54
282.476	9.73
282.691	132.61
282.906	48.64
283.122	79.36
283.337	-57.86
283.552	36.35
283.767	7.68
283.983	38.4
284.198	-2.56
284.413	9.73
284.628	26.11
284.843	38.4
285.058	38.4
285.274	28.16
285.489	-2.56
285.704	83.45
285.919	24.06
286.134	19.97
286.349	36.35
286.564	77.31
286.779	101.89
286.995	85.5
287.21	19.97
287.425	-25.09
287.64	3.58
287.855	65.02
288.07	5.63
288.285	-0.51
288.5	1.54
288.715	50.69
288.93	67.07
289.145	-4.61
289.36	67.07
289.575	24.06
289.79	44.54
290.004	42.5
290.219	-6.66
290.434	22.02
290.649	-2.56
290.864	-35.33
291.079	73.21
291.294	44.54
291.509	28.16
291.724	95.74
291.938	24.06
292.153	71.17
292.368	83.45
292.583	13.82
292.798	-12.8
293.012	69.12
293.227	30.21
293.442	-16.9
293.657	32.26
293.871	91.65
294.086	-59.9
294.301	151.04
294.516	15.87
294.73	1.54
294.945	-37.38
295.16	75.26
295.374	71.17
295.589	69.12
295.804	22.02
296.018	73.21
296.233	38.4
296.447	112.13
296.662	54.78
296.877	36.35
297.091	11.78
297.306	-0.51
297.52	-25.09
297.735	13.82
297.949	44.54
298.164	38.4
298.378	15.87
298.593	-14.85
298.807	24.06
299.022	60.93
299.236	7.68
299.451	13.82
299.665	9.73
299.88	97.79
300.094	56.83
300.309	36.35
300.523	-18.94
300.737	36.35
300.952	-6.66
301.166	36.35
301.381	46.59
301.595	-6.66
301.809	36.35
302.024	17.92
302.238	42.5
302.452	108.03
302.667	9.73
302.881	71.17
303.095	46.59
303.309	36.35
303.524	40.45
303.738	83.45
303.952	1.54
304.166	69.12
304.381	1.54
304.595	9.73
304.809	22.02
305.023	50.69
305.237	36.35
305.452	60.93
305.666	50.69
305.88	75.26
306.094	13.82
306.308	54.78
306.522	38.4
306.736	-51.71
306.95	-8.7
307.164	103.93
307.379	38.4
307.593	46.59
307.807	11.78
308.021	-16.9
308.235	30.21
308.449	24.06
308.663	56.83
308.877	69.12
309.091	-27.14
309.305	42.5
309.519	5.63
309.733	32.26
309.947	-49.66
310.161	85.5
310.374	36.35
310.588	65.02
310.802	56.83
311.016	62.98
311.23	30.21
311.444	83.45
311.658	13.82
311.872	73.21
312.085	36.35
312.299	42.5
312.513	30.21
312.727	60.93
312.941	11.78
313.154	62.98
313.368	58.88
313.582	40.45
313.796	1.54
314.009	81.41
314.223	9.73
314.437	73.21
314.651	-10.75
314.864	52.74
315.078	-8.7
315.292	46.59
315.505	19.97
315.719	1.54
315.933	-49.66
316.146	101.89
316.36	36.35
316.573	24.06
316.787	46.59
317.001	42.5
317.214	-49.66
317.428	28.16
317.641	36.35
317.855	46.59
318.068	-31.23
318.282	36.35
318.495	44.54
318.709	58.88
318.922	9.73
319.136	54.78
319.349	81.41
319.563	-10.75
319.776	65.02
319.99	32.26
320.203	26.11
320.417	62.98
320.63	3.58
320.843	114.17
321.057	91.65
321.27	9.73
321.483	103.93
321.697	62.98
321.91	-4.61
322.124	52.74
322.337	36.35
322.55	81.41
322.763	38.4
322.977	67.07
323.19	-0.51
323.403	62.98
323.617	46.59
323.83	71.17
324.043	-2.56
324.256	-12.8
324.469	3.58
324.683	108.03
324.896	19.97
325.109	40.45
325.322	69.12
325.535	54.78
325.748	7.68
325.962	54.78
326.175	-0.51
326.388	19.97
326.601	77.31
326.814	40.45
327.027	36.35
327.24	54.78
327.453	-45.57
327.666	46.59
327.879	36.35
328.092	54.78
328.305	87.55
328.518	-12.8
328.731	48.64
328.944	44.54
329.157	28.16
329.37	9.73
329.583	7.68
329.796	-0.51
330.009	26.11
330.222	22.02
330.435	7.68
330.648	36.35
330.861	40.45
331.073	17.92
331.286	97.79
331.499	95.74
331.712	32.26
331.925	3.58
332.138	85.5
332.35	91.65
332.563	87.55
332.776	40.45
332.989	89.6
333.202	22.02
333.414	19.97
333.627	15.87
333.84	97.79
334.053	-35.33
334.265	-45.57
334.478	24.06
334.691	13.82
334.903	62.98
335.116	85.5
335.329	-6.66
335.541	60.93
335.754	132.61
335.966	32.26
336.179	65.02
336.392	46.59
336.604	11.78
336.817	-20.99
337.029	58.88
337.242	30.21
337.454	13.82
337.667	36.35
337.88	30.21
338.092	85.5
338.305	101.89
338.517	75.26
338.729	7.68
338.942	65.02
339.154	-23.04
339.367	-45.57
339.579	36.35
339.792	28.16
340.004	75.26
340.217	28.16
340.429	56.83
340.641	15.87
340.854	77.31
341.066	-18.94
341.278	75.26
341.491	118.27
341.703	85.5
341.915	32.26
342.128	67.07
342.34	26.11
342.552	69.12
342.764	110.08
342.977	17.92
343.189	58.88
343.401	99.84
343.613	36.35
343.826	19.97
344.038	-35.33
344.25	85.5
344.462	-4.61
344.674	81.41
344.886	46.59
345.099	13.82
345.311	30.21
345.523	7.68
345.735	-29.18
345.947	26.11
346.159	75.26
346.371	5.63
346.583	-14.85
346.795	108.03
347.007	71.17
347.219	93.69
347.431	48.64
347.643	83.45
347.855	32.26
348.067	-0.51
348.279	9.73
348.491	-8.7
348.703	36.35
348.915	79.36
349.127	7.68
349.339	3.58
349.551	5.63
349.763	75.26
349.975	-25.09
350.187	42.5
350.399	-20.99
350.61	91.65
350.822	32.26
351.034	52.74
351.246	17.92
351.458	65.02
351.669	77.31
351.881	7.68
352.093	34.3
352.305	60.93
352.517	19.97
352.728	-10.75
352.94	15.87
353.152	62.98
353.363	105.98
353.575	22.02
353.787	99.84
353.999	85.5
354.21	79.36
354.422	30.21
354.633	146.94
354.845	99.84
355.057	9.73
355.268	-12.8
355.48	9.73
355.692	95.74
355.903	140.8
356.115	36.35
356.326	11.78
356.538	60.93
356.749	38.4
356.961	79.36
357.172	48.64
357.384	9.73
357.595	83.45
357.807	32.26
358.018	130.56
358.23	112.13
358.441	69.12
358.653	3.58
358.864	46.59
359.075	46.59
359.287	3.58
359.498	75.26
359.709	38.4
359.921	103.93
360.132	118.27
360.344	126.46
360.555	48.64
360.766	24.06
360.977	36.35
361.189	77.31
361.4	-0.51
361.611	97.79
361.823	105.98
362.034	69.12
362.245	48.64
362.456	85.5
362.667	1.54
362.879	9.73
363.09	9.73
363.301	44.54
363.512	-51.71
363.723	3.58
363.935	91.65
364.146	32.26
364.357	60.93
364.568	75.26
364.779	54.78
364.99	116.22
365.201	-16.9
365.412	138.75
365.623	-53.76
365.834	93.69
366.045	132.61
366.256	24.06
366.467	-14.85
366.678	38.4
366.889	97.79
367.1	54.78
367.311	62.98
367.522	3.58
367.733	46.59
367.944	26.11
368.155	118.27
368.366	19.97
368.577	50.69
368.788	52.74
368.999	34.3
369.209	97.79
369.42	136.7
369.631	89.6
369.842	3.58
370.053	15.87
370.264	48.64
370.474	44.54
370.685	73.21
370.896	-23.04
371.107	81.41
371.317	17.92
371.528	105.98
371.739	-10.75
371.95	58.88
372.16	1.54
372.371	114.17
372.582	19.97
372.792	58.88
373.003	15.87
373.214	77.31
373.424	73.21
373.635	19.97
373.846	40.45
374.056	105.98
374.267	34.3
374.477	19.97
374.688	34.3
374.898	19.97
375.109	46.59
375.319	42.5
375.53	93.69
375.74	134.65
375.951	77.31
376.161	48.64
376.372	52.74
376.582	36.35
376.793	67.07
377.003	65.02
377.214	56.83
377.424	58.88
377.635	138.75
377.845	5.63
378.055	69.12
378.266	36.35
378.476	65.02
378.686	26.11
378.897	105.98
379.107	40.45
379.317	110.08
379.528	38.4
379.738	22.02
379.948	-2.56
380.158	99.84
380.369	24.06
380.579	144.89
380.789	15.87
380.999	13.82
381.21	69.12
381.42	103.93
381.63	105.98
381.84	77.31
382.05	32.26
382.261	42.5
382.471	87.55
382.681	32.26
382.891	155.13
383.101	9.73
383.311	54.78
383.521	9.73
383.731	69.12
383.941	26.11
384.151	9.73
384.361	71.17
384.571	105.98
384.781	65.02
384.991	140.8
385.201	50.69
385.411	24.06
385.621	52.74
385.831	69.12
386.041	7.68
386.251	79.36
386.461	54.78
386.671	32.26
386.881	50.69
387.091	136.7
387.301	114.17
387.511	60.93
387.72	67.07
387.93	77.31
388.14	15.87
388.35	81.41
388.56	30.21
388.769	60.93
388.979	-2.56
389.189	67.07
389.399	81.41
389.609	79.36
389.818	101.89
390.028	32.26
390.238	105.98
390.447	99.84
390.657	91.65
390.867	22.02
391.076	9.73
391.286	62.98
391.496	85.5
391.705	85.5
391.915	79.36
392.125	71.17
392.334	62.98
392.544	58.88
392.753	60.93
392.963	95.74
393.172	50.69
393.382	69.12
393.591	99.84
393.801	52.74
394.01	71.17
394.22	54.78
394.429	71.17
394.639	42.5
394.848	1.54
395.058	95.74
395.267	50.69
395.477	87.55
395.686	67.07
395.895	95.74
396.105	175.61
396.314	56.83
396.524	71.17
396.733	120.32
396.942	77.31
397.152	126.46
397.361	9.73
397.57	38.4
397.78	73.21
397.989	97.79
398.198	101.89
398.407	73.21
398.617	140.8
398.826	97.79
399.035	95.74
399.244	130.56
399.453	136.7
399.663	138.75
399.872	105.98
400.081	5.63
400.29	120.32
400.499	7.68
400.708	69.12
400.917	48.64
401.127	108.03
401.336	124.41
401.545	118.27
401.754	85.5
401.963	71.17
402.172	48.64
402.381	85.5
402.59	132.61
402.799	93.69
403.008	120.32
403.217	83.45
403.426	89.6
403.635	130.56
403.844	114.17
404.053	62.98
404.262	163.33
404.471	155.13
404.68	200.19
404.888	132.61
405.097	79.36
405.306	128.51
405.515	89.6
405.724	83.45
405.933	108.03
406.142	128.51
406.35	185.85
406.559	216.57
406.768	146.94
406.977	220.67
407.185	275.96
407.394	132.61
407.603	167.42
407.812	224.76
408.02	204.28
408.229	202.24
408.438	251.39
408.646	237.05
408.855	243.2
409.064	163.33
409.272	278.01
409.481	302.59
409.69	290.3
409.898	261.63
410.107	237.05
410.315	296.44
410.524	273.92
410.733	280.06
410.941	345.59
411.15	284.16
411.358	345.59
411.567	355.83
411.775	318.97
411.984	368.12
412.192	456.19
412.401	337.4
412.609	415.23
412.818	411.13
413.026	445.95
413.234	355.83
413.443	435.71
413.651	503.29
413.86	493.05
414.068	464.38
414.276	503.29
414.485	556.54
414.693	525.82
414.901	591.35
415.11	636.41
415.318	650.74
415.526	646.65
415.734	775.67
415.943	656.89
416.151	718.33
416.359	747
416.567	765.43
416.776	763.38
416.984	781.81
417.192	830.96
417.4	927.22
417.608	785.91
417.817	919.03
418.025	1046
418.233	1005.04
418.441	900.59
418.649	1005.04
418.857	1099.25
419.065	1068.53
419.273	1103.34
419.481	1084.91
419.689	1226.22
419.897	1275.37
420.105	1410.54
420.313	1367.53
420.521	1351.15
420.729	1314.28
420.937	1467.88
421.145	1492.46
421.353	1517.03
421.561	1682.92
421.769	1689.06
421.977	1740.26
422.185	1668.58
422.393	1906.15
422.601	1922.53
422.809	2002.4
423.017	1979.87
423.224	1988.07
423.432	2082.27
423.64	2225.63
423.848	2354.65
424.056	2307.55
424.263	2366.94
424.471	2510.3
424.679	2653.66
424.887	2764.25
425.094	2653.66
425.302	2784.73
425.51	2946.52
425.718	2987.47
425.925	2944.47
426.133	3010
426.341	3290.57
426.548	3438.03
426.756	3356.11
426.964	3573.19
427.171	3536.33
427.379	3765.7
427.586	3706.31
427.794	3913.16
428.001	4117.95
428.209	4148.67
428.417	4158.91
428.624	4459.96
428.832	4464.06
429.039	4609.47
429.247	4457.92
429.454	4945.33
429.662	5303.73
429.869	4949.43
430.076	5242.29
430.284	5047.73
430.491	5328.3
430.699	5561.77
430.906	5594.54
431.114	5649.83
431.321	5909.93
431.528	6120.87
431.736	6415.77
431.943	6755.74
432.15	6438.3
432.358	6440.35
432.565	6829.46
432.772	7067.03
432.979	7255.44
433.187	7320.98
433.394	7468.43
433.601	7972.23
433.808	7939.46
434.016	7986.57
434.223	8342.91
434.43	8725.88
434.637	8521.09
434.844	9104.76
435.052	9311.6
435.259	9233.78
435.466	9432.43
435.673	9485.68
435.88	9952.62
436.087	10300.77
436.294	10374.5
436.501	10147.17
436.708	10179.94
436.915	10820.95
437.122	11175.25
437.329	10970.46
437.537	11412.82
437.743	11746.64
437.95	11791.69
438.157	12070.22
438.364	12782.91
438.571	12520.77
438.778	12647.74
438.985	14071.08
439.192	13202.74
439.399	13645.1
439.606	13411.64
439.813	14288.17
440.02	14877.98
440.227	14802.21
440.433	14540.07
440.64	15027.48
440.847	15101.21
441.054	15455.51
441.261	16329.99
441.467	16389.38
441.674	16600.32
441.881	17243.38
442.088	16991.48
442.294	16878.85
442.501	17415.41
442.708	17763.57
442.914	18607.33
443.121	19274.97
443.328	18562.28
443.534	19848.4
443.741	19551.45
443.948	19188.96
444.154	20362.44
444.361	20516.04
444.568	20653.25
444.774	20774.08
444.981	20835.52
445.187	21644.47
445.394	22262.96
445.6	22201.52
445.807	24188.05
446.013	23456.92
446.22	23770.26
446.426	24568.97
446.633	24949.89
446.839	25433.21
447.046	24368.27
447.252	25975.92
447.459	26098.8
447.665	25984.12
447.871	27008.1
448.078	28529.74
448.284	26760.3
448.491	27475.04
448.697	28978.25
448.903	29219.91
449.11	29129.8
449.316	28607.56
449.522	29647.93
449.728	30258.23
449.935	30303.28
450.141	30407.73
450.347	30911.53
450.553	29703.23
450.76	30186.55
450.966	31237.16
451.172	31183.91
451.378	31540.25
451.584	31304.74
451.791	32384.02
451.997	31996.95
452.203	32574.48
452.409	32363.54
452.615	32484.37
452.821	31003.69
453.027	30817.32
453.233	32334.87
453.44	31521.82
453.646	31425.57
453.852	31681.56
454.058	32144.41
454.264	31126.57
454.47	31722.52
454.676	30913.58
454.882	32185.36
455.088	29199.43
455.294	29787.19
455.5	29815.87
455.705	30235.7
455.911	29406.27
456.117	28798.02
456.323	28701.77
456.529	27061.35
456.735	27663.45
456.941	27016.29
457.147	26696.81
457.352	26016.88
457.558	25990.26
457.764	25910.39
457.97	25357.44
458.176	25064.58
458.381	24884.36
458.587	23442.59
458.793	23751.83
458.999	22310.06
459.204	24083.6
459.41	23250.08
459.616	21796.02
459.821	21667
460.027	21587.13
460.233	20995.26
460.438	20217.04
460.644	20409.54
460.85	19621.08
461.055	19211.48
461.261	19324.12
461.466	17857.78
461.672	17218.81
461.878	18595.04
462.083	16964.86
462.289	16907.52
462.494	16807.17
462.7	16104.71
462.905	15840.53
463.111	16057.61
463.316	16389.38
463.522	15875.34
463.727	16026.89
463.932	15834.38
464.138	15219.99
464.343	15662.35
464.549	15424.79
464.754	15693.07
464.959	15590.67
465.165	15674.64
465.37	15062.3
465.575	14390.56
465.781	15076.63
465.986	15029.53
466.191	14697.76
466.397	14243.11
466.602	13614.38
466.807	14017.83
467.012	14015.79
467.218	13921.58
467.423	14030.12
467.628	14150.95
467.833	14570.79
468.038	13923.63
468.244	13667.63
468.449	14034.22
468.654	13806.89
468.859	13729.07
469.064	13663.54
469.269	13151.54
469.474	13188.41
469.679	13315.38
469.885	13139.26
470.09	13129.02
470.295	13129.02
470.5	12825.92
470.705	12801.34
470.91	12623.17
471.115	12711.23
471.32	12821.82
471.525	12455.23
471.73	12315.97
471.935	12074.31
472.139	11779.4
472.344	12092.74
472.549	11726.16
472.754	11701.58
472.959	11529.55
473.164	11175.25
473.369	11271.51
473.574	11545.94
473.778	11677.01
473.983	11275.6
474.188	11187.54
474.393	10771.8
474.598	10782.04
474.802	10759.52
475.007	10616.16
475.212	10685.79
475.417	10288.48
475.621	9966.95
475.826	10208.61
476.031	9936.23
476.235	9854.31
476.44	9932.14
476.645	9885.03
476.849	9848.17
477.054	9704.81
477.259	9588.08
477.463	9586.03
477.668	9196.92
477.872	9346.42
478.077	9411.95
478.282	9209.2
478.486	8961.4
478.691	8957.3
478.895	9055.61
479.1	8918.39
479.304	8953.21
479.509	8646.01
479.713	8756.6
479.918	8582.53
480.122	8404.35
480.326	8672.64
480.531	8605.05
480.735	8531.33
480.94	8373.63
481.144	8799.61
481.348	8426.88
481.553	8443.26
481.757	8203.65
481.961	8369.54
482.166	8357.25
482.37	8377.73
482.574	8093.06
482.778	8064.39
482.983	8277.38
483.187	8308.1
483.391	8301.95
483.595	8048.01
483.8	8123.78
484.004	8140.16
484.208	8236.42
484.412	8357.25
484.616	8248.71
484.821	8248.71
485.025	7937.41
485.229	8326.53
485.433	8160.64
485.637	8326.53
485.841	8074.63
486.045	8119.68
486.249	8312.19
486.453	8107.4
486.657	8156.55
486.861	8117.64
487.065	8050.05
487.269	8347.01
487.473	8263.04
487.677	8195.46
487.881	8250.75
488.085	8263.04
488.289	8363.39
488.493	8252.8
488.697	8172.93
488.901	8295.81
489.105	8338.82
489.309	8142.21
489.512	8469.89
489.716	8332.67
489.92	8387.97
490.124	8363.39
490.328	8379.78
490.531	8459.65
490.735	8396.16
490.939	8590.72
491.143	8408.45
491.346	8324.48
491.55	8549.76
491.754	8572.29
491.958	8719.74
492.161	8553.85
492.365	8586.62
492.569	8631.68
492.772	8519.04
492.976	8680.83
493.18	8908.15
493.383	8830.33
493.587	8820.09
493.79	8969.59
493.994	8758.65
494.197	9047.41
494.401	9104.76
494.605	9125.24
494.808	9504.11
495.012	9352.56
495.215	9229.68
495.419	9467.25
495.622	9344.37
495.825	9399.66
496.029	9555.31
496.232	9866.6
496.436	9774.44
496.639	9940.33
496.843	9854.31
497.046	9997.67
497.249	10286.44
497.453	10251.62
497.656	10333.54
497.859	10302.82
498.063	10546.53
498.266	10771.8
498.469	10607.97
498.673	10575.2
498.876	11228.5
499.079	10980.7
499.282	11058.52
499.485	11418.96
499.689	11285.84
499.892	11390.29
500.095	11586.9
500.298	11760.97
500.501	11865.42
500.705	12170.57
500.908	12006.73
501.111	12416.32
501.314	12479.81
501.517	12571.97
501.72	12883.26
501.923	12854.59
502.126	13036.86
502.329	13479.22
502.532	13432.12
502.735	13333.81
502.938	13536.56
503.141	13735.21
503.344	13917.48
503.547	14093.61
503.75	14302.5
503.953	14595.36
504.156	14613.79
504.359	14619.94
504.562	14898.46
504.765	15101.21
504.968	15254.81
505.17	15351.06
505.373	15502.61
505.576	15627.54
505.779	15738.13
505.982	15996.17
506.185	16282.89
506.387	16344.33
506.59	16397.57
506.793	16676.1
506.996	16694.53
507.198	17323.26
507.401	17128.7
507.604	17333.5
507.807	17628.4
508.009	17609.97
508.212	17489.14
508.415	18132.2
508.617	18318.57
508.82	18691.3
509.022	18685.15
509.225	18945.25
509.428	19107.04
509.63	19156.19
509.833	19148
510.035	19444.95
510.238	19563.73
510.44	20026.57
510.643	20317.39
510.845	20348.11
511.048	20481.22
511.25	20788.42
511.453	20729.03
511.655	21757.11
511.858	21224.64
512.06	21619.89
512.262	21640.37
512.465	21970.1
512.667	22383.79
512.87	22537.38
513.072	22662.31
513.274	22570.15
513.477	23020.7
513.679	23123.1
513.881	23647.38
514.084	23796.88
514.286	23891.09
514.488	23966.87
514.69	24626.31
514.893	24765.57
515.095	24597.64
515.297	25246.85
515.499	25162.88
515.701	25498.75
515.904	25937.01
516.106	26123.38
516.308	26420.33
516.51	26715.24
516.712	26680.42
516.914	26680.42
517.116	27507.8
517.318	27321.44
517.52	27372.64
517.722	27892.82
517.925	28085.33
518.127	28638.28
518.329	28626
518.531	28269.65
518.733	28783.69
518.935	29080.64
519.136	29496.38
519.338	29592.64
519.54	29807.67
519.742	30241.84
519.944	30057.53
520.146	30923.82
520.348	31261.73
520.55	31114.28
520.752	31331.36
520.954	31867.93
521.155	31728.67
521.357	32394.26
521.559	32631.82
521.761	32568.34
521.963	32828.43
522.164	33133.57
522.366	33235.97
522.568	33707.01
522.77	33670.14
522.971	34184.18
523.173	34223.09
523.375	34374.64
523.576	34749.42
523.778	34677.74
523.98	35116.01
524.181	34823.15
524.383	35357.67
524.584	35836.89
524.786	35847.13
524.988	35922.91
525.189	36180.95
525.391	36328.41
525.592	36578.26
525.794	36588.5
525.995	36807.63
526.197	36758.48
526.398	37368.77
526.6	37100.49
526.801	37680.07
527.003	37606.34
527.204	37467.08
527.406	37850.05
527.607	37972.92
527.808	38458.29
528.01	37841.85
528.211	38491.06
528.412	39078.83
528.614	39035.82
528.815	38693.81
529.016	39244.71
529.218	39175.08
529.419	39273.38
529.62	39183.27
529.822	39484.33
530.023	39183.27
530.224	39586.72
530.425	39314.34
530.626	39531.43
530.828	39482.28
531.029	40106.91
531.23	39500.71
531.431	39945.12
531.632	39820.19
531.833	40426.39
532.035	39850.91
532.236	40199.07
532.437	40342.42
532.638	40508.31
532.839	40651.67
533.04	40639.38
533.241	39959.45
533.442	40893.33
533.643	40471.45
533.844	40604.56
534.045	40721.3
534.246	40166.3
534.447	40909.71
534.648	40453.01
534.849	40747.92
535.05	40706.96
535.251	40780.69
535.451	40565.65
535.652	41335.69
535.853	40891.28
536.054	41266.06
536.255	41452.42
536.456	40598.42
536.657	41048.97
536.857	41018.25
537.058	40657.81
537.259	41532.29
537.46	41190.28
537.66	40772.5
537.861	41012.11
538.062	40815.51
538.263	41178
538.463	40645.52
538.664	40725.39
538.865	41276.3
539.065	41261.96
539.266	40706.96
539.466	41354.12
539.667	40524.69
539.868	41008.01
540.068	41089.93
540.269	40582.04
540.469	41345.93
540.67	40727.44
540.87	41055.12
541.071	40797.07
541.271	40944.53
541.472	41143.18
541.672	40944.53
541.873	40469.4
542.073	40356.76
542.274	41241.48
542.474	41008.01
542.675	40706.96
542.875	41450.38
543.075	40991.63
543.276	40575.89
543.476	41157.52
543.676	40633.24
543.877	40893.33
544.077	40749.97
544.277	40731.54
544.478	40944.53
544.678	41165.71
544.878	40637.33
545.078	41071.5
545.279	40780.69
545.479	40801.17
545.679	40971.15
545.879	41206.67
546.079	40827.79
546.28	40981.39
546.48	40547.22
546.68	40862.61
546.88	41276.3
547.08	40866.7
547.28	40844.18
547.48	40672.15
547.68	40960.91
547.88	40328.09
548.081	40588.18
548.281	40721.3
548.481	40582.04
548.681	41018.25
548.881	40741.78
549.081	40643.48
549.28	40569.75
549.48	41163.66
549.68	40846.22
549.88	41079.69
550.08	40436.63
550.28	40993.68
550.48	40461.21
550.68	41034.64
550.88	40666
551.08	40809.36
551.279	40590.23
551.479	40205.21
551.679	40874.9
551.879	40276.89
552.079	40600.47
552.278	40375.19
552.478	40539.03
552.678	40545.17
552.878	40471.45
553.077	40508.31
553.277	40188.83
553.477	40835.98
553.676	40444.82
553.876	40162.2
554.076	40010.65
554.275	40100.76
554.475	39855.01
554.674	40598.42
554.874	40317.85
555.074	40088.48
555.273	40561.56
555.473	40287.13
555.672	39967.65
555.872	40162.2
556.071	40432.54
556.271	40270.75
556.47	40141.72
556.67	39613.35
556.869	40111
557.068	39881.63
557.268	39660.45
557.467	40123.29
557.667	39738.27
557.866	40047.52
558.065	39873.44
558.265	39717.79
558.464	39234.47
558.663	39762.85
558.863	39150.51
559.062	40266.65
559.261	39199.66
559.461	39388.07
559.66	39029.68
559.859	39228.33
560.058	38808.5
560.258	39345.06
560.457	38970.29
560.656	39230.38
560.855	38958
561.054	39437.22
561.253	38325.18
561.453	38818.74
561.652	38722.48
561.851	39070.64
562.05	38712.24
562.249	38284.22
562.448	39052.2
562.647	38615.99
562.846	38392.76
563.045	38472.63
563.244	37956.54
563.443	38820.78
563.642	37987.26
563.841	38269.88
564.04	38058.94
564.239	38282.17
564.438	37768.13
564.637	37747.65
564.836	38122.43
565.035	37321.67
565.234	37643.2
565.432	37194.7
565.631	37252.04
565.83	37682.11
566.029	37075.91
566.228	37084.11
566.427	37090.25
566.625	37034.95
566.824	36561.87
567.023	36987.85
567.222	36328.41
567.42	36783.05
567.619	37028.81
567.818	36594.64
568.016	36436.95
568.215	36561.87
568.414	36334.55
568.612	36776.91
568.811	36355.03
569.01	36246.49
569.208	35775.45
569.407	36064.22
569.605	35595.23
569.804	36228.06
570.002	35554.27
570.201	35660.77
570.4	35523.55
570.598	35267.56
570.797	34874.35
570.995	35439.59
571.193	34954.22
571.392	35210.21
571.59	34827.24
571.789	35148.78
571.987	34982.89
572.186	34642.93
572.384	34601.97
572.582	34644.98
572.781	34794.48
572.979	33870.84
573.177	34427.89
573.376	34446.32
573.574	34106.36
573.772	34370.55
573.971	34231.29
574.169	33936.38
574.367	33424.39
574.565	33876.99
574.763	33514.5
574.962	33391.62
575.16	33324.04
575.358	33215.49
575.556	33039.37
575.754	33616.9
575.952	32541.71
576.151	33420.29
576.349	32871.43
576.547	32916.49
576.745	32875.53
576.943	32723.98
577.141	32445.46
577.339	32603.15
577.537	32791.56
577.735	32828.43
577.933	32189.46
578.131	32185.36
578.329	32097.3
578.527	31906.84
578.725	32005.14
578.923	32269.33
579.121	32050.2
579.319	31597.6
579.516	31681.56
579.714	31728.67
579.912	31237.16
580.11	31472.67
580.308	31751.2
580.506	31495.2
580.704	31151.14
580.901	31083.56
581.099	31231.01
581.297	30884.9
581.495	31220.77
581.692	30764.07
581.89	30290.99
582.088	30936.1
582.285	30286.9
582.483	30766.12
582.681	30616.62
582.878	30000.18
583.076	29895.74
583.274	30098.48
583.471	29883.45
583.669	29953.08
583.866	29881.4
584.064	29848.63
584.262	29406.27
584.459	29779
584.657	29414.46
584.854	29826.1
585.052	29264.96
585.249	29467.71
585.447	29436.99
585.644	28818.5
585.841	29178.95
586.039	29013.06
586.236	28339.28
586.434	28810.31
586.631	28546.12
586.828	28660.81
587.026	28413.01
587.223	28427.34
587.42	28496.97
587.618	28544.08
587.815	28286.03
588.012	27790.42
588.21	28126.29
588.407	28251.22
588.604	28234.83
588.801	27935.83
588.999	27540.57
589.196	27620.44
589.393	27669.59
589.59	27829.34
589.787	27685.98
589.984	27464.8
590.182	27059.3
590.379	27360.35
590.576	27073.63
590.773	27165.79
590.97	26967.14
591.167	27116.64
591.364	26389.61
591.561	26782.82
591.758	26504.3
591.955	26401.9
592.152	26664.04
592.349	26489.96
592.546	26360.94
592.743	26397.81
592.94	26051.7
593.137	26205.3
593.334	26428.52
593.531	25951.35
593.727	25982.07
593.924	25615.48
594.121	25734.26
594.318	25631.86
594.515	25523.32
594.712	25803.89
594.908	25369.72
595.105	25455.74
595.302	25279.61
595.499	25412.73
595.696	25310.33
595.892	24820.87
596.089	24773.77
596.286	24968.32
596.482	24994.95
596.679	25009.28
596.876	24859.78
597.072	24577.16
597.269	24302.73
597.466	24214.67
597.662	24294.54
597.859	24398.99
598.055	24523.91
598.252	24087.7
598.448	24272.01
598.645	24089.74
598.841	23704.73
599.038	23790.74
599.234	23817.36
599.431	23567.51
599.627	23667.86
599.824	23651.48
600.02	23618.71
600.217	23688.34
600.413	23405.72
600.609	23446.68
600.806	23237.79
601.002	23454.87
601.198	23047.33
601.395	22756.52
601.591	23032.99
601.787	23039.14
601.984	22674.6
602.18	22811.81
602.376	22400.17
602.572	22678.69
602.769	22604.97
602.965	22348.97
603.161	22604.97
603.357	22191.28
603.553	22398.12
603.75	22404.27
603.946	22144.17
604.142	22113.45
604.338	21961.9
604.534	22105.26
604.73	21853.36
604.926	21669.05
605.122	21851.31
605.318	21490.87
605.514	21634.23
605.71	21408.95
605.906	21376.19
606.102	21509.3
606.298	21411
606.494	21445.82
606.69	21296.32
606.886	21456.06
607.082	21152.96
607.278	20880.58
607.474	20823.23
607.67	21050.56
607.866	20540.61
608.062	21030.08
608.257	20561.09
608.453	21314.75
608.649	20726.98
608.845	20669.64
609.041	20810.95
609.236	21036.22
609.432	20702.4
609.628	20675.78
609.824	20516.04
610.019	20161.74
610.215	20305.1
610.411	20276.43
610.606	20309.19
610.802	20157.64
610.998	20182.22
611.193	19924.18
611.389	20047.05
611.584	20077.77
611.78	19940.56
611.976	19922.13
612.171	20036.81
612.367	20014.29
612.562	19829.97
612.758	19805.39
612.953	19358.94
613.149	19938.51
613.344	19573.97
613.539	19739.86
613.735	19915.98
613.93	19313.88
614.126	19485.91
614.321	19633.36
614.517	19453.14
614.712	19186.91
614.907	19119.32
615.103	19403.99
615.298	19129.56
615.493	19201.24
615.688	18863.33
615.884	19447
616.079	18969.82
616.274	19145.95
616.47	18670.82
616.665	18805.99
616.86	18881.76
617.055	18732.26
617.25	18709.73
617.445	19012.83
617.641	18707.68
617.836	18549.99
618.031	18359.53
618.226	18709.73
618.421	18531.56
618.616	18674.92
618.811	18326.76
619.006	18597.09
619.201	17960.17
619.396	18326.76
619.591	17988.85
619.786	18076.91
619.981	17663.22
620.176	18009.33
620.371	17652.98
620.566	17788.14
620.761	17523.96
620.956	17390.84
621.151	17120.51
621.346	17538.29
621.541	17296.63
621.735	17282.3
621.93	16813.31
622.125	17083.64
622.32	17026.3
622.515	17079.55
622.709	16813.31
622.904	16813.31
623.099	16680.19
623.294	16798.98
623.488	16246.02
623.683	16739.58
623.878	16487.68
624.072	16004.36
624.267	16137.48
624.462	16178.44
624.656	15969.55
624.851	16037.13
625.046	15797.52
625.24	15985.93
625.435	15600.91
625.629	15637.78
625.824	15404.31
626.018	15502.61
626.213	15052.06
626.407	15166.74
626.602	15338.77
626.796	15084.83
626.991	15316.25
627.185	14953.76
627.38	14740.77
627.574	14769.44
627.768	14503.2
627.963	14638.37
628.157	14572.83
628.352	14462.24
628.546	14218.54
628.74	14484.77
628.935	14243.11
629.129	14288.17
629.323	13946.16
629.517	14030.12
629.712	13876.52
629.906	13985.07
630.1	13854
630.294	13649.2
630.489	13604.14
630.683	13761.84
630.877	13313.33
631.071	13497.65
631.265	13282.61
631.459	13239.61
631.653	13135.16
631.848	13149.5
632.042	13067.58
632.236	12952.89
632.43	13106.49
632.624	13120.82
632.818	12805.44
633.012	12694.85
633.206	12778.81
633.4	12684.61
633.594	12418.37
633.788	12778.81
633.982	12545.34
634.176	12508.48
634.369	12217.67
634.563	12313.92
634.757	12100.94
634.951	12334.4
635.145	12019.02
635.339	11949.39
635.533	11777.36
635.726	11736.4
635.92	11967.82
636.114	11826.51
636.308	11793.74
636.501	11617.61
636.695	11474.26
636.889	11304.28
637.083	11375.95
637.276	11482.45
637.47	11167.06
637.664	11238.74
637.857	11375.95
638.051	11300.18
638.244	11205.97
638.438	10984.79
638.632	11111.77
638.825	10837.34
639.019	10880.35
639.212	10661.21
639.406	10534.24
639.599	10810.72
639.793	10589.53
639.986	10245.48
640.18	10448.22
640.373	10417.51
640.567	10308.96
640.76	10241.38
640.954	10147.17
641.147	10227.04
641.34	10382.69
641.534	10022.25
641.727	10052.97
641.92	10020.2
642.114	10061.16
642.307	10022.25
642.5	9831.79
642.694	9532.78
642.887	9698.67
643.08	9700.72
643.273	9428.34
643.467	9426.29
643.66	9575.79
643.853	9287.03
644.046	9381.23
644.239	9401.71
644.432	9209.2
644.626	9123.19
644.819	9213.3
645.012	9141.62
645.205	9098.61
645.398	8887.67
645.591	8781.18
645.784	8842.62
645.977	8703.36
646.17	9018.74
646.363	8777.08
646.556	8574.33
646.749	8654.2
646.942	8682.88
647.135	8590.72
647.328	8521.09
647.521	8400.26
647.714	8326.53
647.907	8551.81
648.099	8222.08
648.292	8381.82
648.485	8230.27
648.678	8224.13
648.871	8217.99
649.064	8050.05
649.256	8185.22
649.449	8041.86
649.642	8074.63
649.835	7941.51
650.027	7757.19
650.22	8045.96
650.413	7863.69
650.605	7839.11
650.798	7654.8
650.991	7617.93
651.183	7609.74
651.376	7607.69
651.568	7687.56
651.761	7716.23
651.954	7464.33
652.146	7513.49
652.339	7450
652.531	7456.14
652.724	7261.59
652.916	7189.91
653.109	7214.48
653.301	7206.29
653.494	7212.43
653.686	7026.07
653.879	7323.02
654.071	6987.16
654.263	6976.92
654.456	6970.77
654.648	7009.69
654.84	6870.42
655.033	6999.45
655.225	6733.21
655.417	6755.74
655.61	6970.77
655.802	6837.66
655.994	6659.48
656.186	6653.34
656.379	6630.81
656.571	6696.35
656.763	6600.09
656.955	6604.19
657.148	6407.58
657.34	6305.18
657.532	6352.29
657.724	6391.2
657.916	6473.12
658.108	6428.06
658.3	6301.09
658.492	6239.65
658.684	6131.11
658.876	6231.46
659.068	6200.74
659.26	6020.52
659.452	6094.24
659.644	6174.11
659.836	6038.95
660.028	5983.65
660.22	5844.39
660.412	5911.97
660.604	5901.73
660.796	5868.97
660.988	5989.8
661.18	5842.34
661.372	5746.09
661.563	5774.76
661.755	5690.79
661.947	5772.71
662.139	5651.88
662.331	5479.85
662.522	5574.06
662.714	5655.98
662.906	5465.52
663.097	5479.85
663.289	5385.65
663.481	5463.47
663.673	5555.63
663.864	5402.03
664.056	5338.54
664.247	5334.45
664.439	5361.07
664.631	5412.27
664.822	5219.76
665.014	5340.59
665.205	5338.54
665.397	5166.51
665.588	5086.64
665.78	5211.57
665.971	5193.14
666.163	5062.07
666.354	5152.18
666.546	4967.86
666.737	4955.57
666.929	4916.66
667.12	5057.97
667.311	5131.7
667.503	4816.31
667.694	4890.04
667.885	4926.9
668.077	4959.67
668.268	4816.31
668.459	4887.99
668.651	4965.81
668.842	4797.88
669.033	4761.02
669.224	4609.47
669.416	4666.81
669.607	4777.4
669.798	4574.65
669.989	4654.52
670.18	4531.64
670.371	4570.55
670.563	4715.96
670.754	4582.84
670.945	4486.59
671.136	4634.04
671.327	4593.08
671.518	4421.05
671.709	4464.06
671.9	4457.92
672.091	4601.27
672.282	4416.96
672.473	4441.53
672.664	4462.01
672.855	4242.88
673.046	4513.21
673.237	4427.2
673.428	4439.48
673.619	4502.97
673.809	4361.66
674	4322.75
674.191	4369.85
674.382	4398.52
674.573	4390.33
674.764	4484.54
674.954	4474.3
675.145	4269.5
675.336	4257.22
675.527	4302.27
675.717	4300.22
675.908	4152.77
676.099	4371.9
676.289	4232.64
676.48	4033.99
676.671	4146.62
676.861	4242.88
677.052	4181.44
677.243	4189.63
677.433	4111.81
677.624	4072.9
677.814	4173.25
678.005	4126.15
678.195	4212.16
678.386	4050.37
678.576	4060.61
678.767	4103.62
678.957	4142.53
679.148	4023.75
679.338	3954.12
679.529	4068.8
679.719	3849.67
679.909	4103.62
680.1	4015.55
680.29	4025.79
680.481	4042.18
680.671	3947.97
680.861	4036.03
681.052	3898.82
681.242	3960.26
681.432	3945.92
681.622	3997.12
681.813	4019.65
682.003	4097.47
682.193	3958.21
682.383	3974.6
682.573	4005.31
682.764	3923.4
682.954	3976.64
683.144	3837.38
683.334	3894.72
683.524	3859.91
683.714	3931.59
683.904	4007.36
684.094	4017.6
684.284	3923.4
684.474	3734.98
684.664	3902.92
684.854	3921.35
685.044	3995.08
685.234	3829.19
685.424	3767.75
685.614	3866.05
685.804	3818.95
685.994	3841.48
686.184	3624.39
686.374	3812.81
686.564	3837.38
686.753	3900.87
686.943	3616.2
687.133	3655.11
687.323	3683.78
687.513	3579.34
687.702	3804.61
687.892	3618.25
688.082	3714.5
688.272	3483.08
688.461	3689.93
688.651	3708.36
688.841	3714.5
689.03	3675.59
689.22	3567.05
689.41	3565
689.599	3511.75
689.789	3632.58
689.979	3517.9
690.168	3440.08
690.358	3552.71
690.547	3495.37
690.737	3481.03
690.926	3433.93
691.116	3438.03
691.305	3417.55
691.495	3427.79
691.684	3495.37
691.874	3405.26
692.063	3456.46
692.252	3362.25
692.442	3452.36
692.631	3319.25
692.82	3507.66
693.01	3456.46
693.199	3337.68
693.388	3378.64
693.578	3290.57
693.767	3259.85
693.956	3368.4
694.146	3323.34
694.335	3317.2
694.524	3333.58
694.713	3386.83
694.902	3194.32
695.092	3253.71
695.281	3276.24
695.47	3253.71
695.659	3255.76
695.848	3376.59
696.037	3194.32
696.226	3225.04
696.415	3255.76
696.604	3270.09
696.793	3093.97
696.982	3263.95
697.171	3212.75
697.36	3239.37
697.549	3112.4
697.738	3096.02
697.927	3173.84
698.116	3225.04
698.305	3065.3
698.494	3212.75
698.683	3114.45
698.872	3227.09
699.061	3093.97
699.25	3110.35
699.438	3155.41
699.627	3245.52
699.816	3059.15
700.005	3243.47
700.193	3227.09
700.382	3257.81
700.571	3239.37
700.76	3145.17
700.948	3028.43
701.137	3161.55
701.326	3085.78
701.514	3061.2
701.703	3108.3
701.892	3136.98
702.08	3222.99
702.269	3184.08
702.457	3167.7
702.646	3161.55
702.834	3124.69
703.023	3001.81
703.212	3132.88
703.4	3040.72
703.589	3116.5
703.777	3167.7
703.965	3079.63
704.154	3108.3
704.342	3149.26
704.531	3075.54
704.719	3089.87
704.907	3114.45
705.096	3216.85
705.284	3003.86
705.472	3050.96
705.661	3141.07
705.849	3053.01
706.037	3096.02
706.226	2926.04
706.414	3075.54
706.602	2938.32
706.79	3194.32
706.979	3065.3
707.167	3132.88
707.355	3102.16
707.543	3157.46
707.731	3024.34
707.919	3053.01
708.107	3055.06
708.296	2942.42
708.484	2940.37
708.672	3141.07
708.86	3057.11
709.048	3063.25
709.236	2930.13
709.424	3149.26
709.612	3055.06
709.8	2993.62
709.988	2983.38
710.176	3198.42
710.364	3024.34
710.551	2997.71
710.739	3093.97
710.927	2940.37
711.115	3057.11
711.303	3069.39
711.491	3012.05
711.679	3059.15
711.866	3118.54
712.054	3155.41
712.242	2956.75
712.43	3177.94
712.617	2952.66
712.805	3024.34
712.993	3093.97
713.181	2997.71
713.368	3085.78
713.556	2956.75
713.744	2913.75
713.931	2952.66
714.119	3001.81
714.306	3136.98
714.494	2956.75
714.682	2989.52
714.869	2866.64
715.057	2895.32
715.244	3044.82
715.432	3001.81
715.619	2983.38
715.807	3096.02
715.994	2962.9
716.182	3007.95
716.369	3046.87
716.556	3077.59
716.744	3057.11
716.931	3126.74
717.119	3036.63
717.306	2960.85
717.493	2987.47
717.681	3028.43
717.868	3071.44
718.055	3010
718.242	3048.91
718.43	3096.02
718.617	3007.95
718.804	3083.73
718.991	2999.76
719.179	3012.05
719.366	2975.19
719.553	3042.77
719.74	2874.84
719.927	3036.63
720.114	2944.47
720.301	2903.51
720.488	2909.65
720.676	3075.54
720.863	2960.85
721.05	3055.06
721.237	2971.09
721.424	3040.72
721.611	3083.73
721.798	3022.29
721.985	2928.08
722.172	3010
722.358	2940.37
722.545	2977.23
722.732	2883.03
722.919	2954.71
723.106	3016.15
723.293	3042.77
723.48	2905.56
723.667	2860.5
723.853	3034.58
724.04	2885.08
724.227	2885.08
724.414	3069.39
724.6	2936.28
724.787	2889.17
724.974	2958.8
725.161	2934.23
725.347	2813.4
725.534	2950.61
725.72	2932.18
725.907	2993.62
726.094	2923.99
726.28	2946.52
726.467	2895.32
726.653	2817.49
726.84	2921.94
727.027	2905.56
727.213	2899.41
727.4	2926.04
727.586	2825.68
727.773	2854.36
727.959	2790.87
728.145	2751.96
728.332	2962.9
728.518	2842.07
728.705	2928.08
728.891	2897.36
729.077	2864.6
729.264	2797.01
729.45	2856.4
729.636	3042.77
729.823	2928.08
730.009	2991.57
730.195	2893.27
730.382	2977.23
730.568	2856.4
730.754	2954.71
730.94	2936.28
731.126	2840.02
731.313	2878.93
731.499	2878.93
731.685	2844.12
731.871	2821.59
732.057	2846.16
732.243	3050.96
732.429	2856.4
732.615	2788.82
732.801	2792.92
732.987	2794.97
733.173	2799.06
733.359	2946.52
733.545	2889.17
733.731	2803.16
733.917	2745.81
734.103	2903.51
734.289	2913.75
734.475	2850.26
734.661	2915.8
734.847	2889.17
735.033	2860.5
735.219	2860.5
735.404	2842.07
735.59	2969.04
735.776	2729.43
735.962	2764.25
736.148	2819.54
736.333	2930.13
736.519	2815.45
736.705	2895.32
736.89	2866.64
737.076	2823.64
737.262	2737.62
737.447	2774.49
737.633	2721.24
737.819	2723.29
738.004	2627.03
738.19	2694.61
738.375	2667.99
738.561	2747.86
738.747	2751.96
738.932	2731.48
739.118	2717.14
739.303	2733.53
739.489	2627.03
739.674	2653.66
739.859	2624.98
740.045	2680.28
740.23	2676.18
740.416	2633.18
740.601	2622.94
740.786	2586.07
740.972	2538.97
741.157	2706.9
741.342	2553.31
741.528	2536.92
741.713	2551.26
741.898	2528.73
742.084	2520.54
742.269	2571.74
742.454	2680.28
742.639	2489.82
742.824	2506.2
743.01	2424.28
743.195	2514.39
743.38	2489.82
743.565	2377.18
743.75	2481.63
743.935	2514.39
744.12	2467.29
744.305	2401.76
744.49	2282.97
744.675	2418.14
744.86	2489.82
745.045	2407.9
745.23	2272.73
745.415	2362.84
745.6	2381.28
745.785	2336.22
745.97	2405.85
746.155	2379.23
746.34	2330.08
746.525	2158.05
746.71	2299.36
746.895	2186.72
747.079	2258.4
747.264	2305.5
747.449	2266.59
747.634	2323.93
747.819	2129.38
748.003	2166.24
748.188	2164.19
748.373	2225.63
748.557	2160.1
748.742	2043.36
748.927	2045.41
749.111	2106.85
749.296	2072.03
749.481	2088.42
749.665	2022.88
749.85	1971.68
750.034	1957.35
750.219	2110.94
750.404	1926.63
750.588	1953.25
750.773	1900
750.957	2012.64
751.141	1904.1
751.326	1953.25
751.51	1881.57
751.695	1934.82
751.879	1836.52
752.064	1920.48
752.248	1879.52
752.432	1848.8
752.617	1803.75
752.801	1861.09
752.985	1947.11
753.17	1846.76
753.354	1820.13
753.538	1885.67
753.722	1736.17
753.907	1805.8
754.091	1828.32
754.275	1738.21
754.459	1644.01
754.643	1662.44
754.828	1691.11
755.012	1730.02
755.196	1676.77
755.38	1727.97
755.564	1676.77
755.748	1637.86
755.932	1678.82
756.116	1674.73
756.3	1609.19
756.484	1678.82
756.668	1574.38
756.852	1639.91
757.036	1504.75
757.22	1627.62
757.404	1551.85
757.588	1494.51
757.772	1537.51
757.956	1508.84
758.14	1506.79
758.323	1385.96
758.507	1568.23
758.691	1500.65
758.875	1396.2
759.059	1482.22
759.242	1377.77
759.426	1326.57
759.61	1336.81
759.794	1340.91
759.977	1353.2
760.161	1375.72
760.345	1383.91
760.528	1400.3
760.712	1332.72
760.895	1349.1
761.079	1363.44
761.263	1379.82
761.446	1371.63
761.63	1351.15
761.813	1322.48
761.997	1390.06
762.18	1414.63
762.364	1299.95
762.547	1347.05
762.731	1258.99
762.914	1232.37
763.098	1340.91
763.281	1316.33
763.464	1238.51
763.648	1211.89
763.831	1250.8
764.015	1215.98
764.198	1236.46
764.381	1222.13
764.564	1220.08
764.748	1199.6
764.931	1275.37
765.114	1236.46
765.297	1234.41
765.481	1197.55
765.664	1203.69
765.847	1197.55
766.03	1203.69
766.213	1191.41
766.397	1150.45
766.58	1236.46
766.763	1119.73
766.946	1097.2
767.129	1076.72
767.312	1193.45
767.495	1170.93
767.678	1201.65
767.861	1136.11
768.044	1166.83
768.227	1111.54
768.41	1144.3
768.593	1140.21
768.776	1089.01
768.959	1064.43
769.142	1121.77
769.324	1097.2
769.507	1084.91
769.69	1007.09
769.873	1107.44
770.056	1091.06
770.239	1048.05
770.421	1007.09
770.604	1011.18
770.787	1093.1
770.97	1031.66
771.152	1002.99
771.335	970.23
771.518	994.8
771.7	1019.38
771.883	1031.66
772.066	972.27
772.248	1035.76
772.431	933.36
772.613	884.21
772.796	888.31
772.978	982.51
773.161	910.83
773.343	1058.29
773.526	904.69
773.708	853.49
773.891	916.98
774.073	939.51
774.256	937.46
774.438	894.45
774.621	818.68
774.803	896.5
774.985	882.16
775.168	783.86
775.35	802.29
775.532	914.93
775.715	869.87
775.897	835.06
776.079	806.39
776.261	814.58
776.444	810.48
776.626	865.78
776.808	747
776.99	841.2
777.173	738.8
777.355	777.72
777.537	892.4
777.719	814.58
777.901	728.56
778.083	757.24
778.265	749.04
778.447	798.2
778.629	810.48
778.811	679.41
778.993	716.28
779.175	744.95
779.357	695.8
779.539	761.33
779.721	759.28
779.903	679.41
780.085	724.47
780.267	691.7
780.449	687.61
780.631	603.64
780.812	685.56
780.994	685.56
781.176	663.03
781.358	603.64
781.54	652.79
781.721	663.03
781.903	630.26
782.085	663.03
782.267	673.27
782.448	626.17
782.63	581.11
782.812	564.73
782.993	589.3
783.175	736.76
783.357	587.26
783.538	634.36
783.72	642.55
783.901	611.83
784.083	579.06
784.264	626.17
784.446	560.63
784.627	507.38
784.809	589.3
784.99	534.01
785.172	591.35
785.353	548.34
785.535	605.69
785.716	525.82
785.897	499.19
786.079	499.19
786.26	536.06
786.441	525.82
786.623	515.58
786.804	534.01
786.985	546.3
787.167	544.25
787.348	507.38
787.529	482.81
787.71	589.3
787.891	499.19
788.073	452.09
788.254	515.58
788.435	470.52
788.616	417.27
788.797	491
788.978	368.12
789.159	456.19
789.34	462.33
789.522	409.08
789.703	392.7
789.884	515.58
790.065	476.66
790.246	462.33
790.427	386.55
790.607	429.56
790.788	464.38
790.969	429.56
791.15	447.99
791.331	450.04
791.512	415.23
791.693	380.41
791.874	396.79
792.054	427.51
792.235	515.58
792.416	402.94
792.597	415.23
792.778	419.32
792.958	404.99
793.139	388.6
793.32	347.64
793.5	382.46
793.681	382.46
793.862	411.13
794.042	343.55
794.223	318.97
794.404	372.22
794.584	316.92
794.765	347.64
794.945	304.64
795.126	386.55
795.306	394.75
795.487	372.22
795.667	333.31
795.848	361.98
796.028	302.59
796.209	374.27
796.389	335.35
796.57	366.07
796.75	255.48
796.93	368.12
797.111	318.97
797.291	235
797.471	290.3
797.652	298.49
797.832	294.4
798.012	296.44
798.192	312.83
798.373	327.16
798.553	228.86
798.733	386.55
798.913	384.51
799.093	306.68
799.274	312.83
799.454	310.78
799.634	341.5
799.814	325.12
799.994	323.07
800.174	357.88
800.354	323.07
800.534	286.2
800.714	347.64
800.894	241.15
801.074	241.15
801.254	230.91
801.434	255.48
801.614	298.49
801.794	269.82
801.974	671.22
802.154	224.76
802.334	267.77
802.514	218.62
802.693	210.43
802.873	312.83
803.053	296.44
803.233	255.48
803.413	265.72
803.592	257.53
803.772	183.81
803.952	232.96
804.131	222.72
804.311	275.96
804.491	302.59
804.67	243.2
804.85	183.81
805.03	273.92
805.209	239.1
805.389	298.49
805.568	140.8
805.748	210.43
805.928	179.71
806.107	302.59
806.287	286.2
806.466	243.2
806.646	187.9
806.825	222.72
807.004	249.34
807.184	243.2
807.363	253.44
807.543	169.47
807.722	232.96
807.901	261.63
808.081	243.2
808.26	175.61
808.439	230.91
808.619	243.2
808.798	259.58
808.977	196.09
809.156	247.29
809.336	200.19
809.515	230.91
809.694	216.57
809.873	185.85
810.052	228.86
810.231	259.58
810.411	208.38
810.59	196.09
810.769	243.2
810.948	202.24
811.127	114.17
811.306	230.91
811.485	161.28
811.664	181.76
811.843	140.8
812.022	220.67
812.201	189.95
812.38	196.09
812.559	181.76
812.737	175.61
812.916	185.85
813.095	189.95
813.274	161.28
813.453	167.42
813.632	198.14
813.811	169.47
813.989	142.85
814.168	192
814.347	118.27
814.526	251.39
814.704	177.66
814.883	155.13
815.062	155.13
815.24	200.19
815.419	114.17
815.598	171.52
815.776	69.12
815.955	224.76
816.133	128.51
816.312	284.16
816.49	118.27
816.669	146.94
816.847	122.37
817.026	175.61
817.204	151.04
817.383	204.28
817.561	128.51
817.74	183.81
817.918	175.61
818.097	142.85
818.275	128.51
818.453	146.94
818.632	171.52
818.81	232.96
818.988	128.51
819.167	161.28
819.345	130.56
819.523	171.52
819.701	140.8
819.879	151.04
820.058	81.41
820.236	196.09
820.414	128.51
820.592	165.37
820.77	122.37
820.948	212.48
821.127	204.28
821.305	159.23
821.483	138.75
821.661	144.89
821.839	153.09
822.017	179.71
822.195	146.94
822.373	146.94
822.551	163.33
822.729	79.36
822.907	144.89
823.085	120.32
823.262	122.37
823.44	171.52
823.618	103.93
823.796	167.42
823.974	114.17
824.152	97.79
824.329	62.98
824.507	134.65
824.685	202.24
824.863	91.65
825.04	120.32
825.218	136.7
825.396	99.84
825.574	134.65
825.751	167.42
825.929	159.23
826.107	71.17
826.284	163.33
826.462	155.13
826.639	67.07
826.817	136.7
826.994	163.33
827.172	56.83
827.349	155.13
827.527	136.7
827.704	89.6
827.882	110.08
828.059	79.36
828.237	108.03
828.414	153.09
828.591	122.37
828.769	87.55
828.946	108.03
829.124	124.41
829.301	136.7
829.478	103.93
829.655	202.24
829.833	136.7
830.01	83.45
830.187	144.89
830.364	71.17
830.542	108.03
830.719	136.7
830.896	155.13
831.073	120.32
831.25	126.46
831.427	122.37
831.604	151.04
831.782	118.27
831.959	116.22
832.136	91.65
832.313	126.46
832.49	91.65
832.667	118.27
832.844	140.8
833.021	179.71
833.198	103.93
833.374	97.79
833.551	83.45
833.728	204.28
833.905	163.33
834.082	1.54
834.259	77.31
834.436	101.89
834.612	112.13
834.789	85.5
834.966	40.45
835.143	157.18
835.319	144.89
835.496	153.09
835.673	58.88
835.85	108.03
836.026	50.69
836.203	97.79
836.38	48.64
836.556	36.35
836.733	120.32
836.909	81.41
837.086	122.37
837.262	60.93
837.439	50.69
837.616	58.88
837.792	97.79
837.968	130.56
838.145	60.93
838.321	95.74
838.498	46.59
838.674	118.27
838.851	40.45
839.027	75.26
839.203	75.26
839.38	99.84
839.556	146.94
839.732	124.41
839.909	54.78
840.085	144.89
840.261	56.83
840.437	60.93
840.614	77.31
840.79	116.22
840.966	28.16
841.142	40.45
841.318	81.41
841.494	108.03
841.671	132.61
841.847	17.92
842.023	79.36
842.199	22.02
842.375	93.69
842.551	114.17
842.727	54.78
842.903	44.54
843.079	44.54
843.255	108.03
843.431	136.7
843.607	103.93
843.783	67.07
843.959	95.74
844.134	105.98
844.31	85.5
844.486	73.21
844.662	95.74
844.838	-33.28
845.013	65.02
845.189	118.27
845.365	11.78
845.541	36.35
845.716	30.21
845.892	112.13
846.068	22.02
846.244	-25.09
846.419	81.41
846.595	75.26
846.77	112.13
846.946	65.02
847.122	75.26
847.297	69.12
847.473	75.26
847.648	65.02
847.824	13.82
847.999	19.97
848.175	77.31
848.35	19.97
848.526	155.13
848.701	114.17
848.876	71.17
849.052	69.12
849.227	-6.66
849.403	60.93
849.578	85.5
849.753	34.3
849.929	26.11
850.104	9.73
850.279	44.54
850.454	81.41
850.63	42.5
850.805	9.73
850.98	87.55
851.155	36.35
851.33	7.68
851.505	36.35
851.681	52.74
851.856	-27.14
852.031	24.06
852.206	48.64
852.381	50.69
852.556	79.36
852.731	52.74
852.906	58.88
853.081	85.5
853.256	44.54
853.431	28.16
853.606	-57.86
853.781	44.54
853.956	30.21
854.131	-0.51
854.305	-27.14
854.48	34.3
854.655	157.18
854.83	-20.99
855.005	52.74
855.18	1.54
855.354	77.31
855.529	-10.75
855.704	28.16
855.879	-0.51
856.053	36.35
856.228	83.45
856.403	36.35
856.577	69.12
856.752	-2.56
856.926	44.54
857.101	48.64
857.276	65.02
857.45	38.4
857.625	-6.66
857.799	7.68
857.974	-23.04
858.148	42.5
858.323	44.54
858.497	11.78
858.672	50.69
858.846	52.74
859.02	83.45
859.195	19.97
859.369	-4.61
859.543	22.02
859.718	69.12
859.892	-4.61
860.066	11.78
860.241	28.16
860.415	54.78
860.589	22.02
860.763	-16.9
860.938	54.78
861.112	65.02
861.286	38.4
861.46	38.4
861.634	58.88
861.808	13.82
861.982	60.93
862.157	-4.61
862.331	-29.18
862.505	36.35
862.679	32.26
862.853	75.26
863.027	-18.94
863.201	105.98
863.375	-18.94
863.549	42.5
863.722	26.11
863.896	108.03
864.07	67.07
864.244	36.35
864.418	7.68
864.592	-39.42
864.766	1.54
864.939	17.92
865.113	62.98
865.287	32.26
865.461	-2.56
865.634	32.26
865.808	52.74
865.982	15.87
866.156	26.11
866.329	22.02
866.503	-35.33
866.676	69.12
866.85	46.59
867.024	83.45
867.197	46.59
867.371	26.11
867.544	77.31
867.718	30.21
867.891	69.12
868.065	-27.14
868.238	15.87
868.412	34.3
868.585	114.17
868.759	50.69
868.932	97.79
869.105	19.97
869.279	73.21
869.452	1.54
869.625	44.54
869.799	17.92
869.972	69.12
870.145	30.21
870.319	22.02
870.492	32.26
870.665	-18.94
870.838	17.92
871.011	-18.94
871.185	46.59
871.358	19.97
871.531	-37.38
871.704	-47.62
871.877	44.54
872.05	-6.66
872.223	28.16
872.396	40.45
872.569	7.68
872.742	42.5
872.915	38.4
873.088	17.92
873.261	9.73
873.434	-12.8
873.607	85.5
873.78	83.45
873.953	24.06
874.126	-2.56
874.299	-6.66
874.471	67.07
874.644	-14.85
874.817	67.07
874.99	91.65
875.163	26.11
875.335	48.64
875.508	-16.9
875.681	-8.7
875.853	97.79
876.026	60.93
876.199	52.74
876.371	134.65
876.544	38.4
876.717	-20.99
876.889	28.16
877.062	5.63
877.234	73.21
877.407	-33.28
877.579	-6.66
877.752	22.02
877.924	3.58
878.097	99.84
878.269	38.4
878.442	99.84
878.614	-0.51
878.786	60.93
878.959	11.78
879.131	30.21
879.303	-27.14
879.476	75.26
879.648	3.58
879.82	17.92
879.993	-29.18
880.165	3.58
880.337	7.68
880.509	30.21
880.681	1.54
880.854	103.93
881.026	-0.51
881.198	122.37
881.37	17.92
881.542	-25.09
881.714	13.82
881.886	-2.56
882.058	11.78
882.23	52.74
882.402	48.64
882.574	-74.24
882.746	40.45
882.918	83.45
883.09	26.11
883.262	-23.04
883.434	73.21
883.606	5.63
883.778	44.54
883.95	46.59
884.122	5.63
884.293	83.45
884.465	71.17
884.637	50.69
884.809	-53.76
884.98	79.36
885.152	36.35
885.324	-0.51
885.496	67.07
885.667	-37.38
885.839	34.3
886.011	44.54
886.182	28.16
886.354	13.82
886.525	-12.8
886.697	-12.8
886.869	24.06
887.04	-20.99
887.212	-0.51
887.383	50.69
887.555	62.98
887.726	17.92
887.897	-25.09
888.069	-10.75
888.24	-37.38
888.412	-23.04
888.583	22.02
888.754	13.82
888.926	65.02
889.097	46.59
889.268	30.21
889.44	56.83
889.611	13.82
889.782	-78.33
889.953	-14.85
890.125	71.17
890.296	-8.7
890.467	32.26
890.638	-10.75
890.809	-104.96
890.98	-66.05
891.151	5.63
891.323	103.93
891.494	32.26
891.665	-57.86
891.836	32.26
892.007	-29.18
892.178	48.64
892.349	13.82
892.52	-20.99
892.691	38.4
892.862	34.3
893.032	-57.86
893.203	-12.8
893.374	-20.99
893.545	-2.56
893.716	-27.14
893.887	54.78
894.057	-23.04
894.228	3.58
894.399	-51.71
894.57	75.26
894.74	-80.38
894.911	56.83
895.082	-20.99
895.253	-61.95
895.423	-2.56
895.594	-2.56
895.764	60.93
895.935	40.45
896.106	22.02
896.276	38.4
896.447	-29.18
896.617	13.82
896.788	-74.24
896.958	-23.04
897.129	36.35
897.299	-23.04
897.47	38.4
897.64	38.4
897.81	17.92
897.981	48.64
898.151	-20.99
898.322	44.54
898.492	-51.71
898.662	58.88
898.832	-16.9
899.003	-29.18
899.173	3.58
899.343	11.78
899.513	9.73
