Data from USB4F104151__54__11-52-00-706.txt Node

Date: Fri Mar 14 11:52:00 EDT 2025
User: louis
Spectrometer: USB4F10415
Trigger mode: 4
Integration Time (sec): 2.000000E-2
Scans to average: 1
Electric dark correction enabled: true
Nonlinearity correction enabled: false
Boxcar width: 0
XAxis mode: Wavelengths
Number of Pixels in Spectrum: 3648
>>>>>Begin Spectral Data<<<<<
178.204	-85.16
178.424	-85.16
178.644	-85.16
178.864	-107.69
179.084	-79.02
179.304	-42.15
179.524	11.09
179.744	47.96
179.964	35.67
180.184	-52.39
180.404	-60.59
180.624	9.05
180.844	31.57
181.064	11.09
181.283	4.95
181.503	-19.63
181.723	23.38
181.943	-38.06
182.163	15.19
182.383	21.33
182.602	80.72
182.822	-25.77
183.042	35.67
183.262	-54.44
183.482	-19.63
183.701	13.14
183.921	74.58
184.141	-58.54
184.361	2.9
184.58	7
184.8	-17.58
185.02	13.14
185.239	19.29
185.459	45.91
185.679	17.24
185.898	-17.58
186.118	50
186.338	-48.3
186.557	11.09
186.777	-48.3
186.997	-38.06
187.216	80.72
187.436	39.76
187.655	13.14
187.875	-3.24
188.095	-64.68
188.314	-9.39
188.534	58.2
188.753	-31.91
188.973	-13.48
189.192	7
189.412	-9.39
189.631	-54.44
189.851	52.05
190.07	41.81
190.29	-36.01
190.509	86.87
190.729	-21.67
190.948	95.06
191.168	103.25
191.387	60.24
191.607	17.24
191.826	-25.77
192.045	39.76
192.265	56.15
192.484	0.85
192.704	54.1
192.923	23.38
193.142	31.57
193.362	54.1
193.581	58.2
193.8	52.05
194.02	-54.44
194.239	-46.25
194.458	25.43
194.678	37.72
194.897	-9.39
195.116	0.85
195.335	-17.58
195.555	95.06
195.774	-1.19
195.993	45.91
196.212	39.76
196.432	-21.67
196.651	-48.3
196.87	29.52
197.089	70.48
197.308	-7.34
197.528	-9.39
197.747	-23.72
197.966	-21.67
198.185	9.05
198.404	27.48
198.623	41.81
198.842	4.95
199.062	60.24
199.281	43.86
199.5	-7.34
199.719	-38.06
199.938	43.86
200.157	11.09
200.376	13.14
200.595	-17.58
200.814	4.95
201.033	29.52
201.252	-91.31
201.471	-74.92
201.69	2.9
201.909	-38.06
202.128	-25.77
202.347	31.57
202.566	19.29
202.785	-9.39
203.004	-5.29
203.223	-23.72
203.442	-23.72
203.661	17.24
203.879	54.1
204.098	56.15
204.317	4.95
204.536	11.09
204.755	-25.77
204.974	-3.24
205.193	-5.29
205.411	68.44
205.63	31.57
205.849	0.85
206.068	52.05
206.287	33.62
206.505	70.48
206.724	-27.82
206.943	-29.87
207.162	76.63
207.381	37.72
207.599	33.62
207.818	-36.01
208.037	17.24
208.255	-50.35
208.474	60.24
208.693	-62.63
208.911	90.96
209.13	-17.58
209.349	39.76
209.567	11.09
209.786	58.2
210.005	0.85
210.223	37.72
210.442	-1.19
210.661	29.52
210.879	39.76
211.098	66.39
211.316	-9.39
211.535	60.24
211.753	-9.39
211.972	-11.43
212.191	31.57
212.409	4.95
212.628	-19.63
212.846	-5.29
213.065	4.95
213.283	4.95
213.502	45.91
213.72	37.72
213.938	-44.2
214.157	54.1
214.375	41.81
214.594	13.14
214.812	9.05
215.031	-7.34
215.249	15.19
215.467	41.81
215.686	39.76
215.904	47.96
216.122	27.48
216.341	11.09
216.559	9.05
216.778	50
216.996	-27.82
217.214	-36.01
217.432	90.96
217.651	-11.43
217.869	-5.29
218.087	33.62
218.306	-1.19
218.524	-17.58
218.742	39.76
218.96	23.38
219.179	-64.68
219.397	7
219.615	15.19
219.833	54.1
220.051	-15.53
220.27	-19.63
220.488	0.85
220.706	-38.06
220.924	0.85
221.142	-31.91
221.36	41.81
221.578	45.91
221.796	9.05
222.015	15.19
222.233	25.43
222.451	-9.39
222.669	-33.96
222.887	86.87
223.105	27.48
223.323	52.05
223.541	4.95
223.759	41.81
223.977	39.76
224.195	-3.24
224.413	19.29
224.631	27.48
224.849	33.62
225.067	45.91
225.285	-62.63
225.503	25.43
225.721	25.43
225.939	-27.82
226.157	47.96
226.375	35.67
226.592	35.67
226.81	-33.96
227.028	-11.43
227.246	-11.43
227.464	7
227.682	90.96
227.9	25.43
228.117	27.48
228.335	-44.2
228.553	-7.34
228.771	0.85
228.989	-54.44
229.206	-11.43
229.424	11.09
229.642	-1.19
229.86	-11.43
230.077	62.29
230.295	-3.24
230.513	-33.96
230.731	17.24
230.948	27.48
231.166	-1.19
231.384	78.68
231.601	70.48
231.819	66.39
232.037	17.24
232.254	-19.63
232.472	2.9
232.689	-17.58
232.907	52.05
233.125	37.72
233.342	11.09
233.56	23.38
233.777	23.38
233.995	-17.58
234.213	4.95
234.43	-27.82
234.648	33.62
234.865	-1.19
235.083	-9.39
235.3	33.62
235.518	4.95
235.735	21.33
235.953	27.48
236.17	-13.48
236.388	76.63
236.605	-13.48
236.822	66.39
237.04	15.19
237.257	45.91
237.475	4.95
237.692	2.9
237.909	45.91
238.127	47.96
238.344	39.76
238.562	17.24
238.779	-25.77
238.996	-15.53
239.214	15.19
239.431	35.67
239.648	-40.11
239.865	39.76
240.083	-1.19
240.3	-11.43
240.517	-9.39
240.735	43.86
240.952	88.92
241.169	25.43
241.386	41.81
241.603	4.95
241.821	2.9
242.038	-9.39
242.255	78.68
242.472	-5.29
242.689	27.48
242.907	-9.39
243.124	-1.19
243.341	-3.24
243.558	17.24
243.775	-25.77
243.992	33.62
244.209	7
244.426	107.35
244.643	-9.39
244.86	19.29
245.078	-36.01
245.295	45.91
245.512	21.33
245.729	-1.19
245.946	2.9
246.163	0.85
246.38	21.33
246.597	35.67
246.814	70.48
247.031	58.2
247.248	19.29
247.464	-25.77
247.681	115.54
247.898	84.82
248.115	54.1
248.332	31.57
248.549	17.24
248.766	-29.87
248.983	66.39
249.2	72.53
249.417	-17.58
249.633	29.52
249.85	62.29
250.067	47.96
250.284	54.1
250.501	-9.39
250.717	105.3
250.934	13.14
251.151	23.38
251.368	39.76
251.585	-17.58
251.801	2.9
252.018	2.9
252.235	-33.96
252.451	-9.39
252.668	13.14
252.885	45.91
253.102	-21.67
253.318	74.58
253.535	-87.21
253.752	-21.67
253.968	-9.39
254.185	25.43
254.401	52.05
254.618	-5.29
254.835	11.09
255.051	37.72
255.268	-5.29
255.484	2.9
255.701	101.2
255.917	111.44
256.134	54.1
256.351	2.9
256.567	29.52
256.784	68.44
257	-62.63
257.217	-17.58
257.433	-13.48
257.65	-25.77
257.866	19.29
258.082	23.38
258.299	-15.53
258.515	-15.53
258.732	31.57
258.948	52.05
259.165	29.52
259.381	-5.29
259.597	15.19
259.814	47.96
260.03	4.95
260.246	76.63
260.463	25.43
260.679	119.64
260.895	27.48
261.112	-27.82
261.328	25.43
261.544	47.96
261.761	-11.43
261.977	56.15
262.193	-3.24
262.409	54.1
262.626	2.9
262.842	29.52
263.058	-27.82
263.274	-33.96
263.49	60.24
263.707	0.85
263.923	-3.24
264.139	-54.44
264.355	33.62
264.571	33.62
264.787	11.09
265.004	-25.77
265.22	-5.29
265.436	33.62
265.652	-5.29
265.868	74.58
266.084	-31.91
266.3	54.1
266.516	45.91
266.732	-13.48
266.948	7
267.164	17.24
267.38	9.05
267.596	25.43
267.812	62.29
268.028	47.96
268.244	-17.58
268.46	47.96
268.676	31.57
268.892	-3.24
269.108	23.38
269.324	-5.29
269.54	-42.15
269.756	-5.29
269.972	-17.58
270.188	11.09
270.403	-21.67
270.619	66.39
270.835	47.96
271.051	-7.34
271.267	-3.24
271.483	13.14
271.698	64.34
271.914	33.62
272.13	-44.2
272.346	-23.72
272.562	-25.77
272.777	-46.25
272.993	-15.53
273.209	11.09
273.425	27.48
273.64	-13.48
273.856	115.54
274.072	86.87
274.287	13.14
274.503	56.15
274.719	-1.19
274.934	27.48
275.15	-17.58
275.366	-23.72
275.581	-46.25
275.797	31.57
276.012	25.43
276.228	80.72
276.444	62.29
276.659	62.29
276.875	-33.96
277.09	43.86
277.306	90.96
277.521	45.91
277.737	-13.48
277.952	47.96
278.168	-9.39
278.383	60.24
278.599	37.72
278.814	21.33
279.03	-21.67
279.245	39.76
279.461	66.39
279.676	-13.48
279.892	-17.58
280.107	31.57
280.322	-15.53
280.538	84.82
280.753	0.85
280.969	58.2
281.184	66.39
281.399	9.05
281.615	-9.39
281.83	-66.73
282.045	31.57
282.26	-3.24
282.476	11.09
282.691	58.2
282.906	-52.39
283.122	-7.34
283.337	-5.29
283.552	-38.06
283.767	-58.54
283.983	31.57
284.198	13.14
284.413	70.48
284.628	47.96
284.843	21.33
285.058	-15.53
285.274	45.91
285.489	37.72
285.704	21.33
285.919	60.24
286.134	19.29
286.349	-74.92
286.564	-1.19
286.779	29.52
286.995	-19.63
287.21	-13.48
287.425	35.67
287.64	-68.78
287.855	-11.43
288.07	-21.67
288.285	58.2
288.5	-38.06
288.715	41.81
288.93	-68.78
289.145	-21.67
289.36	82.77
289.575	21.33
289.79	-13.48
290.004	2.9
290.219	19.29
290.434	4.95
290.649	62.29
290.864	95.06
291.079	-15.53
291.294	37.72
291.509	43.86
291.724	39.76
291.938	29.52
292.153	58.2
292.368	115.54
292.583	39.76
292.798	82.77
293.012	56.15
293.227	11.09
293.442	0.85
293.657	62.29
293.871	15.19
294.086	50
294.301	43.86
294.516	21.33
294.73	21.33
294.945	4.95
295.16	9.05
295.374	56.15
295.589	43.86
295.804	11.09
296.018	54.1
296.233	50
296.447	117.59
296.662	37.72
296.877	7
297.091	4.95
297.306	43.86
297.52	11.09
297.735	31.57
297.949	-9.39
298.164	21.33
298.378	68.44
298.593	52.05
298.807	-5.29
299.022	7
299.236	47.96
299.451	19.29
299.665	9.05
299.88	78.68
300.094	11.09
300.309	0.85
300.523	43.86
300.737	33.62
300.952	47.96
301.166	9.05
301.381	25.43
301.595	-5.29
301.809	-5.29
302.024	33.62
302.238	-25.77
302.452	70.48
302.667	39.76
302.881	35.67
303.095	56.15
303.309	78.68
303.524	58.2
303.738	29.52
303.952	21.33
304.166	-7.34
304.381	27.48
304.595	7
304.809	21.33
305.023	17.24
305.237	-5.29
305.452	-15.53
305.666	41.81
305.88	4.95
306.094	68.44
306.308	21.33
306.522	35.67
306.736	60.24
306.95	-7.34
307.164	23.38
307.379	29.52
307.593	31.57
307.807	23.38
308.021	9.05
308.235	27.48
308.449	-23.72
308.663	64.34
308.877	11.09
309.091	90.96
309.305	50
309.519	-15.53
309.733	64.34
309.947	19.29
310.161	99.16
310.374	74.58
310.588	64.34
310.802	-33.96
311.016	47.96
311.23	52.05
311.444	0.85
311.658	-11.43
311.872	19.29
312.085	68.44
312.299	-5.29
312.513	-17.58
312.727	74.58
312.941	0.85
313.154	9.05
313.368	27.48
313.582	-21.67
313.796	-31.91
314.009	41.81
314.223	95.06
314.437	27.48
314.651	23.38
314.864	31.57
315.078	21.33
315.292	-13.48
315.505	13.14
315.719	2.9
315.933	15.19
316.146	-44.2
316.36	4.95
316.573	90.96
316.787	39.76
317.001	33.62
317.214	52.05
317.428	-15.53
317.641	-48.3
317.855	25.43
318.068	-27.82
318.282	25.43
318.495	37.72
318.709	41.81
318.922	56.15
319.136	70.48
319.349	7
319.563	76.63
319.776	21.33
319.99	-13.48
320.203	-13.48
320.417	23.38
320.63	54.1
320.843	121.68
321.057	39.76
321.27	66.39
321.483	-11.43
321.697	-11.43
321.91	-7.34
322.124	50
322.337	43.86
322.55	-50.35
322.763	17.24
322.977	62.29
323.19	-17.58
323.403	35.67
323.617	23.38
323.83	25.43
324.043	-9.39
324.256	-7.34
324.469	2.9
324.683	0.85
324.896	93.01
325.109	66.39
325.322	-42.15
325.535	0.85
325.748	-17.58
325.962	39.76
326.175	-31.91
326.388	21.33
326.601	97.11
326.814	-72.87
327.027	-36.01
327.24	78.68
327.453	-36.01
327.666	9.05
327.879	84.82
328.092	33.62
328.305	52.05
328.518	-70.83
328.731	2.9
328.944	86.87
329.157	41.81
329.37	-23.72
329.583	103.25
329.796	70.48
330.009	35.67
330.222	64.34
330.435	99.16
330.648	37.72
330.861	2.9
331.073	-15.53
331.286	7
331.499	35.67
331.712	41.81
331.925	17.24
332.138	41.81
332.35	33.62
332.563	-48.3
332.776	39.76
332.989	-9.39
333.202	-5.29
333.414	27.48
333.627	35.67
333.84	-13.48
334.053	60.24
334.265	23.38
334.478	25.43
334.691	76.63
334.903	27.48
335.116	-11.43
335.329	29.52
335.541	68.44
335.754	68.44
335.966	-21.67
336.179	-5.29
336.392	33.62
336.604	9.05
336.817	82.77
337.029	25.43
337.242	33.62
337.454	29.52
337.667	25.43
337.88	64.34
338.092	35.67
338.305	27.48
338.517	43.86
338.729	9.05
338.942	25.43
339.154	13.14
339.367	-46.25
339.579	-40.11
339.792	-13.48
340.004	21.33
340.217	-23.72
340.429	78.68
340.641	37.72
340.854	19.29
341.066	-15.53
341.278	-29.87
341.491	58.2
341.703	21.33
341.915	-15.53
342.128	2.9
342.34	64.34
342.552	37.72
342.764	43.86
342.977	-13.48
343.189	19.29
343.401	17.24
343.613	23.38
343.826	11.09
344.038	52.05
344.25	31.57
344.462	23.38
344.674	74.58
344.886	78.68
345.099	41.81
345.311	43.86
345.523	-54.44
345.735	17.24
345.947	-29.87
346.159	78.68
346.371	121.68
346.583	-21.67
346.795	27.48
347.007	33.62
347.219	-5.29
347.431	27.48
347.643	76.63
347.855	47.96
348.067	47.96
348.279	-7.34
348.491	-13.48
348.703	72.53
348.915	117.59
349.127	19.29
349.339	25.43
349.551	35.67
349.763	68.44
349.975	52.05
350.187	27.48
350.399	41.81
350.61	35.67
350.822	62.29
351.034	25.43
351.246	86.87
351.458	-33.96
351.669	43.86
351.881	123.73
352.093	70.48
352.305	101.2
352.517	64.34
352.728	84.82
352.94	33.62
353.152	11.09
353.363	15.19
353.575	-3.24
353.787	-3.24
353.999	50
354.21	39.76
354.422	-44.2
354.633	-31.91
354.845	58.2
355.057	25.43
355.268	99.16
355.48	11.09
355.692	60.24
355.903	17.24
356.115	66.39
356.326	-109.74
356.538	4.95
356.749	39.76
356.961	62.29
357.172	7
357.384	-1.19
357.595	27.48
357.807	56.15
358.018	-38.06
358.23	123.73
358.441	31.57
358.653	54.1
358.864	70.48
359.075	7
359.287	105.3
359.498	107.35
359.709	19.29
359.921	35.67
360.132	17.24
360.344	-13.48
360.555	29.52
360.766	50
360.977	52.05
361.189	105.3
361.4	-3.24
361.611	105.3
361.823	43.86
362.034	74.58
362.245	9.05
362.456	45.91
362.667	35.67
362.879	-9.39
363.09	0.85
363.301	-33.96
363.512	-17.58
363.723	50
363.935	-13.48
364.146	74.58
364.357	95.06
364.568	-7.34
364.779	25.43
364.99	54.1
365.201	21.33
365.412	80.72
365.623	21.33
365.834	56.15
366.045	2.9
366.256	31.57
366.467	-64.68
366.678	43.86
366.889	13.14
367.1	31.57
367.311	-54.44
367.522	45.91
367.733	62.29
367.944	74.58
368.155	39.76
368.366	45.91
368.577	66.39
368.788	58.2
368.999	-9.39
369.209	9.05
369.42	103.25
369.631	80.72
369.842	54.1
370.053	60.24
370.264	0.85
370.474	17.24
370.685	11.09
370.896	7
371.107	76.63
371.317	39.76
371.528	-1.19
371.739	95.06
371.95	80.72
372.16	58.2
372.371	50
372.582	37.72
372.792	33.62
373.003	111.44
373.214	4.95
373.424	27.48
373.635	50
373.846	43.86
374.056	56.15
374.267	41.81
374.477	41.81
374.688	86.87
374.898	33.62
375.109	54.1
375.319	50
375.53	31.57
375.74	-3.24
375.951	74.58
376.161	19.29
376.372	95.06
376.582	37.72
376.793	70.48
377.003	4.95
377.214	41.81
377.424	4.95
377.635	33.62
377.845	21.33
378.055	-13.48
378.266	37.72
378.476	25.43
378.686	-1.19
378.897	88.92
379.107	47.96
379.317	95.06
379.528	43.86
379.738	86.87
379.948	-17.58
380.158	62.29
380.369	113.49
380.579	93.01
380.789	45.91
380.999	105.3
381.21	82.77
381.42	23.38
381.63	27.48
381.84	129.88
382.05	58.2
382.261	119.64
382.471	11.09
382.681	-1.19
382.891	35.67
383.101	144.21
383.311	-56.49
383.521	29.52
383.731	29.52
383.941	152.4
384.151	95.06
384.361	23.38
384.571	64.34
384.781	76.63
384.991	56.15
385.201	111.44
385.411	62.29
385.621	31.57
385.831	64.34
386.041	25.43
386.251	60.24
386.461	-17.58
386.671	41.81
386.881	25.43
387.091	2.9
387.301	41.81
387.511	2.9
387.72	25.43
387.93	47.96
388.14	2.9
388.35	105.3
388.56	9.05
388.769	82.77
388.979	-21.67
389.189	9.05
389.399	56.15
389.609	7
389.818	54.1
390.028	25.43
390.238	45.91
390.447	7
390.657	11.09
390.867	-7.34
391.076	-9.39
391.286	45.91
391.496	82.77
391.705	80.72
391.915	97.11
392.125	31.57
392.334	29.52
392.544	7
392.753	54.1
392.963	23.38
393.172	43.86
393.382	39.76
393.591	138.07
393.801	117.59
394.01	13.14
394.22	78.68
394.429	68.44
394.639	-23.72
394.848	50
395.058	70.48
395.267	58.2
395.477	9.05
395.686	41.81
395.895	113.49
396.105	123.73
396.314	35.67
396.524	90.96
396.733	29.52
396.942	86.87
397.152	117.59
397.361	113.49
397.57	111.44
397.78	66.39
397.989	39.76
398.198	162.64
398.407	72.53
398.617	125.78
398.826	-1.19
399.035	64.34
399.244	82.77
399.453	93.01
399.663	62.29
399.872	174.93
400.081	88.92
400.29	103.25
400.499	111.44
400.708	148.31
400.917	109.4
401.127	45.91
401.336	78.68
401.545	82.77
401.754	76.63
401.963	107.35
402.172	115.54
402.381	93.01
402.59	62.29
402.799	45.91
403.008	78.68
403.217	156.5
403.426	64.34
403.635	45.91
403.844	95.06
404.053	99.16
404.262	174.93
404.471	148.31
404.68	62.29
404.888	162.64
405.097	176.98
405.306	144.21
405.515	103.25
405.724	142.16
405.933	158.55
406.142	70.48
406.35	138.07
406.559	154.45
406.768	140.12
406.977	213.84
407.185	117.59
407.394	191.31
407.603	123.73
407.812	162.64
408.02	209.75
408.229	211.79
408.438	160.59
408.646	236.37
408.855	191.31
409.064	310.1
409.272	197.46
409.481	246.61
409.69	207.7
409.898	250.71
410.107	277.33
410.315	308.05
410.524	262.99
410.733	254.8
410.941	279.38
411.15	389.97
411.358	267.09
411.567	361.3
411.775	398.16
411.984	383.82
412.192	283.47
412.401	381.78
412.609	377.68
412.818	389.97
413.026	387.92
413.234	416.59
413.443	508.75
413.651	498.51
413.86	555.85
414.068	535.37
414.276	566.09
414.485	531.28
414.693	555.85
414.901	652.11
415.11	619.34
415.318	621.39
415.526	688.97
415.734	666.44
415.943	693.07
416.151	688.97
416.359	668.49
416.567	754.51
416.776	727.88
416.984	836.42
417.192	840.52
417.4	811.85
417.608	893.77
417.817	961.35
418.025	961.35
418.233	1035.08
418.441	947.01
418.649	1065.8
418.857	1084.23
419.065	1098.56
419.273	1160
419.481	1196.87
419.689	1243.97
419.897	1268.55
420.105	1207.11
420.313	1346.37
420.521	1432.38
420.729	1372.99
420.937	1559.36
421.145	1489.73
421.353	1575.74
421.561	1682.24
421.769	1727.29
421.977	1770.3
422.185	1764.15
422.393	1944.38
422.601	1930.04
422.809	1946.42
423.017	2136.88
423.224	2081.59
423.432	2079.54
423.64	2155.32
423.848	2509.62
424.056	2300.72
424.263	2523.95
424.471	2384.69
424.679	2409.26
424.887	2853.67
425.094	2683.69
425.302	2947.88
425.51	2935.59
425.718	3023.66
425.925	3033.9
426.133	3117.86
426.341	3271.46
426.548	3269.41
426.756	3541.79
426.964	3494.69
427.171	3681.05
427.379	3705.63
427.586	3867.42
427.794	3914.52
428.001	4180.76
428.209	4293.4
428.417	4219.67
428.624	4363.03
428.832	4582.16
429.039	4567.82
429.247	4604.69
429.454	4926.22
429.662	5380.87
429.869	4920.07
430.076	5317.38
430.284	5245.7
430.491	5401.35
430.699	5634.82
430.906	5640.96
431.114	5702.4
431.321	5913.34
431.528	5972.73
431.736	6507.25
431.943	6738.67
432.15	6548.21
432.358	6697.71
432.565	7092.97
432.772	6966
432.979	7316.2
433.187	7598.82
433.394	7561.95
433.601	8004.32
433.808	8030.94
434.016	8008.41
434.223	8397.53
434.43	8858.32
434.637	8456.92
434.844	9073.35
435.052	9327.3
435.259	9165.51
435.466	9433.8
435.673	9384.65
435.88	9759.42
436.087	10502.84
436.294	10316.47
436.501	10064.57
436.708	10384.05
436.915	10891.95
437.122	11078.32
437.329	11072.17
437.537	11483.81
437.743	11967.13
437.95	11561.64
438.157	12221.08
438.364	12624.53
438.571	12608.15
438.778	12692.12
438.985	13996.67
439.192	13267.59
439.399	13957.76
439.606	13267.59
439.813	14264.96
440.02	15305.32
440.227	14795.38
440.433	14897.78
440.64	15190.64
440.847	15067.76
441.054	15362.67
441.261	16437.85
441.467	16341.6
441.674	16616.02
441.881	17259.09
442.088	17087.06
442.294	17029.71
442.501	17441.36
442.708	17771.08
442.914	18565.69
443.121	19507.76
443.328	18942.52
443.534	20066.85
443.741	19434.03
443.948	19386.93
444.154	20662.81
444.361	20795.93
444.568	20550.17
444.774	20769.3
444.981	21078.55
445.187	21465.61
445.394	22409.73
445.6	22247.94
445.807	24437.22
446.013	23527.92
446.22	23726.57
446.426	24715.74
446.633	25213.4
446.839	25868.75
447.046	24670.68
447.252	25995.72
447.459	26237.38
447.665	26151.37
447.871	27347.38
448.078	28334.5
448.284	26956.22
448.491	27799.98
448.697	28725.66
448.903	29102.49
449.11	29520.27
449.316	29012.38
449.522	29446.55
449.728	30134.67
449.935	30374.28
450.141	30525.83
450.347	31172.99
450.553	30175.62
450.76	30937.47
450.966	31400.31
451.172	31314.3
451.378	31981.93
451.584	31457.65
451.791	31983.98
451.997	32072.04
452.203	32391.53
452.409	32633.19
452.615	32272.74
452.821	31248.76
453.027	30947.71
453.233	32526.69
453.44	30871.93
453.646	31576.44
453.852	31805.81
454.058	32229.74
454.264	30833.02
454.47	31936.88
454.676	31117.69
454.882	32117.1
455.088	29290.9
455.294	29847.95
455.5	30134.67
455.705	30642.56
455.911	29188.5
456.117	28699.04
456.323	28289.45
456.529	26806.72
456.735	28172.71
456.941	27075
457.147	26784.19
457.352	26065.35
457.558	25715.15
457.764	25410
457.97	25346.51
458.176	24654.3
458.381	24717.79
458.587	23818.73
458.793	23536.11
458.999	22432.26
459.204	23777.77
459.41	23173.62
459.616	21918.21
459.821	21819.91
460.027	21903.88
460.233	21133.84
460.438	20161.06
460.644	20488.73
460.85	19206.7
461.055	18874.93
461.261	19345.97
461.466	17574.47
461.672	17003.09
461.878	18524.73
462.083	17254.99
462.289	16974.42
462.494	16685.65
462.7	15960.67
462.905	15630.95
463.111	16153.18
463.316	16093.79
463.522	15669.86
463.727	15979.11
463.932	15762.02
464.138	15622.76
464.343	15694.44
464.549	15360.62
464.754	15762.02
464.959	15641.19
465.165	15270.51
465.37	14936.69
465.575	14252.67
465.781	15118.96
465.986	15196.78
466.191	14707.32
466.397	14172.8
466.602	13580.93
466.807	13968
467.012	14436.99
467.218	13914.75
467.423	13679.24
467.628	13902.47
467.833	14457.46
468.038	14043.78
468.244	13664.9
468.449	14097.02
468.654	13789.83
468.859	13638.28
469.064	13593.22
469.269	12870.29
469.474	13044.37
469.679	13304.46
469.885	12970.64
470.09	12972.69
470.295	13070.99
470.5	12468.89
470.705	12952.21
470.91	12581.53
471.115	12329.63
471.32	12499.61
471.525	12640.92
471.73	12176.03
471.935	12096.16
472.139	11786.91
472.344	11897.5
472.549	11643.56
472.754	11580.07
472.959	11322.02
473.164	11088.56
473.369	11102.89
473.574	11162.28
473.778	11193
473.983	11184.81
474.188	10988.21
474.393	10617.52
474.598	10533.56
474.802	10445.49
475.007	10609.33
475.212	10660.53
475.417	10230.46
475.621	10214.07
475.826	10400.44
476.031	9818.82
476.235	9923.26
476.44	10070.72
476.645	9775.81
476.849	9878.21
477.054	9700.03
477.259	9485
477.463	9671.36
477.668	9259.72
477.872	9423.56
478.077	9235.14
478.282	9042.64
478.486	8889.04
478.691	8991.44
478.895	8899.28
479.1	8803.02
479.304	8706.77
479.509	8602.32
479.713	8702.67
479.918	8471.25
480.122	8463.06
480.326	8710.86
480.531	8514.26
480.735	8422.1
480.94	8258.26
481.144	8647.38
481.348	8065.75
481.553	8260.31
481.757	8168.15
481.961	8196.82
482.166	8188.63
482.37	8221.4
482.574	8071.9
482.778	8032.99
482.983	8299.22
483.187	8211.16
483.391	8301.27
483.595	8114.91
483.8	7969.5
484.004	8104.67
484.208	8237.78
484.412	8139.48
484.616	8188.63
484.821	8012.51
485.025	7975.64
485.229	8192.73
485.433	7934.68
485.637	8164.06
485.841	7951.07
486.045	7992.03
486.249	8200.92
486.453	7951.07
486.657	8252.12
486.861	8082.14
487.065	7863.01
487.269	8065.75
487.473	8055.51
487.677	7901.92
487.881	8303.32
488.085	8047.32
488.289	8243.93
488.493	8051.42
488.697	8030.94
488.901	8166.1
489.105	8098.52
489.309	8131.29
489.512	8448.72
489.716	8219.35
489.92	8270.55
490.124	8454.87
490.328	8227.54
490.531	8364.76
490.735	8293.08
490.939	8266.46
491.143	8430.29
491.346	8245.98
491.55	8518.36
491.754	8465.11
491.958	8440.53
492.161	8467.16
492.365	8555.22
492.569	8622.8
492.772	8614.61
492.976	8727.25
493.18	8641.23
493.383	8852.17
493.587	8760.02
493.79	9011.92
493.994	9001.68
494.197	8874.7
494.401	9276.1
494.605	8995.53
494.808	9134.79
495.012	9153.23
495.215	9196.23
495.419	9372.36
495.622	9302.73
495.825	9519.81
496.029	9396.93
496.232	9607.87
496.436	9548.48
496.639	9851.58
496.843	9624.26
497.046	9964.22
497.249	9990.84
497.453	10011.32
497.656	10025.66
497.859	10308.28
498.063	10255.03
498.266	10670.77
498.469	10627.76
498.673	10767.03
498.876	10789.55
499.079	10867.38
499.282	10873.52
499.485	11264.68
499.689	11115.18
499.892	11354.79
500.095	11164.33
500.298	11739.81
500.501	11666.08
500.705	11571.88
500.908	11827.87
501.111	11958.94
501.314	12278.43
501.517	12329.63
501.72	12692.12
501.923	12587.67
502.126	12788.37
502.329	12690.07
502.532	12669.59
502.735	13077.13
502.938	13228.68
503.141	13367.95
503.344	13513.35
503.547	13482.63
503.75	13806.21
503.953	13965.95
504.156	14178.94
504.359	14377.59
504.562	14193.28
504.765	14703.22
504.968	14541.43
505.17	15315.56
505.373	15139.44
505.576	15157.87
505.779	15424.11
505.982	15350.38
506.185	15571.56
506.387	15731.3
506.59	15948.39
506.793	16337.5
506.996	16290.4
507.198	16552.54
507.401	16736.85
507.604	17050.19
507.807	17207.89
508.009	17216.08
508.212	17201.74
508.415	17347.15
508.617	17910.34
508.82	17785.41
509.022	17924.68
509.225	18154.05
509.428	18455.1
509.63	18391.61
509.833	18657.85
510.035	18876.98
510.238	18975.28
510.44	19139.12
510.643	19274.29
510.845	19647.02
511.048	19415.6
511.25	19728.94
511.453	20126.24
511.655	20761.11
511.858	20328.99
512.06	20517.4
512.262	20584.99
512.465	20689.43
512.667	21205.52
512.87	21408.27
513.072	21391.89
513.274	21940.74
513.477	22163.97
513.679	22141.44
513.881	22393.34
514.084	22499.84
514.286	22616.57
514.488	22747.64
514.69	23615.98
514.893	23409.14
515.095	23560.69
515.297	23837.16
515.499	23831.02
515.701	24498.66
515.904	24566.24
516.106	24826.33
516.308	24955.35
516.51	24918.49
516.712	25045.46
516.914	25305.56
517.116	25999.82
517.318	26038.73
517.52	26100.17
517.722	26012.1
517.925	26812.86
518.127	26870.2
518.329	26943.93
518.531	27140.54
518.733	27630
518.935	27728.3
519.136	27699.63
519.338	28344.74
519.54	28213.67
519.742	28658.08
519.944	28627.36
520.146	28991.9
520.348	29432.21
520.55	29249.94
520.752	29610.39
520.954	29845.9
521.155	29741.46
521.357	30429.57
521.559	30697.86
521.761	30919.04
521.963	31031.68
522.164	30982.52
522.366	31224.18
522.568	31373.69
522.77	31627.63
522.971	32153.96
523.173	31834.48
523.375	32719.2
523.576	32366.95
523.778	32321.9
523.98	32639.33
524.181	33007.97
524.383	32840.03
524.584	33438.04
524.786	33636.69
524.988	33282.39
525.189	33990.99
525.391	34093.39
525.592	34373.96
525.794	34447.69
525.995	34402.63
526.197	34687.3
526.398	34472.26
526.6	34529.61
526.801	35078.46
527.003	35203.39
527.204	35168.57
527.406	35842.35
527.607	35490.1
527.808	35909.94
528.01	35191.1
528.211	35449.14
528.412	36651.3
528.614	35836.21
528.815	36018.48
529.016	36475.18
529.218	35643.7
529.419	36141.36
529.62	36571.43
529.822	36262.19
530.023	36706.6
530.224	36741.41
530.425	36755.75
530.626	36436.27
530.828	36456.75
531.029	37304.6
531.23	36780.32
531.431	37028.13
531.632	37099.81
531.833	37361.95
532.035	37347.61
532.236	36946.21
532.437	37533.98
532.638	37060.9
532.839	37241.12
533.04	37515.54
533.241	37212.45
533.442	37835.03
533.643	37323.04
533.844	37650.71
534.045	38050.06
534.246	37202.21
534.447	37843.22
534.648	37105.95
534.849	37390.62
535.05	37658.9
535.251	37579.03
535.451	37593.37
535.652	37861.65
535.853	37710.1
536.054	37902.61
536.255	37863.7
536.456	37433.63
536.657	38011.15
536.857	37626.14
537.058	37247.26
537.259	37445.91
537.46	37933.33
537.66	37667.09
537.861	37380.38
538.062	37693.72
538.263	37564.7
538.463	37351.71
538.664	37916.95
538.865	37951.76
539.065	38338.83
539.266	37331.23
539.466	37716.25
539.667	37732.63
539.868	37869.84
540.068	37761.3
540.269	37638.42
540.469	37966.1
540.67	37431.58
540.87	37937.43
541.071	37660.95
541.271	37697.81
541.472	37671.19
541.672	37529.88
541.873	37533.98
542.073	37374.24
542.274	37576.98
542.474	37155.1
542.675	37077.28
542.875	38043.92
543.075	37654.81
543.276	37294.36
543.476	37847.32
543.676	37439.77
543.877	37515.54
544.077	37525.78
544.277	37304.6
544.478	37585.18
544.678	37734.68
544.878	37423.39
545.078	37478.68
545.279	37241.12
545.479	37339.42
545.679	37523.74
545.879	37456.15
546.079	37574.94
546.28	37323.04
546.48	36999.46
546.68	37724.44
546.88	37411.1
547.08	37720.34
547.28	37398.81
547.48	37247.26
547.68	37716.25
547.88	37114.14
548.081	37648.66
548.281	37259.55
548.481	37067.04
548.681	37380.38
548.881	37249.31
549.081	37454.11
549.28	36849.96
549.48	37501.21
549.68	37003.55
549.88	37794.07
550.08	37171.49
550.28	37353.76
550.48	36917.54
550.68	37183.77
550.88	37130.53
551.08	36966.69
551.279	37169.44
551.479	36913.44
551.679	37179.68
551.879	37243.17
552.079	37204.25
552.278	37114.14
552.478	37206.3
552.678	36974.88
552.878	37290.27
553.077	37134.62
553.277	36524.33
553.477	37478.68
553.676	37089.57
553.876	36538.66
554.076	36835.62
554.275	37114.14
554.475	36602.15
554.674	36839.72
554.874	37032.22
555.074	36626.73
555.273	36669.73
555.473	36950.31
555.672	36520.23
555.872	36589.86
556.071	36550.95
556.271	36901.15
556.47	36512.04
556.67	36254
556.869	36479.27
557.068	36364.59
557.268	36294.96
557.467	36084.01
557.667	36415.79
557.866	36192.56
558.065	36471.08
558.265	36204.84
558.464	36194.61
558.663	36217.13
558.863	35637.56
559.062	36032.82
559.261	35496.25
559.461	36368.68
559.66	35512.63
559.859	35473.72
560.058	35619.13
560.258	35541.3
560.457	35641.65
560.656	35825.97
560.855	35529.02
561.054	35402.04
561.253	35023.17
561.453	35150.14
561.652	35479.86
561.851	35103.04
562.05	35068.22
562.249	34931.01
562.448	35309.88
562.647	35072.32
562.846	34965.82
563.045	35088.7
563.244	34865.47
563.443	35103.04
563.642	34513.22
563.841	35111.23
564.04	34554.18
564.239	34922.82
564.438	34425.16
564.637	34601.29
564.836	34533.7
565.035	33972.56
565.234	34435.4
565.432	34017.61
565.631	34285.9
565.83	34214.22
566.029	34021.71
566.228	33925.46
566.427	33853.78
566.625	33493.33
566.824	33212.76
567.023	33718.61
567.222	33223
567.42	33890.64
567.619	33513.81
567.818	33366.36
568.016	33374.55
568.215	33386.84
568.414	32870.75
568.612	33192.28
568.811	32864.61
569.01	32924
569.208	32407.91
569.407	33149.28
569.605	32334.18
569.804	32733.54
570.002	32280.94
570.201	32483.69
570.4	31869.3
570.598	32282.98
570.797	31758.7
570.995	32162.15
571.193	31465.85
571.392	32076.14
571.59	32026.99
571.789	31670.64
571.987	31658.35
572.186	31801.71
572.384	31148.41
572.582	31609.2
572.781	31467.89
572.979	30894.46
573.177	31326.58
573.376	31310.2
573.574	31097.21
573.772	31189.37
573.971	31201.66
574.169	30736.77
574.367	30679.43
574.565	30900.61
574.763	30609.79
574.962	30347.65
575.16	30259.59
575.358	30632.32
575.556	30183.82
575.754	30536.07
575.952	30126.47
576.151	30622.08
576.349	29798.8
576.547	30112.14
576.745	30126.47
576.943	29825.42
577.141	29835.66
577.339	29868.43
577.537	29432.21
577.735	29620.63
577.933	29467.03
578.131	29477.27
578.329	29151.64
578.527	29125.02
578.725	28899.74
578.923	29266.33
579.121	28858.78
579.319	28719.52
579.516	29090.2
579.714	29061.53
579.912	28832.16
580.11	28914.08
580.308	28748.19
580.506	28631.46
580.704	27922.86
580.901	28260.77
581.099	28742.05
581.297	28117.42
581.495	28144.04
581.692	28178.86
581.89	27883.95
582.088	28135.85
582.285	28035.5
582.483	28045.74
582.681	27656.62
582.878	27726.25
583.076	27115.96
583.274	27679.15
583.471	27068.86
583.669	27265.46
583.866	27052.47
584.064	27308.47
584.262	26978.75
584.459	27517.36
584.657	26931.64
584.854	27210.17
585.052	26536.38
585.249	26952.12
585.447	26939.83
585.644	26726.85
585.841	26585.54
586.039	26689.98
586.236	26485.19
586.434	26646.97
586.631	26255.81
586.828	26511.81
587.026	26460.61
587.223	26214.85
587.42	26034.63
587.618	25960.91
587.815	25778.64
588.012	25704.91
588.21	25629.13
588.407	25948.62
588.604	25780.68
588.801	25410
588.999	25596.37
589.196	25565.65
589.393	25229.78
589.59	25180.63
589.787	25012.7
589.984	25192.92
590.182	25084.37
590.379	25221.59
590.576	24558.05
590.773	24762.84
590.97	24586.72
591.167	24779.23
591.364	24377.83
591.561	24482.27
591.758	24240.61
591.955	24584.67
592.152	24209.89
592.349	24029.67
592.546	24117.73
592.743	24201.7
592.94	23755.24
593.137	24031.72
593.334	24009.19
593.531	23775.72
593.727	23943.66
593.924	24148.45
594.121	23247.35
594.318	23671.28
594.515	23474.67
594.712	23685.61
594.908	23321.07
595.105	23562.73
595.302	23245.3
595.499	23407.09
595.696	23036.41
595.892	22966.77
596.089	23220.72
596.286	22921.72
596.482	22837.75
596.679	22823.42
596.876	22981.11
597.072	22362.62
597.269	22696.44
597.466	22532.61
597.662	22383.1
597.859	22336
598.055	22415.87
598.252	22338.05
598.448	22157.83
598.645	21971.46
598.841	21819.91
599.038	21969.41
599.234	21867.02
599.431	21950.98
599.627	21420.56
599.824	21875.21
600.02	21680.65
600.217	21864.97
600.413	21387.79
600.609	21430.8
600.806	21279.25
601.002	21494.29
601.198	21277.2
601.395	20970.01
601.591	21174.8
601.787	21137.94
601.984	20972.05
602.18	21008.92
602.376	20775.45
602.572	20646.43
602.769	20781.59
602.965	20668.95
603.161	20748.82
603.357	20466.21
603.553	20480.54
603.75	20541.98
603.946	20161.06
604.142	20468.25
604.338	20335.14
604.534	20111.91
604.73	19913.25
604.926	20134.43
605.122	20259.36
605.318	20146.72
605.514	19841.57
605.71	19679.79
605.906	19946.02
606.102	19804.71
606.298	19534.38
606.494	19636.78
606.69	19409.45
606.886	19599.91
607.082	19280.43
607.278	19511.85
607.474	19212.85
607.67	19341.87
607.866	19370.54
608.062	19386.93
608.257	19063.35
608.453	19341.87
608.649	19089.97
608.845	18938.42
609.041	19085.87
609.236	18856.5
609.432	18930.23
609.628	18965.04
609.824	18956.85
610.019	18692.66
610.215	18770.49
610.411	18762.3
610.606	18692.66
610.802	18586.17
610.998	18459.2
611.193	18805.3
611.389	18522.68
611.584	18491.96
611.78	18100.8
611.976	18270.78
612.171	18125.38
612.367	18078.27
612.562	18162.24
612.758	18127.42
612.953	18170.43
613.149	18385.47
613.344	18078.27
613.539	18315.84
613.735	17945.16
613.93	18436.67
614.126	18149.95
614.321	18451
614.517	17928.77
614.712	18035.27
614.907	17783.37
615.103	18043.46
615.298	17877.57
615.493	18018.88
615.688	17314.38
615.884	18029.12
616.079	17478.22
616.274	17599.05
616.47	17715.78
616.665	17574.47
616.86	17345.1
617.055	17347.15
617.25	17369.68
617.445	17439.31
617.641	17173.07
617.836	17275.47
618.031	17046.1
618.226	17467.98
618.421	17289.81
618.616	17259.09
618.811	17060.43
619.006	17037.91
619.201	16818.77
619.396	16720.47
619.591	16474.71
619.786	16521.82
619.981	16706.13
620.176	16693.85
620.371	16360.03
620.566	16366.17
620.761	16155.23
620.956	16437.85
621.151	16077.41
621.346	16276.06
621.541	15960.67
621.735	15925.86
621.93	15731.3
622.125	15802.98
622.32	15792.74
622.515	15606.38
622.709	15729.25
622.904	15538.79
623.099	15460.97
623.294	15493.74
623.488	15465.07
623.683	15348.33
623.878	14856.82
624.072	15329.9
624.267	14807.67
624.462	15030.9
624.656	14926.45
624.851	14877.3
625.046	14940.79
625.24	14629.49
625.435	14453.37
625.629	14492.28
625.824	14170.75
626.018	14402.17
626.213	14191.23
626.407	14123.65
626.602	13886.08
626.796	13798.02
626.991	14107.26
627.185	13707.91
627.38	13826.69
627.574	13621.89
627.768	13333.13
627.963	13456.01
628.157	13384.33
628.352	13431.43
628.546	13302.41
628.74	13200.01
628.935	12962.45
629.129	13269.64
629.323	13116.05
629.517	13091.47
629.712	12962.45
629.906	12827.28
630.1	12833.43
630.294	12655.25
630.489	12712.6
630.683	12722.84
630.877	12475.03
631.071	12389.02
631.265	12358.3
631.459	12321.43
631.653	12147.36
631.848	12194.46
632.042	11977.37
632.236	12159.64
632.43	11850.4
632.624	12071.58
632.818	11844.26
633.012	11897.5
633.206	11868.83
633.4	12061.34
633.594	11502.25
633.788	11729.57
633.982	11641.51
634.176	11459.24
634.369	11405.99
634.563	11438.76
634.757	11373.22
634.951	11344.55
635.145	11023.02
635.339	11066.03
635.533	11188.91
635.726	10906.29
635.92	10742.45
636.114	11031.21
636.308	10975.92
636.501	10920.62
636.695	10824.37
636.889	10666.67
637.083	10556.08
637.276	10631.86
637.47	10523.32
637.664	10289.85
637.857	10359.48
638.051	10420.92
638.244	10295.99
638.438	10345.14
638.632	10121.91
638.825	10232.51
639.019	10003.13
639.212	9919.17
639.406	9884.35
639.599	10031.8
639.793	9777.86
639.986	9626.31
640.18	9777.86
640.373	9689.79
640.567	9728.7
640.76	9650.88
640.954	9405.13
641.147	9329.35
641.34	9495.24
641.534	9419.46
641.727	9185.99
641.92	9247.43
642.114	9247.43
642.307	9302.73
642.5	9302.73
642.694	8868.56
642.887	9099.98
643.08	9224.9
643.273	9175.75
643.467	9013.96
643.66	8825.55
643.853	8760.02
644.046	8712.91
644.239	8843.98
644.432	8641.23
644.626	8561.36
644.819	8637.14
645.012	8854.22
645.205	8551.12
645.398	8544.98
645.591	8268.5
645.784	8342.23
645.977	8245.98
646.17	8196.82
646.363	8084.19
646.556	8104.67
646.749	8143.58
646.942	8055.51
647.135	7946.97
647.328	8184.54
647.521	7899.87
647.714	8043.23
647.907	7703.26
648.099	7779.04
648.292	7783.13
648.485	7738.08
648.678	7697.12
648.871	7723.74
649.064	7580.39
649.256	7580.39
649.449	7645.92
649.642	7539.43
649.835	7326.44
650.027	7516.9
650.22	7416.55
650.413	7285.48
650.605	7373.54
650.798	7158.5
650.991	7121.64
651.183	7127.78
651.376	7029.48
651.568	7121.64
651.761	7221.99
651.954	6994.67
652.146	6916.84
652.339	7076.59
652.531	7043.82
652.724	6740.72
652.916	6853.36
653.109	6703.86
653.301	6753.01
653.494	6773.49
653.686	6478.58
653.879	6789.87
654.071	6845.16
654.263	6718.19
654.456	6664.94
654.648	6583.02
654.84	6390.52
655.033	6511.35
655.225	6525.68
655.417	6443.76
655.61	6298.36
655.802	6292.21
655.994	6312.69
656.186	6269.69
656.379	6304.5
656.571	6310.65
656.763	6130.42
656.955	6152.95
657.148	6111.99
657.34	6202.1
657.532	6099.7
657.724	5974.78
657.916	5878.52
658.108	5962.49
658.3	5810.94
658.492	6007.55
658.684	5804.8
658.876	5923.58
659.068	5853.95
659.26	5919.48
659.452	5942.01
659.644	5718.78
659.836	5620.48
660.028	5829.37
660.22	5563.14
660.412	5620.48
660.604	5677.82
660.796	5620.48
660.988	5554.94
661.18	5505.79
661.372	5448.45
661.563	5466.88
661.755	5364.48
661.947	5421.83
662.139	5358.34
662.331	5483.27
662.522	5430.02
662.714	5270.28
662.906	5178.12
663.097	5370.63
663.289	5212.93
663.481	5171.97
663.673	5149.45
663.864	5088.01
664.056	5102.34
664.247	5131.02
664.439	4934.41
664.631	5016.33
664.822	5096.2
665.014	5077.77
665.205	5180.17
665.397	4928.27
665.588	5057.29
665.78	5016.33
665.971	4930.31
666.163	4975.37
666.354	4827.92
666.546	4844.3
666.737	4731.66
666.929	4844.3
667.12	4877.07
667.311	4809.48
667.503	4735.76
667.694	4815.63
667.885	4670.22
668.077	4584.21
668.268	4705.04
668.459	4709.13
668.651	4606.74
668.842	4651.79
669.033	4686.61
669.224	4666.13
669.416	4467.47
669.607	4649.74
669.798	4424.47
669.989	4524.82
670.18	4596.5
670.371	4500.24
670.563	4387.6
670.754	4375.31
670.945	4430.61
671.136	4440.85
671.327	4320.02
671.518	4264.72
671.709	4322.07
671.9	4348.69
672.091	4354.83
672.282	4295.44
672.473	4229.91
672.664	4209.43
672.855	4320.02
673.046	4307.73
673.237	4203.29
673.428	4188.95
673.619	4262.68
673.809	4170.52
674	4315.92
674.191	4107.03
674.382	4182.81
674.573	4072.22
674.764	4205.33
674.954	4037.4
675.145	4172.57
675.336	4119.32
675.527	3982.1
675.717	4033.3
675.908	4002.58
676.099	4049.69
676.289	4004.63
676.48	3889.95
676.671	4129.56
676.861	3990.3
677.052	4016.92
677.243	3994.39
677.433	4004.63
677.624	4041.5
677.814	3945.24
678.005	3851.03
678.195	3889.95
678.386	3883.8
678.576	3840.79
678.767	3859.23
678.957	3848.99
679.148	3836.7
679.338	3986.2
679.529	3805.98
679.719	3834.65
679.909	3986.2
680.1	3851.03
680.29	3799.84
680.481	3869.47
680.671	3773.21
680.861	3742.49
681.052	3779.36
681.242	3851.03
681.432	3867.42
681.622	3853.08
681.813	3791.64
682.003	3726.11
682.193	3676.96
682.383	3793.69
682.573	3748.64
682.764	3738.4
682.954	3603.23
683.144	3799.84
683.334	3738.4
683.524	3701.53
683.714	3928.86
683.904	3662.62
684.094	3613.47
684.284	3722.01
684.474	3672.86
684.664	3595.04
684.854	3586.85
685.044	3595.04
685.234	3502.88
685.424	3588.89
685.614	3586.85
685.804	3611.42
685.994	3552.03
686.184	3549.98
686.374	3511.07
686.564	3498.78
686.753	3582.75
686.943	3402.53
687.133	3463.97
687.323	3306.27
687.513	3492.64
687.702	3437.34
687.892	3433.25
688.082	3339.04
688.272	3410.72
688.461	3345.19
688.651	3414.82
688.841	3281.7
689.03	3330.85
689.22	3363.62
689.41	3341.09
689.599	3304.23
689.789	3257.12
689.979	3255.08
690.168	3285.8
690.358	3367.71
690.547	3152.68
690.737	3185.44
690.926	3257.12
691.116	3162.92
691.305	3156.77
691.495	3115.81
691.684	3126.05
691.874	3128.1
692.063	3158.82
692.252	3097.38
692.442	3089.19
692.631	3066.66
692.82	3142.44
693.01	3007.27
693.199	3128.1
693.388	2898.73
693.578	3078.95
693.767	2972.46
693.956	2906.92
694.146	3081
694.335	2984.74
694.524	2831.15
694.713	2984.74
694.902	2917.16
695.092	3001.13
695.281	2954.02
695.47	2859.82
695.659	2855.72
695.848	2841.39
696.037	2833.19
696.226	2853.67
696.415	2855.72
696.604	2857.77
696.793	2880.3
696.982	2929.45
697.171	2827.05
697.36	2880.3
697.549	2851.63
697.738	2827.05
697.927	2849.58
698.116	2868.01
698.305	2784.04
698.494	2790.19
698.683	2822.95
698.872	2818.86
699.061	2769.71
699.25	2683.69
699.438	2812.71
699.627	2868.01
699.816	2894.63
700.005	2759.47
700.193	2792.23
700.382	2695.98
700.571	2749.23
700.76	2700.08
700.948	2827.05
701.137	2794.28
701.326	2691.88
701.514	2802.47
701.703	2767.66
701.892	2779.95
702.08	2802.47
702.269	2655.02
702.457	2704.17
702.646	2745.13
702.834	2710.32
703.023	2726.7
703.212	2872.11
703.4	2765.61
703.589	2634.54
703.777	2695.98
703.965	2749.23
704.154	2730.8
704.342	2753.32
704.531	2695.98
704.719	2722.6
704.907	2710.32
705.096	2626.35
705.284	2636.59
705.472	2734.89
705.661	2640.69
705.849	2718.51
706.037	2767.66
706.226	2616.11
706.414	2585.39
706.602	2714.41
706.79	2779.95
706.979	2640.69
707.167	2747.18
707.355	2804.52
707.543	2593.58
707.731	2636.59
707.919	2698.03
708.107	2652.97
708.296	2706.22
708.484	2573.1
708.672	2728.75
708.86	2695.98
709.048	2724.65
709.236	2607.92
709.424	2673.45
709.612	2722.6
709.8	2689.84
709.988	2661.16
710.176	2683.69
710.364	2698.03
710.551	2642.73
710.739	2698.03
710.927	2661.16
711.115	2738.99
711.303	2726.7
711.491	2706.22
711.679	2722.6
711.866	2839.34
712.054	2706.22
712.242	2665.26
712.43	2724.65
712.617	2655.02
712.805	2589.49
712.993	2695.98
713.181	2779.95
713.368	2646.83
713.556	2581.29
713.744	2691.88
713.931	2765.61
714.119	2603.82
714.306	2833.19
714.494	2810.67
714.682	2802.47
714.869	2718.51
715.057	2722.6
715.244	2685.74
715.432	2722.6
715.619	2738.99
715.807	2710.32
715.994	2685.74
716.182	2667.31
716.369	2865.96
716.556	2781.99
716.744	2781.99
716.931	2683.69
717.119	2753.32
717.306	2757.42
717.493	2718.51
717.681	2804.52
717.868	2708.27
718.055	2689.84
718.242	2702.12
718.43	2689.84
718.617	2734.89
718.804	2794.28
718.991	2861.87
719.179	2804.52
719.366	2777.9
719.553	2681.64
719.74	2845.48
719.927	2796.33
720.114	2720.56
720.301	2761.52
720.488	2796.33
720.676	2749.23
720.863	2759.47
721.05	2734.89
721.237	2755.37
721.424	2736.94
721.611	2751.28
721.798	2687.79
721.985	2726.7
722.172	2890.54
722.358	2712.36
722.545	2612.01
722.732	2724.65
722.919	2683.69
723.106	2755.37
723.293	2718.51
723.48	2781.99
723.667	2765.61
723.853	2790.19
724.04	2833.19
724.227	2829.1
724.414	2767.66
724.6	2794.28
724.787	2853.67
724.974	2767.66
725.161	2706.22
725.347	2788.14
725.534	2689.84
725.72	2808.62
725.907	2685.74
726.094	2759.47
726.28	2626.35
726.467	2825
726.653	2749.23
726.84	2810.67
727.027	2933.54
727.213	2773.8
727.4	2767.66
727.586	2781.99
727.773	2863.91
727.959	2636.59
728.145	2878.25
728.332	2755.37
728.518	2769.71
728.705	2865.96
728.891	2667.31
729.077	2671.4
729.264	2773.8
729.45	2810.67
729.636	2839.34
729.823	2777.9
730.009	2808.62
730.195	2874.15
730.382	2738.99
730.568	2788.14
730.754	2917.16
730.94	2765.61
731.126	2929.45
731.313	2831.15
731.499	2829.1
731.685	2687.79
731.871	2743.08
732.057	2704.17
732.243	2683.69
732.429	2745.13
732.615	2700.08
732.801	2761.52
732.987	2657.07
733.173	2638.64
733.359	2773.8
733.545	2777.9
733.731	2743.08
733.917	2753.32
734.103	2804.52
734.289	2853.67
734.475	2689.84
734.661	2741.04
734.847	2884.39
735.033	2765.61
735.219	2751.28
735.404	2730.8
735.59	2695.98
735.776	2706.22
735.962	2816.81
736.148	2624.3
736.333	2771.76
736.519	2671.4
736.705	2620.21
736.89	2644.78
737.076	2810.67
737.262	2652.97
737.447	2706.22
737.633	2566.96
737.819	2743.08
738.004	2671.4
738.19	2677.55
738.375	2745.13
738.561	2620.21
738.747	2661.16
738.932	2724.65
739.118	2673.45
739.303	2650.92
739.489	2669.36
739.674	2513.71
739.859	2575.15
740.045	2640.69
740.23	2489.14
740.416	2523.95
740.601	2609.97
740.786	2564.91
740.972	2560.81
741.157	2648.88
741.342	2530.09
741.528	2526
741.713	2556.72
741.898	2474.8
742.084	2589.49
742.269	2558.77
742.454	2554.67
742.639	2493.23
742.824	2503.47
743.01	2652.97
743.195	2439.98
743.38	2532.14
743.565	2542.38
743.75	2482.99
743.935	2431.79
744.12	2542.38
744.305	2439.98
744.49	2415.41
744.675	2360.11
744.86	2353.97
745.045	2356.02
745.23	2366.26
745.415	2310.96
745.6	2374.45
745.785	2368.31
745.97	2339.63
746.155	2315.06
746.34	2321.2
746.525	2302.77
746.71	2216.76
746.895	2286.39
747.079	2237.24
747.264	2157.36
747.449	2267.95
747.634	2108.21
747.819	2138.93
748.003	2159.41
748.188	2183.99
748.373	2143.03
748.557	2102.07
748.742	2188.08
748.927	2071.35
749.111	2054.97
749.296	2173.75
749.481	2046.77
749.665	2145.08
749.85	1975.1
750.034	1997.62
750.219	2085.69
750.404	1991.48
750.588	2003.77
750.773	2032.44
750.957	1954.62
751.141	1977.14
751.326	1887.03
751.51	1895.22
751.695	1858.36
751.879	1829.69
752.064	1903.42
752.248	1934.14
752.432	1805.11
752.617	1854.27
752.801	1913.66
752.985	1827.64
753.17	1848.12
753.354	1860.41
753.538	1889.08
753.722	1856.31
753.907	1745.72
754.091	1815.35
754.275	1694.52
754.459	1618.75
754.643	1725.24
754.828	1712.96
755.012	1594.17
755.196	1702.72
755.38	1628.99
755.564	1635.13
755.748	1635.13
755.932	1628.99
756.116	1698.62
756.3	1592.13
756.484	1665.85
756.668	1721.15
756.852	1606.46
757.036	1608.51
757.22	1528.64
757.404	1561.41
757.588	1547.07
757.772	1469.25
757.956	1434.43
758.14	1504.06
758.323	1534.78
758.507	1522.49
758.691	1407.81
758.875	1577.79
759.059	1416
759.242	1444.67
759.426	1434.43
759.61	1368.9
759.794	1389.38
759.977	1459.01
760.161	1452.86
760.345	1428.29
760.528	1377.09
760.712	1286.98
760.895	1348.42
761.079	1250.11
761.263	1321.79
761.446	1368.9
761.63	1323.84
761.813	1299.27
761.997	1172.29
762.18	1272.64
762.364	1274.69
762.547	1282.88
762.731	1354.56
762.914	1114.95
763.098	1274.69
763.281	1227.59
763.464	1286.98
763.648	1160
763.831	1289.03
764.015	1194.82
764.198	1321.79
764.381	1166.15
764.564	1231.68
764.748	1248.07
764.931	1248.07
765.114	1127.24
765.297	1170.24
765.481	1143.62
765.664	1196.87
765.847	1200.96
766.03	1133.38
766.213	1198.92
766.397	1207.11
766.58	1125.19
766.763	1139.52
766.946	1129.28
767.129	1151.81
767.312	1170.24
767.495	1135.43
767.678	1106.76
767.861	1006.41
768.044	1125.19
768.227	1057.61
768.41	1080.13
768.593	1172.29
768.776	1121.09
768.959	1055.56
769.142	1246.02
769.324	1022.79
769.507	1055.56
769.69	996.17
769.873	1080.13
770.056	1180.48
770.239	985.93
770.421	1026.89
770.604	1022.79
770.787	904.01
770.97	1096.52
771.152	1090.37
771.335	1080.13
771.518	1069.89
771.7	1004.36
771.883	973.64
772.066	973.64
772.248	998.21
772.431	990.02
772.613	977.73
772.796	947.01
772.978	1022.79
773.161	899.91
773.343	944.97
773.526	944.97
773.708	994.12
773.891	838.47
774.073	981.83
774.256	879.43
774.438	887.62
774.621	936.78
774.803	850.76
774.985	805.71
775.168	904.01
775.35	908.1
775.532	869.19
775.715	842.57
775.897	826.18
776.079	854.86
776.261	822.09
776.444	842.57
776.626	836.42
776.808	785.23
776.99	817.99
777.173	858.95
777.355	826.18
777.537	826.18
777.719	783.18
777.901	715.59
778.083	824.14
778.265	693.07
778.447	731.98
778.629	715.59
778.811	756.55
778.993	863.05
779.175	766.79
779.357	764.75
779.539	705.35
779.721	787.27
779.903	648.01
780.085	703.31
780.267	744.27
780.449	789.32
780.631	699.21
780.812	719.69
780.994	555.85
781.176	678.73
781.358	629.58
781.54	691.02
781.721	719.69
781.903	740.17
782.085	623.44
782.267	674.64
782.448	596.81
782.63	621.39
782.812	566.09
782.993	648.01
783.175	566.09
783.357	537.42
783.538	609.1
783.72	592.72
783.901	502.61
784.083	611.15
784.264	543.57
784.446	582.48
784.627	584.52
784.809	523.09
784.99	564.04
785.172	578.38
785.353	582.48
785.535	449.36
785.716	537.42
785.897	463.69
786.079	480.08
786.26	496.46
786.441	541.52
786.623	422.73
786.804	512.85
786.985	516.94
787.167	510.8
787.348	447.31
787.529	463.69
787.71	596.81
787.891	531.28
788.073	486.22
788.254	529.23
788.435	514.89
788.616	447.31
788.797	488.27
788.978	494.41
789.159	451.41
789.34	447.31
789.522	484.17
789.703	361.3
789.884	527.18
790.065	482.13
790.246	473.93
790.427	463.69
790.607	430.93
790.788	439.12
790.969	367.44
791.15	521.04
791.331	353.1
791.512	385.87
791.693	322.38
791.874	441.17
792.054	414.54
792.235	383.82
792.416	422.73
792.597	285.52
792.778	461.65
792.958	371.54
793.139	322.38
793.32	353.1
793.5	355.15
793.681	418.64
793.862	375.63
794.042	398.16
794.223	385.87
794.404	324.43
794.584	332.62
794.765	428.88
794.945	365.39
795.126	260.95
795.306	355.15
795.487	303.95
795.667	312.14
795.848	379.73
796.028	330.58
796.209	299.86
796.389	342.86
796.57	338.77
796.75	379.73
796.93	330.58
797.111	262.99
797.291	314.19
797.471	344.91
797.652	236.37
797.832	359.25
798.012	381.78
798.192	262.99
798.373	256.85
798.553	332.62
798.733	359.25
798.913	258.9
799.093	279.38
799.274	306
799.454	260.95
799.634	295.76
799.814	316.24
799.994	256.85
800.174	334.67
800.354	301.9
800.534	230.23
800.714	332.62
800.894	256.85
801.074	299.86
801.254	283.47
801.434	303.95
801.614	289.62
801.794	262.99
801.974	645.96
802.154	289.62
802.334	330.58
802.514	230.23
802.693	265.04
802.873	203.6
803.053	271.19
803.233	281.43
803.413	279.38
803.592	201.55
803.772	246.61
803.952	256.85
804.131	289.62
804.311	295.76
804.491	273.23
804.67	228.18
804.85	213.84
805.03	314.19
805.209	224.08
805.389	252.75
805.568	279.38
805.748	176.98
805.928	252.75
806.107	250.71
806.287	236.37
806.466	242.51
806.646	271.19
806.825	125.78
807.004	224.08
807.184	170.83
807.363	189.27
807.543	205.65
807.722	197.46
807.901	146.26
808.081	254.8
808.26	222.03
808.439	150.36
808.619	113.49
808.798	240.47
808.977	207.7
809.156	234.32
809.336	217.94
809.515	303.95
809.694	152.4
809.873	185.17
810.052	197.46
810.231	197.46
810.411	234.32
810.59	244.56
810.769	226.13
810.948	185.17
811.127	230.23
811.306	236.37
811.485	183.12
811.664	254.8
811.843	146.26
812.022	217.94
812.201	123.73
812.38	224.08
812.559	47.96
812.737	125.78
812.916	273.23
813.095	158.55
813.274	189.27
813.453	144.21
813.632	219.99
813.811	133.97
813.989	84.82
814.168	183.12
814.347	232.27
814.526	191.31
814.704	219.99
814.883	293.71
815.062	228.18
815.24	265.04
815.419	224.08
815.598	191.31
815.776	127.83
815.955	230.23
816.133	154.45
816.312	117.59
816.49	174.93
816.669	150.36
816.847	82.77
817.026	191.31
817.204	109.4
817.383	207.7
817.561	176.98
817.74	152.4
817.918	115.54
818.097	113.49
818.275	121.68
818.453	228.18
818.632	129.88
818.81	115.54
818.988	90.96
819.167	136.02
819.345	150.36
819.523	76.63
819.701	115.54
819.879	129.88
820.058	146.26
820.236	127.83
820.414	50
820.592	234.32
820.77	66.39
820.948	101.2
821.127	64.34
821.305	142.16
821.483	154.45
821.661	162.64
821.839	154.45
822.017	127.83
822.195	111.44
822.373	170.83
822.551	68.44
822.729	168.79
822.907	52.05
823.085	136.02
823.262	142.16
823.44	133.97
823.618	127.83
823.796	148.31
823.974	54.1
824.152	93.01
824.329	164.69
824.507	115.54
824.685	80.72
824.863	90.96
825.04	107.35
825.218	123.73
825.396	101.2
825.574	105.3
825.751	99.16
825.929	158.55
826.107	54.1
826.284	123.73
826.462	142.16
826.639	109.4
826.817	80.72
826.994	78.68
827.172	66.39
827.349	125.78
827.527	121.68
827.704	162.64
827.882	43.86
828.059	93.01
828.237	54.1
828.414	90.96
828.591	80.72
828.769	115.54
828.946	129.88
829.124	156.5
829.301	50
829.478	62.29
829.655	90.96
829.833	93.01
830.01	33.62
830.187	99.16
830.364	64.34
830.542	103.25
830.719	150.36
830.896	56.15
831.073	88.92
831.25	103.25
831.427	138.07
831.604	142.16
831.782	107.35
831.959	179.03
832.136	0.85
832.313	146.26
832.49	84.82
832.667	150.36
832.844	27.48
833.021	127.83
833.198	109.4
833.374	29.52
833.551	138.07
833.728	84.82
833.905	78.68
834.082	60.24
834.259	123.73
834.436	142.16
834.612	119.64
834.789	60.24
834.966	60.24
835.143	103.25
835.319	33.62
835.496	121.68
835.673	115.54
835.85	138.07
836.026	43.86
836.203	47.96
836.38	62.29
836.556	80.72
836.733	39.76
836.909	66.39
837.086	78.68
837.262	35.67
837.439	90.96
837.616	31.57
837.792	95.06
837.968	103.25
838.145	60.24
838.321	47.96
838.498	107.35
838.674	109.4
838.851	80.72
839.027	148.31
839.203	64.34
839.38	70.48
839.556	25.43
839.732	117.59
839.909	84.82
840.085	142.16
840.261	29.52
840.437	50
840.614	86.87
840.79	84.82
840.966	43.86
841.142	25.43
841.318	76.63
841.494	33.62
841.671	41.81
841.847	88.92
842.023	64.34
842.199	56.15
842.375	99.16
842.551	31.57
842.727	70.48
842.903	86.87
843.079	52.05
843.255	35.67
843.431	52.05
843.607	35.67
843.783	47.96
843.959	41.81
844.134	105.3
844.31	156.5
844.486	-3.24
844.662	31.57
844.838	13.14
845.013	74.58
845.189	50
845.365	93.01
845.541	27.48
845.716	9.05
845.892	127.83
846.068	82.77
846.244	84.82
846.419	84.82
846.595	-17.58
846.77	95.06
846.946	72.53
847.122	9.05
847.297	21.33
847.473	56.15
847.648	86.87
847.824	50
847.999	39.76
848.175	99.16
848.35	72.53
848.526	99.16
848.701	31.57
848.876	0.85
849.052	60.24
849.227	-3.24
849.403	39.76
849.578	72.53
849.753	19.29
849.929	35.67
850.104	43.86
850.279	9.05
850.454	13.14
850.63	103.25
850.805	-17.58
850.98	25.43
851.155	78.68
851.33	64.34
851.505	25.43
851.681	52.05
851.856	29.52
852.031	109.4
852.206	-11.43
852.381	25.43
852.556	45.91
852.731	52.05
852.906	99.16
853.081	39.76
853.256	35.67
853.431	88.92
853.606	74.58
853.781	41.81
853.956	-17.58
854.131	-23.72
854.305	-11.43
854.48	-23.72
854.655	-46.25
854.83	21.33
855.005	-13.48
855.18	2.9
855.354	-33.96
855.529	148.31
855.704	68.44
855.879	35.67
856.053	9.05
856.228	70.48
856.403	-33.96
856.577	84.82
856.752	37.72
856.926	68.44
857.101	-50.35
857.276	-7.34
857.45	68.44
857.625	76.63
857.799	31.57
857.974	25.43
858.148	-13.48
858.323	-1.19
858.497	39.76
858.672	39.76
858.846	25.43
859.02	23.38
859.195	17.24
859.369	56.15
859.543	60.24
859.718	-25.77
859.892	148.31
860.066	-11.43
860.241	123.73
860.415	86.87
860.589	76.63
860.763	21.33
860.938	-5.29
861.112	62.29
861.286	41.81
861.46	-5.29
861.634	35.67
861.808	37.72
861.982	-54.44
862.157	29.52
862.331	-33.96
862.505	13.14
862.679	-46.25
862.853	52.05
863.027	-3.24
863.201	109.4
863.375	-13.48
863.549	70.48
863.722	76.63
863.896	62.29
864.07	66.39
864.244	72.53
864.418	-56.49
864.592	41.81
864.766	64.34
864.939	-54.44
865.113	27.48
865.287	19.29
865.461	47.96
865.634	-17.58
865.808	-48.3
865.982	35.67
866.156	78.68
866.329	-23.72
866.503	37.72
866.676	88.92
866.85	-3.24
867.024	29.52
867.197	62.29
867.371	60.24
867.544	39.76
867.718	-40.11
867.891	7
868.065	70.48
868.238	29.52
868.412	-9.39
868.585	105.3
868.759	-7.34
868.932	13.14
869.105	-27.82
869.279	11.09
869.452	-31.91
869.625	-9.39
869.799	27.48
869.972	-9.39
870.145	-17.58
870.319	-5.29
870.492	15.19
870.665	11.09
870.838	41.81
871.011	-42.15
871.185	52.05
871.358	121.68
871.531	0.85
871.704	-25.77
871.877	-48.3
872.05	35.67
872.223	31.57
872.396	-13.48
872.569	64.34
872.742	-48.3
872.915	-25.77
873.088	103.25
873.261	41.81
873.434	11.09
873.607	-21.67
873.78	56.15
873.953	-17.58
874.126	-46.25
874.299	99.16
874.471	-29.87
874.644	7
874.817	-31.91
874.99	-36.01
875.163	-7.34
875.335	7
875.508	11.09
875.681	31.57
875.853	2.9
876.026	68.44
876.199	25.43
876.371	4.95
876.544	58.2
876.717	37.72
876.889	7
877.062	37.72
877.234	-17.58
877.407	39.76
877.579	27.48
877.752	33.62
877.924	-3.24
878.097	33.62
878.269	15.19
878.442	-13.48
878.614	-38.06
878.786	72.53
878.959	43.86
879.131	52.05
879.303	47.96
879.476	2.9
879.648	2.9
879.82	29.52
879.993	-31.91
880.165	52.05
880.337	-91.31
880.509	50
880.681	35.67
880.854	-3.24
881.026	60.24
881.198	80.72
881.37	62.29
881.542	23.38
881.714	15.19
881.886	15.19
882.058	21.33
882.23	50
882.402	11.09
882.574	29.52
882.746	17.24
882.918	-7.34
883.09	54.1
883.262	-38.06
883.434	-11.43
883.606	-85.16
883.778	39.76
883.95	80.72
884.122	-31.91
884.293	47.96
884.465	39.76
884.637	-11.43
884.809	33.62
884.98	45.91
885.152	-56.49
885.324	25.43
885.496	-36.01
885.667	-3.24
885.839	-68.78
886.011	-27.82
886.182	15.19
886.354	37.72
886.525	25.43
886.697	27.48
886.869	-3.24
887.04	-44.2
887.212	41.81
887.383	41.81
887.555	15.19
887.726	31.57
887.897	-17.58
888.069	41.81
888.24	39.76
888.412	39.76
888.583	-79.02
888.754	19.29
888.926	-42.15
889.097	-15.53
889.268	-21.67
889.44	56.15
889.611	-27.82
889.782	-31.91
889.953	-38.06
890.125	58.2
890.296	-44.2
890.467	-23.72
890.638	-52.39
890.809	11.09
890.98	43.86
891.151	11.09
891.323	4.95
891.494	11.09
891.665	-27.82
891.836	-21.67
892.007	-17.58
892.178	-3.24
892.349	0.85
892.52	35.67
892.691	7
892.862	-5.29
893.032	-25.77
893.203	-7.34
893.374	-9.39
893.545	4.95
893.716	58.2
893.887	-29.87
894.057	31.57
894.228	31.57
894.399	11.09
894.57	-9.39
894.74	0.85
894.911	-64.68
895.082	-33.96
895.253	-1.19
895.423	-31.91
895.594	-31.91
895.764	64.34
895.935	-38.06
896.106	17.24
896.276	11.09
896.447	-21.67
896.617	-19.63
896.788	-91.31
896.958	-27.82
897.129	35.67
897.299	-36.01
897.47	25.43
897.64	39.76
897.81	29.52
897.981	-7.34
898.151	2.9
898.322	2.9
898.492	11.09
898.662	35.67
898.832	-9.39
899.003	37.72
899.173	29.52
899.343	-38.06
899.513	-29.87
