Data from USB4F104151__52__11-51-59-845.txt Node

Date: Fri Mar 14 11:51:59 EDT 2025
User: louis
Spectrometer: USB4F10415
Trigger mode: 4
Integration Time (sec): 2.000000E-2
Scans to average: 1
Electric dark correction enabled: true
Nonlinearity correction enabled: false
Boxcar width: 0
XAxis mode: Wavelengths
Number of Pixels in Spectrum: 3648
>>>>>Begin Spectral Data<<<<<
178.204	-101.03
178.424	-101.03
178.644	-101.03
178.864	-133.8
179.084	-74.41
179.304	-4.78
179.524	-10.92
179.744	11.61
179.964	23.89
180.184	-17.07
180.404	52.56
180.624	-27.31
180.844	23.89
181.064	-12.97
181.283	-12.97
181.503	-10.92
181.723	-15.02
181.943	-45.74
182.163	105.81
182.383	-45.74
182.602	11.61
182.822	27.99
183.042	15.7
183.262	83.28
183.482	58.71
183.701	23.89
183.921	23.89
184.141	7.51
184.361	60.76
184.58	9.56
184.8	52.56
185.02	-8.87
185.239	23.89
185.459	7.51
185.679	48.47
185.898	17.75
186.118	32.08
186.338	27.99
186.557	83.28
186.777	44.37
186.997	56.66
187.216	-15.02
187.436	7.51
187.655	60.76
187.875	105.81
188.095	-29.35
188.314	122.2
188.534	25.94
188.753	-23.21
188.973	1.37
189.192	50.52
189.412	17.75
189.631	-64.17
189.851	42.32
190.07	120.15
190.29	3.41
190.509	40.28
190.729	-53.93
190.948	50.52
191.168	62.8
191.387	19.8
191.607	-43.69
191.826	1.37
192.045	36.18
192.265	17.75
192.484	34.13
192.704	23.89
192.923	46.42
193.142	95.57
193.362	-10.92
193.581	68.95
193.8	103.76
194.02	27.99
194.239	23.89
194.458	71
194.678	11.61
194.897	89.43
195.116	23.89
195.335	46.42
195.555	25.94
195.774	1.37
195.993	9.56
196.212	71
196.432	7.51
196.651	111.96
196.87	32.08
197.089	73.04
197.308	9.56
197.528	52.56
197.747	50.52
197.966	1.37
198.185	89.43
198.404	21.85
198.623	-12.97
198.842	66.9
199.062	-6.83
199.281	-31.4
199.5	-92.84
199.719	40.28
199.938	7.51
200.157	-41.64
200.376	85.33
200.595	44.37
200.814	68.95
201.033	50.52
201.252	126.29
201.471	-0.68
201.69	89.43
201.909	68.95
202.128	5.46
202.347	75.09
202.566	42.32
202.785	27.99
203.004	-55.98
203.223	34.13
203.442	23.89
203.661	34.13
203.879	1.37
204.098	60.76
204.317	23.89
204.536	77.14
204.755	52.56
204.974	13.65
205.193	58.71
205.411	101.72
205.63	56.66
205.849	44.37
206.068	-0.68
206.287	-25.26
206.505	21.85
206.724	9.56
206.943	13.65
207.162	-0.68
207.381	21.85
207.599	48.47
207.818	56.66
208.037	3.41
208.255	-33.45
208.474	46.42
208.693	-33.45
208.911	5.46
209.13	-19.11
209.349	56.66
209.567	-29.35
209.786	40.28
210.005	-6.83
210.223	15.7
210.442	27.99
210.661	-21.16
210.879	56.66
211.098	30.04
211.316	-19.11
211.535	56.66
211.753	40.28
211.972	91.48
212.191	-2.73
212.409	-6.83
212.628	73.04
212.846	46.42
213.065	13.65
213.283	95.57
213.502	-35.5
213.72	-58.03
213.938	19.8
214.157	-53.93
214.375	38.23
214.594	60.76
214.812	3.41
215.031	81.24
215.249	27.99
215.467	17.75
215.686	46.42
215.904	73.04
216.122	1.37
216.341	25.94
216.559	97.62
216.778	38.23
216.996	17.75
217.214	38.23
217.432	19.8
217.651	-37.55
217.869	-2.73
218.087	81.24
218.306	-21.16
218.524	52.56
218.742	34.13
218.96	-29.35
219.179	46.42
219.397	36.18
219.615	60.76
219.833	62.8
220.051	-0.68
220.27	83.28
220.488	13.65
220.706	64.85
220.924	9.56
221.142	7.51
221.36	34.13
221.578	56.66
221.796	-4.78
222.015	89.43
222.233	62.8
222.451	107.86
222.669	9.56
222.887	9.56
223.105	30.04
223.323	21.85
223.541	25.94
223.759	25.94
223.977	50.52
224.195	75.09
224.413	42.32
224.631	-0.68
224.849	114
225.067	52.56
225.285	-37.55
225.503	54.61
225.721	3.41
225.939	38.23
226.157	-0.68
226.375	134.48
226.592	58.71
226.81	52.56
227.028	50.52
227.246	95.57
227.464	3.41
227.682	87.38
227.9	15.7
228.117	-2.73
228.335	48.47
228.553	38.23
228.771	50.52
228.989	44.37
229.206	23.89
229.424	-29.35
229.642	5.46
229.86	13.65
230.077	36.18
230.295	46.42
230.513	62.8
230.731	146.77
230.948	-33.45
231.166	-25.26
231.384	-2.73
231.601	15.7
231.819	48.47
232.037	27.99
232.254	-35.5
232.472	40.28
232.689	13.65
232.907	87.38
233.125	48.47
233.342	56.66
233.56	52.56
233.777	50.52
233.995	73.04
234.213	64.85
234.43	25.94
234.648	42.32
234.865	23.89
235.083	77.14
235.3	3.41
235.518	-25.26
235.735	52.56
235.953	71
236.17	15.7
236.388	62.8
236.605	19.8
236.822	48.47
237.04	44.37
237.257	46.42
237.475	1.37
237.692	64.85
237.909	32.08
238.127	25.94
238.344	42.32
238.562	73.04
238.779	-4.78
238.996	-35.5
239.214	44.37
239.431	-2.73
239.648	42.32
239.865	23.89
240.083	-10.92
240.3	-19.11
240.517	64.85
240.735	7.51
240.952	23.89
241.169	54.61
241.386	19.8
241.603	-6.83
241.821	17.75
242.038	48.47
242.255	-4.78
242.472	-15.02
242.689	50.52
242.907	32.08
243.124	-15.02
243.341	-19.11
243.558	9.56
243.775	54.61
243.992	-17.07
244.209	36.18
244.426	-8.87
244.643	-10.92
244.86	32.08
245.078	89.43
245.295	71
245.512	66.9
245.729	-15.02
245.946	-0.68
246.163	62.8
246.38	34.13
246.597	-19.11
246.814	38.23
247.031	-60.07
247.248	-10.92
247.464	25.94
247.681	42.32
247.898	52.56
248.115	77.14
248.332	-27.31
248.549	11.61
248.766	-17.07
248.983	62.8
249.2	27.99
249.417	11.61
249.633	-8.87
249.85	17.75
250.067	11.61
250.284	36.18
250.501	7.51
250.717	52.56
250.934	36.18
251.151	27.99
251.368	32.08
251.585	64.85
251.801	-66.22
252.018	9.56
252.235	11.61
252.451	15.7
252.668	3.41
252.885	15.7
253.102	71
253.318	9.56
253.535	32.08
253.752	-2.73
253.968	40.28
254.185	27.99
254.401	32.08
254.618	114
254.835	-12.97
255.051	42.32
255.268	42.32
255.484	44.37
255.701	50.52
255.917	23.89
256.134	48.47
256.351	44.37
256.567	-74.41
256.784	19.8
257	21.85
257.217	17.75
257.433	-6.83
257.65	25.94
257.866	64.85
258.082	-45.74
258.299	60.76
258.515	64.85
258.732	19.8
258.948	1.37
259.165	42.32
259.381	17.75
259.597	21.85
259.814	58.71
260.03	17.75
260.246	36.18
260.463	42.32
260.679	71
260.895	13.65
261.112	73.04
261.328	13.65
261.544	60.76
261.761	114
261.977	-4.78
262.193	60.76
262.409	-10.92
262.626	97.62
262.842	3.41
263.058	11.61
263.274	19.8
263.49	73.04
263.707	27.99
263.923	38.23
264.139	-47.79
264.355	66.9
264.571	11.61
264.787	21.85
265.004	56.66
265.22	46.42
265.436	7.51
265.652	-23.21
265.868	36.18
266.084	-39.59
266.3	1.37
266.516	15.7
266.732	13.65
266.948	40.28
267.164	17.75
267.38	9.56
267.596	30.04
267.812	23.89
268.028	42.32
268.244	5.46
268.46	19.8
268.676	3.41
268.892	-12.97
269.108	25.94
269.324	23.89
269.54	-41.64
269.756	11.61
269.972	44.37
270.188	23.89
270.403	11.61
270.619	13.65
270.835	19.8
271.051	23.89
271.267	-39.59
271.483	11.61
271.698	68.95
271.914	87.38
272.13	7.51
272.346	27.99
272.562	62.8
272.777	-23.21
272.993	3.41
273.209	81.24
273.425	60.76
273.64	34.13
273.856	75.09
274.072	34.13
274.287	36.18
274.503	64.85
274.719	44.37
274.934	-6.83
275.15	38.23
275.366	91.48
275.581	17.75
275.797	-12.97
276.012	38.23
276.228	21.85
276.444	25.94
276.659	46.42
276.875	89.43
277.09	60.76
277.306	64.85
277.521	103.76
277.737	50.52
277.952	-2.73
278.168	15.7
278.383	42.32
278.599	7.51
278.814	83.28
279.03	42.32
279.245	75.09
279.461	48.47
279.676	27.99
279.892	34.13
280.107	46.42
280.322	40.28
280.538	36.18
280.753	40.28
280.969	77.14
281.184	-0.68
281.399	50.52
281.615	46.42
281.83	34.13
282.045	23.89
282.26	23.89
282.476	34.13
282.691	109.91
282.906	48.47
283.122	99.67
283.337	-25.26
283.552	48.47
283.767	9.56
283.983	64.85
284.198	73.04
284.413	30.04
284.628	-2.73
284.843	114
285.058	38.23
285.274	9.56
285.489	50.52
285.704	23.89
285.919	50.52
286.134	42.32
286.349	46.42
286.564	-15.02
286.779	107.86
286.995	-39.59
287.21	60.76
287.425	89.43
287.64	34.13
287.855	91.48
288.07	17.75
288.285	109.91
288.5	38.23
288.715	36.18
288.93	-6.83
289.145	56.66
289.36	54.61
289.575	60.76
289.79	34.13
290.004	-10.92
290.219	-0.68
290.434	44.37
290.649	-76.46
290.864	-21.16
291.079	15.7
291.294	-17.07
291.509	73.04
291.724	36.18
291.938	-33.45
292.153	13.65
292.368	-15.02
292.583	101.72
292.798	19.8
293.012	7.51
293.227	64.85
293.442	-2.73
293.657	21.85
293.871	71
294.086	122.2
294.301	36.18
294.516	46.42
294.73	54.61
294.945	19.8
295.16	50.52
295.374	-6.83
295.589	52.56
295.804	83.28
296.018	34.13
296.233	79.19
296.447	9.56
296.662	36.18
296.877	23.89
297.091	32.08
297.306	5.46
297.52	60.76
297.735	66.9
297.949	81.24
298.164	-0.68
298.378	3.41
298.593	44.37
298.807	44.37
299.022	19.8
299.236	44.37
299.451	7.51
299.665	-6.83
299.88	85.33
300.094	-58.03
300.309	50.52
300.523	-4.78
300.737	66.9
300.952	87.38
301.166	9.56
301.381	32.08
301.595	-25.26
301.809	-10.92
302.024	-6.83
302.238	21.85
302.452	71
302.667	-29.35
302.881	46.42
303.095	13.65
303.309	25.94
303.524	-17.07
303.738	40.28
303.952	52.56
304.166	17.75
304.381	54.61
304.595	40.28
304.809	52.56
305.023	46.42
305.237	-41.64
305.452	19.8
305.666	30.04
305.88	58.71
306.094	107.86
306.308	5.46
306.522	75.09
306.736	32.08
306.95	93.52
307.164	71
307.379	52.56
307.593	13.65
307.807	64.85
308.021	81.24
308.235	85.33
308.449	99.67
308.663	9.56
308.877	114
309.091	34.13
309.305	81.24
309.519	19.8
309.733	23.89
309.947	79.19
310.161	34.13
310.374	40.28
310.588	40.28
310.802	-12.97
311.016	60.76
311.23	-0.68
311.444	36.18
311.658	56.66
311.872	62.8
312.085	9.56
312.299	114
312.513	7.51
312.727	44.37
312.941	25.94
313.154	-4.78
313.368	-29.35
313.582	-19.11
313.796	46.42
314.009	42.32
314.223	52.56
314.437	32.08
314.651	83.28
314.864	-35.5
315.078	-8.87
315.292	58.71
315.505	-8.87
315.719	52.56
315.933	64.85
316.146	38.23
316.36	62.8
316.573	122.2
316.787	66.9
317.001	48.47
317.214	-2.73
317.428	42.32
317.641	25.94
317.855	42.32
318.068	3.41
318.282	56.66
318.495	64.85
318.709	17.75
318.922	46.42
319.136	85.33
319.349	27.99
319.563	-17.07
319.776	9.56
319.99	46.42
320.203	30.04
320.417	71
320.63	48.47
320.843	48.47
321.057	95.57
321.27	58.71
321.483	1.37
321.697	83.28
321.91	17.75
322.124	81.24
322.337	48.47
322.55	40.28
322.763	-25.26
322.977	42.32
323.19	7.51
323.403	32.08
323.617	95.57
323.83	58.71
324.043	32.08
324.256	60.76
324.469	-0.68
324.683	77.14
324.896	30.04
325.109	130.39
325.322	-2.73
325.535	11.61
325.748	-0.68
325.962	-17.07
326.175	62.8
326.388	-2.73
326.601	79.19
326.814	44.37
327.027	9.56
327.24	66.9
327.453	-62.12
327.666	54.61
327.879	101.72
328.092	19.8
328.305	99.67
328.518	-43.69
328.731	46.42
328.944	124.24
329.157	17.75
329.37	77.14
329.583	27.99
329.796	50.52
330.009	-19.11
330.222	93.52
330.435	99.67
330.648	15.7
330.861	25.94
331.073	56.66
331.286	54.61
331.499	23.89
331.712	19.8
331.925	5.46
332.138	30.04
332.35	91.48
332.563	68.95
332.776	64.85
332.989	-6.83
333.202	-12.97
333.414	-23.21
333.627	85.33
333.84	42.32
334.053	68.95
334.265	21.85
334.478	13.65
334.691	25.94
334.903	50.52
335.116	1.37
335.329	81.24
335.541	-15.02
335.754	30.04
335.966	13.65
336.179	-21.16
336.392	17.75
336.604	-15.02
336.817	52.56
337.029	11.61
337.242	75.09
337.454	103.76
337.667	85.33
337.88	77.14
338.092	-19.11
338.305	42.32
338.517	19.8
338.729	52.56
338.942	1.37
339.154	19.8
339.367	62.8
339.579	66.9
339.792	68.95
340.004	77.14
340.217	42.32
340.429	11.61
340.641	11.61
340.854	73.04
341.066	3.41
341.278	62.8
341.491	58.71
341.703	66.9
341.915	1.37
342.128	56.66
342.34	-2.73
342.552	-45.74
342.764	44.37
342.977	36.18
343.189	79.19
343.401	54.61
343.613	68.95
343.826	71
344.038	-0.68
344.25	54.61
344.462	58.71
344.674	60.76
344.886	9.56
345.099	34.13
345.311	36.18
345.523	87.38
345.735	25.94
345.947	40.28
346.159	85.33
346.371	73.04
346.583	13.65
346.795	15.7
347.007	19.8
347.219	109.91
347.431	9.56
347.643	44.37
347.855	44.37
348.067	87.38
348.279	38.23
348.491	54.61
348.703	48.47
348.915	27.99
349.127	32.08
349.339	38.23
349.551	5.46
349.763	30.04
349.975	27.99
350.187	46.42
350.399	89.43
350.61	120.15
350.822	-19.11
351.034	107.86
351.246	23.89
351.458	83.28
351.669	13.65
351.881	62.8
352.093	15.7
352.305	60.76
352.517	-17.07
352.728	-19.11
352.94	19.8
353.152	93.52
353.363	118.1
353.575	83.28
353.787	44.37
353.999	73.04
354.21	89.43
354.422	23.89
354.633	103.76
354.845	-0.68
355.057	66.9
355.268	19.8
355.48	64.85
355.692	56.66
355.903	62.8
356.115	50.52
356.326	-41.64
356.538	60.76
356.749	50.52
356.961	79.19
357.172	48.47
357.384	-23.21
357.595	46.42
357.807	-2.73
358.018	36.18
358.23	48.47
358.441	68.95
358.653	71
358.864	85.33
359.075	56.66
359.287	38.23
359.498	56.66
359.709	-15.02
359.921	40.28
360.132	44.37
360.344	17.75
360.555	79.19
360.766	23.89
360.977	-0.68
361.189	68.95
361.4	40.28
361.611	30.04
361.823	118.1
362.034	75.09
362.245	85.33
362.456	62.8
362.667	-15.02
362.879	3.41
363.09	58.71
363.301	124.24
363.512	34.13
363.723	79.19
363.935	54.61
364.146	87.38
364.357	-2.73
364.568	19.8
364.779	13.65
364.99	42.32
365.201	-21.16
365.412	62.8
365.623	-43.69
365.834	44.37
366.045	25.94
366.256	66.9
366.467	5.46
366.678	40.28
366.889	50.52
367.1	25.94
367.311	77.14
367.522	54.61
367.733	66.9
367.944	1.37
368.155	13.65
368.366	15.7
368.577	19.8
368.788	62.8
368.999	85.33
369.209	54.61
369.42	179.54
369.631	62.8
369.842	-17.07
370.053	13.65
370.264	93.52
370.474	23.89
370.685	52.56
370.896	-12.97
371.107	44.37
371.317	83.28
371.528	52.56
371.739	-10.92
371.95	40.28
372.16	66.9
372.371	13.65
372.582	27.99
372.792	44.37
373.003	-17.07
373.214	60.76
373.424	-31.4
373.635	1.37
373.846	79.19
374.056	36.18
374.267	40.28
374.477	73.04
374.688	48.47
374.898	-0.68
375.109	9.56
375.319	44.37
375.53	71
375.74	21.85
375.951	-8.87
376.161	71
376.372	30.04
376.582	99.67
376.793	62.8
377.003	66.9
377.214	32.08
377.424	77.14
377.635	3.41
377.845	60.76
378.055	68.95
378.266	11.61
378.476	30.04
378.686	52.56
378.897	42.32
379.107	19.8
379.317	27.99
379.528	52.56
379.738	101.72
379.948	64.85
380.158	9.56
380.369	83.28
380.579	21.85
380.789	50.52
380.999	95.57
381.21	5.46
381.42	114
381.63	134.48
381.84	77.14
382.05	85.33
382.261	99.67
382.471	52.56
382.681	11.61
382.891	40.28
383.101	52.56
383.311	-15.02
383.521	44.37
383.731	52.56
383.941	52.56
384.151	48.47
384.361	-12.97
384.571	56.66
384.781	56.66
384.991	165.2
385.201	66.9
385.411	50.52
385.621	73.04
385.831	73.04
386.041	30.04
386.251	-10.92
386.461	87.38
386.671	77.14
386.881	60.76
387.091	-12.97
387.301	-15.02
387.511	118.1
387.72	44.37
387.93	83.28
388.14	81.24
388.35	34.13
388.56	5.46
388.769	60.76
388.979	73.04
389.189	5.46
389.399	58.71
389.609	62.8
389.818	50.52
390.028	116.05
390.238	116.05
390.447	-21.16
390.657	58.71
390.867	11.61
391.076	36.18
391.286	83.28
391.496	93.52
391.705	99.67
391.915	118.1
392.125	42.32
392.334	89.43
392.544	68.95
392.753	60.76
392.963	30.04
393.172	62.8
393.382	52.56
393.591	97.62
393.801	21.85
394.01	87.38
394.22	95.57
394.429	95.57
394.639	44.37
394.848	64.85
395.058	124.24
395.267	71
395.477	109.91
395.686	87.38
395.895	75.09
396.105	62.8
396.314	36.18
396.524	105.81
396.733	34.13
396.942	128.34
397.152	173.39
397.361	97.62
397.57	83.28
397.78	95.57
397.989	89.43
398.198	152.91
398.407	15.7
398.617	99.67
398.826	116.05
399.035	99.67
399.244	154.96
399.453	83.28
399.663	128.34
399.872	142.68
400.081	150.87
400.29	150.87
400.499	89.43
400.708	120.15
400.917	64.85
401.127	54.61
401.336	157.01
401.545	107.86
401.754	134.48
401.963	116.05
402.172	97.62
402.381	107.86
402.59	105.81
402.799	116.05
403.008	144.72
403.217	111.96
403.426	81.24
403.635	9.56
403.844	103.76
404.053	54.61
404.262	111.96
404.471	161.11
404.68	181.59
404.888	128.34
405.097	177.49
405.306	87.38
405.515	167.25
405.724	107.86
405.933	138.58
406.142	177.49
406.35	144.72
406.559	181.59
406.768	134.48
406.977	157.01
407.185	189.78
407.394	216.4
407.603	257.36
407.812	181.59
408.02	144.72
408.229	183.63
408.438	206.16
408.646	146.77
408.855	206.16
409.064	247.12
409.272	220.5
409.481	261.46
409.69	279.89
409.898	259.41
410.107	263.51
410.315	218.45
410.524	329.04
410.733	322.9
410.941	294.22
411.15	294.22
411.358	347.47
411.567	355.66
411.775	283.99
411.984	304.46
412.192	365.9
412.401	382.29
412.609	421.2
412.818	398.67
413.026	429.39
413.234	372.05
413.443	437.58
413.651	480.59
413.86	595.28
414.068	519.5
414.276	572.75
414.485	568.65
414.693	597.32
414.901	607.56
415.11	611.66
415.318	548.17
415.526	646.48
415.734	785.74
415.943	654.67
416.151	769.35
416.359	744.78
416.567	791.88
416.776	785.74
416.984	816.46
417.192	884.04
417.4	855.37
417.608	937.29
417.817	908.62
418.025	929.1
418.233	1054.02
418.441	1056.07
418.649	1054.02
418.857	1183.04
419.065	1193.28
419.273	1107.27
419.481	1164.61
419.689	1316.16
419.897	1373.5
420.105	1430.85
420.313	1436.99
420.521	1338.69
420.729	1445.18
420.937	1559.87
421.145	1547.58
421.353	1727.8
421.561	1770.81
421.769	1711.42
421.977	1815.87
422.185	1762.62
422.393	1955.13
422.601	1930.55
422.809	1905.98
423.017	2049.33
423.224	2170.16
423.432	2198.84
423.64	2202.93
423.848	2305.33
424.056	2327.86
424.263	2379.06
424.471	2436.4
424.679	2528.56
424.887	2725.16
425.094	2780.46
425.302	2688.3
425.51	2981.16
425.718	3046.69
425.925	2989.35
426.133	3179.81
426.341	3329.31
426.548	3556.64
426.756	3427.62
426.964	3677.47
427.171	3616.03
427.379	3802.4
427.586	3933.47
427.794	3886.36
428.001	4115.73
428.209	4453.65
428.417	4277.52
428.624	4508.94
428.832	4627.73
429.039	4644.11
429.247	4523.28
429.454	4975.88
429.662	5461.25
429.869	5082.38
430.076	5287.17
430.284	5299.46
430.491	5455.11
430.699	5811.45
430.906	5727.49
431.114	5801.21
431.321	5963
431.528	6300.92
431.736	6556.91
431.943	6817.01
432.15	6665.46
432.358	6669.55
432.565	7079.15
432.772	7111.91
432.979	7283.94
433.187	7580.9
433.394	7689.44
433.601	8035.55
433.808	8125.66
434.016	8185.05
434.223	8357.08
434.43	8922.32
434.637	8576.21
434.844	9260.23
435.052	9309.38
435.259	9309.38
435.466	9497.8
435.673	9428.17
435.88	10118.33
436.087	10738.87
436.294	10529.97
436.501	10110.14
436.708	10626.23
436.915	10966.19
437.122	11242.67
437.329	11213.99
437.537	11721.89
437.743	11758.75
437.95	11756.71
438.157	12256.41
438.364	12737.68
438.571	12756.11
438.778	12930.19
438.985	13929.6
439.192	13472.9
439.399	13970.56
439.606	13655.17
439.813	14169.21
440.02	15252.59
440.227	15058.03
440.433	14718.07
440.64	15504.49
440.847	15156.33
441.054	15459.43
441.261	16665.69
441.467	16313.44
441.674	16700.5
441.881	17327.18
442.088	17505.35
442.294	17179.73
442.501	17687.62
442.708	18005.06
442.914	18502.72
443.121	19569.71
443.328	18965.56
443.534	20118.56
443.741	19881
443.948	19438.64
444.154	20714.52
444.361	21044.24
444.568	21031.96
444.774	20788.25
444.981	21158.93
445.187	21750.79
445.394	22428.67
445.6	22582.27
445.807	24599.52
446.013	23385.07
446.22	23639.02
446.426	24775.64
446.633	25177.05
446.839	25746.38
447.046	24740.83
447.252	25947.08
447.459	26567.62
447.665	26127.3
447.871	27251.64
448.078	28634.02
448.284	27081.66
448.491	27882.41
448.697	28767.13
448.903	29109.15
449.11	29772.69
449.316	29076.38
449.522	29780.88
449.728	30245.77
449.935	30374.79
450.141	30419.85
450.347	31345.53
450.553	30213
450.76	30876.54
450.966	31867.76
451.172	31609.72
451.378	32332.65
451.584	31261.56
451.791	32379.75
451.997	32142.19
452.203	32725.86
452.409	32746.34
452.615	32502.63
452.821	31185.79
453.027	30868.35
453.233	32609.12
453.44	31732.59
453.646	31652.72
453.852	31970.16
454.058	32619.36
454.264	31787.89
454.47	32220.01
454.676	31404.92
454.882	32111.47
455.088	29739.92
455.294	30045.07
455.5	30700.42
455.705	30618.5
455.911	29135.77
456.117	28726.17
456.323	28457.89
456.529	27220.92
456.735	28128.17
456.941	27390.9
457.147	27139
457.352	26375.11
457.558	25963.47
457.764	26098.63
457.97	25457.62
458.176	25052.12
458.381	24875.99
458.587	23657.45
458.793	24138.72
458.999	22457.34
459.204	24161.25
459.41	23350.26
459.616	21996.55
459.821	21713.93
460.027	21748.75
460.233	21371.92
460.438	19952.68
460.644	20648.99
460.85	19440.68
461.055	19266.61
461.261	19225.65
461.466	17611.85
461.672	17222.73
461.878	18410.56
462.083	17441.87
462.289	16956.5
462.494	16952.4
462.7	16110.69
462.905	15410.28
463.111	16112.74
463.316	16116.83
463.522	15780.96
463.727	16010.34
463.932	15891.55
464.138	15989.86
464.343	15631.46
464.549	14939.25
464.754	15653.99
464.959	15580.26
465.165	15731.81
465.37	14877.81
465.575	14478.46
465.781	14994.54
465.986	15254.64
466.191	14584.95
466.397	14472.31
466.602	13751.43
466.807	14247.04
467.012	14255.23
467.218	13991.04
467.423	13771.91
467.628	13984.9
467.833	14591.09
468.038	13876.35
468.244	13773.96
468.449	14357.63
468.654	13921.41
468.859	13667.46
469.064	13538.44
469.269	13102.22
469.474	13143.18
469.679	13630.6
469.885	13008.01
470.09	13077.65
470.295	12948.62
470.5	12704.92
470.705	12942.48
470.91	12614.8
471.115	12696.72
471.32	12465.3
471.525	12516.5
471.73	12276.89
471.935	12158.11
472.139	11701.41
472.344	11840.67
472.549	11785.38
472.754	11984.03
472.959	11451.56
473.164	11379.88
473.369	11152.56
473.574	11455.65
473.778	11474.09
473.983	11353.26
474.188	11281.58
474.393	10652.85
474.598	10798.26
474.802	10681.52
475.007	10413.24
475.212	10890.42
475.417	10292.41
475.621	9997.5
475.826	10194.11
476.031	9854.14
476.235	9981.12
476.44	10054.84
476.645	9850.05
476.849	9870.53
477.054	9804.99
477.259	9608.39
477.463	9618.63
477.668	9346.25
477.872	9635.01
478.077	9460.93
478.282	8940.75
478.486	9037
478.691	8926.41
478.895	8877.26
479.1	8957.13
479.304	9014.48
479.509	8486.1
479.713	8854.73
479.918	8479.96
480.122	8443.09
480.326	8727.76
480.531	8555.73
480.735	8338.65
480.94	8359.13
481.144	8795.34
481.348	8176.86
481.553	8340.69
481.757	8213.72
481.961	8307.93
482.166	8269.02
482.37	8441.04
482.574	8119.51
482.778	8191.19
482.983	8303.83
483.187	8158.42
483.391	8365.27
483.595	8365.27
483.8	8080.6
484.004	8158.42
484.208	8307.93
484.412	8103.13
484.616	8228.06
484.821	8164.57
485.025	7910.62
485.229	8271.06
485.433	8258.78
485.637	8119.51
485.841	8215.77
486.045	8146.14
486.249	8348.89
486.453	8264.92
486.657	8133.85
486.861	8154.33
487.065	8107.23
487.269	8176.86
487.473	8037.59
487.677	8193.24
487.881	8309.97
488.085	8105.18
488.289	7986.4
488.493	8146.14
488.697	8266.97
488.901	8260.82
489.105	8178.9
489.309	8195.29
489.512	8299.73
489.716	8217.82
489.92	8228.06
490.124	8232.15
490.328	8549.59
490.531	8357.08
490.735	8309.97
490.939	8479.96
491.143	8416.47
491.346	8389.85
491.55	8625.36
491.754	8504.53
491.958	8686.8
492.161	8547.54
492.365	8666.32
492.569	8703.18
492.772	8627.41
492.976	8883.41
493.18	8856.78
493.383	8869.07
493.587	8781.01
493.79	8998.09
493.994	8815.82
494.197	8905.93
494.401	9123.02
494.605	8998.09
494.808	9340.1
495.012	9233.61
495.215	9327.81
495.419	9374.92
495.622	9274.57
495.825	9393.35
496.029	9516.23
496.232	9733.31
496.436	9583.81
496.639	9675.97
496.843	9905.34
497.046	9993.4
497.249	10138.81
497.453	10120.38
497.656	10261.69
497.859	10474.68
498.063	10470.58
498.266	10579.12
498.469	10523.83
498.673	10620.08
498.876	11019.44
499.079	11050.16
499.282	10992.81
499.485	11168.94
499.689	11111.6
499.892	11220.14
500.095	11441.32
500.298	11680.93
500.501	11627.68
500.705	12072.09
500.908	12121.24
501.111	12213.4
501.314	12491.93
501.517	12317.85
501.72	12500.12
501.923	12481.69
502.126	12844.18
502.329	12858.51
502.532	13120.65
502.735	13175.95
502.938	13245.58
503.141	13554.82
503.344	13665.41
503.547	13814.91
503.75	14025.86
503.953	14085.25
504.156	14273.66
504.359	14308.47
504.562	14494.84
504.765	14785.65
504.968	14904.43
505.17	15074.42
505.373	14924.91
505.576	15117.42
505.779	15373.42
505.982	15635.56
506.185	15914.08
506.387	15873.12
506.59	16133.22
506.793	16088.16
506.996	16151.65
507.198	17015.89
507.401	16755.8
507.604	16759.89
507.807	17067.09
508.009	17253.45
508.212	17314.89
508.415	17450.06
508.617	17652.81
508.82	17710.15
509.022	17910.85
509.225	18467.9
509.428	18424.89
509.63	18701.37
509.833	18590.78
510.035	19282.99
510.238	19043.38
510.44	19227.7
510.643	19389.49
510.845	19455.02
511.048	19518.51
511.25	19926.05
511.453	19854.37
511.655	20747.29
511.858	20591.64
512.06	20636.7
512.262	21095.44
512.465	21027.86
512.667	21105.68
512.87	21650.44
513.072	21519.37
513.274	22248.45
513.477	21980.17
513.679	22264.83
513.881	22436.86
514.084	22852.6
514.286	22793.21
514.488	23239.67
514.69	23813.1
514.893	23243.76
515.095	23630.83
515.297	24042.47
515.499	24089.57
515.701	24286.18
515.904	24828.89
516.106	24914.91
516.308	25291.73
516.51	25416.66
516.712	25211.86
516.914	25844.68
517.116	25730
517.318	25879.5
517.52	26371.01
517.722	26295.24
517.925	26735.55
518.127	27007.93
518.329	27169.72
518.531	27057.08
518.733	27521.97
518.935	27900.84
519.136	27884.46
519.338	28328.87
519.54	28623.78
519.742	28793.76
519.944	28900.25
520.146	29133.72
520.348	29107.1
520.55	29330.33
520.752	29485.97
520.954	30071.69
521.155	29903.76
521.357	30628.74
521.559	30638.98
521.761	31134.59
521.963	30915.45
522.164	31196.03
522.366	31146.87
522.568	31579
522.77	31824.75
522.971	32256.87
523.173	32174.95
523.375	32197.48
523.576	32426.85
523.778	32580.45
523.98	32934.75
524.181	33100.64
524.383	33342.3
524.584	33837.9
524.786	33715.03
524.988	33540.95
525.189	34380.62
525.391	34450.25
525.592	34265.93
525.794	34370.38
525.995	34724.68
526.197	34632.52
526.398	34749.25
526.6	34843.46
526.801	35169.08
527.003	35230.52
527.204	35197.76
527.406	35777.33
527.607	35558.2
527.808	35965.74
528.01	35334.97
528.211	35566.39
528.412	36598.57
528.614	36465.45
528.815	36219.69
529.016	36504.36
529.218	36490.02
529.419	36516.65
529.62	36754.21
529.822	36555.56
530.023	36590.38
530.224	36643.62
530.425	36965.15
530.626	36406.06
530.828	36651.81
531.029	37284.64
531.23	36639.53
531.431	37151.52
531.632	36979.49
531.833	37317.4
532.035	37532.44
532.236	37569.3
532.437	37982.99
532.638	37573.4
532.839	37516.06
533.04	37810.96
533.241	37380.89
533.442	37786.39
533.643	37626.65
533.844	37301.02
534.045	37942.03
534.246	37778.2
534.447	37800.72
534.648	37987.09
534.849	37665.56
535.05	37761.81
535.251	37827.35
535.451	37456.67
535.652	38255.37
535.853	37698.33
536.054	37786.39
536.255	37870.36
536.456	37460.76
536.657	38071.06
536.857	37823.25
537.058	37485.34
537.259	37714.71
537.46	38210.32
537.66	37620.5
537.861	37821.2
538.062	37778.2
538.263	37782.29
538.463	37671.7
538.664	37892.88
538.865	37782.29
539.065	37901.07
539.266	37817.11
539.466	37935.89
539.667	37317.4
539.868	37948.18
540.068	37790.48
540.269	37372.7
540.469	38099.73
540.67	37749.53
540.87	37673.75
541.071	37786.39
541.271	37810.96
541.472	37585.69
541.672	37823.25
541.873	37454.62
542.073	37233.44
542.274	37616.41
542.474	38157.07
542.675	37514.01
542.875	38003.47
543.075	37808.92
543.276	37286.68
543.476	38171.41
543.676	37321.5
543.877	37788.44
544.077	37563.16
544.277	37718.81
544.478	37479.19
544.678	37710.61
544.878	37522.2
545.078	37464.86
545.279	37493.53
545.479	37665.56
545.679	37389.08
545.879	37544.73
546.079	37372.7
546.28	37491.48
546.48	37511.96
546.68	37509.91
546.88	37927.7
547.08	37532.44
547.28	37503.77
547.48	37231.39
547.68	37337.88
547.88	37311.26
548.081	37313.31
548.281	37208.86
548.481	37327.64
548.681	37546.78
548.881	37303.07
549.081	37362.46
549.28	36827.94
549.48	37520.15
549.68	37307.16
549.88	37468.95
550.08	37217.05
550.28	37749.53
550.48	36959.01
550.68	37264.16
550.88	36959.01
551.08	37088.03
551.279	37126.94
551.479	37247.77
551.679	36944.67
551.879	37079.84
552.079	37378.84
552.278	37061.41
552.478	37022.5
552.678	36774.69
552.878	37288.73
553.077	37229.34
553.277	36879.14
553.477	37618.46
553.676	37055.26
553.876	37047.07
554.076	36944.67
554.275	36789.03
554.475	36377.39
554.674	36768.55
554.874	36885.28
555.074	37002.02
555.273	36768.55
555.473	37139.23
555.672	36469.54
555.872	36500.26
556.071	36670.25
556.271	36995.87
556.47	36522.79
556.67	36090.67
556.869	36557.61
557.068	36922.15
557.268	36573.99
557.467	36387.63
557.667	36225.84
557.866	36266.8
558.065	36621.09
558.265	36121.39
558.464	36401.96
558.663	36492.07
558.863	35668.79
559.062	36346.67
559.261	36182.83
559.461	36240.17
559.66	36057.9
559.859	35853.11
560.058	35631.93
560.258	35912.5
560.457	35644.21
560.656	36004.66
560.855	35640.12
561.054	35947.31
561.253	35674.93
561.453	35685.17
561.652	35541.82
561.851	35601.21
562.05	35658.55
562.249	35334.97
562.448	35781.43
562.647	35343.16
562.846	35167.04
563.045	35263.29
563.244	34374.47
563.443	35339.07
563.642	34618.18
563.841	35035.97
564.04	34943.81
564.239	35042.11
564.438	34362.18
564.637	34847.55
564.836	34308.94
565.035	34419.53
565.234	34763.59
565.432	33790.8
565.631	34239.31
565.83	33946.45
566.029	33909.58
566.228	33819.47
566.427	34067.28
566.625	33583.96
566.824	33596.24
567.023	33792.85
567.222	33174.36
567.42	33805.14
567.619	33858.38
567.818	33313.62
568.016	33274.71
568.215	33622.87
568.414	33280.86
568.612	33616.72
568.811	33459.03
569.01	33037.15
569.208	32717.67
569.407	32873.31
569.605	32596.84
569.804	33022.81
570.002	32707.43
570.201	32928.61
570.4	32406.37
570.598	32346.98
570.797	32308.07
570.995	32113.52
571.193	32187.24
571.392	32564.07
571.59	31816.56
571.789	31556.47
571.987	31955.82
572.186	31642.48
572.384	31730.55
572.582	31734.64
572.781	31968.11
572.979	31105.91
573.177	31155.07
573.376	31669.11
573.574	31042.43
573.772	31304.57
573.971	31128.44
574.169	31062.91
574.367	30823.29
574.565	31048.57
574.763	30917.5
574.962	31142.78
575.16	30792.58
575.358	30759.81
575.556	30235.53
575.754	30534.53
575.952	30157.71
576.151	30278.54
576.349	30192.52
576.547	30335.88
576.745	29772.69
576.943	30253.96
577.141	29932.43
577.339	29909.9
577.537	29766.54
577.735	29629.33
577.933	29504.4
578.131	29553.55
578.329	29522.83
578.527	29096.86
578.725	29252.5
578.923	29311.89
579.121	29176.73
579.319	29373.33
579.516	29221.78
579.714	28971.93
579.912	29184.92
580.11	28715.94
580.308	28668.83
580.506	28720.03
580.704	27968.43
580.901	28621.73
581.099	28697.5
581.297	27986.86
581.495	27929.52
581.692	28281.77
581.89	27753.39
582.088	28437.41
582.285	28117.93
582.483	28255.14
582.681	28013.48
582.878	28058.54
583.076	27683.76
583.274	27880.36
583.471	27397.04
583.669	27927.47
583.866	27585.46
584.064	27603.89
584.262	27044.79
584.459	27448.24
584.657	27251.64
584.854	27329.46
585.052	26782.65
585.249	27255.73
585.447	26973.11
585.644	26713.02
585.841	26573.76
586.039	26903.48
586.236	26653.63
586.434	26268.61
586.631	26096.58
586.828	26434.5
587.026	26289.09
587.223	25973.7
587.42	26045.38
587.618	26215.37
587.815	25756.62
588.012	25951.18
588.21	26053.58
588.407	25871.31
588.604	25824.2
588.801	25598.93
588.999	25478.1
589.196	25394.13
589.393	25492.43
589.59	25424.85
589.787	25093.08
589.984	25000.92
590.182	25007.06
590.379	25091.03
590.576	24753.12
590.773	25236.44
590.97	24595.42
591.167	24701.92
591.364	24832.99
591.561	24716.25
591.758	24488.93
591.955	24574.94
592.152	24544.22
592.349	24368.1
592.546	24318.95
592.743	24366.05
592.94	24005.61
593.137	24187.88
593.334	23872.49
593.531	23466.99
593.727	23747.56
593.924	23917.54
594.121	23673.84
594.318	23647.21
594.515	23462.9
594.712	23512.05
594.908	23661.55
595.105	23675.88
595.302	23231.47
595.499	23423.98
595.696	23000.05
595.892	22868.98
596.089	23452.66
596.286	23211
596.482	22975.48
596.679	23045.11
596.876	22938.62
597.072	22789.11
597.269	22645.76
597.466	22410.24
597.662	22430.72
597.859	22451.2
598.055	22557.69
598.252	22494.21
598.448	22227.97
598.645	22182.91
598.841	22094.85
599.038	21992.45
599.234	22057.99
599.431	21369.87
599.627	21779.47
599.824	21845
600.02	21638.16
600.217	21529.61
600.413	21658.63
600.609	21419.02
600.806	21623.82
601.002	21783.56
601.198	21416.97
601.395	21388.3
601.591	21101.59
601.787	21152.79
601.984	20757.53
602.18	20902.93
602.376	20900.89
602.572	20763.67
602.769	20882.45
602.965	21064.72
603.161	20780.06
603.357	20513.82
603.553	20614.17
603.75	20755.48
603.946	20337.69
604.142	20401.18
604.338	20173.86
604.534	20526.11
604.73	20208.67
604.926	20272.16
605.122	20104.23
605.318	19979.3
605.514	19704.87
605.71	19735.59
605.906	19868.71
606.102	19919.91
606.298	19909.67
606.494	19639.34
606.69	19706.92
606.886	19563.56
607.082	19381.29
607.278	19794.98
607.474	18986.04
607.67	19303.47
607.866	19086.39
608.062	19743.78
608.257	19387.44
608.453	19293.23
608.649	19256.37
608.845	19051.57
609.041	19213.36
609.236	19139.63
609.432	19033.14
609.628	19252.27
609.824	18592.83
610.019	18764.85
610.215	18799.67
610.411	18732.09
610.606	18623.55
610.802	18783.29
610.998	18953.27
611.193	18625.59
611.389	18558.01
611.584	18615.35
611.78	18340.93
611.976	18531.39
612.171	18261.05
612.367	18515
612.562	18310.21
612.758	17964.1
612.953	18037.83
613.149	18365.5
613.344	18191.42
613.539	18175.04
613.735	18396.22
613.93	18326.59
614.126	18095.17
614.321	18224.19
614.517	17880.13
614.712	18086.98
614.907	17912.9
615.103	17988.67
615.298	17615.94
615.493	17839.17
615.688	17796.17
615.884	18054.21
616.079	17527.88
616.274	17685.58
616.47	17661
616.665	17470.54
616.86	17685.58
617.055	17482.83
617.25	17585.22
617.445	17675.34
617.641	17458.25
617.836	17527.88
618.031	17024.08
618.226	17357.9
618.421	17095.76
618.616	17318.99
618.811	17259.6
619.006	17454.15
619.201	16786.52
619.396	17093.71
619.591	16546.9
619.786	16833.62
619.981	16610.39
620.176	16901.2
620.371	16333.92
620.566	16503.9
620.761	16282.72
620.956	16663.64
621.151	16258.14
621.346	16604.25
621.541	15965.28
621.735	16233.57
621.93	15969.38
622.125	16225.37
622.32	15758.44
622.515	15965.28
622.709	15809.64
622.904	15836.26
623.099	15563.88
623.294	15404.14
623.488	15535.21
623.683	15453.29
623.878	15242.35
624.072	15359.08
624.267	15101.04
624.462	14943.35
624.656	14759.03
624.851	14916.72
625.046	14746.74
625.24	14711.92
625.435	14650.49
625.629	14562.42
625.824	14410.87
626.018	14529.66
626.213	14015.62
626.407	14247.04
626.602	13851.78
626.796	14220.41
626.991	13851.78
627.185	13931.65
627.38	13784.19
627.574	13876.35
627.768	13679.75
627.963	13528.2
628.157	13442.18
628.352	13501.58
628.546	13282.44
628.74	13456.52
628.935	13397.13
629.129	13378.7
629.323	13020.3
629.517	13005.97
629.712	13337.74
629.906	12926.1
630.1	12698.77
630.294	12792.98
630.489	12815.51
630.683	12829.84
630.877	12467.35
631.071	12453.02
631.265	12442.78
631.459	12471.45
631.653	12418.2
631.848	12432.54
632.042	12262.55
632.236	12430.49
632.43	12158.11
632.624	12104.86
632.818	11752.61
633.012	11809.95
633.206	11881.63
633.4	11807.91
633.594	11723.94
633.788	11906.21
633.982	11732.13
634.176	11594.92
634.369	11390.12
634.563	11433.13
634.757	11367.59
634.951	11564.2
635.145	11328.68
635.339	11232.43
635.533	10968.24
635.726	11213.99
635.92	11058.35
636.114	11005.1
636.308	10912.94
636.501	10882.22
636.695	10732.72
636.889	10802.35
637.083	10665.14
637.276	10620.08
637.47	10652.85
637.664	10552.5
637.857	10296.5
638.051	10489.01
638.244	10470.58
638.438	10224.83
638.632	10083.52
638.825	10155.19
639.019	10169.53
639.212	9884.86
639.406	10087.61
639.599	9845.95
639.793	9903.29
639.986	9981.12
640.18	9944.25
640.373	10007.74
640.567	9665.73
640.76	9626.82
640.954	9675.97
641.147	9454.79
641.34	9540.8
641.534	9608.39
641.727	9454.79
641.92	9436.36
642.114	9239.75
642.307	9245.9
642.5	9143.5
642.694	9041.1
642.887	9231.56
643.08	9260.23
643.273	9010.38
643.467	8920.27
643.66	8912.08
643.853	8901.84
644.046	8817.87
644.239	8660.18
644.432	8729.81
644.626	8670.42
644.819	8770.77
645.012	8471.76
645.205	8527.06
645.398	8482
645.591	8262.87
645.784	8434.9
645.977	8240.34
646.17	8459.48
646.363	8334.55
646.556	8289.49
646.749	8185.05
646.942	8232.15
647.135	8152.28
647.328	8101.08
647.521	8056.03
647.714	7871.71
647.907	7922.91
648.099	7902.43
648.292	7849.18
648.485	7914.72
648.678	7777.5
648.871	7800.03
649.064	7836.89
649.256	7613.67
649.449	7572.71
649.642	7681.25
649.835	7570.66
650.027	7587.04
650.22	7435.49
650.413	7288.04
650.605	7316.71
650.798	7199.98
650.991	7204.07
651.183	7324.9
651.376	7206.12
651.568	7261.41
651.761	6962.41
651.954	7046.38
652.146	7048.43
652.339	7312.61
652.531	7052.52
652.724	7132.39
652.916	6894.83
653.109	6982.89
653.301	7011.56
653.494	6831.34
653.686	6708.46
653.879	6905.07
654.071	6751.47
654.263	6651.12
654.456	6569.2
654.648	6534.39
654.84	6481.14
655.033	6632.69
655.225	6495.47
655.417	6470.9
655.61	6520.05
655.802	6515.95
655.994	6542.58
656.186	6444.27
656.379	6360.31
656.571	6298.87
656.763	6212.85
656.955	6249.72
657.148	6216.95
657.34	6259.96
657.532	6126.84
657.724	6196.47
657.916	6135.03
658.108	6120.7
658.3	6141.18
658.492	6077.69
658.684	6022.39
658.876	5930.23
659.068	5854.46
659.26	5844.22
659.452	5858.56
659.644	5756.16
659.836	5729.53
660.028	5805.31
660.22	5571.84
660.412	5680.38
660.604	5625.09
660.796	5588.22
660.988	5690.62
661.18	5481.73
661.372	5610.75
661.563	5616.9
661.755	5547.26
661.947	5575.94
662.139	5412.1
662.331	5424.39
662.522	5299.46
662.714	5381.38
662.906	5315.84
663.097	5356.8
663.289	5303.56
663.481	5180.68
663.673	5158.15
663.864	5244.17
664.056	5168.39
664.247	5098.76
664.439	5154.05
664.631	5172.49
664.822	5070.09
665.014	5129.48
665.205	5182.73
665.397	4965.64
665.588	5096.71
665.78	5006.6
665.971	4963.59
666.163	4967.69
666.354	4934.92
666.546	4902.15
666.737	4752.65
666.929	4887.82
667.12	4912.39
667.311	4746.51
667.503	4850.96
667.694	4832.52
667.885	4746.51
668.077	4715.79
668.268	4621.58
668.459	4633.87
668.651	4629.77
668.842	4664.59
669.033	4664.59
669.224	4642.06
669.416	4728.08
669.607	4586.77
669.798	4521.23
669.989	4703.5
670.18	4601.1
670.371	4447.51
670.563	4416.79
670.754	4554
670.945	4381.97
671.136	4283.67
671.327	4367.63
671.518	4298
671.709	4279.57
671.9	4336.92
672.091	4312.34
672.282	4345.11
672.473	4209.94
672.664	4347.15
672.855	4275.48
673.046	4320.53
673.237	4275.48
673.428	4087.06
673.619	4130.07
673.809	4195.61
674	4216.09
674.191	4218.13
674.382	4152.6
674.573	4119.83
674.764	4150.55
674.954	4154.65
675.145	4076.82
675.336	4160.79
675.527	4048.15
675.717	4173.08
675.908	4060.44
676.099	3884.31
676.289	4015.38
676.48	3984.66
676.671	4171.03
676.861	4082.97
677.052	4140.31
677.243	4021.53
677.433	4076.82
677.624	4033.82
677.814	3908.89
678.005	4009.24
678.195	4031.77
678.386	3964.18
678.576	3915.03
678.767	3978.52
678.957	3937.56
679.148	3951.9
679.338	3908.89
679.529	3849.5
679.719	3788.06
679.909	3947.8
680.1	3790.11
680.29	3865.88
680.481	3886.36
680.671	3790.11
680.861	3857.69
681.052	3824.92
681.242	3859.74
681.432	3960.09
681.622	3802.4
681.813	3691.81
682.003	3786.01
682.193	3804.44
682.383	3812.64
682.573	3898.65
682.764	3722.52
682.954	3824.92
683.144	3849.5
683.334	3632.41
683.524	3659.04
683.714	3826.97
683.904	3743
684.094	3765.53
684.284	3781.92
684.474	3677.47
684.664	3640.61
684.854	3654.94
685.044	3628.32
685.234	3704.09
685.424	3712.28
685.614	3450.14
685.804	3661.09
685.994	3659.04
686.184	3577.12
686.374	3527.97
686.564	3560.73
686.753	3534.11
686.943	3456.29
687.133	3474.72
687.323	3388.71
687.513	3634.46
687.702	3396.9
687.892	3495.2
688.082	3560.73
688.272	3450.14
688.461	3439.9
688.651	3364.13
688.841	3333.41
689.03	3523.87
689.22	3347.75
689.41	3304.74
689.599	3349.79
689.789	3314.98
689.979	3263.78
690.168	3341.6
690.358	3263.78
690.547	3220.77
690.737	3177.76
690.926	3302.69
691.116	3251.49
691.305	3282.21
691.495	3169.57
691.684	3159.33
691.874	3126.57
692.063	3249.44
692.252	3093.8
692.442	3104.04
692.631	3122.47
692.82	3134.76
693.01	3097.89
693.199	3083.56
693.388	3005.74
693.578	2977.06
693.767	3097.89
693.956	2907.43
694.146	2927.91
694.335	2952.49
694.524	3081.51
694.713	2958.63
694.902	2882.86
695.092	2848.04
695.281	2932.01
695.47	2927.91
695.659	2958.63
695.848	2958.63
696.037	2979.11
696.226	2917.67
696.415	2780.46
696.604	2858.28
696.793	2825.51
696.982	3015.98
697.171	2907.43
697.36	2895.15
697.549	2796.84
697.738	2753.84
697.927	2757.93
698.116	2755.88
698.305	2854.19
698.494	2770.22
698.683	2884.91
698.872	2903.34
699.061	2811.18
699.25	2872.62
699.438	2770.22
699.627	2889
699.816	2837.8
700.005	2841.9
700.193	2825.51
700.382	2874.67
700.571	2856.23
700.76	2678.06
700.948	2759.98
701.137	2778.41
701.326	2905.39
701.514	2678.06
701.703	2817.32
701.892	2786.6
702.08	2891.05
702.269	2837.8
702.457	2725.16
702.646	2712.88
702.834	2772.27
703.023	2655.53
703.212	2800.94
703.4	2716.97
703.589	2782.51
703.777	2770.22
703.965	2614.57
704.154	2719.02
704.342	2823.47
704.531	2600.24
704.719	2590
704.907	2868.52
705.096	2749.74
705.284	2762.03
705.472	2891.05
705.661	2614.57
705.849	2733.36
706.037	2665.77
706.226	2704.68
706.414	2688.3
706.602	2721.07
706.79	2737.45
706.979	2639.15
707.167	2821.42
707.355	2686.25
707.543	2841.9
707.731	2751.79
707.919	2682.16
708.107	2719.02
708.296	2682.16
708.484	2655.53
708.672	2649.39
708.86	2673.96
709.048	2768.17
709.236	2671.92
709.424	2682.16
709.612	2694.44
709.8	2602.29
709.988	2764.08
710.176	2731.31
710.364	2790.7
710.551	2745.64
710.739	2669.87
710.927	2618.67
711.115	2665.77
711.303	2766.12
711.491	2759.98
711.679	2737.45
711.866	2725.16
712.054	2704.68
712.242	2579.76
712.43	2786.6
712.617	2673.96
712.805	2739.5
712.993	2667.82
713.181	2762.03
713.368	2800.94
713.556	2745.64
713.744	2600.24
713.931	2684.2
714.119	2688.3
714.306	2723.12
714.494	2766.12
714.682	2747.69
714.869	2723.12
715.057	2680.11
715.244	2735.4
715.432	2776.36
715.619	2700.59
715.807	2635.05
715.994	2704.68
716.182	2706.73
716.369	2737.45
716.556	2743.6
716.744	2624.81
716.931	2733.36
717.119	2800.94
717.306	2802.99
717.493	2708.78
717.681	2692.4
717.868	2854.19
718.055	2499.89
718.242	2716.97
718.43	2800.94
718.617	2749.74
718.804	2790.7
718.991	2694.44
719.179	2759.98
719.366	2719.02
719.553	2790.7
719.74	2829.61
719.927	2798.89
720.114	2702.64
720.301	2753.84
720.488	2827.56
720.676	2897.19
720.863	2747.69
721.05	2817.32
721.237	2837.8
721.424	2749.74
721.611	2723.12
721.798	2702.64
721.985	2823.47
722.172	2690.35
722.358	2680.11
722.545	2725.16
722.732	2766.12
722.919	2743.6
723.106	2805.03
723.293	2766.12
723.48	2676.01
723.667	2747.69
723.853	2704.68
724.04	2757.93
724.227	2743.6
724.414	2759.98
724.6	2678.06
724.787	2739.5
724.974	2835.75
725.161	2845.99
725.347	2702.64
725.534	2673.96
725.72	2831.66
725.907	2796.84
726.094	2815.27
726.28	2764.08
726.467	2880.81
726.653	2827.56
726.84	2729.26
727.027	2841.9
727.213	2643.24
727.4	2837.8
727.586	2938.15
727.773	2759.98
727.959	2802.99
728.145	2733.36
728.332	2899.24
728.518	2860.33
728.705	2766.12
728.891	2655.53
729.077	2735.4
729.264	2833.71
729.45	2784.55
729.636	2745.64
729.823	2764.08
730.009	2759.98
730.195	2739.5
730.382	2796.84
730.568	2782.51
730.754	2645.29
730.94	2708.78
731.126	2745.64
731.313	2886.95
731.499	2786.6
731.685	2841.9
731.871	2702.64
732.057	2800.94
732.243	2637.1
732.429	2856.23
732.615	2805.03
732.801	2772.27
732.987	2729.26
733.173	2831.66
733.359	2762.03
733.545	2770.22
733.731	2796.84
733.917	2770.22
734.103	2706.73
734.289	2759.98
734.475	2741.55
734.661	2807.08
734.847	2833.71
735.033	2704.68
735.219	2708.78
735.404	2823.47
735.59	2786.6
735.776	2778.41
735.962	2696.49
736.148	2798.89
736.333	2657.58
736.519	2735.4
736.705	2747.69
736.89	2749.74
737.076	2686.25
737.262	2807.08
737.447	2661.68
737.633	2567.47
737.819	2680.11
738.004	2524.46
738.19	2731.31
738.375	2759.98
738.561	2770.22
738.747	2643.24
738.932	2725.16
739.118	2723.12
739.303	2686.25
739.489	2573.61
739.674	2594.09
739.859	2639.15
740.045	2628.91
740.23	2559.28
740.416	2538.8
740.601	2616.62
740.786	2506.03
740.972	2483.5
741.157	2659.63
741.342	2606.38
741.528	2663.72
741.713	2647.34
741.898	2575.66
742.084	2514.22
742.269	2577.71
742.454	2585.9
742.639	2624.81
742.824	2479.41
743.01	2413.87
743.195	2510.13
743.38	2501.94
743.565	2467.12
743.75	2389.3
743.935	2364.72
744.12	2567.47
744.305	2344.24
744.49	2272.56
744.675	2274.61
744.86	2473.26
745.045	2344.24
745.23	2409.78
745.415	2266.42
745.6	2377.01
745.785	2243.89
745.97	2352.43
746.155	2268.47
746.34	2344.24
746.525	2176.31
746.71	2364.72
746.895	2194.74
747.079	2323.76
747.264	2231.6
747.449	2075.96
747.634	2217.27
747.819	2192.69
748.003	2204.98
748.188	2200.88
748.373	2086.2
748.557	2104.63
748.742	2190.64
748.927	2108.73
749.111	2096.44
749.296	2092.34
749.481	2211.12
749.665	2141.49
749.85	2096.44
750.034	2071.86
750.219	1957.18
750.404	1969.46
750.588	2059.57
750.773	1938.74
750.957	1965.37
751.141	2010.42
751.326	1940.79
751.51	1965.37
751.695	1901.88
751.879	1871.16
752.064	1963.32
752.248	1875.26
752.432	1879.35
752.617	1881.4
752.801	1875.26
752.985	1879.35
753.17	1858.87
753.354	1805.63
753.538	1809.72
753.722	1840.44
753.907	1735.99
754.091	1879.35
754.275	1639.74
754.459	1641.79
754.643	1752.38
754.828	1641.79
755.012	1604.92
755.196	1697.08
755.38	1551.68
755.564	1643.84
755.748	1619.26
755.932	1721.66
756.116	1676.6
756.3	1604.92
756.484	1553.73
756.668	1588.54
756.852	1559.87
757.036	1590.59
757.22	1520.96
757.404	1473.85
757.588	1523.01
757.772	1420.61
757.956	1375.55
758.14	1498.43
758.323	1389.89
758.507	1441.09
758.691	1482.05
758.875	1559.87
759.059	1426.75
759.242	1463.61
759.426	1289.54
759.61	1385.79
759.794	1424.7
759.977	1400.13
760.161	1361.22
760.345	1424.7
760.528	1439.04
760.712	1375.55
760.895	1412.42
761.079	1441.09
761.263	1320.26
761.446	1353.02
761.63	1326.4
761.813	1320.26
761.997	1353.02
762.18	1238.34
762.364	1230.15
762.547	1377.6
762.731	1305.92
762.914	1310.02
763.098	1314.11
763.281	1244.48
763.464	1209.67
763.648	1228.1
763.831	1146.18
764.015	1232.19
764.198	1267.01
764.381	1256.77
764.564	1137.99
764.748	1250.63
764.931	1219.91
765.114	1232.19
765.297	1254.72
765.481	1224
765.664	1213.76
765.847	1135.94
766.03	1185.09
766.213	1137.99
766.397	1133.89
766.58	1109.32
766.763	1125.7
766.946	1088.84
767.129	1142.08
767.312	1205.57
767.495	1215.81
767.678	1090.88
767.861	1105.22
768.044	1275.2
768.227	1041.73
768.41	1066.31
768.593	1150.28
768.776	1045.83
768.959	1029.45
769.142	1127.75
769.324	1189.19
769.507	1158.47
769.69	1068.36
769.873	1103.17
770.056	1121.6
770.239	1080.64
770.421	1056.07
770.604	974.15
770.787	1074.5
770.97	986.44
771.152	974.15
771.335	947.53
771.518	957.77
771.7	929.1
771.883	1045.83
772.066	965.96
772.248	978.25
772.431	1017.16
772.613	929.1
772.796	935.24
772.978	951.62
773.161	992.58
773.343	1039.69
773.526	949.57
773.708	857.42
773.891	881.99
774.073	1008.97
774.256	1000.77
774.438	972.1
774.621	908.62
774.803	845.13
774.985	851.27
775.168	939.34
775.35	857.42
775.532	922.95
775.715	855.37
775.897	892.23
776.079	847.18
776.261	826.7
776.444	836.94
776.626	859.46
776.808	804.17
776.99	798.03
777.173	816.46
777.355	773.45
777.537	718.15
777.719	767.31
777.901	752.97
778.083	761.16
778.265	752.97
778.447	707.91
778.629	714.06
778.811	726.35
778.993	697.67
779.175	779.59
779.357	730.44
779.539	785.74
779.721	750.92
779.903	752.97
780.085	677.2
780.267	646.48
780.449	720.2
780.631	765.26
780.812	720.2
780.994	628.04
781.176	623.95
781.358	656.72
781.54	615.76
781.721	669
781.903	718.15
782.085	595.28
782.267	619.85
782.448	560.46
782.63	601.42
782.812	642.38
782.993	621.9
783.175	599.37
783.357	615.76
783.538	535.89
783.72	568.65
783.901	611.66
784.083	626
784.264	664.91
784.446	640.33
784.627	564.56
784.809	593.23
784.99	595.28
785.172	546.12
785.353	548.17
785.535	499.02
785.716	513.36
785.897	580.94
786.079	556.36
786.26	499.02
786.441	554.32
786.623	466.25
786.804	484.69
786.985	462.16
787.167	529.74
787.348	556.36
787.529	537.93
787.71	478.54
787.891	505.17
788.073	484.69
788.254	437.58
788.435	527.69
788.616	499.02
788.797	499.02
788.978	460.11
789.159	478.54
789.34	509.26
789.522	437.58
789.703	439.63
789.884	476.49
790.065	464.21
790.246	449.87
790.427	425.29
790.607	462.16
790.788	367.95
790.969	372.05
791.15	456.01
791.331	335.18
791.512	458.06
791.693	382.29
791.874	472.4
792.054	482.64
792.235	417.1
792.416	408.91
792.597	386.38
792.778	367.95
792.958	361.81
793.139	410.96
793.32	370
793.5	396.62
793.681	447.82
793.862	413.01
794.042	435.53
794.223	396.62
794.404	433.49
794.584	298.32
794.765	335.18
794.945	351.57
795.126	370
795.306	380.24
795.487	386.38
795.667	300.37
795.848	331.09
796.028	370
796.209	298.32
796.389	363.86
796.57	294.22
796.75	306.51
796.93	290.13
797.111	312.66
797.291	341.33
797.471	335.18
797.652	308.56
797.832	312.66
798.012	370
798.192	259.41
798.373	308.56
798.553	302.42
798.733	363.86
798.913	367.95
799.093	308.56
799.274	261.46
799.454	324.94
799.634	294.22
799.814	386.38
799.994	271.7
800.174	243.03
800.354	273.75
800.534	267.6
800.714	286.03
800.894	283.99
801.074	257.36
801.254	212.31
801.434	281.94
801.614	247.12
801.794	216.4
801.974	709.96
802.154	224.59
802.334	337.23
802.514	347.47
802.693	218.45
802.873	240.98
803.053	240.98
803.233	257.36
803.413	304.46
803.592	212.31
803.772	222.55
803.952	255.31
804.131	275.79
804.311	251.22
804.491	263.51
804.67	247.12
804.85	228.69
805.03	226.64
805.209	253.27
805.389	251.22
805.568	261.46
805.748	286.03
805.928	253.27
806.107	296.27
806.287	200.02
806.466	265.55
806.646	259.41
806.825	159.06
807.004	214.35
807.184	240.98
807.363	220.5
807.543	197.97
807.722	210.26
807.901	195.92
808.081	228.69
808.26	212.31
808.439	226.64
808.619	230.74
808.798	134.48
808.977	228.69
809.156	271.7
809.336	269.65
809.515	240.98
809.694	148.82
809.873	218.45
810.052	208.21
810.231	216.4
810.411	245.07
810.59	193.87
810.769	220.5
810.948	220.5
811.127	169.3
811.306	197.97
811.485	193.87
811.664	288.08
811.843	220.5
812.022	220.5
812.201	197.97
812.38	197.97
812.559	148.82
812.737	132.44
812.916	126.29
813.095	130.39
813.274	181.59
813.453	290.13
813.632	281.94
813.811	212.31
813.989	144.72
814.168	208.21
814.347	87.38
814.526	230.74
814.704	140.63
814.883	167.25
815.062	183.63
815.24	195.92
815.419	154.96
815.598	283.99
815.776	163.15
815.955	163.15
816.133	97.62
816.312	173.39
816.49	154.96
816.669	193.87
816.847	171.35
817.026	152.91
817.204	138.58
817.383	150.87
817.561	144.72
817.74	206.16
817.918	169.3
818.097	165.2
818.275	191.83
818.453	146.77
818.632	175.44
818.81	120.15
818.988	118.1
819.167	142.68
819.345	128.34
819.523	138.58
819.701	107.86
819.879	146.77
820.058	101.72
820.236	138.58
820.414	171.35
820.592	181.59
820.77	195.92
820.948	175.44
821.127	101.72
821.305	140.63
821.483	79.19
821.661	134.48
821.839	134.48
822.017	81.24
822.195	101.72
822.373	161.11
822.551	120.15
822.729	60.76
822.907	185.68
823.085	163.15
823.262	120.15
823.44	11.61
823.618	175.44
823.796	197.97
823.974	99.67
824.152	107.86
824.329	150.87
824.507	50.52
824.685	146.77
824.863	154.96
825.04	142.68
825.218	240.98
825.396	91.48
825.574	118.1
825.751	167.25
825.929	138.58
826.107	101.72
826.284	114
826.462	103.76
826.639	99.67
826.817	77.14
826.994	144.72
827.172	152.91
827.349	159.06
827.527	87.38
827.704	120.15
827.882	142.68
828.059	62.8
828.237	85.33
828.414	83.28
828.591	128.34
828.769	128.34
828.946	19.8
829.124	181.59
829.301	136.53
829.478	130.39
829.655	85.33
829.833	114
830.01	13.65
830.187	107.86
830.364	89.43
830.542	177.49
830.719	60.76
830.896	152.91
831.073	126.29
831.25	146.77
831.427	116.05
831.604	56.66
831.782	77.14
831.959	193.87
832.136	58.71
832.313	68.95
832.49	103.76
832.667	195.92
832.844	105.81
833.021	124.24
833.198	136.53
833.374	109.91
833.551	116.05
833.728	89.43
833.905	116.05
834.082	99.67
834.259	103.76
834.436	122.2
834.612	95.57
834.789	73.04
834.966	79.19
835.143	142.68
835.319	138.58
835.496	17.75
835.673	85.33
835.85	150.87
836.026	-4.78
836.203	128.34
836.38	40.28
836.556	77.14
836.733	73.04
836.909	132.44
837.086	103.76
837.262	64.85
837.439	60.76
837.616	81.24
837.792	30.04
837.968	111.96
838.145	17.75
838.321	23.89
838.498	126.29
838.674	21.85
838.851	99.67
839.027	66.9
839.203	62.8
839.38	17.75
839.556	17.75
839.732	23.89
839.909	87.38
840.085	124.24
840.261	30.04
840.437	189.78
840.614	58.71
840.79	30.04
840.966	81.24
841.142	66.9
841.318	83.28
841.494	103.76
841.671	85.33
841.847	118.1
842.023	27.99
842.199	107.86
842.375	138.58
842.551	23.89
842.727	79.19
842.903	93.52
843.079	105.81
843.255	73.04
843.431	30.04
843.607	103.76
843.783	-10.92
843.959	77.14
844.134	3.41
844.31	171.35
844.486	34.13
844.662	87.38
844.838	40.28
845.013	103.76
845.189	7.51
845.365	95.57
845.541	120.15
845.716	42.32
845.892	83.28
846.068	56.66
846.244	77.14
846.419	66.9
846.595	40.28
846.77	66.9
846.946	87.38
847.122	66.9
847.297	83.28
847.473	148.82
847.648	34.13
847.824	40.28
847.999	85.33
848.175	83.28
848.35	83.28
848.526	109.91
848.701	73.04
848.876	58.71
849.052	126.29
849.227	136.53
849.403	13.65
849.578	27.99
849.753	40.28
849.929	48.47
850.104	79.19
850.279	42.32
850.454	60.76
850.63	-17.07
850.805	50.52
850.98	64.85
851.155	73.04
851.33	40.28
851.505	66.9
851.681	68.95
851.856	36.18
852.031	101.72
852.206	68.95
852.381	25.94
852.556	7.51
852.731	36.18
852.906	32.08
853.081	46.42
853.256	1.37
853.431	32.08
853.606	7.51
853.781	56.66
853.956	17.75
854.131	36.18
854.305	1.37
854.48	50.52
854.655	48.47
854.83	50.52
855.005	34.13
855.18	7.51
855.354	64.85
855.529	7.51
855.704	32.08
855.879	56.66
856.053	-51.88
856.228	77.14
856.403	54.61
856.577	40.28
856.752	36.18
856.926	11.61
857.101	52.56
857.276	60.76
857.45	79.19
857.625	109.91
857.799	13.65
857.974	-27.31
858.148	7.51
858.323	11.61
858.497	-68.27
858.672	5.46
858.846	-8.87
859.02	81.24
859.195	38.23
859.369	34.13
859.543	-17.07
859.718	54.61
859.892	-4.78
860.066	73.04
860.241	56.66
860.415	44.37
860.589	60.76
860.763	19.8
860.938	-6.83
861.112	56.66
861.286	9.56
861.46	99.67
861.634	3.41
861.808	50.52
861.982	97.62
862.157	120.15
862.331	77.14
862.505	-27.31
862.679	36.18
862.853	75.09
863.027	48.47
863.201	3.41
863.375	60.76
863.549	36.18
863.722	87.38
863.896	54.61
864.07	27.99
864.244	-41.64
864.418	52.56
864.592	99.67
864.766	1.37
864.939	60.76
865.113	64.85
865.287	75.09
865.461	34.13
865.634	-0.68
865.808	15.7
865.982	62.8
866.156	11.61
866.329	17.75
866.503	5.46
866.676	50.52
866.85	52.56
867.024	36.18
867.197	11.61
867.371	71
867.544	48.47
867.718	13.65
867.891	87.38
868.065	3.41
868.238	36.18
868.412	138.58
868.585	17.75
868.759	-51.88
868.932	40.28
869.105	-27.31
869.279	-41.64
869.452	56.66
869.625	17.75
869.799	73.04
869.972	52.56
870.145	21.85
870.319	81.24
870.492	38.23
870.665	89.43
870.838	13.65
871.011	1.37
871.185	11.61
871.358	75.09
871.531	40.28
871.704	52.56
871.877	-2.73
872.05	-4.78
872.223	38.23
872.396	62.8
872.569	56.66
872.742	-19.11
872.915	-6.83
873.088	54.61
873.261	-45.74
873.434	23.89
873.607	44.37
873.78	77.14
873.953	23.89
874.126	83.28
874.299	-2.73
874.471	-0.68
874.644	3.41
874.817	44.37
874.99	50.52
875.163	36.18
875.335	36.18
875.508	-6.83
875.681	13.65
875.853	48.47
876.026	79.19
876.199	75.09
876.371	-19.11
876.544	48.47
876.717	-0.68
876.889	38.23
877.062	1.37
877.234	7.51
877.407	-21.16
877.579	-49.83
877.752	97.62
877.924	32.08
878.097	56.66
878.269	7.51
878.442	-8.87
878.614	52.56
878.786	58.71
878.959	-2.73
879.131	38.23
879.303	-86.7
879.476	5.46
879.648	46.42
879.82	73.04
879.993	32.08
880.165	58.71
880.337	-39.59
880.509	15.7
880.681	-10.92
880.854	-17.07
881.026	9.56
881.198	105.81
881.37	62.8
881.542	21.85
881.714	17.75
881.886	27.99
882.058	64.85
882.23	13.65
882.402	17.75
882.574	19.8
882.746	25.94
882.918	62.8
883.09	15.7
883.262	-0.68
883.434	-8.87
883.606	-17.07
883.778	-2.73
883.95	48.47
884.122	-4.78
884.293	19.8
884.465	40.28
884.637	75.09
884.809	27.99
884.98	30.04
885.152	27.99
885.324	62.8
885.496	7.51
885.667	50.52
885.839	7.51
886.011	5.46
886.182	36.18
886.354	13.65
886.525	-4.78
886.697	48.47
886.869	48.47
887.04	7.51
887.212	40.28
887.383	-27.31
887.555	66.9
887.726	-8.87
887.897	15.7
888.069	54.61
888.24	-12.97
888.412	-0.68
888.583	30.04
888.754	36.18
888.926	-29.35
889.097	19.8
889.268	-39.59
889.44	5.46
889.611	60.76
889.782	-35.5
889.953	1.37
890.125	-15.02
890.296	15.7
890.467	-12.97
890.638	19.8
890.809	23.89
890.98	3.41
891.151	71
891.323	105.81
891.494	15.7
891.665	15.7
891.836	17.75
892.007	-41.64
892.178	81.24
892.349	109.91
892.52	64.85
892.691	-2.73
892.862	-12.97
893.032	-45.74
893.203	62.8
893.374	40.28
893.545	23.89
893.716	5.46
893.887	81.24
894.057	-19.11
894.228	-31.4
894.399	13.65
894.57	97.62
894.74	9.56
894.911	54.61
895.082	-74.41
895.253	68.95
895.423	-0.68
895.594	17.75
895.764	-27.31
895.935	-21.16
896.106	40.28
896.276	77.14
896.447	87.38
896.617	27.99
896.788	1.37
896.958	13.65
897.129	58.71
897.299	25.94
897.47	25.94
897.64	7.51
897.81	32.08
897.981	-6.83
898.151	1.37
898.322	23.89
898.492	77.14
898.662	-27.31
898.832	38.23
899.003	21.85
899.173	5.46
899.343	19.8
899.513	56.66
