Data from USB4F104151__9__11-51-07-451.txt Node

Date: Fri Mar 14 11:51:07 EDT 2025
User: louis
Spectrometer: USB4F10415
Trigger mode: 4
Integration Time (sec): 2.000000E-2
Scans to average: 1
Electric dark correction enabled: true
Nonlinearity correction enabled: false
Boxcar width: 0
XAxis mode: Wavelengths
Number of Pixels in Spectrum: 3648
>>>>>Begin Spectral Data<<<<<
178.204	-52.22
178.424	-52.22
178.644	-52.22
178.864	-105.47
179.084	-91.13
179.304	-7.17
179.524	-70.65
179.744	-13.31
179.964	46.08
180.184	25.6
180.404	39.94
180.624	13.31
180.844	7.17
181.064	-23.55
181.283	19.46
181.503	-66.56
181.723	29.7
181.943	-46.08
182.163	35.84
182.383	17.41
182.602	31.74
182.822	19.46
183.042	3.07
183.262	46.08
183.482	29.7
183.701	-46.08
183.921	-1.02
184.141	31.74
184.361	54.27
184.58	-31.74
184.8	33.79
185.02	9.22
185.239	13.31
185.459	17.41
185.679	35.84
185.898	-62.46
186.118	121.85
186.338	-5.12
186.557	54.27
186.777	-23.55
186.997	37.89
187.216	-15.36
187.436	87.04
187.655	13.31
187.875	89.09
188.095	-9.22
188.314	23.55
188.534	103.42
188.753	15.36
188.973	46.08
189.192	46.08
189.412	3.07
189.631	-7.17
189.851	19.46
190.07	54.27
190.29	-1.02
190.509	9.22
190.729	-7.17
190.948	46.08
191.168	119.81
191.387	44.03
191.607	-7.17
191.826	-3.07
192.045	11.26
192.265	11.26
192.484	70.65
192.704	46.08
192.923	19.46
193.142	68.61
193.362	-13.31
193.581	58.37
193.8	-35.84
194.02	3.07
194.239	74.75
194.458	78.85
194.678	-11.26
194.897	-82.94
195.116	11.26
195.335	56.32
195.555	74.75
195.774	21.5
195.993	41.98
196.212	54.27
196.432	19.46
196.651	-13.31
196.87	1.02
197.089	15.36
197.308	-31.74
197.528	-3.07
197.747	-50.18
197.966	31.74
198.185	1.02
198.404	-15.36
198.623	9.22
198.842	35.84
199.062	44.03
199.281	74.75
199.5	-17.41
199.719	9.22
199.938	-37.89
200.157	82.94
200.376	31.74
200.595	74.75
200.814	48.13
201.033	-21.5
201.252	3.07
201.471	35.84
201.69	66.56
201.909	89.09
202.128	9.22
202.347	19.46
202.566	-52.22
202.785	15.36
203.004	3.07
203.223	62.46
203.442	9.22
203.661	11.26
203.879	1.02
204.098	80.89
204.317	-33.79
204.536	66.56
204.755	31.74
204.974	31.74
205.193	-9.22
205.411	52.22
205.63	87.04
205.849	50.18
206.068	27.65
206.287	-3.07
206.505	89.09
206.724	19.46
206.943	66.56
207.162	50.18
207.381	-35.84
207.599	25.6
207.818	-17.41
208.037	-5.12
208.255	-1.02
208.474	13.31
208.693	25.6
208.911	35.84
209.13	46.08
209.349	3.07
209.567	105.47
209.786	50.18
210.005	9.22
210.223	39.94
210.442	-9.22
210.661	37.89
210.879	-15.36
211.098	-13.31
211.316	15.36
211.535	39.94
211.753	119.81
211.972	13.31
212.191	1.02
212.409	-5.12
212.628	21.5
212.846	33.79
213.065	1.02
213.283	119.81
213.502	-19.46
213.72	46.08
213.938	76.8
214.157	-44.03
214.375	35.84
214.594	5.12
214.812	60.42
215.031	17.41
215.249	-7.17
215.467	3.07
215.686	9.22
215.904	33.79
216.122	17.41
216.341	33.79
216.559	74.75
216.778	33.79
216.996	41.98
217.214	-35.84
217.432	17.41
217.651	-29.7
217.869	19.46
218.087	-3.07
218.306	-72.7
218.524	19.46
218.742	-17.41
218.96	70.65
219.179	39.94
219.397	-25.6
219.615	130.05
219.833	50.18
220.051	1.02
220.27	39.94
220.488	-13.31
220.706	27.65
220.924	-15.36
221.142	15.36
221.36	17.41
221.578	33.79
221.796	44.03
222.015	113.66
222.233	35.84
222.451	140.29
222.669	-13.31
222.887	17.41
223.105	-21.5
223.323	-44.03
223.541	5.12
223.759	74.75
223.977	-19.46
224.195	-3.07
224.413	25.6
224.631	37.89
224.849	-3.07
225.067	-5.12
225.285	-17.41
225.503	-11.26
225.721	-3.07
225.939	9.22
226.157	-19.46
226.375	41.98
226.592	60.42
226.81	5.12
227.028	9.22
227.246	35.84
227.464	-9.22
227.682	111.61
227.9	9.22
228.117	-21.5
228.335	-27.65
228.553	-39.94
228.771	44.03
228.989	-7.17
229.206	37.89
229.424	50.18
229.642	11.26
229.86	50.18
230.077	44.03
230.295	-15.36
230.513	37.89
230.731	52.22
230.948	1.02
231.166	56.32
231.384	-15.36
231.601	56.32
231.819	72.7
232.037	25.6
232.254	13.31
232.472	21.5
232.689	64.51
232.907	31.74
233.125	82.94
233.342	60.42
233.56	33.79
233.777	21.5
233.995	48.13
234.213	15.36
234.43	7.17
234.648	39.94
234.865	11.26
235.083	46.08
235.3	3.07
235.518	35.84
235.735	5.12
235.953	54.27
236.17	-7.17
236.388	9.22
236.605	13.31
236.822	-31.74
237.04	82.94
237.257	119.81
237.475	-27.65
237.692	93.18
237.909	37.89
238.127	11.26
238.344	54.27
238.562	37.89
238.779	9.22
238.996	48.13
239.214	54.27
239.431	74.75
239.648	21.5
239.865	58.37
240.083	48.13
240.3	13.31
240.517	48.13
240.735	68.61
240.952	31.74
241.169	50.18
241.386	33.79
241.603	50.18
241.821	35.84
242.038	99.33
242.255	11.26
242.472	1.02
242.689	-27.65
242.907	21.5
243.124	52.22
243.341	-1.02
243.558	-50.18
243.775	13.31
243.992	7.17
244.209	-11.26
244.426	37.89
244.643	60.42
244.86	-15.36
245.078	27.65
245.295	84.99
245.512	35.84
245.729	-95.23
245.946	17.41
246.163	-72.7
246.38	-35.84
246.597	41.98
246.814	-3.07
247.031	35.84
247.248	31.74
247.464	44.03
247.681	29.7
247.898	95.23
248.115	76.8
248.332	-29.7
248.549	-1.02
248.766	82.94
248.983	-21.5
249.2	13.31
249.417	33.79
249.633	31.74
249.85	19.46
250.067	3.07
250.284	31.74
250.501	48.13
250.717	-72.7
250.934	-21.5
251.151	-3.07
251.368	56.32
251.585	29.7
251.801	39.94
252.018	-15.36
252.235	70.65
252.451	68.61
252.668	13.31
252.885	1.02
253.102	39.94
253.318	29.7
253.535	11.26
253.752	68.61
253.968	-1.02
254.185	17.41
254.401	-9.22
254.618	62.46
254.835	46.08
255.051	46.08
255.268	29.7
255.484	37.89
255.701	-1.02
255.917	11.26
256.134	-31.74
256.351	21.5
256.567	70.65
256.784	99.33
257	44.03
257.217	103.42
257.433	41.98
257.65	31.74
257.866	11.26
258.082	50.18
258.299	46.08
258.515	128
258.732	13.31
258.948	46.08
259.165	60.42
259.381	19.46
259.597	82.94
259.814	-5.12
260.03	48.13
260.246	48.13
260.463	11.26
260.679	-7.17
260.895	62.46
261.112	84.99
261.328	54.27
261.544	-9.22
261.761	60.42
261.977	91.13
262.193	-7.17
262.409	128
262.626	35.84
262.842	-9.22
263.058	-44.03
263.274	64.51
263.49	60.42
263.707	17.41
263.923	39.94
264.139	17.41
264.355	-58.37
264.571	99.33
264.787	66.56
265.004	109.57
265.22	-7.17
265.436	9.22
265.652	-19.46
265.868	95.23
266.084	27.65
266.3	-17.41
266.516	35.84
266.732	-3.07
266.948	44.03
267.164	37.89
267.38	125.95
267.596	54.27
267.812	44.03
268.028	-3.07
268.244	13.31
268.46	5.12
268.676	-15.36
268.892	33.79
269.108	33.79
269.324	5.12
269.54	39.94
269.756	-5.12
269.972	25.6
270.188	54.27
270.403	-3.07
270.619	15.36
270.835	19.46
271.051	31.74
271.267	7.17
271.483	95.23
271.698	89.09
271.914	29.7
272.13	-56.32
272.346	7.17
272.562	13.31
272.777	87.04
272.993	5.12
273.209	99.33
273.425	-19.46
273.64	37.89
273.856	11.26
274.072	19.46
274.287	46.08
274.503	52.22
274.719	-3.07
274.934	13.31
275.15	-41.98
275.366	66.56
275.581	54.27
275.797	33.79
276.012	3.07
276.228	78.85
276.444	72.7
276.659	39.94
276.875	-35.84
277.09	-19.46
277.306	27.65
277.521	-27.65
277.737	-27.65
277.952	44.03
278.168	111.61
278.383	13.31
278.599	3.07
278.814	54.27
279.03	35.84
279.245	19.46
279.461	3.07
279.676	95.23
279.892	58.37
280.107	56.32
280.322	29.7
280.538	64.51
280.753	52.22
280.969	70.65
281.184	-5.12
281.399	58.37
281.615	9.22
281.83	107.52
282.045	-37.89
282.26	13.31
282.476	-35.84
282.691	84.99
282.906	48.13
283.122	23.55
283.337	-9.22
283.552	80.89
283.767	46.08
283.983	68.61
284.198	-3.07
284.413	74.75
284.628	35.84
284.843	1.02
285.058	60.42
285.274	50.18
285.489	44.03
285.704	78.85
285.919	41.98
286.134	-17.41
286.349	9.22
286.564	13.31
286.779	29.7
286.995	35.84
287.21	37.89
287.425	39.94
287.64	1.02
287.855	48.13
288.07	-13.31
288.285	66.56
288.5	119.81
288.715	31.74
288.93	19.46
289.145	13.31
289.36	52.22
289.575	33.79
289.79	97.28
290.004	46.08
290.219	78.85
290.434	82.94
290.649	-11.26
290.864	-9.22
291.079	21.5
291.294	-3.07
291.509	5.12
291.724	54.27
291.938	-11.26
292.153	80.89
292.368	-74.75
292.583	-37.89
292.798	41.98
293.012	74.75
293.227	41.98
293.442	41.98
293.657	-17.41
293.871	109.57
294.086	-13.31
294.301	21.5
294.516	-41.98
294.73	-27.65
294.945	37.89
295.16	-3.07
295.374	99.33
295.589	25.6
295.804	25.6
296.018	21.5
296.233	27.65
296.447	27.65
296.662	29.7
296.877	21.5
297.091	11.26
297.306	-1.02
297.52	-15.36
297.735	89.09
297.949	-23.55
298.164	13.31
298.378	50.18
298.593	9.22
298.807	-11.26
299.022	-11.26
299.236	46.08
299.451	66.56
299.665	13.31
299.88	111.61
300.094	78.85
300.309	-21.5
300.523	48.13
300.737	76.8
300.952	-7.17
301.166	25.6
301.381	-5.12
301.595	17.41
301.809	89.09
302.024	-41.98
302.238	19.46
302.452	-7.17
302.667	72.7
302.881	-3.07
303.095	-5.12
303.309	9.22
303.524	44.03
303.738	54.27
303.952	-5.12
304.166	52.22
304.381	50.18
304.595	-9.22
304.809	-31.74
305.023	48.13
305.237	-58.37
305.452	64.51
305.666	3.07
305.88	15.36
306.094	35.84
306.308	-5.12
306.522	74.75
306.736	15.36
306.95	-41.98
307.164	23.55
307.379	1.02
307.593	17.41
307.807	-1.02
308.021	-64.51
308.235	-17.41
308.449	41.98
308.663	41.98
308.877	80.89
309.091	-52.22
309.305	21.5
309.519	-13.31
309.733	115.71
309.947	15.36
310.161	97.28
310.374	15.36
310.588	-41.98
310.802	-1.02
311.016	60.42
311.23	7.17
311.444	-1.02
311.658	46.08
311.872	76.8
312.085	117.76
312.299	19.46
312.513	15.36
312.727	1.02
312.941	-64.51
313.154	-5.12
313.368	31.74
313.582	74.75
313.796	-31.74
314.009	23.55
314.223	115.71
314.437	-62.46
314.651	58.37
314.864	74.75
315.078	17.41
315.292	46.08
315.505	33.79
315.719	-21.5
315.933	48.13
316.146	-11.26
316.36	-1.02
316.573	179.2
316.787	25.6
317.001	58.37
317.214	-33.79
317.428	74.75
317.641	9.22
317.855	80.89
318.068	54.27
318.282	-35.84
318.495	41.98
318.709	7.17
318.922	13.31
319.136	93.18
319.349	7.17
319.563	56.32
319.776	44.03
319.99	37.89
320.203	-7.17
320.417	76.8
320.63	5.12
320.843	50.18
321.057	46.08
321.27	80.89
321.483	29.7
321.697	29.7
321.91	31.74
322.124	89.09
322.337	95.23
322.55	21.5
322.763	21.5
322.977	58.37
323.19	1.02
323.403	44.03
323.617	25.6
323.83	60.42
324.043	46.08
324.256	1.02
324.469	3.07
324.683	121.85
324.896	82.94
325.109	46.08
325.322	5.12
325.535	99.33
325.748	5.12
325.962	101.37
326.175	29.7
326.388	60.42
326.601	80.89
326.814	54.27
327.027	3.07
327.24	52.22
327.453	29.7
327.666	74.75
327.879	35.84
328.092	60.42
328.305	-27.65
328.518	64.51
328.731	-39.94
328.944	95.23
329.157	39.94
329.37	13.31
329.583	54.27
329.796	35.84
330.009	23.55
330.222	54.27
330.435	9.22
330.648	-9.22
330.861	39.94
331.073	76.8
331.286	5.12
331.499	123.9
331.712	60.42
331.925	41.98
332.138	21.5
332.35	25.6
332.563	25.6
332.776	70.65
332.989	-35.84
333.202	19.46
333.414	-44.03
333.627	107.52
333.84	5.12
334.053	105.47
334.265	48.13
334.478	5.12
334.691	39.94
334.903	54.27
335.116	21.5
335.329	74.75
335.541	39.94
335.754	107.52
335.966	142.33
336.179	64.51
336.392	31.74
336.604	3.07
336.817	11.26
337.029	37.89
337.242	46.08
337.454	35.84
337.667	15.36
337.88	113.66
338.092	19.46
338.305	82.94
338.517	37.89
338.729	37.89
338.942	74.75
339.154	39.94
339.367	-9.22
339.579	115.71
339.792	15.36
340.004	62.46
340.217	46.08
340.429	52.22
340.641	44.03
340.854	52.22
341.066	64.51
341.278	35.84
341.491	17.41
341.703	23.55
341.915	7.17
342.128	39.94
342.34	60.42
342.552	80.89
342.764	60.42
342.977	21.5
343.189	70.65
343.401	-7.17
343.613	50.18
343.826	70.65
344.038	25.6
344.25	41.98
344.462	80.89
344.674	-17.41
344.886	21.5
345.099	-19.46
345.311	15.36
345.523	9.22
345.735	25.6
345.947	29.7
346.159	19.46
346.371	31.74
346.583	-58.37
346.795	33.79
347.007	15.36
347.219	39.94
347.431	84.99
347.643	105.47
347.855	-27.65
348.067	89.09
348.279	-17.41
348.491	50.18
348.703	62.46
348.915	11.26
349.127	41.98
349.339	64.51
349.551	23.55
349.763	37.89
349.975	-9.22
350.187	44.03
350.399	103.42
350.61	-17.41
350.822	25.6
351.034	7.17
351.246	64.51
351.458	68.61
351.669	58.37
351.881	136.19
352.093	60.42
352.305	25.6
352.517	60.42
352.728	-31.74
352.94	74.75
353.152	119.81
353.363	-23.55
353.575	25.6
353.787	91.13
353.999	91.13
354.21	84.99
354.422	25.6
354.633	9.22
354.845	11.26
355.057	33.79
355.268	9.22
355.48	109.57
355.692	84.99
355.903	5.12
356.115	-11.26
356.326	35.84
356.538	82.94
356.749	54.27
356.961	60.42
357.172	76.8
357.384	44.03
357.595	101.37
357.807	72.7
358.018	-41.98
358.23	17.41
358.441	78.85
358.653	119.81
358.864	50.18
359.075	-17.41
359.287	54.27
359.498	31.74
359.709	31.74
359.921	23.55
360.132	29.7
360.344	-3.07
360.555	21.5
360.766	50.18
360.977	50.18
361.189	44.03
361.4	-13.31
361.611	35.84
361.823	39.94
362.034	17.41
362.245	-13.31
362.456	31.74
362.667	-44.03
362.879	41.98
363.09	78.85
363.301	56.32
363.512	31.74
363.723	37.89
363.935	-5.12
364.146	46.08
364.357	-3.07
364.568	-9.22
364.779	21.5
364.99	56.32
365.201	-54.27
365.412	7.17
365.623	1.02
365.834	29.7
366.045	58.37
366.256	84.99
366.467	66.56
366.678	134.14
366.889	-11.26
367.1	66.56
367.311	9.22
367.522	-17.41
367.733	-3.07
367.944	152.57
368.155	-19.46
368.366	46.08
368.577	48.13
368.788	66.56
368.999	-1.02
369.209	62.46
369.42	23.55
369.631	68.61
369.842	62.46
370.053	50.18
370.264	101.37
370.474	7.17
370.685	29.7
370.896	29.7
371.107	41.98
371.317	84.99
371.528	-1.02
371.739	41.98
371.95	1.02
372.16	19.46
372.371	109.57
372.582	44.03
372.792	19.46
373.003	-13.31
373.214	50.18
373.424	5.12
373.635	-48.13
373.846	27.65
374.056	-74.75
374.267	11.26
374.477	39.94
374.688	-52.22
374.898	25.6
375.109	74.75
375.319	37.89
375.53	25.6
375.74	29.7
375.951	62.46
376.161	-3.07
376.372	1.02
376.582	54.27
376.793	52.22
377.003	-13.31
377.214	25.6
377.424	1.02
377.635	27.65
377.845	9.22
378.055	44.03
378.266	25.6
378.476	76.8
378.686	21.5
378.897	56.32
379.107	17.41
379.317	70.65
379.528	21.5
379.738	72.7
379.948	-5.12
380.158	84.99
380.369	25.6
380.579	31.74
380.789	17.41
380.999	41.98
381.21	19.46
381.42	70.65
381.63	21.5
381.84	101.37
382.05	74.75
382.261	41.98
382.471	-23.55
382.681	35.84
382.891	58.37
383.101	41.98
383.311	1.02
383.521	25.6
383.731	82.94
383.941	87.04
384.151	37.89
384.361	15.36
384.571	113.66
384.781	107.52
384.991	39.94
385.201	50.18
385.411	58.37
385.621	84.99
385.831	5.12
386.041	21.5
386.251	39.94
386.461	11.26
386.671	123.9
386.881	60.42
387.091	76.8
387.301	144.38
387.511	74.75
387.72	60.42
387.93	56.32
388.14	-25.6
388.35	31.74
388.56	97.28
388.769	58.37
388.979	-5.12
389.189	17.41
389.399	50.18
389.609	-5.12
389.818	35.84
390.028	87.04
390.238	37.89
390.447	11.26
390.657	89.09
390.867	-1.02
391.076	101.37
391.286	19.46
391.496	87.04
391.705	41.98
391.915	125.95
392.125	17.41
392.334	70.65
392.544	21.5
392.753	3.07
392.963	21.5
393.172	144.38
393.382	84.99
393.591	54.27
393.801	21.5
394.01	152.57
394.22	146.43
394.429	101.37
394.639	9.22
394.848	95.23
395.058	103.42
395.267	17.41
395.477	39.94
395.686	109.57
395.895	144.38
396.105	37.89
396.314	48.13
396.524	58.37
396.733	60.42
396.942	21.5
397.152	41.98
397.361	62.46
397.57	87.04
397.78	107.52
397.989	76.8
398.198	109.57
398.407	80.89
398.617	56.32
398.826	27.65
399.035	125.95
399.244	171.01
399.453	105.47
399.663	82.94
399.872	109.57
400.081	138.24
400.29	74.75
400.499	97.28
400.708	134.14
400.917	113.66
401.127	105.47
401.336	46.08
401.545	152.57
401.754	103.42
401.963	115.71
402.172	144.38
402.381	171.01
402.59	68.61
402.799	136.19
403.008	109.57
403.217	44.03
403.426	136.19
403.635	66.56
403.844	27.65
404.053	128
404.262	152.57
404.471	168.96
404.68	93.18
404.888	115.71
405.097	121.85
405.306	136.19
405.515	128
405.724	160.77
405.933	148.48
406.142	99.33
406.35	185.34
406.559	203.77
406.768	150.53
406.977	220.16
407.185	134.14
407.394	113.66
407.603	168.96
407.812	175.1
408.02	189.44
408.229	189.44
408.438	179.2
408.646	205.82
408.855	199.68
409.064	201.72
409.272	211.96
409.481	232.44
409.69	220.16
409.898	203.77
410.107	220.16
410.315	199.68
410.524	207.87
410.733	320.51
410.941	322.56
411.15	349.18
411.358	306.17
411.567	345.08
411.775	369.66
411.984	318.46
412.192	490.49
412.401	412.67
412.609	408.57
412.818	467.96
413.026	431.1
413.234	433.15
413.443	441.34
413.651	412.67
413.86	517.11
414.068	480.25
414.276	599.03
414.485	568.31
414.693	652.28
414.901	642.04
415.11	549.88
415.318	594.93
415.526	670.71
415.734	695.29
415.943	703.48
416.151	666.61
416.359	736.24
416.567	832.5
416.776	838.64
416.984	836.6
417.192	801.78
417.4	900.08
417.608	809.97
417.817	953.33
418.025	992.24
418.233	1047.54
418.441	963.57
418.649	1010.67
418.857	1131.5
419.065	1209.33
419.273	1057.78
419.481	1238
419.689	1311.72
419.897	1352.68
420.105	1344.49
420.313	1367.02
420.521	1418.22
420.729	1395.69
420.937	1586.15
421.145	1508.33
421.353	1651.69
421.561	1772.52
421.769	1711.08
421.977	1844.2
422.185	1762.28
422.393	1915.87
422.601	1946.59
422.809	1993.7
423.017	2034.66
423.224	2071.52
423.432	2218.97
423.64	2292.7
423.848	2298.84
424.056	2249.69
424.263	2532.31
424.471	2468.83
424.679	2585.56
424.887	2614.23
425.094	2728.92
425.302	2769.88
425.51	2847.7
425.718	3056.59
425.925	2952.15
426.133	3038.16
426.341	3247.05
426.548	3529.67
426.756	3390.41
426.964	3480.52
427.171	3754.95
427.379	3744.71
427.586	3886.02
427.794	3879.88
428.001	4047.81
428.209	4217.79
428.417	4256.7
428.624	4350.91
428.832	4514.75
429.039	4537.27
429.247	4359.1
429.454	4942.77
429.662	5159.86
429.869	4791.22
430.076	5186.48
430.284	5102.51
430.491	5364.65
430.699	5452.72
430.906	5712.81
431.114	5723.05
431.321	5860.26
431.528	6126.5
431.736	6443.93
431.943	6738.84
432.15	6339.49
432.358	6536.09
432.565	7078.8
432.772	6837.14
432.979	7269.27
433.187	7379.86
433.394	7342.99
433.601	7900.04
433.808	7973.77
434.016	8029.06
434.223	8158.08
434.43	8741.75
434.637	8625.02
434.844	9223.03
435.052	9409.39
435.259	9175.92
435.466	9397.1
435.673	9294.71
435.88	9859.95
436.087	10234.72
436.294	10261.35
436.501	10204
436.708	10416.99
436.915	10720.09
437.122	11199.32
437.329	11287.38
437.537	11629.39
437.743	11684.69
437.95	11516.75
438.157	12235.59
438.364	12548.93
438.571	12440.39
438.778	12682.05
438.985	13749.04
439.192	13378.36
439.399	13792.05
439.606	13327.16
439.813	14197.54
440.02	14852.89
440.227	14623.52
440.433	14494.5
440.64	15223.58
440.847	15037.21
441.054	15444.76
441.261	16505.6
441.467	16122.63
441.674	16438.02
441.881	16732.93
442.088	16939.77
442.294	16984.83
442.501	17224.44
442.708	17752.82
442.914	18389.74
443.121	18989.79
443.328	18557.67
443.534	20007.63
443.741	19346.14
443.948	19149.53
444.154	20755.14
444.361	20296.39
444.568	20468.42
444.774	20599.49
444.981	20771.52
445.187	21469.88
445.394	22225.58
445.6	22082.22
445.807	24306.32
446.013	23278.24
446.22	23526.04
446.426	24736.39
446.633	24382.09
446.839	25760.37
447.046	24488.59
447.252	25498.23
447.459	25858.68
447.665	25610.87
447.871	27265.63
448.078	28076.63
448.284	26659.43
448.491	27417.18
448.697	28457.55
448.903	29295.17
449.11	29080.13
449.316	28600.91
449.522	29280.83
449.728	30059.06
449.935	30157.36
450.141	30282.29
450.347	31093.29
450.553	29362.75
450.76	30421.55
450.966	31447.58
451.172	30655.02
451.378	31601.18
451.584	31048.23
451.791	31795.74
451.997	31533.6
452.203	32340.5
452.409	32215.57
452.615	31969.82
452.821	31242.79
453.027	30655.02
453.233	32238.1
453.44	30767.66
453.646	31664.67
453.852	31199.78
454.058	31816.22
454.264	30747.18
454.47	31732.25
454.676	30517.81
454.882	31832.6
455.088	29030.98
455.294	29657.66
455.5	30190.13
455.705	30079.54
455.911	29014.6
456.117	28344.91
456.323	28344.91
456.529	26667.63
456.735	27794.01
456.941	27171.43
457.147	26600.04
457.352	26002.04
457.558	25780.85
457.764	25711.22
457.97	25197.18
458.176	24871.56
458.381	24844.93
458.587	23276.19
458.793	23421.59
458.999	22350.51
459.204	23829.14
459.41	23278.24
459.616	21863.09
459.821	21433.02
460.027	21426.87
460.233	21091.01
460.438	19964.62
460.644	20402.89
460.85	19106.52
461.055	19231.45
461.261	18778.85
461.466	17609.46
461.672	16952.06
461.878	18369.26
462.083	17085.18
462.289	16784.13
462.494	16757.5
462.7	16110.35
462.905	15119.13
463.111	16169.74
463.316	16214.79
463.522	15561.49
463.727	15508.24
463.932	15794.96
464.138	15455
464.343	15452.95
464.549	15188.76
464.754	15510.29
464.959	15575.83
465.165	15192.86
465.37	14553.89
465.575	14209.83
465.781	14854.94
465.986	15215.38
466.191	14402.34
466.397	14160.68
466.602	13427.51
466.807	13953.84
467.012	13751.09
467.218	13755.18
467.423	13808.43
467.628	13851.44
467.833	14353.19
468.038	13761.33
468.244	13402.93
468.449	14039.85
468.654	13302.58
468.859	13245.24
469.064	13400.88
469.269	12688.19
469.474	12804.92
469.679	13083.45
469.885	12565.31
470.09	13058.87
470.295	12829.5
470.5	12667.71
470.705	12624.7
470.91	12577.6
471.115	12372.8
471.32	12555.07
471.525	12383.04
471.73	11942.73
471.935	12104.52
472.139	11707.21
472.344	11696.97
472.549	11682.64
472.754	11545.42
472.959	11389.78
473.164	11055.96
473.369	11086.68
473.574	11279.19
473.778	11197.27
473.983	11287.38
474.188	11150.17
474.393	10689.37
474.598	10713.95
474.802	10503.01
475.007	10591.07
475.212	10455.9
475.417	10029.93
475.621	10021.74
475.826	10185.57
476.031	9814.89
476.235	9683.82
476.44	9771.88
476.645	9780.07
476.849	9413.49
477.054	9517.93
477.259	9243.51
477.463	9560.94
477.668	9147.25
477.872	9198.45
478.077	8893.3
478.282	9102.2
478.486	8856.44
478.691	8774.52
478.895	8686.46
479.1	8731.51
479.304	8694.65
479.509	8588.16
479.713	8760.19
479.918	8604.54
480.122	8260.48
480.326	8575.87
480.531	8393.6
480.735	8311.68
480.94	8121.22
481.144	8629.12
481.348	8092.55
481.553	8143.75
481.757	8008.58
481.961	8194.95
482.166	8305.54
482.37	8055.69
482.574	7953.29
482.778	8037.25
482.983	8297.35
483.187	8229.76
483.391	8227.71
483.595	7979.91
483.8	7809.93
484.004	7961.48
484.208	8221.57
484.412	7926.66
484.616	8061.83
484.821	8010.63
485.025	7732.11
485.229	8029.06
485.433	7998.34
485.637	8094.6
485.841	7945.09
486.045	7818.12
486.249	8127.36
486.453	8176.52
486.657	8022.92
486.861	8262.53
487.065	7900.04
487.269	7959.43
487.473	8115.08
487.677	8080.26
487.881	8158.08
488.085	7904.14
488.289	8043.4
488.493	7838.6
488.697	8160.13
488.901	8147.84
489.105	7936.9
489.309	8076.16
489.512	8106.88
489.716	8084.36
489.92	8170.37
490.124	8205.19
490.328	8264.58
490.531	8211.33
490.735	8158.08
490.939	8211.33
491.143	8117.12
491.346	8348.54
491.55	8401.79
491.754	8416.13
491.958	8373.12
492.161	8178.56
492.365	8350.59
492.569	8582.01
492.772	8360.83
492.976	8401.79
493.18	8446.85
493.383	8653.69
493.587	8569.73
493.79	8790.91
493.994	8665.98
494.197	8803.19
494.401	8866.68
494.605	8776.57
494.808	9132.92
495.012	9286.51
495.215	9112.44
495.419	9231.22
495.622	9233.27
495.825	9335.67
496.029	9239.41
496.232	9532.27
496.436	9347.95
496.639	9694.06
496.843	9601.9
497.046	9898.86
497.249	9995.11
497.453	9917.29
497.656	10042.21
497.859	10070.89
498.063	10206.05
498.266	10412.9
498.469	10220.39
498.673	10507.1
498.876	10607.45
499.079	10799.96
499.282	10701.66
499.485	10818.39
499.689	10896.22
499.892	11252.56
500.095	11023.19
500.298	11375.44
500.501	11301.72
500.705	11531.09
500.908	11717.45
501.111	11866.95
501.314	11995.98
501.517	12120.9
501.72	12165.96
501.923	12403.52
502.126	12475.2
502.329	12624.7
502.532	12735.29
502.735	12925.75
502.938	13050.68
503.141	13175.61
503.344	13357.88
503.547	13507.38
503.75	13759.28
503.953	13912.88
504.156	13873.96
504.359	13931.31
504.562	14263.08
504.765	14414.63
504.968	14420.77
505.17	14799.65
505.373	14742.3
505.576	15055.64
505.779	15233.82
505.982	15213.34
506.185	15522.58
506.387	15442.71
506.59	15694.61
506.793	16024.33
506.996	16022.28
507.198	16384.77
507.401	16360.2
507.604	16409.35
507.807	16728.83
508.009	17099.52
508.212	17095.42
508.415	17203.96
508.617	17165.05
508.82	17490.68
509.022	17255.16
509.225	18100.97
509.428	18123.5
509.63	18057.96
509.833	18283.24
510.035	18985.69
510.238	18623.2
510.44	19081.95
510.643	19108.57
510.845	19067.61
511.048	19106.52
511.25	19569.37
511.453	19602.13
511.655	20075.21
511.858	20118.22
512.06	20257.48
512.262	20585.16
512.465	20456.14
512.667	20835.01
512.87	21207.74
513.072	21222.08
513.274	21228.22
513.477	21598.9
513.679	21916.34
513.881	22047.41
514.084	22477.48
514.286	22246.06
514.488	22434.47
514.69	23151.26
514.893	23134.88
515.095	22985.38
515.297	23538.33
515.499	23573.14
515.701	23886.48
515.904	23802.52
516.106	24136.34
516.308	24484.49
516.51	24638.09
516.712	24758.92
516.914	25289.34
517.116	25215.62
517.318	25377.4
517.52	25612.92
517.722	25686.65
517.925	26131.06
518.127	26313.33
518.329	26563.18
518.531	26475.12
518.733	26649.19
518.935	27112.03
519.136	26915.43
519.338	27437.66
519.54	27697.75
519.742	27916.89
519.944	28123.73
520.146	28596.81
520.348	28289.62
520.55	28627.53
520.752	28885.58
520.954	29356.61
521.155	28836.42
521.357	29633.08
521.559	29735.48
521.761	30247.47
521.963	29971
522.164	30458.42
522.366	30560.81
522.568	30585.39
522.77	30788.14
522.971	31271.46
523.173	31033.89
523.375	31531.55
523.576	31291.94
523.778	31472.16
523.98	32043.54
524.181	32193.04
524.383	32211.48
524.584	32506.38
524.786	32987.66
524.988	32381.46
525.189	32911.88
525.391	33462.79
525.592	33159.69
525.794	33147.4
525.995	33530.37
526.197	33528.32
526.398	33989.11
526.6	34052.6
526.801	33976.83
527.003	34281.97
527.204	34204.15
527.406	34744.81
527.607	34597.36
527.808	34929.13
528.01	34347.51
528.211	34466.29
528.412	35113.45
528.614	35189.22
528.815	35267.05
529.016	35869.15
529.218	35133.93
529.419	35578.34
529.62	35891.68
529.822	35236.33
530.023	36061.66
530.224	36006.36
530.425	35666.4
530.626	35885.53
530.828	35699.17
531.029	36188.63
531.23	35742.17
531.431	35961.31
531.632	36026.84
531.833	36041.18
532.035	36035.03
532.236	36028.89
532.437	36512.21
532.638	36225.5
532.839	36305.37
533.04	36473.3
533.241	35981.79
533.442	37009.87
533.643	36549.07
533.844	36395.48
534.045	36686.29
534.246	36174.3
534.447	36710.86
534.648	36571.6
534.849	36786.64
535.05	36362.71
535.251	36696.53
535.451	36483.54
535.652	36706.77
535.853	36602.32
536.054	36676.05
536.255	37140.94
536.456	36432.34
536.657	37099.98
536.857	36524.5
537.058	36661.71
537.259	36770.25
537.46	37159.37
537.66	36495.83
537.861	37231.05
538.062	36739.54
538.263	36899.28
538.463	36413.91
538.664	36551.12
538.865	37169.61
539.065	37171.66
539.266	36676.05
539.466	36901.32
539.667	36264.41
539.868	37120.46
540.068	37011.92
540.269	36719.06
540.469	37188.04
540.67	36776.4
540.87	36790.73
541.071	36649.42
541.271	36610.51
541.472	37097.93
541.672	36624.85
541.873	36667.86
542.073	36321.75
542.274	36624.85
542.474	36377.04
542.675	36362.71
542.875	36792.78
543.075	36440.53
543.276	36082.14
543.476	36682.19
543.676	36403.67
543.877	36469.2
544.077	36571.6
544.277	36243.93
544.478	36628.95
544.678	36782.54
544.878	36469.2
545.078	36604.37
545.279	36547.03
545.479	36487.64
545.679	36557.27
545.879	36725.2
546.079	36690.38
546.28	36381.14
546.48	36239.83
546.68	36532.69
546.88	36790.73
547.08	36637.14
547.28	36409.81
547.48	36411.86
547.68	36364.76
547.88	36469.2
548.081	36499.92
548.281	36516.31
548.481	36022.75
548.681	36559.31
548.881	36418
549.081	36411.86
549.28	36452.82
549.48	36434.39
549.68	36004.31
549.88	37099.98
550.08	35940.83
550.28	36743.63
550.48	35951.07
550.68	36587.99
550.88	36440.53
551.08	36317.65
551.279	36430.29
551.479	36035.03
551.679	36413.91
551.879	36145.62
552.079	36526.55
552.278	36286.93
552.478	36422.1
552.678	36358.61
552.878	36186.58
553.077	36172.25
553.277	35733.98
553.477	36229.59
553.676	36063.71
553.876	35856.86
554.076	36096.47
554.275	35727.84
554.475	35520.99
554.674	36084.19
554.874	36307.41
555.074	35697.12
555.273	35910.11
555.473	36424.15
555.672	35406.31
555.872	35578.34
556.071	35750.37
556.271	35901.92
556.47	35922.4
556.67	35637.73
556.869	35854.81
557.068	35815.9
557.268	35590.62
557.467	35275.24
557.667	35477.99
557.866	35473.89
558.065	35776.99
558.265	35416.55
558.464	35105.26
558.663	35529.19
558.863	34810.35
559.062	35795.42
559.261	34771.44
559.461	35453.41
559.66	34558.45
559.859	34947.56
560.058	34802.16
560.258	34992.62
560.457	34597.36
560.656	35041.77
560.855	34767.34
561.054	35060.2
561.253	34464.24
561.453	34710
561.652	34705.9
561.851	34800.11
562.05	34257.4
562.249	34349.56
562.448	34427.38
562.647	34294.26
562.846	34183.67
563.045	34247.16
563.244	34015.74
563.443	34339.32
563.642	33450.5
563.841	33776.12
564.04	34195.96
564.239	34249.21
564.438	33702.4
564.637	33585.66
564.836	33763.84
565.035	33153.54
565.234	33722.88
565.432	33225.22
565.631	33153.54
565.83	33446.4
566.029	32989.7
566.228	32756.24
566.427	33145.35
566.625	32897.55
566.824	32797.2
567.023	32809.48
567.222	32426.51
567.42	33262.08
567.619	32672.27
567.818	32543.25
568.016	32537.1
568.215	32854.54
568.414	32217.62
568.612	32606.73
568.811	32113.17
569.01	32037.4
569.208	31791.64
569.407	32176.66
569.605	31670.81
569.804	32182.8
570.002	31658.52
570.201	31969.82
570.4	31490.59
570.598	31320.61
570.797	31420.96
570.995	31304.23
571.193	31042.09
571.392	31676.96
571.59	31539.74
571.789	31326.75
571.987	30958.12
572.186	31029.8
572.384	30831.15
572.582	30761.51
572.781	30859.82
572.979	30640.68
573.177	30730.8
573.376	30753.32
573.574	30493.23
573.772	30376.5
573.971	30560.81
574.169	30265.91
574.367	30317.11
574.565	30399.02
574.763	30044.73
574.962	29952.57
575.16	29887.03
575.358	29862.46
575.556	29293.12
575.754	30149.17
575.952	29334.08
576.151	29784.63
576.349	29297.22
576.547	29465.15
576.745	28985.93
576.943	29252.16
577.141	29426.24
577.339	29231.68
577.537	28750.41
577.735	29106.76
577.933	28680.78
578.131	28873.29
578.329	28842.57
578.527	28783.18
578.725	28686.92
578.923	28748.36
579.121	28467.79
579.319	28181.07
579.516	28375.63
579.714	28142.16
579.912	28250.7
580.11	27931.22
580.308	28213.84
580.506	27914.84
580.704	27558.49
580.901	27984.47
581.099	27855.45
581.297	27601.5
581.495	27587.16
581.692	27365.98
581.89	27447.9
582.088	27456.09
582.285	27015.78
582.483	27656.79
582.681	27202.14
582.878	27216.48
583.076	27028.07
583.274	26993.25
583.471	26675.82
583.669	26927.72
583.866	26643.05
584.064	26897
584.262	26438.25
584.459	26317.42
584.657	26298.99
584.854	26503.79
585.052	25926.26
585.249	26120.82
585.447	26227.31
585.644	25961.08
585.841	26313.33
586.039	26477.16
586.236	26081.91
586.434	25961.08
586.631	25803.38
586.828	25768.57
587.026	25490.04
587.223	25625.21
587.42	25680.5
587.618	25389.69
587.815	25174.66
588.012	25346.69
588.21	25352.83
588.407	25418.36
588.604	24832.65
588.801	24765.06
588.999	25039.49
589.196	24652.42
589.393	25008.77
589.59	24816.26
589.787	24855.17
589.984	24615.56
590.182	24447.63
590.379	24636.04
590.576	24275.6
590.773	24142.48
590.97	24171.15
591.167	24261.26
591.364	23978.64
591.561	24107.66
591.758	23962.26
591.955	23972.5
592.152	23847.57
592.349	23663.25
592.546	23874.2
592.743	23804.56
592.94	23519.9
593.137	23585.43
593.334	23935.63
593.531	23335.58
593.727	23321.24
593.924	23177.89
594.121	23153.31
594.318	23239.33
594.515	23071.39
594.712	23153.31
594.908	22796.96
595.105	22756
595.302	22891.17
595.499	22975.14
595.696	22852.26
595.892	22440.62
596.089	22594.22
596.286	22493.86
596.482	22594.22
596.679	22407.85
596.876	22223.53
597.072	22293.16
597.269	22362.79
597.466	21912.24
597.662	21926.58
597.859	21824.18
598.055	21918.39
598.252	21605.05
598.448	21957.3
598.645	21686.97
598.841	21447.35
599.038	21553.85
599.234	21430.97
599.431	21453.5
599.627	21398.2
599.824	21435.06
600.02	21306.04
600.217	21146.3
600.413	20814.53
600.609	21127.87
600.806	21058.24
601.002	21115.58
601.198	21056.19
601.395	20875.97
601.591	20337.35
601.787	20886.21
601.984	20742.85
602.18	20736.71
602.376	20509.38
602.572	20114.13
602.769	20255.43
602.965	20325.07
603.161	20417.22
603.357	20257.48
603.553	20302.54
603.75	20081.36
603.946	19909.33
604.142	19970.77
604.338	19989.2
604.534	19909.33
604.73	19534.55
604.926	19374.81
605.122	19503.83
605.318	19585.75
605.514	19655.38
605.71	19172.06
605.906	19208.92
606.102	19352.28
606.298	19491.54
606.494	19352.28
606.69	19393.24
606.886	19237.59
607.082	18754.27
607.278	19161.82
607.474	18707.17
607.67	18987.74
607.866	18600.68
608.062	18928.35
608.257	18594.53
608.453	19053.28
608.649	18844.38
608.845	18600.68
609.041	18709.22
609.236	18635.49
609.432	18569.96
609.628	18369.26
609.824	18438.89
610.019	18406.12
610.215	18584.29
610.411	18488.04
610.606	18320.1
610.802	18311.91
610.998	18160.36
611.193	17953.52
611.389	18129.64
611.584	18143.98
611.78	17986.29
611.976	18148.08
612.171	18107.12
612.367	18246.38
612.562	17844.98
612.758	17709.81
612.953	17640.18
613.149	17687.28
613.344	17566.45
613.539	18053.87
613.735	17742.58
613.93	17591.03
614.126	17421.05
614.321	17832.69
614.517	17543.92
614.712	17443.57
614.907	17568.5
615.103	17568.5
615.298	17363.7
615.493	17586.93
615.688	17369.85
615.884	17521.4
616.079	17283.83
616.274	17679.09
616.47	17277.69
616.665	17267.45
616.86	17515.25
617.055	17175.29
617.25	17257.21
617.445	17267.45
617.641	16757.5
617.836	16888.57
618.031	16829.18
618.226	16843.52
618.421	16698.11
618.616	17093.37
618.811	16710.4
619.006	16489.22
619.201	16255.75
619.396	16487.17
619.591	16261.9
619.786	16440.07
619.981	16126.73
620.176	16442.12
620.371	16265.99
620.566	16188.17
620.761	16050.96
620.956	16175.88
621.151	15774.48
621.346	16134.92
621.541	15723.28
621.735	15688.46
621.93	15657.75
622.125	15485.72
622.32	15338.26
622.515	15387.41
622.709	15457.04
622.904	15262.49
623.099	15514.39
623.294	15121.18
623.488	14971.68
623.683	14983.96
623.878	14838.56
624.072	14893.85
624.267	14707.49
624.462	14498.59
624.656	14654.24
624.851	14658.34
625.046	14207.78
625.24	14418.72
625.435	14240.55
625.629	14187.3
625.824	14240.55
626.018	14105.38
626.213	13908.78
626.407	13955.88
626.602	13574.96
626.796	13790
626.991	13765.42
627.185	13679.41
627.38	13599.54
627.574	13329.2
627.768	13126.46
627.963	13396.79
628.157	13124.41
628.352	13087.54
628.546	13255.48
628.74	13058.87
628.935	12784.44
629.129	12831.55
629.323	12616.51
629.517	12749.63
629.712	12567.36
629.906	12387.14
630.1	12559.17
630.294	12583.74
630.489	12407.62
630.683	12376.9
630.877	12381
631.071	12069.7
631.265	12176.2
631.459	12182.34
631.653	12000.07
631.848	12020.55
632.042	11785.04
632.236	12067.66
632.43	11719.5
632.624	11871.05
632.818	11768.65
633.012	11465.55
633.206	11420.5
633.4	11459.41
633.594	11332.44
633.788	11408.21
633.982	11291.48
634.176	11242.32
634.369	11223.89
634.563	11303.76
634.757	11127.64
634.951	11019.1
635.145	11135.83
635.339	11074.39
635.533	10992.47
635.726	10795.87
635.92	10894.17
636.114	10697.56
636.308	10361.7
636.501	10507.1
636.695	10578.78
636.889	10347.36
637.083	10382.18
637.276	10343.27
637.47	10161
637.664	10161
637.857	10087.27
638.051	10165.09
638.244	10167.14
638.438	9978.73
638.632	9974.63
638.825	9917.29
639.019	9982.82
639.212	9696.11
639.406	9876.33
639.599	9692.01
639.793	9745.26
639.986	9374.58
640.18	9530.22
640.373	9544.56
640.567	9505.65
640.76	9554.8
640.954	9403.25
641.147	9202.55
641.34	9157.49
641.534	9288.56
641.727	9089.91
641.92	9354.1
642.114	8928.12
642.307	8995.7
642.5	8977.27
642.694	8987.51
642.887	8895.35
643.08	8924.02
643.273	8967.03
643.467	8739.71
643.66	8788.86
643.853	8553.34
644.046	8502.14
644.239	8461.18
644.432	8534.91
644.626	8446.85
644.819	8440.7
645.012	8436.61
645.205	8344.45
645.398	8371.07
645.591	8139.65
645.784	8356.74
645.977	8297.35
646.17	8117.12
646.363	8131.46
646.556	7926.66
646.749	8127.36
646.942	8002.44
647.135	8035.21
647.328	7967.62
647.521	8092.55
647.714	7738.25
647.907	7627.66
648.099	7639.95
648.292	7648.14
648.485	7574.41
648.678	7732.11
648.871	7553.93
649.064	7455.63
649.256	7617.42
649.449	7400.34
649.642	7429.01
649.835	7379.86
650.027	7252.88
650.22	7123.86
650.413	7199.63
650.605	7250.83
650.798	6990.74
650.991	7078.8
651.183	6996.89
651.376	6867.86
651.568	7084.95
651.761	6976.41
651.954	6943.64
652.146	6896.53
652.339	6828.95
652.531	6792.09
652.724	6656.92
652.916	6816.66
653.109	6648.73
653.301	6679.45
653.494	6681.5
653.686	6583.2
653.879	6867.86
654.071	6509.47
654.263	6589.34
654.456	6480.8
654.648	6513.56
654.84	6382.49
655.033	6429.6
655.225	6198.18
655.417	6214.56
655.61	6218.66
655.802	6370.21
655.994	6298.53
656.186	6429.6
656.379	6151.07
656.571	6204.32
656.763	5948.33
656.955	6120.35
657.148	5977
657.34	5989.28
657.532	5845.93
657.724	5921.7
657.916	6009.76
658.108	5845.93
658.3	5790.63
658.492	5923.75
658.684	5827.5
658.876	5598.12
659.068	5663.66
659.26	5626.79
659.452	5759.91
659.644	5614.51
659.836	5630.89
660.028	5692.33
660.22	5452.72
660.412	5645.23
660.604	5534.64
660.796	5583.79
660.988	5497.77
661.18	5454.76
661.372	5366.7
661.563	5419.95
661.755	5276.59
661.947	5456.81
662.139	5411.76
662.331	5227.44
662.522	5206.96
662.714	5229.49
662.906	5297.07
663.097	5186.48
663.289	5274.54
663.481	5098.42
663.673	5051.31
663.864	5041.08
664.056	5153.71
664.247	4848.57
664.439	4938.68
664.631	4918.2
664.822	4830.13
665.014	4973.49
665.205	5018.55
665.397	4860.85
665.588	4989.88
665.78	4780.98
665.971	4809.65
666.163	4748.22
666.354	4727.74
666.546	4672.44
666.737	4641.72
666.929	4676.54
667.12	4737.98
667.311	4613.05
667.503	4514.75
667.694	4531.13
667.885	4645.82
668.077	4449.21
668.268	4502.46
668.459	4539.32
668.651	4471.74
668.842	4611
669.033	4481.98
669.224	4451.26
669.416	4334.53
669.607	4363.2
669.798	4535.23
669.989	4567.99
670.18	4389.82
670.371	4373.44
670.563	4420.54
670.754	4332.48
670.945	4271.04
671.136	4385.73
671.327	4254.66
671.518	4314.05
671.709	4293.57
671.9	4232.13
672.091	4096.96
672.282	4230.08
672.473	4158.4
672.664	4158.4
672.855	4107.2
673.046	4082.63
673.237	4021.19
673.428	4033.47
673.619	4297.66
673.809	4041.67
674	4094.91
674.191	4043.71
674.382	4144.06
674.573	4027.33
674.764	3851.21
674.954	3947.46
675.145	4039.62
675.336	3853.25
675.527	3910.6
675.717	3879.88
675.908	3967.94
676.099	3867.59
676.289	3722.18
676.48	3908.55
676.671	3904.45
676.861	3926.98
677.052	3912.64
677.243	3877.83
677.433	3816.39
677.624	3816.39
677.814	3746.76
678.005	3834.82
678.195	3695.56
678.386	3832.77
678.576	3711.94
678.767	3806.15
678.957	3800.01
679.148	3720.14
679.338	3859.4
679.529	3642.31
679.719	3791.81
679.909	3673.03
680.1	3644.36
680.29	3732.42
680.481	3722.18
680.671	3761.09
680.861	3687.37
681.052	3757
681.242	3718.09
681.432	3660.74
681.622	3713.99
681.813	3640.26
682.003	3636.17
682.193	3695.56
682.383	3658.7
682.573	3630.02
682.764	3541.96
682.954	3664.84
683.144	3742.66
683.334	3462.09
683.524	3494.86
683.714	3437.52
683.904	3587.02
684.094	3523.53
684.284	3546.06
684.474	3527.63
684.664	3525.58
684.854	3470.28
685.044	3554.25
685.234	3398.6
685.424	3515.34
685.614	3421.13
685.804	3519.43
685.994	3492.81
686.184	3541.96
686.374	3410.89
686.564	3478.47
686.753	3316.69
686.943	3382.22
687.133	3292.11
687.323	3398.6
687.513	3386.32
687.702	3232.72
687.892	3281.87
688.082	3458
688.272	3335.12
688.461	3124.18
688.651	3261.39
688.841	3169.23
689.03	3120.08
689.22	3300.3
689.41	3189.71
689.599	3199.95
689.789	3240.91
689.979	3118.03
690.168	3179.47
690.358	3193.81
690.547	3138.51
690.737	3075.03
690.926	3091.41
691.116	3019.73
691.305	3173.33
691.495	3050.45
691.684	2905.04
691.874	2976.72
692.063	3091.41
692.252	2972.63
692.442	2966.48
692.631	2829.27
692.82	2935.76
693.01	2952.15
693.199	2921.43
693.388	2874.32
693.578	2831.32
693.767	2941.91
693.956	2819.03
694.146	2696.15
694.335	2905.04
694.524	2923.48
694.713	2857.94
694.902	2810.84
695.092	2843.6
695.281	2804.69
695.47	2806.74
695.659	2804.69
695.848	2792.41
696.037	2780.12
696.226	2808.79
696.415	2694.1
696.604	2763.73
696.793	2710.49
696.982	2784.21
697.171	2724.82
697.36	2737.11
697.549	2741.21
697.738	2728.92
697.927	2769.88
698.116	2714.58
698.305	2589.66
698.494	2747.35
698.683	2638.81
698.872	2759.64
699.061	2657.24
699.25	2558.94
699.438	2739.16
699.627	2556.89
699.816	2618.33
700.005	2669.53
700.193	2642.9
700.382	2638.81
700.571	2526.17
700.76	2698.2
700.948	2663.38
701.137	2614.23
701.326	2687.96
701.514	2528.22
701.703	2616.28
701.892	2595.8
702.08	2673.62
702.269	2579.42
702.457	2608.09
702.646	2755.54
702.834	2554.84
703.023	2511.83
703.212	2567.13
703.4	2663.38
703.589	2505.69
703.777	2616.28
703.965	2509.79
704.154	2655.19
704.342	2567.13
704.531	2528.22
704.719	2503.64
704.907	2636.76
705.096	2542.55
705.284	2577.37
705.472	2585.56
705.661	2722.77
705.849	2737.11
706.037	2522.07
706.226	2573.27
706.414	2511.83
706.602	2565.08
706.79	2534.36
706.979	2560.98
707.167	2573.27
707.355	2597.85
707.543	2575.32
707.731	2538.46
707.919	2517.98
708.107	2538.46
708.296	2618.33
708.484	2593.75
708.672	2608.09
708.86	2583.51
709.048	2491.35
709.236	2587.61
709.424	2493.4
709.612	2505.69
709.8	2597.85
709.988	2477.02
710.176	2589.66
710.364	2616.28
710.551	2679.77
710.739	2462.68
710.927	2636.76
711.115	2491.35
711.303	2591.7
711.491	2569.18
711.679	2454.49
711.866	2505.69
712.054	2653.14
712.242	2536.41
712.43	2608.09
712.617	2548.7
712.805	2667.48
712.993	2667.48
713.181	2460.63
713.368	2538.46
713.556	2583.51
713.744	2511.83
713.931	2618.33
714.119	2558.94
714.306	2565.08
714.494	2622.42
714.682	2573.27
714.869	2589.66
715.057	2616.28
715.244	2497.5
715.432	2565.08
715.619	2628.57
715.807	2536.41
715.994	2601.94
716.182	2503.64
716.369	2636.76
716.556	2587.61
716.744	2608.09
716.931	2477.02
717.119	2581.46
717.306	2636.76
717.493	2649.05
717.681	2532.31
717.868	2579.42
718.055	2653.14
718.242	2593.75
718.43	2626.52
718.617	2677.72
718.804	2579.42
718.991	2612.18
719.179	2630.62
719.366	2612.18
719.553	2663.38
719.74	2595.8
719.927	2608.09
720.114	2536.41
720.301	2548.7
720.488	2522.07
720.676	2614.23
720.863	2665.43
721.05	2597.85
721.237	2591.7
721.424	2603.99
721.611	2524.12
721.798	2628.57
721.985	2546.65
722.172	2601.94
722.358	2481.11
722.545	2687.96
722.732	2730.97
722.919	2638.81
723.106	2681.82
723.293	2597.85
723.48	2589.66
723.667	2388.96
723.853	2581.46
724.04	2673.62
724.227	2501.59
724.414	2694.1
724.6	2601.94
724.787	2716.63
724.974	2603.99
725.161	2644.95
725.347	2585.56
725.534	2728.92
725.72	2632.66
725.907	2610.14
726.094	2630.62
726.28	2671.58
726.467	2606.04
726.653	2644.95
726.84	2583.51
727.027	2632.66
727.213	2581.46
727.4	2599.9
727.586	2534.36
727.773	2694.1
727.959	2626.52
728.145	2696.15
728.332	2735.06
728.518	2698.2
728.705	2706.39
728.891	2632.66
729.077	2657.24
729.264	2560.98
729.45	2638.81
729.636	2728.92
729.823	2671.58
730.009	2579.42
730.195	2796.5
730.382	2765.78
730.568	2642.9
730.754	2642.9
730.94	2593.75
731.126	2663.38
731.313	2694.1
731.499	2612.18
731.685	2753.49
731.871	2511.83
732.057	2644.95
732.243	2675.67
732.429	2722.77
732.615	2630.62
732.801	2587.61
732.987	2620.38
733.173	2642.9
733.359	2675.67
733.545	2528.22
733.731	2698.2
733.917	2606.04
734.103	2636.76
734.289	2565.08
734.475	2636.76
734.661	2589.66
734.847	2628.57
735.033	2659.29
735.219	2647
735.404	2569.18
735.59	2655.19
735.776	2552.79
735.962	2640.86
736.148	2790.36
736.333	2560.98
736.519	2612.18
736.705	2616.28
736.89	2583.51
737.076	2511.83
737.262	2536.41
737.447	2509.79
737.633	2569.18
737.819	2585.56
738.004	2560.98
738.19	2622.42
738.375	2501.59
738.561	2530.27
738.747	2563.03
738.932	2612.18
739.118	2481.11
739.303	2532.31
739.489	2671.58
739.674	2468.83
739.859	2399.2
740.045	2638.81
740.23	2565.08
740.416	2456.54
740.601	2630.62
740.786	2472.92
740.972	2517.98
741.157	2530.27
741.342	2395.1
741.528	2456.54
741.713	2468.83
741.898	2454.49
742.084	2462.68
742.269	2438.11
742.454	2530.27
742.639	2485.21
742.824	2356.19
743.01	2456.54
743.195	2376.67
743.38	2431.96
743.565	2405.34
743.75	2345.95
743.935	2393.05
744.12	2393.05
744.305	2210.78
744.49	2329.56
744.675	2264.03
744.86	2280.41
745.045	2278.37
745.23	2298.84
745.415	2221.02
745.6	2266.08
745.785	2288.61
745.97	2323.42
746.155	2225.12
746.34	2178.01
746.525	2255.84
746.71	2212.83
746.895	2104.29
747.079	2159.58
747.264	2182.11
747.449	2143.2
747.634	2186.21
747.819	2069.47
748.003	2108.38
748.188	1999.84
748.373	2077.66
748.557	2044.9
748.742	2132.96
748.927	2001.89
749.111	2018.27
749.296	1973.22
749.481	2020.32
749.665	1905.63
749.85	2087.9
750.034	1907.68
750.219	1944.55
750.404	1971.17
750.588	1842.15
750.773	1924.07
750.957	1936.35
751.141	1817.57
751.326	1864.68
751.51	1870.82
751.695	1844.2
751.879	1774.56
752.064	1833.96
752.248	1819.62
752.432	1850.34
752.617	1704.93
752.801	1868.77
752.985	1659.88
753.17	1797.09
753.354	1711.08
753.538	1731.56
753.722	1700.84
753.907	1580.01
754.091	1715.17
754.275	1653.73
754.459	1606.63
754.643	1690.6
754.828	1659.88
755.012	1594.34
755.196	1559.53
755.38	1553.38
755.564	1637.35
755.748	1565.67
755.932	1680.36
756.116	1653.73
756.3	1461.23
756.484	1545.19
756.668	1463.27
756.852	1377.26
757.036	1549.29
757.22	1358.83
757.404	1479.66
757.588	1362.92
757.772	1416.17
757.956	1397.74
758.14	1438.7
758.323	1520.62
758.507	1457.13
758.691	1340.4
758.875	1367.02
759.059	1375.21
759.242	1334.25
759.426	1491.95
759.61	1350.64
759.794	1371.12
759.977	1471.47
760.161	1457.13
760.345	1319.92
760.528	1336.3
760.712	1344.49
760.895	1291.24
761.079	1276.91
761.263	1330.16
761.446	1238
761.63	1321.96
761.813	1285.1
761.997	1233.9
762.18	1373.16
762.364	1213.42
762.547	1209.33
762.731	1205.23
762.914	1203.18
763.098	1199.09
763.281	1213.42
763.464	1211.37
763.648	1270.76
763.831	1223.66
764.015	1190.89
764.198	1143.79
764.381	1199.09
764.564	1209.33
764.748	1201.13
764.931	1223.66
765.114	1111.02
765.297	1158.13
765.481	1080.3
765.664	1178.61
765.847	1176.56
766.03	1070.06
766.213	986.1
766.397	1070.06
766.58	1006.58
766.763	1160.17
766.946	1049.58
767.129	1092.59
767.312	1035.25
767.495	1065.97
767.678	1080.3
767.861	1078.26
768.044	1061.87
768.227	1080.3
768.41	1127.41
768.593	1047.54
768.776	959.47
768.959	990.19
769.142	998.38
769.324	977.91
769.507	1055.73
769.69	961.52
769.873	969.71
770.056	1008.62
770.239	1080.3
770.421	977.91
770.604	1018.86
770.787	941.04
770.97	1027.06
771.152	1057.78
771.335	992.24
771.518	885.75
771.7	998.38
771.883	1016.82
772.066	1014.77
772.248	914.42
772.431	928.75
772.613	979.95
772.796	936.95
772.978	906.23
773.161	1008.62
773.343	887.79
773.526	961.52
773.708	904.18
773.891	889.84
774.073	875.51
774.256	818.16
774.438	881.65
774.621	918.51
774.803	873.46
774.985	857.07
775.168	867.31
775.35	812.02
775.532	889.84
775.715	844.79
775.897	818.16
776.079	816.12
776.261	756.72
776.444	766.96
776.626	871.41
776.808	680.95
776.99	779.25
777.173	803.83
777.355	762.87
777.537	750.58
777.719	742.39
777.901	797.68
778.083	775.16
778.265	699.38
778.447	752.63
778.629	740.34
778.811	762.87
778.993	687.09
779.175	693.24
779.357	642.04
779.539	672.76
779.721	639.99
779.903	652.28
780.085	687.09
780.267	644.09
780.449	676.85
780.631	637.94
780.812	603.13
780.994	703.48
781.176	658.42
781.358	594.93
781.54	672.76
781.721	613.37
781.903	689.14
782.085	676.85
782.267	568.31
782.448	660.47
782.63	590.84
782.812	693.24
782.993	564.22
783.175	570.36
783.357	664.57
783.538	576.5
783.72	496.63
783.901	553.98
784.083	594.93
784.264	537.59
784.446	490.49
784.627	496.63
784.809	521.21
784.99	467.96
785.172	490.49
785.353	541.69
785.535	553.98
785.716	498.68
785.897	533.5
786.079	588.79
786.26	513.02
786.441	476.15
786.623	445.43
786.804	472.06
786.985	392.19
787.167	494.58
787.348	498.68
787.529	455.67
787.71	533.5
787.891	496.63
788.073	508.92
788.254	396.28
788.435	404.47
788.616	429.05
788.797	396.28
788.978	447.48
789.159	402.43
789.34	537.59
789.522	396.28
789.703	488.44
789.884	420.86
790.065	361.47
790.246	429.05
790.427	412.67
790.607	467.96
790.788	361.47
790.969	424.95
791.15	467.96
791.331	396.28
791.512	406.52
791.693	392.19
791.874	392.19
792.054	410.62
792.235	402.43
792.416	439.29
792.597	414.71
792.778	461.82
792.958	394.23
793.139	338.94
793.32	383.99
793.5	334.84
793.681	392.19
793.862	373.75
794.042	340.99
794.223	287.74
794.404	285.69
794.584	287.74
794.765	322.56
794.945	369.66
795.126	297.98
795.306	345.08
795.487	322.56
795.667	314.36
795.848	340.99
796.028	398.33
796.209	304.12
796.389	367.61
796.57	328.7
796.75	259.07
796.93	349.18
797.111	275.45
797.291	318.46
797.471	277.5
797.652	334.84
797.832	295.93
798.012	334.84
798.192	314.36
798.373	291.84
798.553	281.6
798.733	418.81
798.913	273.4
799.093	275.45
799.274	207.87
799.454	357.37
799.634	330.75
799.814	275.45
799.994	300.03
800.174	355.32
800.354	285.69
800.534	332.79
800.714	250.88
800.894	250.88
801.074	279.55
801.254	250.88
801.434	281.6
801.614	265.21
801.794	277.5
801.974	617.46
802.154	218.11
802.334	295.93
802.514	277.5
802.693	267.26
802.873	248.83
803.053	269.31
803.233	269.31
803.413	238.59
803.592	259.07
803.772	224.25
803.952	254.97
804.131	257.02
804.311	310.27
804.491	216.06
804.67	240.64
804.85	171.01
805.03	191.49
805.209	207.87
805.389	287.74
805.568	267.26
805.748	209.92
805.928	185.34
806.107	234.49
806.287	234.49
806.466	179.2
806.646	257.02
806.825	269.31
807.004	181.25
807.184	228.35
807.363	234.49
807.543	250.88
807.722	136.19
807.901	279.55
808.081	211.96
808.26	91.13
808.439	179.2
808.619	199.68
808.798	211.96
808.977	285.69
809.156	218.11
809.336	209.92
809.515	152.57
809.694	244.73
809.873	171.01
810.052	254.97
810.231	168.96
810.411	222.2
810.59	203.77
810.769	154.62
810.948	181.25
811.127	105.47
811.306	234.49
811.485	158.72
811.664	252.92
811.843	119.81
812.022	236.54
812.201	250.88
812.38	189.44
812.559	218.11
812.737	162.81
812.916	168.96
813.095	105.47
813.274	183.29
813.453	177.15
813.632	232.44
813.811	189.44
813.989	101.37
814.168	168.96
814.347	211.96
814.526	146.43
814.704	218.11
814.883	201.72
815.062	97.28
815.24	189.44
815.419	171.01
815.598	162.81
815.776	191.49
815.955	121.85
816.133	121.85
816.312	248.83
816.49	115.71
816.669	87.04
816.847	164.86
817.026	121.85
817.204	138.24
817.383	150.53
817.561	123.9
817.74	189.44
817.918	144.38
818.097	183.29
818.275	162.81
818.453	144.38
818.632	168.96
818.81	99.33
818.988	105.47
819.167	123.9
819.345	66.56
819.523	246.78
819.701	146.43
819.879	64.51
820.058	146.43
820.236	80.89
820.414	56.32
820.592	177.15
820.77	84.99
820.948	60.42
821.127	119.81
821.305	166.91
821.483	46.08
821.661	205.82
821.839	117.76
822.017	107.52
822.195	103.42
822.373	168.96
822.551	91.13
822.729	125.95
822.907	23.55
823.085	160.77
823.262	82.94
823.44	87.04
823.618	117.76
823.796	158.72
823.974	119.81
824.152	130.05
824.329	166.91
824.507	130.05
824.685	111.61
824.863	109.57
825.04	144.38
825.218	121.85
825.396	105.47
825.574	199.68
825.751	113.66
825.929	203.77
826.107	93.18
826.284	35.84
826.462	107.52
826.639	146.43
826.817	103.42
826.994	62.46
827.172	62.46
827.349	95.23
827.527	152.57
827.704	191.49
827.882	228.35
828.059	68.61
828.237	78.85
828.414	185.34
828.591	29.7
828.769	121.85
828.946	54.27
829.124	121.85
829.301	130.05
829.478	44.03
829.655	76.8
829.833	52.22
830.01	50.18
830.187	128
830.364	101.37
830.542	121.85
830.719	70.65
830.896	173.05
831.073	113.66
831.25	48.13
831.427	80.89
831.604	125.95
831.782	95.23
831.959	119.81
832.136	78.85
832.313	89.09
832.49	103.42
832.667	60.42
832.844	164.86
833.021	97.28
833.198	103.42
833.374	84.99
833.551	62.46
833.728	15.36
833.905	91.13
834.082	93.18
834.259	41.98
834.436	115.71
834.612	39.94
834.789	54.27
834.966	37.89
835.143	31.74
835.319	70.65
835.496	84.99
835.673	76.8
835.85	48.13
836.026	148.48
836.203	109.57
836.38	-15.36
836.556	140.29
836.733	37.89
836.909	78.85
837.086	50.18
837.262	113.66
837.439	115.71
837.616	54.27
837.792	-5.12
837.968	115.71
838.145	-23.55
838.321	37.89
838.498	93.18
838.674	15.36
838.851	46.08
839.027	74.75
839.203	56.32
839.38	150.53
839.556	128
839.732	84.99
839.909	60.42
840.085	107.52
840.261	33.79
840.437	89.09
840.614	37.89
840.79	89.09
840.966	27.65
841.142	113.66
841.318	80.89
841.494	70.65
841.671	-13.31
841.847	84.99
842.023	62.46
842.199	72.7
842.375	103.42
842.551	78.85
842.727	68.61
842.903	41.98
843.079	44.03
843.255	111.61
843.431	37.89
843.607	78.85
843.783	87.04
843.959	37.89
844.134	37.89
844.31	99.33
844.486	23.55
844.662	56.32
844.838	9.22
845.013	50.18
845.189	-15.36
845.365	80.89
845.541	31.74
845.716	37.89
845.892	119.81
846.068	70.65
846.244	50.18
846.419	91.13
846.595	15.36
846.77	13.31
846.946	7.17
847.122	15.36
847.297	27.65
847.473	62.46
847.648	-21.5
847.824	138.24
847.999	5.12
848.175	56.32
848.35	31.74
848.526	50.18
848.701	29.7
848.876	11.26
849.052	80.89
849.227	78.85
849.403	35.84
849.578	5.12
849.753	25.6
849.929	80.89
850.104	58.37
850.279	44.03
850.454	35.84
850.63	78.85
850.805	56.32
850.98	41.98
851.155	33.79
851.33	119.81
851.505	105.47
851.681	17.41
851.856	74.75
852.031	15.36
852.206	39.94
852.381	-9.22
852.556	9.22
852.731	3.07
852.906	17.41
853.081	-5.12
853.256	58.37
853.431	66.56
853.606	-1.02
853.781	60.42
853.956	-31.74
854.131	37.89
854.305	17.41
854.48	54.27
854.655	58.37
854.83	17.41
855.005	117.76
855.18	-23.55
855.354	-15.36
855.529	-1.02
855.704	41.98
855.879	15.36
856.053	-3.07
856.228	50.18
856.403	15.36
856.577	62.46
856.752	41.98
856.926	37.89
857.101	9.22
857.276	41.98
857.45	41.98
857.625	5.12
857.799	52.22
857.974	93.18
858.148	7.17
858.323	64.51
858.497	23.55
858.672	84.99
858.846	-9.22
859.02	56.32
859.195	7.17
859.369	37.89
859.543	46.08
859.718	50.18
859.892	7.17
860.066	-64.51
860.241	87.04
860.415	-3.07
860.589	-52.22
860.763	9.22
860.938	31.74
861.112	19.46
861.286	68.61
861.46	21.5
861.634	13.31
861.808	119.81
861.982	11.26
862.157	3.07
862.331	68.61
862.505	-5.12
862.679	44.03
862.853	41.98
863.027	21.5
863.201	66.56
863.375	-17.41
863.549	-52.22
863.722	25.6
863.896	74.75
864.07	9.22
864.244	-64.51
864.418	31.74
864.592	-7.17
864.766	50.18
864.939	68.61
865.113	70.65
865.287	50.18
865.461	-31.74
865.634	31.74
865.808	76.8
865.982	-50.18
866.156	21.5
866.329	-11.26
866.503	62.46
866.676	54.27
866.85	-13.31
867.024	60.42
867.197	13.31
867.371	-3.07
867.544	-5.12
867.718	-21.5
867.891	-21.5
868.065	11.26
868.238	15.36
868.412	17.41
868.585	7.17
868.759	33.79
868.932	3.07
869.105	-44.03
869.279	13.31
869.452	39.94
869.625	46.08
869.799	-1.02
869.972	7.17
870.145	115.71
870.319	23.55
870.492	48.13
870.665	27.65
870.838	58.37
871.011	-11.26
871.185	-11.26
871.358	44.03
871.531	-19.46
871.704	13.31
871.877	29.7
872.05	-9.22
872.223	-25.6
872.396	50.18
872.569	62.46
872.742	-9.22
872.915	15.36
873.088	50.18
873.261	-44.03
873.434	19.46
873.607	27.65
873.78	21.5
873.953	78.85
874.126	39.94
874.299	9.22
874.471	-66.56
874.644	25.6
874.817	31.74
874.99	66.56
875.163	39.94
875.335	-15.36
875.508	46.08
875.681	80.89
875.853	31.74
876.026	87.04
876.199	25.6
876.371	-23.55
876.544	-27.65
876.717	52.22
876.889	25.6
877.062	9.22
877.234	-13.31
877.407	5.12
877.579	5.12
877.752	97.28
877.924	60.42
878.097	-3.07
878.269	-17.41
878.442	27.65
878.614	48.13
878.786	60.42
878.959	-3.07
879.131	64.51
879.303	-25.6
879.476	37.89
879.648	27.65
879.82	60.42
879.993	37.89
880.165	62.46
880.337	29.7
880.509	21.5
880.681	29.7
880.854	35.84
881.026	-1.02
881.198	84.99
881.37	27.65
881.542	37.89
881.714	-48.13
881.886	21.5
882.058	-21.5
882.23	46.08
882.402	-19.46
882.574	41.98
882.746	-17.41
882.918	54.27
883.09	39.94
883.262	87.04
883.434	23.55
883.606	-21.5
883.778	-25.6
883.95	-33.79
884.122	-21.5
884.293	44.03
884.465	23.55
884.637	56.32
884.809	44.03
884.98	84.99
885.152	27.65
885.324	-3.07
885.496	15.36
885.667	9.22
885.839	58.37
886.011	35.84
886.182	46.08
886.354	54.27
886.525	17.41
886.697	-9.22
886.869	1.02
887.04	13.31
887.212	3.07
887.383	80.89
887.555	33.79
887.726	-144.38
887.897	31.74
888.069	17.41
888.24	25.6
888.412	66.56
888.583	-11.26
888.754	35.84
888.926	41.98
889.097	-23.55
889.268	52.22
889.44	37.89
889.611	-93.18
889.782	-19.46
889.953	-29.7
890.125	-15.36
890.296	-3.07
890.467	60.42
890.638	-1.02
890.809	19.46
890.98	5.12
891.151	54.27
891.323	46.08
891.494	70.65
891.665	76.8
891.836	72.7
892.007	-11.26
892.178	-11.26
892.349	-13.31
892.52	-19.46
892.691	7.17
892.862	3.07
893.032	5.12
893.203	37.89
893.374	-64.51
893.545	9.22
893.716	-37.89
893.887	15.36
894.057	17.41
894.228	21.5
894.399	-3.07
894.57	91.13
894.74	15.36
894.911	35.84
895.082	-35.84
895.253	35.84
895.423	-54.27
895.594	-5.12
895.764	54.27
895.935	-17.41
896.106	5.12
896.276	-9.22
896.447	-11.26
896.617	33.79
896.788	19.46
896.958	-35.84
897.129	-29.7
897.299	3.07
897.47	7.17
897.64	29.7
897.81	48.13
897.981	37.89
898.151	21.5
898.322	17.41
898.492	15.36
898.662	7.17
898.832	-62.46
899.003	19.46
899.173	-23.55
899.343	9.22
899.513	-9.22
