Data from USB4F104151__83__11-52-50-499.txt Node

Date: Fri Mar 14 11:52:50 EDT 2025
User: louis
Spectrometer: USB4F10415
Trigger mode: 4
Integration Time (sec): 2.000000E-2
Scans to average: 1
Electric dark correction enabled: true
Nonlinearity correction enabled: false
Boxcar width: 0
XAxis mode: Wavelengths
Number of Pixels in Spectrum: 3648
>>>>>Begin Spectral Data<<<<<
178.204	-72.87
178.424	-72.87
178.644	-72.87
178.864	-95.4
179.084	-115.88
179.304	37.72
179.524	-50.35
179.744	-11.43
179.964	-19.63
180.184	19.29
180.404	9.05
180.624	39.76
180.844	-48.3
181.064	-44.2
181.283	27.48
181.503	52.05
181.723	-11.43
181.943	9.05
182.163	33.62
182.383	90.96
182.602	39.76
182.822	-25.77
183.042	64.34
183.262	-5.29
183.482	60.24
183.701	43.86
183.921	-19.63
184.141	41.81
184.361	7
184.58	-9.39
184.8	64.34
185.02	-17.58
185.239	56.15
185.459	62.29
185.679	-11.43
185.898	-60.59
186.118	13.14
186.338	-17.58
186.557	50
186.777	2.9
186.997	-1.19
187.216	11.09
187.436	54.1
187.655	-27.82
187.875	52.05
188.095	19.29
188.314	39.76
188.534	60.24
188.753	-17.58
188.973	13.14
189.192	23.38
189.412	15.19
189.631	-15.53
189.851	4.95
190.07	105.3
190.29	-3.24
190.509	-15.53
190.729	27.48
190.948	0.85
191.168	117.59
191.387	2.9
191.607	-3.24
191.826	43.86
192.045	21.33
192.265	58.2
192.484	60.24
192.704	-17.58
192.923	-23.72
193.142	60.24
193.362	47.96
193.581	-7.34
193.8	7
194.02	43.86
194.239	-36.01
194.458	43.86
194.678	25.43
194.897	35.67
195.116	27.48
195.335	74.58
195.555	88.92
195.774	66.39
195.993	-11.43
196.212	-5.29
196.432	47.96
196.651	17.24
196.87	4.95
197.089	82.77
197.308	80.72
197.528	-40.11
197.747	88.92
197.966	115.54
198.185	-17.58
198.404	62.29
198.623	78.68
198.842	33.62
199.062	37.72
199.281	2.9
199.5	43.86
199.719	-1.19
199.938	39.76
200.157	35.67
200.376	-19.63
200.595	-1.19
200.814	41.81
201.033	15.19
201.252	39.76
201.471	-44.2
201.69	-15.53
201.909	7
202.128	52.05
202.347	21.33
202.566	13.14
202.785	41.81
203.004	21.33
203.223	78.68
203.442	105.3
203.661	4.95
203.879	21.33
204.098	80.72
204.317	90.96
204.536	29.52
204.755	41.81
204.974	45.91
205.193	-33.96
205.411	25.43
205.63	9.05
205.849	70.48
206.068	-1.19
206.287	-3.24
206.505	68.44
206.724	58.2
206.943	15.19
207.162	23.38
207.381	99.16
207.599	21.33
207.818	-52.39
208.037	2.9
208.255	2.9
208.474	31.57
208.693	90.96
208.911	76.63
209.13	-15.53
209.349	58.2
209.567	-38.06
209.786	90.96
210.005	54.1
210.223	-7.34
210.442	39.76
210.661	-7.34
210.879	-31.91
211.098	35.67
211.316	27.48
211.535	21.33
211.753	-5.29
211.972	64.34
212.191	11.09
212.409	58.2
212.628	23.38
212.846	29.52
213.065	101.2
213.283	80.72
213.502	35.67
213.72	56.15
213.938	-1.19
214.157	25.43
214.375	70.48
214.594	-27.82
214.812	-44.2
215.031	19.29
215.249	-5.29
215.467	-23.72
215.686	-15.53
215.904	105.3
216.122	33.62
216.341	29.52
216.559	11.09
216.778	33.62
216.996	60.24
217.214	37.72
217.432	70.48
217.651	0.85
217.869	-11.43
218.087	50
218.306	-11.43
218.524	84.82
218.742	-38.06
218.96	111.44
219.179	19.29
219.397	25.43
219.615	70.48
219.833	37.72
220.051	-85.16
220.27	31.57
220.488	13.14
220.706	64.34
220.924	80.72
221.142	72.53
221.36	58.2
221.578	19.29
221.796	-13.48
222.015	64.34
222.233	-42.15
222.451	41.81
222.669	-29.87
222.887	25.43
223.105	-46.25
223.323	7
223.541	21.33
223.759	-13.48
223.977	47.96
224.195	7
224.413	54.1
224.631	35.67
224.849	19.29
225.067	47.96
225.285	-25.77
225.503	-1.19
225.721	25.43
225.939	56.15
226.157	0.85
226.375	150.36
226.592	41.81
226.81	56.15
227.028	84.82
227.246	21.33
227.464	33.62
227.682	60.24
227.9	-46.25
228.117	4.95
228.335	50
228.553	15.19
228.771	7
228.989	21.33
229.206	80.72
229.424	41.81
229.642	-38.06
229.86	-36.01
230.077	47.96
230.295	0.85
230.513	31.57
230.731	-7.34
230.948	74.58
231.166	86.87
231.384	15.19
231.601	13.14
231.819	0.85
232.037	23.38
232.254	33.62
232.472	54.1
232.689	-7.34
232.907	-9.39
233.125	21.33
233.342	56.15
233.56	11.09
233.777	29.52
233.995	35.67
234.213	-13.48
234.43	66.39
234.648	-50.35
234.865	-13.48
235.083	93.01
235.3	99.16
235.518	27.48
235.735	-5.29
235.953	19.29
236.17	37.72
236.388	11.09
236.605	33.62
236.822	-3.24
237.04	64.34
237.257	66.39
237.475	9.05
237.692	54.1
237.909	19.29
238.127	0.85
238.344	-9.39
238.562	4.95
238.779	15.19
238.996	-44.2
239.214	45.91
239.431	62.29
239.648	-5.29
239.865	17.24
240.083	-15.53
240.3	31.57
240.517	58.2
240.735	25.43
240.952	-48.3
241.169	39.76
241.386	33.62
241.603	-21.67
241.821	15.19
242.038	45.91
242.255	17.24
242.472	23.38
242.689	13.14
242.907	0.85
243.124	35.67
243.341	29.52
243.558	45.91
243.775	-11.43
243.992	-50.35
244.209	35.67
244.426	47.96
244.643	11.09
244.86	-27.82
245.078	19.29
245.295	41.81
245.512	17.24
245.729	-23.72
245.946	62.29
246.163	13.14
246.38	35.67
246.597	-13.48
246.814	-3.24
247.031	-23.72
247.248	45.91
247.464	31.57
247.681	111.44
247.898	19.29
248.115	-25.77
248.332	-1.19
248.549	13.14
248.766	107.35
248.983	-17.58
249.2	82.77
249.417	58.2
249.633	-27.82
249.85	19.29
250.067	41.81
250.284	-13.48
250.501	-62.63
250.717	39.76
250.934	-38.06
251.151	41.81
251.368	78.68
251.585	47.96
251.801	105.3
252.018	0.85
252.235	17.24
252.451	-1.19
252.668	68.44
252.885	56.15
253.102	45.91
253.318	90.96
253.535	11.09
253.752	45.91
253.968	45.91
254.185	39.76
254.401	25.43
254.618	72.53
254.835	47.96
255.051	43.86
255.268	35.67
255.484	37.72
255.701	19.29
255.917	62.29
256.134	-31.91
256.351	33.62
256.567	-5.29
256.784	-17.58
257	52.05
257.217	29.52
257.433	56.15
257.65	101.2
257.866	13.14
258.082	95.06
258.299	-25.77
258.515	52.05
258.732	-11.43
258.948	21.33
259.165	47.96
259.381	-19.63
259.597	21.33
259.814	-19.63
260.03	15.19
260.246	74.58
260.463	-25.77
260.679	80.72
260.895	23.38
261.112	17.24
261.328	-46.25
261.544	64.34
261.761	17.24
261.977	2.9
262.193	15.19
262.409	13.14
262.626	11.09
262.842	39.76
263.058	-17.58
263.274	31.57
263.49	33.62
263.707	13.14
263.923	64.34
264.139	35.67
264.355	2.9
264.571	74.58
264.787	-42.15
265.004	74.58
265.22	-9.39
265.436	0.85
265.652	-62.63
265.868	64.34
266.084	35.67
266.3	39.76
266.516	43.86
266.732	58.2
266.948	54.1
267.164	13.14
267.38	-33.96
267.596	-33.96
267.812	2.9
268.028	86.87
268.244	2.9
268.46	41.81
268.676	-5.29
268.892	-21.67
269.108	33.62
269.324	25.43
269.54	-1.19
269.756	9.05
269.972	-5.29
270.188	-93.35
270.403	11.09
270.619	-19.63
270.835	-13.48
271.051	-1.19
271.267	4.95
271.483	31.57
271.698	13.14
271.914	41.81
272.13	-5.29
272.346	2.9
272.562	50
272.777	109.4
272.993	7
273.209	-11.43
273.425	21.33
273.64	2.9
273.856	-9.39
274.072	-17.58
274.287	37.72
274.503	23.38
274.719	109.4
274.934	-15.53
275.15	19.29
275.366	0.85
275.581	23.38
275.797	50
276.012	76.63
276.228	-7.34
276.444	17.24
276.659	64.34
276.875	39.76
277.09	29.52
277.306	99.16
277.521	25.43
277.737	-31.91
277.952	78.68
278.168	56.15
278.383	76.63
278.599	64.34
278.814	11.09
279.03	-11.43
279.245	72.53
279.461	19.29
279.676	68.44
279.892	41.81
280.107	29.52
280.322	15.19
280.538	11.09
280.753	7
280.969	35.67
281.184	-81.07
281.399	33.62
281.615	-7.34
281.83	25.43
282.045	-3.24
282.26	-13.48
282.476	29.52
282.691	25.43
282.906	29.52
283.122	4.95
283.337	23.38
283.552	19.29
283.767	-9.39
283.983	56.15
284.198	-33.96
284.413	70.48
284.628	-62.63
284.843	7
285.058	-5.29
285.274	39.76
285.489	-46.25
285.704	43.86
285.919	21.33
286.134	66.39
286.349	23.38
286.564	15.19
286.779	15.19
286.995	41.81
287.21	2.9
287.425	39.76
287.64	39.76
287.855	-7.34
288.07	-19.63
288.285	11.09
288.5	13.14
288.715	-15.53
288.93	31.57
289.145	21.33
289.36	31.57
289.575	27.48
289.79	33.62
290.004	50
290.219	19.29
290.434	4.95
290.649	-52.39
290.864	41.81
291.079	39.76
291.294	11.09
291.509	2.9
291.724	7
291.938	19.29
292.153	39.76
292.368	-21.67
292.583	95.06
292.798	-46.25
293.012	23.38
293.227	27.48
293.442	7
293.657	17.24
293.871	50
294.086	41.81
294.301	43.86
294.516	72.53
294.73	29.52
294.945	4.95
295.16	84.82
295.374	-38.06
295.589	66.39
295.804	-36.01
296.018	-21.67
296.233	33.62
296.447	111.44
296.662	-13.48
296.877	50
297.091	52.05
297.306	4.95
297.52	25.43
297.735	52.05
297.949	11.09
298.164	90.96
298.378	56.15
298.593	70.48
298.807	-15.53
299.022	86.87
299.236	17.24
299.451	29.52
299.665	50
299.88	39.76
300.094	37.72
300.309	31.57
300.523	58.2
300.737	-31.91
300.952	43.86
301.166	95.06
301.381	33.62
301.595	13.14
301.809	-17.58
302.024	33.62
302.238	45.91
302.452	33.62
302.667	11.09
302.881	66.39
303.095	78.68
303.309	50
303.524	23.38
303.738	56.15
303.952	-9.39
304.166	52.05
304.381	-1.19
304.595	37.72
304.809	-62.63
305.023	33.62
305.237	31.57
305.452	31.57
305.666	43.86
305.88	37.72
306.094	52.05
306.308	15.19
306.522	21.33
306.736	64.34
306.95	66.39
307.164	41.81
307.379	64.34
307.593	66.39
307.807	47.96
308.021	2.9
308.235	25.43
308.449	29.52
308.663	68.44
308.877	37.72
309.091	80.72
309.305	2.9
309.519	64.34
309.733	11.09
309.947	-11.43
310.161	52.05
310.374	41.81
310.588	9.05
310.802	-44.2
311.016	68.44
311.23	-19.63
311.444	15.19
311.658	33.62
311.872	82.77
312.085	58.2
312.299	84.82
312.513	15.19
312.727	47.96
312.941	11.09
313.154	123.73
313.368	45.91
313.582	11.09
313.796	54.1
314.009	-13.48
314.223	21.33
314.437	84.82
314.651	72.53
314.864	-29.87
315.078	58.2
315.292	-17.58
315.505	-15.53
315.719	105.3
315.933	72.53
316.146	80.72
316.36	27.48
316.573	41.81
316.787	60.24
317.001	9.05
317.214	-66.73
317.428	37.72
317.641	19.29
317.855	76.63
318.068	0.85
318.282	2.9
318.495	68.44
318.709	35.67
318.922	-19.63
319.136	9.05
319.349	80.72
319.563	62.29
319.776	76.63
319.99	70.48
320.203	52.05
320.417	-21.67
320.63	-5.29
320.843	70.48
321.057	-15.53
321.27	29.52
321.483	-27.82
321.697	56.15
321.91	-17.58
322.124	95.06
322.337	72.53
322.55	7
322.763	-5.29
322.977	23.38
323.19	74.58
323.403	47.96
323.617	19.29
323.83	33.62
324.043	-13.48
324.256	54.1
324.469	27.48
324.683	43.86
324.896	19.29
325.109	25.43
325.322	15.19
325.535	29.52
325.748	17.24
325.962	11.09
326.175	-27.82
326.388	115.54
326.601	56.15
326.814	31.57
327.027	93.01
327.24	60.24
327.453	33.62
327.666	37.72
327.879	-1.19
328.092	62.29
328.305	-13.48
328.518	9.05
328.731	17.24
328.944	47.96
329.157	97.11
329.37	31.57
329.583	21.33
329.796	80.72
330.009	-23.72
330.222	39.76
330.435	9.05
330.648	50
330.861	9.05
331.073	90.96
331.286	72.53
331.499	2.9
331.712	4.95
331.925	76.63
332.138	31.57
332.35	25.43
332.563	72.53
332.776	68.44
332.989	27.48
333.202	39.76
333.414	-50.35
333.627	25.43
333.84	4.95
334.053	23.38
334.265	21.33
334.478	64.34
334.691	31.57
334.903	21.33
335.116	-7.34
335.329	9.05
335.541	-25.77
335.754	80.72
335.966	52.05
336.179	-3.24
336.392	7
336.604	117.59
336.817	-27.82
337.029	136.02
337.242	105.3
337.454	60.24
337.667	13.14
337.88	90.96
338.092	-44.2
338.305	0.85
338.517	7
338.729	43.86
338.942	60.24
339.154	-23.72
339.367	2.9
339.579	0.85
339.792	45.91
340.004	35.67
340.217	50
340.429	-7.34
340.641	37.72
340.854	105.3
341.066	7
341.278	84.82
341.491	7
341.703	95.06
341.915	-5.29
342.128	23.38
342.34	-23.72
342.552	13.14
342.764	9.05
342.977	15.19
343.189	72.53
343.401	88.92
343.613	-13.48
343.826	-19.63
344.038	9.05
344.25	2.9
344.462	31.57
344.674	7
344.886	-85.16
345.099	74.58
345.311	-56.49
345.523	-15.53
345.735	-33.96
345.947	-46.25
346.159	-11.43
346.371	60.24
346.583	58.2
346.795	-11.43
347.007	68.44
347.219	-7.34
347.431	50
347.643	97.11
347.855	11.09
348.067	-33.96
348.279	99.16
348.491	60.24
348.703	11.09
348.915	52.05
349.127	52.05
349.339	2.9
349.551	23.38
349.763	35.67
349.975	-11.43
350.187	-3.24
350.399	31.57
350.61	86.87
350.822	-38.06
351.034	50
351.246	0.85
351.458	19.29
351.669	-5.29
351.881	148.31
352.093	2.9
352.305	125.78
352.517	29.52
352.728	64.34
352.94	15.19
353.152	0.85
353.363	-33.96
353.575	35.67
353.787	52.05
353.999	121.68
354.21	47.96
354.422	7
354.633	45.91
354.845	15.19
355.057	66.39
355.268	29.52
355.48	47.96
355.692	21.33
355.903	66.39
356.115	78.68
356.326	25.43
356.538	90.96
356.749	31.57
356.961	103.25
357.172	39.76
357.384	43.86
357.595	-29.87
357.807	70.48
358.018	13.14
358.23	39.76
358.441	13.14
358.653	111.44
358.864	23.38
359.075	-7.34
359.287	21.33
359.498	144.21
359.709	-19.63
359.921	21.33
360.132	2.9
360.344	11.09
360.555	15.19
360.766	35.67
360.977	11.09
361.189	11.09
361.4	47.96
361.611	58.2
361.823	23.38
362.034	-11.43
362.245	-38.06
362.456	39.76
362.667	-13.48
362.879	9.05
363.09	4.95
363.301	-1.19
363.512	13.14
363.723	33.62
363.935	80.72
364.146	78.68
364.357	31.57
364.568	19.29
364.779	35.67
364.99	27.48
365.201	39.76
365.412	-17.58
365.623	33.62
365.834	33.62
366.045	-38.06
366.256	74.58
366.467	68.44
366.678	70.48
366.889	58.2
367.1	21.33
367.311	97.11
367.522	68.44
367.733	66.39
367.944	43.86
368.155	80.72
368.366	39.76
368.577	66.39
368.788	27.48
368.999	37.72
369.209	66.39
369.42	56.15
369.631	52.05
369.842	-7.34
370.053	123.73
370.264	68.44
370.474	58.2
370.685	43.86
370.896	50
371.107	58.2
371.317	99.16
371.528	13.14
371.739	133.97
371.95	-7.34
372.16	97.11
372.371	-1.19
372.582	7
372.792	97.11
373.003	52.05
373.214	35.67
373.424	15.19
373.635	19.29
373.846	15.19
374.056	39.76
374.267	27.48
374.477	15.19
374.688	-54.44
374.898	9.05
375.109	31.57
375.319	64.34
375.53	41.81
375.74	76.63
375.951	101.2
376.161	9.05
376.372	99.16
376.582	23.38
376.793	86.87
377.003	15.19
377.214	33.62
377.424	41.81
377.635	23.38
377.845	4.95
378.055	93.01
378.266	43.86
378.476	45.91
378.686	-60.59
378.897	43.86
379.107	-7.34
379.317	133.97
379.528	31.57
379.738	11.09
379.948	-19.63
380.158	62.29
380.369	19.29
380.579	31.57
380.789	-5.29
380.999	9.05
381.21	45.91
381.42	80.72
381.63	-13.48
381.84	-21.67
382.05	107.35
382.261	45.91
382.471	-11.43
382.681	-29.87
382.891	41.81
383.101	113.49
383.311	33.62
383.521	29.52
383.731	62.29
383.941	97.11
384.151	45.91
384.361	27.48
384.571	74.58
384.781	127.83
384.991	72.53
385.201	21.33
385.411	66.39
385.621	25.43
385.831	47.96
386.041	17.24
386.251	7
386.461	72.53
386.671	29.52
386.881	-15.53
387.091	50
387.301	-9.39
387.511	33.62
387.72	90.96
387.93	21.33
388.14	64.34
388.35	72.53
388.56	113.49
388.769	47.96
388.979	37.72
389.189	-1.19
389.399	29.52
389.609	58.2
389.818	142.16
390.028	31.57
390.238	23.38
390.447	31.57
390.657	90.96
390.867	-7.34
391.076	109.4
391.286	-1.19
391.496	62.29
391.705	19.29
391.915	129.88
392.125	84.82
392.334	50
392.544	54.1
392.753	37.72
392.963	41.81
393.172	31.57
393.382	43.86
393.591	119.64
393.801	-7.34
394.01	19.29
394.22	93.01
394.429	-13.48
394.639	76.63
394.848	119.64
395.058	41.81
395.267	62.29
395.477	58.2
395.686	80.72
395.895	93.01
396.105	72.53
396.314	95.06
396.524	29.52
396.733	60.24
396.942	76.63
397.152	115.54
397.361	64.34
397.57	117.59
397.78	27.48
397.989	78.68
398.198	144.21
398.407	95.06
398.617	86.87
398.826	80.72
399.035	131.92
399.244	105.3
399.453	60.24
399.663	41.81
399.872	17.24
400.081	52.05
400.29	60.24
400.499	64.34
400.708	117.59
400.917	111.44
401.127	31.57
401.336	99.16
401.545	113.49
401.754	113.49
401.963	86.87
402.172	60.24
402.381	133.97
402.59	123.73
402.799	60.24
403.008	119.64
403.217	52.05
403.426	109.4
403.635	117.59
403.844	166.74
404.053	31.57
404.262	105.3
404.471	115.54
404.68	142.16
404.888	133.97
405.097	113.49
405.306	80.72
405.515	107.35
405.724	148.31
405.933	93.01
406.142	232.27
406.35	111.44
406.559	119.64
406.768	115.54
406.977	117.59
407.185	162.64
407.394	197.46
407.603	111.44
407.812	111.44
408.02	183.12
408.229	174.93
408.438	170.83
408.646	107.35
408.855	146.26
409.064	150.36
409.272	238.42
409.481	217.94
409.69	207.7
409.898	234.32
410.107	174.93
410.315	256.85
410.524	224.08
410.733	238.42
410.941	281.43
411.15	281.43
411.358	254.8
411.567	357.2
411.775	279.38
411.984	244.56
412.192	359.25
412.401	312.14
412.609	367.44
412.818	324.43
413.026	330.58
413.234	441.17
413.443	379.73
413.651	435.02
413.86	443.21
414.068	439.12
414.276	426.83
414.485	398.16
414.693	490.32
414.901	439.12
415.11	523.09
415.318	523.09
415.526	514.89
415.734	498.51
415.943	549.71
416.151	658.25
416.359	506.7
416.567	621.39
416.776	551.76
416.984	736.07
417.192	738.12
417.4	625.48
417.608	709.45
417.817	742.22
418.025	785.23
418.233	869.19
418.441	770.89
418.649	793.42
418.857	848.71
419.065	1014.6
419.273	875.34
419.481	949.06
419.689	994.12
419.897	1110.85
420.105	1094.47
420.313	1135.43
420.521	1168.2
420.729	1192.77
420.937	1157.96
421.145	1192.77
421.353	1366.85
421.561	1354.56
421.769	1401.66
421.977	1432.38
422.185	1393.47
422.393	1489.73
422.601	1694.52
422.809	1604.41
423.017	1635.13
423.224	1778.49
423.432	1817.4
423.64	1815.35
423.848	2050.87
424.056	1913.66
424.263	2100.02
424.471	2102.07
424.679	1975.1
424.887	2177.84
425.094	2296.63
425.302	2179.89
425.51	2296.63
425.718	2372.4
425.925	2489.14
426.133	2636.59
426.341	2579.25
426.548	2636.59
426.756	2695.98
426.964	2847.53
427.171	2976.55
427.379	2997.03
427.586	3119.91
427.794	3181.35
428.001	3240.74
428.209	3527.46
428.417	3463.97
428.624	3703.58
428.832	3683.1
429.039	3615.52
429.247	3687.2
429.454	4064.02
429.662	4293.4
429.869	4082.46
430.076	4377.36
430.284	4317.97
430.491	4387.6
430.699	4586.26
430.906	4666.13
431.114	4707.09
431.321	4809.48
431.528	4903.69
431.736	5139.21
431.943	5397.25
432.15	5264.13
432.358	5409.54
432.565	5860.09
432.772	5528.32
432.979	5970.68
433.187	6007.55
433.394	6111.99
433.601	6513.39
433.808	6638.32
434.016	6339.32
434.223	6595.31
434.43	7107.3
434.637	7168.74
434.844	7492.32
435.052	7469.8
435.259	7357.16
435.466	7553.76
435.673	7578.34
435.88	7881.44
436.087	8313.56
436.294	8501.97
436.501	8309.46
436.708	8456.92
436.915	8700.62
437.122	9229
437.329	9020.11
437.537	9343.69
437.743	9472.71
437.95	9536.2
438.157	9902.78
438.364	10287.8
438.571	10306.23
438.778	10328.76
438.985	11313.83
439.192	10873.52
439.399	11190.95
439.606	10973.87
439.813	11618.98
440.02	12333.72
440.227	11983.52
440.433	11879.07
440.64	12348.06
440.847	12182.17
441.054	12495.51
441.261	13324.94
441.467	13148.81
441.674	13519.5
441.881	13994.62
442.088	13871.75
442.294	14008.96
442.501	14131.84
442.708	14600.82
442.914	15055.47
443.121	15731.3
443.328	15561.32
443.534	16538.2
443.741	15915.62
443.948	15420.01
444.154	16831.06
444.361	16661.08
444.568	16951.89
444.774	16917.08
444.981	16996.95
445.187	17812.04
445.394	18154.05
445.6	18252.35
445.807	19599.91
446.013	19139.12
446.22	19393.07
446.426	20005.41
446.633	20044.32
446.839	20840.98
447.046	19839.53
447.252	21099.03
447.459	21021.2
447.665	21074.45
447.871	21869.06
448.078	23052.79
448.284	21746.19
448.491	22520.32
448.697	23552.49
448.903	23613.93
449.11	23740.91
449.316	23149.04
449.522	23925.22
449.728	24484.32
449.935	24824.28
450.141	24590.81
450.347	25299.41
450.553	24271.33
450.76	24644.06
450.966	25584.08
451.172	25031.13
451.378	25917.9
451.584	25211.35
451.791	26091.98
451.997	25903.56
452.203	26610.11
452.409	26544.58
452.615	26319.3
452.821	25354.71
453.027	25072.09
453.233	26421.7
453.44	25326.03
453.646	25747.92
453.852	25813.45
454.058	26304.96
454.264	25188.82
454.47	26182.09
454.676	25577.94
454.882	26145.22
455.088	23794.15
455.294	24095.21
455.5	24582.62
455.705	24844.76
455.911	23656.94
456.117	23826.92
456.323	23015.93
456.529	21918.21
456.735	22950.39
456.941	22219.27
457.147	21854.73
457.352	21062.16
457.558	20859.42
457.764	20785.69
457.97	20584.99
458.176	20382.24
458.381	20220.45
458.587	19323.44
458.793	19016.24
458.999	18252.35
459.204	19438.12
459.41	19016.24
459.616	17498.7
459.821	17707.59
460.027	17633.86
460.233	17209.93
460.438	16546.39
460.644	16503.39
460.85	15909.47
461.055	15723.11
461.261	15952.48
461.466	14543.48
461.672	13914.75
461.878	15057.52
462.083	14097.02
462.289	13738.63
462.494	13511.3
462.7	12874.38
462.905	12597.91
463.111	12931.73
463.316	13468.3
463.522	12817.04
463.727	12964.5
463.932	12884.62
464.138	12602.01
464.343	12546.71
464.549	12190.36
464.754	12669.59
464.959	12493.46
465.165	12456.6
465.37	12083.87
465.575	11807.39
465.781	12341.91
465.986	12368.54
466.191	11836.06
466.397	11684.52
466.602	11010.73
466.807	11403.94
467.012	11352.74
467.218	11516.58
467.423	11264.68
467.628	11358.89
467.833	11825.82
468.038	11129.52
468.244	11002.54
468.449	11524.77
468.654	10855.09
468.859	10840.75
469.064	10996.4
469.269	10623.67
469.474	10562.23
469.679	11000.49
469.885	10472.12
470.09	10570.42
470.295	10547.89
470.5	10308.28
470.705	10681.01
470.91	10244.79
471.115	10138.3
471.32	10259.13
471.525	10160.83
471.73	9974.46
471.935	9843.39
472.139	9591.49
472.344	9857.73
472.549	9525.96
472.754	9482.95
472.959	9183.95
473.164	9282.25
473.369	9149.13
473.574	9272.01
473.778	9249.48
473.983	8975.05
474.188	9114.31
474.393	8567.51
474.598	8747.73
474.802	8577.75
475.007	8618.71
475.212	8555.22
475.417	8288.98
475.621	8295.13
475.826	8549.07
476.031	8059.61
476.235	8123.1
476.44	8288.98
476.645	7879.39
476.849	7946.97
477.054	7867.1
477.259	7785.18
477.463	7690.98
477.668	7584.48
477.872	7637.73
478.077	7533.28
478.282	7377.64
478.486	7387.88
478.691	7314.15
478.895	7189.22
479.1	7176.94
479.304	7209.7
479.509	7041.77
479.713	7135.98
479.918	6855.4
480.122	6830.83
480.326	6959.85
480.531	6851.31
480.735	6929.13
480.94	6775.53
481.144	7000.81
481.348	6671.09
481.553	6728.43
481.757	6615.79
481.961	6753.01
482.166	6771.44
482.37	6746.86
482.574	6710
482.778	6605.55
482.983	6699.76
483.187	6755.05
483.391	6611.7
483.595	6531.83
483.8	6623.98
484.004	6652.66
484.208	6597.36
484.412	6691.57
484.616	6658.8
484.821	6650.61
485.025	6560.5
485.229	6621.94
485.433	6642.42
485.637	6753.01
485.841	6652.66
486.045	6740.72
486.249	6701.81
486.453	6599.41
486.657	6712.05
486.861	6636.27
487.065	6607.6
487.269	6587.12
487.473	6669.04
487.677	6748.91
487.881	6896.36
488.085	6671.09
488.289	6691.57
488.493	6724.33
488.697	6800.11
488.901	6675.18
489.105	6697.71
489.309	6765.29
489.512	6736.62
489.716	6755.05
489.92	6927.08
490.124	6644.46
490.328	6841.07
490.531	6734.57
490.735	6853.36
490.939	6976.23
491.143	6793.97
491.346	6920.94
491.55	6937.32
491.754	6818.54
491.958	7187.18
492.161	6978.28
492.365	7140.07
492.569	6949.61
492.772	7125.74
492.976	7162.6
493.18	7009
493.383	7252.71
493.587	7119.59
493.79	7373.54
493.994	7465.7
494.197	7367.4
494.401	7443.17
494.605	7506.66
494.808	7510.75
495.012	7600.87
495.215	7592.67
495.419	7699.17
495.622	7566.05
495.825	7676.64
496.029	7879.39
496.232	7987.93
496.436	7879.39
496.639	8073.95
496.843	8047.32
497.046	8221.4
497.249	8354.52
497.453	8409.81
497.656	8372.95
497.859	8233.69
498.063	8555.22
498.266	8657.62
498.469	8850.13
498.673	8940.24
498.876	8954.57
499.079	9028.3
499.282	8940.24
499.485	9390.79
499.689	9282.25
499.892	9517.76
500.095	9386.69
500.298	9749.18
500.501	9587.4
500.705	10056.38
500.908	10015.42
501.111	10089.15
501.314	10037.95
501.517	10113.72
501.72	10099.39
501.923	10222.27
502.126	10502.84
502.329	10717.87
502.532	10943.15
502.735	10728.11
502.938	11002.54
503.141	11090.6
503.344	11215.53
503.547	11346.6
503.75	11592.36
503.953	11545.25
504.156	11713.19
504.359	11887.26
504.562	11932.32
504.765	12118.68
504.968	12233.37
505.17	12161.69
505.373	12493.46
505.576	12665.49
505.779	12841.62
505.982	12896.91
506.185	12946.06
506.387	13243.02
506.59	13146.76
506.793	13669
506.996	13548.17
507.198	13859.46
507.401	13806.21
507.604	14039.68
507.807	14205.56
508.009	14164.61
508.212	14217.85
508.415	14584.44
508.617	14647.93
508.82	14774.9
509.022	14789.24
509.225	14965.36
509.428	15080.05
509.63	15520.36
509.833	15348.33
510.035	15700.58
510.238	15639.14
510.44	15868.52
510.643	16443.99
510.845	16147.04
511.048	16011.87
511.25	16722.52
511.453	16423.51
511.655	17207.89
511.858	16820.82
512.06	17117.78
512.262	17586.76
512.465	16984.66
512.667	17631.82
512.87	18029.12
513.072	18022.98
513.274	18457.15
513.477	18440.76
513.679	18262.59
513.881	18770.49
514.084	19135.03
514.286	18852.41
514.488	19157.55
514.69	19755.56
514.893	19305.01
515.095	20079.14
515.297	20062.76
515.499	19966.5
515.701	20003.36
515.904	20701.72
516.106	20474.4
516.308	20773.4
516.51	20996.63
516.712	20779.54
516.914	21379.6
517.116	21699.08
517.318	21785.1
517.52	21893.64
517.722	22045.19
517.925	22458.88
518.127	22606.33
518.329	22862.33
518.531	22614.52
518.733	23396.85
518.935	23024.12
519.136	23536.11
519.338	23646.7
519.54	23767.53
519.742	24232.42
519.944	24177.12
520.146	24674.78
520.348	24621.53
520.55	24447.46
520.752	24867.29
520.954	25199.06
521.155	25395.67
521.357	25401.81
521.559	25508.3
521.761	25766.35
521.963	26165.7
522.164	26153.41
522.366	26329.54
522.568	26460.61
522.77	26974.65
522.971	27150.78
523.173	26851.77
523.375	27339.19
523.576	27228.6
523.778	27548.08
523.98	27947.43
524.181	28096.94
524.383	28023.21
524.584	28326.31
524.786	28352.93
524.988	28314.02
525.189	28684.7
525.391	29028.76
525.592	29540.75
525.794	29270.42
525.995	29557.14
526.197	29278.61
526.398	29417.88
526.6	29667.73
526.801	29759.89
527.003	29950.35
527.204	29845.9
527.406	30333.32
527.607	30464.39
527.808	30499.2
528.01	30304.65
528.211	30738.82
528.412	30681.47
528.614	30794.11
528.815	30890.37
529.016	31215.99
529.218	30902.65
529.419	31375.73
529.62	31107.45
529.822	31234.42
530.023	31109.5
530.224	31273.34
530.425	31261.05
530.626	31355.25
530.828	31361.4
531.029	31916.4
531.23	31609.2
531.431	31445.37
531.632	31908.21
531.833	31764.85
532.035	31957.36
532.236	31873.39
532.437	32051.56
532.638	31930.73
532.839	32139.63
533.04	32311.66
533.241	31652.21
533.442	32444.77
533.643	32389.48
533.844	32254.31
534.045	32317.8
534.246	32063.85
534.447	32313.7
534.648	32098.67
534.849	32495.97
535.05	32092.52
535.251	32246.12
535.451	32194.92
535.652	32510.31
535.853	32137.58
536.054	32463.21
536.255	32952.67
536.456	32659.81
536.657	32840.03
536.857	32502.12
537.058	32407.91
537.259	32389.48
537.46	32325.99
537.66	32534.88
537.861	32551.27
538.062	32459.11
538.263	32354.66
538.463	32461.16
538.664	32455.01
538.865	33110.36
539.065	32700.77
539.266	32612.71
539.466	32975.2
539.667	32270.7
539.868	32758.11
540.068	32672.1
540.269	32616.8
540.469	32895.33
540.67	32397.67
540.87	32618.85
541.071	32414.05
541.271	32768.35
541.472	32534.88
541.672	32313.7
541.873	32547.17
542.073	32088.43
542.274	32844.13
542.474	32354.66
542.675	32371.05
542.875	32835.94
543.075	32665.95
543.276	32125.29
543.476	32919.9
543.676	32360.81
543.877	32395.62
544.077	32577.89
544.277	32641.38
544.478	32227.69
544.678	32196.97
544.878	32551.27
545.078	32883.04
545.279	32340.33
545.479	32397.67
545.679	32299.37
545.879	32569.7
546.079	32270.7
546.28	32616.8
546.48	32301.42
546.68	32538.98
546.88	32389.48
547.08	32325.99
547.28	32287.08
547.48	32108.91
547.68	32655.72
547.88	32479.59
548.081	32584.04
548.281	32356.71
548.481	32448.87
548.681	32432.49
548.881	32295.27
549.081	32612.71
549.28	32131.44
549.48	32422.25
549.68	32629.09
549.88	32692.58
550.08	32160.11
550.28	32264.55
550.48	32262.51
550.68	32403.81
550.88	32113
551.08	32321.9
551.279	32201.07
551.479	32031.08
551.679	32125.29
551.879	32137.58
552.079	32768.35
552.278	32201.07
552.478	32276.84
552.678	32303.46
552.878	32246.12
553.077	31926.64
553.277	31857.01
553.477	32371.05
553.676	31818.1
553.876	31967.6
554.076	31654.26
554.275	31963.5
554.475	31811.95
554.674	32221.55
554.874	31940.97
555.074	32176.49
555.273	32170.35
555.473	32072.04
555.672	31623.54
555.872	31977.84
556.071	31963.5
556.271	31748.46
556.47	31590.77
556.67	31363.45
556.869	31326.58
557.068	31816.05
557.268	31453.56
557.467	31416.69
557.667	31332.73
557.866	31467.89
558.065	31340.92
558.265	31322.49
558.464	31265.14
558.663	31480.18
558.863	31017.34
559.062	31854.96
559.261	31080.83
559.461	31345.02
559.66	30931.33
559.859	30943.61
560.058	30845.31
560.258	30966.14
560.457	30736.77
560.656	30927.23
560.855	30896.51
561.054	30800.26
561.253	30628.23
561.453	30851.45
561.652	30660.99
561.851	31179.13
562.05	30814.59
562.249	30206.34
562.448	30464.39
562.647	30482.82
562.846	30122.38
563.045	30314.89
563.244	29874.57
563.443	30409.09
563.642	30050.7
563.841	30153.1
564.04	30165.39
564.239	30149
564.438	29735.31
564.637	29813.13
564.836	29915.53
565.035	29591.95
565.234	29561.23
565.432	29405.59
565.631	29450.64
565.83	29696.4
566.029	29280.66
566.228	29008.28
566.427	29290.9
566.625	28985.76
566.824	28748.19
567.023	29053.34
567.222	28895.64
567.42	29327.77
567.619	28934.56
567.818	28690.85
568.016	28807.58
568.215	28813.73
568.414	28332.45
568.612	28610.98
568.811	28322.21
569.01	28420.52
569.208	28223.91
569.407	28402.08
569.605	28236.2
569.804	28283.3
570.002	27924.91
570.201	28123.56
570.4	27765.17
570.598	27638.19
570.797	27646.38
570.995	27427.25
571.193	27675.06
571.392	27695.53
571.59	27433.39
571.789	27302.32
571.987	27161.01
572.186	27136.44
572.384	26876.35
572.582	27118.01
572.781	27027.9
572.979	26673.6
573.177	26835.39
573.376	26737.09
573.574	26784.19
573.772	26954.17
573.971	26419.65
574.169	26425.79
574.367	26249.67
574.565	26464.71
574.763	26214.85
574.962	26145.22
575.16	26083.78
575.358	26067.4
575.556	25643.47
575.754	26382.79
575.952	25721.29
576.151	26016.2
576.349	25389.52
576.547	25629.13
576.745	25670.09
576.943	25696.72
577.141	25401.81
577.339	25598.41
577.537	25442.77
577.735	25162.2
577.933	25166.29
578.131	24867.29
578.329	25164.25
578.527	24908.25
578.725	24883.67
578.923	24859.1
579.121	24873.43
579.319	24791.52
579.516	25086.42
579.714	24877.53
579.912	24537.57
580.11	24553.95
580.308	24609.25
580.506	24185.32
580.704	24011.24
580.901	24140.26
581.099	24390.11
581.297	23814.63
581.495	24422.88
581.692	24093.16
581.89	23970.28
582.088	24023.53
582.285	23366.13
582.483	23734.76
582.681	23714.28
582.878	23603.69
583.076	23239.15
583.274	23697.9
583.471	23134.71
583.669	23423.47
583.866	23095.8
584.064	23280.11
584.262	22952.44
584.459	23341.55
584.657	22972.92
584.854	23398.9
585.052	22821.37
585.249	22432.26
585.447	22966.77
585.644	22624.76
585.841	22790.65
586.039	22772.22
586.236	22309.38
586.434	22379.01
586.631	22245.89
586.828	22323.71
587.026	22336
587.223	22075.91
587.42	22114.82
587.618	22116.87
587.815	22020.61
588.012	21676.55
588.21	21656.07
588.407	21950.98
588.604	21735.95
588.801	21674.51
588.999	21723.66
589.196	21572.11
589.393	21606.92
589.59	21279.25
589.787	21338.64
589.984	20824.6
590.182	21070.36
590.379	21269.01
590.576	20965.91
590.773	21131.79
590.97	20996.63
591.167	21099.03
591.364	20709.91
591.561	20767.26
591.758	20707.87
591.955	20546.08
592.152	20654.62
592.349	20306.46
592.546	20744.73
592.743	20361.76
592.94	19911.21
593.137	20343.33
593.334	20296.22
593.531	19886.63
593.727	20044.32
593.924	19964.45
594.121	20140.58
594.318	20216.35
594.515	19663.4
594.712	19941.93
594.908	19878.44
595.105	19782.18
595.302	19694.12
595.499	19673.64
595.696	19604.01
595.892	19464.75
596.089	19499.56
596.286	19276.34
596.482	19284.53
596.679	19161.65
596.876	19302.96
597.072	19231.28
597.269	19190.32
597.466	18680.38
597.662	18934.32
597.859	19003.96
598.055	19085.87
598.252	18778.68
598.448	18801.21
598.645	19014.2
598.841	18563.64
599.038	18657.85
599.234	18471.48
599.431	18465.34
599.627	18577.98
599.824	18625.08
600.02	18076.23
600.217	18494.01
600.413	18233.92
600.609	18059.84
600.806	18039.36
601.002	18231.87
601.198	18035.27
601.395	17809.99
601.591	17789.51
601.787	18225.73
601.984	17451.6
602.18	17863.24
602.376	17695.3
602.572	17689.16
602.769	17535.56
602.965	17302.09
603.161	17334.86
603.357	17271.37
603.553	17199.69
603.75	17461.83
603.946	17234.51
604.142	17283.66
604.338	16833.11
604.534	17019.47
604.73	16781.91
604.926	16759.38
605.122	16869.97
605.318	16618.07
605.514	16872.02
605.71	16595.54
605.906	16964.18
606.102	16775.77
606.298	16751.19
606.494	16628.31
606.69	16800.34
606.886	16554.58
607.082	16345.69
607.278	16679.51
607.474	16095.84
607.67	16355.93
607.866	16013.92
608.062	16036.45
608.257	16321.12
608.453	16216.67
608.649	16261.73
608.845	15964.77
609.041	16280.16
609.236	16036.45
609.432	16112.22
609.628	15845.99
609.824	15948.39
610.019	15755.88
610.215	16091.74
610.411	15860.32
610.606	16056.93
610.802	15731.3
610.998	15782.5
611.193	15694.44
611.389	15637.09
611.584	15630.95
611.78	15581.8
611.976	15487.59
612.171	15280.75
612.367	15467.11
612.562	15493.74
612.758	15280.75
612.953	15118.96
613.149	15467.11
613.344	15180.4
613.539	15532.65
613.735	15145.58
613.93	15391.34
614.126	15440.49
614.321	15370.86
614.517	15006.32
614.712	15164.01
614.907	15215.21
615.103	14979.7
615.298	15096.43
615.493	14916.21
615.688	14479.99
615.884	15172.21
616.079	14590.58
616.274	14676.6
616.47	14758.52
616.665	14779
616.86	14846.58
617.055	14854.77
617.25	14762.61
617.445	14688.89
617.641	14490.23
617.836	14682.74
618.031	14424.7
618.226	14572.15
618.421	14500.47
618.616	14408.31
618.811	13974.14
619.006	14504.57
619.201	13951.62
619.396	14332.54
619.591	13845.12
619.786	13988.48
619.981	13673.09
620.176	13988.48
620.371	13656.71
620.566	13695.62
620.761	13705.86
620.956	13621.89
621.151	13410.95
621.346	13490.82
621.541	13554.31
621.735	13531.78
621.93	13208.2
622.125	13488.78
622.32	13152.91
622.515	13382.28
622.709	12923.54
622.904	13218.44
623.099	13050.51
623.294	13163.15
623.488	12622.48
623.683	13017.74
623.878	12550.81
624.072	12577.43
624.267	12487.32
624.462	12534.42
624.656	12567.19
624.851	12249.75
625.046	12335.77
625.24	12090.01
625.435	12182.17
625.629	12075.68
625.824	11934.37
626.018	12081.82
626.213	11752.1
626.407	11899.55
626.602	11690.66
626.796	11772.58
626.991	11803.3
627.185	11524.77
627.38	11545.25
627.574	11444.9
627.768	11457.19
627.963	11221.67
628.157	11346.6
628.352	11528.87
628.546	10975.92
628.74	11184.81
628.935	10883.76
629.129	11004.59
629.323	10928.81
629.517	10922.67
629.712	10732.21
629.906	10717.87
630.1	10570.42
630.294	10654.39
630.489	10472.12
630.683	10601.14
630.877	10445.49
631.071	10336.95
631.265	10556.08
631.459	10513.08
631.653	10347.19
631.848	10273.46
632.042	10037.95
632.236	10164.92
632.43	9999.04
632.624	10023.61
632.818	10103.48
633.012	9927.36
633.206	9992.89
633.4	9917.12
633.594	9859.77
633.788	9859.77
633.982	9720.51
634.176	9620.16
634.369	9485
634.563	9755.33
634.757	9478.85
634.951	9503.43
635.145	9388.74
635.339	9636.55
635.533	9286.34
635.726	9126.6
635.92	9253.58
636.114	9159.37
636.308	9042.64
636.501	9185.99
636.695	9138.89
636.889	8868.56
637.083	9001.68
637.276	8821.45
637.47	8784.59
637.664	8796.88
637.857	8878.8
638.051	8696.53
638.244	8510.16
638.438	8663.76
638.632	8418
638.825	8395.48
639.019	8567.51
639.212	8391.38
639.406	8375
639.599	8383.19
639.793	8323.8
639.986	8260.31
640.18	8112.86
640.373	8268.5
640.567	8162.01
640.76	8131.29
640.954	7776.99
641.147	7973.6
641.34	7830.24
641.534	7985.88
641.727	7807.71
641.92	7715.55
642.114	7742.18
642.307	7713.5
642.5	7783.13
642.694	7619.3
642.887	7602.91
643.08	7590.63
643.273	7500.51
643.467	7367.4
643.66	7332.58
643.853	7277.29
644.046	7140.07
644.239	7324.39
644.432	7148.26
644.626	7201.51
644.819	7226.09
645.012	7209.7
645.205	7144.17
645.398	7056.11
645.591	7009
645.784	7211.75
645.977	6941.42
646.17	7000.81
646.363	6955.76
646.556	6826.73
646.749	6759.15
646.942	6998.76
647.135	6841.07
647.328	6712.05
647.521	6679.28
647.714	6509.3
647.907	6654.7
648.099	6730.48
648.292	6402.8
648.485	6632.18
648.678	6484.72
648.871	6437.62
649.064	6243.06
649.256	6308.6
649.449	6214.39
649.642	6155
649.835	6265.59
650.027	6214.39
650.22	6046.46
650.413	6142.71
650.605	6058.74
650.798	6028.03
650.991	6003.45
651.183	5888.76
651.376	6025.98
651.568	5962.49
651.761	6017.79
651.954	5999.35
652.146	6048.51
652.339	5802.75
652.531	5925.63
652.724	5731.07
652.916	5643.01
653.109	5634.82
653.301	5735.17
653.494	5634.82
653.686	5667.58
653.879	5636.86
654.071	5577.47
654.263	5405.44
654.456	5681.92
654.648	5561.09
654.84	5454.59
655.033	5452.55
655.225	5344
655.417	5344
655.61	5305.09
655.802	5335.81
655.994	5286.66
656.186	5452.55
656.379	5241.61
656.571	5364.48
656.763	5200.65
656.955	5184.26
657.148	5049.1
657.34	5186.31
657.532	5198.6
657.724	5047.05
657.916	5245.7
658.108	5128.97
658.3	4954.89
658.492	5137.16
658.684	4965.13
658.876	4803.34
659.068	4846.35
659.26	4848.4
659.452	4815.63
659.644	5022.47
659.836	4850.44
660.028	4797.2
660.22	4666.13
660.412	4717.33
660.604	4709.13
660.796	4709.13
660.988	4586.26
661.18	4651.79
661.372	4776.72
661.563	4692.75
661.755	4559.63
661.947	4635.41
662.139	4565.78
662.331	4545.3
662.522	4487.95
662.714	4432.66
662.906	4483.86
663.097	4444.95
663.289	4389.65
663.481	4363.03
663.673	4541.2
663.864	4256.53
664.056	4201.24
664.247	4182.81
664.439	4139.8
664.631	4285.2
664.822	4320.02
665.014	4231.96
665.205	4211.48
665.397	4326.16
665.588	4223.76
665.78	4053.78
665.971	4180.76
666.163	4160.28
666.354	4070.17
666.546	4033.3
666.737	4043.54
666.929	4057.88
667.12	3994.39
667.311	4045.59
667.503	3963.67
667.694	3982.1
667.885	3883.8
668.077	3916.57
668.268	3924.76
668.459	3900.19
668.651	3881.75
668.842	3867.42
669.033	3840.79
669.224	3871.51
669.416	3881.75
669.607	3795.74
669.798	3615.52
669.989	3912.47
670.18	3693.34
670.371	3771.16
670.563	3894.04
670.754	3789.6
670.945	3805.98
671.136	3797.79
671.327	3689.25
671.518	3730.2
671.709	3724.06
671.9	3642.14
672.091	3715.87
672.282	3627.81
672.473	3584.8
672.664	3773.21
672.855	3533.6
673.046	3552.03
673.237	3558.18
673.428	3560.22
673.619	3623.71
673.809	3574.56
674	3498.78
674.191	3607.33
674.382	3242.79
674.573	3484.45
674.764	3466.02
674.954	3570.46
675.145	3513.12
675.336	3463.97
675.527	3478.3
675.717	3482.4
675.908	3494.69
676.099	3402.53
676.289	3400.48
676.48	3433.25
676.671	3472.16
676.861	3494.69
677.052	3486.5
677.243	3359.52
677.433	3380
677.624	3470.11
677.814	3599.13
678.005	3459.87
678.195	3308.32
678.386	3322.66
678.576	3423.01
678.767	3330.85
678.957	3369.76
679.148	3402.53
679.338	3310.37
679.529	3375.91
679.719	3306.27
679.909	3259.17
680.1	3242.79
680.29	3291.94
680.481	3349.28
680.671	3394.34
680.861	3345.19
681.052	3250.98
681.242	3287.84
681.432	3169.06
681.622	3244.84
681.813	3375.91
682.003	3336.99
682.193	3232.55
682.383	3326.75
682.573	3259.17
682.764	3261.22
682.954	3224.36
683.144	3320.61
683.334	3285.8
683.524	3283.75
683.714	3316.51
683.904	3232.55
684.094	3287.84
684.284	3207.97
684.474	3300.13
684.664	3195.68
684.854	3216.16
685.044	3162.92
685.234	3248.93
685.424	3164.97
685.614	3205.92
685.804	3205.92
685.994	3031.85
686.184	3093.29
686.374	3050.28
686.564	3074.85
686.753	3179.3
686.943	3021.61
687.133	3148.58
687.323	3013.42
687.513	3005.22
687.702	2956.07
687.892	3033.9
688.082	2968.36
688.272	3074.85
688.461	2949.93
688.651	3056.42
688.841	2902.83
689.03	3056.42
689.22	2923.3
689.41	2929.45
689.599	2845.48
689.789	2845.48
689.979	2845.48
690.168	2941.74
690.358	2759.47
690.547	2878.25
690.737	2786.09
690.926	2945.83
691.116	2738.99
691.305	2767.66
691.495	2738.99
691.684	2853.67
691.874	2814.76
692.063	2685.74
692.252	2843.43
692.442	2745.13
692.631	2628.4
692.82	2626.35
693.01	2677.55
693.199	2571.05
693.388	2614.06
693.578	2638.64
693.767	2665.26
693.956	2698.03
694.146	2644.78
694.335	2620.21
694.524	2685.74
694.713	2714.41
694.902	2681.64
695.092	2599.73
695.281	2575.15
695.47	2569.01
695.659	2532.14
695.848	2595.63
696.037	2544.43
696.226	2616.11
696.415	2517.81
696.604	2566.96
696.793	2542.38
696.982	2638.64
697.171	2634.54
697.36	2519.85
697.549	2526
697.738	2669.36
697.927	2554.67
698.116	2671.4
698.305	2526
698.494	2566.96
698.683	2552.62
698.872	2607.92
699.061	2620.21
699.25	2605.87
699.438	2609.97
699.627	2597.68
699.816	2706.22
700.005	2497.33
700.193	2394.93
700.382	2552.62
700.571	2566.96
700.76	2468.66
700.948	2468.66
701.137	2538.29
701.326	2427.7
701.514	2460.46
701.703	2566.96
701.892	2429.74
702.08	2593.58
702.269	2417.46
702.457	2409.26
702.646	2569.01
702.834	2439.98
703.023	2509.62
703.212	2497.33
703.4	2526
703.589	2530.09
703.777	2517.81
703.965	2472.75
704.154	2513.71
704.342	2485.04
704.531	2569.01
704.719	2368.31
704.907	2657.07
705.096	2528.05
705.284	2597.68
705.472	2489.14
705.661	2409.26
705.849	2519.85
706.037	2534.19
706.226	2462.51
706.414	2501.42
706.602	2468.66
706.79	2603.82
706.979	2390.83
707.167	2609.97
707.355	2409.26
707.543	2495.28
707.731	2540.33
707.919	2513.71
708.107	2472.75
708.296	2536.24
708.484	2513.71
708.672	2462.51
708.86	2511.66
709.048	2552.62
709.236	2489.14
709.424	2493.23
709.612	2421.55
709.8	2482.99
709.988	2614.06
710.176	2511.66
710.364	2530.09
710.551	2485.04
710.739	2542.38
710.927	2548.53
711.115	2458.42
711.303	2548.53
711.491	2609.97
711.679	2552.62
711.866	2499.38
712.054	2497.33
712.242	2478.9
712.43	2507.57
712.617	2542.38
712.805	2544.43
712.993	2620.21
713.181	2558.77
713.368	2564.91
713.556	2526
713.744	2532.14
713.931	2605.87
714.119	2593.58
714.306	2468.66
714.494	2609.97
714.682	2544.43
714.869	2413.36
715.057	2554.67
715.244	2411.31
715.432	2491.18
715.619	2501.42
715.807	2519.85
715.994	2620.21
716.182	2612.01
716.369	2542.38
716.556	2589.49
716.744	2575.15
716.931	2628.4
717.119	2464.56
717.306	2521.9
717.493	2589.49
717.681	2575.15
717.868	2517.81
718.055	2482.99
718.242	2575.15
718.43	2704.17
718.617	2571.05
718.804	2612.01
718.991	2655.02
719.179	2538.29
719.366	2573.1
719.553	2612.01
719.74	2550.57
719.927	2607.92
720.114	2575.15
720.301	2546.48
720.488	2519.85
720.676	2571.05
720.863	2519.85
721.05	2650.92
721.237	2581.29
721.424	2528.05
721.611	2612.01
721.798	2552.62
721.985	2571.05
722.172	2700.08
722.358	2628.4
722.545	2593.58
722.732	2577.2
722.919	2626.35
723.106	2564.91
723.293	2558.77
723.48	2579.25
723.667	2638.64
723.853	2620.21
724.04	2679.6
724.227	2509.62
724.414	2693.93
724.6	2564.91
724.787	2566.96
724.974	2689.84
725.161	2632.49
725.347	2644.78
725.534	2652.97
725.72	2736.94
725.907	2614.06
726.094	2587.44
726.28	2519.85
726.467	2534.19
726.653	2579.25
726.84	2655.02
727.027	2650.92
727.213	2628.4
727.4	2597.68
727.586	2595.63
727.773	2603.82
727.959	2601.77
728.145	2575.15
728.332	2573.1
728.518	2575.15
728.705	2675.5
728.891	2505.52
729.077	2607.92
729.264	2695.98
729.45	2581.29
729.636	2741.04
729.823	2767.66
730.009	2507.57
730.195	2628.4
730.382	2624.3
730.568	2691.88
730.754	2532.14
730.94	2624.3
731.126	2634.54
731.313	2609.97
731.499	2640.69
731.685	2646.83
731.871	2542.38
732.057	2622.25
732.243	2634.54
732.429	2587.44
732.615	2704.17
732.801	2597.68
732.987	2581.29
733.173	2689.84
733.359	2571.05
733.545	2544.43
733.731	2566.96
733.917	2720.56
734.103	2612.01
734.289	2442.03
734.475	2554.67
734.661	2665.26
734.847	2616.11
735.033	2552.62
735.219	2683.69
735.404	2571.05
735.59	2532.14
735.776	2632.49
735.962	2528.05
736.148	2624.3
736.333	2603.82
736.519	2521.9
736.705	2519.85
736.89	2581.29
737.076	2495.28
737.262	2659.12
737.447	2605.87
737.633	2450.22
737.819	2472.75
738.004	2560.81
738.19	2460.46
738.375	2579.25
738.561	2399.02
738.747	2544.43
738.932	2446.13
739.118	2480.94
739.303	2384.69
739.489	2577.2
739.674	2464.56
739.859	2532.14
740.045	2470.7
740.23	2421.55
740.416	2388.78
740.601	2425.65
740.786	2341.68
740.972	2386.74
741.157	2380.59
741.342	2380.59
741.528	2503.47
741.713	2401.07
741.898	2282.29
742.084	2290.48
742.269	2399.02
742.454	2429.74
742.639	2315.06
742.824	2329.39
743.01	2290.48
743.195	2317.11
743.38	2364.21
743.565	2313.01
743.75	2317.11
743.935	2356.02
744.12	2294.58
744.305	2202.42
744.49	2218.8
744.675	2224.95
744.86	2202.42
745.045	2315.06
745.23	2296.63
745.415	2151.22
745.6	2218.8
745.785	2202.42
745.97	2175.8
746.155	2200.37
746.34	2155.32
746.525	2114.36
746.71	2171.7
746.895	2138.93
747.079	2196.28
747.264	2069.3
747.449	2034.49
747.634	2044.73
747.819	2188.08
748.003	1977.14
748.188	2052.92
748.373	1950.52
748.557	1999.67
748.742	2014.01
748.927	2014.01
749.111	1925.94
749.296	1981.24
749.481	1919.8
749.665	1956.66
749.85	1932.09
750.034	1856.31
750.219	1903.42
750.404	1880.89
750.588	1852.22
750.773	1899.32
750.957	1940.28
751.141	1825.59
751.326	1733.43
751.51	1852.22
751.695	1731.39
751.879	1688.38
752.064	1817.4
752.248	1794.87
752.432	1735.48
752.617	1764.15
752.801	1751.87
752.985	1604.41
753.17	1825.59
753.354	1755.96
753.538	1667.9
753.722	1600.32
753.907	1725.24
754.091	1618.75
754.275	1645.37
754.459	1649.47
754.643	1565.5
754.828	1600.32
755.012	1620.8
755.196	1528.64
755.38	1532.73
755.564	1604.41
755.748	1559.36
755.932	1579.84
756.116	1497.92
756.3	1583.93
756.484	1416
756.668	1471.29
756.852	1370.94
757.036	1502.01
757.22	1463.1
757.404	1391.42
757.588	1413.95
757.772	1452.86
757.956	1440.58
758.14	1383.23
758.323	1393.47
758.507	1475.39
758.691	1448.77
758.875	1323.84
759.059	1342.27
759.242	1280.83
759.426	1346.37
759.61	1291.07
759.794	1295.17
759.977	1395.52
760.161	1198.92
760.345	1440.58
760.528	1297.22
760.712	1301.31
760.895	1282.88
761.079	1303.36
761.263	1135.43
761.446	1370.94
761.63	1254.21
761.813	1211.2
761.997	1252.16
762.18	1172.29
762.364	1139.52
762.547	1170.24
762.731	1254.21
762.914	1141.57
763.098	1180.48
763.281	1182.53
763.464	1092.42
763.648	1139.52
763.831	1211.2
764.015	1092.42
764.198	1168.2
764.381	1100.61
764.564	1125.19
764.748	1067.85
764.931	1213.25
765.114	1176.39
765.297	1104.71
765.481	1098.56
765.664	1135.43
765.847	1078.08
766.03	1078.08
766.213	1057.61
766.397	1004.36
766.58	1076.04
766.763	1078.08
766.946	1073.99
767.129	996.17
767.312	1100.61
767.495	1010.5
767.678	1043.27
767.861	1155.91
768.044	990.02
768.227	1024.84
768.41	1035.08
768.593	1069.89
768.776	1012.55
768.959	971.59
769.142	961.35
769.324	953.16
769.507	1096.52
769.69	901.96
769.873	940.87
770.056	1043.27
770.239	959.3
770.421	983.88
770.604	947.01
770.787	908.1
770.97	955.21
771.152	901.96
771.335	949.06
771.518	897.86
771.7	912.2
771.883	1004.36
772.066	990.02
772.248	863.05
772.431	906.06
772.613	906.06
772.796	844.62
772.978	912.2
773.161	922.44
773.343	899.91
773.526	879.43
773.708	854.86
773.891	883.53
774.073	832.33
774.256	863.05
774.438	789.32
774.621	879.43
774.803	828.23
774.985	846.66
775.168	832.33
775.35	760.65
775.532	774.99
775.715	875.34
775.897	826.18
776.079	799.56
776.261	783.18
776.444	793.42
776.626	834.38
776.808	768.84
776.99	731.98
777.173	795.47
777.355	703.31
777.537	731.98
777.719	772.94
777.901	846.66
778.083	752.46
778.265	658.25
778.447	668.49
778.629	672.59
778.811	691.02
778.993	713.55
779.175	719.69
779.357	731.98
779.539	598.86
779.721	641.87
779.903	631.63
780.085	707.4
780.267	639.82
780.449	650.06
780.631	658.25
780.812	684.87
780.994	631.63
781.176	586.57
781.358	611.15
781.54	641.87
781.721	582.48
781.903	586.57
782.085	562
782.267	525.13
782.448	598.86
782.63	627.53
782.812	650.06
782.993	609.1
783.175	590.67
783.357	566.09
783.538	545.61
783.72	527.18
783.901	574.28
784.083	473.93
784.264	494.41
784.446	518.99
784.627	576.33
784.809	531.28
784.99	533.33
785.172	555.85
785.353	488.27
785.535	451.41
785.716	498.51
785.897	500.56
786.079	447.31
786.26	543.57
786.441	504.65
786.623	459.6
786.804	414.54
786.985	482.13
787.167	461.65
787.348	461.65
787.529	432.97
787.71	430.93
787.891	467.79
788.073	430.93
788.254	473.93
788.435	475.98
788.616	504.65
788.797	314.19
788.978	430.93
789.159	437.07
789.34	379.73
789.522	385.87
789.703	353.1
789.884	469.84
790.065	447.31
790.246	342.86
790.427	369.49
790.607	426.83
790.788	488.27
790.969	340.82
791.15	437.07
791.331	332.62
791.512	340.82
791.693	336.72
791.874	346.96
792.054	328.53
792.235	379.73
792.416	387.92
792.597	396.11
792.778	422.73
792.958	346.96
793.139	426.83
793.32	379.73
793.5	320.34
793.681	342.86
793.862	392.02
794.042	328.53
794.223	297.81
794.404	316.24
794.584	281.43
794.765	308.05
794.945	308.05
795.126	306
795.306	338.77
795.487	375.63
795.667	314.19
795.848	299.86
796.028	289.62
796.209	281.43
796.389	318.29
796.57	295.76
796.75	338.77
796.93	379.73
797.111	275.28
797.291	236.37
797.471	308.05
797.652	318.29
797.832	203.6
798.012	273.23
798.192	246.61
798.373	258.9
798.553	258.9
798.733	279.38
798.913	289.62
799.093	176.98
799.274	318.29
799.454	267.09
799.634	248.66
799.814	240.47
799.994	295.76
800.174	338.77
800.354	316.24
800.534	222.03
800.714	230.23
800.894	234.32
801.074	144.21
801.254	262.99
801.434	262.99
801.614	250.71
801.794	301.9
801.974	680.78
802.154	262.99
802.334	195.41
802.514	254.8
802.693	203.6
802.873	289.62
803.053	179.03
803.233	240.47
803.413	213.84
803.592	187.22
803.772	211.79
803.952	299.86
804.131	238.42
804.311	279.38
804.491	269.14
804.67	215.89
804.85	252.75
805.03	232.27
805.209	213.84
805.389	269.14
805.568	185.17
805.748	215.89
805.928	207.7
806.107	211.79
806.287	156.5
806.466	244.56
806.646	230.23
806.825	181.07
807.004	127.83
807.184	131.92
807.363	248.66
807.543	248.66
807.722	207.7
807.901	209.75
808.081	199.51
808.26	162.64
808.439	244.56
808.619	234.32
808.798	199.51
808.977	203.6
809.156	172.88
809.336	142.16
809.515	228.18
809.694	140.12
809.873	146.26
810.052	195.41
810.231	240.47
810.411	144.21
810.59	142.16
810.769	183.12
810.948	176.98
811.127	144.21
811.306	181.07
811.485	158.55
811.664	166.74
811.843	121.68
812.022	248.66
812.201	170.83
812.38	207.7
812.559	119.64
812.737	232.27
812.916	121.68
813.095	201.55
813.274	111.44
813.453	162.64
813.632	191.31
813.811	226.13
813.989	105.3
814.168	144.21
814.347	127.83
814.526	211.79
814.704	125.78
814.883	199.51
815.062	146.26
815.24	199.51
815.419	150.36
815.598	160.59
815.776	131.92
815.955	131.92
816.133	93.01
816.312	125.78
816.49	84.82
816.669	158.55
816.847	136.02
817.026	129.88
817.204	150.36
817.383	179.03
817.561	66.39
817.74	213.84
817.918	176.98
818.097	119.64
818.275	119.64
818.453	146.26
818.632	78.68
818.81	109.4
818.988	213.84
819.167	25.43
819.345	187.22
819.523	176.98
819.701	150.36
819.879	152.4
820.058	146.26
820.236	133.97
820.414	111.44
820.592	146.26
820.77	105.3
820.948	166.74
821.127	103.25
821.305	146.26
821.483	95.06
821.661	133.97
821.839	64.34
822.017	209.75
822.195	146.26
822.373	80.72
822.551	113.49
822.729	80.72
822.907	150.36
823.085	117.59
823.262	146.26
823.44	97.11
823.618	56.15
823.796	105.3
823.974	62.29
824.152	90.96
824.329	60.24
824.507	129.88
824.685	133.97
824.863	115.54
825.04	88.92
825.218	103.25
825.396	78.68
825.574	150.36
825.751	97.11
825.929	193.36
826.107	99.16
826.284	111.44
826.462	66.39
826.639	86.87
826.817	76.63
826.994	164.69
827.172	50
827.349	142.16
827.527	101.2
827.704	105.3
827.882	197.46
828.059	131.92
828.237	72.53
828.414	76.63
828.591	47.96
828.769	121.68
828.946	113.49
829.124	88.92
829.301	129.88
829.478	109.4
829.655	129.88
829.833	111.44
830.01	45.91
830.187	47.96
830.364	162.64
830.542	64.34
830.719	101.2
830.896	101.2
831.073	107.35
831.25	140.12
831.427	113.49
831.604	60.24
831.782	80.72
831.959	82.77
832.136	78.68
832.313	107.35
832.49	97.11
832.667	121.68
832.844	129.88
833.021	121.68
833.198	35.67
833.374	52.05
833.551	29.52
833.728	172.88
833.905	103.25
834.082	109.4
834.259	50
834.436	93.01
834.612	72.53
834.789	129.88
834.966	119.64
835.143	158.55
835.319	56.15
835.496	52.05
835.673	107.35
835.85	121.68
836.026	70.48
836.203	127.83
836.38	7
836.556	62.29
836.733	50
836.909	45.91
837.086	76.63
837.262	2.9
837.439	146.26
837.616	90.96
837.792	39.76
837.968	80.72
838.145	54.1
838.321	131.92
838.498	113.49
838.674	58.2
838.851	45.91
839.027	56.15
839.203	127.83
839.38	29.52
839.556	17.24
839.732	84.82
839.909	-1.19
840.085	0.85
840.261	-1.19
840.437	-5.29
840.614	70.48
840.79	82.77
840.966	111.44
841.142	52.05
841.318	52.05
841.494	64.34
841.671	-25.77
841.847	74.58
842.023	41.81
842.199	93.01
842.375	144.21
842.551	66.39
842.727	27.48
842.903	84.82
843.079	33.62
843.255	95.06
843.431	129.88
843.607	93.01
843.783	15.19
843.959	31.57
844.134	93.01
844.31	45.91
844.486	0.85
844.662	43.86
844.838	52.05
845.013	15.19
845.189	43.86
845.365	52.05
845.541	58.2
845.716	41.81
845.892	105.3
846.068	74.58
846.244	99.16
846.419	148.31
846.595	47.96
846.77	74.58
846.946	37.72
847.122	29.52
847.297	19.29
847.473	111.44
847.648	45.91
847.824	66.39
847.999	45.91
848.175	19.29
848.35	25.43
848.526	78.68
848.701	50
848.876	133.97
849.052	35.67
849.227	-33.96
849.403	41.81
849.578	-36.01
849.753	11.09
849.929	-3.24
850.104	4.95
850.279	52.05
850.454	66.39
850.63	13.14
850.805	58.2
850.98	70.48
851.155	15.19
851.33	70.48
851.505	84.82
851.681	86.87
851.856	39.76
852.031	35.67
852.206	39.76
852.381	-3.24
852.556	-9.39
852.731	19.29
852.906	17.24
853.081	78.68
853.256	54.1
853.431	27.48
853.606	-13.48
853.781	-31.91
853.956	-17.58
854.131	115.54
854.305	7
854.48	78.68
854.655	31.57
854.83	86.87
855.005	35.67
855.18	7
855.354	56.15
855.529	107.35
855.704	50
855.879	-15.53
856.053	15.19
856.228	9.05
856.403	31.57
856.577	93.01
856.752	-42.15
856.926	9.05
857.101	9.05
857.276	56.15
857.45	82.77
857.625	-27.82
857.799	21.33
857.974	17.24
858.148	15.19
858.323	84.82
858.497	27.48
858.672	68.44
858.846	-7.34
859.02	101.2
859.195	9.05
859.369	31.57
859.543	78.68
859.718	64.34
859.892	70.48
860.066	64.34
860.241	52.05
860.415	17.24
860.589	54.1
860.763	121.68
860.938	9.05
861.112	72.53
861.286	37.72
861.46	70.48
861.634	-19.63
861.808	62.29
861.982	-15.53
862.157	39.76
862.331	-11.43
862.505	35.67
862.679	31.57
862.853	68.44
863.027	-46.25
863.201	-7.34
863.375	41.81
863.549	99.16
863.722	0.85
863.896	37.72
864.07	-5.29
864.244	23.38
864.418	99.16
864.592	-17.58
864.766	39.76
864.939	84.82
865.113	37.72
865.287	64.34
865.461	0.85
865.634	-56.49
865.808	11.09
865.982	-1.19
866.156	-9.39
866.329	47.96
866.503	19.29
866.676	37.72
866.85	39.76
867.024	0.85
867.197	47.96
867.371	-9.39
867.544	9.05
867.718	50
867.891	88.92
868.065	2.9
868.238	31.57
868.412	39.76
868.585	56.15
868.759	2.9
868.932	-42.15
869.105	58.2
869.279	0.85
869.452	-62.63
869.625	29.52
869.799	90.96
869.972	-46.25
870.145	-3.24
870.319	11.09
870.492	37.72
870.665	21.33
870.838	-36.01
871.011	-23.72
871.185	-11.43
871.358	60.24
871.531	-36.01
871.704	11.09
871.877	68.44
872.05	21.33
872.223	64.34
872.396	-9.39
872.569	125.78
872.742	39.76
872.915	2.9
873.088	-1.19
873.261	27.48
873.434	-3.24
873.607	-58.54
873.78	70.48
873.953	-56.49
874.126	39.76
874.299	39.76
874.471	23.38
874.644	50
874.817	-68.78
874.99	60.24
875.163	-5.29
875.335	35.67
875.508	15.19
875.681	25.43
875.853	7
876.026	64.34
876.199	45.91
876.371	39.76
876.544	33.62
876.717	11.09
876.889	33.62
877.062	27.48
877.234	-54.44
877.407	9.05
877.579	-11.43
877.752	-44.2
877.924	25.43
878.097	-40.11
878.269	-25.77
878.442	27.48
878.614	23.38
878.786	45.91
878.959	33.62
879.131	25.43
879.303	0.85
879.476	43.86
879.648	2.9
879.82	-9.39
879.993	27.48
880.165	-7.34
880.337	11.09
880.509	-81.07
880.681	-33.96
880.854	-25.77
881.026	9.05
881.198	37.72
881.37	23.38
881.542	-13.48
881.714	-29.87
881.886	4.95
882.058	37.72
882.23	-48.3
882.402	31.57
882.574	-1.19
882.746	-11.43
882.918	-13.48
883.09	17.24
883.262	-56.49
883.434	64.34
883.606	39.76
883.778	45.91
883.95	47.96
884.122	-23.72
884.293	19.29
884.465	56.15
884.637	45.91
884.809	-9.39
884.98	86.87
885.152	-29.87
885.324	17.24
885.496	-29.87
885.667	-15.53
885.839	-23.72
886.011	-7.34
886.182	-17.58
886.354	-29.87
886.525	37.72
886.697	-29.87
886.869	-42.15
887.04	-13.48
887.212	52.05
887.383	45.91
887.555	-42.15
887.726	27.48
887.897	19.29
888.069	35.67
888.24	43.86
888.412	17.24
888.583	35.67
888.754	52.05
888.926	2.9
889.097	25.43
889.268	-9.39
889.44	70.48
889.611	15.19
889.782	-9.39
889.953	-7.34
890.125	93.01
890.296	35.67
890.467	-15.53
890.638	-60.59
890.809	27.48
890.98	39.76
891.151	47.96
891.323	111.44
891.494	35.67
891.665	25.43
891.836	-7.34
892.007	58.2
892.178	-36.01
892.349	0.85
892.52	-38.06
892.691	21.33
892.862	29.52
893.032	-21.67
893.203	-40.11
893.374	2.9
893.545	-33.96
893.716	-9.39
893.887	-19.63
894.057	-5.29
894.228	35.67
894.399	-46.25
894.57	21.33
894.74	-44.2
894.911	35.67
895.082	-9.39
895.253	-7.34
895.423	19.29
895.594	0.85
895.764	9.05
895.935	7
896.106	54.1
896.276	-9.39
896.447	17.24
896.617	27.48
896.788	70.48
896.958	45.91
897.129	-25.77
897.299	19.29
897.47	17.24
897.64	-3.24
897.81	-27.82
897.981	2.9
898.151	52.05
898.322	68.44
898.492	19.29
898.662	-9.39
898.832	27.48
899.003	-29.87
899.173	19.29
899.343	-7.34
899.513	43.86
