Data from USB4F104151__72__11-52-40-121.txt Node

Date: Fri Mar 14 11:52:40 EDT 2025
User: louis
Spectrometer: USB4F10415
Trigger mode: 4
Integration Time (sec): 2.000000E-2
Scans to average: 1
Electric dark correction enabled: true
Nonlinearity correction enabled: false
Boxcar width: 0
XAxis mode: Wavelengths
Number of Pixels in Spectrum: 3648
>>>>>Begin Spectral Data<<<<<
178.204	-87.72
178.424	-87.72
178.644	-87.72
178.864	-87.72
179.084	-102.06
179.304	41.3
179.524	-28.33
179.744	76.12
179.964	-7.85
180.184	-32.43
180.404	39.25
180.624	-5.8
180.844	-61.1
181.064	-71.34
181.283	39.25
181.503	-42.67
181.723	53.59
181.943	-36.52
182.163	4.44
182.383	-1.71
182.602	18.77
182.822	-36.52
183.042	37.2
183.262	-26.28
183.482	29.01
183.701	-30.38
183.921	131.41
184.141	-3.75
184.361	41.3
184.58	-67.24
184.8	-11.95
185.02	-36.52
185.239	33.11
185.459	51.54
185.679	65.88
185.898	-34.47
186.118	35.16
186.338	24.92
186.557	-11.95
186.777	-24.23
186.997	20.82
187.216	35.16
187.436	39.25
187.655	-11.95
187.875	18.77
188.095	-13.99
188.314	72.02
188.534	29.01
188.753	18.77
188.973	41.3
189.192	63.83
189.412	-61.1
189.631	47.44
189.851	18.77
190.07	26.96
190.29	18.77
190.509	26.96
190.729	33.11
190.948	63.83
191.168	31.06
191.387	2.39
191.607	-5.8
191.826	0.34
192.045	4.44
192.265	14.68
192.484	-40.62
192.704	12.63
192.923	-28.33
193.142	57.68
193.362	-22.19
193.581	76.12
193.8	41.3
194.02	8.53
194.239	47.44
194.458	45.4
194.678	-46.76
194.897	22.87
195.116	-3.75
195.335	78.16
195.555	57.68
195.774	35.16
195.993	24.92
196.212	4.44
196.432	-32.43
196.651	16.73
196.87	10.58
197.089	51.54
197.308	90.45
197.528	8.53
197.747	-28.33
197.966	37.2
198.185	35.16
198.404	61.78
198.623	-3.75
198.842	80.21
199.062	14.68
199.281	59.73
199.5	14.68
199.719	78.16
199.938	-61.1
200.157	41.3
200.376	6.49
200.595	82.26
200.814	53.59
201.033	-24.23
201.252	31.06
201.471	-3.75
201.69	-34.47
201.909	-34.47
202.128	39.25
202.347	51.54
202.566	-16.04
202.785	84.31
203.004	-1.71
203.223	82.26
203.442	12.63
203.661	-61.1
203.879	-16.04
204.098	61.78
204.317	-54.95
204.536	4.44
204.755	-44.71
204.974	-1.71
205.193	51.54
205.411	72.02
205.63	6.49
205.849	31.06
206.068	-20.14
206.287	26.96
206.505	43.35
206.724	6.49
206.943	-20.14
207.162	51.54
207.381	0.34
207.599	-30.38
207.818	-34.47
208.037	22.87
208.255	2.39
208.474	24.92
208.693	-18.09
208.911	-7.85
209.13	22.87
209.349	37.2
209.567	20.82
209.786	29.01
210.005	51.54
210.223	84.31
210.442	-18.09
210.661	26.96
210.879	26.96
211.098	43.35
211.316	94.55
211.535	14.68
211.753	67.92
211.972	102.74
212.191	-20.14
212.409	-32.43
212.628	63.83
212.846	49.49
213.065	31.06
213.283	74.07
213.502	14.68
213.72	-9.9
213.938	20.82
214.157	10.58
214.375	-5.8
214.594	-85.67
214.812	49.49
215.031	-24.23
215.249	24.92
215.467	2.39
215.686	88.4
215.904	24.92
216.122	26.96
216.341	0.34
216.559	-46.76
216.778	69.97
216.996	-26.28
217.214	39.25
217.432	-32.43
217.651	106.84
217.869	26.96
218.087	35.16
218.306	18.77
218.524	59.73
218.742	18.77
218.96	78.16
219.179	16.73
219.397	6.49
219.615	41.3
219.833	84.31
220.051	22.87
220.27	67.92
220.488	4.44
220.706	10.58
220.924	-30.38
221.142	-38.57
221.36	-7.85
221.578	41.3
221.796	65.88
222.015	20.82
222.233	2.39
222.451	82.26
222.669	-44.71
222.887	18.77
223.105	-5.8
223.323	86.36
223.541	-28.33
223.759	-22.19
223.977	133.46
224.195	43.35
224.413	2.39
224.631	49.49
224.849	45.4
225.067	80.21
225.285	18.77
225.503	65.88
225.721	-65.19
225.939	53.59
226.157	55.64
226.375	41.3
226.592	12.63
226.81	55.64
227.028	-5.8
227.246	182.61
227.464	78.16
227.682	8.53
227.9	80.21
228.117	-34.47
228.335	-71.34
228.553	41.3
228.771	8.53
228.989	78.16
229.206	-3.75
229.424	-40.62
229.642	-5.8
229.86	-38.57
230.077	8.53
230.295	-24.23
230.513	-28.33
230.731	33.11
230.948	41.3
231.166	2.39
231.384	65.88
231.601	26.96
231.819	-65.19
232.037	24.92
232.254	12.63
232.472	67.92
232.689	-44.71
232.907	0.34
233.125	-67.24
233.342	26.96
233.56	35.16
233.777	47.44
233.995	29.01
234.213	76.12
234.43	125.27
234.648	-9.9
234.865	14.68
235.083	35.16
235.3	47.44
235.518	45.4
235.735	22.87
235.953	14.68
236.17	94.55
236.388	-28.33
236.605	20.82
236.822	24.92
237.04	82.26
237.257	-18.09
237.475	-71.34
237.692	49.49
237.909	-5.8
238.127	31.06
238.344	16.73
238.562	69.97
238.779	-1.71
238.996	-5.8
239.214	-30.38
239.431	39.25
239.648	-38.57
239.865	-7.85
240.083	12.63
240.3	80.21
240.517	0.34
240.735	35.16
240.952	-22.19
241.169	39.25
241.386	2.39
241.603	39.25
241.821	6.49
242.038	43.35
242.255	22.87
242.472	59.73
242.689	51.54
242.907	-13.99
243.124	-13.99
243.341	31.06
243.558	-11.95
243.775	-20.14
243.992	-40.62
244.209	2.39
244.426	63.83
244.643	45.4
244.86	6.49
245.078	45.4
245.295	-26.28
245.512	69.97
245.729	80.21
245.946	-28.33
246.163	24.92
246.38	-24.23
246.597	59.73
246.814	47.44
247.031	-5.8
247.248	39.25
247.464	14.68
247.681	39.25
247.898	29.01
248.115	69.97
248.332	18.77
248.549	20.82
248.766	16.73
248.983	33.11
249.2	33.11
249.417	84.31
249.633	22.87
249.85	-3.75
250.067	22.87
250.284	20.82
250.501	55.64
250.717	80.21
250.934	39.25
251.151	10.58
251.368	14.68
251.585	61.78
251.801	49.49
252.018	-20.14
252.235	-1.71
252.451	-1.71
252.668	-7.85
252.885	59.73
253.102	-63.15
253.318	29.01
253.535	-54.95
253.752	-75.43
253.968	37.2
254.185	14.68
254.401	10.58
254.618	-26.28
254.835	39.25
255.051	43.35
255.268	-9.9
255.484	24.92
255.701	-13.99
255.917	82.26
256.134	-1.71
256.351	115.03
256.567	-7.85
256.784	-18.09
257	-38.57
257.217	24.92
257.433	82.26
257.65	63.83
257.866	12.63
258.082	18.77
258.299	-46.76
258.515	104.79
258.732	-9.9
258.948	59.73
259.165	26.96
259.381	72.02
259.597	78.16
259.814	63.83
260.03	-18.09
260.246	-1.71
260.463	49.49
260.679	-7.85
260.895	-9.9
261.112	31.06
261.328	-26.28
261.544	49.49
261.761	47.44
261.977	-5.8
262.193	-13.99
262.409	-9.9
262.626	-3.75
262.842	12.63
263.058	20.82
263.274	67.92
263.49	12.63
263.707	96.6
263.923	29.01
264.139	-7.85
264.355	47.44
264.571	55.64
264.787	16.73
265.004	-20.14
265.22	84.31
265.436	26.96
265.652	8.53
265.868	90.45
266.084	-13.99
266.3	49.49
266.516	55.64
266.732	49.49
266.948	12.63
267.164	16.73
267.38	-13.99
267.596	0.34
267.812	86.36
268.028	10.58
268.244	72.02
268.46	43.35
268.676	47.44
268.892	18.77
269.108	33.11
269.324	-28.33
269.54	-48.81
269.756	82.26
269.972	65.88
270.188	-63.15
270.403	-5.8
270.619	59.73
270.835	2.39
271.051	-9.9
271.267	16.73
271.483	2.39
271.698	12.63
271.914	63.83
272.13	26.96
272.346	31.06
272.562	51.54
272.777	37.2
272.993	100.69
273.209	26.96
273.425	12.63
273.64	-22.19
273.856	10.58
274.072	24.92
274.287	-32.43
274.503	84.31
274.719	-3.75
274.934	16.73
275.15	-30.38
275.366	-24.23
275.581	-67.24
275.797	59.73
276.012	-7.85
276.228	12.63
276.444	55.64
276.659	14.68
276.875	12.63
277.09	-20.14
277.306	4.44
277.521	65.88
277.737	-28.33
277.952	55.64
278.168	2.39
278.383	2.39
278.599	10.58
278.814	43.35
279.03	43.35
279.245	18.77
279.461	37.2
279.676	24.92
279.892	-9.9
280.107	24.92
280.322	12.63
280.538	-9.9
280.753	2.39
280.969	98.64
281.184	10.58
281.399	-9.9
281.615	51.54
281.83	31.06
282.045	-77.48
282.26	-32.43
282.476	-13.99
282.691	-71.34
282.906	69.97
283.122	39.25
283.337	69.97
283.552	35.16
283.767	-22.19
283.983	-28.33
284.198	-20.14
284.413	108.88
284.628	31.06
284.843	10.58
285.058	37.2
285.274	33.11
285.489	18.77
285.704	37.2
285.919	-59.05
286.134	6.49
286.349	84.31
286.564	31.06
286.779	39.25
286.995	65.88
287.21	43.35
287.425	-3.75
287.64	-106.15
287.855	-5.8
288.07	53.59
288.285	59.73
288.5	39.25
288.715	0.34
288.93	20.82
289.145	-32.43
289.36	24.92
289.575	10.58
289.79	29.01
290.004	59.73
290.219	53.59
290.434	74.07
290.649	18.77
290.864	33.11
291.079	59.73
291.294	-32.43
291.509	14.68
291.724	39.25
291.938	-16.04
292.153	41.3
292.368	39.25
292.583	8.53
292.798	33.11
293.012	-13.99
293.227	-3.75
293.442	-26.28
293.657	78.16
293.871	0.34
294.086	41.3
294.301	-20.14
294.516	47.44
294.73	-11.95
294.945	39.25
295.16	51.54
295.374	57.68
295.589	-26.28
295.804	0.34
296.018	-16.04
296.233	67.92
296.447	37.2
296.662	-3.75
296.877	61.78
297.091	63.83
297.306	26.96
297.52	-16.04
297.735	80.21
297.949	31.06
298.164	12.63
298.378	-22.19
298.593	6.49
298.807	14.68
299.022	43.35
299.236	63.83
299.451	-42.67
299.665	-16.04
299.88	39.25
300.094	10.58
300.309	61.78
300.523	29.01
300.737	55.64
300.952	55.64
301.166	31.06
301.381	-65.19
301.595	88.4
301.809	-42.67
302.024	-16.04
302.238	-44.71
302.452	20.82
302.667	57.68
302.881	24.92
303.095	47.44
303.309	57.68
303.524	0.34
303.738	53.59
303.952	39.25
304.166	76.12
304.381	-13.99
304.595	35.16
304.809	39.25
305.023	41.3
305.237	76.12
305.452	49.49
305.666	2.39
305.88	2.39
306.094	112.98
306.308	137.56
306.522	41.3
306.736	88.4
306.95	59.73
307.164	12.63
307.379	-26.28
307.593	-1.71
307.807	80.21
308.021	61.78
308.235	16.73
308.449	86.36
308.663	-24.23
308.877	65.88
309.091	-38.57
309.305	16.73
309.519	39.25
309.733	110.93
309.947	26.96
310.161	8.53
310.374	-1.71
310.588	63.83
310.802	12.63
311.016	8.53
311.23	29.01
311.444	41.3
311.658	63.83
311.872	115.03
312.085	59.73
312.299	72.02
312.513	-26.28
312.727	12.63
312.941	-20.14
313.154	35.16
313.368	0.34
313.582	16.73
313.796	22.87
314.009	45.4
314.223	49.49
314.437	45.4
314.651	49.49
314.864	10.58
315.078	-83.63
315.292	80.21
315.505	18.77
315.719	110.93
315.933	35.16
316.146	18.77
316.36	22.87
316.573	47.44
316.787	41.3
317.001	102.74
317.214	-1.71
317.428	-28.33
317.641	-63.15
317.855	26.96
318.068	-34.47
318.282	45.4
318.495	133.46
318.709	20.82
318.922	-22.19
319.136	8.53
319.349	-13.99
319.563	16.73
319.776	37.2
319.99	-26.28
320.203	-48.81
320.417	24.92
320.63	-22.19
320.843	39.25
321.057	-1.71
321.27	100.69
321.483	53.59
321.697	41.3
321.91	26.96
322.124	2.39
322.337	33.11
322.55	22.87
322.763	-1.71
322.977	82.26
323.19	8.53
323.403	67.92
323.617	53.59
323.83	80.21
324.043	12.63
324.256	33.11
324.469	12.63
324.683	8.53
324.896	67.92
325.109	37.2
325.322	-9.9
325.535	14.68
325.748	69.97
325.962	6.49
326.175	-54.95
326.388	63.83
326.601	51.54
326.814	57.68
327.027	4.44
327.24	35.16
327.453	-36.52
327.666	14.68
327.879	84.31
328.092	-3.75
328.305	51.54
328.518	16.73
328.731	-11.95
328.944	43.35
329.157	78.16
329.37	-46.76
329.583	61.78
329.796	51.54
330.009	14.68
330.222	53.59
330.435	94.55
330.648	-1.71
330.861	-42.67
331.073	2.39
331.286	47.44
331.499	0.34
331.712	4.44
331.925	12.63
332.138	53.59
332.35	55.64
332.563	-36.52
332.776	35.16
332.989	-11.95
333.202	61.78
333.414	0.34
333.627	100.69
333.84	39.25
334.053	10.58
334.265	12.63
334.478	20.82
334.691	108.88
334.903	26.96
335.116	6.49
335.329	47.44
335.541	-5.8
335.754	-57
335.966	-24.23
336.179	76.12
336.392	-20.14
336.604	41.3
336.817	4.44
337.029	-30.38
337.242	24.92
337.454	2.39
337.667	-5.8
337.88	16.73
338.092	61.78
338.305	33.11
338.517	35.16
338.729	80.21
338.942	-7.85
339.154	10.58
339.367	14.68
339.579	88.4
339.792	-28.33
340.004	4.44
340.217	-13.99
340.429	41.3
340.641	0.34
340.854	14.68
341.066	57.68
341.278	41.3
341.491	37.2
341.703	26.96
341.915	20.82
342.128	31.06
342.34	-3.75
342.552	-7.85
342.764	47.44
342.977	-18.09
343.189	57.68
343.401	119.12
343.613	43.35
343.826	41.3
344.038	43.35
344.25	14.68
344.462	-9.9
344.674	-24.23
344.886	33.11
345.099	43.35
345.311	16.73
345.523	92.5
345.735	-108.2
345.947	4.44
346.159	-11.95
346.371	6.49
346.583	29.01
346.795	69.97
347.007	-28.33
347.219	47.44
347.431	4.44
347.643	35.16
347.855	6.49
348.067	24.92
348.279	-30.38
348.491	61.78
348.703	12.63
348.915	29.01
349.127	59.73
349.339	61.78
349.551	-13.99
349.763	26.96
349.975	59.73
350.187	31.06
350.399	49.49
350.61	20.82
350.822	16.73
351.034	20.82
351.246	72.02
351.458	18.77
351.669	65.88
351.881	-18.09
352.093	-1.71
352.305	-9.9
352.517	2.39
352.728	14.68
352.94	2.39
353.152	37.2
353.363	0.34
353.575	-3.75
353.787	74.07
353.999	-11.95
354.21	45.4
354.422	-9.9
354.633	-16.04
354.845	6.49
355.057	84.31
355.268	-20.14
355.48	63.83
355.692	6.49
355.903	139.6
356.115	-9.9
356.326	47.44
356.538	98.64
356.749	22.87
356.961	59.73
357.172	69.97
357.384	117.08
357.595	-5.8
357.807	74.07
358.018	80.21
358.23	37.2
358.441	-11.95
358.653	45.4
358.864	37.2
359.075	43.35
359.287	94.55
359.498	-7.85
359.709	90.45
359.921	0.34
360.132	31.06
360.344	80.21
360.555	2.39
360.766	37.2
360.977	43.35
361.189	63.83
361.4	-3.75
361.611	-18.09
361.823	24.92
362.034	53.59
362.245	-46.76
362.456	49.49
362.667	-50.86
362.879	35.16
363.09	49.49
363.301	12.63
363.512	-20.14
363.723	22.87
363.935	2.39
364.146	14.68
364.357	-57
364.568	31.06
364.779	-3.75
364.99	100.69
365.201	24.92
365.412	18.77
365.623	-40.62
365.834	-42.67
366.045	-5.8
366.256	-18.09
366.467	63.83
366.678	35.16
366.889	104.79
367.1	100.69
367.311	76.12
367.522	20.82
367.733	67.92
367.944	76.12
368.155	65.88
368.366	18.77
368.577	63.83
368.788	92.5
368.999	22.87
369.209	8.53
369.42	-9.9
369.631	49.49
369.842	104.79
370.053	-54.95
370.264	51.54
370.474	-38.57
370.685	14.68
370.896	22.87
371.107	2.39
371.317	49.49
371.528	26.96
371.739	98.64
371.95	24.92
372.16	-42.67
372.371	-28.33
372.582	43.35
372.792	72.02
373.003	-77.48
373.214	39.25
373.424	57.68
373.635	69.97
373.846	53.59
374.056	84.31
374.267	18.77
374.477	-18.09
374.688	31.06
374.898	-18.09
375.109	-7.85
375.319	16.73
375.53	35.16
375.74	37.2
375.951	6.49
376.161	74.07
376.372	72.02
376.582	110.93
376.793	20.82
377.003	-3.75
377.214	39.25
377.424	-18.09
377.635	-50.86
377.845	8.53
378.055	76.12
378.266	2.39
378.476	2.39
378.686	45.4
378.897	53.59
379.107	61.78
379.317	82.26
379.528	12.63
379.738	47.44
379.948	86.36
380.158	26.96
380.369	16.73
380.579	-9.9
380.789	20.82
380.999	26.96
381.21	98.64
381.42	57.68
381.63	33.11
381.84	55.64
382.05	4.44
382.261	76.12
382.471	59.73
382.681	14.68
382.891	108.88
383.101	51.54
383.311	-34.47
383.521	55.64
383.731	92.5
383.941	115.03
384.151	37.2
384.361	-11.95
384.571	63.83
384.781	78.16
384.991	96.6
385.201	123.22
385.411	67.92
385.621	63.83
385.831	18.77
386.041	20.82
386.251	22.87
386.461	53.59
386.671	63.83
386.881	0.34
387.091	92.5
387.301	80.21
387.511	123.22
387.72	16.73
387.93	8.53
388.14	2.39
388.35	112.98
388.56	51.54
388.769	6.49
388.979	51.54
389.189	2.39
389.399	24.92
389.609	108.88
389.818	61.78
390.028	39.25
390.238	96.6
390.447	2.39
390.657	94.55
390.867	53.59
391.076	-26.28
391.286	-22.19
391.496	74.07
391.705	14.68
391.915	104.79
392.125	78.16
392.334	10.58
392.544	98.64
392.753	51.54
392.963	2.39
393.172	65.88
393.382	72.02
393.591	37.2
393.801	47.44
394.01	74.07
394.22	-20.14
394.429	45.4
394.639	55.64
394.848	76.12
395.058	18.77
395.267	82.26
395.477	61.78
395.686	84.31
395.895	98.64
396.105	88.4
396.314	59.73
396.524	29.01
396.733	110.93
396.942	94.55
397.152	63.83
397.361	65.88
397.57	55.64
397.78	39.25
397.989	72.02
398.198	112.98
398.407	12.63
398.617	16.73
398.826	59.73
399.035	90.45
399.244	-71.34
399.453	96.6
399.663	-30.38
399.872	80.21
400.081	78.16
400.29	139.6
400.499	45.4
400.708	110.93
400.917	108.88
401.127	35.16
401.336	14.68
401.545	78.16
401.754	59.73
401.963	104.79
402.172	47.44
402.381	35.16
402.59	80.21
402.799	78.16
403.008	108.88
403.217	72.02
403.426	69.97
403.635	29.01
403.844	-5.8
404.053	53.59
404.262	59.73
404.471	127.32
404.68	65.88
404.888	108.88
405.097	104.79
405.306	51.54
405.515	41.3
405.724	102.74
405.933	127.32
406.142	129.36
406.35	117.08
406.559	94.55
406.768	102.74
406.977	145.75
407.185	182.61
407.394	92.5
407.603	133.46
407.812	98.64
408.02	151.89
408.229	158.03
408.438	125.27
408.646	174.42
408.855	86.36
409.064	135.51
409.272	129.36
409.481	260.43
409.69	227.67
409.898	129.36
410.107	174.42
410.315	188.75
410.524	166.23
410.733	205.14
410.941	192.85
411.15	215.38
411.358	248.15
411.567	237.91
411.775	248.15
411.984	250.19
412.192	270.67
412.401	323.92
412.609	260.43
412.818	239.95
413.026	317.78
413.234	307.54
413.443	285.01
413.651	401.74
413.86	332.11
414.068	330.06
414.276	342.35
414.485	387.41
414.693	387.41
414.901	481.61
415.11	373.07
415.318	375.12
415.526	409.94
415.734	469.33
415.943	467.28
416.151	530.77
416.359	475.47
416.567	541.01
416.776	454.99
416.984	553.29
417.192	598.35
417.4	608.59
417.608	520.53
417.817	592.2
418.025	622.92
418.233	678.22
418.441	655.69
418.649	739.66
418.857	770.38
419.065	780.62
419.273	799.05
419.481	844.1
419.689	844.1
419.897	854.34
420.105	850.25
420.313	946.5
420.521	923.98
420.729	934.22
420.937	975.17
421.145	948.55
421.353	1007.94
421.561	1120.58
421.769	1169.73
421.977	1261.89
422.185	1308.99
422.393	1282.37
422.601	1354.05
422.809	1364.29
423.017	1347.9
423.224	1397.06
423.432	1356.1
423.64	1558.85
423.848	1608
424.056	1548.61
424.263	1673.53
424.471	1657.15
424.679	1743.16
424.887	1720.64
425.094	1806.65
425.302	1894.71
425.51	1907
425.718	2097.46
425.925	1982.78
426.133	2099.51
426.341	2199.86
426.548	2335.03
426.756	2345.27
426.964	2279.73
427.171	2517.29
427.379	2349.36
427.586	2525.49
427.794	2672.94
428.001	2718
428.209	2681.13
428.417	2758.96
428.624	3049.77
428.832	3107.11
429.039	3033.38
429.247	3082.53
429.454	3191.08
429.662	3494.18
429.869	3379.49
430.076	3479.84
430.284	3471.65
430.491	3569.95
430.699	3580.19
430.906	3760.41
431.114	3807.52
431.321	4049.18
431.528	4180.25
431.736	4376.85
431.943	4448.53
432.15	4229.4
432.358	4350.23
432.565	4806.92
432.772	4575.5
432.979	4907.27
433.187	5015.82
433.394	5011.72
433.601	5253.38
433.808	5339.4
434.016	5425.41
434.223	5671.17
434.43	5861.63
434.637	5744.89
434.844	6123.77
435.052	6344.95
435.259	6238.45
435.466	6230.26
435.673	6203.64
435.88	6795.5
436.087	6996.2
436.294	6942.96
436.501	6709.49
436.708	6990.06
436.915	7137.51
437.122	7637.22
437.329	7385.32
437.537	7911.64
437.743	7729.38
437.95	7745.76
438.157	8208.6
438.364	8589.52
438.571	8493.27
438.778	8546.51
438.985	9400.52
439.192	8890.57
439.399	9232.58
439.606	9023.69
439.813	9584.84
440.02	10111.16
440.227	9814.21
440.433	9967.81
440.64	10209.47
440.847	9748.67
441.054	10262.71
441.261	11002.03
441.467	10985.65
441.674	11157.68
441.881	11643.04
442.088	11237.55
442.294	11372.71
442.501	11804.83
442.708	11956.38
442.914	12284.06
443.121	13066.38
443.328	12400.79
443.534	13504.65
443.741	12972.18
443.948	12716.18
444.154	13662.34
444.361	13674.63
444.568	13801.6
444.774	13854.85
444.981	13936.77
445.187	14686.33
445.394	15075.44
445.6	15073.39
445.807	16205.92
446.013	15792.23
446.22	15976.55
446.426	16590.94
446.633	16810.07
446.839	17199.18
447.046	16445.53
447.252	17234
447.459	17797.19
447.665	17528.91
447.871	18055.23
448.078	18915.38
448.284	18309.18
448.491	18368.57
448.697	19251.25
448.903	19591.21
449.11	19529.77
449.316	19238.96
449.522	19755.05
449.728	20592.67
449.935	20590.62
450.141	20240.42
450.347	20580.38
450.553	20240.42
450.76	20631.58
450.966	21014.55
451.172	20664.35
451.378	21526.54
451.584	20858.9
451.791	21649.42
451.997	21491.73
452.203	21897.22
452.409	22173.7
452.615	21819.4
452.821	20996.12
453.027	20619.29
453.233	21872.65
453.44	20910.1
453.646	21356.56
453.852	21491.73
454.058	21731.34
454.264	20930.58
454.47	21571.6
454.676	21119
454.882	21694.47
455.088	19834.92
455.294	20332.58
455.5	20545.56
455.705	20588.57
455.911	19863.59
456.117	19611.69
456.323	19339.31
456.529	18303.04
456.735	18942
456.941	18522.17
457.147	18116.67
457.352	17647.69
457.558	17459.27
457.764	17778.76
457.97	17238.09
458.176	16861.27
458.381	16844.88
458.587	16103.52
458.793	16423
458.999	15128.69
459.204	16445.53
459.41	15968.35
459.616	14841.97
459.821	14796.92
460.027	14669.94
460.233	14434.43
460.438	13543.56
460.644	13670.53
460.85	13150.35
461.055	12961.94
461.261	13072.53
461.466	12312.73
461.672	11522.21
461.878	12427.42
462.083	11753.63
462.289	11442.34
462.494	11317.42
462.7	10899.63
462.905	10469.56
463.111	10963.12
463.316	11100.33
463.522	10737.84
463.727	10526.9
463.932	10653.87
464.138	10561.72
464.343	10631.35
464.549	10332.34
464.754	10780.85
464.959	10537.14
465.165	10401.97
465.37	10043.58
465.575	9906.37
465.781	10150.07
465.986	10401.97
466.191	9826.5
466.397	9586.88
466.602	9330.89
466.807	9496.77
467.012	9402.57
467.218	9369.8
467.423	9318.6
467.628	9425.09
467.833	9826.5
468.038	9382.09
468.244	9197.77
468.449	9451.72
468.654	9236.68
468.859	9179.34
469.064	9255.11
469.269	8898.77
469.474	8890.57
469.679	9038.03
469.885	8806.61
470.09	8843.47
470.295	8962.25
470.5	8653.01
470.705	8646.87
470.91	8452.31
471.115	8548.56
471.32	8532.18
471.525	8538.32
471.73	8153.3
471.935	8181.98
472.139	8069.34
472.344	7936.22
472.549	7913.69
472.754	7975.13
472.959	7925.98
473.164	7553.25
473.369	7420.13
473.574	7723.23
473.778	7661.79
473.983	7555.3
474.188	7475.43
474.393	7315.69
474.598	7510.24
474.802	7246.05
475.007	7176.42
475.212	7160.04
475.417	6990.06
475.621	6897.9
475.826	6981.87
476.031	6750.45
476.235	6633.71
476.44	6795.5
476.645	6615.28
476.849	6594.8
477.054	6557.94
477.259	6371.57
477.463	6545.65
477.668	6310.13
477.872	6373.62
478.077	6162.68
478.282	6074.62
478.486	6011.13
478.691	5996.79
478.895	5988.6
479.1	6011.13
479.304	5894.4
479.509	5826.81
479.713	5716.22
479.918	5867.77
480.122	5796.09
480.326	5781.76
480.531	5914.88
480.735	5671.17
480.94	5581.06
481.144	5898.49
481.348	5433.6
481.553	5617.92
481.757	5558.53
481.961	5523.71
482.166	5679.36
482.37	5552.38
482.574	5634.3
482.778	5507.33
482.983	5624.06
483.187	5554.43
483.391	5505.28
483.595	5488.9
483.8	5579.01
484.004	5640.45
484.208	5638.4
484.412	5501.19
484.616	5495.04
484.821	5712.13
485.025	5337.35
485.229	5622.02
485.433	5544.19
485.637	5462.27
485.841	5538.05
486.045	5566.72
486.249	5695.74
486.453	5642.5
486.657	5509.38
486.861	5458.18
487.065	5425.41
487.269	5527.81
487.473	5349.64
487.677	5521.67
487.881	5640.45
488.085	5337.35
488.289	5630.21
488.493	5589.25
488.697	5581.06
488.901	5613.82
489.105	5572.86
489.309	5638.4
489.512	5583.1
489.716	5640.45
489.92	5529.86
490.124	5509.38
490.328	5687.55
490.531	5630.21
490.735	5667.07
490.939	5689.6
491.143	5615.87
491.346	5732.61
491.55	5865.72
491.754	5681.41
491.958	5878.01
492.161	5855.48
492.365	5794.04
492.569	5630.21
492.772	5775.61
492.976	5931.26
493.18	5921.02
493.383	6011.13
493.587	6078.71
493.79	6134.01
493.994	5804.28
494.197	5961.98
494.401	5990.65
494.605	6156.54
494.808	6211.83
495.012	6318.32
495.215	6162.68
495.419	6293.75
495.622	6359.28
495.825	6484.21
496.029	6508.79
496.232	6514.93
496.436	6572.27
496.639	6891.76
496.843	6551.79
497.046	6838.51
497.249	6805.74
497.453	6994.15
497.656	6988.01
497.859	7024.87
498.063	7037.16
498.266	7315.69
498.469	7014.63
498.673	7272.68
498.876	7395.56
499.079	7424.23
499.282	7524.58
499.485	7403.75
499.689	7661.79
499.892	7817.44
500.095	7780.57
500.298	7958.75
500.501	7868.64
500.705	8173.78
500.908	8052.95
501.111	8151.26
501.314	8306.9
501.517	8425.68
501.72	8509.65
501.923	8382.68
502.126	8661.2
502.329	8638.67
502.532	8853.71
502.735	9021.64
502.938	9081.03
503.141	9058.51
503.344	9267.4
503.547	9334.98
503.75	9208.01
503.953	9398.47
504.156	9599.17
504.359	9709.76
504.562	9709.76
504.765	9984.19
504.968	9932.99
505.17	10277.05
505.373	10238.14
505.576	10203.32
505.779	10512.56
505.982	10576.05
506.185	10487.99
506.387	10721.46
506.59	11018.41
506.793	11002.03
506.996	11096.24
507.198	11419.82
507.401	11335.85
507.604	11313.32
507.807	11655.33
508.009	11643.04
508.212	11757.73
508.415	11808.93
508.617	12064.93
508.82	12075.17
509.022	12030.11
509.225	12347.54
509.428	12419.22
509.63	12658.84
509.833	12683.41
510.035	12898.45
510.238	12828.82
510.44	13127.82
510.643	13158.54
510.845	13373.58
511.048	13451.4
511.25	13500.55
511.453	13635.72
511.655	14266.49
511.858	13944.96
512.06	14028.93
512.262	14268.54
512.465	14211.2
512.667	14563.45
512.87	14663.8
513.072	14688.37
513.274	15155.31
513.477	15120.49
513.679	15081.58
513.881	15298.67
514.084	15616.1
514.286	15536.23
514.488	15480.94
514.69	16164.96
514.893	16134.24
515.095	16195.68
515.297	16255.07
515.499	16377.95
515.701	16310.36
515.904	16871.51
516.106	16674.9
516.308	17119.31
516.51	17242.19
516.712	17004.63
516.914	17260.62
517.116	17938.5
517.318	17801.29
517.52	17920.07
517.722	18198.59
517.925	18155.58
518.127	18182.21
518.329	18430.01
518.531	18374.72
518.733	18997.3
518.935	19066.93
519.136	18925.62
519.338	19165.23
519.54	19523.63
519.742	19572.78
519.944	19742.76
520.146	20316.19
520.348	19898.41
520.55	20305.95
520.752	20260.9
520.954	20684.83
521.155	20320.29
521.357	20699.16
521.559	20824.09
521.761	21192.72
521.963	21282.83
522.164	21182.48
522.366	21397.52
522.568	21667.85
522.77	21579.79
522.971	21901.32
523.173	21895.18
523.375	22108.16
523.576	21864.46
523.778	22102.02
523.98	22650.88
524.181	22716.41
524.383	22894.58
524.584	23242.74
524.786	23023.61
524.988	22847.48
525.189	23279.6
525.391	23291.89
525.592	23545.84
525.794	23590.89
525.995	23826.41
526.197	23805.93
526.398	23578.61
526.6	23959.53
526.801	24139.75
527.003	24293.35
527.204	24283.11
527.406	24766.43
527.607	24438.75
527.808	24545.25
528.01	23977.96
528.211	24498.14
528.412	25022.42
528.614	24848.35
528.815	25188.31
529.016	24917.98
529.218	25020.38
529.419	25053.14
529.62	25231.32
529.822	25122.77
530.023	25245.65
530.224	25182.17
530.425	25479.12
530.626	25384.91
530.828	25335.76
531.029	25694.16
531.23	25716.68
531.431	25812.94
531.632	25571.28
531.833	26030.02
532.035	26005.45
532.236	25870.28
532.437	25972.68
532.638	25837.52
532.839	26079.18
533.04	25939.91
533.241	25882.57
533.442	26224.58
533.643	25812.94
533.844	25821.13
534.045	26079.18
534.246	25823.18
534.447	26200.01
534.648	26046.41
534.849	26103.75
535.05	25980.87
535.251	26091.46
535.451	26034.12
535.652	26101.7
535.853	26013.64
536.054	26042.31
536.255	26406.85
536.456	25860.04
536.657	26613.7
536.857	26083.27
537.058	26046.41
537.259	26390.47
537.46	26038.22
537.66	26251.2
537.861	26464.19
538.062	26044.36
538.263	26531.78
538.463	26271.68
538.664	26257.35
538.865	26079.18
539.065	26568.64
539.266	26365.89
539.466	26378.18
539.667	26214.34
539.868	26742.72
540.068	26392.51
540.269	26374.08
540.469	26466.24
540.67	26292.16
540.87	26212.29
541.071	26064.84
541.271	26722.24
541.472	26585.02
541.672	26193.86
541.873	26173.38
542.073	25880.52
542.274	26273.73
542.474	25870.28
542.675	26224.58
542.875	26607.55
543.075	26218.44
543.276	26052.55
543.476	26412.99
543.676	26286.02
543.877	26277.83
544.077	26402.75
544.277	26032.07
544.478	26177.48
544.678	26279.88
544.878	26083.27
545.078	26415.04
545.279	25880.52
545.479	26027.98
545.679	26238.92
545.879	26191.81
546.079	26224.58
546.28	26185.67
546.48	26122.18
546.68	26206.15
546.88	26189.77
547.08	26116.04
547.28	26118.09
547.48	25935.82
547.68	26412.99
547.88	25810.89
548.081	26073.03
548.281	25944.01
548.481	25923.53
548.681	26388.42
548.881	26191.81
549.081	26173.38
549.28	26144.71
549.48	26216.39
549.68	26208.2
549.88	26111.94
550.08	26134.47
550.28	26257.35
550.48	25962.44
550.68	26216.39
550.88	26027.98
551.08	25995.21
551.279	25944.01
551.479	25802.7
551.679	26290.12
551.879	25704.4
552.079	26322.88
552.278	25909.19
552.478	25944.01
552.678	26142.66
552.878	26070.98
553.077	26236.87
553.277	25868.23
553.477	26189.77
553.676	25927.63
553.876	25866.19
554.076	25870.28
554.275	25612.24
554.475	25839.56
554.674	26197.96
554.874	25862.09
555.074	25716.68
555.273	25970.63
555.473	25989.06
555.672	25446.35
555.872	25829.32
556.071	25802.7
556.271	26042.31
556.47	25384.91
556.67	25407.44
556.869	25460.69
557.068	25495.5
557.268	25540.56
557.467	25382.87
557.667	25649.1
557.866	25436.11
558.065	25690.06
558.265	25120.73
558.464	25075.67
558.663	25565.14
558.863	25141.21
559.062	25460.69
559.261	24903.64
559.461	25438.16
559.66	24762.33
559.859	25163.73
560.058	24758.24
560.258	25057.24
560.457	25110.49
560.656	25284.56
560.855	24913.88
561.054	25087.96
561.253	24788.96
561.453	24924.12
561.652	25161.69
561.851	24647.65
562.05	24483.81
562.249	24477.66
562.448	24795.1
562.647	24518.62
562.846	24735.71
563.045	24553.44
563.244	24037.35
563.443	24610.78
563.642	24272.87
563.841	24322.02
564.04	24190.95
564.239	24528.86
564.438	24047.59
564.637	24119.27
564.836	24385.51
565.035	23943.14
565.234	24125.41
565.432	23988.2
565.631	23740.4
565.83	23975.91
566.029	23767.02
566.228	23681
566.427	23685.1
566.625	23531.5
566.824	23087.09
567.023	23678.96
567.222	23576.56
567.42	23588.85
567.619	23478.26
567.818	23427.06
568.016	23422.96
568.215	23410.67
568.414	23164.92
568.612	23470.06
568.811	23023.61
569.01	23433.2
569.208	23111.67
569.407	23044.09
569.605	22783.99
569.804	22861.82
570.002	22681.6
570.201	22867.96
570.4	22581.24
570.598	22659.07
570.797	22814.71
570.995	22878.2
571.193	22366.21
571.392	22493.18
571.59	22614.01
571.789	22450.17
571.987	22056.96
572.186	22312.96
572.384	21696.52
572.582	22435.84
572.781	22116.36
572.979	21817.35
573.177	21895.18
573.376	21866.5
573.574	21862.41
573.772	21880.84
573.971	21665.8
574.169	21653.51
574.367	21282.83
574.565	21862.41
574.763	21497.87
574.962	21450.77
575.16	21139.47
575.358	21065.75
575.556	20844.57
575.754	21563.4
575.952	21352.46
576.151	21243.92
576.349	21049.36
576.547	20910.1
576.745	21006.36
576.943	21200.91
577.141	21149.71
577.339	20760.6
577.537	20992.02
577.735	20877.33
577.933	20719.64
578.131	20449.31
578.329	20629.53
578.527	20361.25
578.725	20424.73
578.923	20488.22
579.121	20160.55
579.319	20312.1
579.516	20375.58
579.714	20103.2
579.912	20148.26
580.11	19949.6
580.308	20023.33
580.506	20004.9
580.704	19626.03
580.901	19941.41
581.099	19806.25
581.297	19773.48
581.495	19650.6
581.692	19583.02
581.89	19597.35
582.088	19683.37
582.285	19357.74
582.483	19374.13
582.681	19488.81
582.878	19632.17
583.076	19501.1
583.274	19318.83
583.471	18886.71
583.669	19052.59
583.866	19220.53
584.064	19337.26
584.262	18612.28
584.459	19349.55
584.657	19005.49
584.854	19146.8
585.052	18450.49
585.249	18769.97
585.447	18751.54
585.644	18599.99
585.841	18722.87
586.039	18757.69
586.236	18325.57
586.434	18516.03
586.631	18538.55
586.828	18194.5
587.026	18370.62
587.223	18362.43
587.42	18186.3
587.618	18016.32
587.815	17754.18
588.012	17823.81
588.21	17754.18
588.407	18253.89
588.604	17864.77
588.801	17752.13
588.999	17928.26
589.196	17768.52
589.393	17535.05
589.59	17590.34
589.787	17446.99
589.984	17354.83
590.182	17426.51
590.379	17588.3
590.576	17107.02
590.773	17496.14
590.97	17287.25
591.167	17066.06
591.364	16955.47
591.561	17258.57
591.758	17094.74
591.955	17117.26
592.152	17387.6
592.349	17021.01
592.546	16949.33
592.743	16910.42
592.94	16564.31
593.137	16803.92
593.334	16760.92
593.531	16306.27
593.727	16644.18
593.924	16566.36
594.121	16523.35
594.318	16453.72
594.515	16279.64
594.712	16509.02
594.908	16482.39
595.105	16283.74
595.302	16103.52
595.499	16146.53
595.696	16007.27
595.892	15900.77
596.089	16046.18
596.286	16013.41
596.482	15964.26
596.679	15857.76
596.876	15906.91
597.072	15759.46
597.269	15794.28
597.466	15525.99
597.662	15472.75
597.859	15605.86
598.055	15724.65
598.252	15464.55
598.448	15753.32
598.645	15169.65
598.841	15663.21
599.038	15347.82
599.234	15396.97
599.431	15050.86
599.627	15196.27
599.824	15388.78
600.02	15261.8
600.217	15007.86
600.413	14999.66
600.609	14905.46
600.806	14813.3
601.002	14956.66
601.198	14805.11
601.395	14729.33
601.591	14725.24
601.787	14608.5
601.984	14616.69
602.18	14717.04
602.376	14665.85
602.572	14454.9
602.769	14442.62
602.965	14362.75
603.161	14420.09
603.357	14459
603.553	14166.14
603.75	14203
603.946	14170.24
604.142	14190.72
604.338	13881.47
604.534	14231.68
604.73	13992.06
604.926	13867.14
605.122	13901.95
605.318	13801.6
605.514	13910.15
605.71	13711.49
605.906	13779.08
606.102	13707.4
606.298	13731.97
606.494	13856.9
606.69	13547.65
606.886	13598.85
607.082	13547.65
607.278	13547.65
607.474	13461.64
607.67	13443.21
607.866	13332.62
608.062	13144.2
608.257	13486.22
608.453	13250.7
608.649	13551.75
608.845	13185.16
609.041	13062.29
609.236	12998.8
609.432	13404.3
609.628	13234.32
609.824	13228.17
610.019	12892.3
610.215	13031.57
610.411	13305.99
610.606	12884.11
610.802	13082.77
610.998	13207.69
611.193	12826.77
611.389	12968.08
611.584	12882.06
611.78	12775.57
611.976	12933.26
612.171	12839.06
612.367	12710.04
612.562	12966.03
612.758	12761.23
612.953	12472.47
613.149	12611.73
613.344	12824.72
613.539	12677.27
613.735	12611.73
613.93	12699.8
614.126	12589.21
614.321	12421.27
614.517	12515.48
614.712	12521.62
614.907	12318.87
615.103	12320.92
615.298	12398.74
615.493	12507.29
615.688	12036.25
615.884	12374.17
616.079	12142.75
616.274	12294.3
616.47	12208.28
616.665	12386.46
616.86	12157.08
617.055	12116.12
617.25	12019.87
617.445	11987.1
617.641	11772.07
617.836	11987.1
618.031	11772.07
618.226	11813.03
618.421	11929.76
618.616	11960.48
618.811	11686.05
619.006	12103.84
619.201	11307.18
619.396	11604.13
619.591	11673.76
619.786	11733.15
619.981	11542.69
620.176	11612.32
620.371	11436.2
620.566	11641
620.761	11280.55
620.956	11516.07
621.151	11079.85
621.346	11354.28
621.541	11010.22
621.735	11145.39
621.93	11034.8
622.125	11145.39
622.32	11083.95
622.515	10973.36
622.709	10694.83
622.904	10864.82
623.099	10776.75
623.294	10727.6
623.488	10662.07
623.683	10768.56
623.878	10334.39
624.072	10674.35
624.267	10391.73
624.462	10444.98
624.656	10352.82
624.851	10281.14
625.046	10193.08
625.24	9971.9
625.435	9937.09
625.629	10098.88
625.824	9943.23
626.018	9939.13
626.213	9832.64
626.407	9894.08
626.602	9636.03
626.796	9865.41
626.991	9740.48
627.185	9490.63
627.38	9572.55
627.574	9584.84
627.768	9406.66
627.963	9689.28
628.157	9449.67
628.352	9418.95
628.546	9150.67
628.74	9412.81
628.935	9099.47
629.129	9343.17
629.323	9101.51
629.517	9054.41
629.712	8966.35
629.906	9015.5
630.1	8788.18
630.294	9130.19
630.489	8816.85
630.683	8919.25
630.877	8798.42
631.071	8818.89
631.265	8556.75
631.459	8687.82
631.653	8372.44
631.848	8407.25
632.042	8325.33
632.236	8532.18
632.43	8394.97
632.624	8386.77
632.818	8267.99
633.012	8175.83
633.206	8433.88
633.4	8263.9
633.594	8130.78
633.788	8063.19
633.982	7975.13
634.176	8020.19
634.369	7962.84
634.563	8020.19
634.757	7907.55
634.951	7778.53
635.145	7790.81
635.339	7778.53
635.533	7712.99
635.726	7704.8
635.92	7727.33
636.114	7735.52
636.308	7483.62
636.501	7528.67
636.695	7577.83
636.889	7399.65
637.083	7520.48
637.276	7323.88
637.47	7440.61
637.664	7223.53
637.857	7325.93
638.051	7164.14
638.244	7100.65
638.438	7137.51
638.632	7223.53
638.825	7170.28
639.019	6938.86
639.212	6967.53
639.406	7018.73
639.599	6975.72
639.793	6994.15
639.986	6699.25
640.18	7020.78
640.373	6742.25
640.567	6752.49
640.76	6732.01
640.954	6689.01
641.147	6631.66
641.34	6594.8
641.534	6623.47
641.727	6621.42
641.92	6473.97
642.114	6420.72
642.307	6420.72
642.5	6535.41
642.694	6326.52
642.887	6291.7
643.08	6377.72
643.273	6299.89
643.467	6080.76
643.66	6162.68
643.853	5994.75
644.046	6017.27
644.239	6021.37
644.432	6013.18
644.626	5818.62
644.819	6052.09
645.012	6037.75
645.205	6021.37
645.398	5921.02
645.591	5789.95
645.784	5808.38
645.977	5918.97
646.17	5710.08
646.363	5699.84
646.556	5589.25
646.749	5574.91
646.942	5669.12
647.135	5589.25
647.328	5562.62
647.521	5484.8
647.714	5558.53
647.907	5568.77
648.099	5576.96
648.292	5476.61
648.485	5542.14
648.678	5402.88
648.871	5380.36
649.064	5329.16
649.256	5323.01
649.449	5392.64
649.642	5292.29
649.835	5210.37
650.027	5142.79
650.22	5169.41
650.413	4962.57
650.605	5126.41
650.798	4981
650.991	5021.96
651.183	4905.23
651.376	5048.58
651.568	5019.91
651.761	5128.46
651.954	4981
652.146	4909.32
652.339	4808.97
652.531	4919.56
652.724	4788.49
652.916	4763.92
653.109	4651.28
653.301	4612.37
653.494	4784.4
653.686	4630.8
653.879	4690.19
654.071	4606.22
654.263	4622.61
654.456	4577.55
654.648	4610.32
654.84	4573.46
655.033	4587.79
655.225	4583.7
655.417	4477.2
655.61	4479.25
655.802	4501.78
655.994	4395.28
656.186	4448.53
656.379	4479.25
656.571	4405.52
656.763	4296.98
656.955	4319.51
657.148	4305.17
657.34	4380.95
657.532	4243.73
657.724	4292.88
657.916	4313.36
658.108	4294.93
658.3	4024.6
658.492	4194.58
658.684	4014.36
658.876	4137.24
659.068	4102.42
659.26	4174.1
659.452	3997.98
659.644	4110.61
659.836	3973.4
660.028	4012.31
660.22	4055.32
660.412	3965.21
660.604	3903.77
660.796	4065.56
660.988	3995.93
661.18	3844.38
661.372	4034.84
661.563	3914.01
661.755	3760.41
661.947	3797.28
662.139	3791.13
662.331	3770.65
662.522	3721.5
662.714	3797.28
662.906	3684.64
663.097	3647.77
663.289	3528.99
663.481	3576.09
663.673	3592.48
663.864	3535.14
664.056	3580.19
664.247	3514.66
664.439	3457.31
664.631	3719.45
664.822	3463.46
665.014	3492.13
665.205	3580.19
665.397	3512.61
665.588	3404.07
665.78	3424.55
665.971	3553.57
666.163	3428.64
666.354	3436.83
666.546	3402.02
666.737	3313.95
666.929	3442.98
667.12	3334.43
667.311	3221.8
667.503	3189.03
667.694	3356.96
667.885	3334.43
668.077	3238.18
668.268	3369.25
668.459	3203.36
668.651	3285.28
668.842	3148.07
669.033	3035.43
669.224	3129.64
669.416	3205.41
669.607	3133.73
669.798	3262.76
669.989	3074.34
670.18	3176.74
670.371	3178.79
670.563	3129.64
670.754	3090.73
670.945	3133.73
671.136	3086.63
671.327	2957.61
671.518	3109.16
671.709	3121.45
671.9	3117.35
672.091	2937.13
672.282	2881.83
672.473	3074.34
672.664	2984.23
672.855	2998.57
673.046	2978.09
673.237	2935.08
673.428	2869.55
673.619	3004.71
673.809	2965.8
674	2822.44
674.191	2758.96
674.382	2836.78
674.573	2869.55
674.764	2904.36
674.954	2826.54
675.145	2857.26
675.336	2914.6
675.527	2783.53
675.717	2842.92
675.908	2808.11
676.099	2830.63
676.289	2707.76
676.48	2779.43
676.671	2722.09
676.861	2824.49
677.052	2824.49
677.243	2715.95
677.433	2730.28
677.624	2777.39
677.814	2711.85
678.005	2763.05
678.195	2689.32
678.386	2761
678.576	2849.07
678.767	2816.3
678.957	2666.8
679.148	2691.37
679.338	2810.15
679.529	2613.55
679.719	2605.36
679.909	2720.04
680.1	2619.69
680.29	2642.22
680.481	2705.71
680.671	2787.63
680.861	2599.21
681.052	2625.84
681.242	2597.17
681.432	2629.93
681.622	2613.55
681.813	2670.89
682.003	2689.32
682.193	2634.03
682.383	2621.74
682.573	2617.65
682.764	2765.1
682.954	2554.16
683.144	2636.08
683.334	2689.32
683.524	2529.58
683.714	2539.82
683.904	2562.35
684.094	2492.72
684.284	2580.78
684.474	2543.92
684.664	2529.58
684.854	2535.73
685.044	2472.24
685.234	2533.68
685.424	2375.99
685.614	2515.25
685.804	2535.73
685.994	2595.12
686.184	2605.36
686.374	2552.11
686.564	2550.06
686.753	2443.57
686.943	2472.24
687.133	2418.99
687.323	2453.81
687.513	2431.28
687.702	2386.22
687.892	2324.79
688.082	2257.2
688.272	2394.42
688.461	2455.86
688.651	2414.9
688.841	2388.27
689.03	2402.61
689.22	2455.86
689.41	2400.56
689.599	2302.26
689.789	2240.82
689.979	2177.33
690.168	2232.63
690.358	2242.87
690.547	2246.96
690.737	2335.03
690.926	2287.92
691.116	2238.77
691.305	2234.68
691.495	2189.62
691.684	2179.38
691.874	2232.63
692.063	2134.32
692.252	2273.59
692.442	2156.85
692.631	2220.34
692.82	2124.08
693.01	2066.74
693.199	2189.62
693.388	2009.4
693.578	2072.89
693.767	2074.93
693.956	2122.04
694.146	2036.02
694.335	2134.32
694.524	2066.74
694.713	2124.08
694.902	1993.01
695.092	2019.64
695.281	2058.55
695.47	2083.13
695.659	2007.35
695.848	1982.78
696.037	2007.35
696.226	2062.65
696.415	2019.64
696.604	2048.31
696.793	2156.85
696.982	1956.15
697.171	2070.84
697.36	2062.65
697.549	1913.14
697.738	1929.53
697.927	1964.34
698.116	1902.9
698.305	1943.86
698.494	2001.21
698.683	1954.1
698.872	1962.3
699.061	1986.87
699.25	1839.42
699.438	1976.63
699.627	2021.69
699.816	2005.3
700.005	2056.5
700.193	1896.76
700.382	1988.92
700.571	2017.59
700.76	1870.14
700.948	2081.08
701.137	1925.43
701.326	1923.38
701.514	1874.23
701.703	1990.97
701.892	1816.89
702.08	2007.35
702.269	1915.19
702.457	1851.71
702.646	1935.67
702.834	2001.21
703.023	1956.15
703.212	1851.71
703.4	1925.43
703.589	2040.12
703.777	1952.06
703.965	1816.89
704.154	1814.84
704.342	1933.62
704.531	1874.23
704.719	1845.56
704.907	1990.97
705.096	1845.56
705.284	1902.9
705.472	1923.38
705.661	1933.62
705.849	1790.27
706.037	1919.29
706.226	1909.05
706.414	1835.32
706.602	1843.51
706.79	1956.15
706.979	1792.31
707.167	1798.46
707.355	1900.86
707.543	1964.34
707.731	1863.99
707.919	1784.12
708.107	1943.86
708.296	1806.65
708.484	1847.61
708.672	1872.18
708.86	1952.06
709.048	1804.6
709.236	1835.32
709.424	1837.37
709.612	1933.62
709.8	1902.9
709.988	1913.14
710.176	1907
710.364	1896.76
710.551	1943.86
710.739	1900.86
710.927	1845.56
711.115	1835.32
711.303	1945.91
711.491	1929.53
711.679	1927.48
711.866	1909.05
712.054	1872.18
712.242	1888.57
712.43	2001.21
712.617	1841.47
712.805	1847.61
712.993	1978.68
713.181	1863.99
713.368	1950.01
713.556	1888.57
713.744	1757.5
713.931	1993.01
714.119	1890.62
714.306	1851.71
714.494	1861.94
714.682	1935.67
714.869	1786.17
715.057	1818.94
715.244	1870.14
715.432	1929.53
715.619	1902.9
715.807	1902.9
715.994	1960.25
716.182	1952.06
716.369	1904.95
716.556	1874.23
716.744	1876.28
716.931	1980.73
717.119	1923.38
717.306	1900.86
717.493	1874.23
717.681	2007.35
717.868	1929.53
718.055	1913.14
718.242	1802.55
718.43	2040.12
718.617	1933.62
718.804	2011.45
718.991	1923.38
719.179	1851.71
719.366	1880.38
719.553	1947.96
719.74	1947.96
719.927	1870.14
720.114	1812.79
720.301	2033.97
720.488	1923.38
720.676	1974.58
720.863	1995.06
721.05	1798.46
721.237	2001.21
721.424	1900.86
721.611	2025.78
721.798	1894.71
721.985	1923.38
722.172	1820.99
722.358	1911.1
722.545	1931.58
722.732	1837.37
722.919	1890.62
723.106	1866.04
723.293	1863.99
723.48	1898.81
723.667	1909.05
723.853	1833.27
724.04	2044.21
724.227	1993.01
724.414	1896.76
724.6	1888.57
724.787	1954.1
724.974	1952.06
725.161	1896.76
725.347	1929.53
725.534	1818.94
725.72	1907
725.907	1962.3
726.094	1968.44
726.28	1892.66
726.467	1837.37
726.653	1866.04
726.84	1888.57
727.027	1931.58
727.213	1837.37
727.4	1978.68
727.586	1933.62
727.773	1907
727.959	1933.62
728.145	1843.51
728.332	1825.08
728.518	1962.3
728.705	1857.85
728.891	1915.19
729.077	2060.6
729.264	1911.1
729.45	1851.71
729.636	2029.88
729.823	1898.81
730.009	1870.14
730.195	1900.86
730.382	1943.86
730.568	1878.33
730.754	1919.29
730.94	1886.52
731.126	1894.71
731.313	1806.65
731.499	1931.58
731.685	1898.81
731.871	1911.1
732.057	1902.9
732.243	1880.38
732.429	1861.94
732.615	1886.52
732.801	1950.01
732.987	1802.55
733.173	1861.94
733.359	1863.99
733.545	1888.57
733.731	1851.71
733.917	1845.56
734.103	1845.56
734.289	1907
734.475	1827.13
734.661	1907
734.847	1878.33
735.033	1939.77
735.219	1913.14
735.404	1988.92
735.59	2011.45
735.776	1802.55
735.962	1933.62
736.148	1907
736.333	1761.59
736.519	1823.03
736.705	1962.3
736.89	1878.33
737.076	1866.04
737.262	1792.31
737.447	1849.66
737.633	1808.7
737.819	1780.03
738.004	1923.38
738.19	1863.99
738.375	1870.14
738.561	1818.94
738.747	1792.31
738.932	1804.6
739.118	1849.66
739.303	1773.88
739.489	1839.42
739.674	1669.44
739.859	1728.83
740.045	1775.93
740.23	1749.31
740.416	1904.95
740.601	1704.25
740.786	1812.79
740.972	1753.4
741.157	1718.59
741.342	1659.2
741.528	1732.92
741.713	1851.71
741.898	1653.05
742.084	1820.99
742.269	1765.69
742.454	1681.72
742.639	1702.2
742.824	1726.78
743.01	1704.25
743.195	1696.06
743.38	1657.15
743.565	1694.01
743.75	1681.72
743.935	1591.61
744.12	1679.68
744.305	1691.96
744.49	1648.96
744.675	1667.39
744.86	1679.68
745.045	1634.62
745.23	1726.78
745.415	1614.14
745.6	1558.85
745.785	1575.23
745.97	1603.9
746.155	1573.18
746.34	1599.8
746.525	1589.57
746.71	1700.16
746.895	1564.99
747.079	1517.89
747.264	1601.85
747.449	1554.75
747.634	1487.17
747.819	1413.44
748.003	1468.73
748.188	1470.78
748.373	1519.93
748.557	1458.5
748.742	1452.35
748.927	1483.07
749.111	1397.06
749.296	1364.29
749.481	1409.34
749.665	1450.3
749.85	1444.16
750.034	1433.92
750.219	1395.01
750.404	1364.29
750.588	1556.8
750.773	1345.86
750.957	1360.19
751.141	1325.38
751.326	1257.79
751.51	1313.09
751.695	1292.61
751.879	1280.32
752.064	1241.41
752.248	1317.19
752.432	1306.95
752.617	1206.59
752.801	1216.83
752.985	1257.79
753.17	1280.32
753.354	1216.83
753.538	1149.25
753.722	1247.55
753.907	1032.52
754.091	1225.03
754.275	1196.36
754.459	1132.87
754.643	1132.87
754.828	1132.87
755.012	1122.63
755.196	1145.16
755.38	1177.92
755.564	1136.96
755.748	1063.24
755.932	1145.16
756.116	1179.97
756.3	1038.66
756.484	1118.53
756.668	1038.66
756.852	1034.57
757.036	1053
757.22	1005.89
757.404	999.75
757.588	1048.9
757.772	962.89
757.956	1067.33
758.14	987.46
758.323	1053
758.507	1014.09
758.691	956.74
758.875	1034.57
759.059	983.37
759.242	997.7
759.426	995.65
759.61	926.02
759.794	1016.13
759.977	944.45
760.161	969.03
760.345	981.32
760.528	940.36
760.712	934.22
760.895	915.78
761.079	915.78
761.263	919.88
761.446	821.58
761.63	829.77
761.813	948.55
761.997	885.06
762.18	895.3
762.364	956.74
762.547	768.33
762.731	801.1
762.914	948.55
763.098	823.62
763.281	905.54
763.464	885.06
763.648	823.62
763.831	766.28
764.015	876.87
764.198	856.39
764.381	823.62
764.564	850.25
764.748	850.25
764.931	848.2
765.114	780.62
765.297	766.28
765.481	840.01
765.664	868.68
765.847	809.29
766.03	727.37
766.213	811.34
766.397	663.88
766.58	854.34
766.763	819.53
766.946	770.38
767.129	639.31
767.312	790.86
767.495	840.01
767.678	739.66
767.861	784.71
768.044	694.6
768.227	690.51
768.41	721.23
768.593	713.03
768.776	760.14
768.959	686.41
769.142	715.08
769.324	627.02
769.507	670.03
769.69	751.95
769.873	729.42
770.056	739.66
770.239	657.74
770.421	676.17
770.604	741.71
770.787	649.55
770.97	710.99
771.152	719.18
771.335	721.23
771.518	643.4
771.7	686.41
771.883	690.51
772.066	731.47
772.248	678.22
772.431	676.17
772.613	622.92
772.796	614.73
772.978	762.19
773.161	590.16
773.343	600.4
773.526	561.48
773.708	676.17
773.891	667.98
774.073	649.55
774.256	575.82
774.438	653.64
774.621	610.64
774.803	608.59
774.985	551.24
775.168	524.62
775.35	559.44
775.532	567.63
775.715	518.48
775.897	629.07
776.079	555.34
776.261	545.1
776.444	606.54
776.626	577.87
776.808	479.57
776.99	622.92
777.173	491.85
777.355	491.85
777.537	506.19
777.719	516.43
777.901	510.29
778.083	502.09
778.265	536.91
778.447	498
778.629	473.42
778.811	547.15
778.993	493.9
779.175	446.8
779.357	514.38
779.539	498
779.721	457.04
779.903	500.05
780.085	485.71
780.267	461.13
780.449	461.13
780.631	500.05
780.812	471.37
780.994	555.34
781.176	444.75
781.358	516.43
781.54	477.52
781.721	481.61
781.903	461.13
782.085	457.04
782.267	407.89
782.448	465.23
782.63	340.3
782.812	422.22
782.993	422.22
783.175	409.94
783.357	371.02
783.538	407.89
783.72	391.5
783.901	379.22
784.083	422.22
784.264	409.94
784.446	336.21
784.627	381.26
784.809	399.7
784.99	325.97
785.172	352.59
785.353	389.46
785.535	371.02
785.716	330.06
785.897	276.82
786.079	358.74
786.26	375.12
786.441	391.5
786.623	313.68
786.804	411.98
786.985	258.39
787.167	368.98
787.348	366.93
787.529	285.01
787.71	371.02
787.891	350.54
788.073	264.53
788.254	330.06
788.435	295.25
788.616	276.82
788.797	242
788.978	258.39
789.159	285.01
789.34	276.82
789.522	375.12
789.703	338.26
789.884	368.98
790.065	305.49
790.246	325.97
790.427	295.25
790.607	340.3
790.788	268.63
790.969	246.1
791.15	311.63
791.331	356.69
791.512	235.86
791.693	248.15
791.874	313.68
792.054	305.49
792.235	301.39
792.416	235.86
792.597	254.29
792.778	266.58
792.958	293.2
793.139	244.05
793.32	285.01
793.5	221.52
793.681	338.26
793.862	242
794.042	246.1
794.223	266.58
794.404	276.82
794.584	278.87
794.765	219.47
794.945	231.76
795.126	266.58
795.306	207.19
795.487	254.29
795.667	237.91
795.848	270.67
796.028	170.32
796.209	209.23
796.389	219.47
796.57	239.95
796.75	242
796.93	305.49
797.111	321.87
797.291	190.8
797.471	321.87
797.652	186.71
797.832	201.04
798.012	254.29
798.192	225.62
798.373	242
798.553	201.04
798.733	287.06
798.913	190.8
799.093	178.51
799.274	225.62
799.454	266.58
799.634	209.23
799.814	221.52
799.994	147.8
800.174	223.57
800.354	184.66
800.534	147.8
800.714	170.32
800.894	72.02
801.074	176.47
801.254	213.33
801.434	155.99
801.614	168.27
801.794	180.56
801.974	627.02
802.154	194.9
802.334	176.47
802.514	166.23
802.693	209.23
802.873	129.36
803.053	248.15
803.233	190.8
803.413	145.75
803.592	215.38
803.772	110.93
803.952	207.19
804.131	196.95
804.311	166.23
804.491	217.43
804.67	112.98
804.85	80.21
805.03	112.98
805.209	162.13
805.389	172.37
805.568	172.37
805.748	182.61
805.928	172.37
806.107	153.94
806.287	166.23
806.466	233.81
806.646	287.06
806.825	76.12
807.004	172.37
807.184	166.23
807.363	141.65
807.543	170.32
807.722	158.03
807.901	178.51
808.081	129.36
808.26	84.31
808.439	162.13
808.619	131.41
808.798	76.12
808.977	67.92
809.156	63.83
809.336	133.46
809.515	125.27
809.694	96.6
809.873	100.69
810.052	184.66
810.231	229.71
810.411	115.03
810.59	180.56
810.769	106.84
810.948	174.42
811.127	80.21
811.306	153.94
811.485	166.23
811.664	141.65
811.843	209.23
812.022	129.36
812.201	108.88
812.38	115.03
812.559	110.93
812.737	137.56
812.916	80.21
813.095	115.03
813.274	129.36
813.453	131.41
813.632	125.27
813.811	201.04
813.989	41.3
814.168	96.6
814.347	145.75
814.526	117.08
814.704	143.7
814.883	172.37
815.062	121.17
815.24	72.02
815.419	125.27
815.598	-3.75
815.776	117.08
815.955	112.98
816.133	92.5
816.312	90.45
816.49	106.84
816.669	158.03
816.847	178.51
817.026	133.46
817.204	72.02
817.383	110.93
817.561	110.93
817.74	131.41
817.918	72.02
818.097	108.88
818.275	47.44
818.453	137.56
818.632	127.32
818.81	84.31
818.988	74.07
819.167	98.64
819.345	24.92
819.523	112.98
819.701	80.21
819.879	143.7
820.058	80.21
820.236	127.32
820.414	108.88
820.592	143.7
820.77	106.84
820.948	69.97
821.127	65.88
821.305	84.31
821.483	94.55
821.661	84.31
821.839	43.35
822.017	115.03
822.195	63.83
822.373	137.56
822.551	88.4
822.729	108.88
822.907	72.02
823.085	96.6
823.262	162.13
823.44	119.12
823.618	18.77
823.796	92.5
823.974	125.27
824.152	24.92
824.329	94.55
824.507	110.93
824.685	74.07
824.863	96.6
825.04	100.69
825.218	174.42
825.396	51.54
825.574	92.5
825.751	18.77
825.929	112.98
826.107	78.16
826.284	69.97
826.462	10.58
826.639	76.12
826.817	8.53
826.994	102.74
827.172	41.3
827.349	112.98
827.527	76.12
827.704	57.68
827.882	26.96
828.059	84.31
828.237	51.54
828.414	49.49
828.591	57.68
828.769	98.64
828.946	57.68
829.124	45.4
829.301	96.6
829.478	106.84
829.655	108.88
829.833	33.11
830.01	0.34
830.187	92.5
830.364	88.4
830.542	76.12
830.719	78.16
830.896	47.44
831.073	84.31
831.25	51.54
831.427	53.59
831.604	37.2
831.782	86.36
831.959	125.27
832.136	55.64
832.313	94.55
832.49	61.78
832.667	35.16
832.844	49.49
833.021	143.7
833.198	115.03
833.374	78.16
833.551	90.45
833.728	59.73
833.905	92.5
834.082	37.2
834.259	69.97
834.436	63.83
834.612	-5.8
834.789	67.92
834.966	69.97
835.143	100.69
835.319	61.78
835.496	82.26
835.673	39.25
835.85	90.45
836.026	59.73
836.203	41.3
836.38	31.06
836.556	-34.47
836.733	104.79
836.909	55.64
837.086	86.36
837.262	14.68
837.439	96.6
837.616	51.54
837.792	43.35
837.968	35.16
838.145	67.92
838.321	102.74
838.498	78.16
838.674	92.5
838.851	67.92
839.027	65.88
839.203	8.53
839.38	63.83
839.556	22.87
839.732	110.93
839.909	43.35
840.085	49.49
840.261	45.4
840.437	35.16
840.614	76.12
840.79	43.35
840.966	61.78
841.142	76.12
841.318	49.49
841.494	33.11
841.671	24.92
841.847	18.77
842.023	59.73
842.199	51.54
842.375	53.59
842.551	37.2
842.727	-24.23
842.903	47.44
843.079	6.49
843.255	98.64
843.431	4.44
843.607	14.68
843.783	-38.57
843.959	2.39
844.134	37.2
844.31	51.54
844.486	22.87
844.662	29.01
844.838	57.68
845.013	86.36
845.189	39.25
845.365	29.01
845.541	31.06
845.716	14.68
845.892	-1.71
846.068	-9.9
846.244	31.06
846.419	110.93
846.595	2.39
846.77	51.54
846.946	-22.19
847.122	18.77
847.297	100.69
847.473	78.16
847.648	0.34
847.824	18.77
847.999	41.3
848.175	53.59
848.35	16.73
848.526	82.26
848.701	76.12
848.876	10.58
849.052	24.92
849.227	22.87
849.403	51.54
849.578	51.54
849.753	18.77
849.929	18.77
850.104	49.49
850.279	39.25
850.454	35.16
850.63	72.02
850.805	45.4
850.98	-11.95
851.155	39.25
851.33	78.16
851.505	18.77
851.681	155.99
851.856	-30.38
852.031	112.98
852.206	41.3
852.381	14.68
852.556	-16.04
852.731	12.63
852.906	65.88
853.081	-1.71
853.256	39.25
853.431	26.96
853.606	18.77
853.781	24.92
853.956	-46.76
854.131	59.73
854.305	26.96
854.48	-3.75
854.655	39.25
854.83	29.01
855.005	8.53
855.18	53.59
855.354	67.92
855.529	-1.71
855.704	57.68
855.879	57.68
856.053	2.39
856.228	84.31
856.403	-7.85
856.577	76.12
856.752	-28.33
856.926	31.06
857.101	10.58
857.276	-13.99
857.45	-5.8
857.625	0.34
857.799	55.64
857.974	22.87
858.148	2.39
858.323	37.2
858.497	2.39
858.672	16.73
858.846	-38.57
859.02	37.2
859.195	12.63
859.369	12.63
859.543	-3.75
859.718	57.68
859.892	8.53
860.066	10.58
860.241	-54.95
860.415	-11.95
860.589	16.73
860.763	14.68
860.938	-93.87
861.112	-5.8
861.286	-83.63
861.46	-5.8
861.634	-18.09
861.808	41.3
861.982	63.83
862.157	0.34
862.331	6.49
862.505	-28.33
862.679	-26.28
862.853	41.3
863.027	59.73
863.201	127.32
863.375	-63.15
863.549	0.34
863.722	-7.85
863.896	108.88
864.07	39.25
864.244	39.25
864.418	29.01
864.592	43.35
864.766	-73.39
864.939	4.44
865.113	12.63
865.287	-1.71
865.461	20.82
865.634	35.16
865.808	53.59
865.982	31.06
866.156	-50.86
866.329	-3.75
866.503	-18.09
866.676	88.4
866.85	51.54
867.024	53.59
867.197	20.82
867.371	16.73
867.544	6.49
867.718	-13.99
867.891	12.63
868.065	16.73
868.238	63.83
868.412	84.31
868.585	10.58
868.759	33.11
868.932	37.2
869.105	-16.04
869.279	-42.67
869.452	-9.9
869.625	2.39
869.799	49.49
869.972	-42.67
870.145	35.16
870.319	-75.43
870.492	53.59
870.665	-9.9
870.838	-54.95
871.011	-46.76
871.185	0.34
871.358	-5.8
871.531	67.92
871.704	-46.76
871.877	49.49
872.05	-7.85
872.223	-67.24
872.396	29.01
872.569	55.64
872.742	-38.57
872.915	22.87
873.088	-63.15
873.261	-24.23
873.434	-7.85
873.607	-42.67
873.78	-30.38
873.953	-67.24
874.126	63.83
874.299	143.7
874.471	12.63
874.644	8.53
874.817	35.16
874.99	43.35
875.163	22.87
875.335	51.54
875.508	-52.91
875.681	63.83
875.853	16.73
876.026	-20.14
876.199	57.68
876.371	16.73
876.544	-18.09
876.717	-59.05
876.889	-20.14
877.062	-24.23
877.234	-42.67
877.407	-9.9
877.579	6.49
877.752	96.6
877.924	-26.28
878.097	51.54
878.269	-1.71
878.442	0.34
878.614	63.83
878.786	96.6
878.959	29.01
879.131	-38.57
879.303	18.77
879.476	10.58
879.648	39.25
879.82	22.87
879.993	2.39
880.165	49.49
880.337	-85.67
880.509	-32.43
880.681	53.59
880.854	-26.28
881.026	6.49
881.198	39.25
881.37	-1.71
881.542	-36.52
881.714	-75.43
881.886	-46.76
882.058	-5.8
882.23	-1.71
882.402	74.07
882.574	57.68
882.746	16.73
882.918	29.01
883.09	4.44
883.262	-46.76
883.434	18.77
883.606	39.25
883.778	-5.8
883.95	41.3
884.122	35.16
884.293	-44.71
884.465	63.83
884.637	-5.8
884.809	10.58
884.98	35.16
885.152	-9.9
885.324	-36.52
885.496	18.77
885.667	10.58
885.839	22.87
886.011	-5.8
886.182	14.68
886.354	67.92
886.525	0.34
886.697	22.87
886.869	-20.14
887.04	74.07
887.212	-44.71
887.383	-61.1
887.555	43.35
887.726	22.87
887.897	33.11
888.069	74.07
888.24	-26.28
888.412	-11.95
888.583	31.06
888.754	-1.71
888.926	-40.62
889.097	-13.99
889.268	-7.85
889.44	18.77
889.611	-40.62
889.782	35.16
889.953	14.68
890.125	-1.71
890.296	-54.95
890.467	74.07
890.638	-9.9
890.809	8.53
890.98	8.53
891.151	6.49
891.323	31.06
891.494	-28.33
891.665	-18.09
891.836	63.83
892.007	14.68
892.178	37.2
892.349	18.77
892.52	-18.09
892.691	12.63
892.862	14.68
893.032	-34.47
893.203	65.88
893.374	47.44
893.545	0.34
893.716	-11.95
893.887	16.73
894.057	-44.71
894.228	-7.85
894.399	-1.71
894.57	24.92
894.74	-26.28
894.911	24.92
895.082	39.25
895.253	35.16
895.423	12.63
895.594	31.06
895.764	26.96
895.935	61.78
896.106	-42.67
896.276	-16.04
896.447	115.03
896.617	-9.9
896.788	-38.57
896.958	84.31
897.129	-42.67
897.299	31.06
897.47	-1.71
897.64	80.21
897.81	0.34
897.981	-13.99
898.151	10.58
898.322	63.83
898.492	26.96
898.662	-13.99
898.832	-38.57
899.003	-26.28
899.173	-3.75
899.343	-11.95
899.513	63.83
