Data from USB4F104151__86__12-59-55-660.txt Node

Date: Fri Mar 14 12:59:55 EDT 2025
User: louis
Spectrometer: USB4F10415
Trigger mode: 4
Integration Time (sec): 1.000000E-2
Scans to average: 1
Electric dark correction enabled: true
Nonlinearity correction enabled: false
Boxcar width: 0
XAxis mode: Wavelengths
Number of Pixels in Spectrum: 3648
>>>>>Begin Spectral Data<<<<<
178.204	-92.67
178.424	-92.67
178.644	-92.67
178.864	-16.9
179.084	-8.7
179.304	-33.28
179.524	-27.14
179.744	-8.7
179.964	46.59
180.184	32.26
180.404	-31.23
180.624	67.07
180.844	1.54
181.064	-74.24
181.283	44.54
181.503	-33.28
181.723	15.87
181.943	-8.7
182.163	19.97
182.383	24.06
182.602	-43.52
182.822	54.78
183.042	-4.61
183.262	48.64
183.482	32.26
183.701	15.87
183.921	36.35
184.141	-76.29
184.361	52.74
184.58	15.87
184.8	-23.04
185.02	11.78
185.239	13.82
185.459	24.06
185.679	-16.9
185.898	-35.33
186.118	-109.05
186.338	-37.38
186.557	85.5
186.777	-39.42
186.997	-68.09
187.216	-4.61
187.436	28.16
187.655	11.78
187.875	-53.76
188.095	-41.47
188.314	-49.66
188.534	-27.14
188.753	-27.14
188.973	-8.7
189.192	-18.94
189.412	-8.7
189.631	24.06
189.851	13.82
190.07	1.54
190.29	-53.76
190.509	15.87
190.729	3.58
190.948	-8.7
191.168	-6.66
191.387	26.11
191.607	5.63
191.826	-4.61
192.045	54.78
192.265	19.97
192.484	7.68
192.704	-43.52
192.923	-10.75
193.142	-2.56
193.362	-12.8
193.581	1.54
193.8	19.97
194.02	-29.18
194.239	-84.48
194.458	11.78
194.678	-57.86
194.897	17.92
195.116	22.02
195.335	5.63
195.555	-18.94
195.774	-16.9
195.993	-0.51
196.212	26.11
196.432	-0.51
196.651	-20.99
196.87	38.4
197.089	-6.66
197.308	-12.8
197.528	75.26
197.747	11.78
197.966	-8.7
198.185	13.82
198.404	-4.61
198.623	-29.18
198.842	-23.04
199.062	-8.7
199.281	19.97
199.5	-10.75
199.719	19.97
199.938	-14.85
200.157	11.78
200.376	34.3
200.595	-49.66
200.814	40.45
201.033	-2.56
201.252	-8.7
201.471	3.58
201.69	13.82
201.909	-0.51
202.128	-57.86
202.347	32.26
202.566	-0.51
202.785	-104.96
203.004	-39.42
203.223	-20.99
203.442	67.07
203.661	-16.9
203.879	71.17
204.098	15.87
204.317	30.21
204.536	3.58
204.755	103.93
204.974	-8.7
205.193	-8.7
205.411	17.92
205.63	-31.23
205.849	5.63
206.068	5.63
206.287	32.26
206.505	69.12
206.724	26.11
206.943	-20.99
207.162	32.26
207.381	-12.8
207.599	-18.94
207.818	30.21
208.037	7.68
208.255	-29.18
208.474	-6.66
208.693	38.4
208.911	28.16
209.13	-37.38
209.349	-14.85
209.567	11.78
209.786	7.68
210.005	-14.85
210.223	-51.71
210.442	-64
210.661	30.21
210.879	-53.76
211.098	19.97
211.316	46.59
211.535	-2.56
211.753	44.54
211.972	-2.56
212.191	-35.33
212.409	93.69
212.628	97.79
212.846	3.58
213.065	-51.71
213.283	13.82
213.502	-55.81
213.72	95.74
213.938	81.41
214.157	-20.99
214.375	9.73
214.594	77.31
214.812	9.73
215.031	-43.52
215.249	-35.33
215.467	44.54
215.686	17.92
215.904	15.87
216.122	15.87
216.341	36.35
216.559	13.82
216.778	50.69
216.996	-2.56
217.214	17.92
217.432	-33.28
217.651	22.02
217.869	19.97
218.087	-0.51
218.306	-0.51
218.524	22.02
218.742	-80.38
218.96	-37.38
219.179	-23.04
219.397	32.26
219.615	5.63
219.833	60.93
220.051	7.68
220.27	11.78
220.488	-41.47
220.706	-4.61
220.924	9.73
221.142	-27.14
221.36	26.11
221.578	9.73
221.796	-55.81
222.015	-10.75
222.233	-12.8
222.451	40.45
222.669	-14.85
222.887	24.06
223.105	24.06
223.323	11.78
223.541	13.82
223.759	-8.7
223.977	-16.9
224.195	17.92
224.413	-45.57
224.631	30.21
224.849	-10.75
225.067	5.63
225.285	65.02
225.503	22.02
225.721	-74.24
225.939	-23.04
226.157	-10.75
226.375	71.17
226.592	-25.09
226.81	5.63
227.028	-20.99
227.246	58.88
227.464	-43.52
227.682	17.92
227.9	-33.28
228.117	3.58
228.335	-27.14
228.553	79.36
228.771	60.93
228.989	1.54
229.206	42.5
229.424	1.54
229.642	-23.04
229.86	-20.99
230.077	9.73
230.295	65.02
230.513	28.16
230.731	38.4
230.948	22.02
231.166	-43.52
231.384	44.54
231.601	-45.57
231.819	28.16
232.037	-25.09
232.254	54.78
232.472	93.69
232.689	-6.66
232.907	67.07
233.125	-12.8
233.342	-64
233.56	-66.05
233.777	-27.14
233.995	-18.94
234.213	24.06
234.43	-43.52
234.648	-45.57
234.865	-18.94
235.083	-6.66
235.3	-53.76
235.518	52.74
235.735	44.54
235.953	-6.66
236.17	7.68
236.388	19.97
236.605	44.54
236.822	28.16
237.04	56.83
237.257	-20.99
237.475	-51.71
237.692	46.59
237.909	11.78
238.127	-29.18
238.344	48.64
238.562	24.06
238.779	-18.94
238.996	1.54
239.214	62.98
239.431	34.3
239.648	44.54
239.865	-16.9
240.083	46.59
240.3	3.58
240.517	19.97
240.735	13.82
240.952	-35.33
241.169	-53.76
241.386	15.87
241.603	42.5
241.821	52.74
242.038	101.89
242.255	60.93
242.472	19.97
242.689	-20.99
242.907	69.12
243.124	-10.75
243.341	60.93
243.558	-4.61
243.775	5.63
243.992	-12.8
244.209	28.16
244.426	-45.57
244.643	19.97
244.86	-31.23
245.078	-82.43
245.295	24.06
245.512	-25.09
245.729	-16.9
245.946	32.26
246.163	-57.86
246.38	81.41
246.597	-18.94
246.814	-29.18
247.031	52.74
247.248	-57.86
247.464	24.06
247.681	-20.99
247.898	-8.7
248.115	36.35
248.332	-18.94
248.549	3.58
248.766	-49.66
248.983	-10.75
249.2	26.11
249.417	30.21
249.633	-20.99
249.85	-76.29
250.067	1.54
250.284	5.63
250.501	-29.18
250.717	52.74
250.934	-2.56
251.151	56.83
251.368	-86.53
251.585	15.87
251.801	-4.61
252.018	-6.66
252.235	36.35
252.451	-18.94
252.668	19.97
252.885	24.06
253.102	-20.99
253.318	9.73
253.535	15.87
253.752	5.63
253.968	-2.56
254.185	28.16
254.401	-10.75
254.618	46.59
254.835	32.26
255.051	46.59
255.268	15.87
255.484	81.41
255.701	-18.94
255.917	44.54
256.134	46.59
256.351	17.92
256.567	42.5
256.784	24.06
257	56.83
257.217	34.3
257.433	-2.56
257.65	5.63
257.866	32.26
258.082	19.97
258.299	44.54
258.515	48.64
258.732	-29.18
258.948	-2.56
259.165	26.11
259.381	34.3
259.597	17.92
259.814	-47.62
260.03	13.82
260.246	44.54
260.463	-18.94
260.679	58.88
260.895	-12.8
261.112	77.31
261.328	32.26
261.544	-53.76
261.761	-0.51
261.977	22.02
262.193	-27.14
262.409	38.4
262.626	-25.09
262.842	-12.8
263.058	13.82
263.274	11.78
263.49	9.73
263.707	22.02
263.923	24.06
264.139	-23.04
264.355	34.3
264.571	-35.33
264.787	44.54
265.004	46.59
265.22	-18.94
265.436	50.69
265.652	-12.8
265.868	32.26
266.084	36.35
266.3	5.63
266.516	-29.18
266.732	40.45
266.948	22.02
267.164	3.58
267.38	-12.8
267.596	11.78
267.812	67.07
268.028	-2.56
268.244	-23.04
268.46	60.93
268.676	58.88
268.892	60.93
269.108	28.16
269.324	-4.61
269.54	26.11
269.756	11.78
269.972	19.97
270.188	-51.71
270.403	3.58
270.619	60.93
270.835	-20.99
271.051	15.87
271.267	28.16
271.483	28.16
271.698	-6.66
271.914	42.5
272.13	15.87
272.346	15.87
272.562	7.68
272.777	50.69
272.993	-37.38
273.209	-37.38
273.425	3.58
273.64	-45.57
273.856	-39.42
274.072	65.02
274.287	-25.09
274.503	22.02
274.719	62.98
274.934	40.45
275.15	13.82
275.366	24.06
275.581	19.97
275.797	34.3
276.012	22.02
276.228	-16.9
276.444	-29.18
276.659	-4.61
276.875	42.5
277.09	-2.56
277.306	-6.66
277.521	-12.8
277.737	9.73
277.952	24.06
278.168	3.58
278.383	-6.66
278.599	-12.8
278.814	56.83
279.03	36.35
279.245	-37.38
279.461	48.64
279.676	-35.33
279.892	22.02
280.107	-14.85
280.322	81.41
280.538	79.36
280.753	40.45
280.969	-0.51
281.184	9.73
281.399	3.58
281.615	5.63
281.83	1.54
282.045	-31.23
282.26	-59.9
282.476	77.31
282.691	-33.28
282.906	-4.61
283.122	-0.51
283.337	-47.62
283.552	-20.99
283.767	9.73
283.983	3.58
284.198	-41.47
284.413	-27.14
284.628	22.02
284.843	-4.61
285.058	7.68
285.274	-76.29
285.489	28.16
285.704	-20.99
285.919	-45.57
286.134	26.11
286.349	-20.99
286.564	-18.94
286.779	-43.52
286.995	60.93
287.21	7.68
287.425	-4.61
287.64	26.11
287.855	79.36
288.07	9.73
288.285	48.64
288.5	15.87
288.715	22.02
288.93	-10.75
289.145	-10.75
289.36	-0.51
289.575	32.26
289.79	15.87
290.004	-8.7
290.219	60.93
290.434	93.69
290.649	3.58
290.864	-27.14
291.079	58.88
291.294	9.73
291.509	58.88
291.724	-37.38
291.938	-57.86
292.153	30.21
292.368	15.87
292.583	19.97
292.798	-2.56
293.012	36.35
293.227	-0.51
293.442	-20.99
293.657	54.78
293.871	17.92
294.086	-18.94
294.301	52.74
294.516	77.31
294.73	-27.14
294.945	-37.38
295.16	-0.51
295.374	38.4
295.589	-20.99
295.804	-2.56
296.018	11.78
296.233	-6.66
296.447	-74.24
296.662	44.54
296.877	26.11
297.091	5.63
297.306	11.78
297.52	71.17
297.735	3.58
297.949	40.45
298.164	-2.56
298.378	-25.09
298.593	5.63
298.807	-0.51
299.022	-59.9
299.236	77.31
299.451	-16.9
299.665	-45.57
299.88	13.82
300.094	60.93
300.309	60.93
300.523	19.97
300.737	-0.51
300.952	65.02
301.166	58.88
301.381	-31.23
301.595	19.97
301.809	15.87
302.024	65.02
302.238	-45.57
302.452	-76.29
302.667	-74.24
302.881	-10.75
303.095	15.87
303.309	38.4
303.524	-14.85
303.738	15.87
303.952	-20.99
304.166	54.78
304.381	-4.61
304.595	54.78
304.809	-12.8
305.023	-8.7
305.237	22.02
305.452	19.97
305.666	89.6
305.88	-39.42
306.094	30.21
306.308	50.69
306.522	79.36
306.736	-72.19
306.95	-18.94
307.164	-0.51
307.379	-33.28
307.593	58.88
307.807	54.78
308.021	69.12
308.235	65.02
308.449	-86.53
308.663	-4.61
308.877	5.63
309.091	-102.91
309.305	-23.04
309.519	-20.99
309.733	87.55
309.947	52.74
310.161	36.35
310.374	38.4
310.588	30.21
310.802	46.59
311.016	19.97
311.23	44.54
311.444	-12.8
311.658	36.35
311.872	-47.62
312.085	-16.9
312.299	11.78
312.513	87.55
312.727	22.02
312.941	-29.18
313.154	11.78
313.368	-12.8
313.582	48.64
313.796	-27.14
314.009	1.54
314.223	-18.94
314.437	7.68
314.651	24.06
314.864	19.97
315.078	44.54
315.292	56.83
315.505	-8.7
315.719	36.35
315.933	-39.42
316.146	48.64
316.36	13.82
316.573	17.92
316.787	89.6
317.001	17.92
317.214	-8.7
317.428	-23.04
317.641	9.73
317.855	-8.7
318.068	-2.56
318.282	50.69
318.495	11.78
318.709	-4.61
318.922	19.97
319.136	3.58
319.349	-20.99
319.563	3.58
319.776	26.11
319.99	17.92
320.203	-35.33
320.417	60.93
320.63	17.92
320.843	24.06
321.057	-27.14
321.27	34.3
321.483	28.16
321.697	17.92
321.91	81.41
322.124	22.02
322.337	19.97
322.55	108.03
322.763	17.92
322.977	73.21
323.19	30.21
323.403	13.82
323.617	-64
323.83	-23.04
324.043	28.16
324.256	11.78
324.469	32.26
324.683	-4.61
324.896	-4.61
325.109	38.4
325.322	-53.76
325.535	7.68
325.748	34.3
325.962	19.97
326.175	-12.8
326.388	-6.66
326.601	56.83
326.814	71.17
327.027	69.12
327.24	56.83
327.453	24.06
327.666	52.74
327.879	-16.9
328.092	40.45
328.305	-14.85
328.518	50.69
328.731	-12.8
328.944	-31.23
329.157	19.97
329.37	79.36
329.583	-6.66
329.796	9.73
330.009	-94.72
330.222	-12.8
330.435	-10.75
330.648	-66.05
330.861	-18.94
331.073	-41.47
331.286	-31.23
331.499	50.69
331.712	-45.57
331.925	19.97
332.138	34.3
332.35	-33.28
332.563	5.63
332.776	30.21
332.989	42.5
333.202	-18.94
333.414	22.02
333.627	26.11
333.84	15.87
334.053	5.63
334.265	-18.94
334.478	5.63
334.691	54.78
334.903	11.78
335.116	1.54
335.329	7.68
335.541	28.16
335.754	85.5
335.966	81.41
336.179	54.78
336.392	-6.66
336.604	7.68
336.817	40.45
337.029	5.63
337.242	3.58
337.454	69.12
337.667	-12.8
337.88	67.07
338.092	22.02
338.305	-8.7
338.517	30.21
338.729	44.54
338.942	54.78
339.154	40.45
339.367	54.78
339.579	3.58
339.792	54.78
340.004	-20.99
340.217	15.87
340.429	-45.57
340.641	36.35
340.854	-68.09
341.066	28.16
341.278	42.5
341.491	36.35
341.703	13.82
341.915	3.58
342.128	19.97
342.34	13.82
342.552	-43.52
342.764	28.16
342.977	-2.56
343.189	17.92
343.401	-25.09
343.613	-20.99
343.826	13.82
344.038	-18.94
344.25	-47.62
344.462	101.89
344.674	77.31
344.886	-10.75
345.099	65.02
345.311	26.11
345.523	-18.94
345.735	5.63
345.947	-6.66
346.159	11.78
346.371	-27.14
346.583	-37.38
346.795	52.74
347.007	28.16
347.219	-16.9
347.431	1.54
347.643	-2.56
347.855	11.78
348.067	110.08
348.279	71.17
348.491	-45.57
348.703	13.82
348.915	17.92
349.127	-27.14
349.339	-27.14
349.551	-12.8
349.763	-12.8
349.975	71.17
350.187	7.68
350.399	13.82
350.61	11.78
350.822	9.73
351.034	110.08
351.246	-33.28
351.458	-16.9
351.669	19.97
351.881	15.87
352.093	-33.28
352.305	-10.75
352.517	11.78
352.728	19.97
352.94	-74.24
353.152	3.58
353.363	-37.38
353.575	26.11
353.787	-29.18
353.999	-12.8
354.21	9.73
354.422	11.78
354.633	34.3
354.845	32.26
355.057	38.4
355.268	73.21
355.48	28.16
355.692	38.4
355.903	7.68
356.115	26.11
356.326	-72.19
356.538	38.4
356.749	48.64
356.961	54.78
357.172	-6.66
357.384	46.59
357.595	19.97
357.807	40.45
358.018	-45.57
358.23	32.26
358.441	26.11
358.653	24.06
358.864	22.02
359.075	-18.94
359.287	-4.61
359.498	54.78
359.709	46.59
359.921	75.26
360.132	-86.53
360.344	62.98
360.555	-16.9
360.766	36.35
360.977	36.35
361.189	69.12
361.4	54.78
361.611	112.13
361.823	38.4
362.034	46.59
362.245	44.54
362.456	44.54
362.667	44.54
362.879	36.35
363.09	-20.99
363.301	101.89
363.512	-4.61
363.723	22.02
363.935	-18.94
364.146	40.45
364.357	60.93
364.568	56.83
364.779	-0.51
364.99	50.69
365.201	-8.7
365.412	50.69
365.623	24.06
365.834	11.78
366.045	-4.61
366.256	42.5
366.467	24.06
366.678	34.3
366.889	69.12
367.1	11.78
367.311	91.65
367.522	-27.14
367.733	22.02
367.944	32.26
368.155	5.63
368.366	11.78
368.577	36.35
368.788	15.87
368.999	5.63
369.209	19.97
369.42	-2.56
369.631	-8.7
369.842	-4.61
370.053	7.68
370.264	48.64
370.474	32.26
370.685	73.21
370.896	60.93
371.107	124.41
371.317	67.07
371.528	-61.95
371.739	105.98
371.95	77.31
372.16	9.73
372.371	-27.14
372.582	9.73
372.792	24.06
373.003	24.06
373.214	44.54
373.424	-20.99
373.635	-51.71
373.846	95.74
374.056	5.63
374.267	77.31
374.477	-45.57
374.688	65.02
374.898	26.11
375.109	13.82
375.319	32.26
375.53	48.64
375.74	52.74
375.951	-10.75
376.161	73.21
376.372	-51.71
376.582	11.78
376.793	24.06
377.003	19.97
377.214	75.26
377.424	52.74
377.635	13.82
377.845	5.63
378.055	42.5
378.266	-0.51
378.476	-20.99
378.686	83.45
378.897	83.45
379.107	-49.66
379.317	5.63
379.528	3.58
379.738	36.35
379.948	-14.85
380.158	75.26
380.369	-6.66
380.579	-27.14
380.789	44.54
380.999	7.68
381.21	5.63
381.42	42.5
381.63	-29.18
381.84	58.88
382.05	95.74
382.261	-29.18
382.471	81.41
382.681	15.87
382.891	36.35
383.101	85.5
383.311	40.45
383.521	-0.51
383.731	17.92
383.941	60.93
384.151	19.97
384.361	56.83
384.571	95.74
384.781	15.87
384.991	56.83
385.201	42.5
385.411	-12.8
385.621	24.06
385.831	79.36
386.041	19.97
386.251	24.06
386.461	22.02
386.671	-59.9
386.881	-0.51
387.091	58.88
387.301	-14.85
387.511	-47.62
387.72	-4.61
387.93	-14.85
388.14	26.11
388.35	3.58
388.56	-12.8
388.769	54.78
388.979	36.35
389.189	13.82
389.399	44.54
389.609	-8.7
389.818	-82.43
390.028	1.54
390.238	-2.56
390.447	30.21
390.657	52.74
390.867	65.02
391.076	7.68
391.286	65.02
391.496	-43.52
391.705	46.59
391.915	36.35
392.125	7.68
392.334	128.51
392.544	48.64
392.753	69.12
392.963	28.16
393.172	38.4
393.382	9.73
393.591	22.02
393.801	24.06
394.01	101.89
394.22	36.35
394.429	-29.18
394.639	60.93
394.848	77.31
395.058	26.11
395.267	26.11
395.477	46.59
395.686	89.6
395.895	85.5
396.105	69.12
396.314	-45.57
396.524	97.79
396.733	-20.99
396.942	-16.9
397.152	87.55
397.361	69.12
397.57	50.69
397.78	38.4
397.989	28.16
398.198	65.02
398.407	15.87
398.617	89.6
398.826	52.74
399.035	13.82
399.244	-2.56
399.453	28.16
399.663	22.02
399.872	-23.04
400.081	-6.66
400.29	71.17
400.499	73.21
400.708	110.08
400.917	42.5
401.127	54.78
401.336	75.26
401.545	77.31
401.754	48.64
401.963	81.41
402.172	24.06
402.381	34.3
402.59	38.4
402.799	52.74
403.008	7.68
403.217	79.36
403.426	11.78
403.635	28.16
403.844	54.78
404.053	101.89
404.262	34.3
404.471	71.17
404.68	93.69
404.888	77.31
405.097	11.78
405.306	71.17
405.515	85.5
405.724	54.78
405.933	146.94
406.142	62.98
406.35	50.69
406.559	42.5
406.768	28.16
406.977	108.03
407.185	101.89
407.394	87.55
407.603	97.79
407.812	114.17
408.02	54.78
408.229	130.56
408.438	81.41
408.646	85.5
408.855	89.6
409.064	110.08
409.272	62.98
409.481	159.23
409.69	99.84
409.898	77.31
410.107	112.13
410.315	163.33
410.524	69.12
410.733	122.37
410.941	105.98
411.15	185.85
411.358	103.93
411.567	159.23
411.775	204.28
411.984	210.43
412.192	112.13
412.401	216.57
412.609	179.71
412.818	275.96
413.026	192
413.234	290.3
413.443	237.05
413.651	218.62
413.86	247.29
414.068	345.59
414.276	314.88
414.485	251.39
414.693	366.07
414.901	341.5
415.11	316.92
415.318	308.73
415.526	343.55
415.734	325.12
415.943	423.42
416.151	417.27
416.359	329.21
416.567	413.18
416.776	404.99
416.984	435.71
417.192	423.42
417.4	523.77
417.608	474.62
417.817	460.28
418.025	589.3
418.233	556.54
418.441	566.78
418.649	519.67
418.857	642.55
419.065	628.21
419.273	558.58
419.481	609.78
419.689	636.41
419.897	730.61
420.105	683.51
420.313	679.41
420.521	716.28
420.729	759.28
420.937	765.43
421.145	769.52
421.353	859.63
421.561	910.83
421.769	933.36
421.977	849.4
422.185	925.17
422.393	1076.72
422.601	1048.05
422.809	1060.34
423.017	1017.33
423.224	1029.62
423.432	1158.64
423.64	1089.01
423.848	1328.62
424.056	1302
424.263	1277.42
424.471	1320.43
424.679	1367.53
424.887	1398.25
425.094	1463.79
425.302	1394.15
425.51	1492.46
425.718	1510.89
425.925	1609.19
426.133	1676.77
426.341	1668.58
426.548	1805.8
426.756	1867.24
426.964	1793.51
427.171	1934.82
427.379	1873.38
427.586	2061.79
427.794	2035.17
428.001	2178.53
428.209	2272.73
428.417	2184.67
428.624	2321.88
428.832	2436.57
429.039	2299.36
429.247	2407.9
429.454	2698.71
429.662	2766.29
429.869	2553.31
430.076	2821.59
430.284	2696.66
430.491	2837.97
430.699	3030.48
430.906	2893.27
431.114	2889.17
431.321	3061.2
431.528	3147.22
431.736	3349.96
431.943	3544.52
432.15	3456.46
432.358	3431.88
432.565	3702.22
432.772	3567.05
432.979	3988.93
433.187	3956.16
433.394	3962.31
433.601	4060.61
433.808	4199.87
434.016	4287.93
434.223	4429.24
434.43	4724.15
434.637	4449.72
434.844	4863.41
435.052	4924.85
435.259	4912.57
435.466	5103.03
435.673	4875.7
435.88	5295.54
436.087	5469.61
436.294	5565.87
436.501	5410.22
436.708	5610.92
436.915	5737.9
437.122	5973.41
437.329	5815.72
437.537	6165.92
437.743	6206.88
437.95	6213.03
438.157	6677.91
438.364	6907.29
438.571	6739.35
438.778	6641.05
438.985	7464.33
439.192	7220.63
439.399	7294.35
439.606	7122.32
439.813	7466.38
440.02	7853.45
440.227	7992.71
440.433	7728.52
440.64	7998.85
440.847	8076.68
441.054	8246.66
441.261	8637.82
441.467	8734.07
441.674	8922.49
441.881	9026.93
442.088	9039.22
442.294	8940.92
442.501	9350.51
442.708	9373.04
442.914	9725.29
443.121	10265.96
443.328	10104.17
443.534	10661.21
443.741	10132.84
443.948	10376.55
444.154	11081.05
444.361	11113.81
444.568	11122.01
444.774	11156.82
444.981	11224.4
445.187	11593.04
445.394	12113.22
445.6	11779.4
445.807	13137.21
446.013	12561.73
446.22	12545.34
446.426	13352.24
446.633	13346.1
446.839	14021.93
447.046	13425.97
447.252	14355.75
447.459	14120.23
447.665	14054.7
447.871	14638.37
448.078	15322.39
448.284	14564.64
448.491	14916.89
448.697	15721.74
448.903	15799.57
449.11	15889.68
449.316	15734.03
449.522	16264.46
449.728	16571.65
449.935	16327.94
450.141	16516.36
450.347	17057.02
450.553	16463.11
450.76	16592.13
450.966	17227
451.172	16882.94
451.378	17503.48
451.584	17222.91
451.791	17747.19
451.997	17554.68
452.203	18025.71
452.409	17960.17
452.615	17726.71
452.821	17040.64
453.027	17093.88
453.233	17945.84
453.44	17333.5
453.646	17210.62
453.852	17571.06
454.058	17851.63
454.264	17212.67
454.47	17616.12
454.676	17095.93
454.882	17784.05
455.088	16411.91
455.294	16700.67
455.5	16561.41
455.705	16964.86
455.911	16219.4
456.117	15875.34
456.323	15842.57
456.529	14904.6
456.735	15625.49
456.941	15357.21
457.147	15015.19
457.352	14419.24
457.558	14380.32
457.764	14255.4
457.97	14103.85
458.176	13722.93
458.381	13862.19
458.587	13284.66
458.793	13231.41
458.999	12264.77
459.204	13397.3
459.41	12803.39
459.616	12301.64
459.821	11984.2
460.027	12053.83
460.233	11881.8
460.438	11304.28
460.644	11382.1
460.85	10763.61
461.055	10866.01
461.261	10607.97
461.466	9969
461.672	9360.75
461.878	10345.83
462.083	9672.04
462.289	9487.73
462.494	9096.57
462.7	8904.06
462.905	8756.6
463.111	8916.34
463.316	9078.13
463.522	8682.88
463.727	8977.78
463.932	8965.5
464.138	8736.12
464.343	8734.07
464.549	8752.51
464.754	8711.55
464.959	8799.61
465.165	8650.11
465.37	8295.81
465.575	8174.98
465.781	8381.82
465.986	8443.26
466.191	8291.71
466.397	8072.58
466.602	7650.7
466.807	8060.29
467.012	8033.67
467.218	7830.92
467.423	7990.66
467.628	7701.9
467.833	8248.71
468.038	8062.34
468.244	7708.04
468.449	7892.36
468.654	7640.46
468.859	7705.99
469.064	7665.04
469.269	7290.26
469.474	7214.48
469.679	7626.12
469.885	7400.85
470.09	7370.13
470.295	7550.35
470.5	7107.99
470.705	7169.43
470.91	7132.56
471.115	7079.32
471.32	7030.16
471.525	7103.89
471.73	7034.26
471.935	6876.57
472.139	6667.67
472.344	6776.22
472.549	6694.3
472.754	6763.93
472.959	6550.94
473.164	6294.94
473.369	6358.43
473.574	6509.98
473.778	6419.87
473.983	6260.13
474.188	6362.53
474.393	6127.01
474.598	6161.83
474.802	6155.68
475.007	5991.84
475.212	6014.37
475.417	5938.6
475.621	5860.77
475.826	5938.6
476.031	5590.44
476.235	5744.04
476.44	5686.7
476.645	5604.78
476.849	5588.39
477.054	5475.76
477.259	5494.19
477.463	5461.42
477.668	5395.89
477.872	5332.4
478.077	5287.34
478.282	5084.59
478.486	5184.94
478.691	5248.43
478.895	5291.44
479.1	5115.31
479.304	5045.68
479.509	4844.98
479.713	4926.9
479.918	4935.09
480.122	4795.83
480.326	4732.34
480.531	4961.72
480.735	4986.29
480.94	4756.92
481.144	4978.1
481.348	4834.74
481.553	4894.13
481.757	4681.14
481.961	4777.4
482.166	4849.08
482.37	4842.93
482.574	4670.9
482.778	4631.99
482.983	4820.41
483.187	4793.78
483.391	4748.73
483.595	4844.98
483.8	4773.3
484.004	4834.74
484.208	4742.58
484.412	4603.32
484.616	4736.44
484.821	4738.49
485.025	4646.33
485.229	4787.64
485.433	4728.25
485.637	4756.92
485.841	4799.93
486.045	4732.34
486.249	4832.69
486.453	4855.22
486.657	4652.47
486.861	4787.64
487.065	4601.27
487.269	4734.39
487.473	4699.58
487.677	4773.3
487.881	4894.13
488.085	4685.24
488.289	4834.74
488.493	4722.1
488.697	4705.72
488.901	4838.84
489.105	4933.04
489.309	4728.25
489.512	4908.47
489.716	4885.94
489.92	4748.73
490.124	4797.88
490.328	4902.33
490.531	4775.35
490.735	4922.8
490.939	4853.17
491.143	4986.29
491.346	4822.45
491.55	4949.43
491.754	5045.68
491.958	5094.83
492.161	5037.49
492.365	4908.47
492.569	5084.59
492.772	5127.6
492.976	5180.85
493.18	5096.88
493.383	5029.3
493.587	5148.08
493.79	5356.97
493.994	5320.11
494.197	5367.21
494.401	5428.65
494.605	5313.97
494.808	5483.95
495.012	5553.58
495.215	5430.7
495.419	5668.27
495.622	5463.47
495.825	5713.32
496.029	5651.88
496.232	5828.01
496.436	5766.57
496.639	6022.56
496.843	6067.62
497.046	6116.77
497.249	6014.37
497.453	6208.93
497.656	6260.13
497.859	6053.28
498.063	6251.94
498.266	6481.31
498.469	6442.4
498.673	6552.99
498.876	6733.21
499.079	6784.41
499.282	6600.09
499.485	6913.43
499.689	6856.09
499.892	6858.14
500.095	6856.09
500.298	7036.31
500.501	7218.58
500.705	7206.29
500.908	7298.45
501.111	7476.62
501.314	7542.16
501.517	7509.39
501.72	7732.62
501.923	7636.36
502.126	7787.91
502.329	7996.81
502.532	7863.69
502.735	8226.18
502.938	8365.44
503.141	8598.91
503.344	8707.45
503.547	8621.44
503.75	8779.13
503.953	8820.09
504.156	8912.25
504.359	8998.26
504.562	9127.28
504.765	9409.9
504.968	9448.82
505.17	9561.45
505.373	9549.17
505.576	9665.9
505.779	9710.96
505.982	9913.7
506.185	10122.6
506.387	10095.97
506.59	10212.71
506.793	10495.33
506.996	10435.94
507.198	10775.9
507.401	10792.28
507.604	10806.62
507.807	11162.97
508.009	11210.07
508.212	11244.88
508.415	11337.04
508.617	11404.63
508.82	11466.07
509.022	11584.85
509.225	11791.69
509.428	12074.31
509.63	12240.2
509.833	12213.57
510.035	12430.66
510.238	12457.28
510.44	12533.06
510.643	12729.66
510.845	13061.43
511.048	12911.93
511.25	13165.88
511.453	13299
511.655	13757.74
511.858	13550.9
512.06	13776.17
512.262	14206.25
512.465	14081.32
512.667	14150.95
512.87	14294.31
513.072	14349.61
513.274	14611.75
513.477	14834.97
513.679	14970.14
513.881	14964
514.084	15344.92
514.286	15416.6
514.488	15551.76
514.69	15865.1
514.893	15918.35
515.095	16149.77
515.297	16375.05
515.499	16282.89
515.701	16471.3
515.904	16749.82
516.106	16821.5
516.308	16923.9
516.51	17167.61
516.712	17483
516.914	17462.52
517.116	17882.35
517.318	18066.67
517.52	17884.4
517.722	17968.37
517.925	18488.55
518.127	18502.89
518.329	18797.79
518.531	18730.21
518.733	19166.43
518.935	19297.5
519.136	18883.81
519.338	19526.87
519.54	19461.34
519.742	19805.39
519.944	19850.45
520.146	20247.76
520.348	20407.5
520.55	20817.09
520.752	20825.28
520.954	21109.95
521.155	20933.82
521.357	21353.66
521.559	21431.48
521.761	21722.29
521.963	21542.07
522.164	21806.26
522.366	21738.68
522.568	22267.05
522.77	22209.71
522.971	22777
523.173	22781.09
523.375	22654.12
523.576	22994.08
523.778	22949.03
523.98	23178.4
524.181	23346.33
524.383	23458.97
524.584	23606.42
524.786	23766.17
524.988	23696.53
525.189	24050.83
525.391	24011.92
525.592	24030.35
525.794	24069.26
525.995	24339.6
526.197	24513.67
526.398	24710.28
526.6	24425.61
526.801	24812.68
527.003	24886.4
527.204	25277.57
527.406	25130.11
527.607	24667.27
527.808	25296
528.01	25218.18
528.211	25359.49
528.412	25900.15
528.614	25783.41
528.815	25863.29
529.016	25930.87
529.218	25814.13
529.419	25924.72
529.62	26160.24
529.822	25871.48
530.023	26137.71
530.224	26094.71
530.425	26014.84
530.626	26100.85
530.828	26274.93
531.029	26369.13
531.23	26172.53
531.431	26274.93
531.632	26451.05
531.833	26655.85
532.035	25963.64
532.236	26393.71
532.437	26670.19
532.638	26465.39
532.839	26590.31
533.04	26758.25
533.241	26391.66
533.442	26942.56
533.643	26676.33
533.844	26874.98
534.045	26840.17
534.246	26850.41
534.447	26766.44
534.648	26682.47
534.849	26907.75
535.05	26522.73
535.251	26752.1
535.451	26872.93
535.652	26811.49
535.853	26692.71
536.054	26834.02
536.255	26932.33
536.456	26498.16
536.657	27188.32
536.857	26930.28
537.058	26373.23
537.259	27241.57
537.46	26489.96
537.66	26836.07
537.861	27100.26
538.062	26575.98
538.263	26678.38
538.463	26637.42
538.664	27022.44
538.865	26637.42
539.065	27071.59
539.266	26633.32
539.466	27016.29
539.667	26520.68
539.868	26766.44
540.068	27104.35
540.269	26698.86
540.469	27241.57
540.67	26893.41
540.87	26733.67
541.071	26745.96
541.271	27090.02
541.472	26588.27
541.672	26631.27
541.873	26645.61
542.073	26389.61
542.274	26907.75
542.474	26717.29
542.675	26868.84
542.875	27049.06
543.075	26913.89
543.276	26670.19
543.476	26852.45
543.676	26750.06
543.877	27157.6
544.077	26688.62
544.277	26758.25
544.478	26610.79
544.678	27014.24
544.878	26637.42
545.078	26657.9
545.279	26500.2
545.479	26727.53
545.679	26561.64
545.879	26592.36
546.079	26668.14
546.28	26690.66
546.48	26455.15
546.68	26637.42
546.88	26985.57
547.08	26817.64
547.28	26621.03
547.48	26725.48
547.68	26768.49
547.88	26647.66
548.081	26752.1
548.281	26975.33
548.481	26594.41
548.681	26723.43
548.881	26979.43
549.081	26893.41
549.28	26561.64
549.48	26780.78
549.68	26893.41
549.88	26829.93
550.08	26502.25
550.28	26690.66
550.48	26750.06
550.68	26840.17
550.88	26348.65
551.08	26567.79
551.279	26696.81
551.479	26553.45
551.679	26762.34
551.879	26498.16
552.079	26768.49
552.278	26551.4
552.478	26610.79
552.678	26821.73
552.878	26750.06
553.077	26633.32
553.277	26604.65
553.477	26727.53
553.676	26428.52
553.876	26469.48
554.076	26297.45
554.275	26285.17
554.475	26360.94
554.674	26442.86
554.874	26334.32
555.074	26193.01
555.273	26645.61
555.473	26426.48
555.672	26125.43
555.872	26422.38
556.071	26233.97
556.271	26477.68
556.47	26068.08
556.67	26074.23
556.869	26139.76
557.068	26406
557.268	26070.13
557.467	25932.92
557.667	26084.47
557.866	26258.54
558.065	26016.88
558.265	25846.9
558.464	25949.3
558.663	26080.37
558.863	25920.63
559.062	26195.06
559.261	25689.21
559.461	25992.31
559.66	25633.91
559.859	25816.18
560.058	25859.19
560.258	25977.97
560.457	25519.23
560.656	25824.37
560.855	25427.07
561.054	25580.67
561.253	25590.91
561.453	25652.34
561.652	25656.44
561.851	25390.2
562.05	25574.52
562.249	25252.99
562.448	25511.03
562.647	25361.53
562.846	25320.57
563.045	25291.9
563.244	25322.62
563.443	25367.68
563.642	25058.43
563.841	25058.43
564.04	24958.08
564.239	25091.2
564.438	24636.55
564.637	25089.15
564.836	25074.82
565.035	24308.88
565.234	25181.31
565.432	25160.83
565.631	24644.74
565.83	24820.87
566.029	24749.19
566.228	24568.97
566.427	24425.61
566.625	24360.08
566.824	24382.6
567.023	24683.66
567.222	23956.63
567.42	24470.67
567.619	24392.84
567.818	24204.43
568.016	24071.31
568.215	24601.74
568.414	23932.05
568.612	24229.01
568.811	24073.36
569.01	24114.32
569.208	23753.88
569.407	24315.02
569.605	23702.68
569.804	23932.05
570.002	23641.24
570.201	23538.84
570.4	23653.53
570.598	23045.28
570.797	23518.36
570.995	23608.47
571.193	23141.53
571.392	23723.16
571.59	23127.2
571.789	23307.42
571.987	23006.37
572.186	22971.55
572.384	22910.11
572.582	23229.6
572.781	22934.69
572.979	22731.94
573.177	22893.73
573.376	22963.36
573.574	22719.65
573.772	22613.16
573.971	22611.11
574.169	22596.78
574.367	22303.92
574.565	22602.92
574.763	22373.55
574.962	22398.12
575.16	22090.93
575.358	22508.71
575.556	22047.92
575.754	22318.25
575.952	21853.36
576.151	22056.11
576.349	21910.71
576.547	21849.27
576.745	21877.94
576.943	21912.75
577.141	21990.58
577.339	22045.87
577.537	21402.81
577.735	21648.57
577.933	21531.83
578.131	21683.38
578.329	21273.79
578.527	21406.91
578.725	21451.96
578.923	21220.54
579.121	21181.63
579.319	21064.89
579.516	21351.61
579.714	21230.78
579.912	21095.61
580.11	20952.26
580.308	20747.46
580.506	21073.09
580.704	20876.48
580.901	21128.38
581.099	20794.56
581.297	20671.68
581.495	20673.73
581.692	20634.82
581.89	20344.01
582.088	20577.48
582.285	20268.23
582.483	20597.96
582.681	20245.71
582.878	20262.09
583.076	19918.03
583.274	20198.6
583.471	19827.92
583.669	20321.48
583.866	20085.97
584.064	19842.26
584.262	19729.62
584.459	19961.04
584.657	19535.06
584.854	19705.04
585.052	19465.43
585.249	19725.52
585.447	19682.52
585.644	19485.91
585.841	19211.48
586.039	19438.81
586.236	18953.44
586.434	19352.79
586.631	19397.85
586.828	19295.45
587.026	19156.19
587.223	19152.09
587.42	18896.1
587.618	18978.01
587.815	18779.36
588.012	18799.84
588.21	18873.57
588.407	19061.98
588.604	18834.66
588.801	18468.07
588.999	18556.13
589.196	18509.03
589.393	18633.96
589.59	18232.55
589.787	18377.96
589.984	18662.63
590.182	18191.59
590.379	18314.47
590.576	18062.57
590.773	18152.68
590.97	18115.82
591.167	18027.76
591.364	17876.21
591.561	17943.79
591.758	17884.4
591.955	18003.18
592.152	18070.76
592.349	17628.4
592.546	17804.53
592.743	17714.42
592.94	17396.98
593.137	17538.29
593.334	17573.11
593.531	17442.04
593.727	17323.26
593.924	17460.47
594.121	17120.51
594.318	17511.67
594.515	17128.7
594.712	17439.99
594.908	17151.23
595.105	17276.15
595.302	17216.76
595.499	16934.14
595.696	16893.18
595.892	16807.17
596.089	16995.58
596.286	17030.4
596.482	16655.62
596.679	16768.26
596.876	16758.02
597.072	16573.7
597.269	16526.6
597.466	16475.4
597.662	16227.59
597.859	16397.57
598.055	16370.95
598.252	16088.33
598.448	16225.54
598.645	16203.02
598.841	16180.49
599.038	15916.3
599.234	15877.39
599.431	16078.09
599.627	15987.98
599.824	16098.57
600.02	15691.02
600.217	16043.28
600.413	15844.62
600.609	15652.11
600.806	15619.35
601.002	15953.16
601.198	15613.2
601.395	15428.88
601.591	15314.2
601.787	15770.9
601.984	15297.81
602.18	15543.57
602.376	15097.11
602.572	15500.56
602.769	15279.38
602.965	14972.19
603.161	15252.76
603.357	14986.52
603.553	14880.03
603.75	15058.2
603.946	14779.68
604.142	14875.93
604.338	14626.08
604.534	14839.07
604.73	14486.82
604.926	14765.34
605.122	14773.53
605.318	14454.05
605.514	14495.01
605.71	14355.75
605.906	14474.53
606.102	14484.77
606.298	14425.38
606.494	14619.94
606.69	14312.74
606.886	14605.6
607.082	14112.04
607.278	14200.1
607.474	14069.03
607.67	14339.37
607.866	14146.86
608.062	14208.3
608.257	14142.76
608.453	14157.1
608.649	14132.52
608.845	13905.2
609.041	14028.07
609.236	14126.38
609.432	14122.28
609.628	14007.59
609.824	14036.27
610.019	14019.88
610.215	13843.76
610.411	13784.37
610.606	13796.65
610.802	13694.26
610.998	13331.76
611.193	13483.31
611.389	13749.55
611.584	13514.03
611.78	13536.56
611.976	13569.33
612.171	13446.45
612.367	13360.44
612.562	13411.64
612.758	13161.78
612.953	13387.06
613.149	13401.4
613.344	13313.33
613.539	13122.87
613.735	13274.42
613.93	13368.63
614.126	13270.33
614.321	13299
614.517	13090.1
614.712	13368.63
614.907	13053.24
615.103	13251.89
615.298	13073.72
615.493	13403.44
615.688	12895.55
615.884	13141.3
616.079	12850.49
616.274	12963.13
616.47	12959.03
616.665	12842.3
616.86	13012.28
617.055	12664.13
617.25	12725.57
617.445	12922.17
617.641	12653.89
617.836	12700.99
618.031	12571.97
618.226	12784.96
618.421	12438.85
618.616	12547.39
618.811	12475.71
619.006	12635.46
619.201	12430.66
619.396	12383.56
619.591	12115.27
619.786	12215.62
619.981	12180.81
620.176	12350.79
620.371	12016.97
620.566	11916.62
620.761	11910.47
620.956	11982.15
621.151	11703.63
621.346	11951.43
621.541	11840.84
621.735	11842.89
621.93	11533.65
622.125	11410.77
622.32	11441.49
622.515	11367.76
622.709	11375.95
622.904	11328.85
623.099	11201.88
623.294	11056.47
623.488	11048.28
623.683	11195.73
623.878	11144.53
624.072	10974.55
624.267	11148.63
624.462	10810.72
624.656	10632.54
624.851	10894.68
625.046	10724.7
625.24	10579.29
625.435	10517.86
625.629	10485.09
625.824	10450.27
626.018	10589.53
626.213	10130.79
626.407	10311.01
626.602	10249.57
626.796	10304.87
626.991	10245.48
627.185	10048.87
627.38	9835.88
627.574	10126.69
627.768	9973.1
627.963	9891.18
628.157	9747.82
628.352	10057.06
628.546	9815.4
628.74	9981.29
628.935	9475.44
629.129	9753.96
629.323	9344.37
629.517	9516.4
629.712	9356.66
629.906	9352.56
630.1	9289.07
630.294	9567.6
630.489	9153.91
630.683	9125.24
630.877	9049.46
631.071	9119.09
631.265	9031.03
631.459	9065.85
631.653	8883.58
631.848	8951.16
632.042	8897.91
632.236	8869.24
632.43	8752.51
632.624	8689.02
632.818	8701.31
633.012	8656.25
633.206	8719.74
633.4	8680.83
633.594	8426.88
633.788	8660.35
633.982	8799.61
634.176	8426.88
634.369	8324.48
634.563	8445.31
634.757	8430.98
634.951	8287.62
635.145	8375.68
635.339	8187.27
635.533	8039.81
635.726	8086.92
635.92	7837.06
636.114	8011.14
636.308	7763.34
636.501	7853.45
636.695	7857.54
636.889	7677.32
637.083	7728.52
637.276	7867.78
637.47	7513.49
637.664	7560.59
637.857	7478.67
638.051	7601.55
638.244	7533.97
638.438	7431.57
638.632	7550.35
638.825	7347.6
639.019	7423.37
639.212	7351.7
639.406	7450
639.599	7173.52
639.793	7280.02
639.986	6972.82
640.18	7185.81
640.373	7187.86
640.567	6886.81
640.76	7032.21
640.954	6942.1
641.147	6999.45
641.34	6974.87
641.534	7189.91
641.727	6835.61
641.92	6694.3
642.114	6669.72
642.307	6751.64
642.5	6606.24
642.694	6493.6
642.887	6552.99
643.08	6448.54
643.273	6524.32
643.467	6411.68
643.66	6634.91
643.853	6317.47
644.046	6262.18
644.239	6221.22
644.432	6059.43
644.626	6346.14
644.819	6135.2
645.012	6182.31
645.205	6028.71
645.398	6100.39
645.591	6065.57
645.784	6002.08
645.977	5963.17
646.17	5948.84
646.363	5868.97
646.556	5785
646.749	5787.05
646.942	5891.49
647.135	5762.47
647.328	5662.12
647.521	5780.9
647.714	5477.8
647.907	5739.94
648.099	5643.69
648.292	5641.64
648.485	5660.07
648.678	5494.19
648.871	5469.61
649.064	5387.69
649.256	5291.44
649.449	5414.32
649.642	5375.41
649.835	5285.3
650.027	5385.65
650.22	5170.61
650.413	5256.62
650.605	5117.36
650.798	5078.45
650.991	5053.87
651.183	5281.2
651.376	5092.79
651.568	5262.77
651.761	5014.96
651.954	5090.74
652.146	4869.56
652.339	4887.99
652.531	4832.69
652.724	4971.96
652.916	4926.9
653.109	4926.9
653.301	4828.6
653.494	4859.32
653.686	4787.64
653.879	4879.8
654.071	4853.17
654.263	4683.19
654.456	4650.43
654.648	4631.99
654.84	4529.59
655.033	4631.99
655.225	4431.29
655.417	4566.46
655.61	4498.88
655.802	4631.99
655.994	4369.85
656.186	4449.72
656.379	4390.33
656.571	4500.92
656.763	4328.89
656.955	4488.64
657.148	4279.74
657.34	4193.73
657.532	4287.93
657.724	4152.77
657.916	4081.09
658.108	4212.16
658.3	4195.78
658.492	4189.63
658.684	4091.33
658.876	3984.84
659.068	4115.91
659.26	4046.27
659.452	3976.64
659.644	4005.31
659.836	4042.18
660.028	3964.36
660.22	3907.01
660.412	3995.08
660.604	3902.92
660.796	3882.44
660.988	3886.53
661.18	3786.18
661.372	3853.77
661.563	3861.96
661.755	3829.19
661.947	3876.29
662.139	3665.35
662.331	3632.58
662.522	3616.2
662.714	3638.73
662.906	3612.1
663.097	3577.29
663.289	3675.59
663.481	3589.58
663.673	3530.19
663.864	3493.32
664.056	3505.61
664.247	3493.32
664.439	3390.92
664.631	3507.66
664.822	3546.57
665.014	3456.46
665.205	3296.72
665.397	3274.19
665.588	3421.64
665.78	3311.05
665.971	3360.2
666.163	3292.62
666.354	3266
666.546	3126.74
666.737	3163.6
666.929	3329.49
667.12	3184.08
667.311	3194.32
667.503	3184.08
667.694	3259.85
667.885	3083.73
668.077	3194.32
668.268	3112.4
668.459	3093.97
668.651	3100.11
668.842	3194.32
669.033	3134.93
669.224	3063.25
669.416	2985.43
669.607	2923.99
669.798	2915.8
669.989	2956.75
670.18	2926.04
670.371	2934.23
670.563	3069.39
670.754	2854.36
670.945	2856.4
671.136	2895.32
671.327	2870.74
671.518	2842.07
671.709	2782.68
671.9	2905.56
672.091	2872.79
672.282	2846.16
672.473	2811.35
672.664	2837.97
672.855	2887.12
673.046	2778.58
673.237	2829.78
673.428	2700.76
673.619	2813.4
673.809	2760.15
674	2678.23
674.191	2713.05
674.382	2602.46
674.573	2741.72
674.764	2758.1
674.954	2614.74
675.145	2639.32
675.336	2676.18
675.527	2692.57
675.717	2655.7
675.908	2719.19
676.099	2713.05
676.289	2602.46
676.48	2631.13
676.671	2665.94
676.861	2604.5
677.052	2477.53
677.243	2500.06
677.433	2549.21
677.624	2547.16
677.814	2541.02
678.005	2485.72
678.195	2545.11
678.386	2489.82
678.576	2481.63
678.767	2450.91
678.957	2389.47
679.148	2356.7
679.338	2471.39
679.529	2584.02
679.719	2391.52
679.909	2403.8
680.1	2344.41
680.29	2430.43
680.481	2569.69
680.671	2557.4
680.861	2317.79
681.052	2598.36
681.242	2520.54
681.432	2432.47
681.622	2463.19
681.813	2399.71
682.003	2309.6
682.193	2373.08
682.383	2387.42
682.573	2424.28
682.764	2311.64
682.954	2424.28
683.144	2444.76
683.334	2358.75
683.524	2430.43
683.714	2409.95
683.904	2278.88
684.094	2479.58
684.284	2313.69
684.474	2272.73
684.664	2387.42
684.854	2342.36
685.044	2340.32
685.234	2330.08
685.424	2348.51
685.614	2319.84
685.804	2287.07
685.994	2348.51
686.184	2414.04
686.374	2268.64
686.564	2428.38
686.753	2282.97
686.943	2293.21
687.133	2260.45
687.323	2276.83
687.513	2262.49
687.702	2184.67
687.892	2266.59
688.082	2266.59
688.272	2282.97
688.461	2293.21
688.651	2297.31
688.841	2088.42
689.03	2151.9
689.22	2186.72
689.41	2229.73
689.599	2235.87
689.789	2203.1
689.979	2217.44
690.168	2145.76
690.358	2100.7
690.547	2117.09
690.737	2137.57
690.926	2141.66
691.116	2119.14
691.305	2170.33
691.495	2143.71
691.684	2166.24
691.874	2174.43
692.063	2141.66
692.252	2174.43
692.442	2184.67
692.631	2110.94
692.82	2112.99
693.01	2061.79
693.199	2117.09
693.388	2141.66
693.578	2072.03
693.767	2104.8
693.956	2180.57
694.146	2078.18
694.335	2053.6
694.524	2082.27
694.713	2074.08
694.902	2158.05
695.092	2223.58
695.281	2037.22
695.47	2133.47
695.659	2002.4
695.848	2069.98
696.037	2035.17
696.226	1986.02
696.415	2061.79
696.604	1986.02
696.793	2074.08
696.982	1988.07
697.171	2063.84
697.36	2010.59
697.549	1936.87
697.738	1953.25
697.927	2043.36
698.116	2082.27
698.305	2012.64
698.494	1920.48
698.683	1963.49
698.872	2022.88
699.061	1926.63
699.25	1897.96
699.438	2026.98
699.627	1926.63
699.816	1998.31
700.005	1881.57
700.193	2039.26
700.382	1938.91
700.571	1990.11
700.76	1891.81
700.948	1842.66
701.137	1875.43
701.326	2006.5
701.514	1936.87
701.703	1887.72
701.892	1865.19
702.08	1902.05
702.269	1811.94
702.457	1863.14
702.646	1963.49
702.834	1832.42
703.023	1877.48
703.212	1867.24
703.4	1836.52
703.589	1840.61
703.777	1775.08
703.965	1826.28
704.154	1850.85
704.342	1869.28
704.531	1770.98
704.719	1760.74
704.907	1969.63
705.096	1881.57
705.284	1717.73
705.472	1797.6
705.661	1725.93
705.849	1838.56
706.037	1740.26
706.226	1803.75
706.414	1674.73
706.602	1748.45
706.79	1730.02
706.979	1775.08
707.167	1785.32
707.355	1857
707.543	1715.69
707.731	1805.8
707.919	1652.2
708.107	1742.31
708.296	1715.69
708.484	1717.73
708.672	1644.01
708.86	1701.35
709.048	1785.32
709.236	1738.21
709.424	1684.97
709.612	1697.25
709.8	1611.24
709.988	1682.92
710.176	1607.14
710.364	1641.96
710.551	1699.3
710.739	1770.98
710.927	1650.15
711.115	1777.12
711.303	1621.48
711.491	1723.88
711.679	1668.58
711.866	1654.25
712.054	1635.82
712.242	1639.91
712.43	1617.38
712.617	1723.88
712.805	1535.46
712.993	1578.47
713.181	1615.34
713.368	1678.82
713.556	1512.94
713.744	1611.24
713.931	1541.61
714.119	1523.18
714.306	1543.66
714.494	1562.09
714.682	1551.85
714.869	1539.56
715.057	1547.75
715.244	1529.32
715.432	1598.95
715.619	1533.42
715.807	1535.46
715.994	1594.86
716.182	1443.31
716.369	1533.42
716.556	1512.94
716.744	1570.28
716.931	1381.87
717.119	1488.36
717.306	1543.66
717.493	1390.06
717.681	1488.36
717.868	1490.41
718.055	1545.7
718.242	1433.07
718.43	1488.36
718.617	1474.03
718.804	1490.41
718.991	1572.33
719.179	1525.22
719.366	1385.96
719.553	1437.16
719.74	1396.2
719.927	1455.59
720.114	1465.83
720.301	1381.87
720.488	1447.4
720.676	1363.44
720.863	1439.21
721.05	1390.06
721.237	1365.48
721.424	1457.64
721.611	1449.45
721.798	1359.34
721.985	1449.45
722.172	1371.63
722.358	1326.57
722.545	1377.77
722.732	1361.39
722.919	1420.78
723.106	1412.59
723.293	1328.62
723.48	1363.44
723.667	1375.72
723.853	1398.25
724.04	1361.39
724.227	1408.49
724.414	1316.33
724.6	1297.9
724.787	1367.53
724.974	1342.96
725.161	1381.87
725.347	1277.42
725.534	1299.95
725.72	1447.4
725.907	1349.1
726.094	1347.05
726.28	1414.63
726.467	1336.81
726.653	1328.62
726.84	1490.41
727.027	1367.53
727.213	1312.24
727.4	1267.18
727.586	1342.96
727.773	1312.24
727.959	1240.56
728.145	1187.31
728.332	1271.28
728.518	1248.75
728.705	1289.71
728.891	1205.74
729.077	1246.7
729.264	1275.37
729.45	1189.36
729.636	1318.38
729.823	1291.76
730.009	1297.9
730.195	1265.13
730.382	1273.32
730.568	1285.61
730.754	1238.51
730.94	1240.56
731.126	1320.43
731.313	1275.37
731.499	1170.93
731.685	1277.42
731.871	1246.7
732.057	1261.04
732.243	1238.51
732.429	1218.03
732.615	1256.94
732.801	1238.51
732.987	1086.96
733.173	1168.88
733.359	1213.93
733.545	1236.46
733.731	1109.49
733.917	1191.41
734.103	1156.59
734.289	1185.26
734.475	1207.79
734.661	1293.8
734.847	1238.51
735.033	1242.61
735.219	1228.27
735.404	1201.65
735.59	1199.6
735.776	1144.3
735.962	1213.93
736.148	1209.84
736.333	1127.92
736.519	1121.77
736.705	1146.35
736.89	1256.94
737.076	1127.92
737.262	1105.39
737.447	1158.64
737.633	1072.62
737.819	1160.69
738.004	1172.97
738.19	1207.79
738.375	1191.41
738.561	1093.1
738.747	1189.36
738.932	1119.73
739.118	1142.25
739.303	1152.49
739.489	1113.58
739.674	1103.34
739.859	1134.06
740.045	1058.29
740.23	1050.1
740.416	1091.06
740.601	1138.16
740.786	966.13
740.972	1093.1
741.157	1117.68
741.342	1039.86
741.528	1005.04
741.713	1123.82
741.898	1084.91
742.084	1078.77
742.269	1039.86
742.454	1054.19
742.639	1181.17
742.824	1011.18
743.01	1132.01
743.195	1144.3
743.38	1011.18
743.565	1078.77
743.75	1086.96
743.935	959.99
744.12	1086.96
744.305	1027.57
744.49	984.56
744.675	1068.53
744.86	976.37
745.045	974.32
745.23	931.31
745.415	1072.62
745.6	984.56
745.785	966.13
745.97	962.03
746.155	994.8
746.34	878.07
746.525	992.75
746.71	953.84
746.895	998.9
747.079	910.83
747.264	945.65
747.449	962.03
747.634	871.92
747.819	904.69
748.003	947.7
748.188	908.79
748.373	945.65
748.557	871.92
748.742	806.39
748.927	871.92
749.111	873.97
749.296	843.25
749.481	912.88
749.665	873.97
749.85	796.15
750.034	873.97
750.219	843.25
750.404	808.44
750.588	880.11
750.773	822.77
750.957	888.31
751.141	847.35
751.326	810.48
751.51	744.95
751.695	830.96
751.879	755.19
752.064	871.92
752.248	763.38
752.432	804.34
752.617	734.71
752.801	734.71
752.985	810.48
753.17	796.15
753.354	779.76
753.538	794.1
753.722	783.86
753.907	687.61
754.091	806.39
754.275	800.24
754.459	765.43
754.643	724.47
754.828	691.7
755.012	714.23
755.196	718.33
755.38	695.8
755.564	673.27
755.748	701.94
755.932	730.61
756.116	724.47
756.3	601.59
756.484	654.84
756.668	763.38
756.852	718.33
757.036	656.89
757.22	656.89
757.404	697.85
757.588	660.98
757.772	646.65
757.956	560.63
758.14	677.37
758.323	646.65
758.507	626.17
758.691	630.26
758.875	589.3
759.059	699.89
759.242	650.74
759.426	620.02
759.61	603.64
759.794	626.17
759.977	689.65
760.161	595.45
760.345	587.26
760.528	568.82
760.712	599.54
760.895	605.69
761.079	585.21
761.263	525.82
761.446	622.07
761.63	579.06
761.813	499.19
761.997	634.36
762.18	519.67
762.364	542.2
762.547	472.57
762.731	613.88
762.914	591.35
763.098	611.83
763.281	560.63
763.464	560.63
763.648	560.63
763.831	529.91
764.015	501.24
764.198	521.72
764.381	480.76
764.564	507.38
764.748	536.06
764.931	497.14
765.114	540.15
765.297	538.1
765.481	550.39
765.664	562.68
765.847	513.53
766.03	554.49
766.213	548.34
766.397	560.63
766.58	577.02
766.763	495.1
766.946	546.3
767.129	521.72
767.312	452.09
767.495	460.28
767.678	513.53
767.861	513.53
768.044	423.42
768.227	564.73
768.41	419.32
768.593	466.42
768.776	464.38
768.959	478.71
769.142	472.57
769.324	552.44
769.507	482.81
769.69	579.06
769.873	470.52
770.056	513.53
770.239	450.04
770.421	499.19
770.604	488.95
770.787	335.35
770.97	390.65
771.152	415.23
771.335	452.09
771.518	423.42
771.7	417.27
771.883	394.75
772.066	390.65
772.248	441.85
772.431	456.19
772.613	423.42
772.796	398.84
772.978	456.19
773.161	484.86
773.343	515.58
773.526	398.84
773.708	456.19
773.891	423.42
774.073	353.79
774.256	357.88
774.438	386.55
774.621	384.51
774.803	425.47
774.985	431.61
775.168	433.66
775.35	359.93
775.532	382.46
775.715	349.69
775.897	402.94
776.079	312.83
776.261	431.61
776.444	429.56
776.626	339.45
776.808	370.17
776.99	361.98
777.173	392.7
777.355	437.75
777.537	361.98
777.719	316.92
777.901	355.83
778.083	415.23
778.265	316.92
778.447	321.02
778.629	304.64
778.811	366.07
778.993	437.75
779.175	392.7
779.357	257.53
779.539	341.5
779.721	380.41
779.903	339.45
780.085	298.49
780.267	341.5
780.449	263.68
780.631	349.69
780.812	372.22
780.994	267.77
781.176	343.55
781.358	302.59
781.54	237.05
781.721	361.98
781.903	263.68
782.085	275.96
782.267	271.87
782.448	275.96
782.63	245.24
782.812	284.16
782.993	257.53
783.175	310.78
783.357	232.96
783.538	298.49
783.72	286.2
783.901	306.68
784.083	230.91
784.264	241.15
784.446	220.67
784.627	278.01
784.809	275.96
784.99	220.67
785.172	341.5
785.353	165.37
785.535	294.4
785.716	230.91
785.897	255.48
786.079	267.77
786.26	249.34
786.441	343.55
786.623	282.11
786.804	212.48
786.985	214.52
787.167	224.76
787.348	206.33
787.529	230.91
787.71	271.87
787.891	243.2
788.073	208.38
788.254	185.85
788.435	218.62
788.616	282.11
788.797	228.86
788.978	261.63
789.159	220.67
789.34	265.72
789.522	220.67
789.703	208.38
789.884	148.99
790.065	306.68
790.246	241.15
790.427	261.63
790.607	177.66
790.788	124.41
790.969	208.38
791.15	206.33
791.331	173.57
791.512	222.72
791.693	161.28
791.874	167.42
792.054	278.01
792.235	228.86
792.416	200.19
792.597	175.61
792.778	122.37
792.958	167.42
793.139	273.92
793.32	142.85
793.5	200.19
793.681	230.91
793.862	134.65
794.042	185.85
794.223	220.67
794.404	204.28
794.584	151.04
794.765	105.98
794.945	224.76
795.126	144.89
795.306	185.85
795.487	118.27
795.667	146.94
795.848	202.24
796.028	181.76
796.209	194.05
796.389	189.95
796.57	130.56
796.75	142.85
796.93	167.42
797.111	155.13
797.291	56.83
797.471	175.61
797.652	144.89
797.832	142.85
798.012	122.37
798.192	161.28
798.373	163.33
798.553	136.7
798.733	148.99
798.913	132.61
799.093	161.28
799.274	163.33
799.454	85.5
799.634	179.71
799.814	151.04
799.994	153.09
800.174	114.17
800.354	153.09
800.534	110.08
800.714	132.61
800.894	165.37
801.074	52.74
801.254	138.75
801.434	110.08
801.614	167.42
801.794	140.8
801.974	284.16
802.154	120.32
802.334	69.12
802.514	99.84
802.693	148.99
802.873	118.27
803.053	65.02
803.233	60.93
803.413	91.65
803.592	79.36
803.772	146.94
803.952	93.69
804.131	159.23
804.311	114.17
804.491	93.69
804.67	146.94
804.85	122.37
805.03	169.47
805.209	97.79
805.389	36.35
805.568	142.85
805.748	142.85
805.928	132.61
806.107	79.36
806.287	105.98
806.466	54.78
806.646	153.09
806.825	91.65
807.004	60.93
807.184	112.13
807.363	103.93
807.543	116.22
807.722	69.12
807.901	48.64
808.081	103.93
808.26	89.6
808.439	54.78
808.619	87.55
808.798	124.41
808.977	105.98
809.156	54.78
809.336	34.3
809.515	97.79
809.694	48.64
809.873	60.93
810.052	112.13
810.231	155.13
810.411	148.99
810.59	95.74
810.769	-0.51
810.948	110.08
811.127	32.26
811.306	46.59
811.485	50.69
811.664	101.89
811.843	103.93
812.022	105.98
812.201	56.83
812.38	79.36
812.559	9.73
812.737	140.8
812.916	19.97
813.095	69.12
813.274	34.3
813.453	26.11
813.632	40.45
813.811	144.89
813.989	128.51
814.168	79.36
814.347	24.06
814.526	116.22
814.704	71.17
814.883	67.07
815.062	75.26
815.24	65.02
815.419	34.3
815.598	95.74
815.776	105.98
815.955	112.13
816.133	19.97
816.312	77.31
816.49	134.65
816.669	34.3
816.847	24.06
817.026	46.59
817.204	89.6
817.383	93.69
817.561	62.98
817.74	108.03
817.918	89.6
818.097	118.27
818.275	58.88
818.453	89.6
818.632	65.02
818.81	67.07
818.988	132.61
819.167	38.4
819.345	165.37
819.523	24.06
819.701	112.13
819.879	3.58
820.058	62.98
820.236	38.4
820.414	134.65
820.592	13.82
820.77	85.5
820.948	67.07
821.127	-2.56
821.305	69.12
821.483	75.26
821.661	9.73
821.839	71.17
822.017	22.02
822.195	75.26
822.373	85.5
822.551	-18.94
822.729	54.78
822.907	28.16
823.085	97.79
823.262	13.82
823.44	77.31
823.618	48.64
823.796	30.21
823.974	60.93
824.152	38.4
824.329	58.88
824.507	28.16
824.685	132.61
824.863	116.22
825.04	1.54
825.218	110.08
825.396	42.5
825.574	-12.8
825.751	83.45
825.929	71.17
826.107	-6.66
826.284	62.98
826.462	42.5
826.639	11.78
826.817	-2.56
826.994	79.36
827.172	36.35
827.349	52.74
827.527	-18.94
827.704	-0.51
827.882	13.82
828.059	54.78
828.237	42.5
828.414	79.36
828.591	5.63
828.769	28.16
828.946	-4.61
829.124	67.07
829.301	89.6
829.478	13.82
829.655	11.78
829.833	36.35
830.01	5.63
830.187	71.17
830.364	32.26
830.542	69.12
830.719	-6.66
830.896	62.98
831.073	13.82
831.25	30.21
831.427	3.58
831.604	-12.8
831.782	22.02
831.959	36.35
832.136	-0.51
832.313	87.55
832.49	42.5
832.667	44.54
832.844	32.26
833.021	101.89
833.198	32.26
833.374	15.87
833.551	50.69
833.728	-8.7
833.905	71.17
834.082	3.58
834.259	15.87
834.436	44.54
834.612	40.45
834.789	87.55
834.966	62.98
835.143	-2.56
835.319	-27.14
835.496	122.37
835.673	114.17
835.85	44.54
836.026	7.68
836.203	-8.7
836.38	22.02
836.556	-2.56
836.733	-14.85
836.909	28.16
837.086	-55.81
837.262	105.98
837.439	62.98
837.616	30.21
837.792	11.78
837.968	71.17
838.145	44.54
838.321	69.12
838.498	-10.75
838.674	24.06
838.851	40.45
839.027	-23.04
839.203	36.35
839.38	69.12
839.556	-25.09
839.732	44.54
839.909	-20.99
840.085	19.97
840.261	24.06
840.437	34.3
840.614	-2.56
840.79	17.92
840.966	1.54
841.142	38.4
841.318	40.45
841.494	28.16
841.671	-33.28
841.847	105.98
842.023	15.87
842.199	13.82
842.375	-16.9
842.551	22.02
842.727	75.26
842.903	-31.23
843.079	-37.38
843.255	22.02
843.431	36.35
843.607	17.92
843.783	-45.57
843.959	19.97
844.134	46.59
844.31	30.21
844.486	42.5
844.662	11.78
844.838	17.92
845.013	52.74
845.189	83.45
845.365	95.74
845.541	-12.8
845.716	15.87
845.892	65.02
846.068	28.16
846.244	46.59
846.419	11.78
846.595	15.87
846.77	19.97
846.946	52.74
847.122	36.35
847.297	40.45
847.473	24.06
847.648	3.58
847.824	-35.33
847.999	-31.23
848.175	81.41
848.35	28.16
848.526	60.93
848.701	56.83
848.876	-10.75
849.052	-23.04
849.227	-8.7
849.403	17.92
849.578	22.02
849.753	-23.04
849.929	28.16
850.104	-10.75
850.279	-2.56
850.454	36.35
850.63	-33.28
850.805	22.02
850.98	44.54
851.155	-18.94
851.33	75.26
851.505	-31.23
851.681	19.97
851.856	19.97
852.031	19.97
852.206	75.26
852.381	-2.56
852.556	-4.61
852.731	9.73
852.906	42.5
853.081	-29.18
853.256	32.26
853.431	46.59
853.606	3.58
853.781	73.21
853.956	-25.09
854.131	15.87
854.305	-2.56
854.48	48.64
854.655	-74.24
854.83	-0.51
855.005	-18.94
855.18	54.78
855.354	-25.09
855.529	93.69
855.704	-51.71
855.879	3.58
856.053	-23.04
856.228	11.78
856.403	24.06
856.577	7.68
856.752	-20.99
856.926	83.45
857.101	19.97
857.276	-14.85
857.45	-12.8
857.625	56.83
857.799	91.65
857.974	24.06
858.148	-51.71
858.323	69.12
858.497	-70.14
858.672	-4.61
858.846	28.16
859.02	71.17
859.195	1.54
859.369	34.3
859.543	62.98
859.718	-0.51
859.892	3.58
860.066	-37.38
860.241	-39.42
860.415	-37.38
860.589	-12.8
860.763	60.93
860.938	-23.04
861.112	-59.9
861.286	22.02
861.46	3.58
861.634	65.02
861.808	-14.85
861.982	-23.04
862.157	-31.23
862.331	11.78
862.505	-55.81
862.679	3.58
862.853	46.59
863.027	5.63
863.201	65.02
863.375	1.54
863.549	13.82
863.722	19.97
863.896	56.83
864.07	32.26
864.244	-29.18
864.418	-33.28
864.592	-18.94
864.766	30.21
864.939	-20.99
865.113	-8.7
865.287	5.63
865.461	-51.71
865.634	75.26
865.808	30.21
865.982	-18.94
866.156	-41.47
866.329	-29.18
866.503	5.63
866.676	93.69
866.85	-18.94
867.024	-18.94
867.197	73.21
867.371	11.78
867.544	-4.61
867.718	-59.9
867.891	3.58
868.065	-35.33
868.238	13.82
868.412	-10.75
868.585	-29.18
868.759	36.35
868.932	44.54
869.105	-0.51
869.279	-39.42
869.452	52.74
869.625	24.06
869.799	60.93
869.972	-70.14
870.145	7.68
870.319	97.79
870.492	-37.38
870.665	65.02
870.838	-33.28
871.011	-76.29
871.185	24.06
871.358	-23.04
871.531	77.31
871.704	9.73
871.877	73.21
872.05	-6.66
872.223	40.45
872.396	28.16
872.569	40.45
872.742	-2.56
872.915	9.73
873.088	-37.38
873.261	36.35
873.434	-6.66
873.607	54.78
873.78	-6.66
873.953	-8.7
874.126	-57.86
874.299	-2.56
874.471	-16.9
874.644	95.74
874.817	79.36
874.99	-41.47
875.163	28.16
875.335	-18.94
875.508	-16.9
875.681	3.58
875.853	36.35
876.026	13.82
876.199	-27.14
876.371	-0.51
876.544	-53.76
876.717	71.17
876.889	-29.18
877.062	5.63
877.234	24.06
877.407	-4.61
877.579	-14.85
877.752	7.68
877.924	44.54
878.097	-18.94
878.269	15.87
878.442	3.58
878.614	28.16
878.786	17.92
878.959	58.88
879.131	54.78
879.303	-6.66
879.476	5.63
879.648	-55.81
879.82	32.26
879.993	3.58
880.165	26.11
880.337	19.97
880.509	26.11
880.681	-20.99
880.854	-27.14
881.026	-2.56
881.198	36.35
881.37	26.11
881.542	15.87
881.714	-43.52
881.886	-16.9
882.058	30.21
882.23	-18.94
882.402	-37.38
882.574	5.63
882.746	-8.7
882.918	-33.28
883.09	-33.28
883.262	60.93
883.434	1.54
883.606	52.74
883.778	40.45
883.95	93.69
884.122	-27.14
884.293	-59.9
884.465	-16.9
884.637	26.11
884.809	56.83
884.98	-23.04
885.152	-31.23
885.324	19.97
885.496	11.78
885.667	-18.94
885.839	22.02
886.011	-29.18
886.182	-45.57
886.354	-35.33
886.525	-61.95
886.697	15.87
886.869	-18.94
887.04	5.63
887.212	40.45
887.383	-23.04
887.555	-86.53
887.726	-20.99
887.897	-37.38
888.069	38.4
888.24	38.4
888.412	-12.8
888.583	-57.86
888.754	-0.51
888.926	-57.86
889.097	40.45
889.268	-23.04
889.44	32.26
889.611	50.69
889.782	48.64
889.953	-68.09
890.125	54.78
890.296	46.59
890.467	-59.9
890.638	34.3
890.809	36.35
890.98	32.26
891.151	71.17
891.323	60.93
891.494	13.82
891.665	19.97
891.836	5.63
892.007	15.87
892.178	1.54
892.349	71.17
892.52	42.5
892.691	32.26
892.862	-2.56
893.032	-51.71
893.203	-0.51
893.374	15.87
893.545	-45.57
893.716	-45.57
893.887	30.21
894.057	-18.94
894.228	13.82
894.399	24.06
894.57	-6.66
894.74	-6.66
894.911	44.54
895.082	22.02
895.253	24.06
895.423	-12.8
895.594	13.82
895.764	44.54
895.935	-43.52
896.106	26.11
896.276	34.3
896.447	-31.23
896.617	-53.76
896.788	-12.8
896.958	-16.9
897.129	44.54
897.299	-18.94
897.47	3.58
897.64	42.5
897.81	-12.8
897.981	-27.14
898.151	-59.9
898.322	11.78
898.492	-64
898.662	-6.66
898.832	-57.86
899.003	19.97
899.173	-70.14
899.343	-31.23
899.513	-14.85
