Data from USB4F104151__25__12-58-39-269.txt Node

Date: Fri Mar 14 12:58:39 EDT 2025
User: louis
Spectrometer: USB4F10415
Trigger mode: 4
Integration Time (sec): 1.000000E-2
Scans to average: 1
Electric dark correction enabled: true
Nonlinearity correction enabled: false
Boxcar width: 0
XAxis mode: Wavelengths
Number of Pixels in Spectrum: 3648
>>>>>Begin Spectral Data<<<<<
178.204	-15.87
178.424	-15.87
178.644	-15.87
178.864	-22.02
179.084	4.61
179.304	-24.06
179.524	-19.97
179.744	-30.21
179.964	68.09
180.184	-42.5
180.404	-1.54
180.624	33.28
180.844	29.18
181.064	6.66
181.283	4.61
181.503	-19.97
181.723	-3.58
181.943	-42.5
182.163	-19.97
182.383	-3.58
182.602	78.33
182.822	45.57
183.042	111.1
183.262	-52.74
183.482	55.81
183.701	57.86
183.921	6.66
184.141	-17.92
184.361	-3.58
184.58	-15.87
184.8	55.81
185.02	14.85
185.239	72.19
185.459	45.57
185.679	53.76
185.898	-5.63
186.118	111.1
186.338	14.85
186.557	66.05
186.777	72.19
186.997	43.52
187.216	33.28
187.436	100.86
187.655	-3.58
187.875	33.28
188.095	-38.4
188.314	68.09
188.534	18.94
188.753	41.47
188.973	55.81
189.192	14.85
189.412	16.9
189.631	43.52
189.851	70.14
190.07	-7.68
190.29	41.47
190.509	70.14
190.729	16.9
190.948	16.9
191.168	25.09
191.387	78.33
191.607	-1.54
191.826	-19.97
192.045	37.38
192.265	-19.97
192.484	12.8
192.704	12.8
192.923	39.42
193.142	88.57
193.362	33.28
193.581	86.53
193.8	53.76
194.02	57.86
194.239	59.9
194.458	4.61
194.678	57.86
194.897	23.04
195.116	0.51
195.335	51.71
195.555	84.48
195.774	68.09
195.993	92.67
196.212	53.76
196.432	119.29
196.651	25.09
196.87	23.04
197.089	-11.78
197.308	68.09
197.528	53.76
197.747	35.33
197.966	29.18
198.185	80.38
198.404	4.61
198.623	29.18
198.842	-24.06
199.062	-3.58
199.281	53.76
199.5	55.81
199.719	-1.54
199.938	-19.97
200.157	47.62
200.376	-46.59
200.595	49.66
200.814	31.23
201.033	39.42
201.252	-17.92
201.471	49.66
201.69	70.14
201.909	70.14
202.128	111.1
202.347	10.75
202.566	0.51
202.785	33.28
203.004	25.09
203.223	45.57
203.442	20.99
203.661	49.66
203.879	64
204.098	92.67
204.317	-7.68
204.536	-9.73
204.755	41.47
204.974	78.33
205.193	27.14
205.411	76.29
205.63	2.56
205.849	23.04
206.068	96.77
206.287	35.33
206.505	12.8
206.724	31.23
206.943	45.57
207.162	47.62
207.381	47.62
207.599	-5.63
207.818	109.05
208.037	12.8
208.255	-36.35
208.474	29.18
208.693	-3.58
208.911	94.72
209.13	10.75
209.349	43.52
209.567	68.09
209.786	43.52
210.005	8.7
210.223	25.09
210.442	-44.54
210.661	78.33
210.879	55.81
211.098	70.14
211.316	-24.06
211.535	37.38
211.753	88.57
211.972	43.52
212.191	61.95
212.409	53.76
212.628	59.9
212.846	61.95
213.065	4.61
213.283	53.76
213.502	84.48
213.72	61.95
213.938	82.43
214.157	45.57
214.375	23.04
214.594	-28.16
214.812	-3.58
215.031	39.42
215.249	47.62
215.467	-22.02
215.686	70.14
215.904	29.18
216.122	-19.97
216.341	-13.82
216.559	20.99
216.778	31.23
216.996	131.58
217.214	27.14
217.432	59.9
217.651	20.99
217.869	39.42
218.087	20.99
218.306	49.66
218.524	39.42
218.742	10.75
218.96	39.42
219.179	-28.16
219.397	14.85
219.615	12.8
219.833	-11.78
220.051	-32.26
220.27	16.9
220.488	47.62
220.706	80.38
220.924	-1.54
221.142	37.38
221.36	-32.26
221.578	6.66
221.796	23.04
222.015	96.77
222.233	51.71
222.451	61.95
222.669	-11.78
222.887	84.48
223.105	-48.64
223.323	39.42
223.541	-19.97
223.759	59.9
223.977	-11.78
224.195	104.96
224.413	86.53
224.631	8.7
224.849	53.76
225.067	33.28
225.285	-36.35
225.503	76.29
225.721	23.04
225.939	-9.73
226.157	25.09
226.375	55.81
226.592	33.28
226.81	33.28
227.028	12.8
227.246	16.9
227.464	41.47
227.682	51.71
227.9	-13.82
228.117	20.99
228.335	6.66
228.553	111.1
228.771	10.75
228.989	111.1
229.206	41.47
229.424	47.62
229.642	66.05
229.86	41.47
230.077	66.05
230.295	29.18
230.513	53.76
230.731	37.38
230.948	92.67
231.166	64
231.384	33.28
231.601	39.42
231.819	39.42
232.037	8.7
232.254	-5.63
232.472	4.61
232.689	86.53
232.907	72.19
233.125	53.76
233.342	45.57
233.56	57.86
233.777	80.38
233.995	39.42
234.213	18.94
234.43	84.48
234.648	94.72
234.865	-34.3
235.083	94.72
235.3	12.8
235.518	-15.87
235.735	49.66
235.953	8.7
236.17	64
236.388	16.9
236.605	16.9
236.822	84.48
237.04	49.66
237.257	88.57
237.475	18.94
237.692	39.42
237.909	51.71
238.127	29.18
238.344	92.67
238.562	39.42
238.779	-9.73
238.996	104.96
239.214	12.8
239.431	37.38
239.648	74.24
239.865	29.18
240.083	37.38
240.3	49.66
240.517	41.47
240.735	39.42
240.952	53.76
241.169	86.53
241.386	47.62
241.603	-7.68
241.821	37.38
242.038	88.57
242.255	64
242.472	-1.54
242.689	10.75
242.907	68.09
243.124	80.38
243.341	39.42
243.558	47.62
243.775	33.28
243.992	20.99
244.209	61.95
244.426	76.29
244.643	8.7
244.86	-52.74
245.078	4.61
245.295	31.23
245.512	47.62
245.729	-9.73
245.946	29.18
246.163	45.57
246.38	47.62
246.597	-36.35
246.814	33.28
247.031	98.81
247.248	29.18
247.464	78.33
247.681	33.28
247.898	16.9
248.115	12.8
248.332	12.8
248.549	14.85
248.766	35.33
248.983	84.48
249.2	45.57
249.417	119.29
249.633	-30.21
249.85	47.62
250.067	45.57
250.284	53.76
250.501	4.61
250.717	86.53
250.934	-3.58
251.151	10.75
251.368	84.48
251.585	23.04
251.801	35.33
252.018	-22.02
252.235	29.18
252.451	-22.02
252.668	12.8
252.885	29.18
253.102	72.19
253.318	-26.11
253.535	-1.54
253.752	55.81
253.968	2.56
254.185	55.81
254.401	-19.97
254.618	80.38
254.835	14.85
255.051	45.57
255.268	70.14
255.484	72.19
255.701	-1.54
255.917	51.71
256.134	20.99
256.351	31.23
256.567	6.66
256.784	76.29
257	51.71
257.217	90.62
257.433	-3.58
257.65	82.43
257.866	84.48
258.082	12.8
258.299	35.33
258.515	61.95
258.732	23.04
258.948	-3.58
259.165	25.09
259.381	90.62
259.597	64
259.814	78.33
260.03	49.66
260.246	31.23
260.463	111.1
260.679	29.18
260.895	37.38
261.112	82.43
261.328	64
261.544	37.38
261.761	23.04
261.977	47.62
262.193	45.57
262.409	57.86
262.626	51.71
262.842	12.8
263.058	47.62
263.274	66.05
263.49	27.14
263.707	78.33
263.923	27.14
264.139	61.95
264.355	-28.16
264.571	72.19
264.787	-22.02
265.004	53.76
265.22	18.94
265.436	10.75
265.652	-30.21
265.868	51.71
266.084	12.8
266.3	-7.68
266.516	31.23
266.732	129.53
266.948	129.53
267.164	-26.11
267.38	23.04
267.596	23.04
267.812	37.38
268.028	68.09
268.244	-40.45
268.46	61.95
268.676	49.66
268.892	31.23
269.108	43.52
269.324	-42.5
269.54	41.47
269.756	-3.58
269.972	4.61
270.188	39.42
270.403	2.56
270.619	-3.58
270.835	66.05
271.051	45.57
271.267	-40.45
271.483	45.57
271.698	70.14
271.914	66.05
272.13	39.42
272.346	76.29
272.562	-22.02
272.777	76.29
272.993	23.04
273.209	27.14
273.425	86.53
273.64	-3.58
273.856	2.56
274.072	-28.16
274.287	-9.73
274.503	96.77
274.719	23.04
274.934	61.95
275.15	-7.68
275.366	55.81
275.581	16.9
275.797	29.18
276.012	41.47
276.228	61.95
276.444	-1.54
276.659	-1.54
276.875	33.28
277.09	86.53
277.306	-9.73
277.521	68.09
277.737	55.81
277.952	119.29
278.168	-5.63
278.383	53.76
278.599	41.47
278.814	25.09
279.03	49.66
279.245	104.96
279.461	-5.63
279.676	49.66
279.892	98.81
280.107	14.85
280.322	-9.73
280.538	55.81
280.753	-9.73
280.969	33.28
281.184	23.04
281.399	129.53
281.615	-30.21
281.83	64
282.045	-38.4
282.26	-9.73
282.476	20.99
282.691	66.05
282.906	-7.68
283.122	23.04
283.337	45.57
283.552	41.47
283.767	-15.87
283.983	61.95
284.198	39.42
284.413	55.81
284.628	41.47
284.843	14.85
285.058	47.62
285.274	37.38
285.489	6.66
285.704	43.52
285.919	70.14
286.134	29.18
286.349	59.9
286.564	119.29
286.779	6.66
286.995	64
287.21	49.66
287.425	96.77
287.64	66.05
287.855	41.47
288.07	12.8
288.285	53.76
288.5	-7.68
288.715	14.85
288.93	8.7
289.145	8.7
289.36	43.52
289.575	45.57
289.79	35.33
290.004	25.09
290.219	12.8
290.434	55.81
290.649	72.19
290.864	61.95
291.079	-26.11
291.294	12.8
291.509	41.47
291.724	66.05
291.938	31.23
292.153	39.42
292.368	20.99
292.583	2.56
292.798	41.47
293.012	-1.54
293.227	29.18
293.442	4.61
293.657	35.33
293.871	6.66
294.086	88.57
294.301	29.18
294.516	-26.11
294.73	39.42
294.945	6.66
295.16	20.99
295.374	57.86
295.589	-58.88
295.804	14.85
296.018	119.29
296.233	115.2
296.447	45.57
296.662	-13.82
296.877	64
297.091	70.14
297.306	-19.97
297.52	94.72
297.735	16.9
297.949	-22.02
298.164	92.67
298.378	64
298.593	78.33
298.807	37.38
299.022	20.99
299.236	31.23
299.451	16.9
299.665	4.61
299.88	47.62
300.094	76.29
300.309	-54.78
300.523	16.9
300.737	68.09
300.952	53.76
301.166	74.24
301.381	61.95
301.595	-9.73
301.809	20.99
302.024	23.04
302.238	31.23
302.452	55.81
302.667	-7.68
302.881	53.76
303.095	74.24
303.309	53.76
303.524	-32.26
303.738	-1.54
303.952	31.23
304.166	6.66
304.381	29.18
304.595	14.85
304.809	14.85
305.023	8.7
305.237	43.52
305.452	6.66
305.666	-3.58
305.88	59.9
306.094	72.19
306.308	55.81
306.522	70.14
306.736	59.9
306.95	66.05
307.164	49.66
307.379	68.09
307.593	66.05
307.807	18.94
308.021	82.43
308.235	102.91
308.449	23.04
308.663	20.99
308.877	98.81
309.091	90.62
309.305	39.42
309.519	41.47
309.733	37.38
309.947	117.25
310.161	98.81
310.374	23.04
310.588	49.66
310.802	53.76
311.016	39.42
311.23	14.85
311.444	16.9
311.658	80.38
311.872	68.09
312.085	6.66
312.299	6.66
312.513	72.19
312.727	61.95
312.941	64
313.154	86.53
313.368	-15.87
313.582	14.85
313.796	82.43
314.009	2.56
314.223	84.48
314.437	143.87
314.651	4.61
314.864	74.24
315.078	41.47
315.292	-30.21
315.505	-38.4
315.719	39.42
315.933	23.04
316.146	55.81
316.36	-24.06
316.573	37.38
316.787	68.09
317.001	78.33
317.214	8.7
317.428	45.57
317.641	-1.54
317.855	53.76
318.068	57.86
318.282	96.77
318.495	33.28
318.709	12.8
318.922	35.33
319.136	6.66
319.349	-9.73
319.563	0.51
319.776	2.56
319.99	47.62
320.203	20.99
320.417	-1.54
320.63	-19.97
320.843	33.28
321.057	31.23
321.27	47.62
321.483	-5.63
321.697	47.62
321.91	78.33
322.124	86.53
322.337	41.47
322.55	12.8
322.763	88.57
322.977	6.66
323.19	-5.63
323.403	43.52
323.617	92.67
323.83	27.14
324.043	12.8
324.256	37.38
324.469	57.86
324.683	37.38
324.896	-13.82
325.109	16.9
325.322	27.14
325.535	92.67
325.748	43.52
325.962	102.91
326.175	39.42
326.388	37.38
326.601	61.95
326.814	45.57
327.027	92.67
327.24	96.77
327.453	64
327.666	45.57
327.879	94.72
328.092	49.66
328.305	55.81
328.518	4.61
328.731	86.53
328.944	102.91
329.157	-38.4
329.37	78.33
329.583	102.91
329.796	47.62
330.009	86.53
330.222	61.95
330.435	80.38
330.648	59.9
330.861	33.28
331.073	53.76
331.286	109.05
331.499	47.62
331.712	55.81
331.925	68.09
332.138	29.18
332.35	70.14
332.563	61.95
332.776	55.81
332.989	-30.21
333.202	-30.21
333.414	78.33
333.627	64
333.84	49.66
334.053	29.18
334.265	84.48
334.478	61.95
334.691	-11.78
334.903	41.47
335.116	47.62
335.329	111.1
335.541	-28.16
335.754	27.14
335.966	82.43
336.179	10.75
336.392	23.04
336.604	135.68
336.817	61.95
337.029	14.85
337.242	-32.26
337.454	68.09
337.667	-3.58
337.88	25.09
338.092	6.66
338.305	53.76
338.517	25.09
338.729	86.53
338.942	29.18
339.154	41.47
339.367	37.38
339.579	53.76
339.792	37.38
340.004	64
340.217	43.52
340.429	20.99
340.641	72.19
340.854	61.95
341.066	43.52
341.278	27.14
341.491	23.04
341.703	119.29
341.915	115.2
342.128	82.43
342.34	92.67
342.552	18.94
342.764	41.47
342.977	4.61
343.189	0.51
343.401	6.66
343.613	23.04
343.826	43.52
344.038	-11.78
344.25	25.09
344.462	29.18
344.674	94.72
344.886	72.19
345.099	84.48
345.311	8.7
345.523	20.99
345.735	61.95
345.947	-3.58
346.159	-17.92
346.371	47.62
346.583	-5.63
346.795	45.57
347.007	113.15
347.219	2.56
347.431	29.18
347.643	109.05
347.855	66.05
348.067	78.33
348.279	51.71
348.491	-9.73
348.703	2.56
348.915	66.05
349.127	29.18
349.339	29.18
349.551	6.66
349.763	137.73
349.975	82.43
350.187	92.67
350.399	92.67
350.61	-26.11
350.822	45.57
351.034	88.57
351.246	33.28
351.458	86.53
351.669	98.81
351.881	6.66
352.093	-30.21
352.305	61.95
352.517	45.57
352.728	127.49
352.94	111.1
353.152	23.04
353.363	74.24
353.575	45.57
353.787	90.62
353.999	45.57
354.21	53.76
354.422	16.9
354.633	23.04
354.845	8.7
355.057	104.96
355.268	74.24
355.48	59.9
355.692	59.9
355.903	41.47
356.115	68.09
356.326	45.57
356.538	55.81
356.749	51.71
356.961	45.57
357.172	20.99
357.384	55.81
357.595	61.95
357.807	16.9
358.018	72.19
358.23	61.95
358.441	78.33
358.653	47.62
358.864	2.56
359.075	98.81
359.287	53.76
359.498	-5.63
359.709	47.62
359.921	8.7
360.132	88.57
360.344	4.61
360.555	29.18
360.766	20.99
360.977	6.66
361.189	80.38
361.4	-3.58
361.611	113.15
361.823	68.09
362.034	66.05
362.245	86.53
362.456	145.92
362.667	100.86
362.879	59.9
363.09	115.2
363.301	64
363.512	113.15
363.723	37.38
363.935	29.18
364.146	66.05
364.357	84.48
364.568	-24.06
364.779	10.75
364.99	119.29
365.201	68.09
365.412	20.99
365.623	51.71
365.834	55.81
366.045	78.33
366.256	-5.63
366.467	55.81
366.678	64
366.889	20.99
367.1	35.33
367.311	61.95
367.522	61.95
367.733	70.14
367.944	2.56
368.155	16.9
368.366	96.77
368.577	61.95
368.788	57.86
368.999	45.57
369.209	10.75
369.42	117.25
369.631	92.67
369.842	94.72
370.053	68.09
370.264	61.95
370.474	25.09
370.685	57.86
370.896	39.42
371.107	31.23
371.317	123.39
371.528	27.14
371.739	74.24
371.95	18.94
372.16	49.66
372.371	55.81
372.582	66.05
372.792	-11.78
373.003	115.2
373.214	4.61
373.424	49.66
373.635	31.23
373.846	98.81
374.056	49.66
374.267	55.81
374.477	133.63
374.688	82.43
374.898	39.42
375.109	35.33
375.319	6.66
375.53	96.77
375.74	86.53
375.951	55.81
376.161	41.47
376.372	84.48
376.582	20.99
376.793	80.38
377.003	45.57
377.214	57.86
377.424	29.18
377.635	88.57
377.845	2.56
378.055	68.09
378.266	86.53
378.476	92.67
378.686	-9.73
378.897	70.14
379.107	92.67
379.317	119.29
379.528	39.42
379.738	23.04
379.948	82.43
380.158	-28.16
380.369	74.24
380.579	51.71
380.789	59.9
380.999	33.28
381.21	14.85
381.42	59.9
381.63	66.05
381.84	61.95
382.05	76.29
382.261	145.92
382.471	27.14
382.681	80.38
382.891	12.8
383.101	16.9
383.311	64
383.521	47.62
383.731	82.43
383.941	80.38
384.151	41.47
384.361	47.62
384.571	70.14
384.781	80.38
384.991	6.66
385.201	53.76
385.411	102.91
385.621	-15.87
385.831	45.57
386.041	33.28
386.251	12.8
386.461	74.24
386.671	-44.54
386.881	55.81
387.091	8.7
387.301	80.38
387.511	76.29
387.72	-19.97
387.93	29.18
388.14	20.99
388.35	16.9
388.56	80.38
388.769	51.71
388.979	29.18
389.189	80.38
389.399	117.25
389.609	29.18
389.818	29.18
390.028	-7.68
390.238	115.2
390.447	92.67
390.657	78.33
390.867	117.25
391.076	61.95
391.286	55.81
391.496	61.95
391.705	14.85
391.915	92.67
392.125	61.95
392.334	76.29
392.544	78.33
392.753	61.95
392.963	78.33
393.172	72.19
393.382	45.57
393.591	86.53
393.801	0.51
394.01	92.67
394.22	131.58
394.429	18.94
394.639	82.43
394.848	86.53
395.058	102.91
395.267	72.19
395.477	80.38
395.686	84.48
395.895	129.53
396.105	66.05
396.314	129.53
396.524	23.04
396.733	4.61
396.942	47.62
397.152	92.67
397.361	102.91
397.57	53.76
397.78	68.09
397.989	131.58
398.198	127.49
398.407	80.38
398.617	107.01
398.826	164.35
399.035	31.23
399.244	123.39
399.453	57.86
399.663	61.95
399.872	104.96
400.081	76.29
400.29	66.05
400.499	92.67
400.708	176.64
400.917	154.11
401.127	0.51
401.336	109.05
401.545	154.11
401.754	115.2
401.963	115.2
402.172	57.86
402.381	107.01
402.59	72.19
402.799	31.23
403.008	51.71
403.217	178.69
403.426	145.92
403.635	215.55
403.844	70.14
404.053	123.39
404.262	123.39
404.471	160.25
404.68	88.57
404.888	141.82
405.097	90.62
405.306	86.53
405.515	123.39
405.724	131.58
405.933	133.63
406.142	117.25
406.35	139.77
406.559	111.1
406.768	119.29
406.977	203.26
407.185	127.49
407.394	115.2
407.603	98.81
407.812	168.45
408.02	139.77
408.229	145.92
408.438	152.06
408.646	156.16
408.855	121.34
409.064	145.92
409.272	233.98
409.481	195.07
409.69	168.45
409.898	182.78
410.107	227.84
410.315	197.12
410.524	248.32
410.733	209.4
410.941	203.26
411.15	248.32
411.358	188.93
411.567	223.74
411.775	238.08
411.984	229.88
412.192	254.46
412.401	367.1
412.609	283.13
412.818	303.61
413.026	338.43
413.234	291.32
413.443	346.62
413.651	328.19
413.86	338.43
414.068	387.58
414.276	354.81
414.485	418.3
414.693	401.91
414.901	401.91
415.11	428.54
415.318	434.68
415.526	475.64
415.734	489.98
415.943	481.78
416.151	483.83
416.359	489.98
416.567	506.36
416.776	621.05
416.984	592.37
417.192	565.75
417.4	619
417.608	530.94
417.817	662.01
418.025	608.76
418.233	696.82
418.441	684.53
418.649	731.64
418.857	770.55
419.065	805.36
419.273	817.65
419.481	913.91
419.689	817.65
419.897	967.15
420.105	887.28
420.313	868.85
420.521	905.71
420.729	952.82
420.937	952.82
421.145	924.15
421.353	1094.13
421.561	1255.92
421.769	1174
421.977	1184.24
422.185	1225.2
422.393	1233.39
422.601	1327.6
422.809	1348.08
423.017	1378.79
423.224	1356.27
423.432	1372.65
423.64	1448.43
423.848	1636.84
424.056	1524.2
424.263	1710.57
424.471	1663.46
424.679	1714.66
424.887	1843.68
425.094	1864.16
425.302	1853.92
425.51	1853.92
425.718	2116.06
425.925	2073.06
426.133	2148.83
426.341	2294.24
426.548	2281.95
426.756	2232.8
426.964	2200.03
427.171	2341.34
427.379	2443.74
427.586	2492.89
427.794	2660.82
428.001	2671.06
428.209	2867.67
428.417	2808.28
428.624	3047.89
428.832	2978.26
429.039	3088.85
429.247	3045.84
429.454	3394
429.662	3506.63
429.869	3258.83
430.076	3543.5
430.284	3334.61
430.491	3625.42
430.699	3776.97
430.906	3770.82
431.114	3801.54
431.321	3897.8
431.528	4002.24
431.736	4164.03
431.943	4577.72
432.15	4172.22
432.358	4456.89
432.565	4499.9
432.772	4704.7
432.979	4782.52
433.187	4970.93
433.394	4942.26
433.601	5177.78
433.808	5280.18
434.016	5317.04
434.223	5460.4
434.43	5720.49
434.637	5566.89
434.844	6117.79
435.052	6257.06
435.259	6205.86
435.466	6275.49
435.673	6091.17
435.88	6599.07
436.087	6920.6
436.294	6853.02
436.501	6592.92
436.708	6697.37
436.915	6953.37
437.122	7428.49
437.329	7422.35
437.537	7637.39
437.743	7592.33
437.95	7653.77
438.157	7965.06
438.364	8522.11
438.571	8212.87
438.778	8354.18
438.985	9238.9
439.192	8913.27
439.399	8987
439.606	8909.18
439.813	9394.54
440.02	10000.74
440.227	9804.14
440.433	9574.77
440.64	10107.24
440.847	9906.54
441.054	10193.25
441.261	10969.43
441.467	10703.2
441.674	11088.21
441.881	11235.67
442.088	11487.57
442.294	11417.94
442.501	11555.15
442.708	11864.39
442.914	12214.6
443.121	12835.13
443.328	12261.7
443.534	12878.14
443.741	12943.67
443.948	12773.69
444.154	13830.44
444.361	13746.48
444.568	13900.08
444.774	13967.66
444.981	14084.39
445.187	14192.94
445.394	15008.03
445.6	14694.69
445.807	16206.09
446.013	15434
446.22	15753.49
446.426	16408.84
446.633	16572.68
446.839	17002.75
447.046	16437.51
447.252	17342.71
447.459	17830.13
447.665	17500.4
447.871	18247.91
448.078	19087.58
448.284	18202.86
448.491	18471.14
448.697	19024.09
448.903	19669.2
449.11	19527.89
449.316	19368.15
449.522	19939.54
449.728	20623.56
449.935	20852.93
450.141	20404.42
450.347	20912.32
450.553	20381.9
450.76	20558.02
450.966	21469.37
451.172	21274.81
451.378	21498.04
451.584	21072.06
451.791	21702.84
451.997	21747.89
452.203	22110.38
452.409	22118.57
452.615	21680.31
452.821	21141.69
453.027	20994.24
453.233	22216.88
453.44	21262.52
453.646	21448.89
453.852	21649.59
454.058	22182.06
454.264	21194.94
454.47	21610.68
454.676	21215.42
454.882	22030.51
455.088	20234.44
455.294	20435.14
455.5	20676.8
455.705	20807.87
455.911	20164.81
456.117	19787.99
456.323	19333.34
456.529	18448.61
456.735	19284.19
456.941	18817.25
457.147	18487.53
457.352	18008.3
457.558	17477.88
457.764	17828.08
457.97	17176.83
458.176	17023.23
458.381	16855.29
458.587	16189.7
458.793	16103.69
458.999	15294.74
459.204	16513.28
459.41	15972.62
459.616	14991.64
459.821	14999.84
460.027	14989.6
460.233	14717.22
460.438	13777.2
460.644	14065.96
460.85	13240.63
461.055	13013.31
461.261	13109.56
461.466	11837.77
461.672	11747.66
461.878	12699.97
462.083	11786.57
462.289	11479.38
462.494	11538.77
462.7	11024.73
462.905	10606.94
463.111	11014.49
463.316	11069.78
463.522	10955.1
463.727	10821.98
463.932	10797.4
464.138	10883.42
464.343	10922.33
464.549	10328.42
464.754	10914.14
464.959	10615.13
465.165	10623.33
465.37	10148.2
465.575	10029.41
465.781	10275.17
465.986	10375.52
466.191	10019.18
466.397	9879.91
466.602	9468.27
466.807	9632.11
467.012	9765.23
467.218	9699.69
467.423	9476.46
467.628	9656.68
467.833	9998.7
468.038	9589.1
468.244	9417.07
468.449	9709.93
468.654	9384.3
468.859	9326.96
469.064	9255.28
469.269	9040.25
469.474	9097.59
469.679	9177.46
469.885	8894.84
470.09	9040.25
470.295	9144.69
470.5	8825.21
470.705	8909.18
470.91	8493.44
471.115	8391.04
471.32	8694.14
471.525	8733.05
471.73	8243.59
471.935	8403.33
472.139	8216.96
472.344	8167.81
472.549	8040.84
472.754	8006.02
472.959	7942.53
473.164	7719.31
473.369	7563.66
473.574	7846.28
473.778	7768.46
473.983	7616.91
474.188	7651.72
474.393	7401.87
474.598	7285.14
474.802	7281.04
475.007	7262.61
475.212	7303.57
475.417	7090.58
475.621	7111.06
475.826	7000.47
476.031	6822.3
476.235	6769.05
476.44	6787.48
476.645	6740.38
476.849	6658.46
477.054	6650.27
477.259	6603.16
477.463	6623.64
477.668	6398.37
477.872	6511
478.077	6343.07
478.282	6273.44
478.486	6226.34
478.691	6281.63
478.895	6218.15
479.1	6197.67
479.304	6150.56
479.509	5976.48
479.713	6140.32
479.918	6031.78
480.122	5734.82
480.326	5853.61
480.531	5843.37
480.735	5910.95
480.94	5788.07
481.144	6109.6
481.348	5792.17
481.553	5771.69
481.757	5618.09
481.961	5630.38
482.166	5609.9
482.37	5714.34
482.574	5593.51
482.778	5589.42
482.983	5857.7
483.187	5591.47
483.391	5695.91
483.595	5681.58
483.8	5548.46
484.004	5816.74
484.208	5820.84
484.412	5679.53
484.616	5761.45
484.821	5700.01
485.025	5603.75
485.229	5636.52
485.433	5593.51
485.637	5822.89
485.841	5517.74
486.045	5671.34
486.249	5646.76
486.453	5577.13
486.657	5691.82
486.861	5661.1
487.065	5491.12
487.269	5503.4
487.473	5595.56
487.677	5618.09
487.881	5710.25
488.085	5638.57
488.289	5652.91
488.493	5683.63
488.697	5613.99
488.901	5788.07
489.105	5773.74
489.309	5704.1
489.512	5861.8
489.716	5718.44
489.92	5878.18
490.124	5681.58
490.328	5728.68
490.531	5847.46
490.735	5896.61
490.939	6025.64
491.143	5956.01
491.346	5853.61
491.55	5861.8
491.754	5919.14
491.958	6009.25
492.161	5906.85
492.365	6107.55
492.569	6074.79
492.772	5894.57
492.976	6048.16
493.18	6173.09
493.383	6242.72
493.587	6066.6
493.79	6302.11
493.994	6197.67
494.197	6234.53
494.401	6345.12
494.605	6271.39
494.808	6482.33
495.012	6371.74
495.215	6695.32
495.419	6599.07
495.622	6459.81
495.825	6775.19
496.029	6654.36
496.232	6801.82
496.436	6633.88
496.639	6926.74
496.843	6945.17
497.046	6963.61
497.249	7147.92
497.453	7248.27
497.656	7145.87
497.859	7182.74
498.063	7471.5
498.266	7338.38
498.469	7446.93
498.673	7360.91
498.876	7674.25
499.079	7602.57
499.282	7817.61
499.485	7985.54
499.689	7985.54
499.892	8280.45
500.095	8094.08
500.298	8382.85
500.501	8266.11
500.705	8507.77
500.908	8702.33
501.111	8747.39
501.314	8876.41
501.517	8755.58
501.72	9183.6
501.923	8948.09
502.126	9152.88
502.329	9326.96
502.532	9363.83
502.735	9429.36
502.938	9797.99
503.141	9587.05
503.344	9812.33
503.547	9918.82
503.75	10172.77
503.953	10281.32
504.156	10049.89
504.359	10492.26
504.562	10582.37
504.765	10854.75
504.968	10887.51
505.17	10891.61
505.373	10901.85
505.576	11018.58
505.779	11204.95
505.982	11342.16
506.185	11374.93
506.387	11614.54
506.59	11508.05
506.793	12185.93
506.996	11845.96
507.198	12339.52
507.401	12273.99
507.604	12456.26
507.807	12687.68
508.009	12849.47
508.212	12826.94
508.415	13232.44
508.617	13369.65
508.82	13381.94
509.022	13181.24
509.225	13613.36
509.428	13822.25
509.63	13945.13
509.833	14086.44
510.035	14211.37
510.238	14145.83
510.44	14522.66
510.643	14532.9
510.845	14870.81
511.048	14694.69
511.25	14901.53
511.453	15284.5
511.655	15851.79
511.858	15411.48
512.06	15698.19
512.262	15970.57
512.465	16040.2
512.667	16296.2
512.87	16245
513.072	16015.63
513.274	16697.6
513.477	16845.05
513.679	16978.17
513.881	17330.42
514.084	17406.2
514.286	17350.9
514.488	17754.35
514.69	18041.07
514.893	18176.23
515.095	18061.55
515.297	18399.46
515.499	18622.69
515.701	18868.45
515.904	18976.99
516.106	18985.18
516.308	19239.13
516.51	19429.59
516.712	19620.05
516.914	19843.28
517.116	20367.56
517.318	20332.75
517.52	20173
517.722	20426.95
517.925	20654.28
518.127	21194.94
518.329	21020.86
518.531	20996.29
518.733	21539
518.935	21672.12
519.136	21811.38
519.338	22122.67
519.54	22200.49
519.742	22507.69
519.944	22542.5
520.146	22851.75
520.348	23046.3
520.55	22802.6
520.752	23361.69
520.954	23566.49
521.155	23492.76
521.357	23687.32
521.559	24039.57
521.761	24078.48
521.963	24369.29
522.164	24649.86
522.366	24723.59
522.568	24576.14
522.77	25110.66
522.971	25337.98
523.173	25229.44
523.375	25270.4
523.576	25340.03
523.778	25790.58
523.98	25868.41
524.181	26015.86
524.383	26165.36
524.584	26353.77
524.786	26738.79
524.988	26558.57
525.189	26597.48
525.391	27062.37
525.592	27342.94
525.794	27271.26
525.995	27291.74
526.197	27256.93
526.398	27467.87
526.6	27658.33
526.801	27500.64
527.003	27809.88
527.204	27887.7
527.406	27899.99
527.607	28037.2
527.808	28262.48
528.01	27834.46
528.211	28328.02
528.412	28893.26
528.614	28198.99
528.815	28553.29
529.016	28762.19
529.218	28500.05
529.419	28547.15
529.62	28956.74
529.822	28917.83
530.023	29085.76
530.224	28909.64
530.425	29003.85
530.626	28975.17
530.828	28667.98
531.029	29265.99
531.23	28780.62
531.431	29321.28
531.632	29065.28
531.833	29282.37
532.035	29284.42
532.236	29638.72
532.437	29227.07
532.638	29548.61
532.839	29694.01
533.04	29747.26
533.241	29067.33
533.442	29972.53
533.643	29685.82
533.844	29620.28
534.045	29882.42
534.246	29454.4
534.447	29708.35
534.648	29560.89
534.849	29929.53
535.05	29362.24
535.251	29796.41
535.451	29409.34
535.652	29925.43
535.853	29679.68
536.054	30081.08
536.255	30165.04
536.456	29642.81
536.657	30009.4
536.857	29546.56
537.058	29761.59
537.259	29958.2
537.46	29716.54
537.66	29673.53
537.861	29851.7
538.062	29702.2
538.263	29878.33
538.463	29603.9
538.664	29708.35
538.865	29823.03
539.065	29896.76
539.266	29415.49
539.466	29886.52
539.667	29620.28
539.868	30058.55
540.068	29642.81
540.269	29669.44
540.469	29620.28
540.67	29636.67
540.87	29362.24
541.071	29675.58
541.271	29913.14
541.472	29741.11
541.672	29476.93
541.873	29085.76
542.073	29409.34
542.274	29806.65
542.474	29769.79
542.675	29593.66
542.875	30124.08
543.075	29716.54
543.276	29638.72
543.476	29999.16
543.676	29423.68
543.877	29573.18
544.077	29720.63
544.277	29286.47
544.478	29274.18
544.678	30001.21
544.878	29714.49
545.078	29466.69
545.279	29251.65
545.479	29329.47
545.679	29651
545.879	29620.28
546.079	29560.89
546.28	29728.83
546.48	29292.61
546.68	29618.24
546.88	29435.97
547.08	29419.58
547.28	29579.32
547.48	28883.02
547.68	29460.54
547.88	29392.96
548.081	29558.84
548.281	29372.48
548.481	29405.25
548.681	29472.83
548.881	29587.52
549.081	29143.11
549.28	29173.83
549.48	29231.17
549.68	29306.94
549.88	29634.62
550.08	28985.41
550.28	29646.91
550.48	29399.1
550.68	29784.12
550.88	29239.36
551.08	29192.26
551.279	28872.78
551.479	28858.44
551.679	29487.17
551.879	29202.5
552.079	29513.79
552.278	29255.75
552.478	29245.51
552.678	29354.05
552.878	29370.43
553.077	28840.01
553.277	28770.38
553.477	29618.24
553.676	29022.28
553.876	29122.63
554.076	28809.29
554.275	29077.57
554.475	28874.82
554.674	29132.87
554.874	29366.34
555.074	28966.98
555.273	29257.79
555.473	29005.89
555.672	28936.26
555.872	28549.2
556.071	28760.14
556.271	28930.12
556.47	28758.09
556.67	28510.28
556.869	28549.2
557.068	28678.22
557.268	28739.66
557.467	28702.79
557.667	28831.82
557.866	28432.46
558.065	28608.59
558.265	28608.59
558.464	28328.02
558.663	28862.54
558.863	28151.89
559.062	28670.03
559.261	28278.86
559.461	28479.57
559.66	28254.29
559.859	28448.85
560.058	28137.55
560.258	28528.72
560.457	27992.15
560.656	28135.51
560.855	28233.81
561.054	28235.86
561.253	27633.75
561.453	28145.75
561.652	28248.14
561.851	27801.69
562.05	28166.23
562.249	27807.83
562.448	27943
562.647	27617.37
562.846	27910.23
563.045	27521.12
563.244	27474.01
563.443	27816.02
563.642	27396.19
563.841	27115.62
564.04	27308.13
564.239	27850.84
564.438	27242.59
564.637	27562.08
564.836	27138.15
565.035	26878.05
565.234	27086.95
565.432	27123.81
565.631	27054.18
565.83	27138.15
566.029	26808.42
566.228	26703.98
566.427	26830.95
566.625	26835.05
566.824	26593.39
567.023	27086.95
567.222	26249.33
567.42	26550.38
567.619	26771.56
567.818	26562.67
568.016	26511.47
568.215	26503.28
568.414	26425.45
568.612	26746.98
568.811	26069.11
569.01	26179.7
569.208	25720.95
569.407	26265.71
569.605	25843.83
569.804	26009.72
570.002	25829.49
570.201	25948.28
570.4	25757.81
570.598	25520.25
570.797	25671.8
570.995	25600.12
571.193	25362.56
571.392	25632.89
571.59	25460.86
571.789	25325.69
571.987	25512.06
572.186	25286.78
572.384	25092.23
572.582	25190.53
572.781	25118.85
572.979	25049.22
573.177	25311.36
573.376	24955.01
573.574	24918.15
573.772	25002.11
573.971	24610.95
574.169	24563.85
574.367	24602.76
574.565	24496.27
574.763	24432.78
574.962	24576.14
575.16	24250.51
575.358	24293.52
575.556	24129.68
575.754	24477.83
575.952	23922.83
576.151	24207.5
576.349	23865.49
576.547	24029.33
576.745	23982.23
576.943	24014.99
577.141	23746.71
577.339	23906.45
577.537	23826.58
577.735	23656.6
577.933	23435.42
578.131	23601.3
578.329	23335.07
578.527	23072.93
578.725	23292.06
578.923	23312.54
579.121	23154.85
579.319	22964.39
579.516	23247.01
579.714	22706.34
579.912	23025.82
580.11	22786.21
580.308	23003.3
580.506	22933.67
580.704	22358.19
580.901	22692.01
581.099	22665.38
581.297	22605.99
581.495	22620.33
581.692	22704.29
581.89	22141.1
582.088	22323.37
582.285	22440.11
582.483	22565.03
582.681	22083.76
582.878	22106.29
583.076	22153.39
583.274	22171.82
583.471	21897.39
583.669	22022.32
583.866	21625.01
584.064	21919.92
584.262	21493.94
584.459	21651.64
584.657	21424.31
584.854	21770.42
585.052	21276.86
585.249	21278.91
585.447	21360.83
585.644	21113.02
585.841	20920.51
586.039	21194.94
586.236	21082.3
586.434	21057.73
586.631	20961.47
586.828	20902.08
587.026	20836.55
587.223	20781.25
587.42	20707.52
587.618	20984
587.815	20271.31
588.012	20500.68
588.21	20373.71
588.407	20637.89
588.604	20283.59
588.801	20406.47
588.999	20314.31
589.196	20011.21
589.393	19982.54
589.59	20136.14
589.787	19957.97
589.984	19824.85
590.182	19980.5
590.379	20220.11
590.576	19656.92
590.773	19849.43
590.97	19527.89
591.167	19867.86
591.364	19417.3
591.561	19675.35
591.758	19622.1
591.955	19146.97
592.152	19615.96
592.349	19255.51
592.546	19245.27
592.743	19134.68
592.94	18927.84
593.137	18915.55
593.334	19247.32
593.531	18534.63
593.727	18923.74
593.924	18864.35
594.121	18841.82
594.318	18733.28
594.515	18600.16
594.712	18833.63
594.908	18510.05
595.105	18913.5
595.302	18477.29
595.499	18419.94
595.696	18360.55
595.892	18460.9
596.089	18368.74
596.286	18276.59
596.482	18174.19
596.679	18458.85
596.876	18493.67
597.072	18202.86
597.269	18260.2
597.466	17893.61
597.662	17838.32
597.859	17963.25
598.055	17993.97
598.252	17486.07
598.448	18010.35
598.645	17658.1
598.841	17453.3
599.038	17254.65
599.234	17481.97
599.431	17287.42
599.627	17578.23
599.824	17406.2
600.02	17051.9
600.217	17441.01
600.413	17002.75
600.609	16922.88
600.806	17062.14
601.002	17107.19
601.198	16953.6
601.395	17047.8
601.591	16894.21
601.787	16658.69
601.984	16800
602.18	16742.66
602.376	16584.96
602.572	16576.77
602.769	16353.54
602.965	16206.09
603.161	16527.62
603.357	16492.8
603.553	16220.42
603.75	16335.11
603.946	16279.82
604.142	16185.61
604.338	16093.45
604.534	16265.48
604.73	16062.73
604.926	16181.51
605.122	16234.76
605.318	15974.67
605.514	15786.26
605.71	15806.73
605.906	15669.52
606.102	15735.06
606.298	15679.76
606.494	15724.82
606.69	15722.77
606.886	15827.21
607.082	15380.76
607.278	15778.06
607.474	15249.69
607.67	15462.68
607.866	15171.86
608.062	15401.24
608.257	15358.23
608.453	15032.6
608.649	15188.25
608.845	14928.16
609.041	15034.65
609.236	14991.64
609.432	14995.74
609.628	15036.7
609.824	14881.05
610.019	14885.15
610.215	14860.57
610.411	15073.56
610.606	14647.58
610.802	14897.44
610.998	14985.5
611.193	14866.72
611.389	14561.57
611.584	14610.72
611.78	14561.57
611.976	14737.7
612.171	14524.71
612.367	14704.93
612.562	14571.81
612.758	14512.42
612.953	14364.96
613.149	14567.71
613.344	14225.7
613.539	14381.35
613.735	14414.12
613.93	14235.94
614.126	14217.51
614.321	14309.67
614.517	14094.63
614.712	14231.85
614.907	13979.95
615.103	14178.6
615.298	14211.37
615.493	14137.64
615.688	13979.95
615.884	14254.37
616.079	13955.37
616.274	13984.04
616.47	13867.31
616.665	14342.44
616.86	13623.6
617.055	13820.21
617.25	13924.65
617.445	13674.8
617.641	13279.54
617.836	13752.62
618.031	13521.2
618.226	13617.46
618.421	13685.04
618.616	13746.48
618.811	13211.96
619.006	13646.13
619.201	13087.03
619.396	13316.4
619.591	13076.79
619.786	13357.36
619.981	13246.77
620.176	13146.42
620.371	13007.16
620.566	13105.46
620.761	13011.26
620.956	13115.7
621.151	12863.8
621.346	13001.02
621.541	12499.27
621.735	12890.43
621.93	12595.52
622.125	12638.53
622.32	12294.47
622.515	12622.14
622.709	12222.79
622.904	12169.54
623.099	12210.5
623.294	12194.12
623.488	12110.15
623.683	12063.05
623.878	11925.83
624.072	12001.61
624.267	11805
624.462	11821.39
624.656	11854.16
624.851	11520.34
625.046	11620.69
625.24	11422.03
625.435	11551.06
625.629	11462.99
625.824	11225.43
626.018	11336.02
626.213	11266.39
626.407	11145.56
626.602	10973.53
626.796	11006.3
626.991	11053.4
627.185	10744.16
627.38	10772.83
627.574	10803.55
627.768	10637.66
627.963	10666.33
628.157	10598.75
628.352	10662.24
628.546	10350.95
628.74	10447.2
628.935	10508.64
629.129	10352.99
629.323	10203.49
629.517	10183.01
629.712	10254.69
629.906	10189.16
630.1	9949.54
630.294	10017.13
630.489	9793.9
630.683	10152.29
630.877	9863.53
631.071	9867.63
631.265	9730.41
631.459	9605.49
631.653	9875.82
631.848	9695.6
632.042	9509.23
632.236	9542
632.43	9271.67
632.624	9429.36
632.818	9236.85
633.012	9302.39
633.206	9288.05
633.4	9480.56
633.594	9197.94
633.788	9294.19
633.982	9263.47
634.176	9128.31
634.369	9023.86
634.563	9054.58
634.757	9050.49
634.951	8673.66
635.145	8982.9
635.339	8907.13
635.533	8583.55
635.726	8737.15
635.92	8573.31
636.114	8698.24
636.308	8614.27
636.501	8573.31
636.695	8464.77
636.889	8370.56
637.083	8475.01
637.276	8286.59
637.47	8219.01
637.664	8352.13
637.857	8280.45
638.051	8345.98
638.244	8237.44
638.438	8049.03
638.632	8063.36
638.825	8003.97
639.019	7905.67
639.212	7946.63
639.406	8036.74
639.599	7848.33
639.793	7803.27
639.986	7584.14
640.18	7637.39
640.373	7547.28
640.567	7528.85
640.76	7596.43
640.954	7383.44
641.147	7420.3
641.34	7328.14
641.534	7444.88
641.727	7215.51
641.92	7186.83
642.114	7207.31
642.307	7362.96
642.5	6992.28
642.694	7043.48
642.887	7145.87
643.08	7117.2
643.273	7029.14
643.467	6967.7
643.66	6889.88
643.853	6867.35
644.046	6846.87
644.239	6744.47
644.432	6955.41
644.626	6652.31
644.819	6762.9
645.012	6578.59
645.205	6666.65
645.398	6611.36
645.591	6537.63
645.784	6298.02
645.977	6490.52
646.17	6465.95
646.363	6437.28
646.556	6365.6
646.749	6275.49
646.942	6373.79
647.135	6222.24
647.328	6263.2
647.521	6087.08
647.714	5861.8
647.907	6097.31
648.099	6017.44
648.292	6107.55
648.485	6009.25
648.678	6050.21
648.871	5923.24
649.064	5833.13
649.256	6058.4
649.449	5851.56
649.642	5810.6
649.835	5734.82
650.027	5624.23
650.22	5657
650.413	5718.44
650.605	5726.63
650.798	5532.08
650.991	5513.64
651.183	5562.8
651.376	5503.4
651.568	5566.89
651.761	5390.77
651.954	5474.73
652.146	5292.46
652.339	5392.81
652.531	5271.98
652.724	5233.07
652.916	5069.23
653.109	5179.82
653.301	5194.16
653.494	5216.69
653.686	5044.66
653.879	5265.84
654.071	5112.24
654.263	4972.98
654.456	5046.71
654.648	5052.85
654.84	5046.71
655.033	5050.8
655.225	5018.04
655.417	5036.47
655.61	4878.77
655.802	4884.92
655.994	4667.83
656.186	4796.85
656.379	4788.66
656.571	4766.14
656.763	4659.64
656.955	4516.28
657.148	4723.13
657.34	4735.42
657.532	4594.11
657.724	4684.22
657.916	4706.74
658.108	4559.29
658.3	4477.37
658.492	4592.06
658.684	4473.28
658.876	4354.49
659.068	4352.45
659.26	4383.17
659.452	4458.94
659.644	4374.97
659.836	4194.75
660.028	4377.02
660.22	4307.39
660.412	4184.51
660.604	4166.08
660.796	4211.14
660.988	4245.95
661.18	4135.36
661.372	4172.22
661.563	4143.55
661.755	3893.7
661.947	4075.97
662.139	4282.81
662.331	4024.77
662.522	3795.4
662.714	3916.23
662.906	4069.83
663.097	3928.52
663.289	3895.75
663.481	3805.64
663.673	3725.77
663.864	3776.97
664.056	3811.78
664.247	3799.49
664.439	3668.42
664.631	3862.98
664.822	3660.23
665.014	3672.52
665.205	3670.47
665.397	3701.19
665.588	3768.77
665.78	3707.34
665.971	3594.7
666.163	3584.46
666.354	3543.5
666.546	3541.45
666.737	3652.04
666.929	3486.15
667.12	3502.54
667.311	3500.49
667.503	3338.7
667.694	3414.48
667.885	3502.54
668.077	3348.94
668.268	3477.96
668.459	3387.85
668.651	3367.37
668.842	3406.28
669.033	3258.83
669.224	3340.75
669.416	3271.12
669.607	3348.94
669.798	3242.45
669.989	3332.56
670.18	3213.77
670.371	3146.19
670.563	3070.42
670.754	3160.53
670.945	3195.34
671.136	3199.44
671.327	3064.27
671.518	3125.71
671.709	3094.99
671.9	3162.58
672.091	3056.08
672.282	3000.79
672.473	3025.36
672.664	3109.33
672.855	3021.27
673.046	3037.65
673.237	3056.08
673.428	3084.75
673.619	2927.06
673.809	2884.05
674	2875.86
674.191	2986.45
674.382	3031.51
674.573	2943.44
674.764	2859.48
674.954	2941.4
675.145	2849.24
675.336	2877.91
675.527	2873.81
675.717	2861.52
675.908	2841.04
676.099	2861.52
676.289	2841.04
676.48	2877.91
676.671	2914.77
676.861	2769.37
677.052	2877.91
677.243	2740.69
677.433	2755.03
677.624	2839
677.814	2707.93
678.005	2820.56
678.195	2769.37
678.386	2699.73
678.576	2595.29
678.767	2724.31
678.957	2781.65
679.148	2730.45
679.338	2777.56
679.529	2724.31
679.719	2693.59
679.909	2671.06
680.1	2611.67
680.29	2681.3
680.481	2705.88
680.671	2662.87
680.861	2695.64
681.052	2591.19
681.242	2623.96
681.432	2679.26
681.622	2554.33
681.813	2529.75
682.003	2677.21
682.193	2628.06
682.383	2611.67
682.573	2517.47
682.764	2464.22
682.954	2605.53
683.144	2578.9
683.334	2597.34
683.524	2552.28
683.714	2552.28
683.904	2523.61
684.094	2546.14
684.284	2572.76
684.474	2558.42
684.664	2480.6
684.854	2445.79
685.044	2611.67
685.234	2472.41
685.424	2531.8
685.614	2492.89
685.804	2456.03
685.994	2415.07
686.184	2486.75
686.374	2488.79
686.564	2580.95
686.753	2482.65
686.943	2462.17
687.133	2527.71
687.323	2433.5
687.513	2384.35
687.702	2501.08
687.892	2480.6
688.082	2388.44
688.272	2511.32
688.461	2464.22
688.651	2400.73
688.841	2456.03
689.03	2404.83
689.22	2357.72
689.41	2492.89
689.599	2437.59
689.789	2458.07
689.979	2288.09
690.168	2351.58
690.358	2374.11
690.547	2251.23
690.737	2425.31
690.926	2380.25
691.116	2193.89
691.305	2327
691.495	2331.1
691.684	2337.24
691.874	2339.29
692.063	2435.55
692.252	2304.48
692.442	2267.61
692.631	2228.7
692.82	2294.24
693.01	2163.17
693.199	2189.79
693.388	2284
693.578	2312.67
693.767	2275.81
693.956	2214.37
694.146	2202.08
694.335	2245.09
694.524	2128.35
694.713	2329.05
694.902	2236.89
695.092	2136.54
695.281	2271.71
695.47	2187.74
695.659	2257.37
695.848	2148.83
696.037	2226.65
696.226	2218.46
696.415	2200.03
696.604	2159.07
696.793	2167.26
696.982	2177.5
697.171	2220.51
697.36	2066.91
697.549	2091.49
697.738	2109.92
697.927	2318.81
698.116	2202.08
698.305	2140.64
698.494	2185.69
698.683	2138.59
698.872	2212.32
699.061	2150.88
699.25	2169.31
699.438	2032.1
699.627	2077.15
699.816	2073.06
700.005	1999.33
700.193	2152.93
700.382	2068.96
700.571	2122.21
700.76	2097.63
700.948	2056.67
701.137	2083.3
701.326	1982.95
701.514	2159.07
701.703	2034.14
701.892	1960.42
702.08	2109.92
702.269	2060.77
702.457	2052.58
702.646	1939.94
702.834	1997.28
703.023	1980.9
703.212	1989.09
703.4	2066.91
703.589	1984.99
703.777	1970.66
703.965	1915.36
704.154	1901.03
704.342	1841.64
704.531	2015.71
704.719	1966.56
704.907	1905.12
705.096	1884.64
705.284	1952.23
705.472	1776.1
705.661	1909.22
705.849	1929.7
706.037	1896.93
706.226	1944.03
706.414	1862.12
706.602	1954.27
706.79	1855.97
706.979	1812.96
707.167	1839.59
707.355	1849.83
707.543	1925.6
707.731	1870.31
707.919	1882.6
708.107	1810.92
708.296	1827.3
708.484	1970.66
708.672	1864.16
708.86	1849.83
709.048	1868.26
709.236	1896.93
709.424	1853.92
709.612	1853.92
709.8	1794.53
709.988	1862.12
710.176	1923.55
710.364	1786.34
710.551	1872.36
710.739	1806.82
710.927	1880.55
711.115	1802.72
711.303	1780.2
711.491	1802.72
711.679	1847.78
711.866	1694.18
712.054	1808.87
712.242	1774.05
712.43	1858.02
712.617	1741.29
712.805	1778.15
712.993	1671.65
713.181	1669.61
713.368	1833.44
713.556	1794.53
713.744	1724.9
713.931	1753.57
714.119	1694.18
714.306	1769.96
714.494	1819.11
714.682	1749.48
714.869	1718.76
715.057	1716.71
715.244	1702.37
715.432	1751.53
715.619	1696.23
715.807	1665.51
715.994	1616.36
716.182	1685.99
716.369	1685.99
716.556	1696.23
716.744	1655.27
716.931	1669.61
717.119	1604.07
717.306	1692.13
717.493	1667.56
717.681	1653.22
717.868	1630.7
718.055	1663.46
718.242	1651.17
718.43	1667.56
718.617	1685.99
718.804	1690.09
718.991	1642.98
719.179	1681.89
719.366	1653.22
719.553	1630.7
719.74	1610.22
719.927	1526.25
720.114	1597.93
720.301	1479.15
720.488	1552.87
720.676	1593.83
720.863	1579.5
721.05	1737.19
721.237	1563.11
721.424	1518.06
721.611	1563.11
721.798	1595.88
721.985	1536.49
722.172	1556.97
722.358	1556.97
722.545	1522.15
722.732	1520.1
722.919	1548.78
723.106	1528.3
723.293	1503.72
723.48	1505.77
723.667	1536.49
723.853	1587.69
724.04	1528.3
724.227	1491.43
724.414	1505.77
724.6	1452.52
724.787	1454.57
724.974	1507.82
725.161	1518.06
725.347	1563.11
725.534	1454.57
725.72	1509.86
725.907	1597.93
726.094	1419.75
726.28	1415.66
726.467	1571.3
726.653	1481.19
726.84	1536.49
727.027	1563.11
727.213	1434.09
727.4	1452.52
727.586	1452.52
727.773	1417.71
727.959	1479.15
728.145	1585.64
728.332	1513.96
728.518	1442.28
728.705	1640.93
728.891	1505.77
729.077	1520.1
729.264	1561.06
729.45	1509.86
729.636	1393.13
729.823	1429.99
730.009	1522.15
730.195	1417.71
730.382	1364.46
730.568	1462.76
730.754	1368.56
730.94	1403.37
731.126	1495.53
731.313	1511.91
731.499	1368.56
731.685	1417.71
731.871	1407.47
732.057	1438.19
732.243	1370.6
732.429	1409.51
732.615	1473
732.801	1458.67
732.987	1503.72
733.173	1442.28
733.359	1395.18
733.545	1386.99
733.731	1368.56
733.917	1370.6
734.103	1372.65
734.289	1329.64
734.475	1413.61
734.661	1458.67
734.847	1405.42
735.033	1419.75
735.219	1360.36
735.404	1378.79
735.59	1346.03
735.776	1382.89
735.962	1372.65
736.148	1303.02
736.333	1436.14
736.519	1352.17
736.705	1432.04
736.89	1307.12
737.076	1372.65
737.262	1399.27
737.447	1386.99
737.633	1325.55
737.819	1290.73
738.004	1303.02
738.19	1374.7
738.375	1288.68
738.561	1313.26
738.747	1376.75
738.932	1307.12
739.118	1337.84
739.303	1384.94
739.489	1331.69
739.674	1315.31
739.859	1298.92
740.045	1288.68
740.23	1311.21
740.416	1255.92
740.601	1380.84
740.786	1337.84
740.972	1223.15
741.157	1288.68
741.342	1405.42
741.528	1368.56
741.713	1274.35
741.898	1182.19
742.084	1276.4
742.269	1272.3
742.454	1276.4
742.639	1274.35
742.824	1249.77
743.01	1233.39
743.195	1278.44
743.38	1241.58
743.565	1260.01
743.75	1208.81
743.935	1280.49
744.12	1219.05
744.305	1231.34
744.49	1171.95
744.675	1171.95
744.86	1149.42
745.045	1237.49
745.23	1171.95
745.415	1171.95
745.6	1163.76
745.785	1102.32
745.97	1229.29
746.155	1171.95
746.34	1145.33
746.525	1196.53
746.71	1145.33
746.895	1044.98
747.079	1098.22
747.264	1210.86
747.449	1092.08
747.634	1112.56
747.819	1139.18
748.003	1057.26
748.188	991.73
748.373	1155.57
748.557	1098.22
748.742	1087.98
748.927	1053.17
749.111	1006.06
749.296	1094.13
749.481	1057.26
749.665	1012.21
749.85	1071.6
750.034	1079.79
750.219	983.54
750.404	907.76
750.588	1047.02
750.773	944.63
750.957	1075.7
751.141	1073.65
751.326	981.49
751.51	942.58
751.695	881.14
751.879	1008.11
752.064	973.3
752.248	999.92
752.432	991.73
752.617	1008.11
752.801	950.77
752.985	905.71
753.17	831.99
753.354	971.25
753.538	889.33
753.722	891.38
753.907	940.53
754.091	1006.06
754.275	903.67
754.459	819.7
754.643	856.56
754.828	879.09
755.012	913.91
755.196	866.8
755.38	958.96
755.564	842.23
755.748	817.65
755.932	836.08
756.116	825.84
756.3	864.75
756.484	848.37
756.668	758.26
756.852	862.71
757.036	797.17
757.22	868.85
757.404	877.04
757.588	782.84
757.772	758.26
757.956	776.69
758.14	772.6
758.323	764.4
758.507	762.36
758.691	676.34
758.875	741.88
759.059	788.98
759.242	823.8
759.426	750.07
759.61	727.54
759.794	690.68
759.977	788.98
760.161	643.57
760.345	711.16
760.528	686.58
760.712	723.44
760.895	809.46
761.079	655.86
761.263	745.97
761.446	731.64
761.63	700.92
761.813	651.77
761.997	670.2
762.18	655.86
762.364	700.92
762.547	639.48
762.731	678.39
762.914	635.38
763.098	635.38
763.281	692.73
763.464	686.58
763.648	612.85
763.831	694.77
764.015	649.72
764.198	721.4
764.381	653.81
764.564	713.21
764.748	696.82
764.931	610.81
765.114	600.57
765.297	602.61
765.481	651.77
765.664	657.91
765.847	616.95
766.03	688.63
766.213	653.81
766.397	688.63
766.58	580.09
766.763	629.24
766.946	604.66
767.129	586.23
767.312	616.95
767.495	563.7
767.678	635.38
767.861	573.94
768.044	565.75
768.227	539.13
768.41	582.14
768.593	600.57
768.776	492.02
768.959	557.56
769.142	590.33
769.324	598.52
769.507	647.67
769.69	590.33
769.873	528.89
770.056	580.09
770.239	487.93
770.421	619
770.604	492.02
770.787	532.98
770.97	516.6
771.152	647.67
771.335	526.84
771.518	510.46
771.7	606.71
771.883	627.19
772.066	514.55
772.248	506.36
772.431	555.51
772.613	584.18
772.796	487.93
772.978	463.35
773.161	547.32
773.343	520.7
773.526	483.83
773.708	475.64
773.891	535.03
774.073	623.09
774.256	496.12
774.438	455.16
774.621	461.3
774.803	553.46
774.985	496.12
775.168	434.68
775.35	494.07
775.532	532.98
775.715	406.01
775.897	492.02
776.079	381.43
776.261	446.97
776.444	580.09
776.626	430.59
776.808	408.06
776.99	440.83
777.173	424.44
777.355	416.25
777.537	414.2
777.719	414.2
777.901	473.59
778.083	451.07
778.265	453.11
778.447	518.65
778.629	320
778.811	494.07
778.993	393.72
779.175	426.49
779.357	463.35
779.539	455.16
779.721	373.24
779.903	438.78
780.085	363
780.267	397.82
780.449	365.05
780.631	442.87
780.812	344.57
780.994	367.1
781.176	350.71
781.358	317.95
781.54	365.05
781.721	393.72
781.903	358.91
782.085	332.28
782.267	369.15
782.448	381.43
782.63	383.48
782.812	391.67
782.993	391.67
783.175	420.35
783.357	369.15
783.538	358.91
783.72	266.75
783.901	295.42
784.083	367.1
784.264	254.46
784.446	262.65
784.627	283.13
784.809	336.38
784.99	344.57
785.172	293.37
785.353	311.8
785.535	363
785.716	301.56
785.897	317.95
786.079	328.19
786.26	295.42
786.441	328.19
786.623	276.99
786.804	348.67
786.985	322.04
787.167	262.65
787.348	197.12
787.529	240.12
787.71	344.57
787.891	326.14
788.073	268.8
788.254	254.46
788.435	338.43
788.616	311.8
788.797	285.18
788.978	258.56
789.159	252.41
789.34	279.04
789.522	264.7
789.703	225.79
789.884	264.7
790.065	205.31
790.246	233.98
790.427	236.03
790.607	262.65
790.788	283.13
790.969	254.46
791.15	260.6
791.331	246.27
791.512	252.41
791.693	209.4
791.874	219.64
792.054	262.65
792.235	238.08
792.416	242.17
792.597	201.21
792.778	266.75
792.958	217.6
793.139	246.27
793.32	215.55
793.5	229.88
793.681	233.98
793.862	246.27
794.042	195.07
794.223	227.84
794.404	170.49
794.584	180.73
794.765	166.4
794.945	176.64
795.126	203.26
795.306	225.79
795.487	154.11
795.667	190.97
795.848	219.64
796.028	229.88
796.209	176.64
796.389	193.02
796.57	150.01
796.75	147.97
796.93	168.45
797.111	154.11
797.291	205.31
797.471	174.59
797.652	227.84
797.832	248.32
798.012	168.45
798.192	145.92
798.373	160.25
798.553	209.4
798.733	129.53
798.913	209.4
799.093	195.07
799.274	160.25
799.454	231.93
799.634	195.07
799.814	147.97
799.994	184.83
800.174	166.4
800.354	178.69
800.534	178.69
800.714	176.64
800.894	178.69
801.074	127.49
801.254	154.11
801.434	154.11
801.614	221.69
801.794	211.45
801.974	406.01
802.154	115.2
802.334	170.49
802.514	129.53
802.693	193.02
802.873	96.77
803.053	174.59
803.233	152.06
803.413	131.58
803.592	129.53
803.772	178.69
803.952	135.68
804.131	131.58
804.311	113.15
804.491	186.88
804.67	115.2
804.85	102.91
805.03	164.35
805.209	203.26
805.389	131.58
805.568	139.77
805.748	100.86
805.928	135.68
806.107	217.6
806.287	135.68
806.466	127.49
806.646	139.77
806.825	59.9
807.004	96.77
807.184	117.25
807.363	180.73
807.543	117.25
807.722	119.29
807.901	162.3
808.081	150.01
808.26	57.86
808.439	107.01
808.619	104.96
808.798	172.54
808.977	78.33
809.156	205.31
809.336	145.92
809.515	145.92
809.694	100.86
809.873	61.95
810.052	137.73
810.231	168.45
810.411	139.77
810.59	117.25
810.769	111.1
810.948	197.12
811.127	131.58
811.306	102.91
811.485	125.44
811.664	162.3
811.843	102.91
812.022	160.25
812.201	125.44
812.38	113.15
812.559	147.97
812.737	129.53
812.916	152.06
813.095	98.81
813.274	82.43
813.453	121.34
813.632	84.48
813.811	107.01
813.989	133.63
814.168	88.57
814.347	53.76
814.526	125.44
814.704	102.91
814.883	104.96
815.062	51.71
815.24	188.93
815.419	119.29
815.598	168.45
815.776	94.72
815.955	188.93
816.133	176.64
816.312	119.29
816.49	82.43
816.669	135.68
816.847	107.01
817.026	139.77
817.204	150.01
817.383	162.3
817.561	55.81
817.74	76.29
817.918	174.59
818.097	100.86
818.275	100.86
818.453	82.43
818.632	59.9
818.81	147.97
818.988	86.53
819.167	150.01
819.345	162.3
819.523	137.73
819.701	131.58
819.879	74.24
820.058	82.43
820.236	98.81
820.414	123.39
820.592	137.73
820.77	104.96
820.948	102.91
821.127	88.57
821.305	143.87
821.483	41.47
821.661	152.06
821.839	86.53
822.017	96.77
822.195	45.57
822.373	98.81
822.551	90.62
822.729	127.49
822.907	55.81
823.085	64
823.262	131.58
823.44	53.76
823.618	70.14
823.796	74.24
823.974	49.66
824.152	104.96
824.329	49.66
824.507	98.81
824.685	131.58
824.863	59.9
825.04	4.61
825.218	180.73
825.396	10.75
825.574	92.67
825.751	14.85
825.929	109.05
826.107	35.33
826.284	104.96
826.462	107.01
826.639	53.76
826.817	39.42
826.994	37.38
827.172	113.15
827.349	66.05
827.527	78.33
827.704	96.77
827.882	80.38
828.059	82.43
828.237	47.62
828.414	72.19
828.591	100.86
828.769	88.57
828.946	88.57
829.124	96.77
829.301	66.05
829.478	107.01
829.655	57.86
829.833	51.71
830.01	68.09
830.187	107.01
830.364	66.05
830.542	55.81
830.719	8.7
830.896	137.73
831.073	16.9
831.25	47.62
831.427	80.38
831.604	-7.68
831.782	33.28
831.959	82.43
832.136	41.47
832.313	104.96
832.49	78.33
832.667	14.85
832.844	70.14
833.021	92.67
833.198	90.62
833.374	68.09
833.551	82.43
833.728	90.62
833.905	33.28
834.082	2.56
834.259	29.18
834.436	104.96
834.612	16.9
834.789	49.66
834.966	68.09
835.143	12.8
835.319	57.86
835.496	94.72
835.673	80.38
835.85	31.23
836.026	82.43
836.203	131.58
836.38	-9.73
836.556	72.19
836.733	72.19
836.909	102.91
837.086	-7.68
837.262	82.43
837.439	20.99
837.616	72.19
837.792	117.25
837.968	43.52
838.145	-26.11
838.321	123.39
838.498	64
838.674	102.91
838.851	107.01
839.027	6.66
839.203	45.57
839.38	45.57
839.556	68.09
839.732	59.9
839.909	12.8
840.085	-3.58
840.261	72.19
840.437	35.33
840.614	84.48
840.79	115.2
840.966	70.14
841.142	37.38
841.318	51.71
841.494	61.95
841.671	47.62
841.847	76.29
842.023	45.57
842.199	59.9
842.375	55.81
842.551	33.28
842.727	6.66
842.903	107.01
843.079	102.91
843.255	37.38
843.431	43.52
843.607	-13.82
843.783	0.51
843.959	12.8
844.134	-26.11
844.31	160.25
844.486	0.51
844.662	70.14
844.838	31.23
845.013	49.66
845.189	20.99
845.365	-19.97
845.541	39.42
845.716	20.99
845.892	49.66
846.068	98.81
846.244	64
846.419	59.9
846.595	33.28
846.77	78.33
846.946	-32.26
847.122	66.05
847.297	94.72
847.473	127.49
847.648	-15.87
847.824	23.04
847.999	33.28
848.175	125.44
848.35	16.9
848.526	129.53
848.701	49.66
848.876	39.42
849.052	76.29
849.227	96.77
849.403	31.23
849.578	47.62
849.753	55.81
849.929	2.56
850.104	98.81
850.279	14.85
850.454	49.66
850.63	41.47
850.805	74.24
850.98	88.57
851.155	-1.54
851.33	64
851.505	64
851.681	109.05
851.856	39.42
852.031	57.86
852.206	84.48
852.381	-52.74
852.556	18.94
852.731	55.81
852.906	29.18
853.081	113.15
853.256	98.81
853.431	18.94
853.606	49.66
853.781	-17.92
853.956	29.18
854.131	64
854.305	80.38
854.48	115.2
854.655	37.38
854.83	53.76
855.005	29.18
855.18	86.53
855.354	12.8
855.529	-26.11
855.704	23.04
855.879	107.01
856.053	27.14
856.228	88.57
856.403	31.23
856.577	39.42
856.752	-17.92
856.926	86.53
857.101	78.33
857.276	78.33
857.45	29.18
857.625	45.57
857.799	-7.68
857.974	45.57
858.148	18.94
858.323	49.66
858.497	70.14
858.672	33.28
858.846	27.14
859.02	43.52
859.195	76.29
859.369	94.72
859.543	68.09
859.718	33.28
859.892	23.04
860.066	25.09
860.241	6.66
860.415	31.23
860.589	10.75
860.763	29.18
860.938	117.25
861.112	76.29
861.286	16.9
861.46	92.67
861.634	66.05
861.808	55.81
861.982	66.05
862.157	88.57
862.331	-13.82
862.505	39.42
862.679	25.09
862.853	8.7
863.027	14.85
863.201	119.29
863.375	53.76
863.549	41.47
863.722	31.23
863.896	14.85
864.07	-7.68
864.244	2.56
864.418	49.66
864.592	88.57
864.766	-22.02
864.939	-19.97
865.113	-11.78
865.287	64
865.461	20.99
865.634	57.86
865.808	10.75
865.982	4.61
866.156	2.56
866.329	55.81
866.503	-7.68
866.676	20.99
866.85	23.04
867.024	8.7
867.197	86.53
867.371	88.57
867.544	41.47
867.718	47.62
867.891	33.28
868.065	33.28
868.238	45.57
868.412	61.95
868.585	31.23
868.759	109.05
868.932	8.7
869.105	29.18
869.279	70.14
869.452	-9.73
869.625	61.95
869.799	12.8
869.972	31.23
870.145	-9.73
870.319	82.43
870.492	41.47
870.665	-9.73
870.838	45.57
871.011	57.86
871.185	51.71
871.358	49.66
871.531	64
871.704	-99.84
871.877	76.29
872.05	16.9
872.223	14.85
872.396	115.2
872.569	45.57
872.742	-42.5
872.915	66.05
873.088	41.47
873.261	37.38
873.434	2.56
873.607	10.75
873.78	6.66
873.953	2.56
874.126	-17.92
874.299	47.62
874.471	31.23
874.644	100.86
874.817	-24.06
874.99	-5.63
875.163	51.71
875.335	53.76
875.508	33.28
875.681	74.24
875.853	94.72
876.026	4.61
876.199	12.8
876.371	-9.73
876.544	-7.68
876.717	70.14
876.889	6.66
877.062	25.09
877.234	6.66
877.407	47.62
877.579	70.14
877.752	-9.73
877.924	14.85
878.097	25.09
878.269	6.66
878.442	6.66
878.614	-7.68
878.786	64
878.959	4.61
879.131	-24.06
879.303	-17.92
879.476	31.23
879.648	25.09
879.82	23.04
879.993	55.81
880.165	66.05
880.337	12.8
880.509	66.05
880.681	68.09
880.854	-13.82
881.026	8.7
881.198	72.19
881.37	16.9
881.542	4.61
881.714	-42.5
881.886	-26.11
882.058	49.66
882.23	49.66
882.402	-87.55
882.574	37.38
882.746	-46.59
882.918	88.57
883.09	70.14
883.262	43.52
883.434	33.28
883.606	37.38
883.778	43.52
883.95	78.33
884.122	-17.92
884.293	0.51
884.465	16.9
884.637	51.71
884.809	-1.54
884.98	43.52
885.152	12.8
885.324	55.81
885.496	98.81
885.667	70.14
885.839	39.42
886.011	78.33
886.182	10.75
886.354	64
886.525	45.57
886.697	-13.82
886.869	68.09
887.04	-44.54
887.212	57.86
887.383	88.57
887.555	-13.82
887.726	-17.92
887.897	29.18
888.069	29.18
888.24	47.62
888.412	45.57
888.583	27.14
888.754	12.8
888.926	61.95
889.097	68.09
889.268	43.52
889.44	0.51
889.611	25.09
889.782	90.62
889.953	68.09
890.125	47.62
890.296	14.85
890.467	47.62
890.638	53.76
890.809	-3.58
890.98	-13.82
891.151	-50.69
891.323	20.99
891.494	59.9
891.665	-28.16
891.836	-36.35
892.007	90.62
892.178	53.76
892.349	20.99
892.52	70.14
892.691	82.43
892.862	39.42
893.032	-3.58
893.203	-17.92
893.374	23.04
893.545	94.72
893.716	53.76
893.887	119.29
894.057	-11.78
894.228	6.66
894.399	53.76
894.57	-11.78
894.74	-11.78
894.911	23.04
895.082	-7.68
895.253	92.67
895.423	49.66
895.594	37.38
895.764	-36.35
895.935	8.7
896.106	64
896.276	29.18
896.447	-1.54
896.617	4.61
896.788	16.9
896.958	-65.02
897.129	68.09
897.299	-5.63
897.47	53.76
897.64	6.66
897.81	49.66
897.981	115.2
898.151	-36.35
898.322	47.62
898.492	68.09
898.662	4.61
898.832	33.28
899.003	-11.78
899.173	74.24
899.343	27.14
899.513	0.51
