Data from USB4F104151__21__12-58-37-639.txt Node

Date: Fri Mar 14 12:58:37 EDT 2025
User: louis
Spectrometer: USB4F10415
Trigger mode: 4
Integration Time (sec): 1.000000E-2
Scans to average: 1
Electric dark correction enabled: true
Nonlinearity correction enabled: false
Boxcar width: 0
XAxis mode: Wavelengths
Number of Pixels in Spectrum: 3648
>>>>>Begin Spectral Data<<<<<
178.204	-94.38
178.424	-94.38
178.644	-94.38
178.864	-51.37
179.084	-8.36
179.304	-49.32
179.524	18.26
179.744	10.07
179.964	-43.18
180.184	-49.32
180.404	32.6
180.624	26.45
180.844	22.36
181.064	-0.17
181.283	-2.22
181.503	22.36
181.723	12.12
181.943	-39.08
182.163	-6.31
182.383	-49.32
182.602	22.36
182.822	-41.13
183.042	34.64
183.262	-49.32
183.482	32.6
183.701	-8.36
183.921	-34.99
184.141	32.6
184.361	5.97
184.58	-26.79
184.8	22.36
185.02	-18.6
185.239	5.97
185.459	-30.89
185.679	81.75
185.898	-10.41
186.118	-0.17
186.338	-10.41
186.557	22.36
186.777	30.55
186.997	44.88
187.216	-69.8
187.436	81.75
187.655	24.4
187.875	51.03
188.095	20.31
188.314	22.36
188.534	-22.7
188.753	63.32
188.973	-10.41
189.192	46.93
189.412	16.21
189.631	79.7
189.851	-10.41
190.07	42.84
190.29	-75.95
190.509	34.64
190.729	10.07
190.948	40.79
191.168	128.85
191.387	38.74
191.607	20.31
191.826	22.36
192.045	-26.79
192.265	36.69
192.484	-18.6
192.704	1.88
192.923	26.45
193.142	81.75
193.362	-26.79
193.581	-43.18
193.8	57.17
194.02	5.97
194.239	-8.36
194.458	-6.31
194.678	24.4
194.897	59.22
195.116	-6.31
195.335	40.79
195.555	-30.89
195.774	-26.79
195.993	63.32
196.212	-10.41
196.432	-49.32
196.651	5.97
196.87	40.79
197.089	46.93
197.308	-0.17
197.528	10.07
197.747	-47.27
197.966	-92.33
198.185	-18.6
198.404	8.02
198.623	16.21
198.842	79.7
199.062	24.4
199.281	14.17
199.5	42.84
199.719	12.12
199.938	36.69
200.157	38.74
200.376	-4.27
200.595	-4.27
200.814	55.12
201.033	16.21
201.252	10.07
201.471	12.12
201.69	-12.46
201.909	30.55
202.128	40.79
202.347	-10.41
202.566	16.21
202.785	32.6
203.004	-53.42
203.223	-10.41
203.442	1.88
203.661	63.32
203.879	-10.41
204.098	40.79
204.317	73.56
204.536	77.65
204.755	1.88
204.974	-39.08
205.193	-8.36
205.411	24.4
205.63	-53.42
205.849	59.22
206.068	-55.47
206.287	-12.46
206.505	-16.55
206.724	-12.46
206.943	-41.13
207.162	5.97
207.381	-59.56
207.599	38.74
207.818	-12.46
208.037	42.84
208.255	-32.94
208.474	91.99
208.693	46.93
208.911	87.89
209.13	-26.79
209.349	55.12
209.567	-16.55
209.786	-18.6
210.005	161.62
210.223	44.88
210.442	-18.6
210.661	65.36
210.879	28.5
211.098	1.88
211.316	26.45
211.535	-30.89
211.753	-14.51
211.972	40.79
212.191	55.12
212.409	1.88
212.628	-0.17
212.846	16.21
213.065	-22.7
213.283	-0.17
213.502	-12.46
213.72	102.23
213.938	28.5
214.157	57.17
214.375	16.21
214.594	16.21
214.812	-28.84
215.031	12.12
215.249	46.93
215.467	38.74
215.686	-6.31
215.904	10.07
216.122	-8.36
216.341	89.94
216.559	-39.08
216.778	22.36
216.996	18.26
217.214	51.03
217.432	14.17
217.651	-10.41
217.869	-20.65
218.087	-45.23
218.306	-4.27
218.524	22.36
218.742	26.45
218.96	32.6
219.179	51.03
219.397	24.4
219.615	8.02
219.833	30.55
220.051	5.97
220.27	120.66
220.488	-59.56
220.706	63.32
220.924	5.97
221.142	48.98
221.36	-16.55
221.578	-51.37
221.796	-53.42
222.015	-24.75
222.233	96.08
222.451	3.93
222.669	10.07
222.887	55.12
223.105	46.93
223.323	14.17
223.541	26.45
223.759	38.74
223.977	-8.36
224.195	48.98
224.413	-18.6
224.631	40.79
224.849	5.97
225.067	34.64
225.285	16.21
225.503	32.6
225.721	-0.17
225.939	12.12
226.157	-0.17
226.375	69.46
226.592	40.79
226.81	-16.55
227.028	-10.41
227.246	28.5
227.464	-73.9
227.682	5.97
227.9	-2.22
228.117	18.26
228.335	3.93
228.553	51.03
228.771	57.17
228.989	-43.18
229.206	-14.51
229.424	-4.27
229.642	26.45
229.86	10.07
230.077	-34.99
230.295	61.27
230.513	71.51
230.731	63.32
230.948	8.02
231.166	100.18
231.384	12.12
231.601	-6.31
231.819	59.22
232.037	-16.55
232.254	-4.27
232.472	-16.55
232.689	-51.37
232.907	55.12
233.125	-12.46
233.342	-2.22
233.56	-96.43
233.777	8.02
233.995	5.97
234.213	51.03
234.43	10.07
234.648	-16.55
234.865	22.36
235.083	26.45
235.3	30.55
235.518	46.93
235.735	-14.51
235.953	-10.41
236.17	5.97
236.388	-22.7
236.605	-16.55
236.822	87.89
237.04	53.08
237.257	42.84
237.475	12.12
237.692	63.32
237.909	-41.13
238.127	104.28
238.344	36.69
238.562	-18.6
238.779	14.17
238.996	28.5
239.214	1.88
239.431	61.27
239.648	104.28
239.865	46.93
240.083	10.07
240.3	63.32
240.517	24.4
240.735	24.4
240.952	42.84
241.169	110.42
241.386	5.97
241.603	-43.18
241.821	-30.89
242.038	20.31
242.255	26.45
242.472	-43.18
242.689	-28.84
242.907	75.6
243.124	53.08
243.341	18.26
243.558	-0.17
243.775	16.21
243.992	-96.43
244.209	36.69
244.426	87.89
244.643	-59.56
244.86	-47.27
245.078	53.08
245.295	-10.41
245.512	24.4
245.729	-59.56
245.946	42.84
246.163	18.26
246.38	22.36
246.597	-20.65
246.814	65.36
247.031	-63.66
247.248	12.12
247.464	-6.31
247.681	46.93
247.898	69.46
248.115	1.88
248.332	-20.65
248.549	55.12
248.766	71.51
248.983	-24.75
249.2	-41.13
249.417	-34.99
249.633	26.45
249.85	1.88
250.067	-4.27
250.284	32.6
250.501	65.36
250.717	-47.27
250.934	83.8
251.151	-12.46
251.368	-4.27
251.585	-10.41
251.801	16.21
252.018	-6.31
252.235	100.18
252.451	38.74
252.668	-10.41
252.885	-39.08
253.102	-14.51
253.318	-24.75
253.535	-69.8
253.752	55.12
253.968	-34.99
254.185	-16.55
254.401	-4.27
254.618	77.65
254.835	-77.99
255.051	30.55
255.268	24.4
255.484	-14.51
255.701	24.4
255.917	81.75
256.134	-75.95
256.351	38.74
256.567	-51.37
256.784	67.41
257	-32.94
257.217	57.17
257.433	-32.94
257.65	-16.55
257.866	118.61
258.082	-0.17
258.299	-75.95
258.515	28.5
258.732	-24.75
258.948	120.66
259.165	-8.36
259.381	-14.51
259.597	-32.94
259.814	22.36
260.03	24.4
260.246	-14.51
260.463	10.07
260.679	48.98
260.895	3.93
261.112	12.12
261.328	-51.37
261.544	32.6
261.761	5.97
261.977	-65.71
262.193	106.32
262.409	32.6
262.626	-32.94
262.842	8.02
263.058	40.79
263.274	-2.22
263.49	-18.6
263.707	-30.89
263.923	32.6
264.139	-24.75
264.355	59.22
264.571	51.03
264.787	98.13
265.004	26.45
265.22	61.27
265.436	38.74
265.652	83.8
265.868	-73.9
266.084	10.07
266.3	-12.46
266.516	-34.99
266.732	-18.6
266.948	14.17
267.164	26.45
267.38	-0.17
267.596	-26.79
267.812	28.5
268.028	81.75
268.244	73.56
268.46	34.64
268.676	40.79
268.892	-16.55
269.108	-47.27
269.324	28.5
269.54	-20.65
269.756	22.36
269.972	1.88
270.188	5.97
270.403	-22.7
270.619	-6.31
270.835	1.88
271.051	10.07
271.267	38.74
271.483	30.55
271.698	63.32
271.914	38.74
272.13	65.36
272.346	57.17
272.562	69.46
272.777	-45.23
272.993	38.74
273.209	-26.79
273.425	48.98
273.64	22.36
273.856	24.4
274.072	16.21
274.287	-10.41
274.503	42.84
274.719	40.79
274.934	96.08
275.15	63.32
275.366	75.6
275.581	57.17
275.797	22.36
276.012	44.88
276.228	-0.17
276.444	8.02
276.659	-24.75
276.875	40.79
277.09	14.17
277.306	48.98
277.521	83.8
277.737	-0.17
277.952	34.64
278.168	55.12
278.383	24.4
278.599	24.4
278.814	14.17
279.03	30.55
279.245	51.03
279.461	-22.7
279.676	-2.22
279.892	3.93
280.107	-10.41
280.322	3.93
280.538	67.41
280.753	-4.27
280.969	-37.03
281.184	24.4
281.399	22.36
281.615	18.26
281.83	-2.22
282.045	-14.51
282.26	30.55
282.476	14.17
282.691	46.93
282.906	42.84
283.122	63.32
283.337	-47.27
283.552	-43.18
283.767	28.5
283.983	32.6
284.198	40.79
284.413	20.31
284.628	-18.6
284.843	32.6
285.058	57.17
285.274	-10.41
285.489	-47.27
285.704	-10.41
285.919	-26.79
286.134	18.26
286.349	-30.89
286.564	16.21
286.779	-53.42
286.995	22.36
287.21	71.51
287.425	44.88
287.64	-4.27
287.855	61.27
288.07	-18.6
288.285	24.4
288.5	79.7
288.715	59.22
288.93	-4.27
289.145	-30.89
289.36	55.12
289.575	16.21
289.79	-34.99
290.004	34.64
290.219	22.36
290.434	-53.42
290.649	42.84
290.864	-59.56
291.079	59.22
291.294	24.4
291.509	51.03
291.724	87.89
291.938	-10.41
292.153	-22.7
292.368	-6.31
292.583	71.51
292.798	12.12
293.012	14.17
293.227	-12.46
293.442	14.17
293.657	16.21
293.871	102.23
294.086	-18.6
294.301	-4.27
294.516	28.5
294.73	53.08
294.945	5.97
295.16	32.6
295.374	-2.22
295.589	-43.18
295.804	26.45
296.018	8.02
296.233	40.79
296.447	22.36
296.662	-61.61
296.877	32.6
297.091	53.08
297.306	-26.79
297.52	-28.84
297.735	-0.17
297.949	24.4
298.164	59.22
298.378	20.31
298.593	40.79
298.807	-41.13
299.022	-59.56
299.236	40.79
299.451	69.46
299.665	32.6
299.88	-14.51
300.094	16.21
300.309	30.55
300.523	42.84
300.737	-96.43
300.952	79.7
301.166	-2.22
301.381	24.4
301.595	12.12
301.809	5.97
302.024	5.97
302.238	26.45
302.452	46.93
302.667	-2.22
302.881	3.93
303.095	57.17
303.309	57.17
303.524	26.45
303.738	40.79
303.952	46.93
304.166	51.03
304.381	-12.46
304.595	30.55
304.809	-6.31
305.023	-2.22
305.237	14.17
305.452	-65.71
305.666	67.41
305.88	28.5
306.094	-49.32
306.308	48.98
306.522	10.07
306.736	22.36
306.95	-39.08
307.164	-32.94
307.379	26.45
307.593	63.32
307.807	34.64
308.021	48.98
308.235	63.32
308.449	71.51
308.663	34.64
308.877	71.51
309.091	32.6
309.305	34.64
309.519	-28.84
309.733	126.8
309.947	51.03
310.161	-8.36
310.374	26.45
310.588	16.21
310.802	-6.31
311.016	5.97
311.23	63.32
311.444	91.99
311.658	26.45
311.872	-2.22
312.085	53.08
312.299	18.26
312.513	-37.03
312.727	1.88
312.941	55.12
313.154	-10.41
313.368	65.36
313.582	-0.17
313.796	26.45
314.009	-4.27
314.223	-121
314.437	5.97
314.651	75.6
314.864	63.32
315.078	-10.41
315.292	12.12
315.505	32.6
315.719	71.51
315.933	3.93
316.146	-55.47
316.36	40.79
316.573	71.51
316.787	-10.41
317.001	48.98
317.214	5.97
317.428	44.88
317.641	-10.41
317.855	14.17
318.068	14.17
318.282	-32.94
318.495	87.89
318.709	34.64
318.922	16.21
319.136	61.27
319.349	20.31
319.563	-10.41
319.776	32.6
319.99	51.03
320.203	61.27
320.417	89.94
320.63	63.32
320.843	48.98
321.057	57.17
321.27	100.18
321.483	65.36
321.697	42.84
321.91	51.03
322.124	-2.22
322.337	24.4
322.55	38.74
322.763	26.45
322.977	51.03
323.19	-73.9
323.403	14.17
323.617	-12.46
323.83	32.6
324.043	-26.79
324.256	20.31
324.469	14.17
324.683	53.08
324.896	8.02
325.109	59.22
325.322	-24.75
325.535	79.7
325.748	28.5
325.962	51.03
326.175	20.31
326.388	48.98
326.601	16.21
326.814	30.55
327.027	20.31
327.24	10.07
327.453	-12.46
327.666	3.93
327.879	38.74
328.092	34.64
328.305	67.41
328.518	38.74
328.731	-32.94
328.944	-2.22
329.157	-47.27
329.37	14.17
329.583	94.04
329.796	79.7
330.009	22.36
330.222	26.45
330.435	-20.65
330.648	61.27
330.861	-34.99
331.073	38.74
331.286	-18.6
331.499	-28.84
331.712	-0.17
331.925	-65.71
332.138	10.07
332.35	46.93
332.563	-34.99
332.776	51.03
332.989	-2.22
333.202	-39.08
333.414	10.07
333.627	59.22
333.84	-65.71
334.053	18.26
334.265	57.17
334.478	38.74
334.691	26.45
334.903	48.98
335.116	40.79
335.329	108.37
335.541	55.12
335.754	26.45
335.966	18.26
336.179	100.18
336.392	46.93
336.604	38.74
336.817	120.66
337.029	26.45
337.242	14.17
337.454	79.7
337.667	79.7
337.88	48.98
338.092	22.36
338.305	34.64
338.517	-10.41
338.729	-26.79
338.942	-8.36
339.154	-24.75
339.367	-8.36
339.579	30.55
339.792	-12.46
340.004	38.74
340.217	65.36
340.429	98.13
340.641	18.26
340.854	18.26
341.066	85.84
341.278	46.93
341.491	-0.17
341.703	28.5
341.915	42.84
342.128	57.17
342.34	18.26
342.552	-14.51
342.764	16.21
342.977	20.31
343.189	-0.17
343.401	61.27
343.613	51.03
343.826	81.75
344.038	34.64
344.25	8.02
344.462	14.17
344.674	10.07
344.886	26.45
345.099	67.41
345.311	-8.36
345.523	-6.31
345.735	32.6
345.947	-24.75
346.159	3.93
346.371	46.93
346.583	3.93
346.795	32.6
347.007	26.45
347.219	-32.94
347.431	-24.75
347.643	75.6
347.855	40.79
348.067	42.84
348.279	87.89
348.491	26.45
348.703	-67.75
348.915	24.4
349.127	-20.65
349.339	5.97
349.551	8.02
349.763	167.76
349.975	-26.79
350.187	57.17
350.399	94.04
350.61	-55.47
350.822	28.5
351.034	30.55
351.246	12.12
351.458	-22.7
351.669	65.36
351.881	38.74
352.093	16.21
352.305	79.7
352.517	5.97
352.728	-10.41
352.94	59.22
353.152	-65.71
353.363	65.36
353.575	65.36
353.787	18.26
353.999	51.03
354.21	59.22
354.422	-49.32
354.633	77.65
354.845	32.6
355.057	98.13
355.268	20.31
355.48	81.75
355.692	-2.22
355.903	-6.31
356.115	59.22
356.326	30.55
356.538	67.41
356.749	38.74
356.961	8.02
357.172	10.07
357.384	63.32
357.595	-30.89
357.807	30.55
358.018	44.88
358.23	-0.17
358.441	48.98
358.653	87.89
358.864	20.31
359.075	44.88
359.287	-26.79
359.498	12.12
359.709	-2.22
359.921	-51.37
360.132	-2.22
360.344	24.4
360.555	22.36
360.766	38.74
360.977	-24.75
361.189	-28.84
361.4	32.6
361.611	34.64
361.823	1.88
362.034	28.5
362.245	16.21
362.456	18.26
362.667	10.07
362.879	67.41
363.09	34.64
363.301	104.28
363.512	26.45
363.723	55.12
363.935	-10.41
364.146	16.21
364.357	40.79
364.568	61.27
364.779	14.17
364.99	38.74
365.201	46.93
365.412	71.51
365.623	38.74
365.834	59.22
366.045	-39.08
366.256	32.6
366.467	22.36
366.678	53.08
366.889	-39.08
367.1	-2.22
367.311	12.12
367.522	38.74
367.733	-4.27
367.944	94.04
368.155	-0.17
368.366	-4.27
368.577	-41.13
368.788	26.45
368.999	32.6
369.209	57.17
369.42	96.08
369.631	51.03
369.842	-8.36
370.053	26.45
370.264	8.02
370.474	14.17
370.685	36.69
370.896	20.31
371.107	40.79
371.317	30.55
371.528	10.07
371.739	51.03
371.95	-0.17
372.16	-12.46
372.371	24.4
372.582	71.51
372.792	-0.17
373.003	67.41
373.214	38.74
373.424	40.79
373.635	14.17
373.846	-2.22
374.056	1.88
374.267	16.21
374.477	22.36
374.688	-51.37
374.898	-10.41
375.109	61.27
375.319	40.79
375.53	96.08
375.74	12.12
375.951	-16.55
376.161	24.4
376.372	108.37
376.582	75.6
376.793	79.7
377.003	14.17
377.214	44.88
377.424	34.64
377.635	48.98
377.845	8.02
378.055	63.32
378.266	18.26
378.476	69.46
378.686	-4.27
378.897	5.97
379.107	12.12
379.317	10.07
379.528	-65.71
379.738	38.74
379.948	-34.99
380.158	18.26
380.369	-61.61
380.579	10.07
380.789	-41.13
380.999	38.74
381.21	26.45
381.42	61.27
381.63	-6.31
381.84	69.46
382.05	75.6
382.261	-34.99
382.471	22.36
382.681	-12.46
382.891	-12.46
383.101	79.7
383.311	14.17
383.521	-34.99
383.731	65.36
383.941	67.41
384.151	48.98
384.361	38.74
384.571	53.08
384.781	65.36
384.991	-30.89
385.201	106.32
385.411	28.5
385.621	65.36
385.831	67.41
386.041	48.98
386.251	75.6
386.461	24.4
386.671	36.69
386.881	32.6
387.091	108.37
387.301	53.08
387.511	38.74
387.72	89.94
387.93	85.84
388.14	24.4
388.35	36.69
388.56	-2.22
388.769	85.84
388.979	10.07
389.189	-14.51
389.399	5.97
389.609	-0.17
389.818	83.8
390.028	-8.36
390.238	71.51
390.447	48.98
390.657	53.08
390.867	63.32
391.076	24.4
391.286	-8.36
391.496	10.07
391.705	10.07
391.915	-14.51
392.125	28.5
392.334	28.5
392.544	-0.17
392.753	63.32
392.963	63.32
393.172	55.12
393.382	-0.17
393.591	85.84
393.801	-53.42
394.01	71.51
394.22	5.97
394.429	26.45
394.639	63.32
394.848	1.88
395.058	42.84
395.267	46.93
395.477	40.79
395.686	38.74
395.895	124.76
396.105	104.28
396.314	46.93
396.524	128.85
396.733	48.98
396.942	48.98
397.152	46.93
397.361	18.26
397.57	34.64
397.78	32.6
397.989	48.98
398.198	32.6
398.407	34.64
398.617	24.4
398.826	42.84
399.035	-16.55
399.244	51.03
399.453	51.03
399.663	104.28
399.872	75.6
400.081	71.51
400.29	128.85
400.499	75.6
400.708	5.97
400.917	51.03
401.127	98.13
401.336	81.75
401.545	73.56
401.754	18.26
401.963	55.12
402.172	91.99
402.381	110.42
402.59	79.7
402.799	32.6
403.008	24.4
403.217	118.61
403.426	157.52
403.635	12.12
403.844	85.84
404.053	114.52
404.262	96.08
404.471	67.41
404.68	55.12
404.888	128.85
405.097	98.13
405.306	96.08
405.515	-0.17
405.724	132.95
405.933	208.72
406.142	87.89
406.35	94.04
406.559	151.38
406.768	141.14
406.977	120.66
407.185	96.08
407.394	124.76
407.603	65.36
407.812	71.51
408.02	114.52
408.229	98.13
408.438	100.18
408.646	126.8
408.855	100.18
409.064	104.28
409.272	163.67
409.481	182.1
409.69	130.9
409.898	180.05
410.107	163.67
410.315	247.63
410.524	153.43
410.733	182.1
410.941	268.11
411.15	225.11
411.358	221.01
411.567	241.49
411.775	169.81
411.984	280.4
412.192	204.63
412.401	264.02
412.609	231.25
412.818	296.78
413.026	315.22
413.234	276.31
413.443	354.13
413.651	259.92
413.86	270.16
414.068	315.22
414.276	380.75
414.485	352.08
414.693	315.22
414.901	370.51
415.11	395.09
415.318	341.84
415.526	366.42
415.734	470.86
415.943	483.15
416.151	421.71
416.359	464.72
416.567	415.57
416.776	472.91
416.984	554.83
417.192	503.63
417.4	593.74
417.608	538.45
417.817	579.4
418.025	591.69
418.233	710.47
418.441	644.94
418.649	698.19
418.857	759.63
419.065	771.91
419.273	769.87
419.481	753.48
419.689	751.43
419.897	845.64
420.105	874.31
420.313	931.66
420.521	866.12
420.729	888.65
420.937	1142.6
421.145	1081.16
421.353	1050.44
421.561	1120.07
421.769	1120.07
421.977	1175.36
422.185	1111.88
422.393	1275.71
422.601	1247.04
422.809	1281.86
423.017	1281.86
423.224	1392.45
423.432	1419.07
423.64	1365.82
423.848	1490.75
424.056	1541.95
424.263	1580.86
424.471	1713.98
424.679	1685.31
424.887	1720.12
425.094	1795.9
425.302	1879.86
425.51	1900.34
425.718	1914.68
425.925	2010.93
426.133	1941.3
426.341	2066.23
426.548	2305.84
426.756	2211.64
426.964	2219.83
427.171	2266.93
427.379	2422.58
427.586	2463.54
427.794	2633.52
428.001	2729.77
428.209	2754.35
428.417	2750.25
428.624	2950.95
428.832	3008.3
429.039	2932.52
429.247	2905.9
429.454	3186.47
429.662	3430.18
429.869	3301.15
430.076	3436.32
430.284	3458.85
430.491	3352.35
430.699	3612.45
430.906	3766.04
431.114	3798.81
431.321	3915.55
431.528	3946.27
431.736	4204.31
431.943	4316.95
432.15	4286.23
432.358	4275.99
432.565	4566.8
432.772	4525.84
432.979	4882.19
433.187	4828.94
433.394	4962.06
433.601	5140.23
433.808	5324.55
434.016	5115.66
434.223	5271.3
434.43	5558.02
434.637	5617.41
434.844	6010.62
435.052	6213.37
435.259	5936.89
435.466	6139.64
435.673	5914.36
435.88	6446.83
436.087	6625.01
436.294	6782.7
436.501	6625.01
436.708	6766.32
436.915	7003.88
437.122	7425.76
437.329	7339.75
437.537	7554.79
437.743	7761.63
437.95	7565.03
438.157	7945.95
438.364	8210.14
438.571	8304.34
438.778	8163.03
438.985	9279.18
439.192	8654.55
439.399	8976.08
439.606	8787.66
439.813	9361.09
440.02	9830.08
440.227	9735.87
440.433	9645.76
440.64	10057.4
440.847	9830.08
441.054	10018.49
441.261	10589.88
441.467	10819.25
441.674	10952.37
441.881	11290.28
442.088	11179.69
442.294	11058.86
442.501	11415.21
442.708	11646.63
442.914	12156.57
443.121	12658.32
443.328	12654.23
443.534	13522.57
443.741	12863.12
443.948	12725.91
444.154	13684.36
444.361	13639.3
444.568	13743.75
444.774	13848.19
444.981	14026.37
445.187	14155.39
445.394	14679.67
445.6	15017.58
445.807	15939.17
446.013	15609.45
446.22	15636.07
446.426	16291.42
446.633	16418.39
446.839	17094.22
447.046	16297.56
447.252	17346.12
447.459	17278.54
447.665	17294.93
447.871	18095.68
448.078	18734.65
448.284	18013.76
448.491	18376.25
448.697	19146.29
448.903	19557.93
449.11	20020.77
449.316	19506.73
449.522	19811.88
449.728	20348.45
449.935	20346.4
450.141	20504.09
450.347	20698.65
450.553	20231.71
450.76	20452.89
450.966	21331.47
451.172	20878.87
451.378	21718.54
451.584	21120.53
451.791	21521.93
451.997	21530.12
452.203	22134.28
452.409	22273.54
452.615	22040.07
452.821	21122.58
453.027	20817.43
453.233	22070.79
453.44	21405.2
453.646	21683.72
453.852	21446.16
454.058	21724.68
454.264	21585.42
454.47	21478.93
454.676	20952.6
454.882	21847.56
455.088	20051.49
455.294	20307.49
455.5	20463.13
455.705	20868.63
455.911	19959.33
456.117	19750.44
456.323	19277.36
456.529	18474.56
456.735	19037.75
456.941	18927.16
457.147	18294.33
457.352	18126.4
457.558	17608.26
457.764	17673.8
457.97	17423.95
458.176	17186.38
458.381	17186.38
458.587	16311.9
458.793	16219.74
458.999	15449.71
459.204	16559.7
459.41	15984.23
459.616	14780.02
459.821	14972.53
460.027	14677.62
460.233	14505.59
460.438	13962.88
460.644	13995.65
460.85	13352.59
461.055	12871.31
461.261	13067.92
461.466	12166.81
461.672	11806.37
461.878	12459.67
462.083	11605.67
462.289	11650.72
462.494	11495.08
462.7	10935.98
462.905	10548.92
463.111	10964.65
463.316	10970.8
463.522	10645.17
463.727	10843.82
463.932	10825.39
464.138	10806.96
464.343	10643.12
464.549	10395.32
464.754	10743.47
464.959	10409.65
465.165	10720.95
465.37	10254.01
465.575	9989.82
465.781	10213.05
465.986	10342.07
466.191	9836.22
466.397	9539.27
466.602	9352.9
466.807	9514.69
467.012	9717.44
467.218	9500.36
467.423	9500.36
467.628	9506.5
467.833	10034.88
468.038	9524.93
468.244	9313.99
468.449	9656
468.654	9318.09
468.859	9326.28
469.064	9309.9
469.269	8742.61
469.474	9053.9
469.679	9137.87
469.885	8705.74
470.09	9033.42
470.295	8842.96
470.5	8672.98
470.705	8797.9
470.91	8642.26
471.115	8466.13
471.32	8730.32
471.525	8519.38
471.73	8261.34
471.935	8273.62
472.139	8113.88
472.344	8218.33
472.549	7999.2
472.754	8074.97
472.959	7780.06
473.164	7638.75
473.369	7689.95
473.574	7823.07
473.778	7876.32
473.983	7640.8
474.188	7700.19
474.393	7405.28
474.598	7184.1
474.802	7409.38
475.007	7106.28
475.212	7325.41
475.417	7055.08
475.621	6926.06
475.826	7122.66
476.031	6835.95
476.235	6825.71
476.44	6897.39
476.645	6917.87
476.849	6790.89
477.054	6653.68
477.259	6489.84
477.463	6522.61
477.668	6493.94
477.872	6506.23
478.077	6444.79
478.282	6188.79
478.486	6229.75
478.691	6055.67
478.895	6158.07
479.1	6035.19
479.304	6080.25
479.509	5955.32
479.713	6104.82
479.918	5830.4
480.122	5773.05
480.326	5879.55
480.531	5844.73
480.735	5879.55
480.94	5641.98
481.144	5916.41
481.348	5750.53
481.553	5908.22
481.757	5572.35
481.961	5789.44
482.166	5711.61
482.37	5822.2
482.574	5580.54
482.778	5494.53
482.983	5592.83
483.187	5674.75
483.391	5717.76
483.595	5531.39
483.8	5746.43
484.004	5744.38
484.208	5824.25
484.412	5545.73
484.616	5660.41
484.821	5703.42
485.025	5607.17
485.229	5709.57
485.433	5750.53
485.637	5674.75
485.841	5611.26
486.045	5560.06
486.249	5623.55
486.453	5660.41
486.657	5568.26
486.861	5660.41
487.065	5607.17
487.269	5699.33
487.473	5504.77
487.677	5560.06
487.881	5728
488.085	5725.95
488.289	5740.29
488.493	5594.88
488.697	5678.85
488.901	5756.67
489.105	5695.23
489.309	5760.77
489.512	5791.48
489.716	5486.34
489.92	5701.37
490.124	5666.56
490.328	5967.61
490.531	5865.21
490.735	5910.27
490.939	5842.68
491.143	5832.44
491.346	5801.72
491.55	5928.7
491.754	5943.03
491.958	6072.06
492.161	5961.47
492.365	5891.84
492.569	5875.45
492.772	5990.14
492.976	5955.32
493.18	6135.54
493.383	6098.68
493.587	6125.3
493.79	6117.11
493.994	6340.34
494.197	6209.27
494.401	6315.76
494.605	6379.25
494.808	6334.2
495.012	6348.53
495.215	6657.78
495.419	6596.34
495.622	6428.4
495.825	6747.89
496.029	6436.6
496.232	6895.34
496.436	6762.22
496.639	6811.37
496.843	6919.92
497.046	7024.36
497.249	7018.22
497.453	7040.75
497.656	7110.38
497.859	7057.13
498.063	7358.18
498.266	7474.92
498.469	7386.85
498.673	7489.25
498.876	7667.42
499.079	7708.38
499.282	7769.82
499.485	7868.13
499.689	7984.86
499.892	8101.59
500.095	8085.21
500.298	8380.12
500.501	8247
500.705	8414.93
500.908	8623.83
501.111	8525.52
501.314	8793.81
501.517	8838.86
501.72	8816.33
501.923	9084.62
502.126	9094.86
502.329	9363.14
502.532	9270.98
502.735	9111.24
502.938	9510.6
503.141	9565.89
503.344	9899.71
503.547	9750.21
503.75	10024.64
503.953	10020.54
504.156	10417.85
504.359	10442.42
504.562	10368.7
504.765	10612.4
504.968	10667.7
505.17	10946.22
505.373	11017.9
505.576	11198.12
505.779	11144.88
505.982	11458.21
506.185	11286.19
506.387	11822.75
506.59	12072.61
506.793	12095.13
506.996	11816.61
507.198	12381.85
507.401	12056.22
507.604	12385.94
507.807	12658.32
508.009	12600.98
508.212	12818.07
508.415	13053.58
508.617	13227.66
508.82	13104.78
509.022	13108.88
509.225	13885.06
509.428	13541
509.63	13586.05
509.833	13917.82
510.035	14169.73
510.238	14220.92
510.44	14458.49
510.643	14515.83
510.845	14644.85
511.048	14685.81
511.25	14960.24
511.453	15138.41
511.655	15605.35
511.858	15515.24
512.06	15765.09
512.262	15808.1
512.465	15722.09
512.667	16191.07
512.87	16510.55
513.072	16424.54
513.274	16649.82
513.477	16676.44
513.679	17049.17
513.881	17233.49
514.084	17428.04
514.286	17401.42
514.488	17509.96
514.69	17964.61
514.893	18048.58
515.095	18116.16
515.297	18300.48
515.499	18372.16
515.701	18693.69
515.904	18918.96
516.106	19060.27
516.308	19385.9
516.51	19611.18
516.712	19619.37
516.914	19725.86
517.116	20139.55
517.318	20074.02
517.52	20346.4
517.722	20418.08
517.925	20428.32
518.127	20956.69
518.329	20870.68
518.531	21194.26
518.733	21423.63
518.935	21669.39
519.136	21663.24
519.338	22165
519.54	22449.66
519.742	22212.1
519.944	22390.27
520.146	23076.34
520.348	23094.77
520.55	23129.59
520.752	23205.36
520.954	23574
521.155	23586.29
521.357	23834.09
521.559	24180.2
521.761	24522.21
521.963	24198.63
522.164	24720.86
522.366	24554.97
522.568	24727
522.77	25142.74
522.971	25406.93
523.173	25015.77
523.375	25744.84
523.576	25552.34
523.778	25540.05
523.98	25955.79
524.181	26136.01
524.383	26136.01
524.584	26459.59
524.786	26635.71
524.988	26602.94
525.189	26922.43
525.391	26877.37
525.592	27145.66
525.794	27188.66
525.995	27170.23
526.197	27157.94
526.398	27104.7
526.6	27415.99
526.801	27413.94
527.003	27934.12
527.204	28149.16
527.406	27792.81
527.607	27764.14
527.808	28399.01
528.01	28030.38
528.211	28216.74
528.412	28532.13
528.614	28478.88
528.815	28517.79
529.016	28736.93
529.218	28833.18
529.419	28943.77
529.62	28839.33
529.822	28577.19
530.023	28824.99
530.224	28790.17
530.425	28982.68
530.626	28851.61
530.828	28994.97
531.029	29441.43
531.23	29193.62
531.431	29103.51
531.632	29345.17
531.833	29756.82
532.035	29611.41
532.236	29416.85
532.437	29586.83
532.638	29691.28
532.839	29828.49
533.04	29699.47
533.241	29535.63
533.442	29828.49
533.643	29717.9
533.844	29562.26
534.045	29535.63
534.246	29414.8
534.447	29582.74
534.648	29638.03
534.849	29752.72
535.05	29443.48
535.251	29697.42
535.451	29691.28
535.652	29519.25
535.853	29523.35
536.054	29660.56
536.255	29484.44
536.456	29554.07
536.657	30225.8
536.857	30039.43
537.058	29756.82
537.259	29701.52
537.46	29771.15
537.66	29722
537.861	29801.87
538.062	29769.1
538.263	29986.19
538.463	29672.85
538.664	29502.87
538.865	29889.93
539.065	29640.08
539.266	29255.06
539.466	29799.82
539.667	29664.66
539.868	29926.8
540.068	29908.36
540.269	29635.99
540.469	29568.4
540.67	29726.1
540.87	29654.42
541.071	29756.82
541.271	29644.18
541.472	29701.52
541.672	29646.22
541.873	29574.55
542.073	29080.99
542.274	29803.92
542.474	29300.12
542.675	29336.98
542.875	29705.62
543.075	29654.42
543.276	29590.93
543.476	29617.55
543.676	29537.68
543.877	29713.81
544.077	29670.8
544.277	29767.06
544.478	29259.16
544.678	29795.73
544.878	29345.17
545.078	29681.04
545.279	29418.9
545.479	29547.92
545.679	29572.5
545.879	29470.1
546.079	29670.8
546.28	29621.65
546.48	29445.52
546.68	29568.4
546.88	29584.79
547.08	29570.45
547.28	29633.94
547.48	29115.8
547.68	29257.11
547.88	29412.76
548.081	29521.3
548.281	29515.15
548.481	29519.25
548.681	29633.94
548.881	29365.65
549.081	29361.56
549.28	29119.9
549.48	29470.1
549.68	29736.34
549.88	29537.68
550.08	29259.16
550.28	29386.13
550.48	29281.69
550.68	29846.93
550.88	29275.54
551.08	29296.02
551.279	29246.87
551.479	29289.88
551.679	29406.61
551.879	28876.19
552.079	29541.78
552.278	28855.71
552.478	29300.12
552.678	29021.59
552.878	29545.87
553.077	29171.1
553.277	28951.96
553.477	29730.19
553.676	28831.13
553.876	29210.01
554.076	29044.12
554.275	29228.44
554.475	28868
554.674	29076.89
554.874	29058.46
555.074	28894.62
555.273	28726.69
555.473	29009.31
555.672	29070.75
555.872	28921.24
556.071	28824.99
556.271	28947.87
556.47	28837.28
556.67	28829.09
556.869	28540.32
557.068	28939.68
557.268	28550.56
557.467	28726.69
557.667	28669.34
557.866	28650.91
558.065	28476.83
558.265	28546.47
558.464	28415.4
558.663	28536.23
558.863	28378.53
559.062	28622.24
559.261	28278.18
559.461	28726.69
559.66	28104.1
559.859	28456.36
560.058	28136.87
560.258	28388.77
560.457	27944.36
560.656	28194.22
560.855	27966.89
561.054	28165.54
561.253	27610.54
561.453	28216.74
561.652	28005.8
561.851	28026.28
562.05	27858.35
562.249	27669.94
562.448	28134.82
562.647	27868.59
562.846	27876.78
563.045	27712.94
563.244	27319.73
563.443	27866.54
563.642	27284.92
563.841	27297.2
564.04	27506.1
564.239	27620.78
564.438	27540.91
564.637	27276.73
564.836	27301.3
565.035	26883.52
565.234	27336.12
565.432	27125.18
565.631	27153.85
565.83	27243.96
566.029	26871.23
566.228	26998.2
566.427	26729.92
566.625	26766.78
566.824	26490.31
567.023	26777.02
567.222	26426.82
567.42	26744.25
567.619	26658.24
567.818	26203.59
568.016	26494.4
568.215	26586.56
568.414	26410.43
568.612	26555.84
568.811	26322.37
569.01	26222.02
569.208	25810.38
569.407	26017.22
569.605	25822.67
569.804	26176.97
570.002	25857.48
570.201	25761.23
570.4	25691.6
570.598	25888.2
570.797	25441.75
570.995	25804.24
571.193	25253.33
571.392	25478.61
571.59	25277.91
571.789	25415.12
571.987	25634.25
572.186	25529.81
572.384	24948.18
572.582	25282
572.781	25378.26
572.979	24896.99
573.177	24872.41
573.376	24958.42
573.574	24739.29
573.772	25005.53
573.971	24655.33
574.169	24679.9
574.367	24477.15
574.565	24614.37
574.763	24315.36
574.962	24462.82
575.16	24073.7
575.358	24221.16
575.556	23989.74
575.754	24440.29
575.952	23860.71
576.151	24247.78
576.349	24038.89
576.547	24036.84
576.745	23950.82
576.943	23774.7
577.141	23811.56
577.339	23811.56
577.537	23422.45
577.735	23457.26
577.933	23344.63
578.131	23543.28
578.329	23225.84
578.527	23119.35
578.725	23160.31
578.923	23258.61
579.121	23145.97
579.319	23262.71
579.516	22955.51
579.714	23090.68
579.912	22793.72
580.11	22914.55
580.308	22879.74
580.506	22826.49
580.704	22631.93
580.901	22789.63
581.099	22722.04
581.297	22273.54
581.495	22377.98
581.692	22543.87
581.89	22103.56
582.088	22390.27
582.285	21915.14
582.483	22476.29
582.681	22085.12
582.878	22031.88
583.076	21653
583.274	22064.64
583.471	21755.4
583.669	21923.33
583.866	21509.65
584.064	21710.35
584.262	21392.91
584.459	21956.1
584.657	21333.52
584.854	21667.34
585.052	21124.63
585.249	21323.28
585.447	21354
585.644	21378.58
585.841	21036.56
586.039	21214.74
586.236	20876.82
586.434	21206.55
586.631	21057.04
586.828	20905.49
587.026	20745.75
587.223	20747.8
587.42	20712.99
587.618	20733.46
587.815	20518.43
588.012	20491.8
588.21	20350.49
588.407	20459.04
588.604	20545.05
588.801	20164.13
588.999	20334.11
589.196	20207.14
589.393	20301.34
589.59	20078.11
589.787	19871.27
589.984	20057.64
590.182	19756.58
590.379	20227.62
590.576	19656.23
590.773	19732.01
590.97	19615.27
591.167	19654.19
591.364	19275.31
591.561	19697.19
591.758	19318.32
591.955	19263.02
592.152	19592.75
592.349	19064.37
592.546	19289.65
592.743	19312.17
592.94	19213.87
593.137	19013.17
593.334	19113.52
593.531	18861.62
593.727	19134
593.924	18773.56
594.121	18566.71
594.318	18898.48
594.515	18619.96
594.712	18810.42
594.908	18554.43
595.105	18748.98
595.302	18579
595.499	18533.95
595.696	18296.38
595.892	18075.2
596.089	18226.75
596.286	18361.92
596.482	18218.56
596.679	18071.11
596.876	18136.64
597.072	18054.72
597.269	17843.78
597.466	17763.91
597.662	17763.91
597.859	17833.54
598.055	17798.73
598.252	17577.55
598.448	17555.02
598.645	17638.98
598.841	17538.63
599.038	17587.78
599.234	17522.25
599.431	17483.34
599.627	17235.53
599.824	17581.64
600.02	17086.03
600.217	17358.41
600.413	17237.58
600.609	16875.09
600.806	16879.19
601.002	16995.92
601.198	17053.27
601.395	16627.29
601.591	16914
601.787	16617.05
601.984	16584.28
602.18	16619.1
602.376	16662.1
602.572	16582.23
602.769	16629.34
602.965	16391.77
603.161	16490.07
603.357	16350.81
603.553	16152.16
603.75	16322.14
603.946	16025.18
604.142	16299.61
604.338	15844.96
604.534	16025.18
604.73	15814.24
604.926	15976.03
605.122	16113.25
605.318	15851.11
605.514	15779.43
605.71	15605.35
605.906	15588.97
606.102	15677.03
606.298	15654.5
606.494	15662.69
606.69	15537.77
606.886	15531.62
607.082	15373.93
607.278	15439.47
607.474	15316.59
607.67	15677.03
607.866	15064.69
608.062	15165.04
608.257	15154.8
608.453	15179.37
608.649	15199.85
608.845	14892.66
609.041	15154.8
609.236	15081.07
609.432	14993.01
609.628	15068.78
609.824	14849.65
610.019	14837.36
610.215	14747.25
610.411	14958.19
610.606	14888.56
610.802	14993.01
610.998	14857.84
611.193	14720.63
611.389	14665.33
611.584	14507.64
611.78	14487.16
611.976	14724.72
612.171	14702.2
612.367	14542.46
612.562	14605.94
612.758	13997.7
612.953	14421.63
613.149	14544.5
613.344	14270.08
613.539	14642.81
613.735	14409.34
613.93	14603.89
614.126	14343.8
614.321	14354.04
614.517	14388.86
614.712	14177.92
614.907	14177.92
615.103	14210.68
615.298	14067.33
615.493	13985.41
615.688	13983.36
615.884	14323.32
616.079	14003.84
616.274	14128.77
616.47	13860.48
616.665	13985.41
616.86	13901.44
617.055	13790.85
617.25	13653.64
617.445	13817.47
617.641	13676.16
617.836	13796.99
618.031	13522.57
618.226	13768.32
618.421	13686.4
618.616	13647.49
618.811	13346.44
619.006	13553.29
619.201	13344.39
619.396	13389.45
619.591	13295.24
619.786	13207.18
619.981	12699.28
620.176	12973.71
620.371	12779.15
620.566	12949.14
620.761	12967.57
620.956	13139.6
621.151	12705.43
621.346	12838.55
621.541	12551.83
621.735	12908.18
621.93	12519.06
622.125	12691.09
622.32	12328.6
622.515	12443.29
622.709	12293.79
622.904	12156.57
623.099	12025.5
623.294	12062.37
623.488	12031.65
623.683	12064.41
623.878	11959.97
624.072	12164.76
624.267	11759.27
624.462	12052.13
624.656	11480.74
624.851	11650.72
625.046	11384.49
625.24	11503.27
625.435	11409.06
625.629	11376.3
625.824	11556.52
626.018	11269.8
626.213	11075.24
626.407	11210.41
626.602	10761.91
626.796	11230.89
626.991	10946.22
627.185	10659.51
627.38	10790.58
627.574	10849.97
627.768	10596.02
627.963	10589.88
628.157	10524.34
628.352	10567.35
628.546	10395.32
628.74	10507.96
628.935	10368.7
629.129	10380.98
629.323	10188.47
629.517	10043.07
629.712	10243.77
629.906	9989.82
630.1	9893.57
630.294	10172.09
630.489	9868.99
630.683	9854.65
630.877	9735.87
631.071	9785.02
631.265	9836.22
631.459	9737.92
631.653	9475.78
631.848	9707.2
632.042	9535.17
632.236	9672.39
632.43	9316.04
632.624	9432.77
632.818	9375.43
633.012	9248.46
633.206	9361.09
633.4	9055.95
633.594	9168.59
633.788	8992.46
633.982	9064.14
634.176	9094.86
634.369	8914.64
634.563	8924.88
634.757	8994.51
634.951	8820.43
635.145	9021.13
635.339	8926.93
635.533	8709.84
635.726	8693.46
635.92	8593.11
636.114	8656.59
636.308	8459.99
636.501	8554.19
636.695	8554.19
636.889	8242.9
637.083	8298.2
637.276	8386.26
637.47	8324.82
637.664	8220.38
637.857	8120.03
638.051	8175.32
638.244	8253.14
638.438	8185.56
638.632	8167.13
638.825	7904.99
639.019	7890.65
639.212	7941.85
639.406	7886.56
639.599	7945.95
639.793	7730.91
639.986	7608.03
640.18	7845.6
640.373	7732.96
640.567	7460.58
640.76	7288.55
640.954	7573.22
641.147	7526.11
641.34	7376.61
641.534	7366.37
641.727	7323.37
641.92	7382.76
642.114	7124.71
642.307	7110.38
642.5	7268.07
642.694	6995.69
642.887	7134.95
643.08	7182.06
643.273	6909.68
643.467	6899.44
643.66	6868.72
643.853	6946.54
644.046	6807.28
644.239	6817.52
644.432	6538.99
644.626	6467.31
644.819	6708.97
645.012	6596.34
645.205	6708.97
645.398	6614.77
645.591	6373.11
645.784	6422.26
645.977	6356.72
646.17	6225.65
646.363	6309.62
646.556	6268.66
646.749	6137.59
646.942	6373.11
647.135	6323.96
647.328	6264.57
647.521	6006.52
647.714	6115.06
647.907	6074.1
648.099	6043.39
648.292	6139.64
648.485	6029.05
648.678	5928.7
648.871	5840.64
649.064	5732.09
649.256	5822.2
649.449	5807.87
649.642	5644.03
649.835	5744.38
650.027	5674.75
650.22	5658.37
650.413	5484.29
650.605	5670.65
650.798	5437.19
650.991	5560.06
651.183	5390.08
651.376	5373.7
651.568	5445.38
651.761	5439.23
651.954	5416.71
652.146	5398.27
652.339	5283.59
652.531	5265.16
652.724	5259.01
652.916	5170.95
653.109	5263.11
653.301	5162.76
653.494	5189.38
653.686	5220.1
653.879	5154.57
654.071	5109.51
654.263	4898.57
654.456	4933.39
654.648	5015.3
654.84	5005.06
655.033	4970.25
655.225	5015.3
655.417	4826.89
655.61	4919.05
655.802	4802.32
655.994	4677.39
656.186	4845.32
656.379	4810.51
656.571	4718.35
656.763	4652.81
656.955	4667.15
657.148	4636.43
657.34	4599.57
657.532	4546.32
657.724	4552.46
657.916	4546.32
658.108	4568.85
658.3	4433.68
658.492	4411.15
658.684	4556.56
658.876	4411.15
659.068	4249.36
659.26	4335.38
659.452	4400.91
659.644	4407.06
659.836	4214.55
660.028	4390.67
660.22	4161.3
660.412	4114.2
660.604	4151.06
660.796	4185.88
660.988	4120.34
661.18	4081.43
661.372	4079.38
661.563	4024.09
661.755	3972.89
661.947	4136.73
662.139	4196.12
662.331	3952.41
662.522	3997.46
662.714	3940.12
662.906	3839.77
663.097	3923.74
663.289	3864.35
663.481	3743.52
663.673	3962.65
663.864	3800.86
664.056	3731.23
664.247	3755.8
664.439	3643.17
664.631	3624.73
664.822	3690.27
665.014	3649.31
665.205	3594.01
665.397	3577.63
665.588	3669.79
665.78	3514.14
665.971	3526.43
666.163	3557.15
666.354	3501.86
666.546	3530.53
666.737	3528.48
666.929	3340.07
667.12	3579.68
667.311	3479.33
667.503	3358.5
667.694	3338.02
667.885	3378.98
668.077	3393.31
668.268	3327.78
668.459	3403.55
668.651	3335.97
668.842	3421.99
669.033	3245.86
669.224	3342.11
669.416	3335.97
669.607	3229.48
669.798	3233.57
669.989	3276.58
670.18	3352.35
670.371	3151.65
670.563	3223.33
670.754	3079.97
670.945	2991.91
671.136	3073.83
671.327	3112.74
671.518	3022.63
671.709	3073.83
671.9	3084.07
672.091	3055.4
672.282	3016.49
672.473	3116.84
672.664	2996.01
672.855	3067.69
673.046	3047.21
673.237	2926.38
673.428	3012.39
673.619	3084.07
673.809	2969.38
674	2873.13
674.191	2938.66
674.382	2899.75
674.573	2938.66
674.764	2856.75
674.954	2817.83
675.145	2897.71
675.336	2905.9
675.527	2871.08
675.717	2713.39
675.908	2848.55
676.099	2854.7
676.289	3014.44
676.48	2877.23
676.671	2758.44
676.861	2772.78
677.052	2811.69
677.243	2748.2
677.433	2772.78
677.624	2785.07
677.814	2801.45
678.005	2807.59
678.195	2748.2
678.386	2672.43
678.576	2742.06
678.767	2570.03
678.957	2692.91
679.148	2787.11
679.338	2733.87
679.529	2578.22
679.719	2551.6
679.909	2631.47
680.1	2668.33
680.29	2610.99
680.481	2598.7
680.671	2531.12
680.861	2651.95
681.052	2559.79
681.242	2670.38
681.432	2643.76
681.622	2490.16
681.813	2584.37
682.003	2516.78
682.193	2592.56
682.383	2473.78
682.573	2578.22
682.764	2486.06
682.954	2619.18
683.144	2553.65
683.334	2533.17
683.524	2594.61
683.714	2606.89
683.904	2586.41
684.094	2481.97
684.284	2522.93
684.474	2572.08
684.664	2621.23
684.854	2563.89
685.044	2477.87
685.234	2426.67
685.424	2504.5
685.614	2516.78
685.804	2379.57
685.994	2475.82
686.184	2453.3
686.374	2406.19
686.564	2490.16
686.753	2567.98
686.943	2463.54
687.133	2363.19
687.323	2516.78
687.513	2371.38
687.702	2473.78
687.892	2469.68
688.082	2377.52
688.272	2455.34
688.461	2434.86
688.651	2541.36
688.841	2305.84
689.03	2389.81
689.22	2373.43
689.41	2332.47
689.599	2291.51
689.789	2334.51
689.979	2398
690.168	2369.33
690.358	2344.75
690.547	2299.7
690.737	2242.36
690.926	2389.81
691.116	2314.03
691.305	2375.47
691.495	2291.51
691.684	2398
691.874	2299.7
692.063	2156.34
692.252	2211.64
692.442	2266.93
692.631	2225.97
692.82	2205.49
693.01	2213.68
693.199	2213.68
693.388	2266.93
693.578	2219.83
693.767	2391.86
693.956	2207.54
694.146	2176.82
694.335	2273.07
694.524	2182.96
694.713	2174.77
694.902	2156.34
695.092	2250.55
695.281	2178.87
695.47	2201.4
695.659	2146.1
695.848	2154.29
696.037	2158.39
696.226	2090.81
696.415	2217.78
696.604	2172.72
696.793	2090.81
696.982	2051.89
697.171	2031.41
697.36	2129.72
697.549	1978.17
697.738	2154.29
697.927	2113.33
698.116	2096.95
698.305	2019.13
698.494	2072.37
698.683	2115.38
698.872	2125.62
699.061	2037.56
699.25	2008.89
699.438	2088.76
699.627	2096.95
699.816	2064.18
700.005	2008.89
700.193	1957.69
700.382	2051.89
700.571	1965.88
700.76	2094.9
700.948	2051.89
701.137	2074.42
701.326	2144.05
701.514	2023.22
701.703	2043.7
701.892	1980.22
702.08	2043.7
702.269	2109.24
702.457	2031.41
702.646	2058.04
702.834	2004.79
703.023	1908.54
703.212	2086.71
703.4	2010.93
703.589	1931.06
703.777	2023.22
703.965	1990.45
704.154	1912.63
704.342	2012.98
704.531	1974.07
704.719	2000.69
704.907	1890.1
705.096	1873.72
705.284	2019.13
705.472	1959.74
705.661	1877.82
705.849	1822.52
706.037	1865.53
706.226	1902.39
706.414	1785.66
706.602	1836.86
706.79	1910.58
706.979	1830.71
707.167	1890.1
707.355	1931.06
707.543	1859.38
707.731	1888.06
707.919	1912.63
708.107	1877.82
708.296	1849.15
708.484	1746.75
708.672	1810.23
708.86	1810.23
709.048	1816.38
709.236	1859.38
709.424	1828.67
709.612	1873.72
709.8	1836.86
709.988	1840.95
710.176	1677.12
710.364	1867.58
710.551	1857.34
710.739	1804.09
710.927	1806.14
711.115	1744.7
711.303	1744.7
711.491	1906.49
711.679	1765.18
711.866	1652.54
712.054	1746.75
712.242	1734.46
712.43	1900.34
712.617	1779.51
712.805	1685.31
712.993	1881.91
713.181	1752.89
713.368	1799.99
713.556	1814.33
713.744	1775.42
713.931	1756.99
714.119	1703.74
714.306	1705.79
714.494	1689.4
714.682	1576.77
714.869	1697.6
715.057	1634.11
715.244	1681.21
715.432	1591.1
715.619	1636.16
715.807	1748.79
715.994	1619.77
716.182	1662.78
716.369	1687.36
716.556	1644.35
716.744	1660.73
716.931	1668.92
717.119	1605.44
717.306	1716.03
717.493	1609.53
717.681	1574.72
717.868	1568.57
718.055	1541.95
718.242	1556.29
718.43	1703.74
718.617	1623.87
718.804	1627.96
718.991	1599.29
719.179	1601.34
719.366	1599.29
719.553	1627.96
719.74	1652.54
719.927	1685.31
720.114	1572.67
720.301	1668.92
720.488	1597.24
720.676	1564.48
720.863	1531.71
721.05	1644.35
721.237	1539.9
721.424	1570.62
721.611	1437.5
721.798	1496.89
721.985	1578.81
722.172	1535.81
722.358	1584.96
722.545	1603.39
722.732	1376.06
722.919	1611.58
723.106	1648.44
723.293	1494.85
723.48	1558.33
723.667	1460.03
723.853	1556.29
724.04	1480.51
724.227	1621.82
724.414	1589.05
724.6	1447.74
724.787	1523.52
724.974	1447.74
725.161	1548.09
725.347	1433.41
725.534	1431.36
725.72	1417.02
725.907	1480.51
726.094	1494.85
726.28	1529.66
726.467	1527.61
726.653	1513.28
726.84	1498.94
727.027	1523.52
727.213	1472.32
727.4	1472.32
727.586	1480.51
727.773	1496.89
727.959	1388.35
728.145	1519.42
728.332	1339.2
728.518	1369.92
728.705	1371.97
728.891	1500.99
729.077	1410.88
729.264	1341.25
729.45	1447.74
729.636	1509.18
729.823	1335.1
730.009	1406.78
730.195	1296.19
730.382	1304.39
730.568	1449.79
730.754	1431.36
730.94	1412.93
731.126	1374.02
731.313	1464.13
731.499	1380.16
731.685	1472.32
731.871	1359.68
732.057	1365.82
732.243	1404.74
732.429	1374.02
732.615	1496.89
732.801	1398.59
732.987	1410.88
733.173	1365.82
733.359	1363.78
733.545	1296.19
733.731	1324.87
733.917	1341.25
734.103	1429.31
734.289	1359.68
734.475	1380.16
734.661	1433.41
734.847	1402.69
735.033	1388.35
735.219	1288
735.404	1457.98
735.59	1259.33
735.776	1402.69
735.962	1382.21
736.148	1451.84
736.333	1400.64
736.519	1337.15
736.705	1259.33
736.89	1322.82
737.076	1320.77
737.262	1308.48
737.447	1400.64
737.633	1382.21
737.819	1398.59
738.004	1195.84
738.19	1288
738.375	1257.28
738.561	1328.96
738.747	1275.71
738.932	1255.23
739.118	1232.71
739.303	1300.29
739.489	1357.63
739.674	1222.47
739.859	1337.15
740.045	1298.24
740.23	1242.95
740.416	1244.99
740.601	1210.18
740.786	1275.71
740.972	1226.56
741.157	1269.57
741.342	1242.95
741.528	1269.57
741.713	1316.67
741.898	1238.85
742.084	1261.38
742.269	1214.27
742.454	1181.51
742.639	1226.56
742.824	1199.94
743.01	1142.6
743.195	1244.99
743.38	1181.51
743.565	1234.75
743.75	1138.5
743.935	1208.13
744.12	1275.71
744.305	1201.99
744.49	1189.7
744.675	1120.07
744.86	1171.27
745.045	1259.33
745.23	1122.12
745.415	1240.9
745.6	1126.21
745.785	1120.07
745.97	1169.22
746.155	1040.2
746.34	1171.27
746.525	1161.03
746.71	1214.27
746.895	1140.55
747.079	1079.11
747.264	1146.69
747.449	1107.78
747.634	1077.06
747.819	1107.78
748.003	1085.25
748.188	982.85
748.373	1058.63
748.557	1034.05
748.742	1025.86
748.927	1017.67
749.111	1021.77
749.296	1062.73
749.481	1062.73
749.665	909.13
749.85	1056.58
750.034	1048.39
750.219	993.09
750.404	958.28
750.588	993.09
750.773	962.37
750.957	1007.43
751.141	935.75
751.326	945.99
751.51	995.14
751.695	1005.38
751.879	1023.81
752.064	919.37
752.248	1003.33
752.432	888.65
752.617	872.26
752.801	831.3
752.985	915.27
753.17	884.55
753.354	857.93
753.538	937.8
753.722	956.23
753.907	892.74
754.091	874.31
754.275	823.11
754.459	816.97
754.643	849.74
754.828	935.75
755.012	882.5
755.196	827.21
755.38	886.6
755.564	862.02
755.748	870.22
755.932	890.7
756.116	831.3
756.3	823.11
756.484	833.35
756.668	771.91
756.852	767.82
757.036	806.73
757.22	806.73
757.404	747.34
757.588	726.86
757.772	689.99
757.956	755.53
758.14	741.19
758.323	810.82
758.507	735.05
758.691	685.9
758.875	706.38
759.059	700.23
759.242	726.86
759.426	755.53
759.61	696.14
759.794	714.57
759.977	673.61
760.161	759.63
760.345	677.71
760.528	673.61
760.712	745.29
760.895	700.23
761.079	673.61
761.263	747.34
761.446	634.7
761.63	653.13
761.813	683.85
761.997	683.85
762.18	614.22
762.364	681.8
762.547	640.84
762.731	558.92
762.914	745.29
763.098	618.32
763.281	696.14
763.464	649.04
763.648	681.8
763.831	683.85
764.015	610.12
764.198	689.99
764.381	671.56
764.564	663.37
764.748	659.28
764.931	569.16
765.114	538.45
765.297	667.47
765.481	595.79
765.664	550.73
765.847	532.3
766.03	661.32
766.213	685.9
766.397	636.75
766.58	497.49
766.763	702.28
766.946	577.36
767.129	546.64
767.312	601.93
767.495	649.04
767.678	550.73
767.861	558.92
768.044	538.45
768.227	571.21
768.41	540.49
768.593	649.04
768.776	595.79
768.959	507.73
769.142	622.41
769.324	477.01
769.507	538.45
769.69	472.91
769.873	481.1
770.056	565.07
770.239	507.73
770.421	544.59
770.604	579.4
770.787	522.06
770.97	558.92
771.152	530.25
771.335	509.77
771.518	501.58
771.7	513.87
771.883	524.11
772.066	440.14
772.248	493.39
772.431	554.83
772.613	464.72
772.796	464.72
772.978	505.68
773.161	474.96
773.343	532.3
773.526	505.68
773.708	440.14
773.891	485.2
774.073	493.39
774.256	456.53
774.438	477.01
774.621	444.24
774.803	477.01
774.985	425.81
775.168	513.87
775.35	407.38
775.532	417.61
775.715	395.09
775.897	452.43
776.079	448.33
776.261	419.66
776.444	456.53
776.626	491.34
776.808	354.13
776.99	415.57
777.173	431.95
777.355	421.71
777.537	364.37
777.719	421.71
777.901	444.24
778.083	407.38
778.265	331.6
778.447	446.29
778.629	380.75
778.811	481.1
778.993	358.22
779.175	452.43
779.357	378.7
779.539	393.04
779.721	313.17
779.903	302.93
780.085	393.04
780.267	284.5
780.449	452.43
780.631	399.18
780.812	362.32
780.994	491.34
781.176	376.66
781.358	390.99
781.54	331.6
781.721	374.61
781.903	329.55
782.085	333.65
782.267	407.38
782.448	341.84
782.63	268.11
782.812	319.31
782.993	350.03
783.175	409.42
783.357	243.54
783.538	292.69
783.72	264.02
783.901	317.26
784.083	335.7
784.264	321.36
784.446	298.83
784.627	268.11
784.809	309.07
784.99	261.97
785.172	311.12
785.353	229.2
785.535	274.26
785.716	374.61
785.897	284.5
786.079	331.6
786.26	257.87
786.441	229.2
786.623	272.21
786.804	286.54
786.985	235.35
787.167	323.41
787.348	255.83
787.529	272.21
787.71	255.83
787.891	284.5
788.073	296.78
788.254	278.35
788.435	317.26
788.616	253.78
788.797	249.68
788.978	196.43
789.159	167.76
789.34	206.67
789.522	214.87
789.703	204.63
789.884	249.68
790.065	298.83
790.246	206.67
790.427	237.39
790.607	243.54
790.788	180.05
790.969	241.49
791.15	259.92
791.331	235.35
791.512	233.3
791.693	173.91
791.874	231.25
792.054	229.2
792.235	202.58
792.416	186.19
792.597	245.59
792.778	223.06
792.958	227.15
793.139	233.3
793.32	200.53
793.5	241.49
793.681	206.67
793.862	194.39
794.042	178
794.223	218.96
794.404	194.39
794.584	173.91
794.765	227.15
794.945	175.95
795.126	294.74
795.306	212.82
795.487	202.58
795.667	147.28
795.848	194.39
796.028	225.11
796.209	180.05
796.389	237.39
796.57	196.43
796.75	182.1
796.93	237.39
797.111	251.73
797.291	235.35
797.471	145.24
797.652	112.47
797.832	91.99
798.012	169.81
798.192	143.19
798.373	243.54
798.553	169.81
798.733	227.15
798.913	235.35
799.093	149.33
799.274	114.52
799.454	147.28
799.634	194.39
799.814	163.67
799.994	114.52
800.174	100.18
800.354	169.81
800.534	171.86
800.714	163.67
800.894	169.81
801.074	161.62
801.254	180.05
801.434	116.56
801.614	132.95
801.794	143.19
801.974	362.32
802.154	132.95
802.334	163.67
802.514	114.52
802.693	94.04
802.873	194.39
803.053	147.28
803.233	161.62
803.413	118.61
803.592	40.79
803.772	75.6
803.952	89.94
804.131	130.9
804.311	96.08
804.491	149.33
804.67	126.8
804.85	94.04
805.03	163.67
805.209	202.58
805.389	178
805.568	149.33
805.748	118.61
805.928	155.47
806.107	112.47
806.287	202.58
806.466	206.67
806.646	114.52
806.825	77.65
807.004	159.57
807.184	46.93
807.363	161.62
807.543	94.04
807.722	108.37
807.901	120.66
808.081	159.57
808.26	112.47
808.439	184.15
808.619	96.08
808.798	96.08
808.977	79.7
809.156	124.76
809.336	108.37
809.515	139.09
809.694	38.74
809.873	206.67
810.052	79.7
810.231	100.18
810.411	30.55
810.59	120.66
810.769	71.51
810.948	120.66
811.127	85.84
811.306	83.8
811.485	98.13
811.664	83.8
811.843	46.93
812.022	151.38
812.201	139.09
812.38	112.47
812.559	147.28
812.737	91.99
812.916	61.27
813.095	151.38
813.274	135
813.453	186.19
813.632	163.67
813.811	44.88
813.989	26.45
814.168	120.66
814.347	96.08
814.526	91.99
814.704	147.28
814.883	67.41
815.062	114.52
815.24	161.62
815.419	98.13
815.598	118.61
815.776	51.03
815.955	145.24
816.133	81.75
816.312	75.6
816.49	59.22
816.669	83.8
816.847	98.13
817.026	98.13
817.204	79.7
817.383	145.24
817.561	71.51
817.74	149.33
817.918	100.18
818.097	75.6
818.275	24.4
818.453	137.04
818.632	34.64
818.81	14.17
818.988	20.31
819.167	63.32
819.345	63.32
819.523	59.22
819.701	36.69
819.879	102.23
820.058	153.43
820.236	51.03
820.414	98.13
820.592	77.65
820.77	120.66
820.948	94.04
821.127	18.26
821.305	145.24
821.483	22.36
821.661	38.74
821.839	96.08
822.017	85.84
822.195	77.65
822.373	20.31
822.551	40.79
822.729	73.56
822.907	87.89
823.085	91.99
823.262	83.8
823.44	48.98
823.618	81.75
823.796	102.23
823.974	10.07
824.152	81.75
824.329	40.79
824.507	85.84
824.685	96.08
824.863	22.36
825.04	108.37
825.218	63.32
825.396	-12.46
825.574	-8.36
825.751	3.93
825.929	91.99
826.107	22.36
826.284	30.55
826.462	30.55
826.639	61.27
826.817	81.75
826.994	59.22
827.172	38.74
827.349	75.6
827.527	44.88
827.704	3.93
827.882	46.93
828.059	153.43
828.237	-0.17
828.414	79.7
828.591	12.12
828.769	3.93
828.946	24.4
829.124	124.76
829.301	34.64
829.478	61.27
829.655	5.97
829.833	102.23
830.01	34.64
830.187	51.03
830.364	-4.27
830.542	30.55
830.719	77.65
830.896	42.84
831.073	-10.41
831.25	65.36
831.427	24.4
831.604	16.21
831.782	14.17
831.959	30.55
832.136	24.4
832.313	28.5
832.49	46.93
832.667	120.66
832.844	22.36
833.021	77.65
833.198	24.4
833.374	18.26
833.551	5.97
833.728	22.36
833.905	53.08
834.082	22.36
834.259	28.5
834.436	53.08
834.612	42.84
834.789	61.27
834.966	79.7
835.143	10.07
835.319	38.74
835.496	-75.95
835.673	55.12
835.85	57.17
836.026	-4.27
836.203	57.17
836.38	-24.75
836.556	65.36
836.733	32.6
836.909	100.18
837.086	75.6
837.262	77.65
837.439	48.98
837.616	-16.55
837.792	96.08
837.968	-2.22
838.145	83.8
838.321	14.17
838.498	48.98
838.674	1.88
838.851	42.84
839.027	30.55
839.203	-4.27
839.38	40.79
839.556	-28.84
839.732	75.6
839.909	42.84
840.085	116.56
840.261	36.69
840.437	53.08
840.614	57.17
840.79	108.37
840.966	75.6
841.142	28.5
841.318	22.36
841.494	85.84
841.671	12.12
841.847	63.32
842.023	-49.32
842.199	18.26
842.375	63.32
842.551	18.26
842.727	46.93
842.903	36.69
843.079	-6.31
843.255	55.12
843.431	-4.27
843.607	85.84
843.783	26.45
843.959	1.88
844.134	-59.56
844.31	-41.13
844.486	26.45
844.662	112.47
844.838	8.02
845.013	42.84
845.189	-43.18
845.365	83.8
845.541	28.5
845.716	48.98
845.892	-4.27
846.068	-10.41
846.244	-61.61
846.419	48.98
846.595	75.6
846.77	51.03
846.946	67.41
847.122	30.55
847.297	24.4
847.473	-24.75
847.648	22.36
847.824	5.97
847.999	5.97
848.175	57.17
848.35	-16.55
848.526	8.02
848.701	30.55
848.876	61.27
849.052	38.74
849.227	5.97
849.403	-20.65
849.578	100.18
849.753	69.46
849.929	-20.65
850.104	-4.27
850.279	73.56
850.454	38.74
850.63	40.79
850.805	-20.65
850.98	36.69
851.155	24.4
851.33	-0.17
851.505	-4.27
851.681	-4.27
851.856	-37.03
852.031	32.6
852.206	71.51
852.381	-8.36
852.556	-14.51
852.731	73.56
852.906	14.17
853.081	26.45
853.256	14.17
853.431	34.64
853.606	3.93
853.781	36.69
853.956	-22.7
854.131	-2.22
854.305	-24.75
854.48	-84.14
854.655	42.84
854.83	71.51
855.005	5.97
855.18	16.21
855.354	28.5
855.529	-6.31
855.704	22.36
855.879	-12.46
856.053	5.97
856.228	48.98
856.403	-8.36
856.577	-4.27
856.752	53.08
856.926	5.97
857.101	48.98
857.276	-43.18
857.45	-0.17
857.625	-43.18
857.799	-26.79
857.974	71.51
858.148	-53.42
858.323	-26.79
858.497	-6.31
858.672	28.5
858.846	-67.75
859.02	-37.03
859.195	-0.17
859.369	-14.51
859.543	40.79
859.718	100.18
859.892	53.08
860.066	-2.22
860.241	12.12
860.415	32.6
860.589	48.98
860.763	61.27
860.938	46.93
861.112	-20.65
861.286	10.07
861.46	1.88
861.634	57.17
861.808	48.98
861.982	16.21
862.157	57.17
862.331	118.61
862.505	46.93
862.679	-47.27
862.853	-2.22
863.027	-14.51
863.201	61.27
863.375	98.13
863.549	20.31
863.722	-49.32
863.896	63.32
864.07	-10.41
864.244	61.27
864.418	16.21
864.592	61.27
864.766	75.6
864.939	30.55
865.113	100.18
865.287	48.98
865.461	-47.27
865.634	-8.36
865.808	-24.75
865.982	-0.17
866.156	59.22
866.329	-2.22
866.503	36.69
866.676	44.88
866.85	-30.89
867.024	96.08
867.197	-37.03
867.371	65.36
867.544	51.03
867.718	-59.56
867.891	46.93
868.065	-47.27
868.238	-69.8
868.412	63.32
868.585	-16.55
868.759	-8.36
868.932	-24.75
869.105	-20.65
869.279	61.27
869.452	-82.09
869.625	38.74
869.799	42.84
869.972	-18.6
870.145	96.08
870.319	-32.94
870.492	8.02
870.665	8.02
870.838	24.4
871.011	32.6
871.185	10.07
871.358	-32.94
871.531	-10.41
871.704	-20.65
871.877	-28.84
872.05	10.07
872.223	-4.27
872.396	1.88
872.569	42.84
872.742	61.27
872.915	69.46
873.088	-18.6
873.261	-32.94
873.434	-24.75
873.607	77.65
873.78	24.4
873.953	24.4
874.126	57.17
874.299	3.93
874.471	16.21
874.644	-26.79
874.817	5.97
874.99	-8.36
875.163	36.69
875.335	14.17
875.508	-39.08
875.681	48.98
875.853	59.22
876.026	38.74
876.199	-63.66
876.371	34.64
876.544	-2.22
876.717	-4.27
876.889	16.21
877.062	16.21
877.234	34.64
877.407	5.97
877.579	-55.47
877.752	-53.42
877.924	40.79
878.097	18.26
878.269	38.74
878.442	5.97
878.614	-34.99
878.786	10.07
878.959	36.69
879.131	53.08
879.303	-18.6
879.476	81.75
879.648	44.88
879.82	16.21
879.993	-16.55
880.165	61.27
880.337	-10.41
880.509	34.64
880.681	1.88
880.854	-32.94
881.026	-57.51
881.198	51.03
881.37	-51.37
881.542	26.45
881.714	-37.03
881.886	77.65
882.058	-18.6
882.23	20.31
882.402	20.31
882.574	26.45
882.746	16.21
882.918	-22.7
883.09	32.6
883.262	-0.17
883.434	18.26
883.606	-49.32
883.778	42.84
883.95	14.17
884.122	-0.17
884.293	-18.6
884.465	16.21
884.637	30.55
884.809	36.69
884.98	5.97
885.152	5.97
885.324	65.36
885.496	-0.17
885.667	-2.22
885.839	-43.18
886.011	63.32
886.182	5.97
886.354	63.32
886.525	-112.81
886.697	-47.27
886.869	14.17
887.04	-4.27
887.212	-14.51
887.383	-8.36
887.555	12.12
887.726	36.69
887.897	-90.28
888.069	40.79
888.24	-0.17
888.412	83.8
888.583	10.07
888.754	-2.22
888.926	-0.17
889.097	-45.23
889.268	-8.36
889.44	18.26
889.611	38.74
889.782	-0.17
889.953	38.74
890.125	-28.84
890.296	-51.37
890.467	-34.99
890.638	-28.84
890.809	46.93
890.98	40.79
891.151	57.17
891.323	-4.27
891.494	16.21
891.665	-0.17
891.836	22.36
892.007	14.17
892.178	-55.47
892.349	-18.6
892.52	-26.79
892.691	61.27
892.862	-24.75
893.032	3.93
893.203	-24.75
893.374	63.32
893.545	42.84
893.716	42.84
893.887	-26.79
894.057	-39.08
894.228	34.64
894.399	14.17
894.57	5.97
894.74	-0.17
894.911	51.03
895.082	-8.36
895.253	63.32
895.423	10.07
895.594	8.02
895.764	16.21
895.935	1.88
896.106	42.84
896.276	8.02
896.447	61.27
896.617	-12.46
896.788	-0.17
896.958	3.93
897.129	38.74
897.299	32.6
897.47	69.46
897.64	-30.89
897.81	36.69
897.981	40.79
898.151	-6.31
898.322	10.07
898.492	30.55
898.662	30.55
898.832	-26.79
899.003	-28.84
899.173	-4.27
899.343	5.97
899.513	-26.79
