Data from USB4F104151__9__12-58-27-220.txt Node

Date: Fri Mar 14 12:58:27 EDT 2025
User: louis
Spectrometer: USB4F10415
Trigger mode: 4
Integration Time (sec): 1.000000E-2
Scans to average: 1
Electric dark correction enabled: true
Nonlinearity correction enabled: false
Boxcar width: 0
XAxis mode: Wavelengths
Number of Pixels in Spectrum: 3648
>>>>>Begin Spectral Data<<<<<
178.204	-30.55
178.424	-30.55
178.644	-30.55
178.864	-55.12
179.084	-63.32
179.304	-42.84
179.524	-14.17
179.744	-40.79
179.964	-8.02
180.184	-22.36
180.404	-14.17
180.624	4.27
180.844	45.23
181.064	-1.88
181.283	28.84
181.503	2.22
181.723	63.66
181.943	-42.84
182.163	-26.45
182.383	12.46
182.602	-16.21
182.822	-12.12
183.042	8.36
183.262	-18.26
183.482	0.17
183.701	16.55
183.921	-5.97
184.141	-10.07
184.361	39.08
184.58	-36.69
184.8	-8.02
185.02	-1.88
185.239	45.23
185.459	-48.98
185.679	-20.31
185.898	45.23
186.118	-8.02
186.338	18.6
186.557	30.89
186.777	34.99
186.997	-34.64
187.216	20.65
187.436	51.37
187.655	4.27
187.875	59.56
188.095	4.27
188.314	-14.17
188.534	32.94
188.753	67.75
188.973	4.27
189.192	-32.6
189.412	30.89
189.631	45.23
189.851	-77.65
190.07	59.56
190.29	-44.88
190.509	28.84
190.729	-14.17
190.948	-65.36
191.168	53.42
191.387	34.99
191.607	32.94
191.826	-5.97
192.045	39.08
192.265	-16.21
192.484	65.71
192.704	-34.64
192.923	4.27
193.142	24.75
193.362	-8.02
193.581	-10.07
193.8	2.22
194.02	-8.02
194.239	51.37
194.458	8.36
194.678	-8.02
194.897	2.22
195.116	75.95
195.335	49.32
195.555	22.7
195.774	65.71
195.993	-20.31
196.212	-3.93
196.432	-5.97
196.651	-55.12
196.87	41.13
197.089	26.79
197.308	-73.56
197.528	41.13
197.747	0.17
197.966	32.94
198.185	-18.26
198.404	18.6
198.623	-5.97
198.842	8.36
199.062	-20.31
199.281	-38.74
199.5	18.6
199.719	2.22
199.938	-10.07
200.157	-12.12
200.376	-10.07
200.595	34.99
200.814	-48.98
201.033	12.46
201.252	47.27
201.471	94.38
201.69	43.18
201.909	96.43
202.128	92.33
202.347	-12.12
202.566	55.47
202.785	6.31
203.004	26.79
203.223	26.79
203.442	-10.07
203.661	-10.07
203.879	55.47
204.098	32.94
204.317	41.13
204.536	34.99
204.755	6.31
204.974	45.23
205.193	-36.69
205.411	51.37
205.63	-61.27
205.849	-63.32
206.068	-12.12
206.287	-22.36
206.505	14.51
206.724	-14.17
206.943	-5.97
207.162	-38.74
207.381	2.22
207.599	-20.31
207.818	-3.93
208.037	-12.12
208.255	-10.07
208.474	-36.69
208.693	26.79
208.911	16.55
209.13	-55.12
209.349	-65.36
209.567	-14.17
209.786	34.99
210.005	-16.21
210.223	-16.21
210.442	-12.12
210.661	4.27
210.879	-30.55
211.098	-26.45
211.316	-16.21
211.535	-26.45
211.753	10.41
211.972	-18.26
212.191	59.56
212.409	55.47
212.628	-1.88
212.846	59.56
213.065	63.66
213.283	24.75
213.502	2.22
213.72	18.6
213.938	37.03
214.157	41.13
214.375	-57.17
214.594	-5.97
214.812	22.7
215.031	-8.02
215.249	-42.84
215.467	-40.79
215.686	-51.03
215.904	65.71
216.122	8.36
216.341	4.27
216.559	26.79
216.778	6.31
216.996	-5.97
217.214	16.55
217.432	-5.97
217.651	24.75
217.869	-3.93
218.087	41.13
218.306	22.7
218.524	47.27
218.742	-24.4
218.96	57.51
219.179	20.65
219.397	2.22
219.615	-5.97
219.833	-12.12
220.051	26.79
220.27	4.27
220.488	4.27
220.706	-87.89
220.924	-38.74
221.142	77.99
221.36	-51.03
221.578	53.42
221.796	-69.46
222.015	-14.17
222.233	-69.46
222.451	-16.21
222.669	-77.65
222.887	-24.4
223.105	24.75
223.323	-48.98
223.541	30.89
223.759	-24.4
223.977	73.9
224.195	86.19
224.413	26.79
224.631	4.27
224.849	-18.26
225.067	49.32
225.285	47.27
225.503	37.03
225.721	125.1
225.939	16.55
226.157	77.99
226.375	12.46
226.592	4.27
226.81	-22.36
227.028	-14.17
227.246	57.51
227.464	-14.17
227.682	20.65
227.9	30.89
228.117	47.27
228.335	80.04
228.553	-5.97
228.771	-44.88
228.989	6.31
229.206	86.19
229.424	-3.93
229.642	41.13
229.86	34.99
230.077	-12.12
230.295	-10.07
230.513	20.65
230.731	82.09
230.948	16.55
231.166	26.79
231.384	14.51
231.601	61.61
231.819	32.94
232.037	47.27
232.254	-1.88
232.472	32.94
232.689	24.75
232.907	-5.97
233.125	47.27
233.342	22.7
233.56	20.65
233.777	45.23
233.995	-65.36
234.213	59.56
234.43	-42.84
234.648	24.75
234.865	39.08
235.083	37.03
235.3	-46.93
235.518	30.89
235.735	0.17
235.953	16.55
236.17	-36.69
236.388	-12.12
236.605	53.42
236.822	116.9
237.04	-26.45
237.257	8.36
237.475	-69.46
237.692	26.79
237.909	-98.13
238.127	63.66
238.344	14.51
238.562	65.71
238.779	8.36
238.996	-79.7
239.214	2.22
239.431	41.13
239.648	30.89
239.865	-59.22
240.083	-24.4
240.3	-44.88
240.517	-36.69
240.735	49.32
240.952	6.31
241.169	-12.12
241.386	4.27
241.603	26.79
241.821	-26.45
242.038	34.99
242.255	10.41
242.472	-22.36
242.689	-22.36
242.907	45.23
243.124	-65.36
243.341	-8.02
243.558	-14.17
243.775	-38.74
243.992	-20.31
244.209	-8.02
244.426	10.41
244.643	4.27
244.86	8.36
245.078	-75.6
245.295	12.46
245.512	24.75
245.729	-46.93
245.946	51.37
246.163	-26.45
246.38	141.48
246.597	-1.88
246.814	-10.07
247.031	-55.12
247.248	73.9
247.464	-61.27
247.681	0.17
247.898	-28.5
248.115	43.18
248.332	61.61
248.549	12.46
248.766	49.32
248.983	0.17
249.2	18.6
249.417	26.79
249.633	14.51
249.85	-8.02
250.067	-38.74
250.284	-16.21
250.501	125.1
250.717	-5.97
250.934	-79.7
251.151	-48.98
251.368	-3.93
251.585	43.18
251.801	-65.36
252.018	73.9
252.235	0.17
252.451	-34.64
252.668	-10.07
252.885	57.51
253.102	16.55
253.318	18.6
253.535	-12.12
253.752	65.71
253.968	-5.97
254.185	32.94
254.401	49.32
254.618	-44.88
254.835	10.41
255.051	22.7
255.268	-30.55
255.484	51.37
255.701	-3.93
255.917	4.27
256.134	65.71
256.351	-8.02
256.567	-87.89
256.784	-40.79
257	-77.65
257.217	20.65
257.433	-5.97
257.65	0.17
257.866	-16.21
258.082	57.51
258.299	24.75
258.515	-28.5
258.732	22.7
258.948	16.55
259.165	10.41
259.381	12.46
259.597	-16.21
259.814	18.6
260.03	-67.41
260.246	51.37
260.463	24.75
260.679	24.75
260.895	51.37
261.112	34.99
261.328	41.13
261.544	-1.88
261.761	37.03
261.977	32.94
262.193	-8.02
262.409	69.8
262.626	-44.88
262.842	69.8
263.058	-79.7
263.274	51.37
263.49	4.27
263.707	28.84
263.923	88.23
264.139	75.95
264.355	-102.23
264.571	-28.5
264.787	55.47
265.004	26.79
265.22	26.79
265.436	18.6
265.652	14.51
265.868	59.56
266.084	18.6
266.3	14.51
266.516	2.22
266.732	24.75
266.948	-8.02
267.164	41.13
267.38	53.42
267.596	45.23
267.812	28.84
268.028	-16.21
268.244	57.51
268.46	59.56
268.676	-12.12
268.892	45.23
269.108	-89.94
269.324	53.42
269.54	53.42
269.756	2.22
269.972	47.27
270.188	65.71
270.403	-32.6
270.619	-18.26
270.835	-30.55
271.051	108.71
271.267	28.84
271.483	6.31
271.698	-22.36
271.914	12.46
272.13	16.55
272.346	0.17
272.562	43.18
272.777	-1.88
272.993	-79.7
273.209	34.99
273.425	0.17
273.64	-55.12
273.856	57.51
274.072	55.47
274.287	-44.88
274.503	-8.02
274.719	16.55
274.934	-24.4
275.15	-22.36
275.366	-16.21
275.581	4.27
275.797	-30.55
276.012	75.95
276.228	-22.36
276.444	28.84
276.659	8.36
276.875	8.36
277.09	0.17
277.306	-57.17
277.521	32.94
277.737	34.99
277.952	10.41
278.168	32.94
278.383	-48.98
278.599	24.75
278.814	24.75
279.03	26.79
279.245	63.66
279.461	37.03
279.676	-3.93
279.892	-14.17
280.107	-26.45
280.322	16.55
280.538	20.65
280.753	-98.13
280.969	-57.17
281.184	10.41
281.399	22.7
281.615	-14.17
281.83	106.67
282.045	16.55
282.26	-5.97
282.476	-12.12
282.691	20.65
282.906	-12.12
283.122	30.89
283.337	69.8
283.552	41.13
283.767	-30.55
283.983	8.36
284.198	-1.88
284.413	67.75
284.628	16.55
284.843	55.47
285.058	10.41
285.274	-55.12
285.489	14.51
285.704	-3.93
285.919	-18.26
286.134	-36.69
286.349	20.65
286.564	22.7
286.779	37.03
286.995	-36.69
287.21	-22.36
287.425	86.19
287.64	55.47
287.855	-110.42
288.07	49.32
288.285	14.51
288.5	12.46
288.715	53.42
288.93	51.37
289.145	-16.21
289.36	37.03
289.575	43.18
289.79	49.32
290.004	-28.5
290.219	-22.36
290.434	8.36
290.649	32.94
290.864	73.9
291.079	0.17
291.294	-42.84
291.509	-42.84
291.724	37.03
291.938	20.65
292.153	-8.02
292.368	37.03
292.583	73.9
292.798	32.94
293.012	10.41
293.227	-32.6
293.442	-16.21
293.657	-10.07
293.871	6.31
294.086	32.94
294.301	-16.21
294.516	30.89
294.73	-53.08
294.945	-16.21
295.16	2.22
295.374	86.19
295.589	14.51
295.804	0.17
296.018	-14.17
296.233	34.99
296.447	57.51
296.662	41.13
296.877	-8.02
297.091	14.51
297.306	-18.26
297.52	20.65
297.735	41.13
297.949	-32.6
298.164	-32.6
298.378	2.22
298.593	55.47
298.807	43.18
299.022	2.22
299.236	-36.69
299.451	18.6
299.665	82.09
299.88	65.71
300.094	30.89
300.309	10.41
300.523	47.27
300.737	8.36
300.952	37.03
301.166	-18.26
301.381	45.23
301.595	10.41
301.809	-42.84
302.024	-44.88
302.238	-30.55
302.452	18.6
302.667	-14.17
302.881	24.75
303.095	63.66
303.309	24.75
303.524	-14.17
303.738	18.6
303.952	16.55
304.166	-26.45
304.381	-69.46
304.595	53.42
304.809	-30.55
305.023	55.47
305.237	16.55
305.452	41.13
305.666	-73.56
305.88	73.9
306.094	-36.69
306.308	20.65
306.522	-16.21
306.736	10.41
306.95	-10.07
307.164	59.56
307.379	22.7
307.593	22.7
307.807	14.51
308.021	106.67
308.235	26.79
308.449	71.85
308.663	-22.36
308.877	61.61
309.091	20.65
309.305	49.32
309.519	10.41
309.733	12.46
309.947	-12.12
310.161	10.41
310.374	69.8
310.588	59.56
310.802	8.36
311.016	41.13
311.23	100.52
311.444	14.51
311.658	6.31
311.872	47.27
312.085	45.23
312.299	73.9
312.513	30.89
312.727	16.55
312.941	12.46
313.154	-1.88
313.368	-14.17
313.582	24.75
313.796	12.46
314.009	-16.21
314.223	90.28
314.437	16.55
314.651	73.9
314.864	-18.26
315.078	135.34
315.292	22.7
315.505	-8.02
315.719	39.08
315.933	26.79
316.146	10.41
316.36	12.46
316.573	41.13
316.787	-51.03
317.001	53.42
317.214	26.79
317.428	53.42
317.641	-42.84
317.855	16.55
318.068	22.7
318.282	2.22
318.495	65.71
318.709	114.86
318.922	-40.79
319.136	39.08
319.349	26.79
319.563	6.31
319.776	37.03
319.99	-48.98
320.203	-5.97
320.417	73.9
320.63	-24.4
320.843	49.32
321.057	32.94
321.27	86.19
321.483	-3.93
321.697	30.89
321.91	67.75
322.124	24.75
322.337	32.94
322.55	28.84
322.763	32.94
322.977	-12.12
323.19	10.41
323.403	2.22
323.617	-1.88
323.83	-18.26
324.043	14.51
324.256	94.38
324.469	59.56
324.683	57.51
324.896	86.19
325.109	65.71
325.322	-8.02
325.535	2.22
325.748	30.89
325.962	-16.21
326.175	12.46
326.388	6.31
326.601	12.46
326.814	20.65
327.027	-10.07
327.24	-20.31
327.453	37.03
327.666	16.55
327.879	61.61
328.092	10.41
328.305	-30.55
328.518	-26.45
328.731	34.99
328.944	24.75
329.157	-26.45
329.37	-24.4
329.583	-10.07
329.796	73.9
330.009	12.46
330.222	12.46
330.435	51.37
330.648	22.7
330.861	16.55
331.073	-22.36
331.286	55.47
331.499	-42.84
331.712	-40.79
331.925	10.41
332.138	-20.31
332.35	67.75
332.563	39.08
332.776	63.66
332.989	69.8
333.202	-14.17
333.414	-36.69
333.627	0.17
333.84	-65.36
334.053	47.27
334.265	18.6
334.478	51.37
334.691	47.27
334.903	2.22
335.116	12.46
335.329	-12.12
335.541	-5.97
335.754	59.56
335.966	-5.97
336.179	98.47
336.392	0.17
336.604	49.32
336.817	51.37
337.029	57.51
337.242	-12.12
337.454	30.89
337.667	69.8
337.88	32.94
338.092	18.6
338.305	123.05
338.517	-55.12
338.729	24.75
338.942	37.03
339.154	-42.84
339.367	-44.88
339.579	47.27
339.792	4.27
340.004	63.66
340.217	57.51
340.429	-5.97
340.641	-34.64
340.854	34.99
341.066	34.99
341.278	61.61
341.491	-14.17
341.703	2.22
341.915	30.89
342.128	24.75
342.34	39.08
342.552	24.75
342.764	61.61
342.977	-20.31
343.189	139.43
343.401	51.37
343.613	49.32
343.826	-8.02
344.038	2.22
344.25	37.03
344.462	47.27
344.674	-75.6
344.886	18.6
345.099	6.31
345.311	22.7
345.523	37.03
345.735	-63.32
345.947	73.9
346.159	59.56
346.371	0.17
346.583	-36.69
346.795	53.42
347.007	2.22
347.219	-14.17
347.431	24.75
347.643	20.65
347.855	-14.17
348.067	65.71
348.279	-8.02
348.491	100.52
348.703	69.8
348.915	51.37
349.127	2.22
349.339	51.37
349.551	-85.84
349.763	45.23
349.975	-30.55
350.187	16.55
350.399	12.46
350.61	-28.5
350.822	45.23
351.034	43.18
351.246	-28.5
351.458	26.79
351.669	6.31
351.881	26.79
352.093	67.75
352.305	-24.4
352.517	12.46
352.728	63.66
352.94	2.22
353.152	34.99
353.363	41.13
353.575	43.18
353.787	63.66
353.999	28.84
354.21	53.42
354.422	6.31
354.633	24.75
354.845	39.08
355.057	80.04
355.268	-40.79
355.48	18.6
355.692	51.37
355.903	16.55
356.115	24.75
356.326	22.7
356.538	49.32
356.749	-24.4
356.961	73.9
357.172	-8.02
357.384	12.46
357.595	30.89
357.807	-24.4
358.018	104.62
358.23	18.6
358.441	43.18
358.653	2.22
358.864	22.7
359.075	-22.36
359.287	61.61
359.498	24.75
359.709	-3.93
359.921	41.13
360.132	-14.17
360.344	-3.93
360.555	39.08
360.766	67.75
360.977	0.17
361.189	51.37
361.4	-22.36
361.611	73.9
361.823	-1.88
362.034	28.84
362.245	65.71
362.456	34.99
362.667	108.71
362.879	-30.55
363.09	20.65
363.301	-26.45
363.512	14.51
363.723	0.17
363.935	-3.93
364.146	67.75
364.357	18.6
364.568	6.31
364.779	-26.45
364.99	49.32
365.201	18.6
365.412	75.95
365.623	12.46
365.834	49.32
366.045	41.13
366.256	-44.88
366.467	-12.12
366.678	32.94
366.889	18.6
367.1	116.9
367.311	-42.84
367.522	69.8
367.733	0.17
367.944	22.7
368.155	22.7
368.366	-40.79
368.577	30.89
368.788	28.84
368.999	-5.97
369.209	10.41
369.42	-5.97
369.631	12.46
369.842	-28.5
370.053	53.42
370.264	59.56
370.474	-59.22
370.685	32.94
370.896	43.18
371.107	-8.02
371.317	59.56
371.528	-1.88
371.739	-44.88
371.95	-32.6
372.16	32.94
372.371	14.51
372.582	-65.36
372.792	4.27
373.003	59.56
373.214	77.99
373.424	-1.88
373.635	-34.64
373.846	67.75
374.056	16.55
374.267	71.85
374.477	37.03
374.688	-55.12
374.898	20.65
375.109	51.37
375.319	69.8
375.53	82.09
375.74	-46.93
375.951	4.27
376.161	6.31
376.372	88.23
376.582	6.31
376.793	100.52
377.003	10.41
377.214	-14.17
377.424	26.79
377.635	-38.74
377.845	47.27
378.055	10.41
378.266	4.27
378.476	-16.21
378.686	-44.88
378.897	65.71
379.107	16.55
379.317	16.55
379.528	26.79
379.738	28.84
379.948	-3.93
380.158	39.08
380.369	55.47
380.579	-40.79
380.789	26.79
380.999	45.23
381.21	-18.26
381.42	12.46
381.63	-57.17
381.84	-34.64
382.05	75.95
382.261	73.9
382.471	-16.21
382.681	59.56
382.891	0.17
383.101	32.94
383.311	59.56
383.521	43.18
383.731	41.13
383.941	61.61
384.151	57.51
384.361	86.19
384.571	24.75
384.781	73.9
384.991	-8.02
385.201	12.46
385.411	12.46
385.621	67.75
385.831	75.95
386.041	41.13
386.251	0.17
386.461	123.05
386.671	12.46
386.881	37.03
387.091	96.43
387.301	8.36
387.511	28.84
387.72	12.46
387.93	80.04
388.14	-10.07
388.35	26.79
388.56	-85.84
388.769	108.71
388.979	82.09
389.189	125.1
389.399	16.55
389.609	2.22
389.818	8.36
390.028	45.23
390.238	32.94
390.447	24.75
390.657	37.03
390.867	20.65
391.076	-38.74
391.286	30.89
391.496	43.18
391.705	49.32
391.915	65.71
392.125	108.71
392.334	32.94
392.544	-28.5
392.753	69.8
392.963	-59.22
393.172	30.89
393.382	82.09
393.591	65.71
393.801	41.13
394.01	92.33
394.22	20.65
394.429	6.31
394.639	43.18
394.848	10.41
395.058	-14.17
395.267	18.6
395.477	151.72
395.686	114.86
395.895	69.8
396.105	28.84
396.314	110.76
396.524	53.42
396.733	24.75
396.942	47.27
397.152	57.51
397.361	94.38
397.57	-20.31
397.78	53.42
397.989	32.94
398.198	65.71
398.407	53.42
398.617	125.1
398.826	37.03
399.035	-24.4
399.244	43.18
399.453	98.47
399.663	77.99
399.872	90.28
400.081	63.66
400.29	55.47
400.499	65.71
400.708	43.18
400.917	98.47
401.127	24.75
401.336	10.41
401.545	92.33
401.754	108.71
401.963	147.62
402.172	39.08
402.381	63.66
402.59	-32.6
402.799	49.32
403.008	100.52
403.217	47.27
403.426	57.51
403.635	106.67
403.844	61.61
404.053	106.67
404.262	77.99
404.471	37.03
404.68	49.32
404.888	125.1
405.097	59.56
405.306	110.76
405.515	143.53
405.724	112.81
405.933	61.61
406.142	98.47
406.35	172.2
406.559	100.52
406.768	92.33
406.977	53.42
407.185	129.19
407.394	100.52
407.603	137.38
407.812	172.2
408.02	106.67
408.229	149.67
408.438	53.42
408.646	159.91
408.855	98.47
409.064	155.82
409.272	151.72
409.481	155.82
409.69	176.3
409.898	149.67
410.107	135.34
410.315	168.1
410.524	172.2
410.733	166.06
410.941	116.9
411.15	204.97
411.358	213.16
411.567	200.87
411.775	213.16
411.984	272.55
412.192	303.27
412.401	313.51
412.609	256.17
412.818	286.89
413.026	342.18
413.234	327.85
413.443	340.13
413.651	262.31
413.86	411.81
414.068	344.23
414.276	331.94
414.485	385.19
414.693	417.96
414.901	446.63
415.11	444.58
415.318	383.14
415.526	420
415.734	546.98
415.943	473.25
416.151	469.16
416.359	452.77
416.567	567.46
416.776	501.92
416.984	567.46
417.192	665.76
417.4	589.99
417.608	528.55
417.817	585.89
418.025	690.34
418.233	778.4
418.441	725.15
418.649	684.19
418.857	768.16
419.065	721.06
419.273	766.11
419.481	895.13
419.689	880.8
419.897	874.65
420.105	972.96
420.313	917.66
420.521	999.58
420.729	1007.77
420.937	1026.2
421.145	983.2
421.353	1130.65
421.561	1200.28
421.769	1147.03
421.977	1077.4
422.185	1245.34
422.393	1372.31
422.601	1360.02
422.809	1368.21
423.017	1380.5
423.224	1460.37
423.432	1499.28
423.64	1450.13
423.848	1585.3
424.056	1593.49
424.263	1786
424.471	1745.04
424.679	1808.53
424.887	1878.16
425.094	1849.49
425.302	1953.93
425.51	1837.2
425.718	1878.16
425.925	2140.3
426.133	1974.41
426.341	2228.36
426.548	2492.55
426.756	2437.25
426.964	2257.03
427.171	2498.69
427.379	2521.22
427.586	2549.89
427.794	2605.19
428.001	2793.6
428.209	3027.07
428.417	2875.52
428.624	3149.95
428.832	3022.97
429.039	3074.17
429.247	3000.44
429.454	3317.88
429.662	3612.79
429.869	3254.39
430.076	3573.88
430.284	3522.68
430.491	3676.27
430.699	3893.36
430.906	3754.1
431.114	3967.09
431.321	3985.52
431.528	4161.64
431.736	4300.91
431.943	4616.29
432.15	4358.25
432.358	4493.41
432.565	4874.34
432.772	4841.57
432.979	5019.74
433.187	5070.94
433.394	5195.87
433.601	5572.69
433.808	5404.76
434.016	5498.97
434.223	5714
434.43	5974.1
434.637	5922.9
434.844	6295.63
435.052	6463.56
435.259	6389.83
435.466	6492.23
435.673	6240.33
435.88	6844.48
436.087	7241.79
436.294	7147.58
436.501	6946.88
436.708	7149.63
436.915	7620.66
437.122	7606.33
437.329	7702.58
437.537	7847.99
437.743	8069.17
437.95	7884.85
438.157	8511.53
438.364	8785.96
438.571	8644.65
438.778	8794.15
438.985	9564.18
439.192	9224.22
439.399	9510.94
439.606	9326.62
439.813	9576.47
440.02	10430.48
440.227	10020.88
440.433	9949.2
440.64	10229.77
440.847	10395.66
441.054	10649.61
441.261	11388.92
441.467	11227.14
441.674	11589.63
441.881	12283.89
442.088	11718.65
442.294	11714.55
442.501	11972.6
442.708	12066.8
442.914	12785.64
443.121	13244.38
443.328	12996.58
443.534	13975.51
443.741	13502.43
443.948	13379.55
444.154	14239.7
444.361	14202.83
444.568	14434.25
444.774	14444.49
444.981	14614.48
445.187	14622.67
445.394	15687.61
445.6	15407.04
445.807	16797.61
446.013	16052.15
446.22	16400.3
446.426	16992.17
446.633	17274.79
446.839	17792.92
447.046	17127.33
447.252	18239.38
447.459	18036.63
447.665	18182.04
447.871	18941.83
448.078	19711.87
448.284	18890.63
448.491	19277.7
448.697	19902.33
448.903	20402.04
449.11	20399.99
449.316	20234.1
449.522	20402.04
449.728	21280.61
449.935	21120.87
450.141	21018.47
450.347	21938.01
450.553	21157.74
450.76	21415.78
450.966	22064.99
451.172	21866.33
451.378	22523.73
451.584	22040.41
451.791	22691.66
451.997	22439.76
452.203	23060.3
452.409	22789.97
452.615	22798.16
452.821	21946.2
453.027	21692.26
453.233	22787.92
453.44	22056.79
453.646	22529.87
453.852	22615.89
454.058	22671.18
454.264	21862.24
454.47	22341.46
454.676	22247.26
454.882	22671.18
455.088	20465.52
455.294	20840.3
455.5	21509.99
455.705	21655.39
455.911	20649.84
456.117	20569.97
456.323	20135.8
456.529	19113.86
456.735	19828.6
456.941	19412.87
457.147	19009.42
457.352	18737.04
457.558	18136.98
457.764	18272.15
457.97	17907.61
458.176	17661.85
458.381	17491.87
458.587	16613.29
458.793	16793.51
458.999	15843.26
459.204	17063.85
459.41	16424.88
459.616	15402.94
459.821	15454.14
460.027	15296.45
460.233	14913.48
460.438	14213.07
460.644	14700.49
460.85	13805.53
461.055	13764.57
461.261	13592.54
461.466	12736.49
461.672	12218.35
461.878	13041.64
462.083	12374
462.289	11851.77
462.494	11673.59
462.7	11165.7
462.905	10870.79
463.111	11386.88
463.316	11204.61
463.522	11309.05
463.727	11264
463.932	11120.64
464.138	10977.28
464.343	11151.36
464.549	10786.82
464.754	11163.65
464.959	11005.95
465.165	10858.5
465.37	10520.59
465.575	10190.86
465.781	10653.7
465.986	10764.29
466.191	10317.84
466.397	10084.37
466.602	9687.06
466.807	10033.17
467.012	9957.39
467.218	9990.16
467.423	9910.29
467.628	9760.79
467.833	10348.56
468.038	9928.72
468.244	9582.62
468.449	10080.27
468.654	9764.89
468.859	9553.94
469.064	9596.95
469.269	9396.25
469.474	9283.61
469.679	9533.47
469.885	9109.54
470.09	9463.83
470.295	9211.93
470.5	9052.19
470.705	9148.45
470.91	8857.64
471.115	8788
471.32	8699.94
471.525	9007.14
471.73	8736.81
471.935	8654.89
472.139	8468.52
472.344	8376.36
472.549	8351.79
472.754	8269.87
472.959	8222.77
473.164	8003.63
473.369	7790.64
473.574	8261.68
473.778	7845.94
473.983	8101.94
474.188	7970.87
474.393	7452.73
474.598	7557.18
474.802	7540.79
475.007	7393.34
475.212	7434.3
475.417	7290.94
475.621	7333.95
475.826	7282.75
476.031	7163.97
476.235	7090.24
476.44	7202.88
476.645	6844.48
476.849	6891.59
477.054	6940.74
477.259	6920.26
477.463	6703.17
477.668	6637.64
477.872	6764.61
478.077	6594.63
478.282	6406.22
478.486	6465.61
478.691	6236.24
478.895	6400.07
479.1	6191.18
479.304	6342.73
479.509	6027.34
479.713	6375.5
479.918	6064.21
480.122	5881.94
480.326	6094.93
480.531	6125.65
480.735	6062.16
480.94	5908.56
481.144	6172.75
481.348	5853.27
481.553	5834.83
481.757	5744.72
481.961	5863.51
482.166	5955.66
482.37	5838.93
482.574	5810.26
482.778	5812.31
482.983	6070.35
483.187	5820.5
483.391	5857.36
483.595	5697.62
483.8	5513.3
484.004	5804.11
484.208	5980.24
484.412	5718.1
484.616	5845.07
484.821	5732.44
485.025	5791.83
485.229	5828.69
485.433	5658.71
485.637	5859.41
485.841	5677.14
486.045	5769.3
486.249	5890.13
486.453	5666.9
486.657	5824.59
486.861	5826.64
487.065	5541.97
487.269	5875.79
487.473	5748.82
487.677	5865.55
487.881	5812.31
488.085	5752.91
488.289	5808.21
488.493	5673.04
488.697	5939.28
488.901	5775.44
489.105	5777.49
489.309	5845.07
489.512	5828.69
489.716	5976.14
489.92	5744.72
490.124	5920.85
490.328	5918.8
490.531	5810.26
490.735	6258.76
490.939	6039.63
491.143	6019.15
491.346	5970
491.55	6193.23
491.754	6082.64
491.958	6074.45
492.161	6023.25
492.365	6180.94
492.569	6015.05
492.772	6170.7
492.976	6269
493.18	6062.16
493.383	6340.68
493.587	6289.48
493.79	6377.55
493.994	6357.07
494.197	6283.34
494.401	6484.04
494.605	6455.37
494.808	6590.53
495.012	6576.2
495.215	6844.48
495.419	6678.6
495.622	6672.45
495.825	6639.69
496.029	6809.67
496.232	6783.04
496.436	6758.47
496.639	7041.09
496.843	7075.9
497.046	7252.03
497.249	7270.46
497.453	7237.69
497.656	7264.32
497.859	7288.89
498.063	7540.79
498.266	7686.2
498.469	7442.49
498.673	7790.64
498.876	7784.5
499.079	8013.87
499.282	7839.8
499.485	7964.72
499.689	8134.7
499.892	8278.06
500.095	8288.3
500.298	8513.58
500.501	8368.17
500.705	8591.4
500.908	8548.39
501.111	8853.54
501.314	8810.53
501.517	9000.99
501.72	9072.67
501.923	9127.97
502.126	9150.5
502.329	9461.79
502.532	9611.29
502.735	9486.36
502.938	9715.73
503.141	9797.65
503.344	10012.69
503.547	9912.34
503.75	9996.31
503.953	10352.65
504.156	10516.49
504.359	10467.34
504.562	10522.63
504.765	10764.29
504.968	10835.97
505.17	11067.39
505.373	11173.89
505.576	11145.22
505.779	11339.77
505.982	11317.25
506.185	11720.7
506.387	11479.04
506.59	11571.19
506.793	11841.53
506.996	12064.75
507.198	12357.61
507.401	12400.62
507.604	12488.68
507.807	12791.78
508.009	12929
508.212	13152.23
508.415	13010.92
508.617	13254.62
508.82	13311.97
509.022	13299.68
509.225	13764.57
509.428	13494.24
509.63	14170.07
509.833	13969.37
510.035	14329.81
510.238	14415.82
510.44	14516.17
510.643	14690.25
510.845	14991.3
511.048	14954.44
511.25	15136.71
511.453	15259.59
511.655	15714.23
511.858	15572.93
512.06	15806.39
512.262	15802.3
512.465	15622.08
512.667	16148.4
512.87	16291.76
513.072	16476.08
513.274	16646.06
513.477	17139.62
513.679	16996.26
513.881	17174.44
514.084	17305.51
514.286	17262.5
514.488	17461.15
514.69	17899.42
514.893	18147.22
515.095	18136.98
515.297	18401.17
515.499	18583.44
515.701	18669.45
515.904	18931.59
516.106	19224.45
516.308	19244.93
516.51	19593.09
516.712	19425.15
516.914	19738.49
517.116	20287.35
517.318	19931
517.52	20162.42
517.722	20526.96
517.925	20688.75
518.127	20758.38
518.329	20965.23
518.531	21145.45
518.733	21493.6
518.935	21634.91
519.136	21712.74
519.338	21864.29
519.54	22138.71
519.742	22458.2
519.944	22239.06
520.146	22959.95
520.348	22732.62
520.55	22845.26
520.752	23029.58
520.954	23492.42
521.155	23277.38
521.357	23537.48
521.559	23955.26
521.761	23863.1
521.963	24014.65
522.164	24510.26
522.366	24590.13
522.568	24653.62
522.77	24694.58
522.971	25120.56
523.173	24926
523.375	25173.8
523.576	25499.43
523.778	25333.54
523.98	25943.84
524.181	26007.33
524.383	25759.52
524.584	26160.92
524.786	26279.71
524.988	26222.36
525.189	26416.92
525.391	26711.83
525.592	26668.82
525.794	26971.92
525.995	27217.68
526.197	27033.36
526.398	27168.52
526.6	27127.56
526.801	27336.46
527.003	27631.37
527.204	27373.32
527.406	27692.8
527.607	27682.56
527.808	27852.55
528.01	27660.04
528.211	27969.28
528.412	28135.17
528.614	28147.45
528.815	28337.91
529.016	28724.98
529.218	28303.1
529.419	27946.75
529.62	28370.68
529.822	28428.02
530.023	28518.14
530.224	28358.39
530.425	28813.04
530.626	28239.61
530.828	28348.15
531.029	29089.52
531.23	28663.54
531.431	28641.01
531.632	28829.43
531.833	28913.39
532.035	28940.02
532.236	29011.7
532.437	29257.45
532.638	28872.43
532.839	28923.63
533.04	29400.81
533.241	28616.44
533.442	29566.7
533.643	29046.51
533.844	29060.85
534.045	29204.21
534.246	29040.37
534.447	29187.82
534.648	28948.21
534.849	29314.8
535.05	29023.98
535.251	29304.56
535.451	29175.53
535.652	29421.29
535.853	29325.04
536.054	29118.19
536.255	29417.19
536.456	29069.04
536.657	29777.64
536.857	29402.86
537.058	29196.01
537.259	29435.63
537.46	29136.62
537.66	29077.23
537.861	29368.04
538.062	28903.15
538.263	29300.46
538.463	29417.19
538.664	29112.05
538.865	29279.98
539.065	29372.14
539.266	29122.29
539.466	29611.75
539.667	29062.9
539.868	29167.34
540.068	29359.85
540.269	29103.85
540.469	29331.18
540.67	29245.16
540.87	29075.18
541.071	28899.06
541.271	29652.71
541.472	28849.91
541.672	28874.48
541.873	28892.91
542.073	28647.16
542.274	29316.84
542.474	29058.8
542.675	28796.66
542.875	29222.64
543.075	29241.07
543.276	28757.75
543.476	29224.68
543.676	29046.51
543.877	29091.57
544.077	28901.11
544.277	28827.38
544.478	29126.38
544.678	29284.08
544.878	29198.06
545.078	29189.87
545.279	29034.22
545.479	28958.45
545.679	28884.72
545.879	29060.85
546.079	28931.83
546.28	28831.47
546.48	28505.85
546.68	28647.16
546.88	29114.09
547.08	28874.48
547.28	28686.07
547.48	28737.27
547.68	29050.61
547.88	28352.25
548.081	29269.74
548.281	28946.16
548.481	28802.8
548.681	28860.15
548.881	28903.15
549.081	28864.24
549.28	28858.1
549.48	29185.77
549.68	28823.28
549.88	28976.88
550.08	28702.45
550.28	28968.69
550.48	28638.97
550.68	28872.43
550.88	28167.93
551.08	28532.47
551.279	28901.11
551.479	28530.42
551.679	28737.27
551.879	28786.42
552.079	28659.45
552.278	28657.4
552.478	28440.31
552.678	28765.94
552.878	28946.16
553.077	28497.66
553.277	28196.6
553.477	28784.37
553.676	28389.11
553.876	28798.71
554.076	28641.01
554.275	28399.35
554.475	28403.45
554.674	28409.59
554.874	28614.39
555.074	28335.87
555.273	28657.4
555.473	28491.51
555.672	28075.77
555.872	28256
556.071	28696.31
556.271	28733.17
556.47	28360.44
556.67	28323.58
556.869	27991.81
557.068	28503.8
557.268	28430.07
557.467	27965.18
557.667	28124.93
557.866	28137.21
558.065	28120.83
558.265	28022.53
558.464	27746.05
558.663	28178.17
558.863	27580.17
559.062	28118.78
559.261	27584.26
559.461	28002.05
559.66	27410.18
559.859	27623.17
560.058	27387.66
560.258	27549.45
560.457	27397.9
560.656	27668.23
560.855	27713.28
561.054	27397.9
561.253	27115.28
561.453	27432.71
561.652	27246.35
561.851	27365.13
562.05	26949.39
562.249	26937.1
562.448	27651.84
562.647	27207.44
562.846	27096.85
563.045	26959.63
563.244	26816.27
563.443	27238.16
563.642	26828.56
563.841	26785.55
564.04	26976.02
564.239	27172.62
564.438	26818.32
564.637	27027.21
564.836	26918.67
565.035	26382.1
565.234	26812.18
565.432	26560.28
565.631	26306.33
565.83	26519.32
566.029	26672.92
566.228	26267.42
566.427	26406.68
566.625	26181.4
566.824	26126.11
567.023	26242.84
567.222	25984.8
567.42	26013.47
567.619	26189.6
567.818	26036
568.016	26003.23
568.215	26044.19
568.414	25624.36
568.612	26187.55
568.811	25691.94
569.01	25528.1
569.208	25456.42
569.407	25499.43
569.605	25333.54
569.804	25702.18
570.002	25476.9
570.201	25347.88
570.4	25249.58
570.598	25360.17
570.797	24901.42
570.995	25165.61
571.193	24694.58
571.392	25394.98
571.59	24999.73
571.789	24993.58
571.987	24694.58
572.186	24858.42
572.384	24547.12
572.582	24723.25
572.781	25079.6
572.979	24131.39
573.177	24440.63
573.376	24307.51
573.574	24352.57
573.772	24184.63
573.971	24145.72
574.169	24172.35
574.367	23932.73
574.565	24172.35
574.763	23818.05
574.962	24043.32
575.16	23756.61
575.358	23897.92
575.556	23353.16
575.754	24096.57
575.952	23351.11
576.151	24059.71
576.349	23480.13
576.547	23603.01
576.745	23318.34
576.943	23387.97
577.141	23476.04
577.339	23207.75
577.537	23344.97
577.735	23131.98
577.933	23056.2
578.131	23000.91
578.329	22835.02
578.527	22816.59
578.725	23091.02
578.923	22974.28
579.121	22861.65
579.319	22689.62
579.516	22775.63
579.714	22708.05
579.912	22425.43
580.11	22540.11
580.308	22525.78
580.506	22089.56
580.704	21968.73
580.901	22232.92
581.099	22200.15
581.297	22118.23
581.495	22038.36
581.692	22081.37
581.89	21716.83
582.088	21819.23
582.285	21677.92
582.483	22077.27
582.681	21827.42
582.878	21620.58
583.076	21583.71
583.274	21743.45
583.471	21000.04
583.669	21542.75
583.866	21233.51
584.064	21374.82
584.262	21180.26
584.459	21055.34
584.657	20819.82
584.854	21466.98
585.052	20967.27
585.249	21294.95
585.447	20690.8
585.644	20811.63
585.841	20721.52
586.039	20819.82
586.236	20713.33
586.434	20569.97
586.631	20674.42
586.828	20516.72
587.026	20655.98
587.223	20500.34
587.42	20440.95
587.618	20205.43
587.815	20270.97
588.012	20225.91
588.21	20123.51
588.407	20242.29
588.604	20191.09
588.801	20074.36
588.999	19824.51
589.196	19926.91
589.393	19568.51
589.59	19609.47
589.787	19533.7
589.984	19687.29
590.182	19410.82
590.379	19619.71
590.576	19474.31
590.773	19423.11
590.97	19580.8
591.167	19328.9
591.364	18876.3
591.561	19105.67
591.758	18876.3
591.955	19021.7
592.152	19222.41
592.349	19218.31
592.546	19195.78
592.743	18931.59
592.94	18429.84
593.137	18884.49
593.334	18573.2
593.531	18741.13
593.727	18571.15
593.924	18831.24
594.121	18327.44
594.318	18558.86
594.515	18464.66
594.712	18390.93
594.908	18212.76
595.105	18208.66
595.302	18126.74
595.499	18044.82
595.696	18153.37
595.892	17960.86
596.089	17874.84
596.286	17809.31
596.482	18120.6
596.679	17995.67
596.876	17801.12
597.072	17559.45
597.269	17538.98
597.466	17784.73
597.662	17549.21
597.859	17524.64
598.055	17446.82
598.252	17317.79
598.448	17579.93
598.645	17203.11
598.841	16977.83
599.038	16926.63
599.234	17031.08
599.431	17018.79
599.627	17067.94
599.824	16979.88
600.02	16986.02
600.217	17000.36
600.413	17014.7
600.609	16705.45
600.806	16709.55
601.002	16662.44
601.198	16457.65
601.395	16570.29
601.591	16566.19
601.787	16621.49
601.984	16238.51
602.18	16678.83
602.376	16385.97
602.572	16338.87
602.769	16228.28
602.965	16222.13
603.161	16048.05
603.357	16211.89
603.553	15980.47
603.75	16103.35
603.946	15820.73
604.142	15982.52
604.338	15501.25
604.534	15777.72
604.73	15462.33
604.926	15468.48
605.122	15593.4
605.318	15626.17
605.514	15341.5
605.71	15421.38
605.906	15404.99
606.102	15345.6
606.298	15224.77
606.494	15228.87
606.69	15296.45
606.886	15460.29
607.082	15200.19
607.278	15290.31
607.474	15058.88
607.67	14917.58
607.866	14944.2
608.062	15169.48
608.257	14880.71
608.453	14917.58
608.649	15132.61
608.845	14995.4
609.041	14825.42
609.236	14815.18
609.432	14876.62
609.628	14852.04
609.824	14706.63
610.019	14622.67
610.215	14663.63
610.411	14806.98
610.606	14454.73
610.802	14700.49
610.998	14467.02
611.193	14628.81
611.389	14499.79
611.584	14309.33
611.78	14282.7
611.976	14190.55
612.171	14348.24
612.367	14391.25
612.562	14399.44
612.758	14002.13
612.953	13995.99
613.149	14403.53
613.344	14282.7
613.539	14348.24
613.735	13971.41
613.93	14125.01
614.126	14182.35
614.321	14094.29
614.517	14110.68
614.712	13778.9
614.907	13879.25
615.103	14092.24
615.298	14067.67
615.493	13903.83
615.688	13619.16
615.884	14051.28
616.079	13606.88
616.274	13838.3
616.47	13623.26
616.665	13772.76
616.86	13834.2
617.055	13748.18
617.25	13426.65
617.445	13772.76
617.641	13264.86
617.836	13342.69
618.031	13326.3
618.226	13338.59
618.421	13146.08
618.616	13387.74
618.811	13195.23
619.006	13453.28
619.201	13228
619.396	13228
619.591	12740.58
619.786	12924.9
619.981	12734.44
620.176	12883.94
620.371	12828.65
620.566	12781.54
620.761	12560.36
620.956	12804.07
621.151	12509.16
621.346	12675.05
621.541	12374
621.735	12433.39
621.93	12181.49
622.125	12308.46
622.32	12324.85
622.515	12193.78
622.709	12003.32
622.904	11999.22
623.099	11993.08
623.294	11958.26
623.488	11708.41
623.683	12023.8
623.878	11831.29
624.072	11835.38
624.267	11622.39
624.462	11577.34
624.656	11458.56
624.851	11567.1
625.046	11298.81
625.24	11587.58
625.435	11124.74
625.629	11323.39
625.824	11005.95
626.018	11206.66
626.213	11057.15
626.407	11003.91
626.602	10870.79
626.796	10829.83
626.991	11098.11
627.185	10860.55
627.38	10690.57
627.574	10528.78
627.768	10608.65
627.963	10366.99
628.157	10401.8
628.352	10416.14
628.546	10166.29
628.74	10446.86
628.935	10356.75
629.129	10307.6
629.323	10197.01
629.517	10162.19
629.712	9998.35
629.906	9990.16
630.1	9756.69
630.294	9975.83
630.489	9779.22
630.683	9850.9
630.877	9682.97
631.071	9644.06
631.265	9627.67
631.459	9599
631.653	9502.75
631.848	9560.09
632.042	9390.11
632.236	9457.69
632.43	9314.33
632.624	9324.57
632.818	9187.36
633.012	9281.57
633.206	9074.72
633.4	9121.82
633.594	9084.96
633.788	9011.23
633.982	9197.6
634.176	8849.44
634.369	8994.85
634.563	8921.12
634.757	8912.93
634.951	8644.65
635.145	8575.02
635.339	8685.61
635.533	8472.62
635.726	8511.53
635.92	8349.74
636.114	8509.48
636.308	8400.94
636.501	8292.4
636.695	8278.06
636.889	8380.46
637.083	8167.47
637.276	8200.24
637.47	8110.13
637.664	8032.3
637.857	8257.58
638.051	8235.05
638.244	7747.64
638.438	7893.04
638.632	7970.87
638.825	7829.56
639.019	7737.4
639.212	7817.27
639.406	7923.76
639.599	7675.96
639.793	7559.22
639.986	7530.55
640.18	7436.35
640.373	7413.82
640.567	7532.6
640.76	7553.08
640.954	7297.08
641.147	7299.13
641.34	7245.88
641.534	7176.25
641.727	7184.45
641.92	7254.08
642.114	7180.35
642.307	7069.76
642.5	7104.57
642.694	7028.8
642.887	6932.54
643.08	6920.26
643.273	7055.42
643.467	6891.59
643.66	6701.12
643.853	6836.29
644.046	6735.94
644.239	6832.19
644.432	6613.06
644.626	6711.36
644.819	6504.52
645.012	6481.99
645.205	6570.05
645.398	6475.85
645.591	6441.03
645.784	6477.9
645.977	6471.75
646.17	6203.47
646.363	6295.63
646.556	6010.96
646.749	6191.18
646.942	6142.03
647.135	6203.47
647.328	6160.46
647.521	6148.17
647.714	6064.21
647.907	5984.34
648.099	5986.38
648.292	6158.41
648.485	5922.9
648.678	5759.06
648.871	5916.75
649.064	5949.52
649.256	5877.84
649.449	5728.34
649.642	5630.04
649.835	5574.74
650.027	5509.21
650.22	5458.01
650.413	5505.11
650.605	5689.43
650.798	5488.73
650.991	5468.25
651.183	5472.34
651.376	5445.72
651.568	5367.9
651.761	5369.94
651.954	5398.62
652.146	5312.6
652.339	5193.82
652.531	5185.63
652.724	5177.44
652.916	5095.52
653.109	5202.01
653.301	5118.04
653.494	5193.82
653.686	4997.21
653.879	5099.61
654.071	5122.14
654.263	5052.51
654.456	5001.31
654.648	5021.79
654.84	4917.34
655.033	4870.24
655.225	4896.86
655.417	4923.49
655.61	4862.05
655.802	4845.66
655.994	4685.92
656.186	4690.02
656.379	4730.98
656.571	4671.59
656.763	4548.71
656.955	4667.49
657.148	4524.13
657.34	4671.59
657.532	4522.09
657.724	4462.69
657.916	4540.52
658.108	4573.28
658.3	4489.32
658.492	4415.59
658.684	4300.91
658.876	4364.39
659.068	4294.76
659.26	4233.32
659.452	4257.9
659.644	4391.02
659.836	4235.37
660.028	4212.84
660.22	4200.55
660.412	4333.67
660.604	4192.36
660.796	4280.43
660.988	4032.62
661.18	3987.57
661.372	4096.11
661.563	4167.79
661.755	4049
661.947	4003.95
662.139	4112.49
662.331	4069.48
662.522	3879.02
662.714	3893.36
662.906	3981.42
663.097	3962.99
663.289	3858.54
663.481	3836.02
663.673	3696.75
663.864	3719.28
664.056	3868.78
664.247	3836.02
664.439	3739.76
664.631	3623.03
664.822	3774.58
665.014	3752.05
665.205	3631.22
665.397	3653.75
665.588	3575.92
665.78	3453.05
665.971	3586.16
666.163	3473.53
666.354	3547.25
666.546	3590.26
666.737	3418.23
666.929	3545.2
667.12	3534.96
667.311	3487.86
667.503	3348.6
667.694	3397.75
667.885	3401.85
668.077	3285.11
668.268	3362.94
668.459	3270.78
668.651	3326.07
668.842	3317.88
669.033	3227.77
669.224	3285.11
669.416	3151.99
669.607	3287.16
669.798	3168.38
669.989	3123.32
670.18	3199.1
670.371	3115.13
670.563	3129.47
670.754	3070.08
670.945	3086.46
671.136	3192.95
671.327	3035.26
671.518	3035.26
671.709	3065.98
671.9	3141.75
672.091	2971.77
672.282	3106.94
672.473	3006.59
672.664	3072.12
672.855	2951.29
673.046	2971.77
673.237	3041.4
673.428	2875.52
673.619	2828.42
673.809	2996.35
674	2963.58
674.191	2875.52
674.382	2875.52
674.573	2916.48
674.764	2984.06
674.954	2857.09
675.145	2809.98
675.336	2838.66
675.527	2824.32
675.717	2842.75
675.908	2633.86
676.099	2832.51
676.289	2814.08
676.48	2809.98
676.671	2680.96
676.861	2752.64
677.052	2787.46
677.243	2644.1
677.433	2689.15
677.624	2693.25
677.814	2748.54
678.005	2713.73
678.195	2613.38
678.386	2644.1
678.576	2560.13
678.767	2547.84
678.957	2660.48
679.148	2773.12
679.338	2631.81
679.529	2568.32
679.719	2668.67
679.909	2547.84
680.1	2613.38
680.29	2635.91
680.481	2498.69
680.671	2527.36
680.861	2494.6
681.052	2629.76
681.242	2549.89
681.432	2529.41
681.622	2615.43
681.813	2594.95
682.003	2527.36
682.193	2463.88
682.383	2564.23
682.573	2535.56
682.764	2547.84
682.954	2429.06
683.144	2529.41
683.334	2418.82
683.524	2478.21
683.714	2506.88
683.904	2459.78
684.094	2517.12
684.284	2453.64
684.474	2506.88
684.664	2474.12
684.854	2445.45
685.044	2453.64
685.234	2529.41
685.424	2435.21
685.614	2496.64
685.804	2396.29
685.994	2447.49
686.184	2478.21
686.374	2443.4
686.564	2205.83
686.753	2361.48
686.943	2361.48
687.133	2367.62
687.323	2392.2
687.513	2375.81
687.702	2410.63
687.892	2259.08
688.082	2236.55
688.272	2320.52
688.461	2404.49
688.651	2424.97
688.841	2338.95
689.03	2334.86
689.22	2377.86
689.41	2336.9
689.599	2369.67
689.789	2322.57
689.979	2248.84
690.168	2275.46
690.358	2203.79
690.547	2234.5
690.737	2191.5
690.926	2242.7
691.116	2177.16
691.305	2199.69
691.495	2220.17
691.684	2093.19
691.874	2152.59
692.063	2123.91
692.252	2242.7
692.442	2361.48
692.631	2263.18
692.82	2220.17
693.01	2140.3
693.199	2054.28
693.388	2109.58
693.578	2142.35
693.767	2007.18
693.956	2173.07
694.146	2072.72
694.335	2123.91
694.524	2117.77
694.713	2136.2
694.902	2076.81
695.092	2103.43
695.281	2128.01
695.47	2101.39
695.659	2031.76
695.848	2054.28
696.037	2037.9
696.226	2064.52
696.415	2074.76
696.604	1964.17
696.793	2080.91
696.982	2007.18
697.171	1958.03
697.36	2082.95
697.549	2097.29
697.738	2117.77
697.927	2015.37
698.116	1943.69
698.305	2035.85
698.494	2017.42
698.683	1945.74
698.872	2033.8
699.061	2009.23
699.25	1958.03
699.438	1968.27
699.627	1839.25
699.816	1964.17
700.005	1968.27
700.193	1980.56
700.382	2025.61
700.571	1953.93
700.76	1890.45
700.948	1896.59
701.137	1984.65
701.326	1892.49
701.514	1886.35
701.703	1949.84
701.892	1962.12
702.08	1923.21
702.269	1939.6
702.457	1837.2
702.646	1861.77
702.834	1839.25
703.023	1915.02
703.212	1880.21
703.4	1742.99
703.589	1853.58
703.777	1876.11
703.965	1833.1
704.154	1888.4
704.342	1851.53
704.531	1749.14
704.719	1896.59
704.907	1876.11
705.096	1847.44
705.284	1874.06
705.472	1904.78
705.661	1769.62
705.849	1833.1
706.037	1763.47
706.226	1794.19
706.414	1640.59
706.602	1822.86
706.79	1927.31
706.979	1769.62
707.167	1783.95
707.355	1706.13
707.543	1753.23
707.731	1779.86
707.919	1904.78
708.107	1818.77
708.296	1810.58
708.484	1829.01
708.672	1724.56
708.86	1843.34
709.048	1796.24
709.236	1714.32
709.424	1777.81
709.612	1820.81
709.8	1661.07
709.988	1755.28
710.176	1788.05
710.364	1730.7
710.551	1659.03
710.739	1695.89
710.927	1675.41
711.115	1788.05
711.303	1661.07
711.491	1677.46
711.679	1734.8
711.866	1689.74
712.054	1759.38
712.242	1747.09
712.43	1732.75
712.617	1646.74
712.805	1607.83
712.993	1599.63
713.181	1585.3
713.368	1712.27
713.556	1560.72
713.744	1652.88
713.931	1550.48
714.119	1648.79
714.306	1548.44
714.494	1585.3
714.682	1693.84
714.869	1671.31
715.057	1669.27
715.244	1665.17
715.432	1575.06
715.619	1575.06
715.807	1517.72
715.994	1597.59
716.182	1566.87
716.369	1654.93
716.556	1607.83
716.744	1585.3
716.931	1593.49
717.119	1714.32
717.306	1646.74
717.493	1589.39
717.681	1650.83
717.868	1581.2
718.055	1616.02
718.242	1616.02
718.43	1521.81
718.617	1628.31
718.804	1575.06
718.991	1527.96
719.179	1624.21
719.366	1542.29
719.553	1587.35
719.74	1566.87
719.927	1507.48
720.114	1466.52
720.301	1482.9
720.488	1468.56
720.676	1474.71
720.863	1501.33
721.05	1579.15
721.237	1519.76
721.424	1511.57
721.611	1446.04
721.798	1521.81
721.985	1525.91
722.172	1538.2
722.358	1517.72
722.545	1448.08
722.732	1396.89
722.919	1472.66
723.106	1376.41
723.293	1464.47
723.48	1452.18
723.667	1478.8
723.853	1382.55
724.04	1368.21
724.227	1476.76
724.414	1460.37
724.6	1353.88
724.787	1456.28
724.974	1400.98
725.161	1458.32
725.347	1487
725.534	1394.84
725.72	1482.9
725.907	1403.03
726.094	1333.4
726.28	1335.45
726.467	1394.84
726.653	1314.97
726.84	1433.75
727.027	1405.08
727.213	1378.45
727.4	1351.83
727.586	1443.99
727.773	1343.64
727.959	1452.18
728.145	1368.21
728.332	1435.8
728.518	1384.6
728.705	1433.75
728.891	1325.21
729.077	1364.12
729.264	1415.32
729.45	1384.6
729.636	1327.25
729.823	1409.17
730.009	1384.6
730.195	1421.46
730.382	1376.41
730.568	1327.25
730.754	1343.64
730.94	1405.08
731.126	1319.06
731.313	1376.41
731.499	1323.16
731.685	1370.26
731.871	1284.25
732.057	1312.92
732.243	1319.06
732.429	1392.79
732.615	1443.99
732.801	1243.29
732.987	1417.37
733.173	1333.4
733.359	1458.32
733.545	1355.93
733.731	1335.45
733.917	1314.97
734.103	1302.68
734.289	1327.25
734.475	1368.21
734.661	1345.69
734.847	1345.69
735.033	1396.89
735.219	1331.35
735.404	1329.3
735.59	1357.97
735.776	1245.34
735.962	1239.19
736.148	1306.77
736.333	1200.28
736.519	1239.19
736.705	1360.02
736.89	1294.49
737.076	1183.9
737.262	1196.18
737.447	1294.49
737.633	1265.82
737.819	1323.16
738.004	1280.15
738.19	1231
738.375	1241.24
738.561	1206.42
738.747	1224.86
738.932	1343.64
739.118	1296.53
739.303	1251.48
739.489	1198.23
739.674	1292.44
739.859	1204.38
740.045	1204.38
740.23	1200.28
740.416	1185.94
740.601	1206.42
740.786	1212.57
740.972	1132.7
741.157	1235.1
741.342	1149.08
741.528	1220.76
741.713	1267.86
741.898	1196.18
742.084	1224.86
742.269	1200.28
742.454	1097.88
742.639	1233.05
742.824	1132.7
743.01	1149.08
743.195	1138.84
743.38	1112.22
743.565	1114.27
743.75	1157.27
743.935	1058.97
744.12	1126.55
744.305	1114.27
744.49	1147.03
744.675	1173.66
744.86	1151.13
745.045	1157.27
745.23	1155.23
745.415	966.81
745.6	1050.78
745.785	1061.02
745.97	1032.35
746.155	1048.73
746.34	1144.99
746.525	1061.02
746.71	1106.07
746.895	905.37
747.079	1069.21
747.264	966.81
747.449	989.34
747.634	979.1
747.819	995.48
748.003	1026.2
748.188	1069.21
748.373	1093.79
748.557	1036.44
748.742	1069.21
748.927	1009.82
749.111	925.85
749.296	981.15
749.481	1058.97
749.665	925.85
749.85	897.18
750.034	954.52
750.219	1063.07
750.404	989.34
750.588	952.48
750.773	909.47
750.957	854.17
751.141	940.19
751.326	938.14
751.51	856.22
751.695	909.47
751.879	841.89
752.064	917.66
752.248	876.7
752.432	866.46
752.617	829.6
752.801	864.41
752.985	856.22
753.17	899.23
753.354	860.32
753.538	755.87
753.722	866.46
753.907	829.6
754.091	829.6
754.275	835.74
754.459	809.12
754.643	862.37
754.828	811.17
755.012	778.4
755.196	819.36
755.38	794.78
755.564	737.44
755.748	759.97
755.932	768.16
756.116	794.78
756.3	676
756.484	721.06
756.668	788.64
756.852	780.45
757.036	807.07
757.22	749.73
757.404	694.43
757.588	774.3
757.772	753.82
757.956	741.54
758.14	719.01
758.323	716.96
758.507	667.81
758.691	657.57
758.875	772.25
759.059	690.34
759.242	723.1
759.426	698.53
759.61	620.71
759.794	686.24
759.977	733.34
760.161	694.43
760.345	704.67
760.528	762.02
760.712	618.66
760.895	708.77
761.079	659.62
761.263	659.62
761.446	645.28
761.63	604.32
761.813	692.38
761.997	602.27
762.18	624.8
762.364	747.68
762.547	575.65
762.731	688.29
762.914	676
763.098	614.56
763.281	600.23
763.464	600.23
763.648	645.28
763.831	663.71
764.015	671.9
764.198	647.33
764.381	606.37
764.564	589.99
764.748	610.47
764.931	557.22
765.114	551.07
765.297	549.03
765.481	616.61
765.664	592.03
765.847	530.59
766.03	678.05
766.213	594.08
766.397	522.4
766.58	553.12
766.763	622.75
766.946	536.74
767.129	510.11
767.312	628.9
767.495	596.13
767.678	583.84
767.861	606.37
768.044	528.55
768.227	549.03
768.41	555.17
768.593	549.03
768.776	579.75
768.959	538.79
769.142	569.51
769.324	551.07
769.507	483.49
769.69	536.74
769.873	606.37
770.056	557.22
770.239	602.27
770.421	581.79
770.604	475.3
770.787	495.78
770.97	528.55
771.152	483.49
771.335	503.97
771.518	481.44
771.7	460.96
771.883	575.65
772.066	475.3
772.248	460.96
772.431	516.26
772.613	585.89
772.796	456.87
772.978	487.59
773.161	467.11
773.343	436.39
773.526	483.49
773.708	469.16
773.891	456.87
774.073	497.83
774.256	446.63
774.438	518.31
774.621	463.01
774.803	389.28
774.985	491.68
775.168	469.16
775.35	370.85
775.532	415.91
775.715	385.19
775.897	415.91
776.079	497.83
776.261	352.42
776.444	436.39
776.626	477.35
776.808	411.81
776.99	475.3
777.173	385.19
777.355	456.87
777.537	362.66
777.719	422.05
777.901	475.3
778.083	516.26
778.265	452.77
778.447	366.76
778.629	323.75
778.811	409.76
778.993	315.56
779.175	403.62
779.357	417.96
779.539	391.33
779.721	391.33
779.903	422.05
780.085	293.03
780.267	346.28
780.449	385.19
780.631	387.24
780.812	333.99
780.994	256.17
781.176	377
781.358	391.33
781.54	217.26
781.721	323.75
781.903	350.37
782.085	305.32
782.267	293.03
782.448	264.36
782.63	258.21
782.812	305.32
782.993	426.15
783.175	254.12
783.357	307.37
783.538	381.09
783.72	301.22
783.901	229.54
784.083	329.89
784.264	383.14
784.446	182.44
784.627	327.85
784.809	297.13
784.99	247.97
785.172	303.27
785.353	258.21
785.535	336.04
785.716	250.02
785.897	282.79
786.079	250.02
786.26	311.46
786.441	315.56
786.623	293.03
786.804	221.35
786.985	135.34
787.167	241.83
787.348	305.32
787.529	307.37
787.71	362.66
787.891	348.33
788.073	196.78
788.254	147.62
788.435	182.44
788.616	247.97
788.797	243.88
788.978	200.87
789.159	286.89
789.34	198.82
789.522	237.74
789.703	278.69
789.884	237.74
790.065	166.06
790.246	303.27
790.427	286.89
790.607	268.45
790.788	196.78
790.969	202.92
791.15	254.12
791.331	202.92
791.512	200.87
791.693	237.74
791.874	131.24
792.054	196.78
792.235	231.59
792.416	98.47
792.597	221.35
792.778	219.3
792.958	231.59
793.139	209.06
793.32	174.25
793.5	80.04
793.681	135.34
793.862	213.16
794.042	174.25
794.223	178.34
794.404	176.3
794.584	157.86
794.765	207.02
794.945	229.54
795.126	159.91
795.306	135.34
795.487	196.78
795.667	204.97
795.848	207.02
796.028	284.84
796.209	159.91
796.389	184.49
796.57	217.26
796.75	202.92
796.93	166.06
797.111	147.62
797.291	182.44
797.471	178.34
797.652	139.43
797.832	116.9
798.012	182.44
798.192	86.19
798.373	219.3
798.553	168.1
798.733	192.68
798.913	151.72
799.093	151.72
799.274	145.58
799.454	63.66
799.634	157.86
799.814	180.39
799.994	123.05
800.174	116.9
800.354	100.52
800.534	125.1
800.714	149.67
800.894	104.62
801.074	90.28
801.254	155.82
801.434	112.81
801.614	139.43
801.794	127.14
801.974	278.69
802.154	135.34
802.334	67.75
802.514	96.43
802.693	133.29
802.873	106.67
803.053	106.67
803.233	157.86
803.413	139.43
803.592	143.53
803.772	180.39
803.952	176.3
804.131	75.95
804.311	106.67
804.491	123.05
804.67	108.71
804.85	174.25
805.03	139.43
805.209	51.37
805.389	143.53
805.568	59.56
805.748	143.53
805.928	47.27
806.107	75.95
806.287	168.1
806.466	125.1
806.646	200.87
806.825	123.05
807.004	45.23
807.184	110.76
807.363	92.33
807.543	151.72
807.722	63.66
807.901	137.38
808.081	114.86
808.26	71.85
808.439	47.27
808.619	45.23
808.798	133.29
808.977	53.42
809.156	149.67
809.336	55.47
809.515	108.71
809.694	84.14
809.873	65.71
810.052	77.99
810.231	69.8
810.411	90.28
810.59	141.48
810.769	77.99
810.948	114.86
811.127	84.14
811.306	90.28
811.485	96.43
811.664	157.86
811.843	100.52
812.022	63.66
812.201	118.95
812.38	65.71
812.559	57.51
812.737	135.34
812.916	59.56
813.095	98.47
813.274	43.18
813.453	184.49
813.632	116.9
813.811	166.06
813.989	133.29
814.168	65.71
814.347	104.62
814.526	51.37
814.704	61.61
814.883	147.62
815.062	123.05
815.24	73.9
815.419	-8.02
815.598	116.9
815.776	4.27
815.955	88.23
816.133	0.17
816.312	41.13
816.49	131.24
816.669	82.09
816.847	88.23
817.026	102.57
817.204	37.03
817.383	8.36
817.561	30.89
817.74	26.79
817.918	49.32
818.097	125.1
818.275	61.61
818.453	88.23
818.632	118.95
818.81	139.43
818.988	59.56
819.167	88.23
819.345	73.9
819.523	69.8
819.701	73.9
819.879	77.99
820.058	39.08
820.236	131.24
820.414	32.94
820.592	-16.21
820.77	71.85
820.948	30.89
821.127	32.94
821.305	71.85
821.483	61.61
821.661	96.43
821.839	71.85
822.017	47.27
822.195	-1.88
822.373	98.47
822.551	116.9
822.729	71.85
822.907	51.37
823.085	30.89
823.262	43.18
823.44	141.48
823.618	-51.03
823.796	123.05
823.974	43.18
824.152	86.19
824.329	49.32
824.507	4.27
824.685	100.52
824.863	-22.36
825.04	73.9
825.218	67.75
825.396	53.42
825.574	77.99
825.751	-69.46
825.929	90.28
826.107	112.81
826.284	61.61
826.462	77.99
826.639	41.13
826.817	24.75
826.994	14.51
827.172	55.47
827.349	90.28
827.527	4.27
827.704	59.56
827.882	63.66
828.059	57.51
828.237	8.36
828.414	2.22
828.591	10.41
828.769	92.33
828.946	53.42
829.124	12.46
829.301	47.27
829.478	0.17
829.655	32.94
829.833	-1.88
830.01	49.32
830.187	49.32
830.364	8.36
830.542	63.66
830.719	75.95
830.896	102.57
831.073	43.18
831.25	0.17
831.427	47.27
831.604	26.79
831.782	84.14
831.959	69.8
832.136	6.31
832.313	63.66
832.49	6.31
832.667	102.57
832.844	88.23
833.021	10.41
833.198	20.65
833.374	-24.4
833.551	94.38
833.728	59.56
833.905	53.42
834.082	-57.17
834.259	10.41
834.436	86.19
834.612	-55.12
834.789	92.33
834.966	63.66
835.143	63.66
835.319	-40.79
835.496	55.47
835.673	10.41
835.85	37.03
836.026	-55.12
836.203	28.84
836.38	18.6
836.556	80.04
836.733	-18.26
836.909	34.99
837.086	43.18
837.262	24.75
837.439	43.18
837.616	41.13
837.792	51.37
837.968	47.27
838.145	-59.22
838.321	34.99
838.498	32.94
838.674	18.6
838.851	37.03
839.027	39.08
839.203	-12.12
839.38	14.51
839.556	47.27
839.732	24.75
839.909	59.56
840.085	65.71
840.261	47.27
840.437	28.84
840.614	47.27
840.79	88.23
840.966	65.71
841.142	0.17
841.318	-61.27
841.494	57.51
841.671	59.56
841.847	61.61
842.023	57.51
842.199	108.71
842.375	22.7
842.551	43.18
842.727	-46.93
842.903	102.57
843.079	26.79
843.255	75.95
843.431	32.94
843.607	73.9
843.783	-30.55
843.959	22.7
844.134	28.84
844.31	118.95
844.486	-14.17
844.662	16.55
844.838	-12.12
845.013	43.18
845.189	59.56
845.365	104.62
845.541	57.51
845.716	34.99
845.892	55.47
846.068	22.7
846.244	-46.93
846.419	94.38
846.595	26.79
846.77	-48.98
846.946	73.9
847.122	-42.84
847.297	-34.64
847.473	4.27
847.648	20.65
847.824	16.55
847.999	16.55
848.175	8.36
848.35	-46.93
848.526	49.32
848.701	8.36
848.876	-10.07
849.052	8.36
849.227	59.56
849.403	-81.75
849.578	65.71
849.753	-10.07
849.929	75.95
850.104	47.27
850.279	-12.12
850.454	47.27
850.63	49.32
850.805	53.42
850.98	-20.31
851.155	108.71
851.33	20.65
851.505	-26.45
851.681	26.79
851.856	8.36
852.031	-8.02
852.206	98.47
852.381	-51.03
852.556	41.13
852.731	-32.6
852.906	-16.21
853.081	30.89
853.256	4.27
853.431	96.43
853.606	49.32
853.781	12.46
853.956	-16.21
854.131	20.65
854.305	-22.36
854.48	39.08
854.655	-16.21
854.83	14.51
855.005	20.65
855.18	8.36
855.354	41.13
855.529	-30.55
855.704	-18.26
855.879	18.6
856.053	-24.4
856.228	84.14
856.403	28.84
856.577	-5.97
856.752	-22.36
856.926	133.29
857.101	71.85
857.276	-5.97
857.45	-8.02
857.625	73.9
857.799	41.13
857.974	-16.21
858.148	6.31
858.323	-1.88
858.497	0.17
858.672	18.6
858.846	67.75
859.02	20.65
859.195	-89.94
859.369	-30.55
859.543	-18.26
859.718	28.84
859.892	22.7
860.066	-3.93
860.241	-40.79
860.415	-8.02
860.589	-55.12
860.763	-3.93
860.938	-22.36
861.112	59.56
861.286	12.46
861.46	-10.07
861.634	-10.07
861.808	24.75
861.982	-51.03
862.157	67.75
862.331	-8.02
862.505	12.46
862.679	-32.6
862.853	0.17
863.027	12.46
863.201	20.65
863.375	0.17
863.549	61.61
863.722	55.47
863.896	24.75
864.07	-28.5
864.244	-40.79
864.418	-1.88
864.592	-40.79
864.766	-26.45
864.939	-71.51
865.113	-26.45
865.287	0.17
865.461	-20.31
865.634	32.94
865.808	12.46
865.982	-48.98
866.156	41.13
866.329	8.36
866.503	16.55
866.676	20.65
866.85	82.09
867.024	49.32
867.197	34.99
867.371	-8.02
867.544	16.55
867.718	-12.12
867.891	53.42
868.065	-51.03
868.238	82.09
868.412	14.51
868.585	-34.64
868.759	-24.4
868.932	-1.88
869.105	16.55
869.279	6.31
869.452	24.75
869.625	102.57
869.799	47.27
869.972	-77.65
870.145	63.66
870.319	4.27
870.492	-44.88
870.665	-20.31
870.838	69.8
871.011	0.17
871.185	8.36
871.358	-18.26
871.531	4.27
871.704	53.42
871.877	10.41
872.05	-16.21
872.223	-44.88
872.396	8.36
872.569	30.89
872.742	-20.31
872.915	32.94
873.088	-42.84
873.261	53.42
873.434	4.27
873.607	98.47
873.78	65.71
873.953	-36.69
874.126	-3.93
874.299	-89.94
874.471	20.65
874.644	-40.79
874.817	53.42
874.99	-69.46
875.163	16.55
875.335	24.75
875.508	16.55
875.681	4.27
875.853	26.79
876.026	8.36
876.199	16.55
876.371	26.79
876.544	18.6
876.717	41.13
876.889	16.55
877.062	-36.69
877.234	12.46
877.407	-38.74
877.579	43.18
877.752	69.8
877.924	80.04
878.097	37.03
878.269	37.03
878.442	-32.6
878.614	-51.03
878.786	20.65
878.959	-65.36
879.131	112.81
879.303	-42.84
879.476	10.41
879.648	-8.02
879.82	2.22
879.993	-24.4
880.165	-20.31
880.337	39.08
880.509	41.13
880.681	-18.26
880.854	39.08
881.026	24.75
881.198	16.55
881.37	20.65
881.542	24.75
881.714	26.79
881.886	-1.88
882.058	-18.26
882.23	-32.6
882.402	0.17
882.574	-83.8
882.746	-18.26
882.918	14.51
883.09	2.22
883.262	18.6
883.434	-24.4
883.606	-10.07
883.778	28.84
883.95	-12.12
884.122	-59.22
884.293	-40.79
884.465	4.27
884.637	-46.93
884.809	22.7
884.98	-32.6
885.152	6.31
885.324	6.31
885.496	-14.17
885.667	-3.93
885.839	-14.17
886.011	45.23
886.182	-57.17
886.354	4.27
886.525	-22.36
886.697	-3.93
886.869	-1.88
887.04	-32.6
887.212	16.55
887.383	-44.88
887.555	-10.07
887.726	53.42
887.897	16.55
888.069	86.19
888.24	24.75
888.412	-38.74
888.583	2.22
888.754	-32.6
888.926	-30.55
889.097	0.17
889.268	16.55
889.44	18.6
889.611	-55.12
889.782	69.8
889.953	8.36
890.125	8.36
890.296	2.22
890.467	-24.4
890.638	-44.88
890.809	-38.74
890.98	20.65
891.151	125.1
891.323	-16.21
891.494	26.79
891.665	-5.97
891.836	80.04
892.007	71.85
892.178	-5.97
892.349	-48.98
892.52	4.27
892.691	-32.6
892.862	26.79
893.032	20.65
893.203	-30.55
893.374	10.41
893.545	32.94
893.716	-122.71
893.887	0.17
894.057	-32.6
894.228	49.32
894.399	-12.12
894.57	-32.6
894.74	-8.02
894.911	12.46
895.082	-34.64
895.253	-18.26
895.423	-30.55
895.594	-67.41
895.764	10.41
895.935	-1.88
896.106	65.71
896.276	-42.84
896.447	-32.6
896.617	-16.21
896.788	-40.79
896.958	-10.07
897.129	16.55
897.299	12.46
897.47	-30.55
897.64	-16.21
897.81	18.6
897.981	-55.12
898.151	-32.6
898.322	26.79
898.492	-12.12
898.662	-16.21
898.832	41.13
899.003	-12.12
899.173	-3.93
899.343	-16.21
899.513	-10.07
