Data from USB4F104151__10__12-58-27-440.txt Node

Date: Fri Mar 14 12:58:27 EDT 2025
User: louis
Spectrometer: USB4F10415
Trigger mode: 4
Integration Time (sec): 1.000000E-2
Scans to average: 1
Electric dark correction enabled: true
Nonlinearity correction enabled: false
Boxcar width: 0
XAxis mode: Wavelengths
Number of Pixels in Spectrum: 3648
>>>>>Begin Spectral Data<<<<<
178.204	-35.84
178.424	-35.84
178.644	-35.84
178.864	-37.89
179.084	-72.7
179.304	29.7
179.524	1.02
179.744	-76.8
179.964	-29.7
180.184	35.84
180.404	33.79
180.624	19.46
180.844	5.12
181.064	-44.03
181.283	60.42
181.503	-52.22
181.723	17.41
181.943	-11.26
182.163	21.5
182.383	-7.17
182.602	113.66
182.822	25.6
183.042	17.41
183.262	31.74
183.482	87.04
183.701	-15.36
183.921	25.6
184.141	-9.22
184.361	89.09
184.58	-9.22
184.8	-17.41
185.02	-5.12
185.239	11.26
185.459	-1.02
185.679	-11.26
185.898	-50.18
186.118	27.65
186.338	11.26
186.557	-13.31
186.777	41.98
186.997	37.89
187.216	52.22
187.436	121.85
187.655	23.55
187.875	58.37
188.095	48.13
188.314	27.65
188.534	-1.02
188.753	37.89
188.973	5.12
189.192	27.65
189.412	23.55
189.631	-21.5
189.851	113.66
190.07	50.18
190.29	11.26
190.509	-58.37
190.729	5.12
190.948	3.07
191.168	37.89
191.387	1.02
191.607	9.22
191.826	15.36
192.045	9.22
192.265	25.6
192.484	9.22
192.704	9.22
192.923	-25.6
193.142	87.04
193.362	-11.26
193.581	54.27
193.8	5.12
194.02	48.13
194.239	41.98
194.458	3.07
194.678	54.27
194.897	37.89
195.116	46.08
195.335	-1.02
195.555	39.94
195.774	9.22
195.993	13.31
196.212	72.7
196.432	29.7
196.651	33.79
196.87	7.17
197.089	-9.22
197.308	-37.89
197.528	39.94
197.747	23.55
197.966	76.8
198.185	80.89
198.404	35.84
198.623	-11.26
198.842	62.46
199.062	-13.31
199.281	117.76
199.5	56.32
199.719	70.65
199.938	-19.46
200.157	46.08
200.376	21.5
200.595	44.03
200.814	-29.7
201.033	48.13
201.252	33.79
201.471	46.08
201.69	-62.46
201.909	52.22
202.128	-56.32
202.347	-33.79
202.566	9.22
202.785	15.36
203.004	25.6
203.223	50.18
203.442	-21.5
203.661	37.89
203.879	-46.08
204.098	17.41
204.317	-3.07
204.536	-9.22
204.755	33.79
204.974	46.08
205.193	68.61
205.411	52.22
205.63	31.74
205.849	9.22
206.068	-37.89
206.287	25.6
206.505	15.36
206.724	64.51
206.943	39.94
207.162	-23.55
207.381	-11.26
207.599	33.79
207.818	-5.12
208.037	1.02
208.255	3.07
208.474	44.03
208.693	-11.26
208.911	91.13
209.13	29.7
209.349	37.89
209.567	70.65
209.786	25.6
210.005	13.31
210.223	17.41
210.442	35.84
210.661	13.31
210.879	15.36
211.098	-7.17
211.316	-23.55
211.535	87.04
211.753	13.31
211.972	56.32
212.191	89.09
212.409	-25.6
212.628	5.12
212.846	52.22
213.065	82.94
213.283	9.22
213.502	21.5
213.72	70.65
213.938	44.03
214.157	74.75
214.375	70.65
214.594	-1.02
214.812	31.74
215.031	15.36
215.249	37.89
215.467	27.65
215.686	21.5
215.904	60.42
216.122	56.32
216.341	41.98
216.559	-23.55
216.778	66.56
216.996	-23.55
217.214	41.98
217.432	29.7
217.651	78.85
217.869	19.46
218.087	54.27
218.306	1.02
218.524	93.18
218.742	21.5
218.96	31.74
219.179	-1.02
219.397	-23.55
219.615	64.51
219.833	-5.12
220.051	-29.7
220.27	64.51
220.488	37.89
220.706	31.74
220.924	1.02
221.142	64.51
221.36	41.98
221.578	58.37
221.796	60.42
222.015	9.22
222.233	5.12
222.451	119.81
222.669	60.42
222.887	25.6
223.105	46.08
223.323	37.89
223.541	29.7
223.759	58.37
223.977	-11.26
224.195	60.42
224.413	62.46
224.631	48.13
224.849	11.26
225.067	70.65
225.285	95.23
225.503	37.89
225.721	21.5
225.939	-3.07
226.157	37.89
226.375	84.99
226.592	-9.22
226.81	-11.26
227.028	74.75
227.246	33.79
227.464	19.46
227.682	68.61
227.9	84.99
228.117	31.74
228.335	19.46
228.553	-33.79
228.771	105.47
228.989	74.75
229.206	46.08
229.424	82.94
229.642	37.89
229.86	15.36
230.077	39.94
230.295	-39.94
230.513	70.65
230.731	15.36
230.948	66.56
231.166	31.74
231.384	23.55
231.601	-17.41
231.819	37.89
232.037	7.17
232.254	68.61
232.472	82.94
232.689	56.32
232.907	9.22
233.125	-11.26
233.342	31.74
233.56	48.13
233.777	70.65
233.995	25.6
234.213	52.22
234.43	-37.89
234.648	46.08
234.865	62.46
235.083	78.85
235.3	54.27
235.518	-9.22
235.735	48.13
235.953	31.74
236.17	37.89
236.388	21.5
236.605	48.13
236.822	-7.17
237.04	-23.55
237.257	29.7
237.475	44.03
237.692	87.04
237.909	-39.94
238.127	74.75
238.344	29.7
238.562	70.65
238.779	54.27
238.996	25.6
239.214	35.84
239.431	64.51
239.648	-50.18
239.865	23.55
240.083	19.46
240.3	17.41
240.517	54.27
240.735	99.33
240.952	35.84
241.169	31.74
241.386	29.7
241.603	56.32
241.821	21.5
242.038	31.74
242.255	25.6
242.472	39.94
242.689	101.37
242.907	46.08
243.124	19.46
243.341	54.27
243.558	80.89
243.775	25.6
243.992	-13.31
244.209	54.27
244.426	119.81
244.643	-3.07
244.86	29.7
245.078	91.13
245.295	27.65
245.512	56.32
245.729	-37.89
245.946	105.47
246.163	48.13
246.38	-21.5
246.597	39.94
246.814	46.08
247.031	-25.6
247.248	29.7
247.464	74.75
247.681	-9.22
247.898	64.51
248.115	60.42
248.332	-9.22
248.549	82.94
248.766	29.7
248.983	-15.36
249.2	44.03
249.417	52.22
249.633	29.7
249.85	-19.46
250.067	-11.26
250.284	23.55
250.501	50.18
250.717	7.17
250.934	58.37
251.151	70.65
251.368	1.02
251.585	19.46
251.801	50.18
252.018	50.18
252.235	5.12
252.451	80.89
252.668	1.02
252.885	44.03
253.102	78.85
253.318	62.46
253.535	46.08
253.752	15.36
253.968	-3.07
254.185	35.84
254.401	5.12
254.618	41.98
254.835	56.32
255.051	80.89
255.268	48.13
255.484	41.98
255.701	11.26
255.917	-5.12
256.134	7.17
256.351	31.74
256.567	35.84
256.784	-33.79
257	-27.65
257.217	15.36
257.433	46.08
257.65	91.13
257.866	17.41
258.082	62.46
258.299	91.13
258.515	21.5
258.732	5.12
258.948	-21.5
259.165	15.36
259.381	91.13
259.597	-19.46
259.814	3.07
260.03	7.17
260.246	68.61
260.463	3.07
260.679	1.02
260.895	11.26
261.112	50.18
261.328	21.5
261.544	19.46
261.761	111.61
261.977	35.84
262.193	17.41
262.409	46.08
262.626	25.6
262.842	1.02
263.058	-17.41
263.274	48.13
263.49	60.42
263.707	121.85
263.923	35.84
264.139	1.02
264.355	11.26
264.571	64.51
264.787	72.7
265.004	39.94
265.22	39.94
265.436	9.22
265.652	13.31
265.868	54.27
266.084	74.75
266.3	-19.46
266.516	140.29
266.732	23.55
266.948	91.13
267.164	68.61
267.38	15.36
267.596	39.94
267.812	58.37
268.028	62.46
268.244	-1.02
268.46	78.85
268.676	-3.07
268.892	17.41
269.108	68.61
269.324	-3.07
269.54	29.7
269.756	62.46
269.972	-1.02
270.188	58.37
270.403	82.94
270.619	-48.13
270.835	-13.31
271.051	5.12
271.267	-50.18
271.483	33.79
271.698	31.74
271.914	56.32
272.13	19.46
272.346	7.17
272.562	23.55
272.777	41.98
272.993	60.42
273.209	93.18
273.425	13.31
273.64	-7.17
273.856	13.31
274.072	39.94
274.287	21.5
274.503	46.08
274.719	-27.65
274.934	31.74
275.15	74.75
275.366	60.42
275.581	33.79
275.797	-29.7
276.012	3.07
276.228	13.31
276.444	-7.17
276.659	23.55
276.875	-13.31
277.09	7.17
277.306	48.13
277.521	33.79
277.737	37.89
277.952	80.89
278.168	33.79
278.383	91.13
278.599	107.52
278.814	41.98
279.03	9.22
279.245	64.51
279.461	54.27
279.676	13.31
279.892	82.94
280.107	13.31
280.322	3.07
280.538	70.65
280.753	78.85
280.969	58.37
281.184	84.99
281.399	39.94
281.615	-11.26
281.83	5.12
282.045	-33.79
282.26	76.8
282.476	25.6
282.691	-1.02
282.906	76.8
283.122	91.13
283.337	11.26
283.552	27.65
283.767	15.36
283.983	15.36
284.198	37.89
284.413	41.98
284.628	41.98
284.843	101.37
285.058	54.27
285.274	33.79
285.489	7.17
285.704	64.51
285.919	19.46
286.134	9.22
286.349	35.84
286.564	46.08
286.779	31.74
286.995	-17.41
287.21	-3.07
287.425	33.79
287.64	29.7
287.855	68.61
288.07	13.31
288.285	31.74
288.5	15.36
288.715	54.27
288.93	3.07
289.145	15.36
289.36	11.26
289.575	74.75
289.79	29.7
290.004	99.33
290.219	60.42
290.434	-21.5
290.649	72.7
290.864	-19.46
291.079	66.56
291.294	93.18
291.509	-25.6
291.724	-7.17
291.938	21.5
292.153	72.7
292.368	23.55
292.583	62.46
292.798	62.46
293.012	80.89
293.227	-41.98
293.442	68.61
293.657	-3.07
293.871	60.42
294.086	29.7
294.301	66.56
294.516	17.41
294.73	54.27
294.945	11.26
295.16	19.46
295.374	-11.26
295.589	-13.31
295.804	5.12
296.018	113.66
296.233	3.07
296.447	48.13
296.662	-46.08
296.877	56.32
297.091	48.13
297.306	56.32
297.52	-41.98
297.735	-5.12
297.949	29.7
298.164	54.27
298.378	15.36
298.593	80.89
298.807	3.07
299.022	54.27
299.236	15.36
299.451	33.79
299.665	-29.7
299.88	39.94
300.094	31.74
300.309	44.03
300.523	-1.02
300.737	48.13
300.952	58.37
301.166	78.85
301.381	21.5
301.595	78.85
301.809	-29.7
302.024	74.75
302.238	50.18
302.452	-23.55
302.667	74.75
302.881	68.61
303.095	-21.5
303.309	35.84
303.524	27.65
303.738	-3.07
303.952	62.46
304.166	-27.65
304.381	56.32
304.595	41.98
304.809	3.07
305.023	5.12
305.237	-33.79
305.452	31.74
305.666	37.89
305.88	-7.17
306.094	31.74
306.308	66.56
306.522	50.18
306.736	-5.12
306.95	76.8
307.164	5.12
307.379	21.5
307.593	87.04
307.807	80.89
308.021	95.23
308.235	62.46
308.449	7.17
308.663	41.98
308.877	62.46
309.091	46.08
309.305	29.7
309.519	46.08
309.733	21.5
309.947	50.18
310.161	15.36
310.374	-3.07
310.588	19.46
310.802	48.13
311.016	41.98
311.23	-11.26
311.444	48.13
311.658	76.8
311.872	48.13
312.085	37.89
312.299	64.51
312.513	82.94
312.727	-17.41
312.941	-33.79
313.154	152.57
313.368	39.94
313.582	35.84
313.796	21.5
314.009	91.13
314.223	89.09
314.437	115.71
314.651	3.07
314.864	33.79
315.078	21.5
315.292	7.17
315.505	46.08
315.719	-21.5
315.933	29.7
316.146	37.89
316.36	19.46
316.573	-25.6
316.787	23.55
317.001	27.65
317.214	44.03
317.428	41.98
317.641	33.79
317.855	7.17
318.068	60.42
318.282	58.37
318.495	25.6
318.709	-15.36
318.922	23.55
319.136	37.89
319.349	37.89
319.563	62.46
319.776	52.22
319.99	52.22
320.203	58.37
320.417	56.32
320.63	48.13
320.843	78.85
321.057	74.75
321.27	15.36
321.483	13.31
321.697	25.6
321.91	87.04
322.124	27.65
322.337	89.09
322.55	54.27
322.763	41.98
322.977	76.8
323.19	21.5
323.403	44.03
323.617	66.56
323.83	95.23
324.043	41.98
324.256	54.27
324.469	-25.6
324.683	66.56
324.896	21.5
325.109	31.74
325.322	50.18
325.535	3.07
325.748	62.46
325.962	62.46
326.175	58.37
326.388	-21.5
326.601	46.08
326.814	-3.07
327.027	21.5
327.24	62.46
327.453	87.04
327.666	105.47
327.879	60.42
328.092	5.12
328.305	11.26
328.518	-11.26
328.731	13.31
328.944	64.51
329.157	60.42
329.37	95.23
329.583	3.07
329.796	62.46
330.009	31.74
330.222	52.22
330.435	-1.02
330.648	93.18
330.861	1.02
331.073	48.13
331.286	80.89
331.499	21.5
331.712	25.6
331.925	29.7
332.138	27.65
332.35	68.61
332.563	29.7
332.776	48.13
332.989	5.12
333.202	60.42
333.414	11.26
333.627	21.5
333.84	19.46
334.053	99.33
334.265	68.61
334.478	37.89
334.691	46.08
334.903	33.79
335.116	70.65
335.329	103.42
335.541	29.7
335.754	64.51
335.966	44.03
336.179	48.13
336.392	-1.02
336.604	80.89
336.817	54.27
337.029	82.94
337.242	-9.22
337.454	72.7
337.667	5.12
337.88	62.46
338.092	11.26
338.305	78.85
338.517	-9.22
338.729	72.7
338.942	44.03
339.154	70.65
339.367	46.08
339.579	52.22
339.792	9.22
340.004	39.94
340.217	70.65
340.429	-9.22
340.641	37.89
340.854	105.47
341.066	5.12
341.278	-19.46
341.491	39.94
341.703	39.94
341.915	-41.98
342.128	46.08
342.34	91.13
342.552	33.79
342.764	37.89
342.977	17.41
343.189	-13.31
343.401	48.13
343.613	-13.31
343.826	5.12
344.038	62.46
344.25	41.98
344.462	54.27
344.674	78.85
344.886	76.8
345.099	72.7
345.311	5.12
345.523	-25.6
345.735	66.56
345.947	-13.31
346.159	9.22
346.371	33.79
346.583	5.12
346.795	95.23
347.007	44.03
347.219	-33.79
347.431	56.32
347.643	97.28
347.855	123.9
348.067	29.7
348.279	101.37
348.491	70.65
348.703	13.31
348.915	-19.46
349.127	23.55
349.339	76.8
349.551	29.7
349.763	41.98
349.975	13.31
350.187	68.61
350.399	13.31
350.61	-13.31
350.822	54.27
351.034	-31.74
351.246	46.08
351.458	46.08
351.669	35.84
351.881	46.08
352.093	27.65
352.305	41.98
352.517	19.46
352.728	103.42
352.94	-5.12
353.152	93.18
353.363	11.26
353.575	7.17
353.787	87.04
353.999	39.94
354.21	70.65
354.422	11.26
354.633	74.75
354.845	17.41
355.057	-21.5
355.268	-19.46
355.48	29.7
355.692	-5.12
355.903	101.37
356.115	87.04
356.326	70.65
356.538	1.02
356.749	15.36
356.961	95.23
357.172	48.13
357.384	13.31
357.595	21.5
357.807	60.42
358.018	31.74
358.23	62.46
358.441	99.33
358.653	15.36
358.864	60.42
359.075	31.74
359.287	-23.55
359.498	-27.65
359.709	115.71
359.921	82.94
360.132	13.31
360.344	9.22
360.555	23.55
360.766	89.09
360.977	-17.41
361.189	66.56
361.4	17.41
361.611	37.89
361.823	54.27
362.034	70.65
362.245	68.61
362.456	46.08
362.667	9.22
362.879	54.27
363.09	52.22
363.301	62.46
363.512	48.13
363.723	101.37
363.935	-11.26
364.146	58.37
364.357	33.79
364.568	54.27
364.779	31.74
364.99	29.7
365.201	13.31
365.412	21.5
365.623	15.36
365.834	89.09
366.045	60.42
366.256	29.7
366.467	70.65
366.678	31.74
366.889	50.18
367.1	-50.18
367.311	35.84
367.522	58.37
367.733	44.03
367.944	15.36
368.155	52.22
368.366	39.94
368.577	66.56
368.788	80.89
368.999	93.18
369.209	9.22
369.42	7.17
369.631	103.42
369.842	60.42
370.053	13.31
370.264	101.37
370.474	-29.7
370.685	80.89
370.896	-3.07
371.107	52.22
371.317	35.84
371.528	-13.31
371.739	-19.46
371.95	107.52
372.16	37.89
372.371	11.26
372.582	68.61
372.792	-50.18
373.003	74.75
373.214	33.79
373.424	82.94
373.635	35.84
373.846	31.74
374.056	107.52
374.267	52.22
374.477	5.12
374.688	74.75
374.898	72.7
375.109	48.13
375.319	-68.61
375.53	107.52
375.74	78.85
375.951	101.37
376.161	44.03
376.372	46.08
376.582	-19.46
376.793	29.7
377.003	50.18
377.214	113.66
377.424	64.51
377.635	33.79
377.845	87.04
378.055	70.65
378.266	37.89
378.476	76.8
378.686	56.32
378.897	39.94
379.107	19.46
379.317	54.27
379.528	93.18
379.738	103.42
379.948	111.61
380.158	15.36
380.369	128
380.579	136.19
380.789	48.13
380.999	27.65
381.21	111.61
381.42	70.65
381.63	64.51
381.84	103.42
382.05	41.98
382.261	56.32
382.471	9.22
382.681	48.13
382.891	-39.94
383.101	-5.12
383.311	35.84
383.521	25.6
383.731	105.47
383.941	48.13
384.151	125.95
384.361	44.03
384.571	-3.07
384.781	46.08
384.991	58.37
385.201	117.76
385.411	60.42
385.621	66.56
385.831	23.55
386.041	21.5
386.251	66.56
386.461	62.46
386.671	76.8
386.881	93.18
387.091	44.03
387.301	84.99
387.511	97.28
387.72	15.36
387.93	70.65
388.14	64.51
388.35	25.6
388.56	54.27
388.769	31.74
388.979	-60.42
389.189	7.17
389.399	56.32
389.609	25.6
389.818	25.6
390.028	39.94
390.238	-44.03
390.447	46.08
390.657	-1.02
390.867	82.94
391.076	35.84
391.286	44.03
391.496	19.46
391.705	64.51
391.915	46.08
392.125	48.13
392.334	54.27
392.544	103.42
392.753	37.89
392.963	-1.02
393.172	31.74
393.382	-3.07
393.591	37.89
393.801	56.32
394.01	99.33
394.22	68.61
394.429	72.7
394.639	-13.31
394.848	66.56
395.058	125.95
395.267	25.6
395.477	48.13
395.686	54.27
395.895	54.27
396.105	-35.84
396.314	46.08
396.524	44.03
396.733	25.6
396.942	115.71
397.152	50.18
397.361	136.19
397.57	97.28
397.78	-21.5
397.989	121.85
398.198	78.85
398.407	5.12
398.617	95.23
398.826	1.02
399.035	107.52
399.244	21.5
399.453	74.75
399.663	78.85
399.872	33.79
400.081	39.94
400.29	66.56
400.499	37.89
400.708	123.9
400.917	115.71
401.127	-19.46
401.336	68.61
401.545	150.53
401.754	84.99
401.963	144.38
402.172	103.42
402.381	70.65
402.59	80.89
402.799	80.89
403.008	121.85
403.217	95.23
403.426	46.08
403.635	56.32
403.844	107.52
404.053	125.95
404.262	99.33
404.471	107.52
404.68	179.2
404.888	128
405.097	87.04
405.306	136.19
405.515	84.99
405.724	97.28
405.933	68.61
406.142	107.52
406.35	76.8
406.559	136.19
406.768	152.57
406.977	128
407.185	58.37
407.394	193.53
407.603	142.33
407.812	195.58
408.02	181.25
408.229	191.49
408.438	144.38
408.646	132.09
408.855	187.39
409.064	232.44
409.272	138.24
409.481	203.77
409.69	177.15
409.898	203.77
410.107	154.62
410.315	234.49
410.524	201.72
410.733	193.53
410.941	187.39
411.15	220.16
411.358	173.05
411.567	254.97
411.775	232.44
411.984	218.11
412.192	275.45
412.401	373.75
412.609	224.25
412.818	332.79
413.026	353.27
413.234	279.55
413.443	275.45
413.651	302.08
413.86	347.13
414.068	336.89
414.276	390.14
414.485	420.86
414.693	484.34
414.901	433.15
415.11	427
415.318	494.58
415.526	435.19
415.734	467.96
415.943	461.82
416.151	531.45
416.359	568.31
416.567	525.3
416.776	529.4
416.984	529.4
417.192	601.08
417.4	556.02
417.608	578.55
417.817	603.13
418.025	697.33
418.233	648.18
418.441	635.89
418.649	705.53
418.857	732.15
419.065	814.07
419.273	848.88
419.481	816.12
419.689	895.99
419.897	852.98
420.105	900.08
420.313	984.05
420.521	1012.72
420.729	1010.67
420.937	1094.64
421.145	1022.96
421.353	1145.84
421.561	1104.88
421.769	1170.41
421.977	1381.35
422.185	1260.52
422.393	1352.68
422.601	1412.07
422.809	1448.94
423.017	1457.13
423.224	1416.17
423.432	1467.37
423.64	1625.06
423.848	1627.11
424.056	1571.82
424.263	1788.9
424.471	1659.88
424.679	1717.22
424.887	1833.96
425.094	1874.92
425.302	1926.11
425.51	2003.94
425.718	2143.2
425.925	2089.95
426.133	2233.31
426.341	2327.52
426.548	2421.72
426.756	2315.23
426.964	2343.9
427.171	2620.38
427.379	2667.48
427.586	2632.66
427.794	2706.39
428.001	2886.61
428.209	2962.39
428.417	2978.77
428.624	2970.58
428.832	3042.26
429.039	3152.85
429.247	3101.65
429.454	3369.93
429.662	3570.63
429.869	3384.27
430.076	3691.46
430.284	3470.28
430.491	3607.5
430.699	3800.01
430.906	3873.73
431.114	4004.8
431.321	4191.17
431.528	4154.3
431.736	4445.12
431.943	4537.27
432.15	4559.8
432.358	4539.32
432.565	4928.44
432.772	4664.25
432.979	5024.69
433.187	5247.92
433.394	5237.68
433.601	5561.26
433.808	5540.78
434.016	5522.35
434.223	5673.9
434.43	6114.21
434.637	5807.02
434.844	6265.76
435.052	6488.99
435.259	6405.02
435.466	6384.54
435.673	6329.25
435.88	6607.77
436.087	7250.83
436.294	7295.89
436.501	7070.61
436.708	7185.3
436.915	7445.39
437.122	7705.48
437.329	7766.92
437.537	7977.86
437.743	8002.44
437.95	7967.62
438.157	8418.18
438.364	8846.2
438.571	8766.33
438.778	8774.52
438.985	9626.48
439.192	9141.11
439.399	9577.33
439.606	9294.71
439.813	9745.26
440.02	10470.24
440.227	10232.68
440.433	10072.93
440.64	10455.9
440.847	10290.02
441.054	10429.28
441.261	11207.51
441.467	11160.41
441.674	11455.31
441.881	11901.77
442.088	11983.69
442.294	11692.88
442.501	12129.09
442.708	12346.18
442.914	12639.04
443.121	13427.51
443.328	12821.31
443.534	13839.15
443.741	13433.65
443.948	13361.97
444.154	14252.84
444.361	14261.03
444.568	14304.04
444.774	14127.91
444.981	14639.9
445.187	14949.15
445.394	15627.03
445.6	15403.8
445.807	16947.97
446.013	15940.36
446.22	16544.52
446.426	16831.23
446.633	17163
446.839	17824.5
447.046	17087.23
447.252	18033.39
447.459	18000.62
447.665	17826.54
447.871	18877.15
448.078	19688.15
448.284	18588.39
448.491	19258.07
448.697	20067.02
448.903	20572.87
449.11	20511.43
449.316	20019.92
449.522	20820.67
449.728	21144.25
449.935	21140.16
450.141	21164.73
450.347	21600.95
450.553	21177.02
450.76	21338.81
450.966	21996.21
451.172	21971.63
451.378	22545.06
451.584	21971.63
451.791	22590.12
451.997	22801.06
452.203	22893.22
452.409	23057.06
452.615	22581.93
452.821	22082.22
453.027	21686.97
453.233	22747.81
453.44	22207.15
453.646	22215.34
453.852	22262.44
454.058	22786.72
454.264	22026.93
454.47	22706.85
454.676	21850.8
454.882	22725.29
455.088	20749
455.294	20820.67
455.5	21091.01
455.705	21828.27
455.911	20880.07
456.117	20138.7
456.323	19976.91
456.529	19024.61
456.735	19774.16
456.941	19516.12
457.147	19090.14
457.352	18537.19
457.558	18098.92
457.764	18299.62
457.97	18047.72
458.176	17474.29
458.381	17869.55
458.587	16767.74
458.793	16761.6
458.999	15899.41
459.204	16974.59
459.41	16495.36
459.616	15522.58
459.821	15571.73
460.027	15612.69
460.233	15151.9
460.438	14371.62
460.644	14484.26
460.85	13706.03
461.055	13677.36
461.261	13531.95
461.466	12477.25
461.672	12125
461.878	13095.74
462.083	12065.61
462.289	11930.44
462.494	11846.48
462.7	11180.89
462.905	11033.43
463.111	11455.31
463.316	11422.55
463.522	11117.4
463.727	11260.76
463.932	11121.49
464.138	11041.62
464.343	11002.71
464.549	10847.07
464.754	11086.68
464.959	11070.3
465.165	11047.77
465.37	10539.87
465.575	10414.95
465.781	10597.21
465.986	10890.07
466.191	10179.43
466.397	10009.45
466.602	9628.53
466.807	10048.36
467.012	9855.85
467.218	9986.92
467.423	9952.1
467.628	9958.25
467.833	10240.87
468.038	9839.47
468.244	9749.36
468.449	9970.54
468.654	9562.99
468.859	9710.44
469.064	9448.3
469.269	9333.62
469.474	9374.58
469.679	9562.99
469.885	9132.92
470.09	9335.67
470.295	9206.64
470.5	9171.83
470.705	9100.15
470.91	9091.96
471.115	8756.09
471.32	8911.74
471.525	8682.36
471.73	8706.94
471.935	8631.16
472.139	8297.35
472.344	8405.89
472.549	8278.91
472.754	8414.08
472.959	8168.32
473.164	7873.42
473.369	7832.46
473.574	8287.11
473.778	7977.86
473.983	7914.38
474.188	7971.72
474.393	7541.64
474.598	7748.49
474.802	7588.75
475.007	7492.49
475.212	7539.6
475.417	7218.07
475.621	7316.37
475.826	7179.15
476.031	7101.33
476.235	7148.43
476.44	7265.17
476.645	6919.06
476.849	7037.84
477.054	6867.86
477.259	6855.58
477.463	6683.55
477.668	6505.37
477.872	6611.87
478.077	6585.24
478.282	6376.35
478.486	6370.21
478.691	6230.94
478.895	6222.75
479.1	6280.1
479.304	6411.17
479.509	6001.57
479.713	6296.48
479.918	5942.18
480.122	6034.34
480.326	5925.8
480.531	6054.82
480.735	6060.96
480.94	5874.6
481.144	6052.77
481.348	5862.31
481.553	5974.95
481.757	5690.28
481.961	6054.82
482.166	5942.18
482.37	5837.73
482.574	5821.35
482.778	5897.13
482.983	5921.7
483.187	5790.63
483.391	5903.27
483.595	5698.47
483.8	5768.1
484.004	5983.14
484.208	5784.49
484.412	5811.11
484.616	5884.84
484.821	5829.54
485.025	5553.07
485.229	5833.64
485.433	5788.58
485.637	5628.84
485.841	5716.9
486.045	5757.86
486.249	5866.41
486.453	5757.86
486.657	5776.3
486.861	5761.96
487.065	5872.55
487.269	5878.69
487.473	5686.19
487.677	5864.36
487.881	5878.69
488.085	5809.06
488.289	5766.06
488.493	5655.47
488.697	5854.12
488.901	5972.9
489.105	5706.66
489.309	5845.93
489.512	5886.89
489.716	5868.45
489.92	5845.93
490.124	5731.24
490.328	6134.69
490.531	5866.41
490.735	5995.43
490.939	6015.91
491.143	5985.19
491.346	5927.85
491.55	6269.86
491.754	6142.88
491.958	6052.77
492.161	6001.57
492.365	6026.15
492.569	6157.22
492.772	6247.33
492.976	6273.95
493.18	6454.17
493.383	6347.68
493.587	6321.06
493.79	6319.01
493.994	6214.56
494.197	6409.12
494.401	6480.8
494.605	6568.86
494.808	6671.26
495.012	6679.45
495.215	6687.64
495.419	6802.33
495.622	6534.04
495.825	6824.86
496.029	6847.38
496.232	6941.59
496.436	6994.84
496.639	7091.09
496.843	7197.59
497.046	7218.07
497.249	7254.93
497.453	7531.41
497.656	7519.12
497.859	7336.85
498.063	7533.45
498.266	7678.86
498.469	7492.49
498.673	7830.41
498.876	7771.02
499.079	7787.4
499.282	7953.29
499.485	8086.4
499.689	8072.07
499.892	8289.15
500.095	8418.18
500.298	8360.83
500.501	8518.53
500.705	8811.39
500.908	8778.62
501.111	8866.68
501.314	8924.02
501.517	9169.78
501.72	9071.48
501.923	9124.72
502.126	9327.47
502.329	9567.09
502.532	9515.89
502.735	9323.38
502.938	9835.37
503.141	9687.92
503.344	9980.78
503.547	9978.73
503.75	10007.4
503.953	10163.04
504.156	10365.79
504.359	10400.61
504.562	10519.39
504.765	10681.18
504.968	10943.32
505.17	10939.23
505.373	11225.94
505.576	11451.22
505.779	11350.87
505.982	11496.27
506.185	11692.88
506.387	11649.87
506.59	11883.34
506.793	12102.47
506.996	12176.2
507.198	12467.01
507.401	12225.35
507.604	12458.82
507.807	12614.46
508.009	12925.75
508.212	13165.37
508.415	13118.26
508.617	13396.79
508.82	13404.98
509.022	13388.6
509.225	13675.31
509.428	14099.24
509.63	14142.25
509.833	13984.55
510.035	14324.52
510.238	14254.89
510.44	14412.58
510.643	14674.72
510.845	14783.26
511.048	14922.52
511.25	15153.94
511.453	15176.47
511.655	15655.7
511.858	15598.35
512.06	15508.24
512.262	15596.31
512.465	15805.2
512.667	15858.45
512.87	16450.31
513.072	16542.47
513.274	16577.28
513.477	17019.64
513.679	17048.32
513.881	17302.26
514.084	17363.7
514.286	17263.35
514.488	17535.73
514.69	18229.99
514.893	18217.71
515.095	18158.31
515.297	18412.26
515.499	18445.03
515.701	18907.87
515.904	18963.17
516.106	19251.93
516.308	18977.5
516.51	19460.82
516.712	19495.64
516.914	19712.72
517.116	20230.86
517.318	20036.3
517.52	20472.52
517.722	20472.52
517.925	20771.52
518.127	20980.42
518.329	21301.95
518.531	20998.85
518.733	21467.83
518.935	21611.19
519.136	21365.43
519.338	21949.11
519.54	22074.03
519.742	22477.48
519.944	22407.85
520.146	22637.22
520.348	22717.09
520.55	22815.4
520.752	22968.99
520.954	23505.56
521.155	23265.95
521.357	23483.03
521.559	23642.78
521.761	24283.79
521.963	23995.03
522.164	24294.03
522.366	24451.72
522.568	24709.77
522.77	24838.79
522.971	25266.81
523.173	24939.14
523.375	25354.88
523.576	25158.27
523.778	25377.4
523.98	25465.47
524.181	25617.02
524.383	25645.69
524.584	26382.96
524.786	26124.91
524.988	25965.17
525.189	26434.16
525.391	26378.86
525.592	26618.47
525.794	26751.59
525.995	27069.03
526.197	26649.19
526.398	27239.01
526.6	27112.03
526.801	27150.95
527.003	27306.59
527.204	27652.7
527.406	27888.21
527.607	27466.33
527.808	27929.17
528.01	27456.09
528.211	27454.05
528.412	28361.3
528.614	28432.97
528.815	28482.13
529.016	28492.37
529.218	27912.79
529.419	28199.51
529.62	28338.77
529.822	28197.46
530.023	28342.86
530.224	28484.17
530.425	28383.82
530.626	28408.4
530.828	28123.73
531.029	28998.21
531.23	28957.25
531.431	28811.85
531.632	28729.93
531.833	28607.05
532.035	28713.55
532.236	28926.53
532.437	29368.9
532.638	29016.65
532.839	29588.03
533.04	29268.55
533.241	28555.85
533.442	29313.6
533.643	29069.89
533.844	29020.74
534.045	29321.79
534.246	28936.77
534.447	29043.27
534.648	28947.01
534.849	29203.01
535.05	28949.06
535.251	29528.64
535.451	29155.91
535.652	29336.13
535.853	29276.74
536.054	29198.91
536.255	29571.64
536.456	29047.36
536.657	29868.6
536.857	29368.9
537.058	29239.87
537.259	29418.05
537.46	29553.21
537.66	29024.84
537.861	29203.01
538.062	29229.63
538.263	29542.97
538.463	29416
538.664	29301.31
538.865	29424.19
539.065	29381.18
539.266	29076.04
539.466	29495.87
539.667	28983.88
539.868	29364.8
540.068	28908.1
540.269	29043.27
540.469	29182.53
540.67	29239.87
540.87	29147.72
541.071	29229.63
541.271	29260.35
541.472	29041.22
541.672	29086.28
541.873	28944.97
542.073	28906.05
542.274	29221.44
542.474	28867.14
542.675	29026.89
542.875	29579.84
543.075	28908.1
543.276	28629.58
543.476	29309.5
543.676	29026.89
543.877	29082.18
544.077	29141.57
544.277	28906.05
544.478	28930.63
544.678	29022.79
544.878	28721.74
545.078	29026.89
545.279	28711.5
545.479	28955.21
545.679	29125.19
545.879	29119.04
546.079	29211.2
546.28	28840.52
546.48	28789.32
546.68	28897.86
546.88	28705.35
547.08	29143.62
547.28	28863.05
547.48	28785.22
547.68	28830.28
547.88	28832.33
548.081	29250.11
548.281	28959.3
548.481	28721.74
548.681	29243.97
548.881	28815.94
549.081	28820.04
549.28	28715.59
549.48	29176.39
549.68	28590.67
549.88	29372.99
550.08	28578.38
550.28	28676.68
550.48	28664.39
550.68	29227.59
550.88	28650.06
551.08	28768.84
551.279	29067.84
551.479	28672.59
551.679	28858.95
551.879	28650.06
552.079	28486.22
552.278	28498.51
552.478	28854.86
552.678	28418.64
552.878	28670.54
553.077	28539.47
553.277	28035.67
553.477	28754.51
553.676	28408.4
553.876	28351.06
554.076	28426.83
554.275	28361.3
554.475	27791.96
554.674	28562
554.874	28512.84
555.074	28168.79
555.273	28420.69
555.473	28310.1
555.672	28154.45
555.872	28500.56
556.071	28021.33
556.271	28555.85
556.47	28150.35
556.67	27929.17
556.869	28093.01
557.068	28342.86
557.268	27843.16
557.467	27980.37
557.667	27722.33
557.866	28062.29
558.065	27968.09
558.265	27640.41
558.464	27581.02
558.663	27961.94
558.863	27748.95
559.062	28129.87
559.261	27470.43
559.461	27757.14
559.66	27732.57
559.859	27497.05
560.058	27877.97
560.258	27824.73
560.457	27282.02
560.656	27695.71
560.855	27236.96
561.054	27456.09
561.253	27456.09
561.453	27347.55
561.652	27296.35
561.851	27636.31
562.05	27093.6
562.249	27417.18
562.448	27329.12
562.647	27171.43
562.846	27034.21
563.045	27181.67
563.244	26882.66
563.443	27368.03
563.642	26772.07
563.841	27069.03
564.04	26823.27
564.239	27107.94
564.438	26409.58
564.637	26739.3
564.836	26679.91
565.035	26339.95
565.234	26651.24
565.432	26428.01
565.631	26546.79
565.83	26704.49
566.029	26567.27
566.228	26464.88
566.427	26042.99
566.625	26145.39
566.824	25936.5
567.023	26186.35
567.222	25719.42
567.42	26081.91
567.619	26008.18
567.818	26196.59
568.016	25850.49
568.215	25956.98
568.414	25582.2
568.612	25770.61
568.811	25764.47
569.01	25787
569.208	25451.13
569.407	25645.69
569.605	25301.63
569.804	25408.12
570.002	25254.53
570.201	25346.69
570.4	25182.85
570.598	25115.26
570.797	25021.06
570.995	25068.16
571.193	24810.12
571.392	25451.13
571.59	24738.44
571.789	24906.37
571.987	24920.71
572.186	24760.97
572.384	24236.69
572.582	24695.43
572.781	24654.47
572.979	24478.35
573.177	24521.35
573.376	24474.25
573.574	24195.73
573.772	24345.23
573.971	24273.55
574.169	24029.84
574.367	23906.96
574.565	24087.18
574.763	23888.53
574.962	23995.03
575.16	23782.04
575.358	23868.05
575.556	23634.58
575.754	24107.66
575.952	23466.65
576.151	23724.69
576.349	23319.2
576.547	23188.13
576.745	23530.14
576.943	23444.12
577.141	23143.07
577.339	23337.63
577.537	22819.49
577.735	23038.62
577.933	22872.74
578.131	23038.62
578.329	22770.34
578.527	22844.07
578.725	22940.32
578.923	22870.69
579.121	22723.24
579.319	22731.43
579.516	22641.32
579.714	22891.17
579.912	22655.65
580.11	22117.04
580.308	22205.1
580.506	22268.59
580.704	22026.93
580.901	22205.1
581.099	22166.19
581.297	22047.41
581.495	22084.27
581.692	22082.22
581.89	22084.27
582.088	22389.42
582.285	21895.86
582.483	21877.43
582.681	21998.26
582.878	21576.37
583.076	21371.58
583.274	21527.22
583.471	21209.79
583.669	21338.81
583.866	21291.71
584.064	21607.09
584.262	21224.12
584.459	21160.64
584.657	21285.56
584.854	21293.76
585.052	21103.29
585.249	20808.39
585.447	21021.38
585.644	20665.03
585.841	20951.74
586.039	20677.32
586.236	20611.78
586.434	20720.32
586.631	20486.86
586.828	20550.34
587.026	20634.31
587.223	20306.63
587.42	20599.49
587.618	20318.92
587.815	20243.15
588.012	20128.46
588.21	20011.73
588.407	20232.91
588.604	19907.28
588.801	19757.78
588.999	19946.19
589.196	19886.8
589.393	19700.44
589.59	19561.17
589.787	19585.75
589.984	19636.95
590.182	19438.3
590.379	19415.77
590.576	19309.27
590.773	19421.91
590.97	19331.8
591.167	19507.93
591.364	19237.59
591.561	19165.92
591.758	19047.13
591.955	19186.4
592.152	19081.95
592.349	18846.43
592.546	19055.33
592.743	18805.47
592.94	18512.61
593.137	19086.04
593.334	18866.91
593.531	18340.58
593.727	18594.53
593.924	18645.73
594.121	18510.57
594.318	18637.54
594.515	18221.8
594.712	18381.54
594.908	18379.5
595.105	18334.44
595.302	18221.8
595.499	18205.42
595.696	18117.36
595.892	17928.94
596.089	18191.08
596.286	18051.82
596.482	17607.41
596.679	17674.99
596.876	17879.79
597.072	17744.63
597.269	17871.6
597.466	17414.9
597.662	17533.68
597.859	17507.06
598.055	17718
598.252	17271.54
598.448	17437.43
598.645	17269.5
598.841	17031.93
599.038	17457.91
599.234	17208.06
599.431	17085.18
599.627	16993.02
599.824	17220.35
600.02	16913.15
600.217	16954.11
600.413	16734.98
600.609	16792.32
600.806	16562.95
601.002	16728.83
601.198	16372.49
601.395	16513.8
601.591	16448.26
601.787	16536.32
601.984	16206.6
602.18	16741.12
602.376	16540.42
602.572	16188.17
602.769	16374.53
602.965	15956.75
603.161	16427.78
603.357	15844.11
603.553	15911.69
603.75	15889.17
603.946	15835.92
604.142	15999.76
604.338	15698.7
604.534	15780.62
604.73	15573.78
604.926	15368.98
605.122	15733.52
605.318	15637.27
605.514	15604.5
605.71	15356.69
605.906	15452.95
606.102	15647.51
606.298	15508.24
606.494	15354.65
606.69	15553.3
606.886	15178.52
607.082	15139.61
607.278	15272.73
607.474	14994.2
607.67	15137.56
607.866	14938.91
608.062	15008.54
608.257	14830.37
608.453	15080.22
608.649	14988.06
608.845	14889.76
609.041	14940.96
609.236	14828.32
609.432	14734.11
609.628	14770.97
609.824	14609.19
610.019	14762.78
610.215	14766.88
610.411	14461.73
610.606	14557.99
610.802	14713.63
610.998	14512.93
611.193	14336.81
611.389	14342.95
611.584	14416.68
611.78	14383.91
611.976	14545.7
612.171	14383.91
612.367	14258.98
612.562	14238.5
612.758	13873.96
612.953	14189.35
613.149	14222.12
613.344	14125.86
613.539	14015.27
613.735	14132.01
613.93	14054.19
614.126	13749.04
614.321	14138.15
614.517	13796.14
614.712	13978.41
614.907	13970.22
615.103	13865.77
615.298	13746.99
615.493	13959.98
615.688	13611.82
615.884	13962.03
616.079	13509.43
616.274	13753.13
616.47	13695.79
616.665	13720.37
616.86	13372.21
617.055	13562.67
617.25	13675.31
617.445	13728.56
617.641	13427.51
617.836	13445.94
618.031	13415.22
618.226	13636.4
618.421	13357.88
618.616	13503.28
618.811	13011.77
619.006	13544.24
619.201	12880.7
619.396	13187.89
619.591	13179.7
619.786	12878.65
619.981	12698.43
620.176	12829.5
620.371	12600.13
620.566	12753.73
620.761	12665.66
620.956	12995.39
621.151	12555.07
621.346	12415.81
621.541	12450.63
621.735	12477.25
621.93	12165.96
622.125	12188.49
622.32	12086.09
622.515	12202.82
622.709	12026.7
622.904	12483.39
623.099	12178.25
623.294	12086.09
623.488	11703.12
623.683	11903.82
623.878	11737.93
624.072	11676.49
624.267	11449.17
624.462	11473.74
624.656	11537.23
624.851	11445.07
625.046	11471.7
625.24	11207.51
625.435	11299.67
625.629	11305.81
625.824	11197.27
626.018	11135.83
626.213	10851.16
626.407	10937.18
626.602	10847.07
626.796	10828.63
626.991	10953.56
627.185	10785.63
627.38	10771.29
627.574	10724.19
627.768	10621.79
627.963	10664.8
628.157	10529.63
628.352	10453.86
628.546	10320.74
628.74	10212.2
628.935	10277.73
629.129	10287.97
629.323	10044.26
629.517	10263.4
629.712	10109.8
629.906	10163.04
630.1	9876.33
630.294	10017.64
630.489	9775.98
630.683	9694.06
630.877	9597.81
631.071	9614.19
631.265	9661.29
631.459	9519.98
631.653	9542.51
631.848	9499.5
632.042	9233.27
632.236	9610.09
632.43	9190.26
632.624	9337.71
632.818	9302.9
633.012	9024.37
633.206	9104.25
633.4	8960.89
633.594	8975.22
633.788	9118.58
633.982	8903.54
634.176	9055.09
634.369	8866.68
634.563	8833.91
634.757	8596.35
634.951	8686.46
635.145	8571.77
635.339	8825.72
635.533	8514.43
635.726	8700.8
635.92	8465.28
636.114	8510.33
636.308	8446.85
636.501	8463.23
636.695	8244.1
636.889	8307.59
637.083	8115.08
637.276	8293.25
637.47	8115.08
637.664	8168.32
637.857	8110.98
638.051	8049.54
638.244	8024.97
638.438	7949.19
638.632	7938.95
638.825	7809.93
639.019	7715.72
639.212	7707.53
639.406	7803.78
639.599	7512.97
639.793	7572.36
639.986	7451.53
640.18	7457.68
640.373	7435.15
640.567	7525.26
640.76	7396.24
640.954	7398.29
641.147	7283.6
641.34	7426.96
641.534	7222.16
641.727	7066.52
641.92	7318.42
642.114	7144.34
642.307	7101.33
642.5	7050.13
642.694	6998.93
642.887	6962.07
643.08	6980.5
643.273	6787.99
643.467	6769.56
643.66	6896.53
643.853	6759.32
644.046	6577.05
644.239	6714.27
644.432	6720.41
644.626	6509.47
644.819	6661.02
645.012	6642.59
645.205	6669.21
645.398	6509.47
645.591	6499.23
645.784	6355.87
645.977	6325.15
646.17	6357.92
646.363	6316.96
646.556	6097.83
646.749	6235.04
646.942	6323.1
647.135	6362.01
647.328	6118.31
647.521	6048.68
647.714	5962.66
647.907	6036.39
648.099	6128.55
648.292	6001.57
648.485	5852.07
648.678	5862.31
648.871	5964.71
649.064	5733.29
649.256	5833.64
649.449	5831.59
649.642	5739.43
649.835	5524.4
650.027	5786.54
650.22	5626.79
650.413	5510.06
650.605	5624.75
650.798	5573.55
650.991	5493.68
651.183	5518.25
651.376	5303.22
651.568	5395.37
651.761	5409.71
651.954	5374.89
652.146	5264.3
652.339	5239.73
652.531	5270.45
652.724	5258.16
652.916	5073.84
653.109	5100.47
653.301	5151.67
653.494	5200.82
653.686	4991.92
653.879	5129.14
654.071	4957.11
654.263	5061.55
654.456	5036.98
654.648	5108.66
654.84	4897.72
655.033	4899.77
655.225	4815.8
655.417	4938.68
655.61	4871.09
655.802	4918.2
655.994	4780.98
656.186	4871.09
656.379	4834.23
656.571	4752.31
656.763	4793.27
656.955	4649.91
657.148	4608.95
657.34	4514.75
657.532	4604.86
657.724	4496.32
657.916	4533.18
658.108	4572.09
658.3	4535.23
658.492	4371.39
658.684	4346.81
658.876	4359.1
659.068	4551.61
659.26	4312
659.452	4230.08
659.644	4330.43
659.836	4279.23
660.028	4355.01
660.22	4189.12
660.412	4125.63
660.604	4281.28
660.796	4082.63
660.988	4070.34
661.18	4056
661.372	4068.29
661.563	4099.01
661.755	3996.61
661.947	4006.85
662.139	3894.21
662.331	3877.83
662.522	3941.32
662.714	3847.11
662.906	3806.15
663.097	3912.64
663.289	3851.21
663.481	3754.95
663.673	3679.18
663.864	3675.08
664.056	3740.61
664.247	3611.59
664.439	3607.5
664.631	3642.31
664.822	3752.9
665.014	3677.13
665.205	3513.29
665.397	3609.54
665.588	3656.65
665.78	3513.29
665.971	3505.1
666.163	3589.07
666.354	3564.49
666.546	3630.02
666.737	3488.71
666.929	3355.6
667.12	3462.09
667.311	3505.1
667.503	3490.76
667.694	3437.52
667.885	3345.36
668.077	3486.67
668.268	3365.84
668.459	3371.98
668.651	3445.71
668.842	3269.58
669.033	3195.86
669.224	3302.35
669.416	3222.48
669.607	3245.01
669.798	3236.81
669.989	3376.08
670.18	3222.48
670.371	3130.32
670.563	3099.6
670.754	3089.36
670.945	3097.55
671.136	3009.49
671.327	3204.05
671.518	3099.6
671.709	2991.06
671.9	3156.94
672.091	3068.88
672.282	3050.45
672.473	2993.11
672.664	2925.52
672.855	2892.76
673.046	3042.26
673.237	2927.57
673.428	2962.39
673.619	2907.09
673.809	3036.11
674	2888.66
674.191	3044.31
674.382	2819.03
674.573	2866.13
674.764	2859.99
674.954	2884.56
675.145	2819.03
675.336	2872.28
675.527	2866.13
675.717	2821.08
675.908	2798.55
676.099	2788.31
676.289	2835.41
676.48	2773.97
676.671	2716.63
676.861	2616.28
677.052	2733.01
677.243	2757.59
677.433	2790.36
677.624	2757.59
677.814	2767.83
678.005	2765.78
678.195	2761.69
678.386	2661.34
678.576	2661.34
678.767	2741.21
678.957	2585.56
679.148	2690.01
679.338	2618.33
679.529	2538.46
679.719	2690.01
679.909	2618.33
680.1	2571.22
680.29	2593.75
680.481	2595.8
680.671	2593.75
680.861	2495.45
681.052	2634.71
681.242	2659.29
681.432	2671.58
681.622	2603.99
681.813	2571.22
682.003	2456.54
682.193	2630.62
682.383	2577.37
682.573	2599.9
682.764	2423.77
682.954	2520.03
683.144	2563.03
683.334	2448.35
683.524	2511.83
683.714	2509.79
683.904	2520.03
684.094	2411.48
684.284	2454.49
684.474	2423.77
684.664	2495.45
684.854	2468.83
685.044	2411.48
685.234	2534.36
685.424	2538.46
685.614	2558.94
685.804	2352.09
685.994	2391
686.184	2339.8
686.374	2399.2
686.564	2354.14
686.753	2337.76
686.943	2491.35
687.133	2425.82
687.323	2452.44
687.513	2335.71
687.702	2331.61
687.892	2388.96
688.082	2456.54
688.272	2397.15
688.461	2448.35
688.651	2397.15
688.841	2292.7
689.03	2235.36
689.22	2307.04
689.41	2257.89
689.599	2345.95
689.789	2315.23
689.979	2251.74
690.168	2241.5
690.358	2259.93
690.547	2286.56
690.737	2198.49
690.926	2175.97
691.116	2157.54
691.305	2264.03
691.495	2182.11
691.684	2286.56
691.874	2237.41
692.063	2141.15
692.252	2278.37
692.442	2286.56
692.631	2202.59
692.82	2157.54
693.01	2180.06
693.199	2182.11
693.388	2137.06
693.578	2186.21
693.767	2216.93
693.956	2218.97
694.146	2227.17
694.335	2085.86
694.524	2094.05
694.713	2157.54
694.902	2092
695.092	2159.58
695.281	2128.86
695.47	2102.24
695.659	2087.9
695.848	2073.57
696.037	2141.15
696.226	1995.75
696.415	2030.56
696.604	2132.96
696.793	2012.13
696.982	1967.07
697.171	2059.23
697.36	1997.79
697.549	2044.9
697.738	1989.6
697.927	2036.7
698.116	2044.9
698.305	2014.18
698.494	1948.64
698.683	2071.52
698.872	2094.05
699.061	2046.94
699.25	1999.84
699.438	1958.88
699.627	1946.59
699.816	1977.31
700.005	1823.72
700.193	2085.86
700.382	2034.66
700.571	2061.28
700.76	1836
700.948	1936.35
701.137	1909.73
701.326	1936.35
701.514	2046.94
701.703	1997.79
701.892	1993.7
702.08	2048.99
702.269	1872.87
702.457	1895.4
702.646	1942.5
702.834	1840.1
703.023	1811.43
703.212	1954.79
703.4	1844.2
703.589	1891.3
703.777	1930.21
703.965	1864.68
704.154	1893.35
704.342	1942.5
704.531	1952.74
704.719	1893.35
704.907	1885.16
705.096	1709.03
705.284	1797.09
705.472	1879.01
705.661	1874.92
705.849	1829.86
706.037	1795.04
706.226	1807.33
706.414	1793
706.602	1915.87
706.79	1848.29
706.979	1749.99
707.167	1840.1
707.355	1774.56
707.543	1854.44
707.731	1879.01
707.919	1741.8
708.107	1754.09
708.296	1805.28
708.484	1778.66
708.672	1776.61
708.86	1852.39
709.048	1811.43
709.236	1827.81
709.424	1749.99
709.612	1709.03
709.8	1799.14
709.988	1702.89
710.176	1749.99
710.364	1844.2
710.551	1741.8
710.739	1745.89
710.927	1596.39
711.115	1723.37
711.303	1762.28
711.491	1678.31
711.679	1686.5
711.866	1670.12
712.054	1733.61
712.242	1623.02
712.43	1684.45
712.617	1614.82
712.805	1747.94
712.993	1696.74
713.181	1612.78
713.368	1602.54
713.556	1655.78
713.744	1670.12
713.931	1737.7
714.119	1655.78
714.306	1618.92
714.494	1655.78
714.682	1586.15
714.869	1588.2
715.057	1680.36
715.244	1614.82
715.432	1715.17
715.619	1625.06
715.807	1612.78
715.994	1651.69
716.182	1616.87
716.369	1575.91
716.556	1663.97
716.744	1653.73
716.931	1530.86
717.119	1563.62
717.306	1549.29
717.493	1657.83
717.681	1608.68
717.868	1539.05
718.055	1537
718.242	1528.81
718.43	1659.88
718.617	1639.4
718.804	1500.14
718.991	1487.85
719.179	1596.39
719.366	1547.24
719.553	1467.37
719.74	1547.24
719.927	1649.64
720.114	1561.58
720.301	1463.27
720.488	1450.99
720.676	1455.08
720.863	1547.24
721.05	1516.52
721.237	1522.66
721.424	1446.89
721.611	1598.44
721.798	1557.48
721.985	1504.23
722.172	1354.73
722.358	1545.19
722.545	1520.62
722.732	1387.5
722.919	1485.8
723.106	1469.42
723.293	1450.99
723.48	1455.08
723.667	1465.32
723.853	1422.31
724.04	1537
724.227	1424.36
724.414	1340.4
724.6	1469.42
724.787	1383.4
724.974	1432.55
725.161	1377.26
725.347	1350.64
725.534	1434.6
725.72	1500.14
725.907	1471.47
726.094	1430.51
726.28	1461.23
726.467	1430.51
726.653	1367.02
726.84	1463.27
727.027	1344.49
727.213	1393.64
727.4	1479.66
727.586	1405.93
727.773	1414.12
727.959	1364.97
728.145	1463.27
728.332	1354.73
728.518	1410.03
728.705	1475.56
728.891	1387.5
729.077	1414.12
729.264	1440.75
729.45	1393.64
729.636	1348.59
729.823	1399.79
730.009	1440.75
730.195	1340.4
730.382	1432.55
730.568	1256.43
730.754	1403.88
730.94	1319.92
731.126	1385.45
731.313	1412.07
731.499	1381.35
731.685	1315.82
731.871	1309.68
732.057	1274.86
732.243	1350.64
732.429	1356.78
732.615	1221.61
732.801	1338.35
732.987	1293.29
733.173	1334.25
733.359	1332.2
733.545	1389.55
733.731	1244.14
733.917	1315.82
734.103	1223.66
734.289	1362.92
734.475	1307.63
734.661	1272.81
734.847	1346.54
735.033	1414.12
735.219	1348.59
735.404	1285.1
735.59	1348.59
735.776	1276.91
735.962	1313.77
736.148	1373.16
736.333	1346.54
736.519	1289.2
736.705	1313.77
736.89	1285.1
737.076	1242.09
737.262	1315.82
737.447	1248.24
737.633	1324.01
737.819	1291.24
738.004	1317.87
738.19	1207.28
738.375	1227.76
738.561	1227.76
738.747	1217.52
738.932	1274.86
739.118	1266.67
739.303	1244.14
739.489	1242.09
739.674	1205.23
739.859	1285.1
740.045	1207.28
740.23	1317.87
740.416	1203.18
740.601	1162.22
740.786	1203.18
740.972	1268.72
741.157	1178.61
741.342	1262.57
741.528	1160.17
741.713	1238
741.898	1246.19
742.084	1182.7
742.269	1104.88
742.454	1100.78
742.639	1104.88
742.824	1145.84
743.01	1229.81
743.195	1227.76
743.38	1209.33
743.565	1194.99
743.75	1190.89
743.935	1145.84
744.12	1137.65
744.305	1248.24
744.49	1194.99
744.675	1178.61
744.86	1119.21
745.045	1084.4
745.23	1207.28
745.415	1143.79
745.6	1106.93
745.785	1096.69
745.97	1160.17
746.155	1063.92
746.34	1113.07
746.525	1022.96
746.71	1106.93
746.895	1143.79
747.079	1111.02
747.264	1016.82
747.449	1106.93
747.634	1053.68
747.819	1092.59
748.003	1043.44
748.188	1035.25
748.373	1063.92
748.557	1063.92
748.742	1045.49
748.927	1004.53
749.111	969.71
749.296	938.99
749.481	1061.87
749.665	885.75
749.85	986.1
750.034	1119.21
750.219	932.85
750.404	994.29
750.588	982
750.773	928.75
750.957	938.99
751.141	861.17
751.326	910.32
751.51	922.61
751.695	979.95
751.879	945.14
752.064	965.62
752.248	951.28
752.432	889.84
752.617	912.37
752.801	914.42
752.985	906.23
753.17	832.5
753.354	891.89
753.538	918.51
753.722	865.27
753.907	861.17
754.091	869.36
754.275	965.62
754.459	762.87
754.643	875.51
754.828	887.79
755.012	820.21
755.196	809.97
755.38	758.77
755.564	818.16
755.748	873.46
755.932	840.69
756.116	760.82
756.3	777.2
756.484	769.01
756.668	734.2
756.852	799.73
757.036	766.96
757.22	758.77
757.404	758.77
757.588	742.39
757.772	672.76
757.956	742.39
758.14	781.3
758.323	783.35
758.507	711.67
758.691	707.57
758.875	717.81
759.059	723.96
759.242	621.56
759.426	777.2
759.61	699.38
759.794	769.01
759.977	728.05
760.161	670.71
760.345	670.71
760.528	785.4
760.712	680.95
760.895	701.43
761.079	697.33
761.263	621.56
761.446	707.57
761.63	685.05
761.813	715.77
761.997	654.33
762.18	652.28
762.364	701.43
762.547	668.66
762.731	680.95
762.914	617.46
763.098	670.71
763.281	672.76
763.464	672.76
763.648	592.89
763.831	687.09
764.015	574.46
764.198	748.53
764.381	584.7
764.564	605.17
764.748	572.41
764.931	650.23
765.114	650.23
765.297	601.08
765.481	613.37
765.664	539.64
765.847	553.98
766.03	635.89
766.213	582.65
766.397	633.85
766.58	558.07
766.763	574.46
766.946	582.65
767.129	644.09
767.312	576.5
767.495	594.93
767.678	553.98
767.861	656.37
768.044	535.54
768.227	484.34
768.41	660.47
768.593	613.37
768.776	549.88
768.959	627.7
769.142	560.12
769.324	545.78
769.507	582.65
769.69	553.98
769.873	590.84
770.056	517.11
770.239	574.46
770.421	525.3
770.604	551.93
770.787	553.98
770.97	543.74
771.152	533.5
771.335	486.39
771.518	490.49
771.7	566.26
771.883	472.06
772.066	521.21
772.248	549.88
772.431	539.64
772.613	474.1
772.796	543.74
772.978	517.11
773.161	517.11
773.343	494.58
773.526	451.58
773.708	427
773.891	494.58
774.073	463.86
774.256	519.16
774.438	527.35
774.621	513.02
774.803	476.15
774.985	506.87
775.168	470.01
775.35	500.73
775.532	437.24
775.715	439.29
775.897	484.34
776.079	433.15
776.261	465.91
776.444	474.1
776.626	424.95
776.808	486.39
776.99	437.24
777.173	388.09
777.355	472.06
777.537	449.53
777.719	437.24
777.901	488.44
778.083	427
778.265	433.15
778.447	396.28
778.629	424.95
778.811	439.29
778.993	365.56
779.175	406.52
779.357	353.27
779.539	322.56
779.721	408.57
779.903	482.3
780.085	388.09
780.267	390.14
780.449	390.14
780.631	437.24
780.812	435.19
780.994	398.33
781.176	332.79
781.358	343.03
781.54	416.76
781.721	275.45
781.903	414.71
782.085	312.32
782.267	332.79
782.448	351.23
782.63	365.56
782.812	392.19
782.993	330.75
783.175	371.71
783.357	236.54
783.538	265.21
783.72	312.32
783.901	279.55
784.083	363.51
784.264	334.84
784.446	257.02
784.627	232.44
784.809	373.75
784.99	275.45
785.172	326.65
785.353	267.26
785.535	220.16
785.716	320.51
785.897	275.45
786.079	277.5
786.26	318.46
786.441	271.36
786.623	238.59
786.804	273.4
786.985	300.03
787.167	291.84
787.348	240.64
787.529	312.32
787.71	218.11
787.891	275.45
788.073	316.41
788.254	232.44
788.435	242.68
788.616	226.3
788.797	275.45
788.978	283.64
789.159	201.72
789.34	250.88
789.522	328.7
789.703	326.65
789.884	230.4
790.065	293.88
790.246	250.88
790.427	234.49
790.607	216.06
790.788	281.6
790.969	236.54
791.15	222.2
791.331	195.58
791.512	224.25
791.693	197.63
791.874	252.92
792.054	201.72
792.235	240.64
792.416	222.2
792.597	263.16
792.778	252.92
792.958	218.11
793.139	214.01
793.32	269.31
793.5	175.1
793.681	261.12
793.862	195.58
794.042	246.78
794.223	193.53
794.404	222.2
794.584	218.11
794.765	87.04
794.945	173.05
795.126	234.49
795.306	142.33
795.487	205.82
795.667	140.29
795.848	175.1
796.028	195.58
796.209	140.29
796.389	244.73
796.57	218.11
796.75	179.2
796.93	199.68
797.111	175.1
797.291	218.11
797.471	250.88
797.652	189.44
797.832	193.53
798.012	220.16
798.192	162.81
798.373	195.58
798.553	158.72
798.733	125.95
798.913	185.34
799.093	150.53
799.274	160.77
799.454	140.29
799.634	148.48
799.814	179.2
799.994	220.16
800.174	166.91
800.354	197.63
800.534	175.1
800.714	146.43
800.894	103.42
801.074	183.29
801.254	144.38
801.434	201.72
801.614	113.66
801.794	168.96
801.974	400.38
802.154	125.95
802.334	130.05
802.514	115.71
802.693	111.61
802.873	177.15
803.053	205.82
803.233	179.2
803.413	144.38
803.592	209.92
803.772	117.76
803.952	218.11
804.131	113.66
804.311	164.86
804.491	179.2
804.67	107.52
804.85	152.57
805.03	109.57
805.209	189.44
805.389	152.57
805.568	99.33
805.748	82.94
805.928	87.04
806.107	148.48
806.287	109.57
806.466	84.99
806.646	187.39
806.825	95.23
807.004	99.33
807.184	148.48
807.363	205.82
807.543	113.66
807.722	144.38
807.901	87.04
808.081	138.24
808.26	132.09
808.439	162.81
808.619	105.47
808.798	119.81
808.977	119.81
809.156	119.81
809.336	132.09
809.515	82.94
809.694	199.68
809.873	136.19
810.052	140.29
810.231	119.81
810.411	138.24
810.59	103.42
810.769	130.05
810.948	74.75
811.127	70.65
811.306	185.34
811.485	101.37
811.664	119.81
811.843	162.81
812.022	154.62
812.201	62.46
812.38	80.89
812.559	80.89
812.737	105.47
812.916	115.71
813.095	142.33
813.274	115.71
813.453	111.61
813.632	109.57
813.811	107.52
813.989	50.18
814.168	56.32
814.347	121.85
814.526	117.76
814.704	160.77
814.883	166.91
815.062	39.94
815.24	99.33
815.419	29.7
815.598	101.37
815.776	117.76
815.955	89.09
816.133	33.79
816.312	142.33
816.49	62.46
816.669	130.05
816.847	103.42
817.026	95.23
817.204	144.38
817.383	62.46
817.561	121.85
817.74	132.09
817.918	70.65
818.097	70.65
818.275	50.18
818.453	76.8
818.632	93.18
818.81	125.95
818.988	113.66
819.167	123.9
819.345	56.32
819.523	144.38
819.701	50.18
819.879	111.61
820.058	13.31
820.236	99.33
820.414	103.42
820.592	62.46
820.77	56.32
820.948	103.42
821.127	52.22
821.305	52.22
821.483	60.42
821.661	109.57
821.839	111.61
822.017	89.09
822.195	29.7
822.373	93.18
822.551	93.18
822.729	80.89
822.907	56.32
823.085	80.89
823.262	84.99
823.44	70.65
823.618	89.09
823.796	44.03
823.974	39.94
824.152	103.42
824.329	93.18
824.507	74.75
824.685	87.04
824.863	144.38
825.04	-1.02
825.218	107.52
825.396	89.09
825.574	121.85
825.751	62.46
825.929	56.32
826.107	-17.41
826.284	87.04
826.462	58.37
826.639	72.7
826.817	101.37
826.994	89.09
827.172	9.22
827.349	52.22
827.527	50.18
827.704	66.56
827.882	31.74
828.059	21.5
828.237	3.07
828.414	25.6
828.591	66.56
828.769	56.32
828.946	33.79
829.124	103.42
829.301	123.9
829.478	89.09
829.655	87.04
829.833	41.98
830.01	46.08
830.187	82.94
830.364	15.36
830.542	109.57
830.719	111.61
830.896	44.03
831.073	41.98
831.25	125.95
831.427	3.07
831.604	95.23
831.782	70.65
831.959	3.07
832.136	29.7
832.313	-33.79
832.49	72.7
832.667	46.08
832.844	54.27
833.021	72.7
833.198	58.37
833.374	58.37
833.551	46.08
833.728	70.65
833.905	21.5
834.082	29.7
834.259	7.17
834.436	179.2
834.612	58.37
834.789	41.98
834.966	15.36
835.143	5.12
835.319	37.89
835.496	76.8
835.673	17.41
835.85	70.65
836.026	76.8
836.203	62.46
836.38	58.37
836.556	76.8
836.733	64.51
836.909	95.23
837.086	17.41
837.262	121.85
837.439	46.08
837.616	50.18
837.792	111.61
837.968	39.94
838.145	7.17
838.321	41.98
838.498	25.6
838.674	54.27
838.851	91.13
839.027	7.17
839.203	56.32
839.38	78.85
839.556	105.47
839.732	103.42
839.909	15.36
840.085	72.7
840.261	64.51
840.437	9.22
840.614	50.18
840.79	123.9
840.966	21.5
841.142	21.5
841.318	95.23
841.494	25.6
841.671	-41.98
841.847	31.74
842.023	35.84
842.199	27.65
842.375	50.18
842.551	-19.46
842.727	103.42
842.903	125.95
843.079	74.75
843.255	62.46
843.431	60.42
843.607	64.51
843.783	25.6
843.959	52.22
844.134	5.12
844.31	41.98
844.486	19.46
844.662	41.98
844.838	33.79
845.013	72.7
845.189	87.04
845.365	125.95
845.541	46.08
845.716	97.28
845.892	78.85
846.068	21.5
846.244	68.61
846.419	13.31
846.595	-19.46
846.77	37.89
846.946	54.27
847.122	113.66
847.297	1.02
847.473	9.22
847.648	80.89
847.824	17.41
847.999	13.31
848.175	-66.56
848.35	-37.89
848.526	95.23
848.701	19.46
848.876	5.12
849.052	78.85
849.227	62.46
849.403	-1.02
849.578	29.7
849.753	27.65
849.929	19.46
850.104	60.42
850.279	87.04
850.454	82.94
850.63	5.12
850.805	41.98
850.98	39.94
851.155	17.41
851.33	27.65
851.505	-44.03
851.681	29.7
851.856	13.31
852.031	41.98
852.206	-1.02
852.381	29.7
852.556	46.08
852.731	31.74
852.906	37.89
853.081	25.6
853.256	5.12
853.431	52.22
853.606	50.18
853.781	-15.36
853.956	23.55
854.131	48.13
854.305	91.13
854.48	97.28
854.655	25.6
854.83	97.28
855.005	33.79
855.18	15.36
855.354	11.26
855.529	31.74
855.704	-9.22
855.879	35.84
856.053	25.6
856.228	48.13
856.403	15.36
856.577	44.03
856.752	62.46
856.926	-23.55
857.101	-1.02
857.276	64.51
857.45	-37.89
857.625	82.94
857.799	17.41
857.974	19.46
858.148	-52.22
858.323	29.7
858.497	5.12
858.672	-44.03
858.846	25.6
859.02	21.5
859.195	27.65
859.369	62.46
859.543	25.6
859.718	111.61
859.892	11.26
860.066	97.28
860.241	-1.02
860.415	46.08
860.589	54.27
860.763	37.89
860.938	-62.46
861.112	62.46
861.286	37.89
861.46	64.51
861.634	103.42
861.808	-3.07
861.982	35.84
862.157	70.65
862.331	37.89
862.505	33.79
862.679	76.8
862.853	15.36
863.027	37.89
863.201	70.65
863.375	-11.26
863.549	9.22
863.722	-17.41
863.896	33.79
864.07	87.04
864.244	52.22
864.418	13.31
864.592	70.65
864.766	-1.02
864.939	23.55
865.113	-7.17
865.287	95.23
865.461	62.46
865.634	99.33
865.808	31.74
865.982	-21.5
866.156	23.55
866.329	72.7
866.503	31.74
866.676	37.89
866.85	60.42
867.024	-7.17
867.197	37.89
867.371	56.32
867.544	-33.79
867.718	-13.31
867.891	70.65
868.065	119.81
868.238	-58.37
868.412	64.51
868.585	17.41
868.759	35.84
868.932	-97.28
869.105	-15.36
869.279	70.65
869.452	19.46
869.625	7.17
869.799	31.74
869.972	46.08
870.145	-19.46
870.319	-5.12
870.492	-11.26
870.665	-11.26
870.838	78.85
871.011	-19.46
871.185	66.56
871.358	5.12
871.531	84.99
871.704	41.98
871.877	39.94
872.05	56.32
872.223	25.6
872.396	-27.65
872.569	62.46
872.742	-35.84
872.915	68.61
873.088	27.65
873.261	13.31
873.434	23.55
873.607	5.12
873.78	29.7
873.953	17.41
874.126	50.18
874.299	111.61
874.471	25.6
874.644	39.94
874.817	-15.36
874.99	50.18
875.163	19.46
875.335	1.02
875.508	66.56
875.681	3.07
875.853	44.03
876.026	44.03
876.199	74.75
876.371	41.98
876.544	5.12
876.717	15.36
876.889	-7.17
877.062	29.7
877.234	39.94
877.407	1.02
877.579	58.37
877.752	-35.84
877.924	37.89
878.097	17.41
878.269	37.89
878.442	-1.02
878.614	70.65
878.786	103.42
878.959	19.46
879.131	15.36
879.303	21.5
879.476	15.36
879.648	29.7
879.82	64.51
879.993	52.22
880.165	-11.26
880.337	62.46
880.509	78.85
880.681	27.65
880.854	-11.26
881.026	-48.13
881.198	33.79
881.37	9.22
881.542	44.03
881.714	44.03
881.886	41.98
882.058	19.46
882.23	58.37
882.402	-5.12
882.574	3.07
882.746	48.13
882.918	46.08
883.09	-17.41
883.262	78.85
883.434	50.18
883.606	-33.79
883.778	41.98
883.95	17.41
884.122	-23.55
884.293	44.03
884.465	17.41
884.637	-15.36
884.809	48.13
884.98	-58.37
885.152	78.85
885.324	13.31
885.496	27.65
885.667	5.12
885.839	15.36
886.011	48.13
886.182	3.07
886.354	31.74
886.525	15.36
886.697	-13.31
886.869	5.12
887.04	5.12
887.212	54.27
887.383	89.09
887.555	21.5
887.726	-7.17
887.897	48.13
888.069	48.13
888.24	9.22
888.412	-1.02
888.583	-5.12
888.754	37.89
888.926	-27.65
889.097	-39.94
889.268	17.41
889.44	15.36
889.611	31.74
889.782	-35.84
889.953	60.42
890.125	74.75
890.296	-82.94
890.467	87.04
890.638	9.22
890.809	29.7
890.98	70.65
891.151	29.7
891.323	15.36
891.494	23.55
891.665	64.51
891.836	31.74
892.007	-5.12
892.178	-1.02
892.349	15.36
892.52	25.6
892.691	17.41
892.862	1.02
893.032	-23.55
893.203	9.22
893.374	76.8
893.545	56.32
893.716	60.42
893.887	11.26
894.057	17.41
894.228	52.22
894.399	13.31
894.57	72.7
894.74	54.27
894.911	82.94
895.082	-46.08
895.253	-9.22
895.423	-37.89
895.594	-60.42
895.764	9.22
895.935	-35.84
896.106	9.22
896.276	70.65
896.447	13.31
896.617	44.03
896.788	-68.61
896.958	89.09
897.129	56.32
897.299	64.51
897.47	11.26
897.64	48.13
897.81	-17.41
897.981	39.94
898.151	-7.17
898.322	31.74
898.492	-9.22
898.662	-23.55
898.832	87.04
899.003	50.18
899.173	17.41
899.343	41.98
899.513	46.08
