Data from USB4F104151__42__12-59-05-006.txt Node

Date: Fri Mar 14 12:59:05 EDT 2025
User: louis
Spectrometer: USB4F10415
Trigger mode: 4
Integration Time (sec): 1.000000E-2
Scans to average: 1
Electric dark correction enabled: true
Nonlinearity correction enabled: false
Boxcar width: 0
XAxis mode: Wavelengths
Number of Pixels in Spectrum: 3648
>>>>>Begin Spectral Data<<<<<
178.204	-28.16
178.424	-28.16
178.644	-28.16
178.864	-15.87
179.084	-77.31
179.304	-11.78
179.524	10.75
179.744	16.9
179.964	31.23
180.184	8.7
180.404	-3.58
180.624	-3.58
180.844	-19.97
181.064	-32.26
181.283	37.38
181.503	-28.16
181.723	-5.63
181.943	-46.59
182.163	-3.58
182.383	-46.59
182.602	29.18
182.822	-19.97
183.042	-83.45
183.262	-13.82
183.482	-38.4
183.701	12.8
183.921	-28.16
184.141	-1.54
184.361	25.09
184.58	-22.02
184.8	-1.54
185.02	-46.59
185.239	-26.11
185.459	-34.3
185.679	14.85
185.898	-7.68
186.118	-54.78
186.338	55.81
186.557	25.09
186.777	-3.58
186.997	12.8
187.216	20.99
187.436	76.29
187.655	8.7
187.875	-19.97
188.095	16.9
188.314	-3.58
188.534	-75.26
188.753	-38.4
188.973	53.76
189.192	-13.82
189.412	6.66
189.631	23.04
189.851	-22.02
190.07	-5.63
190.29	-7.68
190.509	10.75
190.729	66.05
190.948	-19.97
191.168	-1.54
191.387	6.66
191.607	53.76
191.826	-32.26
192.045	-56.83
192.265	33.28
192.484	14.85
192.704	-50.69
192.923	-24.06
193.142	-9.73
193.362	-103.93
193.581	-1.54
193.8	29.18
194.02	-13.82
194.239	-3.58
194.458	0.51
194.678	4.61
194.897	-50.69
195.116	45.57
195.335	23.04
195.555	-1.54
195.774	-11.78
195.993	-19.97
196.212	20.99
196.432	-13.82
196.651	-73.21
196.87	-56.83
197.089	8.7
197.308	43.52
197.528	-9.73
197.747	-85.5
197.966	-17.92
198.185	8.7
198.404	-34.3
198.623	14.85
198.842	-15.87
199.062	23.04
199.281	111.1
199.5	-1.54
199.719	-42.5
199.938	-9.73
200.157	-11.78
200.376	-11.78
200.595	-17.92
200.814	31.23
201.033	70.14
201.252	47.62
201.471	-28.16
201.69	-17.92
201.909	-50.69
202.128	-58.88
202.347	6.66
202.566	-22.02
202.785	4.61
203.004	-65.02
203.223	23.04
203.442	98.81
203.661	-1.54
203.879	37.38
204.098	29.18
204.317	-26.11
204.536	59.9
204.755	90.62
204.974	37.38
205.193	20.99
205.411	35.33
205.63	-5.63
205.849	-75.26
206.068	-1.54
206.287	-13.82
206.505	-30.21
206.724	29.18
206.943	-46.59
207.162	6.66
207.381	57.86
207.599	8.7
207.818	-5.63
208.037	0.51
208.255	8.7
208.474	35.33
208.693	-28.16
208.911	14.85
209.13	-48.64
209.349	84.48
209.567	55.81
209.786	10.75
210.005	-15.87
210.223	-95.74
210.442	31.23
210.661	-9.73
210.879	-34.3
211.098	-28.16
211.316	-17.92
211.535	53.76
211.753	45.57
211.972	33.28
212.191	-56.83
212.409	6.66
212.628	31.23
212.846	-32.26
213.065	-26.11
213.283	59.9
213.502	-7.68
213.72	39.42
213.938	-13.82
214.157	10.75
214.375	16.9
214.594	18.94
214.812	16.9
215.031	-17.92
215.249	-54.78
215.467	0.51
215.686	29.18
215.904	37.38
216.122	25.09
216.341	8.7
216.559	-42.5
216.778	-15.87
216.996	-26.11
217.214	31.23
217.432	-44.54
217.651	16.9
217.869	18.94
218.087	-50.69
218.306	35.33
218.524	31.23
218.742	2.56
218.96	-24.06
219.179	37.38
219.397	-3.58
219.615	-17.92
219.833	27.14
220.051	-97.79
220.27	39.42
220.488	-81.41
220.706	4.61
220.924	41.47
221.142	23.04
221.36	31.23
221.578	12.8
221.796	-9.73
222.015	27.14
222.233	-13.82
222.451	8.7
222.669	12.8
222.887	-7.68
223.105	55.81
223.323	-38.4
223.541	39.42
223.759	31.23
223.977	-17.92
224.195	2.56
224.413	39.42
224.631	25.09
224.849	47.62
225.067	20.99
225.285	23.04
225.503	6.66
225.721	-13.82
225.939	-13.82
226.157	25.09
226.375	-3.58
226.592	-26.11
226.81	12.8
227.028	20.99
227.246	72.19
227.464	45.57
227.682	20.99
227.9	70.14
228.117	-56.83
228.335	-42.5
228.553	64
228.771	-44.54
228.989	-24.06
229.206	-73.21
229.424	-7.68
229.642	-17.92
229.86	-1.54
230.077	-1.54
230.295	37.38
230.513	-54.78
230.731	25.09
230.948	-3.58
231.166	64
231.384	49.66
231.601	-19.97
231.819	25.09
232.037	-36.35
232.254	-73.21
232.472	-7.68
232.689	49.66
232.907	-3.58
233.125	-24.06
233.342	25.09
233.56	-22.02
233.777	-13.82
233.995	-15.87
234.213	-42.5
234.43	12.8
234.648	68.09
234.865	37.38
235.083	4.61
235.3	-26.11
235.518	-7.68
235.735	27.14
235.953	27.14
236.17	4.61
236.388	35.33
236.605	2.56
236.822	59.9
237.04	55.81
237.257	47.62
237.475	-42.5
237.692	18.94
237.909	4.61
238.127	-48.64
238.344	4.61
238.562	61.95
238.779	-30.21
238.996	-28.16
239.214	35.33
239.431	2.56
239.648	33.28
239.865	47.62
240.083	-17.92
240.3	102.91
240.517	-28.16
240.735	37.38
240.952	53.76
241.169	49.66
241.386	-22.02
241.603	55.81
241.821	-22.02
242.038	-34.3
242.255	-7.68
242.472	18.94
242.689	14.85
242.907	14.85
243.124	-7.68
243.341	47.62
243.558	64
243.775	-34.3
243.992	-30.21
244.209	0.51
244.426	-11.78
244.643	-11.78
244.86	16.9
245.078	12.8
245.295	-28.16
245.512	-46.59
245.729	12.8
245.946	37.38
246.163	33.28
246.38	41.47
246.597	-44.54
246.814	-28.16
247.031	-36.35
247.248	-85.5
247.464	-28.16
247.681	41.47
247.898	2.56
248.115	-15.87
248.332	-42.5
248.549	49.66
248.766	-9.73
248.983	-24.06
249.2	41.47
249.417	33.28
249.633	-11.78
249.85	-5.63
250.067	45.57
250.284	-24.06
250.501	4.61
250.717	16.9
250.934	20.99
251.151	-50.69
251.368	-42.5
251.585	0.51
251.801	-1.54
252.018	6.66
252.235	35.33
252.451	23.04
252.668	-19.97
252.885	35.33
253.102	-122.37
253.318	-28.16
253.535	4.61
253.752	-42.5
253.968	23.04
254.185	6.66
254.401	6.66
254.618	29.18
254.835	-36.35
255.051	25.09
255.268	-28.16
255.484	4.61
255.701	27.14
255.917	29.18
256.134	29.18
256.351	68.09
256.567	-65.02
256.784	2.56
257	-62.98
257.217	4.61
257.433	-30.21
257.65	33.28
257.866	-5.63
258.082	4.61
258.299	25.09
258.515	4.61
258.732	12.8
258.948	-3.58
259.165	33.28
259.381	33.28
259.597	-30.21
259.814	-11.78
260.03	-5.63
260.246	8.7
260.463	18.94
260.679	8.7
260.895	-30.21
261.112	59.9
261.328	23.04
261.544	-24.06
261.761	16.9
261.977	80.38
262.193	0.51
262.409	25.09
262.626	12.8
262.842	-22.02
263.058	14.85
263.274	35.33
263.49	-9.73
263.707	47.62
263.923	14.85
264.139	8.7
264.355	16.9
264.571	49.66
264.787	-56.83
265.004	-46.59
265.22	-50.69
265.436	-26.11
265.652	49.66
265.868	8.7
266.084	20.99
266.3	-11.78
266.516	-7.68
266.732	47.62
266.948	-40.45
267.164	78.33
267.38	-22.02
267.596	70.14
267.812	59.9
268.028	-3.58
268.244	31.23
268.46	4.61
268.676	-40.45
268.892	10.75
269.108	-122.37
269.324	-67.07
269.54	12.8
269.756	-24.06
269.972	-69.12
270.188	-17.92
270.403	-1.54
270.619	10.75
270.835	-40.45
271.051	-13.82
271.267	-19.97
271.483	16.9
271.698	-101.89
271.914	25.09
272.13	-44.54
272.346	-24.06
272.562	-46.59
272.777	70.14
272.993	-9.73
273.209	53.76
273.425	14.85
273.64	-13.82
273.856	-101.89
274.072	-3.58
274.287	14.85
274.503	68.09
274.719	47.62
274.934	25.09
275.15	16.9
275.366	18.94
275.581	18.94
275.797	-17.92
276.012	-50.69
276.228	35.33
276.444	29.18
276.659	0.51
276.875	-15.87
277.09	6.66
277.306	-52.74
277.521	35.33
277.737	-9.73
277.952	8.7
278.168	-52.74
278.383	14.85
278.599	31.23
278.814	23.04
279.03	-5.63
279.245	59.9
279.461	59.9
279.676	43.52
279.892	27.14
280.107	29.18
280.322	41.47
280.538	-42.5
280.753	43.52
280.969	53.76
281.184	-5.63
281.399	-9.73
281.615	0.51
281.83	8.7
282.045	-48.64
282.26	57.86
282.476	-81.41
282.691	14.85
282.906	23.04
283.122	-9.73
283.337	-17.92
283.552	31.23
283.767	-108.03
283.983	47.62
284.198	-9.73
284.413	20.99
284.628	12.8
284.843	35.33
285.058	-52.74
285.274	33.28
285.489	12.8
285.704	-5.63
285.919	37.38
286.134	-11.78
286.349	-26.11
286.564	10.75
286.779	0.51
286.995	16.9
287.21	0.51
287.425	37.38
287.64	27.14
287.855	37.38
288.07	-36.35
288.285	18.94
288.5	-3.58
288.715	-15.87
288.93	12.8
289.145	-17.92
289.36	29.18
289.575	37.38
289.79	-11.78
290.004	53.76
290.219	55.81
290.434	-73.21
290.649	29.18
290.864	20.99
291.079	-85.5
291.294	78.33
291.509	-48.64
291.724	47.62
291.938	-58.88
292.153	23.04
292.368	-34.3
292.583	76.29
292.798	35.33
293.012	12.8
293.227	29.18
293.442	16.9
293.657	12.8
293.871	16.9
294.086	-58.88
294.301	-11.78
294.516	6.66
294.73	53.76
294.945	59.9
295.16	33.28
295.374	-22.02
295.589	-50.69
295.804	-46.59
296.018	47.62
296.233	14.85
296.447	39.42
296.662	35.33
296.877	-17.92
297.091	-60.93
297.306	0.51
297.52	8.7
297.735	43.52
297.949	8.7
298.164	82.43
298.378	4.61
298.593	29.18
298.807	4.61
299.022	20.99
299.236	-26.11
299.451	-3.58
299.665	-79.36
299.88	-32.26
300.094	39.42
300.309	-30.21
300.523	-62.98
300.737	-24.06
300.952	-26.11
301.166	10.75
301.381	-26.11
301.595	31.23
301.809	-19.97
302.024	86.53
302.238	-3.58
302.452	4.61
302.667	-22.02
302.881	-1.54
303.095	-26.11
303.309	23.04
303.524	-48.64
303.738	29.18
303.952	-19.97
304.166	37.38
304.381	18.94
304.595	-22.02
304.809	-28.16
305.023	70.14
305.237	4.61
305.452	33.28
305.666	6.66
305.88	61.95
306.094	57.86
306.308	20.99
306.522	10.75
306.736	12.8
306.95	-48.64
307.164	-13.82
307.379	4.61
307.593	23.04
307.807	76.29
308.021	29.18
308.235	-13.82
308.449	8.7
308.663	-5.63
308.877	10.75
309.091	41.47
309.305	57.86
309.519	-60.93
309.733	29.18
309.947	53.76
310.161	12.8
310.374	23.04
310.588	6.66
310.802	84.48
311.016	-7.68
311.23	-9.73
311.444	16.9
311.658	-7.68
311.872	-1.54
312.085	43.52
312.299	-17.92
312.513	-99.84
312.727	-13.82
312.941	-58.88
313.154	14.85
313.368	-11.78
313.582	14.85
313.796	12.8
314.009	-13.82
314.223	70.14
314.437	47.62
314.651	12.8
314.864	39.42
315.078	39.42
315.292	-1.54
315.505	-36.35
315.719	29.18
315.933	-11.78
316.146	78.33
316.36	-19.97
316.573	53.76
316.787	80.38
317.001	-28.16
317.214	-77.31
317.428	-81.41
317.641	61.95
317.855	-5.63
318.068	43.52
318.282	-7.68
318.495	37.38
318.709	8.7
318.922	31.23
319.136	0.51
319.349	55.81
319.563	-7.68
319.776	-1.54
319.99	-19.97
320.203	-15.87
320.417	33.28
320.63	6.66
320.843	33.28
321.057	-48.64
321.27	-32.26
321.483	-11.78
321.697	0.51
321.91	51.71
322.124	25.09
322.337	18.94
322.55	-42.5
322.763	-15.87
322.977	-22.02
323.19	8.7
323.403	45.57
323.617	-32.26
323.83	25.09
324.043	66.05
324.256	45.57
324.469	-5.63
324.683	39.42
324.896	55.81
325.109	-3.58
325.322	-40.45
325.535	12.8
325.748	-5.63
325.962	29.18
326.175	31.23
326.388	37.38
326.601	-7.68
326.814	14.85
327.027	14.85
327.24	12.8
327.453	-54.78
327.666	29.18
327.879	39.42
328.092	-26.11
328.305	2.56
328.518	-1.54
328.731	43.52
328.944	31.23
329.157	23.04
329.37	37.38
329.583	-3.58
329.796	-3.58
330.009	-5.63
330.222	35.33
330.435	-1.54
330.648	-19.97
330.861	4.61
331.073	14.85
331.286	-30.21
331.499	-34.3
331.712	-44.54
331.925	-67.07
332.138	2.56
332.35	0.51
332.563	-28.16
332.776	-26.11
332.989	-24.06
333.202	12.8
333.414	-24.06
333.627	29.18
333.84	-24.06
334.053	82.43
334.265	-17.92
334.478	-36.35
334.691	-28.16
334.903	-48.64
335.116	37.38
335.329	64
335.541	-32.26
335.754	47.62
335.966	18.94
336.179	-17.92
336.392	6.66
336.604	37.38
336.817	-65.02
337.029	72.19
337.242	-28.16
337.454	12.8
337.667	-40.45
337.88	-19.97
338.092	35.33
338.305	12.8
338.517	20.99
338.729	143.87
338.942	2.56
339.154	35.33
339.367	-60.93
339.579	8.7
339.792	0.51
340.004	-9.73
340.217	-3.58
340.429	-32.26
340.641	-22.02
340.854	-44.54
341.066	0.51
341.278	-5.63
341.491	49.66
341.703	25.09
341.915	16.9
342.128	-28.16
342.34	0.51
342.552	57.86
342.764	16.9
342.977	31.23
343.189	-11.78
343.401	84.48
343.613	29.18
343.826	-32.26
344.038	49.66
344.25	-30.21
344.462	-5.63
344.674	-40.45
344.886	59.9
345.099	82.43
345.311	-52.74
345.523	6.66
345.735	8.7
345.947	-11.78
346.159	35.33
346.371	61.95
346.583	-38.4
346.795	-3.58
347.007	4.61
347.219	25.09
347.431	-34.3
347.643	35.33
347.855	86.53
348.067	-5.63
348.279	41.47
348.491	-13.82
348.703	-38.4
348.915	41.47
349.127	47.62
349.339	68.09
349.551	-15.87
349.763	-11.78
349.975	-28.16
350.187	-32.26
350.399	18.94
350.61	10.75
350.822	-11.78
351.034	35.33
351.246	25.09
351.458	47.62
351.669	14.85
351.881	78.33
352.093	-13.82
352.305	-19.97
352.517	14.85
352.728	27.14
352.94	6.66
353.152	10.75
353.363	-24.06
353.575	0.51
353.787	43.52
353.999	-26.11
354.21	43.52
354.422	-24.06
354.633	23.04
354.845	57.86
355.057	12.8
355.268	47.62
355.48	78.33
355.692	12.8
355.903	-3.58
356.115	-17.92
356.326	-34.3
356.538	25.09
356.749	-7.68
356.961	-44.54
357.172	31.23
357.384	-24.06
357.595	-5.63
357.807	35.33
358.018	-24.06
358.23	6.66
358.441	37.38
358.653	-62.98
358.864	51.71
359.075	47.62
359.287	47.62
359.498	4.61
359.709	55.81
359.921	-40.45
360.132	64
360.344	29.18
360.555	8.7
360.766	27.14
360.977	33.28
361.189	29.18
361.4	-52.74
361.611	66.05
361.823	-24.06
362.034	43.52
362.245	23.04
362.456	-44.54
362.667	-26.11
362.879	6.66
363.09	49.66
363.301	27.14
363.512	43.52
363.723	29.18
363.935	-1.54
364.146	55.81
364.357	16.9
364.568	61.95
364.779	-54.78
364.99	82.43
365.201	-28.16
365.412	-36.35
365.623	-40.45
365.834	37.38
366.045	35.33
366.256	6.66
366.467	109.05
366.678	8.7
366.889	-15.87
367.1	27.14
367.311	-71.17
367.522	39.42
367.733	-34.3
367.944	14.85
368.155	-24.06
368.366	-3.58
368.577	16.9
368.788	41.47
368.999	-36.35
369.209	-9.73
369.42	-19.97
369.631	66.05
369.842	23.04
370.053	4.61
370.264	-50.69
370.474	70.14
370.685	-15.87
370.896	-58.88
371.107	39.42
371.317	12.8
371.528	12.8
371.739	-38.4
371.95	-7.68
372.16	94.72
372.371	-9.73
372.582	59.9
372.792	-46.59
373.003	64
373.214	80.38
373.424	12.8
373.635	12.8
373.846	27.14
374.056	-3.58
374.267	33.28
374.477	-30.21
374.688	-13.82
374.898	4.61
375.109	68.09
375.319	31.23
375.53	-3.58
375.74	8.7
375.951	14.85
376.161	-30.21
376.372	92.67
376.582	29.18
376.793	86.53
377.003	-28.16
377.214	-13.82
377.424	27.14
377.635	70.14
377.845	-7.68
378.055	70.14
378.266	-19.97
378.476	53.76
378.686	-38.4
378.897	45.57
379.107	20.99
379.317	35.33
379.528	-1.54
379.738	-34.3
379.948	-9.73
380.158	55.81
380.369	12.8
380.579	59.9
380.789	-58.88
380.999	25.09
381.21	59.9
381.42	102.91
381.63	72.19
381.84	35.33
382.05	-13.82
382.261	-3.58
382.471	43.52
382.681	20.99
382.891	12.8
383.101	20.99
383.311	-46.59
383.521	-28.16
383.731	-48.64
383.941	35.33
384.151	82.43
384.361	43.52
384.571	57.86
384.781	-32.26
384.991	33.28
385.201	-5.63
385.411	47.62
385.621	41.47
385.831	74.24
386.041	29.18
386.251	-17.92
386.461	37.38
386.671	10.75
386.881	-1.54
387.091	14.85
387.301	4.61
387.511	-1.54
387.72	-56.83
387.93	57.86
388.14	115.2
388.35	-19.97
388.56	25.09
388.769	-19.97
388.979	-5.63
389.189	8.7
389.399	8.7
389.609	16.9
389.818	37.38
390.028	18.94
390.238	-3.58
390.447	16.9
390.657	78.33
390.867	0.51
391.076	12.8
391.286	-19.97
391.496	51.71
391.705	45.57
391.915	-7.68
392.125	10.75
392.334	-11.78
392.544	84.48
392.753	-36.35
392.963	41.47
393.172	29.18
393.382	-30.21
393.591	39.42
393.801	4.61
394.01	-34.3
394.22	49.66
394.429	23.04
394.639	12.8
394.848	-19.97
395.058	102.91
395.267	23.04
395.477	16.9
395.686	74.24
395.895	43.52
396.105	72.19
396.314	-11.78
396.524	47.62
396.733	27.14
396.942	76.29
397.152	109.05
397.361	37.38
397.57	86.53
397.78	41.47
397.989	29.18
398.198	0.51
398.407	-19.97
398.617	55.81
398.826	45.57
399.035	84.48
399.244	8.7
399.453	-36.35
399.663	-17.92
399.872	127.49
400.081	-1.54
400.29	-7.68
400.499	47.62
400.708	92.67
400.917	29.18
401.127	94.72
401.336	23.04
401.545	70.14
401.754	16.9
401.963	109.05
402.172	43.52
402.381	47.62
402.59	68.09
402.799	43.52
403.008	72.19
403.217	115.2
403.426	74.24
403.635	43.52
403.844	45.57
404.053	37.38
404.262	76.29
404.471	39.42
404.68	53.76
404.888	-7.68
405.097	27.14
405.306	51.71
405.515	70.14
405.724	33.28
405.933	37.38
406.142	64
406.35	111.1
406.559	64
406.768	94.72
406.977	127.49
407.185	61.95
407.394	107.01
407.603	39.42
407.812	156.16
408.02	53.76
408.229	145.92
408.438	102.91
408.646	127.49
408.855	139.77
409.064	176.64
409.272	145.92
409.481	154.11
409.69	92.67
409.898	143.87
410.107	190.97
410.315	195.07
410.524	164.35
410.733	135.68
410.941	213.5
411.15	154.11
411.358	211.45
411.567	225.79
411.775	182.78
411.984	176.64
412.192	256.51
412.401	223.74
412.609	219.64
412.818	184.83
413.026	209.4
413.234	236.03
413.443	320
413.651	293.37
413.86	371.19
414.068	399.87
414.276	350.71
414.485	356.86
414.693	352.76
414.901	389.63
415.11	336.38
415.318	356.86
415.526	375.29
415.734	416.25
415.943	434.68
416.151	465.4
416.359	479.74
416.567	504.31
416.776	500.22
416.984	553.46
417.192	543.22
417.4	510.46
417.608	555.51
417.817	569.85
418.025	653.81
418.233	625.14
418.441	627.19
418.649	649.72
418.857	571.9
419.065	653.81
419.273	735.73
419.481	631.29
419.689	719.35
419.897	836.08
420.105	883.19
420.313	838.13
420.521	963.06
420.729	967.15
420.937	1016.3
421.145	897.52
421.353	999.92
421.561	1053.17
421.769	1061.36
421.977	1141.23
422.185	1165.81
422.393	1221.1
422.601	1274.35
422.809	1325.55
423.017	1307.12
423.224	1311.21
423.432	1372.65
423.64	1335.79
423.848	1489.39
424.056	1597.93
424.263	1630.7
424.471	1655.27
424.679	1659.37
424.887	1642.98
425.094	1735.14
425.302	1833.44
425.51	1802.72
425.718	1886.69
425.925	1950.18
426.133	1964.51
426.341	2058.72
426.548	2157.02
426.756	2243.04
426.964	2273.76
427.171	2288.09
427.379	2390.49
427.586	2456.03
427.794	2574.81
428.001	2578.9
428.209	2748.89
428.417	2795.99
428.624	2853.33
428.832	2836.95
429.039	2918.87
429.247	2879.96
429.454	3097.04
429.662	3391.95
429.869	3150.29
430.076	3416.52
430.284	3203.54
430.491	3469.77
430.699	3699.14
430.906	3643.85
431.114	3758.53
431.321	3836.36
431.528	3928.52
431.736	4092.35
431.943	4178.37
432.15	4362.69
432.358	4190.66
432.565	4442.56
432.772	4327.87
432.979	4934.07
433.187	4817.33
433.394	4936.12
433.601	5124.53
433.808	5050.8
434.016	5124.53
434.223	5079.47
434.43	5593.51
434.637	5712.3
434.844	5857.7
435.052	5863.85
435.259	6107.55
435.466	5986.72
435.673	6121.89
435.88	6429.09
436.087	6472.09
436.294	6562.2
436.501	6554.01
436.708	6619.55
436.915	6912.41
437.122	7190.93
437.329	7207.31
437.537	7358.86
437.743	7498.13
437.95	7491.98
438.157	7856.52
438.364	8268.16
438.571	8085.89
438.778	8063.36
438.985	9146.74
439.192	8737.15
439.399	8857.98
439.606	8675.71
439.813	9079.16
440.02	9824.62
440.227	9507.18
440.433	9451.89
440.64	9820.52
440.847	9730.41
441.054	9841
441.261	10664.29
441.467	10539.36
441.674	10860.89
441.881	11286.87
442.088	10951
442.294	11028.82
442.501	11221.33
442.708	11710.8
442.914	11934.03
443.121	12572.99
443.328	12273.99
443.534	12863.8
443.741	12740.93
443.948	12468.55
444.154	13396.28
444.361	13457.71
444.568	13705.52
444.774	13416.76
444.981	13504.82
445.187	13930.8
445.394	14840.09
445.6	14244.13
445.807	15868.17
446.013	15268.12
446.22	15579.41
446.426	16097.55
446.633	16105.74
446.839	16492.8
447.046	16185.61
447.252	16826.62
447.459	17043.71
447.665	16978.17
447.871	17815.79
448.078	18690.27
448.284	17674.48
448.491	18194.67
448.697	18925.79
448.903	19298.52
449.11	19384.54
449.316	18946.27
449.522	19515.61
449.728	19921.1
449.935	19738.83
450.141	20179.15
450.347	20719.81
450.553	20111.57
450.76	19931.34
450.966	20908.22
451.172	20539.59
451.378	21082.3
451.584	20707.52
451.791	21305.53
451.997	21346.49
452.203	21809.33
452.409	21643.45
452.615	21668.02
452.821	20580.55
453.027	20553.93
453.233	21969.07
453.44	21082.3
453.646	20859.07
453.852	21196.99
454.058	21418.17
454.264	20728
454.47	21188.8
454.676	20797.63
454.882	21708.98
455.088	19615.96
455.294	19843.28
455.5	20019.41
455.705	20490.44
455.911	19531.99
456.117	19167.45
456.323	19112.16
456.529	18168.04
456.735	18604.26
456.941	18444.52
457.147	18209
457.352	17103.1
457.558	17547.51
457.764	17371.38
457.97	16789.76
458.176	16666.88
458.381	16705.79
458.587	15946
458.793	16054.54
458.999	14971.16
459.204	15995.15
459.41	15642.9
459.616	14547.23
459.821	14696.74
460.027	14666.02
460.233	14403.88
460.438	13566.26
460.644	13723.95
460.85	12949.82
461.055	12978.49
461.261	12857.66
461.466	11974.99
461.672	11424.08
461.878	12384.58
462.083	11518.29
462.289	11307.35
462.494	11260.24
462.7	10735.96
462.905	10400.1
463.111	11006.3
463.316	10731.87
463.522	10357.09
463.727	10623.33
463.932	10629.47
464.138	10627.42
464.343	10477.92
464.549	10289.51
464.754	10621.28
464.959	10510.69
465.165	10492.26
465.37	9898.34
465.575	9701.74
465.781	10252.64
465.986	10240.36
466.191	9902.44
466.397	9685.36
466.602	9009.53
466.807	9529.71
467.012	9582.96
467.218	9447.79
467.423	9296.24
467.628	9367.92
467.833	9824.62
468.038	9433.46
468.244	9171.32
468.449	9447.79
468.654	9136.5
468.859	9034.1
469.064	8927.61
469.269	8710.52
469.474	8638.84
469.679	8939.9
469.885	8888.7
470.09	8917.37
470.295	8780.15
470.5	8679.8
470.705	8493.44
470.91	8515.97
471.115	8298.88
471.32	8407.42
471.525	8341.89
471.73	8315.27
471.935	8380.8
472.139	7950.73
472.344	8098.18
472.549	8141.19
472.754	7999.88
472.959	7725.45
473.164	7573.9
473.369	7479.69
473.574	7682.44
473.778	7682.44
473.983	7745.93
474.188	7647.63
474.393	7395.73
474.598	7360.91
474.802	6992.28
475.007	7088.53
475.212	7248.27
475.417	6846.87
475.621	6934.93
475.826	6904.21
476.031	6674.84
476.235	6893.97
476.44	6779.29
476.645	6539.68
476.849	6668.7
477.054	6568.35
477.259	6300.06
477.463	6312.35
477.668	6289.82
477.872	6488.48
478.077	6404.51
478.282	6119.84
478.486	6238.62
478.691	6001.06
478.895	6125.99
479.1	5994.92
479.304	6130.08
479.509	5740.97
479.713	6003.11
479.918	5872.04
480.122	5851.56
480.326	5798.31
480.531	5843.37
480.735	5777.83
480.94	5665.19
481.144	5880.23
481.348	5487.02
481.553	5689.77
481.757	5460.4
481.961	5607.85
482.166	5583.27
482.37	5794.22
482.574	5527.98
482.778	5591.47
482.983	5499.31
483.187	5542.32
483.391	5689.77
483.595	5624.23
483.8	5458.35
484.004	5525.93
484.208	5591.47
484.412	5480.88
484.616	5495.21
484.821	5822.89
485.025	5517.74
485.229	5530.03
485.433	5396.91
485.637	5652.91
485.841	5425.58
486.045	5304.75
486.249	5613.99
486.453	5601.71
486.657	5738.92
486.861	5644.71
487.065	5519.79
487.269	5501.36
487.473	5552.56
487.677	5724.58
487.881	5607.85
488.085	5646.76
488.289	5591.47
488.493	5517.74
488.697	5659.05
488.901	5738.92
489.105	5538.22
489.309	5636.52
489.512	5589.42
489.716	5878.18
489.92	5530.03
490.124	5708.2
490.328	5738.92
490.531	5603.75
490.735	5837.22
490.939	5812.65
491.143	5775.78
491.346	5736.87
491.55	5882.28
491.754	6019.49
491.958	5831.08
492.161	5941.67
492.365	5958.05
492.569	6019.49
492.772	6128.03
492.976	6037.92
493.18	6007.2
493.383	6146.47
493.587	6324.64
493.79	6203.81
493.994	6113.7
494.197	6244.77
494.401	6527.39
494.605	6304.16
494.808	6394.27
495.012	6422.94
495.215	6420.89
495.419	6621.59
495.622	6457.76
495.825	6545.82
496.029	6576.54
496.232	6650.27
496.436	6525.34
496.639	6859.16
496.843	6912.41
497.046	7160.21
497.249	6990.23
497.453	7272.85
497.656	7037.33
497.859	7246.23
498.063	7385.49
498.266	7451.02
498.469	7328.14
498.673	7426.45
498.876	7618.96
499.079	7920.01
499.282	7833.99
499.485	7936.39
499.689	7862.66
499.892	7997.83
500.095	8141.19
500.298	8268.16
500.501	8173.96
500.705	8552.83
500.908	8649.08
501.111	8569.21
501.314	8634.75
501.517	8829.31
501.72	8939.9
501.923	9042.29
502.126	9136.5
502.329	9292.15
502.532	9484.66
502.735	9318.77
502.938	9546.09
503.141	9740.65
503.344	9818.47
503.547	9761.13
503.75	9994.6
503.953	10099.05
504.156	10129.77
504.359	10455.39
504.562	10418.53
504.765	10502.5
504.968	10826.07
505.17	10723.68
505.373	10770.78
505.576	10973.53
505.779	11073.88
505.982	11303.25
506.185	11583.82
506.387	11784.52
506.59	11735.37
506.793	12001.61
506.996	11952.46
507.198	12351.81
507.401	12390.72
507.604	12499.27
507.807	12702.01
508.009	12867.9
508.212	12656.96
508.415	12939.58
508.617	13099.32
508.82	13226.29
509.022	13521.2
509.225	13513.01
509.428	13879.6
509.63	13762.86
509.833	13936.94
510.035	14463.27
510.238	14235.94
510.44	14317.86
510.643	14614.82
510.845	14887.2
511.048	14856.48
511.25	15024.41
511.453	15298.84
511.655	15862.03
511.858	15487.25
512.06	15698.19
512.262	16167.18
512.465	16118.03
512.667	15993.1
512.87	16195.85
513.072	16433.41
513.274	16920.83
513.477	16955.65
513.679	17168.63
513.881	17395.96
514.084	17502.45
514.286	17471.73
514.488	17631.47
514.69	18194.67
514.893	18073.84
515.095	17903.85
515.297	18530.53
515.499	18512.1
515.701	19069.15
515.904	19187.93
516.106	18874.59
516.308	19468.5
516.51	19724.5
516.712	19718.36
516.914	19917.01
517.116	20385.99
517.318	20011.21
517.52	20601.03
517.722	20652.23
517.925	21063.87
518.127	21233.85
518.329	21387.45
518.531	21336.25
518.733	21801.14
518.935	21960.88
519.136	21942.45
519.338	22182.06
519.54	22395.05
519.742	22618.28
519.944	22591.66
520.146	23242.91
520.348	23290.01
520.55	23390.36
520.752	23457.95
520.954	23865.49
521.155	23828.63
521.357	23982.23
521.559	24078.48
521.761	24447.11
521.963	24629.38
522.164	24785.03
522.366	24750.21
522.568	25503.87
522.77	25479.29
522.971	25567.35
523.173	25254.01
523.375	25667.7
523.576	25864.31
523.778	25845.88
523.98	26241.14
524.181	26378.35
524.383	26378.35
524.584	26732.65
524.786	26620.01
524.988	26622.06
525.189	27035.75
525.391	27488.35
525.592	27639.9
525.794	27252.83
525.995	27633.75
526.197	27566.17
526.398	27715.67
526.6	27969.62
526.801	28022.87
527.003	28383.31
527.204	28602.44
527.406	28432.46
527.607	28303.44
527.808	29012.04
528.01	28645.45
528.211	28766.28
528.412	29077.57
528.614	29225.03
528.815	29327.42
529.016	29685.82
529.218	29186.11
529.419	29108.29
529.62	29216.83
529.822	29257.79
530.023	29149.25
530.224	29403.2
530.425	29552.7
530.626	29720.63
530.828	29108.29
531.029	29874.23
531.23	29382.72
531.431	29558.84
531.632	29661.24
531.833	29941.82
532.035	30124.08
532.236	29896.76
532.437	29986.87
532.638	29792.31
532.839	30085.17
533.04	30195.76
533.241	29982.77
533.442	30296.11
533.643	30027.83
533.844	30066.74
534.045	30230.58
534.246	30062.65
534.447	30613.55
534.648	30113.84
534.849	30341.17
535.05	30304.31
535.251	30529.58
535.451	30378.03
535.652	30599.21
535.853	30660.65
536.054	30652.46
536.255	30326.83
536.456	30130.23
536.657	30906.41
536.857	30382.13
537.058	30470.19
537.259	30638.12
537.46	30664.75
537.66	30418.99
537.861	30486.57
538.062	30296.11
538.263	30314.55
538.463	30320.69
538.664	30074.93
538.865	30375.98
539.065	30636.08
539.266	30224.43
539.466	30746.67
539.667	30046.26
539.868	30578.73
540.068	30582.83
540.269	30277.68
540.469	30498.86
540.67	30279.73
540.87	30343.22
541.071	30212.15
541.271	30437.42
541.472	30449.71
541.672	30367.79
541.873	30339.12
542.073	29812.79
542.274	30644.27
542.474	30367.79
542.675	30169.14
542.875	30367.79
543.075	30289.97
543.276	29677.63
543.476	30554.16
543.676	29857.85
543.877	30515.25
544.077	30216.24
544.277	30349.36
544.478	30304.31
544.678	30527.53
544.878	30230.58
545.078	30298.16
545.279	29954.1
545.479	30216.24
545.679	30048.31
545.879	30150.71
546.079	30666.8
546.28	29956.15
546.48	29741.11
546.68	30439.47
546.88	30388.27
547.08	29986.87
547.28	30044.21
547.48	29788.22
547.68	30318.64
547.88	30015.54
548.081	30193.72
548.281	29911.1
548.481	29909.05
548.681	30339.12
548.881	29943.86
549.081	30052.41
549.28	30126.13
549.48	30111.8
549.68	30038.07
549.88	30328.88
550.08	30089.27
550.28	30019.64
550.48	29847.61
550.68	30085.17
550.88	30115.89
551.08	30054.45
551.279	30158.9
551.479	29882.42
551.679	29759.55
551.879	29755.45
552.079	29884.47
552.278	29917.24
552.478	30150.71
552.678	29972.53
552.878	29919.29
553.077	29907
553.277	29456.45
553.477	30142.52
553.676	29958.2
553.876	29839.42
554.076	30027.83
554.275	29745.21
554.475	29673.53
554.674	29663.29
554.874	30091.32
555.074	29698.11
555.273	30009.4
555.473	29900.86
555.672	29751.35
555.872	29624.38
556.071	29542.46
556.271	29978.68
556.47	29231.17
556.67	29155.4
556.869	29675.58
557.068	29634.62
557.268	29601.85
557.467	29593.66
557.667	29222.98
557.866	29458.49
558.065	29225.03
558.265	29132.87
558.464	29304.9
558.663	29173.83
558.863	28991.56
559.062	29446.21
559.261	29009.99
559.461	29276.23
559.66	29110.34
559.859	29114.44
560.058	29012.04
560.258	28633.16
560.457	28659.79
560.656	29253.7
560.855	28764.23
561.054	29255.75
561.253	28348.5
561.453	28762.19
561.652	28635.21
561.851	29044.8
562.05	28741.71
562.249	28354.64
562.448	28745.8
562.647	28538.96
562.846	28418.13
563.045	28498
563.244	28127.31
563.443	28657.74
563.642	27891.8
563.841	28104.79
564.04	28184.66
564.239	28448.85
564.438	27961.43
564.637	28166.23
564.836	28186.71
565.035	27877.46
565.234	27930.71
565.432	27719.77
565.631	27816.02
565.83	27955.29
566.029	27535.45
566.228	27691.1
566.427	27592.79
566.625	27494.49
566.824	27142.24
567.023	27535.45
567.222	26953.83
567.42	27668.57
567.619	27385.95
567.818	27275.36
568.016	27197.54
568.215	27433.05
568.414	26980.45
568.612	27238.5
568.811	27021.41
569.01	26660.97
569.208	26562.67
569.407	26605.67
569.605	26630.25
569.804	26634.35
570.002	26445.93
570.201	26851.43
570.4	26388.59
570.598	26122.35
570.797	26132.59
570.995	26060.91
571.193	25561.21
571.392	26290.29
571.59	26091.63
571.789	26075.25
571.987	25587.83
572.186	26155.12
572.384	25876.6
572.582	25999.48
572.781	25651.32
572.979	25340.03
573.177	25698.42
573.376	25604.22
573.574	25217.15
573.772	25602.17
573.971	25333.89
574.169	25120.9
574.367	25137.28
574.565	25391.23
574.763	24979.59
574.962	24916.1
575.16	24922.24
575.358	25122.94
575.556	24524.94
575.754	24434.83
575.952	24539.27
576.151	24993.92
576.349	24481.93
576.547	24629.38
576.745	24457.35
576.943	24598.66
577.141	24336.52
577.339	24404.11
577.537	24174.74
577.735	24107.15
577.933	24121.49
578.131	24137.87
578.329	23949.46
578.527	24029.33
578.725	23863.44
578.923	23945.36
579.121	23541.91
579.319	23509.15
579.516	23795.86
579.714	23797.91
579.912	23470.23
580.11	23519.39
580.308	23316.64
580.506	23322.78
580.704	22943.91
580.901	23269.53
581.099	23328.92
581.297	22984.87
581.495	22808.74
581.692	22861.99
581.89	22818.98
582.088	23124.13
582.285	22651.05
582.483	22714.53
582.681	22597.8
582.878	22689.96
583.076	22462.63
583.274	22575.27
583.471	22366.38
583.669	22300.84
583.866	22372.52
584.064	22401.19
584.262	21987.5
584.459	22315.18
584.657	22249.64
584.854	22096.05
585.052	21569.72
585.249	22087.85
585.447	22003.89
585.644	21856.43
585.841	21498.04
586.039	21969.07
586.236	21272.76
586.434	21614.77
586.631	21584.05
586.828	21500.09
587.026	21577.91
587.223	21498.04
587.42	21133.5
587.618	21184.7
587.815	21321.91
588.012	21123.26
588.21	20783.3
588.407	21295.29
588.604	20785.35
588.801	20883.65
588.999	20852.93
589.196	20592.84
589.393	20773.06
589.59	20867.27
589.787	20420.81
589.984	20340.94
590.182	20375.75
590.379	20388.04
590.576	20256.97
590.773	20263.11
590.97	20115.66
591.167	20246.73
591.364	19812.56
591.561	19818.71
591.758	19974.35
591.955	19968.21
592.152	20041.93
592.349	19583.19
592.546	19960.02
592.743	19945.68
592.94	19194.08
593.137	19386.58
593.334	19620.05
593.531	19325.15
593.727	19312.86
593.924	19480.79
594.121	19331.29
594.318	19560.66
594.515	18991.33
594.712	19505.37
594.908	19007.71
595.105	18825.44
595.302	19210.46
595.499	18886.88
595.696	18702.56
595.892	18616.55
596.089	18884.83
596.286	18845.92
596.482	18489.57
596.679	18688.23
596.876	18522.34
597.072	18432.23
597.269	18510.05
597.466	18405.61
597.662	18086.12
597.859	18149.61
598.055	18563.3
598.252	18004.21
598.448	18194.67
598.645	18057.45
598.841	17989.87
599.038	18069.74
599.234	18301.16
599.431	17783.02
599.627	17807.6
599.824	17776.88
600.02	17752.31
600.217	17680.63
600.413	17596.66
600.609	17400.05
600.806	17383.67
601.002	17543.41
601.198	17338.62
601.395	17297.66
601.591	17215.74
601.787	17361.14
601.984	17139.96
602.18	17297.66
602.376	17037.56
602.572	17217.79
602.769	16826.62
602.965	16861.44
603.161	16793.86
603.357	16695.55
603.553	16765.18
603.75	16593.15
603.946	16726.27
604.142	16785.66
604.338	16505.09
604.534	16544
604.73	16349.45
604.926	16267.53
605.122	16525.57
605.318	16132.36
605.514	16195.85
605.71	16150.79
605.906	16165.13
606.102	16163.08
606.298	16099.59
606.494	16083.21
606.69	15980.81
606.886	15765.78
607.082	15847.69
607.278	16150.79
607.474	15847.69
607.67	16042.25
607.866	15661.33
608.062	15948.04
608.257	15610.13
608.453	15632.66
608.649	15597.84
608.845	15683.86
609.041	15784.21
609.236	15636.75
609.432	15477.01
609.628	15477.01
609.824	15634.71
610.019	15274.26
610.215	15307.03
610.411	15153.43
610.606	15151.38
610.802	15196.44
610.998	15208.73
611.193	15327.51
611.389	15071.51
611.584	14930.2
611.78	15075.61
611.976	14946.59
612.171	14950.68
612.367	14852.38
612.562	14674.21
612.758	14803.23
612.953	14715.17
613.149	15059.23
613.344	14563.62
613.539	15157.53
613.735	14641.44
613.93	14727.46
614.126	14821.66
614.321	14657.82
614.517	14659.87
614.712	14739.74
614.907	14561.57
615.103	14493.99
615.298	14514.47
615.493	14463.27
615.688	14328.1
615.884	14551.33
616.079	14332.2
616.274	14432.55
616.47	14299.43
616.665	14422.31
616.86	14237.99
617.055	13975.85
617.25	14063.91
617.445	14147.88
617.641	13887.79
617.836	14113.06
618.031	14031.15
618.226	13873.45
618.421	13844.78
618.616	14119.21
618.811	13685.04
619.006	13840.68
619.201	13664.56
619.396	13859.12
619.591	13338.93
619.786	13693.23
619.981	13347.12
620.176	13494.58
620.371	13246.77
620.566	13394.23
620.761	13316.4
620.956	13277.49
621.151	13095.22
621.346	13267.25
621.541	12890.43
621.735	12958.01
621.93	12564.8
622.125	12831.04
622.32	12593.47
622.515	12734.78
622.709	12534.08
622.904	12534.08
623.099	12380.48
623.294	12415.3
623.488	12317
623.683	12417.35
623.878	12130.63
624.072	12187.97
624.267	12228.93
624.462	11934.03
624.656	11991.37
624.851	11968.84
625.046	11782.48
625.24	11843.92
625.435	11643.21
625.629	11882.83
625.824	11643.21
626.018	11647.31
626.213	11348.31
626.407	11424.08
626.602	11129.17
626.796	11456.85
626.991	11307.35
627.185	11428.18
627.38	11090.26
627.574	11098.45
627.768	11114.84
627.963	11080.02
628.157	10944.86
628.352	10787.16
628.546	10680.67
628.74	10764.64
628.935	10662.24
629.129	10699.1
629.323	10684.76
629.517	10598.75
629.712	10516.83
629.906	10363.23
630.1	10418.53
630.294	10305.89
630.489	10221.92
630.683	10277.22
630.877	10209.64
631.071	9980.26
631.265	10125.67
631.459	10056.04
631.653	9949.54
631.848	9730.41
632.042	9857.39
632.236	9681.26
632.43	9724.27
632.624	9628.01
632.818	9613.68
633.012	9523.57
633.206	9546.09
633.4	9378.16
633.594	9400.69
633.788	9437.55
633.982	9314.67
634.176	9310.58
634.369	9118.07
634.563	9380.21
634.757	9236.85
634.951	9128.31
635.145	8868.22
635.339	9064.82
635.533	8946.04
635.726	8958.33
635.92	8745.34
636.114	8853.88
636.308	8845.69
636.501	8810.87
636.695	8771.96
636.889	8632.7
637.083	8886.65
637.276	8569.21
637.47	8489.34
637.664	8667.52
637.857	8542.59
638.051	8505.73
638.244	8313.22
638.438	8413.57
638.632	8229.25
638.825	8206.72
639.019	7950.73
639.212	7940.49
639.406	8294.79
639.599	7860.62
639.793	8176
639.986	7821.7
640.18	7721.35
640.373	7879.05
640.567	7795.08
640.76	7803.27
640.954	7702.92
641.147	7541.13
641.34	7561.61
641.534	7483.79
641.727	7469.45
641.92	7309.71
642.114	7543.18
642.307	7313.81
642.5	7551.37
642.694	7272.85
642.887	7086.48
643.08	7365.01
643.273	7205.27
643.467	7066
643.66	7215.51
643.853	7127.44
644.046	6939.03
644.239	7102.87
644.432	6885.78
644.626	6842.78
644.819	6666.65
645.012	6793.62
645.205	6822.3
645.398	6812.06
645.591	6646.17
645.784	6678.94
645.977	6599.07
646.17	6607.26
646.363	6468
646.556	6560.16
646.749	6558.11
646.942	6445.47
647.135	6355.36
647.328	6398.37
647.521	6371.74
647.714	6242.72
647.907	6230.43
648.099	6226.34
648.292	6214.05
648.485	6271.39
648.678	6019.49
648.871	6029.73
649.064	6066.6
649.256	6023.59
649.449	6058.4
649.642	5974.44
649.835	5783.98
650.027	5865.89
650.22	6019.49
650.413	5859.75
650.605	5867.94
650.798	5583.27
650.991	5691.82
651.183	5712.3
651.376	5534.12
651.568	5607.85
651.761	5706.15
651.954	5505.45
652.146	5538.22
652.339	5589.42
652.531	5523.88
652.724	5382.57
652.916	5409.2
653.109	5384.62
653.301	5489.07
653.494	5339.57
653.686	5243.31
653.879	5376.43
654.071	5081.52
654.263	5177.78
654.456	5224.88
654.648	5032.37
654.84	5108.15
655.033	5118.39
655.225	5159.35
655.417	4913.59
655.61	5038.52
655.802	5079.47
655.994	4927.92
656.186	5063.09
656.379	5034.42
656.571	4905.4
656.763	4909.49
656.955	4768.18
657.148	4862.39
657.34	4868.53
657.532	4843.96
657.724	4768.18
657.916	4678.07
658.108	4745.66
658.3	4594.11
658.492	4657.59
658.684	4481.47
658.876	4594.11
659.068	4514.24
659.26	4370.88
659.452	4501.95
659.644	4448.7
659.836	4389.31
660.028	4352.45
660.22	4192.7
660.412	4256.19
660.604	4164.03
660.796	4194.75
660.988	4192.7
661.18	4241.86
661.372	4272.57
661.563	4303.29
661.755	4143.55
661.947	4108.74
662.139	3998.15
662.331	3957.19
662.522	4164.03
662.714	4211.14
662.906	4186.56
663.097	3959.24
663.289	3996.1
663.481	3805.64
663.673	3887.56
663.864	3905.99
664.056	3756.49
664.247	3975.62
664.439	3801.54
664.631	3664.33
664.822	3801.54
665.014	3746.25
665.205	3766.73
665.397	3592.65
665.588	3854.79
665.78	3826.12
665.971	3758.53
666.163	3678.66
666.354	3465.68
666.546	3602.89
666.737	3637.7
666.929	3613.13
667.12	3572.17
667.311	3604.94
667.503	3553.74
667.694	3490.25
667.885	3457.48
668.077	3510.73
668.268	3514.83
668.459	3408.33
668.651	3355.08
668.842	3396.04
669.033	3402.19
669.224	3367.37
669.416	3535.31
669.607	3373.52
669.798	3277.26
669.989	3260.88
670.18	3363.28
670.371	3254.73
670.563	3211.73
670.754	3332.56
670.945	3183.06
671.136	3232.21
671.327	3193.3
671.518	3215.82
671.709	3250.64
671.9	3219.92
672.091	3101.14
672.282	3340.75
672.473	3072.47
672.664	3191.25
672.855	3162.58
673.046	3189.2
673.237	3152.34
673.428	3146.19
673.619	3011.03
673.809	3045.84
674	3107.28
674.191	3076.56
674.382	3058.13
674.573	3088.85
674.764	3054.03
674.954	3017.17
675.145	2853.33
675.336	3035.6
675.527	3013.07
675.717	2988.5
675.908	2865.62
676.099	3045.84
676.289	2929.11
676.48	2965.97
676.671	2757.08
676.861	2898.39
677.052	2824.66
677.243	2832.85
677.433	2994.64
677.624	2800.09
677.814	2777.56
678.005	2836.95
678.195	2806.23
678.386	2765.27
678.576	2818.52
678.767	2800.09
678.957	2865.62
679.148	2853.33
679.338	2750.93
679.529	2814.42
679.719	2734.55
679.909	2951.63
680.1	2765.27
680.29	2775.51
680.481	2740.69
680.671	2675.16
680.861	2699.73
681.052	2648.54
681.242	2810.33
681.432	2752.98
681.622	2720.21
681.813	2671.06
682.003	2785.75
682.193	2621.91
682.383	2617.82
682.573	2712.02
682.764	2693.59
682.954	2634.2
683.144	2744.79
683.334	2765.27
683.524	2726.36
683.714	2650.58
683.904	2691.54
684.094	2576.86
684.284	2718.17
684.474	2648.54
684.664	2601.43
684.854	2658.78
685.044	2568.66
685.234	2513.37
685.424	2675.16
685.614	2623.96
685.804	2607.58
685.994	2634.2
686.184	2554.33
686.374	2630.1
686.564	2605.53
686.753	2673.11
686.943	2578.9
687.133	2478.55
687.323	2449.88
687.513	2580.95
687.702	2535.9
687.892	2429.4
688.082	2544.09
688.272	2578.9
688.461	2472.41
688.651	2499.03
688.841	2539.99
689.03	2433.5
689.22	2578.9
689.41	2439.64
689.599	2470.36
689.789	2462.17
689.979	2484.7
690.168	2466.27
690.358	2519.51
690.547	2421.21
690.737	2384.35
690.926	2382.3
691.116	2318.81
691.305	2468.31
691.495	2382.3
691.684	2462.17
691.874	2314.72
692.063	2357.72
692.252	2345.44
692.442	2423.26
692.631	2394.59
692.82	2355.68
693.01	2333.15
693.199	2413.02
693.388	2351.58
693.578	2423.26
693.767	2298.33
693.956	2267.61
694.146	2361.82
694.335	2247.13
694.524	2224.61
694.713	2376.16
694.902	2234.85
695.092	2286.05
695.281	2206.17
695.47	2308.57
695.659	2351.58
695.848	2159.07
696.037	2216.41
696.226	2290.14
696.415	2185.69
696.604	2304.48
696.793	2279.9
696.982	2331.1
697.171	2281.95
697.36	2120.16
697.549	2259.42
697.738	2200.03
697.927	2163.17
698.116	2193.89
698.305	2210.27
698.494	2232.8
698.683	2152.93
698.872	2202.08
699.061	2159.07
699.25	2097.63
699.438	2271.71
699.627	2128.35
699.816	2273.76
700.005	2228.7
700.193	2197.98
700.382	1970.66
700.571	2044.38
700.76	2081.25
700.948	2075.1
701.137	2083.3
701.326	2130.4
701.514	2087.39
701.703	2197.98
701.892	2152.93
702.08	2128.35
702.269	2126.3
702.457	2191.84
702.646	2093.54
702.834	2171.36
703.023	2071.01
703.212	2083.3
703.4	2103.78
703.589	2079.2
703.777	2091.49
703.965	1956.32
704.154	2079.2
704.342	2060.77
704.531	2048.48
704.719	2093.54
704.907	2120.16
705.096	1937.89
705.284	2034.14
705.472	1991.14
705.661	2001.38
705.849	2109.92
706.037	1991.14
706.226	1993.19
706.414	2085.34
706.602	2068.96
706.79	1999.33
706.979	1923.55
707.167	1858.02
707.355	1921.51
707.543	2013.67
707.731	2017.76
707.919	1944.03
708.107	2011.62
708.296	2013.67
708.484	1847.78
708.672	1964.51
708.86	1823.2
709.048	1901.03
709.236	1821.16
709.424	1997.28
709.612	1935.84
709.8	1837.54
709.988	1923.55
710.176	1868.26
710.364	1888.74
710.551	1933.79
710.739	1866.21
710.927	1774.05
711.115	1800.68
711.303	1782.24
711.491	1747.43
711.679	1911.27
711.866	1806.82
712.054	1769.96
712.242	1837.54
712.43	1808.87
712.617	1858.02
712.805	1888.74
712.993	1724.9
713.181	1769.96
713.368	1784.29
713.556	1802.72
713.744	1812.96
713.931	1858.02
714.119	1745.38
714.306	1827.3
714.494	1845.73
714.682	1896.93
714.869	1802.72
715.057	1841.64
715.244	1780.2
715.432	1708.52
715.619	1708.52
715.807	1788.39
715.994	1618.41
716.182	1681.89
716.369	1657.32
716.556	1718.76
716.744	1698.28
716.931	1612.26
717.119	1702.37
717.306	1819.11
717.493	1671.65
717.681	1634.79
717.868	1604.07
718.055	1673.7
718.242	1751.53
718.43	1659.37
718.617	1669.61
718.804	1606.12
718.991	1645.03
719.179	1737.19
719.366	1726.95
719.553	1599.98
719.74	1688.04
719.927	1636.84
720.114	1761.77
720.301	1769.96
720.488	1577.45
720.676	1530.34
720.863	1583.59
721.05	1563.11
721.237	1638.89
721.424	1509.86
721.611	1645.03
721.798	1618.41
721.985	1606.12
722.172	1493.48
722.358	1454.57
722.545	1597.93
722.732	1663.46
722.919	1526.25
723.106	1552.87
723.293	1505.77
723.48	1450.47
723.667	1602.02
723.853	1536.49
724.04	1542.63
724.227	1530.34
724.414	1491.43
724.6	1460.71
724.787	1483.24
724.974	1530.34
725.161	1561.06
725.347	1495.53
725.534	1559.02
725.72	1475.05
725.907	1561.06
726.094	1599.98
726.28	1526.25
726.467	1567.21
726.653	1499.63
726.84	1520.1
727.027	1497.58
727.213	1419.75
727.4	1477.1
727.586	1470.95
727.773	1413.61
727.959	1569.26
728.145	1511.91
728.332	1442.28
728.518	1376.75
728.705	1434.09
728.891	1382.89
729.077	1464.81
729.264	1434.09
729.45	1425.9
729.636	1581.54
729.823	1503.72
730.009	1452.52
730.195	1413.61
730.382	1452.52
730.568	1425.9
730.754	1425.9
730.94	1475.05
731.126	1393.13
731.313	1364.46
731.499	1497.58
731.685	1522.15
731.871	1341.93
732.057	1448.43
732.243	1464.81
732.429	1298.92
732.615	1497.58
732.801	1397.23
732.987	1296.88
733.173	1489.39
733.359	1372.65
733.545	1391.08
733.731	1317.36
733.917	1479.15
734.103	1391.08
734.289	1391.08
734.475	1411.56
734.661	1399.27
734.847	1331.69
735.033	1362.41
735.219	1272.3
735.404	1374.7
735.59	1399.27
735.776	1319.4
735.962	1343.98
736.148	1395.18
736.333	1391.08
736.519	1288.68
736.705	1321.45
736.89	1307.12
737.076	1364.46
737.262	1296.88
737.447	1272.3
737.633	1354.22
737.819	1339.88
738.004	1444.33
738.19	1319.4
738.375	1352.17
738.561	1270.25
738.747	1335.79
738.932	1245.68
739.118	1286.64
739.303	1276.4
739.489	1300.97
739.674	1239.53
739.859	1241.58
740.045	1282.54
740.23	1309.16
740.416	1194.48
740.601	1196.53
740.786	1276.4
740.972	1284.59
741.157	1253.87
741.342	1225.2
741.528	1145.33
741.713	1307.12
741.898	1272.3
742.084	1219.05
742.269	1260.01
742.454	1217.01
742.639	1112.56
742.824	1192.43
743.01	1223.15
743.195	1237.49
743.38	1149.42
743.565	1217.01
743.75	1196.53
743.935	1198.57
744.12	1188.33
744.305	1176.05
744.49	1270.25
744.675	1171.95
744.86	1122.8
745.045	1182.19
745.23	1098.22
745.415	1143.28
745.6	1022.45
745.785	1159.66
745.97	1047.02
746.155	1049.07
746.34	1085.94
746.525	1116.65
746.71	1069.55
746.895	1047.02
747.079	1139.18
747.264	1065.46
747.449	1126.89
747.634	1053.17
747.819	1090.03
748.003	1036.78
748.188	1061.36
748.373	965.11
748.557	1051.12
748.742	1061.36
748.927	995.82
749.111	940.53
749.296	987.63
749.481	977.39
749.665	989.68
749.85	1028.59
750.034	1049.07
750.219	1030.64
750.404	979.44
750.588	975.35
750.773	924.15
750.957	991.73
751.141	928.24
751.326	895.47
751.51	1012.21
751.695	932.34
751.879	965.11
752.064	895.47
752.248	977.39
752.432	788.98
752.617	999.92
752.801	958.96
752.985	872.95
753.17	905.71
753.354	932.34
753.538	930.29
753.722	811.51
753.907	864.75
754.091	881.14
754.275	827.89
754.459	793.08
754.643	831.99
754.828	766.45
755.012	866.8
755.196	868.85
755.38	803.32
755.564	807.41
755.748	758.26
755.932	866.8
756.116	825.84
756.3	854.51
756.484	776.69
756.668	795.12
756.852	821.75
757.036	797.17
757.22	864.75
757.404	795.12
757.588	815.6
757.772	707.06
757.956	682.49
758.14	750.07
758.323	762.36
758.507	729.59
758.691	659.96
758.875	713.21
759.059	754.16
759.242	750.07
759.426	729.59
759.61	657.91
759.794	604.66
759.977	707.06
760.161	707.06
760.345	717.3
760.528	659.96
760.712	625.14
760.895	631.29
761.079	647.67
761.263	627.19
761.446	664.05
761.63	649.72
761.813	639.48
761.997	637.43
762.18	670.2
762.364	649.72
762.547	610.81
762.731	647.67
762.914	707.06
763.098	662.01
763.281	598.52
763.464	633.33
763.648	584.18
763.831	575.99
764.015	578.04
764.198	588.28
764.381	610.81
764.564	659.96
764.748	580.09
764.931	580.09
765.114	586.23
765.297	561.66
765.481	612.85
765.664	586.23
765.847	592.37
766.03	653.81
766.213	600.57
766.397	619
766.58	590.33
766.763	575.99
766.946	592.37
767.129	510.46
767.312	610.81
767.495	555.51
767.678	578.04
767.861	647.67
768.044	602.61
768.227	516.6
768.41	508.41
768.593	545.27
768.776	575.99
768.959	496.12
769.142	651.77
769.324	524.79
769.507	571.9
769.69	655.86
769.873	506.36
770.056	453.11
770.239	586.23
770.421	516.6
770.604	526.84
770.787	610.81
770.97	526.84
771.152	494.07
771.335	547.32
771.518	477.69
771.7	516.6
771.883	539.13
772.066	512.5
772.248	438.78
772.431	532.98
772.613	530.94
772.796	479.74
772.978	473.59
773.161	489.98
773.343	444.92
773.526	475.64
773.708	397.82
773.891	373.24
774.073	406.01
774.256	461.3
774.438	449.02
774.621	471.54
774.803	518.65
774.985	385.53
775.168	463.35
775.35	410.11
775.532	465.4
775.715	422.39
775.897	465.4
776.079	444.92
776.261	373.24
776.444	422.39
776.626	442.87
776.808	455.16
776.99	410.11
777.173	375.29
777.355	418.3
777.537	383.48
777.719	436.73
777.901	391.67
778.083	352.76
778.265	354.81
778.447	420.35
778.629	354.81
778.811	332.28
778.993	375.29
779.175	377.34
779.357	385.53
779.539	434.68
779.721	311.8
779.903	287.23
780.085	326.14
780.267	369.15
780.449	369.15
780.631	328.19
780.812	324.09
780.994	266.75
781.176	283.13
781.358	432.63
781.54	344.57
781.721	350.71
781.903	307.71
782.085	344.57
782.267	317.95
782.448	285.18
782.63	311.8
782.812	274.94
782.993	352.76
783.175	352.76
783.357	295.42
783.538	307.71
783.72	330.23
783.901	291.32
784.083	281.08
784.264	324.09
784.446	250.36
784.627	324.09
784.809	260.6
784.99	313.85
785.172	305.66
785.353	266.75
785.535	301.56
785.716	332.28
785.897	252.41
786.079	340.47
786.26	264.7
786.441	279.04
786.623	119.29
786.804	213.5
786.985	172.54
787.167	285.18
787.348	242.17
787.529	188.93
787.71	268.8
787.891	219.64
788.073	244.22
788.254	207.36
788.435	236.03
788.616	180.73
788.797	358.91
788.978	190.97
789.159	178.69
789.34	301.56
789.522	233.98
789.703	270.84
789.884	225.79
790.065	242.17
790.246	184.83
790.427	246.27
790.607	233.98
790.788	205.31
790.969	184.83
791.15	246.27
791.331	178.69
791.512	203.26
791.693	186.88
791.874	276.99
792.054	193.02
792.235	203.26
792.416	156.16
792.597	217.6
792.778	193.02
792.958	227.84
793.139	260.6
793.32	170.49
793.5	170.49
793.681	186.88
793.862	193.02
794.042	143.87
794.223	150.01
794.404	205.31
794.584	143.87
794.765	195.07
794.945	219.64
795.126	184.83
795.306	74.24
795.487	231.93
795.667	104.96
795.848	213.5
796.028	188.93
796.209	121.34
796.389	139.77
796.57	197.12
796.75	150.01
796.93	170.49
797.111	152.06
797.291	182.78
797.471	176.64
797.652	178.69
797.832	166.4
798.012	190.97
798.192	74.24
798.373	137.73
798.553	182.78
798.733	135.68
798.913	162.3
799.093	121.34
799.274	131.58
799.454	143.87
799.634	197.12
799.814	113.15
799.994	186.88
800.174	176.64
800.354	90.62
800.534	94.72
800.714	133.63
800.894	115.2
801.074	137.73
801.254	154.11
801.434	92.67
801.614	123.39
801.794	145.92
801.974	453.11
802.154	164.35
802.334	152.06
802.514	135.68
802.693	41.47
802.873	70.14
803.053	74.24
803.233	174.59
803.413	90.62
803.592	203.26
803.772	78.33
803.952	154.11
804.131	109.05
804.311	160.25
804.491	199.16
804.67	121.34
804.85	104.96
805.03	119.29
805.209	160.25
805.389	166.4
805.568	137.73
805.748	37.38
805.928	121.34
806.107	135.68
806.287	104.96
806.466	180.73
806.646	55.81
806.825	78.33
807.004	168.45
807.184	145.92
807.363	143.87
807.543	127.49
807.722	96.77
807.901	61.95
808.081	102.91
808.26	96.77
808.439	115.2
808.619	57.86
808.798	98.81
808.977	168.45
809.156	102.91
809.336	66.05
809.515	94.72
809.694	158.21
809.873	20.99
810.052	96.77
810.231	174.59
810.411	131.58
810.59	127.49
810.769	51.71
810.948	74.24
811.127	6.66
811.306	109.05
811.485	96.77
811.664	78.33
811.843	70.14
812.022	61.95
812.201	51.71
812.38	139.77
812.559	94.72
812.737	59.9
812.916	100.86
813.095	70.14
813.274	133.63
813.453	70.14
813.632	-54.78
813.811	92.67
813.989	88.57
814.168	96.77
814.347	127.49
814.526	25.09
814.704	107.01
814.883	96.77
815.062	72.19
815.24	133.63
815.419	-38.4
815.598	158.21
815.776	33.28
815.955	84.48
816.133	113.15
816.312	47.62
816.49	74.24
816.669	98.81
816.847	66.05
817.026	78.33
817.204	27.14
817.383	70.14
817.561	117.25
817.74	94.72
817.918	59.9
818.097	-1.54
818.275	84.48
818.453	94.72
818.632	41.47
818.81	119.29
818.988	178.69
819.167	100.86
819.345	100.86
819.523	41.47
819.701	18.94
819.879	86.53
820.058	35.33
820.236	10.75
820.414	66.05
820.592	57.86
820.77	123.39
820.948	70.14
821.127	55.81
821.305	74.24
821.483	27.14
821.661	80.38
821.839	8.7
822.017	98.81
822.195	20.99
822.373	61.95
822.551	45.57
822.729	18.94
822.907	-1.54
823.085	78.33
823.262	43.52
823.44	45.57
823.618	45.57
823.796	35.33
823.974	14.85
824.152	4.61
824.329	29.18
824.507	76.29
824.685	57.86
824.863	27.14
825.04	23.04
825.218	53.76
825.396	70.14
825.574	96.77
825.751	55.81
825.929	66.05
826.107	72.19
826.284	45.57
826.462	43.52
826.639	4.61
826.817	-36.35
826.994	2.56
827.172	45.57
827.349	100.86
827.527	23.04
827.704	55.81
827.882	84.48
828.059	-9.73
828.237	102.91
828.414	68.09
828.591	20.99
828.769	-30.21
828.946	86.53
829.124	68.09
829.301	70.14
829.478	14.85
829.655	31.23
829.833	127.49
830.01	78.33
830.187	-22.02
830.364	0.51
830.542	66.05
830.719	14.85
830.896	-7.68
831.073	94.72
831.25	8.7
831.427	18.94
831.604	82.43
831.782	41.47
831.959	80.38
832.136	49.66
832.313	61.95
832.49	10.75
832.667	121.34
832.844	27.14
833.021	16.9
833.198	55.81
833.374	102.91
833.551	0.51
833.728	20.99
833.905	6.66
834.082	47.62
834.259	45.57
834.436	29.18
834.612	35.33
834.789	80.38
834.966	31.23
835.143	37.38
835.319	-24.06
835.496	49.66
835.673	14.85
835.85	-3.58
836.026	68.09
836.203	29.18
836.38	-13.82
836.556	37.38
836.733	23.04
836.909	61.95
837.086	0.51
837.262	20.99
837.439	35.33
837.616	12.8
837.792	16.9
837.968	35.33
838.145	-65.02
838.321	29.18
838.498	-17.92
838.674	31.23
838.851	23.04
839.027	-3.58
839.203	-1.54
839.38	29.18
839.556	0.51
839.732	41.47
839.909	61.95
840.085	-26.11
840.261	0.51
840.437	-1.54
840.614	-40.45
840.79	90.62
840.966	10.75
841.142	68.09
841.318	16.9
841.494	0.51
841.671	2.56
841.847	70.14
842.023	61.95
842.199	55.81
842.375	37.38
842.551	-32.26
842.727	-110.08
842.903	10.75
843.079	-11.78
843.255	47.62
843.431	8.7
843.607	113.15
843.783	-24.06
843.959	18.94
844.134	20.99
844.31	12.8
844.486	31.23
844.662	45.57
844.838	-34.3
845.013	94.72
845.189	-46.59
845.365	61.95
845.541	-26.11
845.716	53.76
845.892	29.18
846.068	-54.78
846.244	37.38
846.419	49.66
846.595	31.23
846.77	8.7
846.946	10.75
847.122	0.51
847.297	66.05
847.473	-13.82
847.648	72.19
847.824	20.99
847.999	-17.92
848.175	2.56
848.35	4.61
848.526	37.38
848.701	64
848.876	47.62
849.052	29.18
849.227	-28.16
849.403	43.52
849.578	-34.3
849.753	-1.54
849.929	57.86
850.104	-22.02
850.279	-50.69
850.454	-60.93
850.63	72.19
850.805	-26.11
850.98	-1.54
851.155	-17.92
851.33	-11.78
851.505	-67.07
851.681	76.29
851.856	4.61
852.031	0.51
852.206	8.7
852.381	18.94
852.556	-1.54
852.731	57.86
852.906	16.9
853.081	10.75
853.256	23.04
853.431	57.86
853.606	2.56
853.781	-36.35
853.956	43.52
854.131	-3.58
854.305	39.42
854.48	35.33
854.655	-5.63
854.83	-5.63
855.005	-36.35
855.18	78.33
855.354	20.99
855.529	2.56
855.704	39.42
855.879	-13.82
856.053	20.99
856.228	16.9
856.403	-34.3
856.577	14.85
856.752	14.85
856.926	-36.35
857.101	18.94
857.276	-3.58
857.45	18.94
857.625	20.99
857.799	51.71
857.974	80.38
858.148	31.23
858.323	23.04
858.497	49.66
858.672	20.99
858.846	-7.68
859.02	57.86
859.195	2.56
859.369	35.33
859.543	33.28
859.718	78.33
859.892	10.75
860.066	-15.87
860.241	31.23
860.415	-30.21
860.589	35.33
860.763	-1.54
860.938	20.99
861.112	-7.68
861.286	-42.5
861.46	-1.54
861.634	20.99
861.808	23.04
861.982	-93.69
862.157	-17.92
862.331	61.95
862.505	0.51
862.679	20.99
862.853	-50.69
863.027	16.9
863.201	-60.93
863.375	-28.16
863.549	-9.73
863.722	47.62
863.896	-1.54
864.07	39.42
864.244	-46.59
864.418	57.86
864.592	-7.68
864.766	12.8
864.939	-11.78
865.113	-28.16
865.287	41.47
865.461	-93.69
865.634	-40.45
865.808	-30.21
865.982	-34.3
866.156	14.85
866.329	-1.54
866.503	104.96
866.676	-48.64
866.85	-44.54
867.024	0.51
867.197	16.9
867.371	23.04
867.544	4.61
867.718	35.33
867.891	39.42
868.065	27.14
868.238	18.94
868.412	-13.82
868.585	-17.92
868.759	4.61
868.932	-5.63
869.105	-5.63
869.279	-5.63
869.452	23.04
869.625	-38.4
869.799	12.8
869.972	59.9
870.145	-1.54
870.319	20.99
870.492	-9.73
870.665	37.38
870.838	25.09
871.011	-30.21
871.185	-24.06
871.358	-110.08
871.531	25.09
871.704	-15.87
871.877	-122.37
872.05	-28.16
872.223	-26.11
872.396	-52.74
872.569	-9.73
872.742	33.28
872.915	-38.4
873.088	-36.35
873.261	-11.78
873.434	-15.87
873.607	-1.54
873.78	55.81
873.953	-17.92
874.126	23.04
874.299	-50.69
874.471	-26.11
874.644	51.71
874.817	-44.54
874.99	16.9
875.163	-11.78
875.335	41.47
875.508	94.72
875.681	16.9
875.853	-40.45
876.026	57.86
876.199	-26.11
876.371	-11.78
876.544	-42.5
876.717	-60.93
876.889	-50.69
877.062	27.14
877.234	-34.3
877.407	-38.4
877.579	-32.26
877.752	-9.73
877.924	-3.58
878.097	4.61
878.269	-40.45
878.442	64
878.614	29.18
878.786	-3.58
878.959	-15.87
879.131	-11.78
879.303	-34.3
879.476	-1.54
879.648	61.95
879.82	-62.98
879.993	-19.97
880.165	23.04
880.337	14.85
880.509	14.85
880.681	-24.06
880.854	70.14
881.026	-28.16
881.198	35.33
881.37	-26.11
881.542	29.18
881.714	-95.74
881.886	-5.63
882.058	-71.17
882.23	31.23
882.402	-7.68
882.574	31.23
882.746	-65.02
882.918	20.99
883.09	-19.97
883.262	92.67
883.434	-28.16
883.606	-54.78
883.778	-15.87
883.95	-7.68
884.122	-56.83
884.293	39.42
884.465	-26.11
884.637	12.8
884.809	12.8
884.98	29.18
885.152	53.76
885.324	43.52
885.496	20.99
885.667	-50.69
885.839	-5.63
886.011	45.57
886.182	-34.3
886.354	-9.73
886.525	-22.02
886.697	0.51
886.869	-26.11
887.04	6.66
887.212	23.04
887.383	29.18
887.555	18.94
887.726	-60.93
887.897	-44.54
888.069	61.95
888.24	41.47
888.412	-93.69
888.583	-46.59
888.754	23.04
888.926	-17.92
889.097	-3.58
889.268	41.47
889.44	-19.97
889.611	-22.02
889.782	-11.78
889.953	-11.78
890.125	39.42
890.296	-52.74
890.467	23.04
890.638	-36.35
890.809	-38.4
890.98	29.18
891.151	45.57
891.323	35.33
891.494	-36.35
891.665	-28.16
891.836	33.28
892.007	-19.97
892.178	18.94
892.349	43.52
892.52	33.28
892.691	-5.63
892.862	-36.35
893.032	-46.59
893.203	33.28
893.374	51.71
893.545	2.56
893.716	-44.54
893.887	-11.78
894.057	-17.92
894.228	-75.26
894.399	-15.87
894.57	27.14
894.74	-112.13
894.911	23.04
895.082	10.75
895.253	-1.54
895.423	-52.74
895.594	43.52
895.764	-54.78
895.935	-19.97
896.106	-75.26
896.276	-36.35
896.447	18.94
896.617	61.95
896.788	-40.45
896.958	12.8
897.129	-32.26
897.299	29.18
897.47	45.57
897.64	4.61
897.81	-38.4
897.981	-60.93
898.151	-22.02
898.322	-3.58
898.492	-9.73
898.662	-19.97
898.832	-26.11
899.003	12.8
899.173	-60.93
899.343	-44.54
899.513	-44.54
