Data from USB4F104151__30__12-58-46-807.txt Node

Date: Fri Mar 14 12:58:46 EDT 2025
User: louis
Spectrometer: USB4F10415
Trigger mode: 4
Integration Time (sec): 1.000000E-2
Scans to average: 1
Electric dark correction enabled: true
Nonlinearity correction enabled: false
Boxcar width: 0
XAxis mode: Wavelengths
Number of Pixels in Spectrum: 3648
>>>>>Begin Spectral Data<<<<<
178.204	7.34
178.424	7.34
178.644	7.34
178.864	-17.24
179.084	-41.81
179.304	-9.05
179.524	40.11
179.744	52.39
179.964	-19.29
180.184	-4.95
180.404	-37.72
180.624	7.34
180.844	-23.38
181.064	-41.81
181.283	33.96
181.503	29.87
181.723	-27.48
181.943	-56.15
182.163	-27.48
182.383	29.87
182.602	56.49
182.822	27.82
183.042	19.63
183.262	-33.62
183.482	9.39
183.701	25.77
183.921	74.92
184.141	-37.72
184.361	33.96
184.58	46.25
184.8	70.83
185.02	42.15
185.239	70.83
185.459	15.53
185.679	31.91
185.898	29.87
186.118	40.11
186.338	17.58
186.557	97.45
186.777	-47.96
186.997	9.39
187.216	-15.19
187.436	27.82
187.655	-33.62
187.875	27.82
188.095	-37.72
188.314	5.29
188.534	-93.01
188.753	56.49
188.973	68.78
189.192	85.16
189.412	40.11
189.631	-0.85
189.851	42.15
190.07	7.34
190.29	33.96
190.509	13.48
190.729	-17.24
190.948	5.29
191.168	11.43
191.387	-19.29
191.607	-56.15
191.826	21.67
192.045	17.58
192.265	54.44
192.484	50.35
192.704	31.91
192.923	58.54
193.142	56.49
193.362	64.68
193.581	-33.62
193.8	74.92
194.02	-11.09
194.239	-29.52
194.458	58.54
194.678	38.06
194.897	44.2
195.116	25.77
195.335	40.11
195.555	-2.9
195.774	-23.38
195.993	1.19
196.212	-7
196.432	-7
196.651	-9.05
196.87	-9.05
197.089	-2.9
197.308	11.43
197.528	15.53
197.747	-88.92
197.966	62.63
198.185	48.3
198.404	-2.9
198.623	36.01
198.842	3.24
199.062	56.49
199.281	89.26
199.5	3.24
199.719	17.58
199.938	48.3
200.157	-9.05
200.376	-17.24
200.595	52.39
200.814	31.91
201.033	-2.9
201.252	3.24
201.471	-58.2
201.69	50.35
201.909	-9.05
202.128	33.96
202.347	-25.43
202.566	21.67
202.785	3.24
203.004	50.35
203.223	46.25
203.442	13.48
203.661	33.96
203.879	31.91
204.098	31.91
204.317	-68.44
204.536	-2.9
204.755	-9.05
204.974	17.58
205.193	72.87
205.411	66.73
205.63	5.29
205.849	-33.62
206.068	-0.85
206.287	-33.62
206.505	-25.43
206.724	11.43
206.943	29.87
207.162	-11.09
207.381	27.82
207.599	17.58
207.818	-52.05
208.037	87.21
208.255	-17.24
208.474	-0.85
208.693	54.44
208.911	13.48
209.13	15.53
209.349	44.2
209.567	-9.05
209.786	17.58
210.005	66.73
210.223	54.44
210.442	38.06
210.661	15.53
210.879	85.16
211.098	-7
211.316	91.31
211.535	50.35
211.753	-4.95
211.972	72.87
212.191	5.29
212.409	68.78
212.628	-31.57
212.846	42.15
213.065	21.67
213.283	31.91
213.502	62.63
213.72	93.35
213.938	-29.52
214.157	31.91
214.375	17.58
214.594	1.19
214.812	122.02
215.031	5.29
215.249	7.34
215.467	72.87
215.686	-17.24
215.904	23.72
216.122	-39.76
216.341	-23.38
216.559	13.48
216.778	70.83
216.996	25.77
217.214	11.43
217.432	11.43
217.651	48.3
217.869	-25.43
218.087	62.63
218.306	-27.48
218.524	3.24
218.742	36.01
218.96	29.87
219.179	-62.29
219.397	46.25
219.615	-11.09
219.833	64.68
220.051	-9.05
220.27	-13.14
220.488	66.73
220.706	-13.14
220.924	-39.76
221.142	-35.67
221.36	13.48
221.578	101.55
221.796	-113.49
222.015	25.77
222.233	-17.24
222.451	-35.67
222.669	44.2
222.887	-19.29
223.105	-21.33
223.323	15.53
223.541	36.01
223.759	19.63
223.977	-15.19
224.195	9.39
224.413	27.82
224.631	-21.33
224.849	15.53
225.067	103.59
225.285	-47.96
225.503	-33.62
225.721	1.19
225.939	-21.33
226.157	-50
226.375	-21.33
226.592	27.82
226.81	40.11
227.028	-25.43
227.246	64.68
227.464	3.24
227.682	13.48
227.9	74.92
228.117	33.96
228.335	-2.9
228.553	-0.85
228.771	21.67
228.989	-43.86
229.206	54.44
229.424	44.2
229.642	-4.95
229.86	-17.24
230.077	31.91
230.295	44.2
230.513	1.19
230.731	-2.9
230.948	44.2
231.166	38.06
231.384	-29.52
231.601	74.92
231.819	54.44
232.037	-37.72
232.254	17.58
232.472	-2.9
232.689	-2.9
232.907	66.73
233.125	1.19
233.342	-29.52
233.56	-76.63
233.777	107.69
233.995	3.24
234.213	-15.19
234.43	-43.86
234.648	9.39
234.865	-21.33
235.083	-11.09
235.3	-7
235.518	-23.38
235.735	72.87
235.953	15.53
236.17	31.91
236.388	25.77
236.605	-17.24
236.822	-33.62
237.04	79.02
237.257	56.49
237.475	-39.76
237.692	-15.19
237.909	15.53
238.127	-13.14
238.344	33.96
238.562	17.58
238.779	50.35
238.996	42.15
239.214	-7
239.431	52.39
239.648	23.72
239.865	42.15
240.083	-0.85
240.3	31.91
240.517	-29.52
240.735	-2.9
240.952	-23.38
241.169	70.83
241.386	-11.09
241.603	-0.85
241.821	83.11
242.038	40.11
242.255	15.53
242.472	-4.95
242.689	54.44
242.907	21.67
243.124	-7
243.341	-17.24
243.558	44.2
243.775	7.34
243.992	21.67
244.209	58.54
244.426	97.45
244.643	-33.62
244.86	33.96
245.078	13.48
245.295	9.39
245.512	58.54
245.729	74.92
245.946	-17.24
246.163	-17.24
246.38	-43.86
246.597	11.43
246.814	48.3
247.031	58.54
247.248	15.53
247.464	42.15
247.681	5.29
247.898	-13.14
248.115	29.87
248.332	33.96
248.549	-35.67
248.766	83.11
248.983	19.63
249.2	9.39
249.417	36.01
249.633	3.24
249.85	31.91
250.067	52.39
250.284	23.72
250.501	13.48
250.717	79.02
250.934	-21.33
251.151	25.77
251.368	-47.96
251.585	27.82
251.801	31.91
252.018	-35.67
252.235	31.91
252.451	3.24
252.668	7.34
252.885	7.34
253.102	-43.86
253.318	-17.24
253.535	-0.85
253.752	-17.24
253.968	31.91
254.185	31.91
254.401	13.48
254.618	42.15
254.835	-11.09
255.051	31.91
255.268	85.16
255.484	5.29
255.701	62.63
255.917	74.92
256.134	25.77
256.351	-21.33
256.567	-50
256.784	-4.95
257	25.77
257.217	1.19
257.433	11.43
257.65	5.29
257.866	-27.48
258.082	-19.29
258.299	29.87
258.515	3.24
258.732	72.87
258.948	7.34
259.165	13.48
259.381	66.73
259.597	-45.91
259.814	-11.09
260.03	42.15
260.246	70.83
260.463	38.06
260.679	17.58
260.895	11.43
261.112	33.96
261.328	-7
261.544	5.29
261.761	-7
261.977	-52.05
262.193	33.96
262.409	-2.9
262.626	52.39
262.842	81.07
263.058	-64.34
263.274	58.54
263.49	60.59
263.707	87.21
263.923	-19.29
264.139	-33.62
264.355	54.44
264.571	29.87
264.787	7.34
265.004	21.67
265.22	-29.52
265.436	-23.38
265.652	-7
265.868	76.97
266.084	-2.9
266.3	13.48
266.516	40.11
266.732	56.49
266.948	-2.9
267.164	21.67
267.38	19.63
267.596	-43.86
267.812	64.68
268.028	38.06
268.244	48.3
268.46	40.11
268.676	17.58
268.892	38.06
269.108	-17.24
269.324	17.58
269.54	13.48
269.756	54.44
269.972	58.54
270.188	40.11
270.403	-4.95
270.619	87.21
270.835	27.82
271.051	13.48
271.267	-27.48
271.483	38.06
271.698	38.06
271.914	54.44
272.13	11.43
272.346	-54.1
272.562	56.49
272.777	27.82
272.993	-9.05
273.209	38.06
273.425	62.63
273.64	-27.48
273.856	103.59
274.072	-54.1
274.287	5.29
274.503	19.63
274.719	-21.33
274.934	23.72
275.15	11.43
275.366	-25.43
275.581	7.34
275.797	58.54
276.012	-52.05
276.228	58.54
276.444	21.67
276.659	-9.05
276.875	-19.29
277.09	95.4
277.306	15.53
277.521	-7
277.737	-2.9
277.952	113.83
278.168	-29.52
278.383	36.01
278.599	-31.57
278.814	3.24
279.03	19.63
279.245	76.97
279.461	23.72
279.676	7.34
279.892	58.54
280.107	-23.38
280.322	83.11
280.538	76.97
280.753	17.58
280.969	31.91
281.184	29.87
281.399	-2.9
281.615	5.29
281.83	23.72
282.045	7.34
282.26	-35.67
282.476	9.39
282.691	111.78
282.906	-9.05
283.122	56.49
283.337	-47.96
283.552	-21.33
283.767	-21.33
283.983	29.87
284.198	74.92
284.413	5.29
284.628	-25.43
284.843	1.19
285.058	40.11
285.274	15.53
285.489	15.53
285.704	-45.91
285.919	-9.05
286.134	21.67
286.349	23.72
286.564	-7
286.779	56.49
286.995	-19.29
287.21	36.01
287.425	54.44
287.64	-11.09
287.855	3.24
288.07	-15.19
288.285	19.63
288.5	50.35
288.715	-41.81
288.93	15.53
289.145	58.54
289.36	-9.05
289.575	31.91
289.79	31.91
290.004	76.97
290.219	-35.67
290.434	13.48
290.649	-15.19
290.864	31.91
291.079	5.29
291.294	-45.91
291.509	-7
291.724	-2.9
291.938	36.01
292.153	-33.62
292.368	-56.15
292.583	-2.9
292.798	-17.24
293.012	7.34
293.227	68.78
293.442	13.48
293.657	72.87
293.871	44.2
294.086	64.68
294.301	87.21
294.516	17.58
294.73	56.49
294.945	7.34
295.16	1.19
295.374	72.87
295.589	48.3
295.804	-11.09
296.018	-7
296.233	17.58
296.447	-60.24
296.662	95.4
296.877	91.31
297.091	38.06
297.306	79.02
297.52	40.11
297.735	-50
297.949	-2.9
298.164	-4.95
298.378	36.01
298.593	46.25
298.807	62.63
299.022	-17.24
299.236	46.25
299.451	-13.14
299.665	33.96
299.88	-23.38
300.094	-33.62
300.309	-35.67
300.523	29.87
300.737	38.06
300.952	-15.19
301.166	33.96
301.381	-11.09
301.595	42.15
301.809	46.25
302.024	3.24
302.238	87.21
302.452	-2.9
302.667	-17.24
302.881	29.87
303.095	-21.33
303.309	31.91
303.524	40.11
303.738	87.21
303.952	-7
304.166	9.39
304.381	66.73
304.595	91.31
304.809	13.48
305.023	38.06
305.237	-15.19
305.452	7.34
305.666	85.16
305.88	11.43
306.094	25.77
306.308	-45.91
306.522	23.72
306.736	-15.19
306.95	-4.95
307.164	-13.14
307.379	38.06
307.593	11.43
307.807	52.39
308.021	64.68
308.235	21.67
308.449	3.24
308.663	-21.33
308.877	64.68
309.091	-27.48
309.305	40.11
309.519	-15.19
309.733	29.87
309.947	21.67
310.161	54.44
310.374	-19.29
310.588	-2.9
310.802	-50
311.016	-4.95
311.23	-47.96
311.444	-47.96
311.658	-11.09
311.872	21.67
312.085	-39.76
312.299	-33.62
312.513	-17.24
312.727	21.67
312.941	-17.24
313.154	79.02
313.368	99.5
313.582	9.39
313.796	7.34
314.009	19.63
314.223	9.39
314.437	25.77
314.651	21.67
314.864	40.11
315.078	11.43
315.292	-13.14
315.505	7.34
315.719	95.4
315.933	11.43
316.146	40.11
316.36	25.77
316.573	29.87
316.787	-7
317.001	-33.62
317.214	-21.33
317.428	81.07
317.641	-31.57
317.855	7.34
318.068	-0.85
318.282	-13.14
318.495	103.59
318.709	21.67
318.922	44.2
319.136	85.16
319.349	-9.05
319.563	-64.34
319.776	79.02
319.99	1.19
320.203	-7
320.417	3.24
320.63	15.53
320.843	72.87
321.057	23.72
321.27	62.63
321.483	7.34
321.697	29.87
321.91	-7
322.124	29.87
322.337	1.19
322.55	85.16
322.763	-37.72
322.977	5.29
323.19	-25.43
323.403	58.54
323.617	5.29
323.83	1.19
324.043	31.91
324.256	29.87
324.469	27.82
324.683	52.39
324.896	17.58
325.109	-27.48
325.322	-2.9
325.535	-39.76
325.748	17.58
325.962	7.34
326.175	62.63
326.388	5.29
326.601	70.83
326.814	-21.33
327.027	54.44
327.24	60.59
327.453	19.63
327.666	70.83
327.879	79.02
328.092	50.35
328.305	-41.81
328.518	68.78
328.731	27.82
328.944	23.72
329.157	44.2
329.37	-9.05
329.583	17.58
329.796	54.44
330.009	-17.24
330.222	-50
330.435	64.68
330.648	-31.57
330.861	36.01
331.073	68.78
331.286	-11.09
331.499	38.06
331.712	-23.38
331.925	31.91
332.138	25.77
332.35	-19.29
332.563	54.44
332.776	52.39
332.989	5.29
333.202	27.82
333.414	50.35
333.627	13.48
333.84	-33.62
334.053	29.87
334.265	-13.14
334.478	-23.38
334.691	23.72
334.903	21.67
335.116	-33.62
335.329	74.92
335.541	1.19
335.754	42.15
335.966	-4.95
336.179	33.96
336.392	-7
336.604	13.48
336.817	29.87
337.029	97.45
337.242	91.31
337.454	25.77
337.667	60.59
337.88	48.3
338.092	-41.81
338.305	21.67
338.517	-7
338.729	31.91
338.942	11.43
339.154	-29.52
339.367	27.82
339.579	46.25
339.792	-23.38
340.004	103.59
340.217	-17.24
340.429	-21.33
340.641	-7
340.854	13.48
341.066	33.96
341.278	27.82
341.491	-29.52
341.703	50.35
341.915	66.73
342.128	5.29
342.34	76.97
342.552	-19.29
342.764	-15.19
342.977	-0.85
343.189	7.34
343.401	72.87
343.613	-27.48
343.826	87.21
344.038	-27.48
344.25	11.43
344.462	64.68
344.674	54.44
344.886	31.91
345.099	-11.09
345.311	-47.96
345.523	87.21
345.735	-2.9
345.947	15.53
346.159	5.29
346.371	29.87
346.583	-13.14
346.795	56.49
347.007	-33.62
347.219	46.25
347.431	56.49
347.643	7.34
347.855	79.02
348.067	17.58
348.279	72.87
348.491	29.87
348.703	29.87
348.915	89.26
349.127	33.96
349.339	-25.43
349.551	17.58
349.763	107.69
349.975	64.68
350.187	31.91
350.399	23.72
350.61	-21.33
350.822	15.53
351.034	23.72
351.246	-31.57
351.458	40.11
351.669	7.34
351.881	-13.14
352.093	-7
352.305	11.43
352.517	27.82
352.728	56.49
352.94	17.58
353.152	-27.48
353.363	36.01
353.575	-0.85
353.787	-9.05
353.999	-7
354.21	-11.09
354.422	87.21
354.633	15.53
354.845	50.35
355.057	58.54
355.268	42.15
355.48	-45.91
355.692	25.77
355.903	-54.1
356.115	19.63
356.326	-0.85
356.538	-0.85
356.749	79.02
356.961	1.19
357.172	52.39
357.384	21.67
357.595	58.54
357.807	-9.05
358.018	-25.43
358.23	107.69
358.441	85.16
358.653	-74.58
358.864	-97.11
359.075	21.67
359.287	-2.9
359.498	17.58
359.709	27.82
359.921	48.3
360.132	-17.24
360.344	50.35
360.555	42.15
360.766	7.34
360.977	48.3
361.189	54.44
361.4	40.11
361.611	5.29
361.823	27.82
362.034	-41.81
362.245	13.48
362.456	44.2
362.667	-21.33
362.879	-25.43
363.09	72.87
363.301	44.2
363.512	23.72
363.723	62.63
363.935	-13.14
364.146	-25.43
364.357	1.19
364.568	-13.14
364.779	52.39
364.99	66.73
365.201	15.53
365.412	46.25
365.623	13.48
365.834	-15.19
366.045	17.58
366.256	36.01
366.467	15.53
366.678	-11.09
366.889	29.87
367.1	29.87
367.311	-9.05
367.522	23.72
367.733	58.54
367.944	-4.95
368.155	11.43
368.366	27.82
368.577	7.34
368.788	-0.85
368.999	5.29
369.209	-11.09
369.42	-23.38
369.631	19.63
369.842	60.59
370.053	19.63
370.264	7.34
370.474	-7
370.685	19.63
370.896	-27.48
371.107	-27.48
371.317	1.19
371.528	13.48
371.739	7.34
371.95	-21.33
372.16	42.15
372.371	-7
372.582	-19.29
372.792	25.77
373.003	56.49
373.214	79.02
373.424	-17.24
373.635	27.82
373.846	5.29
374.056	-23.38
374.267	-0.85
374.477	19.63
374.688	42.15
374.898	-33.62
375.109	44.2
375.319	44.2
375.53	64.68
375.74	-27.48
375.951	-21.33
376.161	62.63
376.372	64.68
376.582	52.39
376.793	-7
377.003	21.67
377.214	1.19
377.424	-21.33
377.635	58.54
377.845	17.58
378.055	31.91
378.266	-15.19
378.476	-45.91
378.686	5.29
378.897	68.78
379.107	56.49
379.317	25.77
379.528	72.87
379.738	31.91
379.948	36.01
380.158	29.87
380.369	-27.48
380.579	-39.76
380.789	70.83
380.999	36.01
381.21	46.25
381.42	58.54
381.63	-0.85
381.84	70.83
382.05	-9.05
382.261	93.35
382.471	11.43
382.681	64.68
382.891	25.77
383.101	1.19
383.311	-11.09
383.521	29.87
383.731	124.07
383.941	-4.95
384.151	-23.38
384.361	54.44
384.571	105.64
384.781	27.82
384.991	29.87
385.201	-58.2
385.411	-25.43
385.621	33.96
385.831	-37.72
386.041	44.2
386.251	-15.19
386.461	62.63
386.671	33.96
386.881	13.48
387.091	42.15
387.301	29.87
387.511	46.25
387.72	15.53
387.93	25.77
388.14	33.96
388.35	-27.48
388.56	70.83
388.769	29.87
388.979	-9.05
389.189	-17.24
389.399	29.87
389.609	58.54
389.818	38.06
390.028	-4.95
390.238	50.35
390.447	7.34
390.657	-2.9
390.867	29.87
391.076	17.58
391.286	-4.95
391.496	38.06
391.705	-50
391.915	87.21
392.125	5.29
392.334	68.78
392.544	66.73
392.753	-9.05
392.963	-0.85
393.172	124.07
393.382	-80.72
393.591	72.87
393.801	33.96
394.01	-11.09
394.22	93.35
394.429	-0.85
394.639	36.01
394.848	17.58
395.058	-43.86
395.267	66.73
395.477	68.78
395.686	60.59
395.895	95.4
396.105	15.53
396.314	95.4
396.524	109.74
396.733	31.91
396.942	48.3
397.152	-45.91
397.361	50.35
397.57	25.77
397.78	74.92
397.989	38.06
398.198	54.44
398.407	-7
398.617	83.11
398.826	23.72
399.035	70.83
399.244	38.06
399.453	11.43
399.663	119.98
399.872	-21.33
400.081	64.68
400.29	33.96
400.499	70.83
400.708	97.45
400.917	31.91
401.127	40.11
401.336	33.96
401.545	107.69
401.754	99.5
401.963	72.87
402.172	79.02
402.381	42.15
402.59	29.87
402.799	99.5
403.008	70.83
403.217	64.68
403.426	-23.38
403.635	27.82
403.844	9.39
404.053	36.01
404.262	-4.95
404.471	148.65
404.68	52.39
404.888	62.63
405.097	46.25
405.306	5.29
405.515	91.31
405.724	5.29
405.933	44.2
406.142	70.83
406.35	27.82
406.559	79.02
406.768	40.11
406.977	52.39
407.185	31.91
407.394	95.4
407.603	103.59
407.812	146.6
408.02	93.35
408.229	56.49
408.438	76.97
408.646	146.6
408.855	66.73
409.064	56.49
409.272	128.17
409.481	122.02
409.69	146.6
409.898	81.07
410.107	160.94
410.315	160.94
410.524	117.93
410.733	140.46
410.941	154.79
411.15	214.18
411.358	175.27
411.567	251.05
411.775	136.36
411.984	169.13
412.192	146.6
412.401	160.94
412.609	242.85
412.818	271.53
413.026	242.85
413.234	187.56
413.443	277.67
413.651	283.81
413.86	240.81
414.068	255.14
414.276	292.01
414.485	277.67
414.693	314.53
414.901	298.15
415.11	269.48
415.318	249
415.526	332.97
415.734	375.97
415.943	304.29
416.151	355.49
416.359	345.25
416.567	394.4
416.776	365.73
416.984	441.51
417.192	427.17
417.4	433.32
417.608	449.7
417.817	572.58
418.025	439.46
418.233	533.67
418.441	455.84
418.649	482.47
418.857	572.58
419.065	578.72
419.273	574.63
419.481	554.15
419.689	658.59
419.897	732.32
420.105	654.5
420.313	685.22
420.521	724.13
420.729	769.18
420.937	763.04
421.145	734.37
421.353	771.23
421.561	834.72
421.769	953.5
421.977	887.97
422.185	1008.8
422.393	984.22
422.601	1047.71
422.809	996.51
423.017	1076.38
423.224	1105.05
423.432	1156.25
423.64	1064.09
423.848	1209.5
424.056	1211.54
424.263	1359
424.471	1238.17
424.679	1318.04
424.887	1410.2
425.094	1408.15
425.302	1436.82
425.51	1430.68
425.718	1455.25
425.925	1531.03
426.133	1563.79
426.341	1709.2
426.548	1641.62
426.756	1748.11
426.964	1823.89
427.171	1922.19
427.379	1926.29
427.586	2038.92
427.794	2057.36
428.001	2090.12
428.209	2299.02
428.417	2112.65
428.624	2284.68
428.832	2290.82
429.039	2299.02
429.247	2358.41
429.454	2473.09
429.662	2671.75
429.869	2526.34
430.076	2755.71
430.284	2784.38
430.491	2761.86
430.699	2913.41
430.906	2825.34
431.114	2894.97
431.321	3218.55
431.528	3107.96
431.736	3402.87
431.943	3398.77
432.15	3220.6
432.358	3314.81
432.565	3611.76
432.772	3456.12
432.979	3636.34
433.187	3796.08
433.394	3826.8
433.601	4129.9
433.808	4068.46
434.016	4060.27
434.223	4154.48
434.43	4519.01
434.637	4463.72
434.844	4686.95
435.052	4805.73
435.259	4783.2
435.466	4826.21
435.673	4668.52
435.88	5153.88
436.087	5543
436.294	5198.94
436.501	5213.28
436.708	5282.91
436.915	5524.57
437.122	5682.26
437.329	5821.52
437.537	5942.35
437.743	6083.66
437.95	5981.26
438.157	6257.74
438.364	6593.61
438.571	6532.17
438.778	6562.89
438.985	7134.27
439.192	6978.62
439.399	7078.97
439.606	6855.75
439.813	7191.61
440.02	7861.3
440.227	7633.97
440.433	7732.28
440.64	7713.84
440.847	7662.65
441.054	8008.75
441.261	8393.77
441.467	8367.15
441.674	8510.5
441.881	8778.79
442.088	8993.83
442.294	8836.13
442.501	8983.59
442.708	9294.88
442.914	9520.15
443.121	9815.06
443.328	9739.29
443.534	10456.08
443.741	10060.82
443.948	9980.95
444.154	10662.92
444.361	10611.72
444.568	10470.41
444.774	10638.34
444.981	10796.04
445.187	11144.19
445.394	11498.49
445.6	11752.44
445.807	12659.69
446.013	12217.33
446.22	12209.14
446.426	12774.38
446.633	12938.21
446.839	13415.39
447.046	12680.17
447.252	13679.58
447.459	13560.8
447.665	13663.19
447.871	14379.98
448.078	14853.06
448.284	14177.23
448.491	14183.38
448.697	15131.59
448.903	15418.3
449.11	15365.06
449.316	15004.61
449.522	15498.17
449.728	15870.9
449.935	16176.05
450.141	15956.92
450.347	16311.22
450.553	15711.16
450.76	16094.13
450.966	16620.46
451.172	16405.42
451.378	16743.34
451.584	16573.36
451.791	16999.34
451.997	16958.38
452.203	17329.06
452.409	17355.68
452.615	17175.46
452.821	16286.64
453.027	16604.08
453.233	17140.65
453.44	16614.32
453.646	16665.52
453.852	16980.9
454.058	17388.45
454.264	16720.81
454.47	16892.84
454.676	16462.77
454.882	17165.22
455.088	15619
455.294	15948.73
455.5	16202.68
455.705	16343.99
455.911	15700.92
456.117	15254.47
456.323	15152.07
456.529	14392.27
456.735	14945.22
456.941	14642.12
457.147	14212.05
457.352	13808.6
457.558	13843.42
457.764	13695.96
457.97	13523.93
458.176	13401.05
458.381	13292.51
458.587	12583.91
458.793	12641.26
458.999	12030.96
459.204	12889.06
459.41	12532.72
459.616	11625.47
459.821	11635.71
460.027	11750.39
460.233	11475.96
460.438	10886.15
460.644	10982.4
460.85	10615.82
461.055	10335.24
461.261	10298.38
461.466	9552.92
461.672	9196.57
461.878	10085.39
462.083	9341.98
462.289	9051.17
462.494	9077.79
462.7	8561.7
462.905	8281.13
463.111	8596.52
463.316	8596.52
463.522	8662.05
463.727	8487.98
463.932	8576.04
464.138	8467.5
464.343	8295.47
464.549	8293.42
464.754	8432.68
464.959	8444.97
465.165	8281.13
465.37	8002.61
465.575	7779.38
465.781	8086.58
465.986	8115.25
466.191	7881.78
466.397	7552.06
466.602	7253.05
466.807	7631.93
467.012	7791.67
467.218	7502.9
467.423	7437.37
467.628	7375.93
467.833	7990.32
468.038	7429.18
468.244	7275.58
468.449	7666.74
468.654	7158.85
468.859	7390.27
469.064	7380.03
469.269	6986.82
469.474	7117.89
469.679	7087.17
469.885	7107.65
470.09	7113.79
470.295	7115.84
470.5	6863.94
470.705	6863.94
470.91	6843.46
471.115	6638.66
471.32	6763.59
471.525	6747.2
471.73	6562.89
471.935	6366.28
472.139	6280.27
472.344	6517.83
472.549	6149.2
472.754	6384.71
472.959	6153.29
473.164	6175.82
473.369	6155.34
473.574	6284.36
473.778	6134.86
473.983	6100.05
474.188	6069.33
474.393	5829.71
474.598	5878.86
474.802	5788.75
475.007	5833.81
475.212	5530.71
475.417	5428.31
475.621	5454.94
475.826	5547.09
476.031	5516.37
476.235	5426.26
476.44	5428.31
476.645	5368.92
476.849	5354.58
477.054	5237.85
477.259	5127.26
477.463	5309.53
477.668	5117.02
477.872	4971.61
478.077	4867.17
478.282	4858.98
478.486	4934.75
478.691	4938.85
478.895	4863.07
479.1	4744.29
479.304	4617.32
479.509	4676.71
479.713	4785.25
479.918	4650.08
480.122	4582.5
480.326	4650.08
480.531	4607.08
480.735	4557.93
480.94	4488.29
481.144	4715.62
481.348	4535.4
481.553	4559.97
481.757	4457.57
481.961	4553.83
482.166	4725.86
482.37	4408.42
482.574	4361.32
482.778	4420.71
482.983	4496.49
483.187	4496.49
483.391	4527.21
483.595	4310.12
483.8	4500.58
484.004	4510.82
484.208	4590.69
484.412	4445.29
484.616	4537.45
484.821	4531.3
485.025	4504.68
485.229	4531.3
485.433	4555.88
485.637	4453.48
485.841	4461.67
486.045	4516.97
486.249	4578.4
486.453	4433
486.657	4359.27
486.861	4478.05
487.065	4516.97
487.269	4516.97
487.473	4420.71
487.677	4416.62
487.881	4377.7
488.085	4478.05
488.289	4506.73
488.493	4377.7
488.697	4600.93
488.901	4533.35
489.105	4512.87
489.309	4602.98
489.512	4510.82
489.716	4400.23
489.92	4437.09
490.124	4619.36
490.328	4711.52
490.531	4592.74
490.735	4658.28
490.939	4584.55
491.143	4516.97
491.346	4643.94
491.55	4742.24
491.754	4715.62
491.958	4715.62
492.161	4674.66
492.365	4785.25
492.569	4732
492.772	4752.48
492.976	4934.75
493.18	4904.03
493.383	4906.08
493.587	4969.57
493.79	4908.13
493.994	4955.23
494.197	4850.78
494.401	5106.78
494.605	4766.82
494.808	5188.7
495.012	5086.3
495.215	5217.37
495.419	5262.43
495.622	5170.27
495.825	5239.9
496.029	5248.09
496.232	5270.62
496.436	5258.33
496.639	5641.3
496.843	5518.42
497.046	5594.2
497.249	5583.96
497.453	5715.03
497.656	5817.43
497.859	5780.56
498.063	5807.19
498.266	5862.48
498.469	5925.97
498.673	5938.26
498.876	6169.68
499.079	6110.29
499.282	6143.05
499.485	6263.88
499.689	6317.13
499.892	6499.4
500.095	6419.53
500.298	6665.28
500.501	6597.7
500.705	6616.13
500.908	6745.16
501.111	6978.62
501.314	6931.52
501.517	7074.88
501.72	7076.93
501.923	7148.61
502.126	7418.94
502.329	7380.03
502.532	7400.51
502.735	7418.94
502.938	7666.74
503.141	7914.55
503.344	7951.41
503.547	7930.93
503.75	8070.19
503.953	8272.94
504.156	8258.6
504.359	8348.72
504.562	8346.67
504.765	8315.95
504.968	8617
505.17	8774.69
505.373	8709.16
505.576	8782.88
505.779	8973.35
505.982	9126.94
506.185	9192.48
506.387	9303.07
506.59	9544.73
506.793	9794.58
506.996	9622.55
507.198	9958.42
507.401	9665.56
507.604	10222.61
507.807	10198.03
508.009	10189.84
508.212	10267.66
508.415	10490.89
508.617	10595.34
508.82	10642.44
509.022	10654.73
509.225	11074.56
509.428	11080.71
509.63	11070.47
509.833	11181.06
510.035	11455.48
510.238	11383.8
510.44	11650.04
510.643	11693.05
510.845	12094.45
511.048	11959.28
511.25	12170.22
511.453	12393.45
511.655	12833.77
511.858	12671.98
512.06	12786.66
512.262	12764.14
512.465	12856.29
512.667	13038.56
512.87	13349.85
513.072	13269.98
513.274	13738.97
513.477	13882.33
513.679	13767.64
513.881	13829.08
514.084	14265.3
514.286	14007.25
514.488	14144.47
514.69	14756.81
514.893	14805.96
515.095	14681.03
515.297	15084.48
515.499	15039.43
515.701	15143.88
515.904	15520.7
516.106	15598.52
516.308	15434.69
516.51	15985.59
516.712	15856.57
516.914	16061.37
517.116	16309.17
517.318	16421.81
517.52	16561.07
517.722	16933.8
517.925	16907.18
518.127	17077.16
518.329	17210.28
518.531	17243.04
518.733	17517.47
518.935	17699.74
519.136	17630.11
519.338	17968.02
519.54	18047.9
519.742	18297.75
519.944	18344.85
520.146	18723.72
520.348	18824.08
520.55	18817.93
520.752	19114.89
520.954	19571.58
521.155	19417.99
521.357	19596.16
521.559	19747.71
521.761	20083.58
521.963	20161.4
522.164	20196.21
522.366	20595.57
522.568	20599.66
522.77	20880.24
522.971	20956.01
523.173	20972.39
523.375	20906.86
523.576	21191.53
523.778	21140.33
523.98	21361.51
524.181	21635.94
524.383	21328.74
524.584	21644.13
524.786	21711.71
524.988	21791.58
525.189	21996.38
525.391	22240.09
525.592	22356.82
525.794	22348.63
525.995	22377.3
526.197	22594.39
526.398	22422.36
526.6	22788.94
526.801	22915.92
527.003	23358.28
527.204	23100.23
527.406	23069.51
527.607	23130.95
527.808	23425.86
528.01	23321.41
528.211	23403.33
528.412	24007.48
528.614	23532.36
528.815	23796.54
529.016	23739.2
529.218	23814.98
529.419	23636.8
529.62	23847.74
529.822	23673.67
530.023	24015.68
530.224	23946.05
530.425	24095.55
530.626	23812.93
530.828	23675.71
531.029	24329.02
531.23	24171.32
531.431	24208.19
531.632	24472.37
531.833	24646.45
532.035	24146.75
532.236	24243
532.437	24826.67
532.638	24208.19
532.839	24324.92
533.04	24798
533.241	24056.64
533.442	24988.46
533.643	24851.25
533.844	24822.58
534.045	24933.17
534.246	24421.17
534.447	24785.71
534.648	24570.68
534.849	24683.31
535.05	24562.48
535.251	24818.48
535.451	24791.86
535.652	24550.2
535.853	24570.68
536.054	24765.23
536.255	25035.56
536.456	24484.66
536.657	25152.3
536.857	24724.27
537.058	24861.49
537.259	24675.12
537.46	24806.19
537.66	25086.76
537.861	25006.89
538.062	24539.96
538.263	25137.96
538.463	24939.31
538.664	25162.54
538.865	24875.82
539.065	25299.75
539.266	24634.16
539.466	25019.18
539.667	24617.78
539.868	24992.56
540.068	24855.34
540.269	24953.65
540.469	24836.91
540.67	24869.68
540.87	24720.18
541.071	24650.55
541.271	24677.17
541.472	25021.23
541.672	24791.86
541.873	25037.61
542.073	24675.12
542.274	25010.99
542.474	24884.01
542.675	24675.12
542.875	24947.5
543.075	24539.96
543.276	24466.23
543.476	24802.1
543.676	24494.9
543.877	24718.13
544.077	24736.56
544.277	24793.9
544.478	24580.92
544.678	24464.18
544.878	24693.55
545.078	24754.99
545.279	24607.54
545.479	24851.25
545.679	24871.73
545.879	24959.79
546.079	24716.08
546.28	24607.54
546.48	24683.31
546.68	24593.2
546.88	24838.96
547.08	24601.4
547.28	24681.27
547.48	24396.6
547.68	24689.46
547.88	24718.13
548.081	24597.3
548.281	24595.25
548.481	24638.26
548.681	24906.54
548.881	24523.57
549.081	24789.81
549.28	24533.81
549.48	24574.77
549.68	24425.27
549.88	24974.13
550.08	24671.03
550.28	24423.22
550.48	24703.79
550.68	24820.53
550.88	24634.16
551.08	24482.61
551.279	24832.82
551.479	24146.75
551.679	24501.04
551.879	24517.43
552.079	24703.79
552.278	24593.2
552.478	24347.45
552.678	24154.94
552.878	24439.61
553.077	24228.66
553.277	24302.39
553.477	24550.2
553.676	24300.34
553.876	24597.3
554.076	24165.18
554.275	24546.1
554.475	24001.34
554.674	24124.22
554.874	24079.16
555.074	24261.43
555.273	24378.17
555.473	24679.22
555.672	23980.86
555.872	24068.92
556.071	24243
556.271	24345.4
556.47	24197.95
556.67	23946.05
556.869	23927.61
557.068	24255.29
557.268	23747.39
557.467	24224.57
557.667	23974.72
557.866	24060.73
558.065	23925.57
558.265	23925.57
558.464	23817.02
558.663	24013.63
558.863	23665.47
559.062	24113.98
559.261	23442.24
559.461	23814.98
559.66	23235.4
559.859	23636.8
560.058	23397.19
560.258	23587.65
560.457	23450.44
560.656	23509.83
560.855	23298.89
561.054	23620.42
561.253	23407.43
561.453	23411.53
561.652	23509.83
561.851	23333.7
562.05	23264.07
562.249	22954.83
562.448	23161.67
562.647	23157.58
562.846	23059.27
563.045	23182.15
563.244	22930.25
563.443	23366.47
563.642	22811.47
563.841	22967.12
564.04	22930.25
564.239	23153.48
564.438	22852.43
564.637	22866.77
564.836	23081.8
565.035	22537.04
565.234	22772.56
565.432	22526.8
565.631	22481.75
565.83	22698.83
566.029	22551.38
566.228	22623.06
566.427	22557.52
566.625	22334.29
566.824	21836.64
567.023	22414.16
567.222	21930.84
567.42	22506.32
567.619	22076.25
567.818	21963.61
568.016	22207.32
568.215	22182.74
568.414	21828.45
568.612	21916.51
568.811	22018.91
569.01	21830.49
569.208	21650.27
569.407	22039.39
569.605	21287.78
569.804	21650.27
570.002	21500.77
570.201	21703.52
570.4	21388.13
570.598	21615.46
570.797	21281.64
570.995	21369.7
571.193	21248.87
571.392	21214.05
571.59	21070.7
571.789	21056.36
571.987	20863.85
572.186	21068.65
572.384	21007.21
572.582	21132.14
572.781	20747.12
572.979	20607.86
573.177	20448.11
573.376	20708.21
573.574	20663.15
573.772	20616.05
573.971	20468.59
574.169	20308.85
574.367	20403.06
574.565	20390.77
574.763	20085.62
574.962	20085.62
575.16	20007.8
575.358	20005.75
575.556	19575.68
575.754	20251.51
575.952	19729.28
576.151	20265.85
576.349	19927.93
576.547	19702.65
576.745	19692.41
576.943	19745.66
577.141	19741.57
577.339	19952.51
577.537	19364.74
577.735	19602.3
577.933	19587.97
578.131	19352.45
578.329	19467.14
578.527	19350.4
578.725	19428.23
578.923	19436.42
579.121	19121.03
579.319	18819.98
579.516	18955.15
579.714	19012.49
579.912	19084.17
580.11	18836.36
580.308	18897.8
580.506	19088.26
580.704	18365.33
580.901	18992.01
581.099	18848.65
581.297	18498.45
581.495	18545.55
581.692	18512.78
581.89	18645.9
582.088	18404.24
582.285	18207.64
582.483	18631.57
582.681	18201.49
582.878	18226.07
583.076	18015.13
583.274	18267.03
583.471	17949.59
583.669	18101.14
583.866	17814.43
584.064	17847.19
584.262	17978.26
584.459	17892.25
584.657	17769.37
584.854	18008.98
585.052	17732.51
585.249	17716.12
585.447	17675.16
585.644	17576.86
585.841	17474.46
586.039	17654.69
586.236	17103.78
586.434	17275.81
586.631	17269.67
586.828	17306.53
587.026	17185.7
587.223	17077.16
587.42	17243.04
587.618	17128.36
587.815	17017.77
588.012	16671.66
588.21	16810.92
588.407	16778.15
588.604	16933.8
588.801	16667.56
588.999	16702.38
589.196	16698.28
589.393	16438.19
589.59	16569.26
589.787	16561.07
589.984	16534.45
590.182	16233.39
590.379	16386.99
590.576	16395.18
590.773	16540.59
590.97	15936.44
591.167	16233.39
591.364	16063.41
591.561	16096.18
591.758	16028.6
591.955	16012.21
592.152	15854.52
592.349	15889.34
592.546	15899.58
592.743	15981.49
592.94	15750.07
593.137	15786.94
593.334	15872.95
593.531	15498.17
593.727	15569.85
593.924	15678.4
594.121	15459.26
594.318	15469.5
594.515	15320
594.712	15434.69
594.908	15389.63
595.105	15467.45
595.302	15219.65
595.499	15238.08
595.696	15102.92
595.892	14861.26
596.089	15055.81
596.286	15025.09
596.482	15217.6
596.679	14908.36
596.876	15066.05
597.072	14734.28
597.269	14769.1
597.466	14711.75
597.662	14830.54
597.859	14910.41
598.055	14662.6
598.252	14586.83
598.448	14674.89
598.645	14470.09
598.841	14367.7
599.038	14580.68
599.234	14302.16
599.431	14275.54
599.627	14392.27
599.824	14349.26
600.02	14160.85
600.217	14142.42
600.413	14291.92
600.609	14115.8
600.806	13925.33
601.002	13865.94
601.198	13847.51
601.395	14040.02
601.591	13837.27
601.787	13706.2
601.984	13751.26
602.18	13870.04
602.376	13581.28
602.572	13583.32
602.769	13513.69
602.965	13802.46
603.161	13349.85
603.357	13575.13
603.553	13513.69
603.75	13525.98
603.946	13261.79
604.142	13351.9
604.338	13077.48
604.534	13310.94
604.73	12942.31
604.926	13300.7
605.122	13057
605.318	12956.64
605.514	12911.59
605.71	12893.16
605.906	12940.26
606.102	12878.82
606.298	12798.95
606.494	12844.01
606.69	12805.1
606.886	12973.03
607.082	12678.12
607.278	12774.38
607.474	12645.35
607.67	12934.12
607.866	12473.32
608.062	12649.45
608.257	12526.57
608.453	12583.91
608.649	12596.2
608.845	12389.36
609.041	12327.92
609.236	12415.98
609.432	12317.68
609.628	12250.1
609.824	12442.6
610.019	12219.38
610.215	12186.61
610.411	12196.85
610.606	12067.83
610.802	12192.75
610.998	12141.55
611.193	12090.35
611.389	11996.15
611.584	12090.35
611.78	11893.75
611.976	12069.87
612.171	12033.01
612.367	11856.89
612.562	11871.22
612.758	11598.84
612.953	11813.88
613.149	11940.85
613.344	11762.68
613.539	11920.37
613.735	11854.84
613.93	11779.06
614.126	11701.24
614.321	11672.57
614.517	11672.57
614.712	11584.51
614.907	11547.64
615.103	11469.82
615.298	11613.18
615.493	11867.13
615.688	11516.92
615.884	11523.07
616.079	11328.51
616.274	11633.66
616.47	11385.85
616.665	11523.07
616.86	11138.05
617.055	11170.82
617.25	11295.74
617.445	11265.02
617.641	10984.45
617.836	11420.67
618.031	11158.53
618.226	11111.43
618.421	11189.25
618.616	11185.15
618.811	10914.82
619.006	11183.1
619.201	10910.72
619.396	11060.23
619.591	10703.88
619.786	11037.7
619.981	10628.1
620.176	10673.16
620.371	10640.39
620.566	10642.44
620.761	10531.85
620.956	10681.35
621.151	10568.71
621.346	10583.05
621.541	10247.18
621.735	10494.99
621.93	10167.31
622.125	10136.59
622.32	10230.8
622.515	10161.17
622.709	10263.57
622.904	9966.61
623.099	10159.12
623.294	9968.66
623.488	9675.8
623.683	9827.35
623.878	9401.37
624.072	9790.49
624.267	9739.29
624.462	9714.71
624.656	9458.71
624.851	9550.87
625.046	9229.34
625.24	9301.02
625.435	9411.61
625.629	9421.85
625.824	8977.44
626.018	9141.28
626.213	9102.37
626.407	9233.44
626.602	8844.32
626.796	9063.46
626.991	9020.45
627.185	8723.49
627.38	8811.56
627.574	8940.58
627.768	8854.56
627.963	8719.4
628.157	8526.89
628.352	8946.72
628.546	8498.22
628.74	8709.16
628.935	8516.65
629.129	8522.79
629.323	8352.81
629.517	8379.43
629.712	8262.7
629.906	8352.81
630.1	8154.16
630.294	8297.52
630.489	8172.59
630.683	8041.52
630.877	8023.09
631.071	8057.9
631.265	8035.38
631.459	7689.27
631.653	7930.93
631.848	7834.68
632.042	7853.11
632.236	7707.7
632.43	7648.31
632.624	7808.05
632.818	7828.53
633.012	7703.61
633.206	7582.77
633.4	7631.93
633.594	7482.42
633.788	7498.81
633.982	7590.97
634.176	7386.17
634.369	7253.05
634.563	7314.49
634.757	7306.3
634.951	7437.37
635.145	7240.76
635.339	7275.58
635.533	7099.45
635.726	7048.26
635.92	7064.64
636.114	7025.73
636.308	6970.43
636.501	6878.27
636.695	6876.23
636.889	6904.9
637.083	6767.68
637.276	6788.16
637.47	6788.16
637.664	6757.44
637.857	6743.11
638.051	6585.41
638.244	6624.33
638.438	6517.83
638.632	6446.15
638.825	6435.91
639.019	6392.91
639.212	6345.8
639.406	6347.85
639.599	6474.82
639.793	6241.36
639.986	6239.31
640.18	6319.18
640.373	6214.73
640.567	6132.81
640.76	6087.76
640.954	6196.3
641.147	6077.52
641.34	6100.05
641.534	6134.86
641.727	5962.83
641.92	6157.39
642.114	5925.97
642.307	5715.03
642.5	5788.75
642.694	5676.12
642.887	5723.22
643.08	5647.44
643.273	5823.57
643.467	5712.98
643.66	5674.07
643.853	5639.25
644.046	5772.37
644.239	5586.01
644.432	5444.7
644.626	5463.13
644.819	5391.45
645.012	5299.29
645.205	5346.39
645.398	5323.87
645.591	5282.91
645.784	5168.22
645.977	5268.57
646.17	5295.19
646.363	5155.93
646.556	5055.58
646.749	5229.66
646.942	5168.22
647.135	5047.39
647.328	5041.25
647.521	5018.72
647.714	4856.93
647.907	5059.68
648.099	4977.76
648.292	5084.25
648.485	4834.4
648.678	4820.07
648.871	4850.78
649.064	4805.73
649.256	4842.59
649.449	4746.34
649.642	4686.95
649.835	4666.47
650.027	4770.91
650.22	4711.52
650.413	4664.42
650.605	4635.75
650.798	4674.66
650.991	4521.06
651.183	4447.33
651.376	4514.92
651.568	4359.27
651.761	4418.66
651.954	4363.37
652.146	4400.23
652.339	4533.35
652.531	4299.88
652.724	4254.83
652.916	4355.18
653.109	4125.8
653.301	4312.17
653.494	4144.24
653.686	4068.46
653.879	4187.24
654.071	4168.81
654.263	4111.47
654.456	4160.62
654.648	4033.65
654.84	3986.54
655.033	3978.35
655.225	4103.28
655.417	4123.76
655.61	4011.12
655.802	3935.34
655.994	3880.05
656.186	3980.4
656.379	3890.29
656.571	3871.86
656.763	3931.25
656.955	3787.89
657.148	3882.1
657.34	3765.36
657.532	3871.86
657.724	3660.91
657.916	3636.34
658.108	3699.83
658.3	3695.73
658.492	3548.28
658.684	3617.91
658.876	3630.2
659.068	3665.01
659.26	3619.96
659.452	3535.99
659.644	3462.26
659.836	3486.84
660.028	3509.37
660.22	3499.13
660.412	3411.06
660.604	3439.73
660.796	3462.26
660.988	3390.58
661.18	3335.29
661.372	3224.7
661.563	3286.14
661.755	3134.59
661.947	3171.45
662.139	3226.75
662.331	3271.8
662.522	3273.85
662.714	3310.71
662.906	3112.06
663.097	3060.86
663.289	3069.05
663.481	3198.07
663.673	3116.16
663.864	3089.53
664.056	3052.67
664.247	3019.9
664.439	3167.35
664.631	2997.37
664.822	2950.27
665.014	3003.52
665.205	3110.01
665.397	3028.09
665.588	2921.6
665.78	2804.86
665.971	2907.26
666.163	2950.27
666.354	2890.88
666.546	2868.35
666.737	2866.3
666.929	2761.86
667.12	2868.35
667.311	2897.02
667.503	2729.09
667.694	2782.34
667.885	2847.87
668.077	2880.64
668.268	2724.99
668.459	2616.45
668.651	2765.95
668.842	2866.3
669.033	2653.31
669.224	2679.94
669.416	2677.89
669.607	2673.79
669.798	2681.99
669.989	2673.79
670.18	2761.86
670.371	2528.39
670.563	2585.73
670.754	2458.76
670.945	2540.68
671.136	2583.68
671.327	2518.15
671.518	2495.62
671.709	2442.37
671.9	2520.2
672.091	2450.57
672.282	2536.58
672.473	2520.2
672.664	2526.34
672.855	2456.71
673.046	2583.68
673.237	2454.66
673.428	2469
673.619	2432.13
673.809	2405.51
674	2389.13
674.191	2385.03
674.382	2466.95
674.573	2436.23
674.764	2382.98
674.954	2362.5
675.145	2391.17
675.336	2337.93
675.527	2348.17
675.717	2327.69
675.908	2335.88
676.099	2266.25
676.289	2372.74
676.48	2253.96
676.671	2395.27
676.861	2307.21
677.052	2323.59
677.243	2374.79
677.433	2258.06
677.624	2260.1
677.814	2262.15
678.005	2358.41
678.195	2223.24
678.386	2190.47
678.576	2206.86
678.767	2137.23
678.957	2219.14
679.148	2192.52
679.338	2305.16
679.529	2215.05
679.719	2167.95
679.909	2227.34
680.1	2213
680.29	2176.14
680.481	2249.86
680.671	2147.47
680.861	2174.09
681.052	2174.09
681.242	2149.51
681.432	2219.14
681.622	2155.66
681.813	2196.62
682.003	2182.28
682.193	2139.27
682.383	2126.99
682.573	2180.23
682.764	2040.97
682.954	2159.75
683.144	2204.81
683.334	2112.65
683.524	2079.88
683.714	2194.57
683.904	2167.95
684.094	2178.19
684.284	2192.52
684.474	2116.75
684.664	2063.5
684.854	2145.42
685.044	2120.84
685.234	2112.65
685.424	2112.65
685.614	2088.07
685.804	2120.84
685.994	2045.07
686.184	2006.16
686.374	2141.32
686.564	2008.2
686.753	2137.23
686.943	1852.56
687.133	2067.6
687.323	2069.64
687.513	2122.89
687.702	2120.84
687.892	2145.42
688.082	2010.25
688.272	2030.73
688.461	2038.92
688.651	2059.4
688.841	2045.07
689.03	2040.97
689.22	2008.2
689.41	1944.72
689.599	2104.46
689.789	2024.59
689.979	2030.73
690.168	2020.49
690.358	1891.47
690.547	1995.92
690.737	1957
690.926	2030.73
691.116	1873.04
691.305	2055.31
691.495	2049.16
691.684	2040.97
691.874	1914
692.063	1987.72
692.252	1946.76
692.442	1993.87
692.631	1815.69
692.82	1948.81
693.01	1967.24
693.199	1991.82
693.388	1866.89
693.578	1840.27
693.767	1963.15
693.956	1918.09
694.146	1801.36
694.335	1862.8
694.524	1893.52
694.713	1838.22
694.902	1916.05
695.092	1868.94
695.281	1827.98
695.47	1860.75
695.659	1834.13
695.848	1893.52
696.037	1815.69
696.226	1842.32
696.415	1897.61
696.604	1803.41
696.793	1813.65
696.982	1873.04
697.171	1789.07
697.36	1932.43
697.549	1815.69
697.738	1803.41
697.927	1762.45
698.116	1830.03
698.305	1756.3
698.494	1830.03
698.683	1778.83
698.872	1768.59
699.061	1922.19
699.25	1811.6
699.438	1772.69
699.627	1733.78
699.816	1778.83
700.005	1774.74
700.193	1703.06
700.382	1770.64
700.571	1709.2
700.76	1774.74
700.948	1635.47
701.137	1758.35
701.326	1723.54
701.514	1823.89
701.703	1758.35
701.892	1762.45
702.08	1772.69
702.269	1746.06
702.457	1690.77
702.646	1686.67
702.834	1658
703.023	1748.11
703.212	1721.49
703.4	1655.95
703.589	1660.05
703.777	1588.37
703.965	1635.47
704.154	1639.57
704.342	1830.03
704.531	1639.57
704.719	1571.99
704.907	1744.02
705.096	1725.58
705.284	1569.94
705.472	1774.74
705.661	1729.68
705.849	1647.76
706.037	1590.42
706.226	1834.13
706.414	1692.82
706.602	1678.48
706.79	1623.19
706.979	1684.62
707.167	1705.1
707.355	1633.43
707.543	1655.95
707.731	1692.82
707.919	1627.28
708.107	1694.86
708.296	1627.28
708.484	1612.95
708.672	1604.75
708.86	1645.71
709.048	1676.43
709.236	1602.71
709.424	1598.61
709.612	1600.66
709.8	1528.98
709.988	1594.51
710.176	1565.84
710.364	1569.94
710.551	1545.36
710.739	1662.1
710.927	1576.08
711.115	1565.84
711.303	1520.79
711.491	1496.21
711.679	1608.85
711.866	1574.03
712.054	1588.37
712.242	1498.26
712.43	1563.79
712.617	1561.75
712.805	1492.12
712.993	1508.5
713.181	1516.69
713.368	1483.92
713.556	1541.27
713.744	1543.32
713.931	1608.85
714.119	1479.83
714.306	1490.07
714.494	1508.5
714.682	1518.74
714.869	1492.12
715.057	1481.88
715.244	1506.45
715.432	1619.09
715.619	1397.91
715.807	1506.45
715.994	1471.64
716.182	1459.35
716.369	1440.92
716.556	1369.24
716.744	1594.51
716.931	1447.06
717.119	1555.6
717.306	1410.2
717.493	1426.58
717.681	1311.89
717.868	1391.77
718.055	1467.54
718.242	1434.77
718.43	1418.39
718.617	1528.98
718.804	1451.16
718.991	1410.2
719.179	1332.37
719.366	1410.2
719.553	1469.59
719.74	1442.96
719.927	1463.44
720.114	1545.36
720.301	1402.01
720.488	1418.39
720.676	1379.48
720.863	1430.68
721.05	1373.33
721.237	1418.39
721.424	1506.45
721.611	1334.42
721.798	1391.77
721.985	1383.57
722.172	1406.1
722.358	1430.68
722.545	1365.14
722.732	1332.37
722.919	1381.53
723.106	1326.23
723.293	1340.57
723.48	1410.2
723.667	1375.38
723.853	1359
724.04	1350.81
724.227	1442.96
724.414	1336.47
724.6	1408.15
724.787	1277.08
724.974	1434.77
725.161	1318.04
725.347	1217.69
725.534	1414.29
725.72	1340.57
725.907	1252.5
726.094	1359
726.28	1338.52
726.467	1291.41
726.653	1369.24
726.84	1315.99
727.027	1354.9
727.213	1260.7
727.4	1322.13
727.586	1244.31
727.773	1375.38
727.959	1326.23
728.145	1305.75
728.332	1307.8
728.518	1270.94
728.705	1291.41
728.891	1246.36
729.077	1291.41
729.264	1285.27
729.45	1315.99
729.636	1229.98
729.823	1373.33
730.009	1404.05
730.195	1246.36
730.382	1322.13
730.568	1266.84
730.754	1283.22
730.94	1322.13
731.126	1195.16
731.313	1246.36
731.499	1348.76
731.685	1260.7
731.871	1219.74
732.057	1240.22
732.243	1242.26
732.429	1275.03
732.615	1277.08
732.801	1305.75
732.987	1254.55
733.173	1295.51
733.359	1234.07
733.545	1203.35
733.731	1242.26
733.917	1270.94
734.103	1244.31
734.289	1262.74
734.475	1277.08
734.661	1227.93
734.847	1260.7
735.033	1281.18
735.219	1283.22
735.404	1264.79
735.59	1217.69
735.776	1279.13
735.962	1307.8
736.148	1293.46
736.333	1287.32
736.519	1195.16
736.705	1301.65
736.89	1209.5
737.076	1275.03
737.262	1209.5
737.447	1246.36
737.633	1229.98
737.819	1225.88
738.004	1260.7
738.19	1318.04
738.375	1078.43
738.561	1229.98
738.747	1111.19
738.932	1266.84
739.118	1246.36
739.303	1186.97
739.489	1250.46
739.674	1137.82
739.859	1146.01
740.045	1131.67
740.23	1127.58
740.416	1242.26
740.601	1191.06
740.786	1103
740.972	1146.01
741.157	1162.39
741.342	1103
741.528	1066.14
741.713	1103
741.898	1164.44
742.084	1053.85
742.269	1168.54
742.454	1154.2
742.639	1180.82
742.824	1123.48
743.01	1135.77
743.195	1178.78
743.38	1100.95
743.565	1045.66
743.75	1088.67
743.935	1119.39
744.12	1154.2
744.305	1117.34
744.49	1119.39
744.675	1201.3
744.86	1184.92
745.045	1121.43
745.23	1059.99
745.415	1121.43
745.6	1080.47
745.785	1037.47
745.97	1053.85
746.155	1033.37
746.34	1021.08
746.525	992.41
746.71	1037.47
746.895	1000.6
747.079	1023.13
747.264	1092.76
747.449	1008.8
747.634	1059.99
747.819	1021.08
748.003	1027.23
748.188	1023.13
748.373	1029.27
748.557	990.36
748.742	951.45
748.927	1012.89
749.111	961.69
749.296	961.69
749.481	947.36
749.665	916.64
749.85	863.39
750.034	869.53
750.219	906.4
750.404	992.41
750.588	941.21
750.773	857.25
750.957	930.97
751.141	849.05
751.326	894.11
751.51	851.1
751.695	883.87
751.879	804
752.064	885.92
752.248	867.49
752.432	922.78
752.617	799.9
752.801	892.06
752.985	838.81
753.17	834.72
753.354	801.95
753.538	816.29
753.722	818.33
753.907	902.3
754.091	834.72
754.275	830.62
754.459	812.19
754.643	785.57
754.828	740.51
755.012	707.74
755.196	793.76
755.38	736.42
755.564	779.42
755.748	861.34
755.932	767.13
756.116	785.57
756.3	750.75
756.484	742.56
756.668	697.5
756.852	720.03
757.036	730.27
757.22	793.76
757.404	720.03
757.588	744.61
757.772	715.94
757.956	744.61
758.14	760.99
758.323	670.88
758.507	765.09
758.691	711.84
758.875	699.55
759.059	773.28
759.242	691.36
759.426	664.74
759.61	644.26
759.794	613.54
759.977	728.22
760.161	593.06
760.345	705.7
760.528	627.87
760.712	625.83
760.895	648.35
761.079	586.91
761.263	695.46
761.446	582.82
761.63	597.15
761.813	611.49
761.997	629.92
762.18	615.59
762.364	603.3
762.547	545.95
762.731	627.87
762.914	644.26
763.098	685.22
763.281	550.05
763.464	607.39
763.648	556.19
763.831	634.02
764.015	627.87
764.198	650.4
764.381	515.23
764.564	535.71
764.748	578.72
764.931	541.86
765.114	584.87
765.297	584.87
765.481	552.1
765.664	488.61
765.847	601.25
766.03	548
766.213	623.78
766.397	541.86
766.58	466.08
766.763	545.95
766.946	511.14
767.129	560.29
767.312	464.04
767.495	449.7
767.678	527.52
767.861	566.43
768.044	562.34
768.227	531.62
768.41	480.42
768.593	617.63
768.776	515.23
768.959	470.18
769.142	515.23
769.324	490.66
769.507	552.1
769.69	486.56
769.873	550.05
770.056	461.99
770.239	457.89
770.421	548
770.604	496.8
770.787	457.89
770.97	464.04
771.152	486.56
771.335	502.95
771.518	492.71
771.7	433.32
771.883	502.95
772.066	439.46
772.248	486.56
772.431	455.84
772.613	478.37
772.796	459.94
772.978	488.61
773.161	484.52
773.343	447.65
773.526	515.23
773.708	449.7
773.891	365.73
774.073	496.8
774.256	373.92
774.438	500.9
774.621	429.22
774.803	461.99
774.985	371.88
775.168	390.31
775.35	513.19
775.532	449.7
775.715	359.59
775.897	476.32
776.079	504.99
776.261	447.65
776.444	461.99
776.626	357.54
776.808	347.3
776.99	394.4
777.173	345.25
777.355	355.49
777.537	287.91
777.719	355.49
777.901	410.79
778.083	390.31
778.265	332.97
778.447	429.22
778.629	328.87
778.811	365.73
778.993	369.83
779.175	406.69
779.357	343.21
779.539	318.63
779.721	322.73
779.903	369.83
780.085	345.25
780.267	283.81
780.449	296.1
780.631	316.58
780.812	357.54
780.994	353.45
781.176	371.88
781.358	320.68
781.54	337.06
781.721	328.87
781.903	318.63
782.085	318.63
782.267	320.68
782.448	326.82
782.63	246.95
782.812	332.97
782.993	261.29
783.175	318.63
783.357	267.43
783.538	332.97
783.72	300.2
783.901	349.35
784.083	275.62
784.264	275.62
784.446	318.63
784.627	240.81
784.809	330.92
784.99	214.18
785.172	251.05
785.353	265.38
785.535	201.9
785.716	251.05
785.897	208.04
786.079	296.1
786.26	308.39
786.441	318.63
786.623	244.9
786.804	253.09
786.985	255.14
787.167	210.09
787.348	222.38
787.529	238.76
787.71	265.38
787.891	212.14
788.073	199.85
788.254	255.14
788.435	255.14
788.616	230.57
788.797	251.05
788.978	210.09
789.159	214.18
789.34	187.56
789.522	226.47
789.703	277.67
789.884	224.42
790.065	154.79
790.246	212.14
790.427	175.27
790.607	267.43
790.788	187.56
790.969	187.56
791.15	277.67
791.331	189.61
791.512	185.51
791.693	197.8
791.874	187.56
792.054	177.32
792.235	216.23
792.416	208.04
792.597	230.57
792.778	89.26
792.958	189.61
793.139	191.66
793.32	224.42
793.5	193.7
793.681	119.98
793.862	181.42
794.042	234.66
794.223	195.75
794.404	173.22
794.584	156.84
794.765	183.46
794.945	208.04
795.126	156.84
795.306	185.51
795.487	210.09
795.667	134.31
795.848	203.94
796.028	107.69
796.209	175.27
796.389	191.66
796.57	169.13
796.75	179.37
796.93	175.27
797.111	152.74
797.291	179.37
797.471	171.18
797.652	115.88
797.832	246.95
798.012	165.03
798.192	152.74
798.373	134.31
798.553	158.89
798.733	113.83
798.913	144.55
799.093	109.74
799.274	158.89
799.454	126.12
799.634	56.49
799.814	212.14
799.994	160.94
800.174	158.89
800.354	99.5
800.534	128.17
800.714	146.6
800.894	128.17
801.074	105.64
801.254	142.5
801.434	130.22
801.614	134.31
801.794	130.22
801.974	402.6
802.154	134.31
802.334	165.03
802.514	122.02
802.693	109.74
802.873	70.83
803.053	144.55
803.233	134.31
803.413	152.74
803.592	185.51
803.772	132.26
803.952	46.25
804.131	89.26
804.311	150.7
804.491	201.9
804.67	81.07
804.85	76.97
805.03	76.97
805.209	140.46
805.389	146.6
805.568	140.46
805.748	122.02
805.928	85.16
806.107	87.21
806.287	175.27
806.466	119.98
806.646	99.5
806.825	85.16
807.004	130.22
807.184	107.69
807.363	138.41
807.543	68.78
807.722	126.12
807.901	105.64
808.081	119.98
808.26	29.87
808.439	138.41
808.619	115.88
808.798	138.41
808.977	144.55
809.156	142.5
809.336	158.89
809.515	81.07
809.694	111.78
809.873	152.74
810.052	76.97
810.231	130.22
810.411	105.64
810.59	97.45
810.769	19.63
810.948	162.98
811.127	46.25
811.306	144.55
811.485	105.64
811.664	74.92
811.843	74.92
812.022	107.69
812.201	93.35
812.38	79.02
812.559	97.45
812.737	89.26
812.916	64.68
813.095	64.68
813.274	85.16
813.453	134.31
813.632	58.54
813.811	105.64
813.989	46.25
814.168	115.88
814.347	74.92
814.526	103.59
814.704	40.11
814.883	40.11
815.062	31.91
815.24	31.91
815.419	62.63
815.598	89.26
815.776	44.2
815.955	44.2
816.133	93.35
816.312	122.02
816.49	56.49
816.669	46.25
816.847	54.44
817.026	76.97
817.204	5.29
817.383	-33.62
817.561	-7
817.74	68.78
817.918	27.82
818.097	144.55
818.275	109.74
818.453	119.98
818.632	58.54
818.81	152.74
818.988	21.67
819.167	101.55
819.345	48.3
819.523	7.34
819.701	29.87
819.879	21.67
820.058	66.73
820.236	42.15
820.414	38.06
820.592	111.78
820.77	126.12
820.948	70.83
821.127	113.83
821.305	87.21
821.483	142.5
821.661	124.07
821.839	89.26
822.017	97.45
822.195	42.15
822.373	72.87
822.551	111.78
822.729	33.96
822.907	70.83
823.085	124.07
823.262	50.35
823.44	38.06
823.618	15.53
823.796	97.45
823.974	54.44
824.152	107.69
824.329	97.45
824.507	62.63
824.685	-2.9
824.863	144.55
825.04	21.67
825.218	66.73
825.396	97.45
825.574	72.87
825.751	103.59
825.929	-43.86
826.107	-4.95
826.284	38.06
826.462	50.35
826.639	-9.05
826.817	36.01
826.994	42.15
827.172	66.73
827.349	54.44
827.527	17.58
827.704	13.48
827.882	91.31
828.059	83.11
828.237	70.83
828.414	91.31
828.591	-7
828.769	19.63
828.946	40.11
829.124	56.49
829.301	95.4
829.478	109.74
829.655	29.87
829.833	54.44
830.01	21.67
830.187	85.16
830.364	50.35
830.542	-4.95
830.719	79.02
830.896	79.02
831.073	-29.52
831.25	40.11
831.427	46.25
831.604	74.92
831.782	9.39
831.959	68.78
832.136	122.02
832.313	66.73
832.49	52.39
832.667	95.4
832.844	25.77
833.021	15.53
833.198	-0.85
833.374	42.15
833.551	60.59
833.728	27.82
833.905	38.06
834.082	113.83
834.259	17.58
834.436	115.88
834.612	17.58
834.789	68.78
834.966	62.63
835.143	48.3
835.319	-13.14
835.496	60.59
835.673	31.91
835.85	93.35
836.026	29.87
836.203	101.55
836.38	44.2
836.556	38.06
836.733	50.35
836.909	11.43
837.086	36.01
837.262	27.82
837.439	48.3
837.616	-0.85
837.792	42.15
837.968	-27.48
838.145	-47.96
838.321	66.73
838.498	17.58
838.674	46.25
838.851	31.91
839.027	56.49
839.203	13.48
839.38	33.96
839.556	40.11
839.732	48.3
839.909	21.67
840.085	52.39
840.261	56.49
840.437	31.91
840.614	-19.29
840.79	79.02
840.966	50.35
841.142	25.77
841.318	-37.72
841.494	27.82
841.671	27.82
841.847	40.11
842.023	11.43
842.199	23.72
842.375	11.43
842.551	19.63
842.727	-35.67
842.903	103.59
843.079	-52.05
843.255	13.48
843.431	-23.38
843.607	52.39
843.783	72.87
843.959	79.02
844.134	-35.67
844.31	15.53
844.486	50.35
844.662	-41.81
844.838	36.01
845.013	46.25
845.189	-7
845.365	72.87
845.541	13.48
845.716	44.2
845.892	1.19
846.068	23.72
846.244	-2.9
846.419	36.01
846.595	15.53
846.77	-9.05
846.946	-11.09
847.122	62.63
847.297	9.39
847.473	31.91
847.648	17.58
847.824	33.96
847.999	3.24
848.175	33.96
848.35	9.39
848.526	54.44
848.701	54.44
848.876	64.68
849.052	48.3
849.227	48.3
849.403	62.63
849.578	33.96
849.753	44.2
849.929	27.82
850.104	15.53
850.279	-25.43
850.454	3.24
850.63	23.72
850.805	40.11
850.98	21.67
851.155	21.67
851.33	17.58
851.505	-29.52
851.681	79.02
851.856	-45.91
852.031	-11.09
852.206	81.07
852.381	-7
852.556	-21.33
852.731	58.54
852.906	36.01
853.081	50.35
853.256	46.25
853.431	23.72
853.606	-39.76
853.781	-27.48
853.956	27.82
854.131	-47.96
854.305	-23.38
854.48	44.2
854.655	31.91
854.83	40.11
855.005	-33.62
855.18	-41.81
855.354	-13.14
855.529	13.48
855.704	-13.14
855.879	-23.38
856.053	31.91
856.228	3.24
856.403	15.53
856.577	23.72
856.752	44.2
856.926	11.43
857.101	-27.48
857.276	21.67
857.45	15.53
857.625	58.54
857.799	-11.09
857.974	107.69
858.148	52.39
858.323	62.63
858.497	87.21
858.672	-50
858.846	58.54
859.02	76.97
859.195	58.54
859.369	31.91
859.543	-35.67
859.718	5.29
859.892	17.58
860.066	52.39
860.241	15.53
860.415	19.63
860.589	-25.43
860.763	44.2
860.938	27.82
861.112	85.16
861.286	9.39
861.46	-31.57
861.634	-13.14
861.808	36.01
861.982	-27.48
862.157	17.58
862.331	29.87
862.505	38.06
862.679	-19.29
862.853	9.39
863.027	-13.14
863.201	64.68
863.375	21.67
863.549	25.77
863.722	-21.33
863.896	5.29
864.07	19.63
864.244	13.48
864.418	38.06
864.592	5.29
864.766	-13.14
864.939	-2.9
865.113	11.43
865.287	-4.95
865.461	21.67
865.634	-11.09
865.808	-58.2
865.982	-35.67
866.156	-0.85
866.329	81.07
866.503	-43.86
866.676	-9.05
866.85	-50
867.024	-0.85
867.197	13.48
867.371	21.67
867.544	-27.48
867.718	21.67
867.891	-9.05
868.065	48.3
868.238	50.35
868.412	25.77
868.585	3.24
868.759	70.83
868.932	-11.09
869.105	54.44
869.279	19.63
869.452	62.63
869.625	-33.62
869.799	23.72
869.972	3.24
870.145	15.53
870.319	70.83
870.492	-17.24
870.665	13.48
870.838	29.87
871.011	-2.9
871.185	58.54
871.358	11.43
871.531	-25.43
871.704	-21.33
871.877	62.63
872.05	11.43
872.223	36.01
872.396	-4.95
872.569	79.02
872.742	7.34
872.915	46.25
873.088	-9.05
873.261	-7
873.434	46.25
873.607	58.54
873.78	54.44
873.953	31.91
874.126	1.19
874.299	17.58
874.471	29.87
874.644	-7
874.817	38.06
874.99	122.02
875.163	3.24
875.335	-11.09
875.508	7.34
875.681	62.63
875.853	42.15
876.026	-4.95
876.199	44.2
876.371	29.87
876.544	62.63
876.717	-7
876.889	-11.09
877.062	-19.29
877.234	-17.24
877.407	-23.38
877.579	-52.05
877.752	66.73
877.924	5.29
878.097	68.78
878.269	40.11
878.442	-39.76
878.614	44.2
878.786	33.96
878.959	-13.14
879.131	-17.24
879.303	-21.33
879.476	7.34
879.648	-17.24
879.82	29.87
879.993	19.63
880.165	56.49
880.337	-31.57
880.509	81.07
880.681	-43.86
880.854	-0.85
881.026	21.67
881.198	111.78
881.37	27.82
881.542	48.3
881.714	3.24
881.886	66.73
882.058	-72.53
882.23	13.48
882.402	11.43
882.574	3.24
882.746	-9.05
882.918	-35.67
883.09	-13.14
883.262	-25.43
883.434	40.11
883.606	60.59
883.778	-4.95
883.95	29.87
884.122	-41.81
884.293	-33.62
884.465	-13.14
884.637	-47.96
884.809	19.63
884.98	-33.62
885.152	-7
885.324	3.24
885.496	-0.85
885.667	-64.34
885.839	-17.24
886.011	54.44
886.182	-33.62
886.354	27.82
886.525	19.63
886.697	31.91
886.869	48.3
887.04	70.83
887.212	1.19
887.383	66.73
887.555	-0.85
887.726	15.53
887.897	56.49
888.069	-52.05
888.24	-2.9
888.412	3.24
888.583	-9.05
888.754	60.59
888.926	87.21
889.097	17.58
889.268	19.63
889.44	-19.29
889.611	48.3
889.782	36.01
889.953	44.2
890.125	-2.9
890.296	-11.09
890.467	15.53
890.638	19.63
890.809	-2.9
890.98	5.29
891.151	85.16
891.323	46.25
891.494	-37.72
891.665	-76.63
891.836	91.31
892.007	62.63
892.178	58.54
892.349	46.25
892.52	-25.43
892.691	27.82
892.862	33.96
893.032	-21.33
893.203	40.11
893.374	36.01
893.545	-0.85
893.716	23.72
893.887	-27.48
894.057	21.67
894.228	5.29
894.399	-0.85
894.57	46.25
894.74	-11.09
894.911	42.15
895.082	-19.29
895.253	-50
895.423	15.53
895.594	70.83
895.764	19.63
895.935	-27.48
896.106	95.4
896.276	99.5
896.447	7.34
896.617	-50
896.788	-17.24
896.958	1.19
897.129	-17.24
897.299	-4.95
897.47	-15.19
897.64	-17.24
897.81	25.77
897.981	-35.67
898.151	-0.85
898.322	9.39
898.492	17.58
898.662	13.48
898.832	-21.33
899.003	-52.05
899.173	-27.48
899.343	5.29
899.513	7.34
