Data from USB4F104151__83__12-59-51-540.txt Node

Date: Fri Mar 14 12:59:51 EDT 2025
User: louis
Spectrometer: USB4F10415
Trigger mode: 4
Integration Time (sec): 1.000000E-2
Scans to average: 1
Electric dark correction enabled: true
Nonlinearity correction enabled: false
Boxcar width: 0
XAxis mode: Wavelengths
Number of Pixels in Spectrum: 3648
>>>>>Begin Spectral Data<<<<<
178.204	-29.52
178.424	-29.52
178.644	-29.52
178.864	-74.58
179.084	-37.72
179.304	-23.38
179.524	23.72
179.744	3.24
179.964	-17.24
180.184	-19.29
180.404	-13.14
180.624	-13.14
180.844	-43.86
181.064	19.63
181.283	83.11
181.503	-54.1
181.723	54.44
181.943	50.35
182.163	27.82
182.383	-17.24
182.602	-0.85
182.822	25.77
183.042	-27.48
183.262	-27.48
183.482	19.63
183.701	-13.14
183.921	-2.9
184.141	21.67
184.361	17.58
184.58	-27.48
184.8	-27.48
185.02	-15.19
185.239	-27.48
185.459	1.19
185.679	-50
185.898	-45.91
186.118	11.43
186.338	36.01
186.557	-21.33
186.777	-11.09
186.997	19.63
187.216	56.49
187.436	83.11
187.655	48.3
187.875	-54.1
188.095	15.53
188.314	76.97
188.534	54.44
188.753	33.96
188.973	-52.05
189.192	42.15
189.412	40.11
189.631	-31.57
189.851	19.63
190.07	3.24
190.29	-23.38
190.509	31.91
190.729	23.72
190.948	-13.14
191.168	46.25
191.387	9.39
191.607	-2.9
191.826	-43.86
192.045	-15.19
192.265	-23.38
192.484	23.72
192.704	52.39
192.923	-13.14
193.142	-15.19
193.362	58.54
193.581	46.25
193.8	25.77
194.02	44.2
194.239	-82.77
194.458	54.44
194.678	-50
194.897	11.43
195.116	-76.63
195.335	-23.38
195.555	-0.85
195.774	-54.1
195.993	5.29
196.212	-47.96
196.432	7.34
196.651	19.63
196.87	13.48
197.089	-11.09
197.308	15.53
197.528	9.39
197.747	-33.62
197.966	-7
198.185	5.29
198.404	5.29
198.623	46.25
198.842	17.58
199.062	-2.9
199.281	-70.48
199.5	-7
199.719	5.29
199.938	23.72
200.157	3.24
200.376	29.87
200.595	3.24
200.814	33.96
201.033	-7
201.252	-15.19
201.471	29.87
201.69	60.59
201.909	-4.95
202.128	-2.9
202.347	-19.29
202.566	56.49
202.785	-7
203.004	29.87
203.223	21.67
203.442	-9.05
203.661	11.43
203.879	-4.95
204.098	31.91
204.317	-74.58
204.536	17.58
204.755	-15.19
204.974	40.11
205.193	-4.95
205.411	38.06
205.63	19.63
205.849	38.06
206.068	-29.52
206.287	-33.62
206.505	11.43
206.724	-93.01
206.943	-15.19
207.162	64.68
207.381	21.67
207.599	44.2
207.818	-37.72
208.037	1.19
208.255	3.24
208.474	-2.9
208.693	-37.72
208.911	36.01
209.13	-37.72
209.349	-15.19
209.567	5.29
209.786	46.25
210.005	-25.43
210.223	-21.33
210.442	-50
210.661	31.91
210.879	79.02
211.098	44.2
211.316	-15.19
211.535	-9.05
211.753	-47.96
211.972	48.3
212.191	13.48
212.409	25.77
212.628	-4.95
212.846	-23.38
213.065	15.53
213.283	93.35
213.502	15.53
213.72	13.48
213.938	-50
214.157	-31.57
214.375	33.96
214.594	11.43
214.812	-7
215.031	-25.43
215.249	54.44
215.467	-74.58
215.686	21.67
215.904	56.49
216.122	-27.48
216.341	-4.95
216.559	74.92
216.778	91.31
216.996	-21.33
217.214	-50
217.432	-60.24
217.651	21.67
217.869	54.44
218.087	70.83
218.306	-9.05
218.524	44.2
218.742	40.11
218.96	-11.09
219.179	3.24
219.397	-9.05
219.615	-50
219.833	1.19
220.051	-23.38
220.27	-4.95
220.488	56.49
220.706	56.49
220.924	-19.29
221.142	-43.86
221.36	13.48
221.578	52.39
221.796	5.29
222.015	52.39
222.233	-58.2
222.451	15.53
222.669	-37.72
222.887	-11.09
223.105	13.48
223.323	-17.24
223.541	13.48
223.759	17.58
223.977	-2.9
224.195	5.29
224.413	27.82
224.631	7.34
224.849	36.01
225.067	70.83
225.285	-68.44
225.503	33.96
225.721	-15.19
225.939	-62.29
226.157	-0.85
226.375	64.68
226.592	-21.33
226.81	-0.85
227.028	13.48
227.246	5.29
227.464	-7
227.682	36.01
227.9	15.53
228.117	-37.72
228.335	11.43
228.553	29.87
228.771	27.82
228.989	19.63
229.206	38.06
229.424	-23.38
229.642	40.11
229.86	-15.19
230.077	54.44
230.295	79.02
230.513	50.35
230.731	44.2
230.948	66.73
231.166	44.2
231.384	29.87
231.601	-9.05
231.819	-43.86
232.037	-19.29
232.254	-9.05
232.472	13.48
232.689	3.24
232.907	5.29
233.125	15.53
233.342	-11.09
233.56	-66.39
233.777	46.25
233.995	-35.67
234.213	19.63
234.43	-64.34
234.648	5.29
234.865	68.78
235.083	33.96
235.3	-11.09
235.518	-15.19
235.735	13.48
235.953	-13.14
236.17	33.96
236.388	5.29
236.605	-19.29
236.822	33.96
237.04	50.35
237.257	3.24
237.475	19.63
237.692	-43.86
237.909	74.92
238.127	68.78
238.344	-35.67
238.562	-15.19
238.779	-29.52
238.996	11.43
239.214	31.91
239.431	17.58
239.648	9.39
239.865	54.44
240.083	5.29
240.3	19.63
240.517	46.25
240.735	9.39
240.952	50.35
241.169	15.53
241.386	3.24
241.603	5.29
241.821	-25.43
242.038	27.82
242.255	-41.81
242.472	-19.29
242.689	31.91
242.907	62.63
243.124	44.2
243.341	-62.29
243.558	-33.62
243.775	-17.24
243.992	11.43
244.209	21.67
244.426	23.72
244.643	33.96
244.86	9.39
245.078	5.29
245.295	17.58
245.512	54.44
245.729	15.53
245.946	36.01
246.163	56.49
246.38	29.87
246.597	-33.62
246.814	3.24
247.031	-56.15
247.248	23.72
247.464	115.88
247.681	27.82
247.898	-43.86
248.115	19.63
248.332	7.34
248.549	-13.14
248.766	27.82
248.983	15.53
249.2	31.91
249.417	56.49
249.633	25.77
249.85	-19.29
250.067	-43.86
250.284	1.19
250.501	-15.19
250.717	-2.9
250.934	19.63
251.151	3.24
251.368	-58.2
251.585	23.72
251.801	-90.96
252.018	19.63
252.235	-31.57
252.451	40.11
252.668	21.67
252.885	-7
253.102	31.91
253.318	3.24
253.535	-21.33
253.752	29.87
253.968	21.67
254.185	31.91
254.401	-25.43
254.618	-0.85
254.835	29.87
255.051	7.34
255.268	-4.95
255.484	-19.29
255.701	15.53
255.917	-33.62
256.134	-54.1
256.351	-9.05
256.567	-21.33
256.784	76.97
257	5.29
257.217	68.78
257.433	-15.19
257.65	27.82
257.866	-31.57
258.082	11.43
258.299	7.34
258.515	-33.62
258.732	-11.09
258.948	-62.29
259.165	81.07
259.381	40.11
259.597	15.53
259.814	-39.76
260.03	15.53
260.246	15.53
260.463	9.39
260.679	27.82
260.895	-35.67
261.112	-60.24
261.328	-31.57
261.544	23.72
261.761	-7
261.977	11.43
262.193	38.06
262.409	-74.58
262.626	-17.24
262.842	-27.48
263.058	3.24
263.274	-58.2
263.49	13.48
263.707	-13.14
263.923	7.34
264.139	31.91
264.355	-52.05
264.571	29.87
264.787	-70.48
265.004	3.24
265.22	-39.76
265.436	-15.19
265.652	-41.81
265.868	33.96
266.084	5.29
266.3	-27.48
266.516	27.82
266.732	-9.05
266.948	23.72
267.164	44.2
267.38	62.63
267.596	42.15
267.812	-4.95
268.028	-45.91
268.244	-35.67
268.46	48.3
268.676	-4.95
268.892	33.96
269.108	-54.1
269.324	11.43
269.54	62.63
269.756	17.58
269.972	27.82
270.188	27.82
270.403	13.48
270.619	70.83
270.835	-41.81
271.051	-0.85
271.267	-19.29
271.483	-13.14
271.698	81.07
271.914	52.39
272.13	-0.85
272.346	64.68
272.562	-19.29
272.777	-17.24
272.993	11.43
273.209	-70.48
273.425	-80.72
273.64	-15.19
273.856	15.53
274.072	19.63
274.287	29.87
274.503	27.82
274.719	91.31
274.934	-15.19
275.15	-31.57
275.366	83.11
275.581	19.63
275.797	27.82
276.012	-54.1
276.228	-37.72
276.444	-11.09
276.659	-9.05
276.875	-52.05
277.09	11.43
277.306	-4.95
277.521	5.29
277.737	19.63
277.952	36.01
278.168	-84.82
278.383	70.83
278.599	3.24
278.814	-74.58
279.03	-13.14
279.245	-4.95
279.461	-70.48
279.676	99.5
279.892	-56.15
280.107	-21.33
280.322	72.87
280.538	-33.62
280.753	54.44
280.969	-17.24
281.184	13.48
281.399	19.63
281.615	-21.33
281.83	40.11
282.045	-11.09
282.26	13.48
282.476	-39.76
282.691	29.87
282.906	-4.95
283.122	17.58
283.337	3.24
283.552	11.43
283.767	-7
283.983	-29.52
284.198	-78.68
284.413	27.82
284.628	-39.76
284.843	-23.38
285.058	-17.24
285.274	5.29
285.489	-9.05
285.704	11.43
285.919	3.24
286.134	17.58
286.349	60.59
286.564	11.43
286.779	23.72
286.995	44.2
287.21	13.48
287.425	-33.62
287.64	33.96
287.855	-25.43
288.07	64.68
288.285	-33.62
288.5	7.34
288.715	5.29
288.93	3.24
289.145	-7
289.36	101.55
289.575	-15.19
289.79	-56.15
290.004	79.02
290.219	23.72
290.434	25.77
290.649	23.72
290.864	-60.24
291.079	23.72
291.294	-31.57
291.509	19.63
291.724	15.53
291.938	-33.62
292.153	54.44
292.368	48.3
292.583	-41.81
292.798	-21.33
293.012	7.34
293.227	-58.2
293.442	-4.95
293.657	21.67
293.871	33.96
294.086	-29.52
294.301	91.31
294.516	40.11
294.73	-13.14
294.945	33.96
295.16	-4.95
295.374	-17.24
295.589	46.25
295.804	15.53
296.018	-31.57
296.233	-37.72
296.447	38.06
296.662	27.82
296.877	31.91
297.091	38.06
297.306	79.02
297.52	31.91
297.735	48.3
297.949	-27.48
298.164	38.06
298.378	-86.87
298.593	62.63
298.807	58.54
299.022	52.39
299.236	-29.52
299.451	23.72
299.665	13.48
299.88	3.24
300.094	-27.48
300.309	23.72
300.523	36.01
300.737	27.82
300.952	1.19
301.166	70.83
301.381	38.06
301.595	-54.1
301.809	70.83
302.024	48.3
302.238	31.91
302.452	-35.67
302.667	-37.72
302.881	56.49
303.095	7.34
303.309	70.83
303.524	-11.09
303.738	-4.95
303.952	40.11
304.166	31.91
304.381	-13.14
304.595	38.06
304.809	17.58
305.023	-4.95
305.237	9.39
305.452	81.07
305.666	-19.29
305.88	27.82
306.094	1.19
306.308	-13.14
306.522	-37.72
306.736	87.21
306.95	44.2
307.164	-13.14
307.379	-0.85
307.593	-2.9
307.807	-13.14
308.021	31.91
308.235	-37.72
308.449	-13.14
308.663	25.77
308.877	-4.95
309.091	15.53
309.305	-41.81
309.519	-37.72
309.733	-27.48
309.947	-15.19
310.161	42.15
310.374	-9.05
310.588	13.48
310.802	9.39
311.016	11.43
311.23	42.15
311.444	-21.33
311.658	-25.43
311.872	36.01
312.085	33.96
312.299	-19.29
312.513	-19.29
312.727	-58.2
312.941	46.25
313.154	19.63
313.368	9.39
313.582	-7
313.796	19.63
314.009	3.24
314.223	5.29
314.437	44.2
314.651	-21.33
314.864	21.67
315.078	5.29
315.292	-0.85
315.505	1.19
315.719	11.43
315.933	33.96
316.146	29.87
316.36	-15.19
316.573	11.43
316.787	-23.38
317.001	31.91
317.214	64.68
317.428	46.25
317.641	7.34
317.855	21.67
318.068	-25.43
318.282	36.01
318.495	97.45
318.709	74.92
318.922	-72.53
319.136	21.67
319.349	38.06
319.563	70.83
319.776	-4.95
319.99	-50
320.203	-4.95
320.417	15.53
320.63	-60.24
320.843	19.63
321.057	46.25
321.27	40.11
321.483	-0.85
321.697	40.11
321.91	-29.52
322.124	-41.81
322.337	-17.24
322.55	-15.19
322.763	44.2
322.977	-19.29
323.19	-37.72
323.403	54.44
323.617	87.21
323.83	13.48
324.043	40.11
324.256	-17.24
324.469	-21.33
324.683	-7
324.896	7.34
325.109	-4.95
325.322	-43.86
325.535	72.87
325.748	23.72
325.962	31.91
326.175	15.53
326.388	31.91
326.601	-9.05
326.814	-0.85
327.027	-72.53
327.24	36.01
327.453	36.01
327.666	48.3
327.879	29.87
328.092	-84.82
328.305	74.92
328.518	50.35
328.731	29.87
328.944	-27.48
329.157	-27.48
329.37	1.19
329.583	13.48
329.796	91.31
330.009	38.06
330.222	68.78
330.435	7.34
330.648	5.29
330.861	-76.63
331.073	-0.85
331.286	36.01
331.499	5.29
331.712	23.72
331.925	-54.1
332.138	-25.43
332.35	-29.52
332.563	-4.95
332.776	-9.05
332.989	85.16
333.202	-2.9
333.414	-39.76
333.627	17.58
333.84	27.82
334.053	50.35
334.265	31.91
334.478	-43.86
334.691	-25.43
334.903	-52.05
335.116	27.82
335.329	-15.19
335.541	68.78
335.754	21.67
335.966	-19.29
336.179	-0.85
336.392	-47.96
336.604	17.58
336.817	-7
337.029	19.63
337.242	7.34
337.454	-45.91
337.667	19.63
337.88	-21.33
338.092	-19.29
338.305	-4.95
338.517	-62.29
338.729	-15.19
338.942	-4.95
339.154	-0.85
339.367	74.92
339.579	7.34
339.792	-0.85
340.004	46.25
340.217	7.34
340.429	-11.09
340.641	44.2
340.854	29.87
341.066	17.58
341.278	-13.14
341.491	-27.48
341.703	5.29
341.915	11.43
342.128	31.91
342.34	48.3
342.552	5.29
342.764	-15.19
342.977	-58.2
343.189	36.01
343.401	19.63
343.613	-43.86
343.826	21.67
344.038	42.15
344.25	76.97
344.462	-0.85
344.674	7.34
344.886	-9.05
345.099	-0.85
345.311	36.01
345.523	42.15
345.735	36.01
345.947	52.39
346.159	-45.91
346.371	-13.14
346.583	-80.72
346.795	50.35
347.007	7.34
347.219	36.01
347.431	-4.95
347.643	33.96
347.855	3.24
348.067	15.53
348.279	87.21
348.491	48.3
348.703	-66.39
348.915	17.58
349.127	17.58
349.339	3.24
349.551	33.96
349.763	38.06
349.975	40.11
350.187	31.91
350.399	-0.85
350.61	11.43
350.822	-9.05
351.034	-64.34
351.246	5.29
351.458	9.39
351.669	-2.9
351.881	31.91
352.093	9.39
352.305	36.01
352.517	7.34
352.728	11.43
352.94	-13.14
353.152	54.44
353.363	15.53
353.575	85.16
353.787	19.63
353.999	-19.29
354.21	103.59
354.422	23.72
354.633	3.24
354.845	54.44
355.057	27.82
355.268	7.34
355.48	40.11
355.692	64.68
355.903	85.16
356.115	23.72
356.326	-7
356.538	31.91
356.749	-27.48
356.961	44.2
357.172	-11.09
357.384	-13.14
357.595	9.39
357.807	48.3
358.018	-11.09
358.23	5.29
358.441	-2.9
358.653	11.43
358.864	13.48
359.075	31.91
359.287	74.92
359.498	-11.09
359.709	33.96
359.921	46.25
360.132	25.77
360.344	3.24
360.555	-29.52
360.766	-4.95
360.977	36.01
361.189	-15.19
361.4	119.98
361.611	-23.38
361.823	60.59
362.034	21.67
362.245	-4.95
362.456	3.24
362.667	-15.19
362.879	40.11
363.09	15.53
363.301	126.12
363.512	1.19
363.723	46.25
363.935	5.29
364.146	68.78
364.357	-2.9
364.568	11.43
364.779	38.06
364.99	-17.24
365.201	17.58
365.412	31.91
365.623	-45.91
365.834	11.43
366.045	3.24
366.256	-25.43
366.467	-45.91
366.678	21.67
366.889	15.53
367.1	21.67
367.311	-19.29
367.522	93.35
367.733	-60.24
367.944	7.34
368.155	21.67
368.366	48.3
368.577	68.78
368.788	7.34
368.999	-117.59
369.209	27.82
369.42	11.43
369.631	-13.14
369.842	50.35
370.053	27.82
370.264	9.39
370.474	46.25
370.685	7.34
370.896	17.58
371.107	25.77
371.317	25.77
371.528	31.91
371.739	52.39
371.95	21.67
372.16	93.35
372.371	48.3
372.582	-2.9
372.792	79.02
373.003	27.82
373.214	19.63
373.424	27.82
373.635	-29.52
373.846	31.91
374.056	1.19
374.267	46.25
374.477	64.68
374.688	105.64
374.898	15.53
375.109	27.82
375.319	17.58
375.53	54.44
375.74	-80.72
375.951	7.34
376.161	44.2
376.372	21.67
376.582	11.43
376.793	83.11
377.003	3.24
377.214	95.4
377.424	-9.05
377.635	87.21
377.845	85.16
378.055	-39.76
378.266	-27.48
378.476	11.43
378.686	9.39
378.897	-21.33
379.107	27.82
379.317	5.29
379.528	-11.09
379.738	87.21
379.948	56.49
380.158	87.21
380.369	40.11
380.579	68.78
380.789	-13.14
380.999	27.82
381.21	5.29
381.42	-45.91
381.63	52.39
381.84	-0.85
382.05	-37.72
382.261	11.43
382.471	40.11
382.681	23.72
382.891	-68.44
383.101	33.96
383.311	29.87
383.521	-11.09
383.731	50.35
383.941	76.97
384.151	19.63
384.361	40.11
384.571	97.45
384.781	-11.09
384.991	21.67
385.201	56.49
385.411	-31.57
385.621	19.63
385.831	21.67
386.041	33.96
386.251	50.35
386.461	-7
386.671	-29.52
386.881	17.58
387.091	-0.85
387.301	-11.09
387.511	21.67
387.72	13.48
387.93	-82.77
388.14	21.67
388.35	-56.15
388.56	-13.14
388.769	9.39
388.979	23.72
389.189	-52.05
389.399	89.26
389.609	17.58
389.818	19.63
390.028	19.63
390.238	19.63
390.447	15.53
390.657	-27.48
390.867	-11.09
391.076	19.63
391.286	38.06
391.496	85.16
391.705	29.87
391.915	68.78
392.125	-2.9
392.334	-39.76
392.544	-2.9
392.753	68.78
392.963	-43.86
393.172	44.2
393.382	9.39
393.591	68.78
393.801	1.19
394.01	38.06
394.22	44.2
394.429	58.54
394.639	23.72
394.848	62.63
395.058	-2.9
395.267	11.43
395.477	31.91
395.686	46.25
395.895	91.31
396.105	-29.52
396.314	48.3
396.524	48.3
396.733	21.67
396.942	9.39
397.152	-2.9
397.361	36.01
397.57	25.77
397.78	38.06
397.989	23.72
398.198	58.54
398.407	15.53
398.617	87.21
398.826	15.53
399.035	9.39
399.244	76.97
399.453	58.54
399.663	5.29
399.872	-7
400.081	48.3
400.29	-4.95
400.499	97.45
400.708	68.78
400.917	62.63
401.127	72.87
401.336	31.91
401.545	40.11
401.754	15.53
401.963	52.39
402.172	36.01
402.381	70.83
402.59	60.59
402.799	36.01
403.008	31.91
403.217	11.43
403.426	-52.05
403.635	42.15
403.844	56.49
404.053	101.55
404.262	-27.48
404.471	76.97
404.68	74.92
404.888	13.48
405.097	5.29
405.306	89.26
405.515	93.35
405.724	101.55
405.933	1.19
406.142	81.07
406.35	162.98
406.559	103.59
406.768	64.68
406.977	103.59
407.185	115.88
407.394	83.11
407.603	142.5
407.812	21.67
408.02	181.42
408.229	52.39
408.438	33.96
408.646	142.5
408.855	87.21
409.064	46.25
409.272	76.97
409.481	89.26
409.69	74.92
409.898	173.22
410.107	152.74
410.315	101.55
410.524	150.7
410.733	132.26
410.941	107.69
411.15	169.13
411.358	140.46
411.567	148.65
411.775	193.7
411.984	195.75
412.192	208.04
412.401	150.7
412.609	195.75
412.818	236.71
413.026	203.94
413.234	150.7
413.443	259.24
413.651	183.46
413.86	265.38
414.068	240.81
414.276	269.48
414.485	263.33
414.693	222.38
414.901	285.86
415.11	238.76
415.318	306.34
415.526	306.34
415.734	269.48
415.943	388.26
416.151	292.01
416.359	277.67
416.567	384.16
416.776	437.41
416.984	412.84
417.192	437.41
417.4	396.45
417.608	330.92
417.817	447.65
418.025	474.28
418.233	486.56
418.441	545.95
418.649	437.41
418.857	513.19
419.065	560.29
419.273	560.29
419.481	523.43
419.689	533.67
419.897	601.25
420.105	677.02
420.313	634.02
420.521	609.44
420.729	715.94
420.937	707.74
421.145	709.79
421.353	765.09
421.561	871.58
421.769	879.77
421.977	814.24
422.185	857.25
422.393	976.03
422.601	1031.32
422.809	885.92
423.017	1027.23
423.224	1086.62
423.432	1092.76
423.64	1031.32
423.848	1117.34
424.056	1092.76
424.263	1166.49
424.471	1113.24
424.679	1156.25
424.887	1223.83
425.094	1295.51
425.302	1354.9
425.51	1377.43
425.718	1432.72
425.925	1449.11
426.133	1543.32
426.341	1586.32
426.548	1614.99
426.756	1692.82
426.964	1705.1
427.171	1782.93
427.379	1832.08
427.586	1856.65
427.794	1942.67
428.001	2075.79
428.209	1979.53
428.417	2016.4
428.624	2264.2
428.832	2219.14
429.039	2178.19
429.247	2180.23
429.454	2337.93
429.662	2473.09
429.869	2370.69
430.076	2528.39
430.284	2450.57
430.491	2532.48
430.699	2788.48
430.906	2729.09
431.114	2722.95
431.321	2874.49
431.528	2823.3
431.736	2901.12
431.943	3300.47
432.15	3249.27
432.358	3193.98
432.565	3386.49
432.772	3368.06
432.979	3484.79
433.187	3554.42
433.394	3593.33
433.601	3861.62
433.808	3759.22
434.016	3748.98
434.223	4033.65
434.43	4332.65
434.637	4088.94
434.844	4516.97
435.052	4527.21
435.259	4396.14
435.466	4510.82
435.673	4496.49
435.88	4633.7
436.087	5043.29
436.294	4977.76
436.501	4942.94
436.708	4881.5
436.915	5102.68
437.122	5567.57
437.329	5393.5
437.537	5686.36
437.743	5661.78
437.95	5577.81
438.157	5942.35
438.364	6081.61
438.571	6114.38
438.778	6235.21
438.985	6802.5
439.192	6575.17
439.399	6630.47
439.606	6562.89
439.813	6843.46
440.02	7343.16
440.227	7187.52
440.433	7183.42
440.64	7316.54
440.847	7248.96
441.054	7562.3
441.261	8012.85
441.467	7849.01
441.674	7982.13
441.881	8348.72
442.088	8182.83
442.294	8064.05
442.501	8418.35
442.708	8567.85
442.914	9042.98
443.121	9444.38
443.328	9126.94
443.534	9788.44
443.741	9497.63
443.948	9188.38
444.154	10075.15
444.361	9970.71
444.568	10146.83
444.774	10087.44
444.981	10234.89
445.187	10546.19
445.394	10884.1
445.6	10744.84
445.807	11727.86
446.013	11375.61
446.22	11389.95
446.426	12217.33
446.633	12123.12
446.839	12545
447.046	12002.29
447.252	13159.39
447.459	12895.21
447.665	12676.07
447.871	13374.43
448.078	13681.63
448.284	13057
448.491	13726.68
448.697	13972.44
448.903	14531.53
449.11	14281.68
449.316	14343.12
449.522	14646.22
449.728	14578.64
449.935	15147.97
450.141	15012.81
450.347	15190.98
450.553	15035.33
450.76	14896.07
450.966	15715.26
451.172	15242.18
451.378	15993.78
451.584	15428.54
451.791	15901.62
451.997	15850.42
452.203	16333.75
452.409	16317.36
452.615	16128.95
452.821	15510.46
453.027	15150.02
453.233	16208.82
453.44	15803.32
453.646	15799.23
453.852	15709.11
454.058	15954.87
454.264	15471.55
454.47	15795.13
454.676	15649.72
454.882	16159.67
455.088	14566.35
455.294	15098.82
455.5	15193.03
455.705	15371.2
455.911	14580.68
456.117	14308.3
456.323	13980.63
456.529	13558.75
456.735	14048.21
456.941	13644.76
457.147	13259.74
457.352	13136.87
457.558	13036.52
457.764	13020.13
457.97	12696.55
458.176	12491.76
458.381	12471.28
458.587	11914.23
458.793	12035.06
458.999	11131.9
459.204	12168.18
459.41	11744.25
459.616	10740.74
459.821	10863.62
460.027	10742.79
460.233	10750.98
460.438	10296.33
460.644	10316.81
460.85	9903.12
461.055	9827.35
461.261	9688.09
461.466	8823.84
461.672	8721.45
461.878	9372.7
462.083	8670.25
462.289	8516.65
462.494	8401.96
462.7	8193.07
462.905	7670.84
463.111	8209.45
463.316	8131.63
463.522	8014.9
463.727	7908.4
463.932	7894.07
464.138	8031.28
464.343	7996.46
464.549	7531.58
464.754	7932.98
464.959	8031.28
465.165	7679.03
465.37	7519.29
465.575	7240.76
465.781	7623.73
465.986	7664.69
466.191	7423.03
466.397	7173.18
466.602	7019.58
466.807	7062.59
467.012	7261.24
467.218	7222.33
467.423	6939.71
467.628	7130.17
467.833	7289.92
468.038	7197.76
468.244	6941.76
468.449	7238.72
468.654	6980.67
468.859	6939.71
469.064	6947.9
469.269	6612.04
469.474	6745.16
469.679	6777.92
469.885	6730.82
470.09	6624.33
470.295	6747.2
470.5	6560.84
470.705	6548.55
470.91	6310.99
471.115	6358.09
471.32	6358.09
471.525	6411.34
471.73	6204.49
471.935	6313.03
472.139	5923.92
472.344	6157.39
472.549	5880.91
472.754	5942.35
472.959	5727.32
473.164	5796.95
473.369	5766.23
473.574	5936.21
473.778	5825.62
473.983	5723.22
474.188	5651.54
474.393	5487.7
474.598	5557.33
474.802	5475.42
475.007	5403.74
475.212	5424.22
475.417	5170.27
475.621	5323.87
475.826	5096.54
476.031	5016.67
476.235	4881.5
476.44	5147.74
476.645	5086.3
476.849	4969.57
477.054	4996.19
477.259	4863.07
477.463	4969.57
477.668	4832.35
477.872	4666.47
478.077	4723.81
478.282	4594.79
478.486	4783.2
478.691	4596.84
478.895	4504.68
479.1	4553.83
479.304	4658.28
479.509	4443.24
479.713	4519.01
479.918	4279.4
480.122	4445.29
480.326	4457.57
480.531	4539.49
480.735	4301.93
480.94	4246.63
481.144	4506.73
481.348	4375.66
481.553	4287.59
481.757	4226.15
481.961	4265.07
482.166	4293.74
482.37	4346.98
482.574	4144.24
482.778	4185.19
482.983	4320.36
483.187	4242.54
483.391	4283.5
483.595	4254.83
483.8	4217.96
484.004	4297.83
484.208	4248.68
484.412	4369.51
484.616	4158.57
484.821	4224.11
485.025	4389.99
485.229	4342.89
485.433	4260.97
485.637	4217.96
485.841	4303.98
486.045	4267.11
486.249	4279.4
486.453	4303.98
486.657	4248.68
486.861	4127.85
487.065	4195.43
487.269	4279.4
487.473	4086.89
487.677	4275.31
487.881	4316.26
488.085	4195.43
488.289	4471.91
488.493	4367.46
488.697	4355.18
488.901	4242.54
489.105	4168.81
489.309	4486.25
489.512	4283.5
489.716	4287.59
489.92	4295.79
490.124	4320.36
490.328	4324.46
490.531	4506.73
490.735	4418.66
490.939	4420.71
491.143	4443.24
491.346	4330.6
491.55	4445.29
491.754	4422.76
491.958	4482.15
492.161	4492.39
492.365	4471.91
492.569	4445.29
492.772	4500.58
492.976	4785.25
493.18	4619.36
493.383	4858.98
493.587	4652.13
493.79	4656.23
493.994	4650.08
494.197	4746.34
494.401	4799.59
494.605	4865.12
494.808	4803.68
495.012	4920.42
495.215	4904.03
495.419	4934.75
495.622	4953.18
495.825	5037.15
496.029	5061.73
496.232	5272.67
496.436	5180.51
496.639	5272.67
496.843	5284.95
497.046	5362.78
497.249	5553.24
497.453	5524.57
497.656	5614.68
497.859	5522.52
498.063	5565.53
498.266	5659.73
498.469	5829.71
498.673	5704.79
498.876	5774.42
499.079	6048.85
499.282	6001.74
499.485	6042.7
499.689	6063.18
499.892	6034.51
500.095	6177.87
500.298	6304.84
500.501	6272.07
500.705	6472.78
500.908	6507.59
501.111	6575.17
501.314	6659.14
501.517	6749.25
501.72	6941.76
501.923	6874.18
502.126	6980.67
502.329	7152.7
502.532	7072.83
502.735	7255.1
502.938	7306.3
503.141	7468.09
503.344	7633.97
503.547	7676.98
503.75	7818.29
503.953	7789.62
504.156	7836.72
504.359	7947.31
504.562	8018.99
504.765	8164.4
504.968	8193.07
505.17	8320.04
505.373	8350.76
505.576	8573.99
505.779	8801.32
505.982	8748.07
506.185	8672.29
506.387	9012.26
506.59	9055.26
506.793	9307.16
506.996	9215.01
507.198	9479.19
507.401	9501.72
507.604	9450.52
507.807	9620.5
508.009	9782.29
508.212	9993.23
508.415	9993.23
508.617	10189.84
508.82	10118.16
509.022	10372.11
509.225	10535.95
509.428	10591.24
509.63	10607.62
509.833	10837
510.035	10839.05
510.238	11002.88
510.44	11195.39
510.643	11176.96
510.845	11316.22
511.048	11344.89
511.25	11799.54
511.453	11740.15
511.655	12028.92
511.858	12053.49
512.06	12194.8
512.262	12309.49
512.465	12188.66
512.667	12508.14
512.87	12356.59
513.072	12913.64
513.274	12837.86
513.477	13061.09
513.679	12934.12
513.881	13183.97
514.084	13433.82
514.286	13437.92
514.488	13626.33
514.69	14134.23
514.893	13896.66
515.095	14138.32
515.297	14386.13
515.499	14396.37
515.701	14459.85
515.904	14631.88
516.106	14924.74
516.308	14832.58
516.51	15174.6
516.712	15383.49
516.914	15455.17
517.116	15496.13
517.318	15578.04
517.52	15870.9
517.722	15772.6
517.925	15973.3
518.127	16442.29
518.329	16384.94
518.531	16350.13
518.733	16583.6
518.935	16786.35
519.136	16710.57
519.338	17095.59
519.54	17107.88
519.742	17511.33
519.944	17548.19
520.146	17804.19
520.348	17759.13
520.55	17957.78
520.752	18019.22
520.954	18199.44
521.155	18324.37
521.357	18756.49
521.559	18561.94
521.761	18914.19
521.963	18946.95
522.164	18844.56
522.366	19235.72
522.568	19282.82
522.77	19590.02
522.971	19854.2
523.173	19630.98
523.375	19684.22
523.576	19958.65
523.778	19798.91
523.98	20411.25
524.181	20278.13
524.383	20611.95
524.584	20284.28
524.786	20462.45
524.988	20769.65
525.189	21070.7
525.391	21109.61
525.592	21150.57
525.794	21293.93
525.995	21316.45
526.197	21349.22
526.398	21484.39
526.6	21724
526.801	21797.73
527.003	21717.86
527.204	21814.11
527.406	21936.99
527.607	22043.48
527.808	22145.88
528.01	21957.47
528.211	21803.87
528.412	22567.76
528.614	22293.33
528.815	22287.19
529.016	22821.71
529.218	22285.14
529.419	22360.92
529.62	22477.65
529.822	22604.63
530.023	22651.73
530.224	22598.48
530.425	22704.98
530.626	22541.14
530.828	22643.54
531.029	22958.92
531.23	22580.05
531.431	22629.2
531.632	23130.95
531.833	23438.15
532.035	22813.52
532.236	22879.05
532.437	22924.11
532.638	23108.43
532.839	23305.03
533.04	23262.02
533.241	22678.35
533.442	23292.74
533.643	23290.7
533.844	23155.53
534.045	23147.34
534.246	22975.31
534.447	23253.83
534.648	23221.06
534.849	23087.95
535.05	23186.25
535.251	23452.48
535.451	23321.41
535.652	23421.77
535.853	23325.51
536.054	23415.62
536.255	23389
536.456	23282.5
536.657	23694.15
536.857	23583.55
537.058	23073.61
537.259	23569.22
537.46	23634.75
537.66	23116.62
537.861	23290.7
538.062	23497.54
538.263	23511.88
538.463	23128.91
538.664	23333.7
538.865	23356.23
539.065	23411.53
539.266	23243.59
539.466	23487.3
539.667	23120.71
539.868	23849.79
540.068	23446.34
540.269	23190.34
540.469	23515.97
540.67	22928.2
540.87	23202.63
541.071	23454.53
541.271	23397.19
541.472	23669.57
541.672	23460.68
541.873	23335.75
542.073	22967.12
542.274	23585.6
542.474	23221.06
542.675	23337.8
542.875	23415.62
543.075	23540.55
543.276	23251.78
543.476	23460.68
543.676	23100.23
543.877	23569.22
544.077	23425.86
544.277	23358.28
544.478	23325.51
544.678	23253.83
544.878	23407.43
545.078	23321.41
545.279	23202.63
545.479	23376.71
545.679	23249.74
545.879	23259.98
546.079	23333.7
546.28	23206.73
546.48	22858.57
546.68	23210.82
546.88	23270.22
547.08	23399.24
547.28	23247.69
547.48	23024.46
547.68	23366.47
547.88	23188.3
548.081	23313.22
548.281	23032.65
548.481	23135.05
548.681	23143.24
548.881	23368.52
549.081	23200.58
549.28	23034.7
549.48	23386.95
549.68	23526.21
549.88	23470.92
550.08	22911.82
550.28	23423.81
550.48	23083.85
550.68	23380.81
550.88	23456.58
551.08	23190.34
551.279	23114.57
551.479	23100.23
551.679	23100.23
551.879	23018.32
552.079	23176.01
552.278	23075.66
552.478	23253.83
552.678	22924.11
552.878	23339.85
553.077	23186.25
553.277	22856.53
553.477	23192.39
553.676	22932.3
553.876	23014.22
554.076	22930.25
554.275	23077.71
554.475	22743.89
554.674	22866.77
554.874	23014.22
555.074	22778.7
555.273	23038.8
555.473	23389
555.672	22917.96
555.872	22621.01
556.071	22836.05
556.271	22842.19
556.47	22838.09
556.67	22862.67
556.869	22479.7
557.068	23077.71
557.268	22780.75
557.467	22608.72
557.667	22844.24
557.866	22580.05
558.065	22840.14
558.265	22438.74
558.464	22473.56
558.663	22797.13
558.863	22369.11
559.062	22643.54
559.261	22227.8
559.461	22528.85
559.66	22082.39
559.859	22281.05
560.058	22119.26
560.258	22414.16
560.457	22223.7
560.656	22311.77
560.855	22080.35
561.054	22113.11
561.253	22111.07
561.453	22074.2
561.652	22496.08
561.851	22131.54
562.05	22178.65
562.249	21859.17
562.448	22238.04
562.647	22102.87
562.846	21773.15
563.045	21812.06
563.244	21707.62
563.443	22049.63
563.642	21818.21
563.841	21822.3
564.04	21744.48
564.239	21930.84
564.438	21748.57
564.637	21494.63
564.836	21820.25
565.035	21361.51
565.234	21427.04
565.432	21463.91
565.631	21447.52
565.83	21482.34
566.029	21300.07
566.228	21461.86
566.427	21332.84
566.625	21033.83
566.824	20933.48
567.023	21406.56
567.222	20695.92
567.42	21314.41
567.619	20927.34
567.818	21244.77
568.016	20861.8
568.215	20982.63
568.414	21027.69
568.612	21228.39
568.811	20843.37
569.01	20771.69
569.208	20654.96
569.407	20996.97
569.605	20648.82
569.804	20892.52
570.002	20556.66
570.201	20523.89
570.4	20319.09
570.598	20222.84
570.797	20386.68
570.995	20388.72
571.193	20061.05
571.392	20163.45
571.59	20169.59
571.789	20253.56
571.987	20206.45
572.186	20026.23
572.384	19989.37
572.582	20048.76
572.781	20167.54
572.979	19760
573.177	19751.81
573.376	19821.44
573.574	19590.02
573.772	19741.57
573.971	19721.09
574.169	19456.9
574.367	19391.36
574.565	19706.75
574.763	19399.55
574.962	19682.17
575.16	19442.56
575.358	19213.19
575.556	19114.89
575.754	19209.09
575.952	18971.53
576.151	19297.16
576.349	18844.56
576.547	18643.85
576.745	18887.56
576.943	19084.17
577.141	18903.95
577.339	18936.71
577.537	18865.03
577.735	18762.64
577.933	18641.81
578.131	18721.68
578.329	18617.23
578.527	18576.27
578.725	18490.26
578.923	18631.57
579.121	18357.14
579.319	18461.58
579.516	18383.76
579.714	18439.06
579.912	18168.73
580.11	18178.97
580.308	18394
580.506	18203.54
580.704	17902.49
580.901	18138.01
581.099	18097.05
581.297	17666.97
581.495	17718.17
581.692	18170.77
581.89	17937.3
582.088	17673.12
582.285	17810.33
582.483	17693.6
582.681	17646.49
582.878	17470.37
583.076	17286.05
583.274	17640.35
583.471	17290.15
583.669	17421.22
583.866	17308.58
584.064	17492.9
584.262	16884.65
584.459	17134.5
584.657	17075.11
584.854	17318.82
585.052	17114.02
585.249	16993.19
585.447	17087.4
585.644	16784.3
585.841	16831.4
586.039	17234.85
586.236	16688.04
586.434	16444.34
586.631	16624.56
586.828	16894.89
587.026	16343.99
587.223	16546.73
587.42	16462.77
587.618	16673.71
587.815	16374.7
588.012	16286.64
588.21	16559.02
588.407	16315.31
588.604	16319.41
588.801	16186.29
588.999	16069.56
589.196	16042.93
589.393	15944.63
589.59	15924.15
589.787	16014.26
589.984	15743.93
590.182	15891.38
590.379	16085.94
590.576	15905.72
590.773	15944.63
590.97	15633.34
591.167	15666.11
591.364	15700.92
591.561	15782.84
591.758	15631.29
591.955	15219.65
592.152	15371.2
592.349	15514.56
592.546	15356.86
592.743	15391.68
592.94	14867.4
593.137	15193.03
593.334	15199.17
593.531	15014.85
593.727	15262.66
593.924	15207.36
594.121	14820.3
594.318	15031.24
594.515	14719.95
594.712	15074.24
594.908	14922.69
595.105	14906.31
595.302	14621.64
595.499	14838.73
595.696	14791.62
595.892	14601.16
596.089	14676.94
596.286	14429.13
596.482	14519.25
596.679	14443.47
596.876	14466
597.072	14543.82
597.269	14486.48
597.466	14357.46
597.662	14183.38
597.859	14171.09
598.055	14269.39
598.252	14142.42
598.448	14095.32
598.645	14128.08
598.841	13898.71
599.038	13929.43
599.234	14003.16
599.431	13947.86
599.627	13925.33
599.824	13937.62
600.02	13716.44
600.217	13728.73
600.413	13722.59
600.609	13638.62
600.806	13695.96
601.002	13743.06
601.198	13642.71
601.395	13411.29
601.591	13210.59
601.787	13407.2
601.984	13386.72
602.18	13360.09
602.376	13126.63
602.572	13329.38
602.769	13323.23
602.965	13136.87
603.161	13124.58
603.357	13059.04
603.553	12915.69
603.75	13116.39
603.946	12989.41
604.142	13052.9
604.338	12620.78
604.534	12913.64
604.73	12757.99
604.926	12614.63
605.122	12796.9
605.318	12674.03
605.514	12479.47
605.71	12887.01
605.906	12426.22
606.102	12573.67
606.298	12602.35
606.494	12694.5
606.69	12551.15
606.886	12389.36
607.082	12274.67
607.278	12585.96
607.474	12221.42
607.67	12289.01
607.866	12209.14
608.062	12327.92
608.257	12172.27
608.453	12252.14
608.649	12418.03
608.845	12209.14
609.041	12157.94
609.236	12133.36
609.432	12139.51
609.628	11865.08
609.824	11906.04
610.019	12078.07
610.215	11801.59
610.411	12059.63
610.606	11912.18
610.802	11842.55
610.998	11895.8
611.193	11815.93
611.389	11815.93
611.584	11754.49
611.78	11758.58
611.976	11766.78
612.171	11617.27
612.367	11697.14
612.562	11619.32
612.758	11418.62
612.953	11670.52
613.149	11553.79
613.344	11299.84
613.539	11754.49
613.735	11510.78
613.93	11523.07
614.126	11318.27
614.321	11496.44
614.517	11404.28
614.712	11463.68
614.907	11543.55
615.103	11287.55
615.298	11346.94
615.493	11406.33
615.688	11152.38
615.884	11398.14
616.079	11150.34
616.274	11426.81
616.47	11170.82
616.665	11092.99
616.86	11234.3
617.055	11140.1
617.25	10982.4
617.445	11080.71
617.641	11029.51
617.836	11213.82
618.031	10882.05
618.226	10914.82
618.421	10935.3
618.616	11068.42
618.811	10798.09
619.006	10935.3
619.201	10546.19
619.396	10748.93
619.591	10566.67
619.786	10507.27
619.981	10368.01
620.176	10767.37
620.371	10296.33
620.566	10523.66
620.761	10282
620.956	10517.51
621.151	10058.77
621.346	10218.51
621.541	10124.3
621.735	10333.2
621.93	9823.25
622.125	9968.66
622.32	9917.46
622.515	9802.77
622.709	9784.34
622.904	9741.33
623.099	9800.73
623.294	9919.51
623.488	9710.61
623.683	9761.81
623.878	9614.36
624.072	9604.12
624.267	9475.1
624.462	9618.46
624.656	9221.15
624.851	9354.27
625.046	9425.95
625.24	9067.55
625.435	9190.43
625.629	9176.09
625.824	9243.68
626.018	9071.65
626.213	8737.83
626.407	8967.2
626.602	8741.93
626.796	8887.33
626.991	8803.36
627.185	8680.49
627.38	8782.88
627.574	8778.79
627.768	8707.11
627.963	8508.46
628.157	8623.14
628.352	8475.69
628.546	8451.11
628.74	8655.91
628.935	8377.39
629.129	8338.48
629.323	8451.11
629.517	8215.6
629.712	8180.78
629.906	8238.12
630.1	8184.88
630.294	8113.2
630.489	8012.85
630.683	8164.4
630.877	7908.4
631.071	8000.56
631.265	8016.94
631.459	7783.48
631.653	7842.87
631.848	7763
632.042	7769.14
632.236	7709.75
632.43	7588.92
632.624	7601.21
632.818	7515.19
633.012	7564.34
633.206	7558.2
633.4	7396.41
633.594	7193.66
633.788	7431.23
633.982	7418.94
634.176	7261.24
634.369	7199.8
634.563	7265.34
634.757	7179.33
634.951	7232.57
635.145	7201.85
635.339	7228.48
635.533	6865.99
635.726	7001.15
635.92	6982.72
636.114	6935.62
636.308	6839.36
636.501	6779.97
636.695	6980.67
636.889	6753.35
637.083	6902.85
637.276	6566.98
637.47	6769.73
637.664	6571.08
637.857	6790.21
638.051	6519.88
638.244	6624.33
638.438	6632.52
638.632	6544.45
638.825	6304.84
639.019	6478.92
639.212	6233.16
639.406	6310.99
639.599	6147.15
639.793	6337.61
639.986	6085.71
640.18	6290.51
640.373	6116.43
640.567	5966.93
640.76	6079.57
640.954	6009.93
641.147	5921.87
641.34	5860.43
641.534	6132.81
641.727	5921.87
641.92	5948.5
642.114	5684.31
642.307	5755.99
642.5	5866.58
642.694	5614.68
642.887	5817.43
643.08	5753.94
643.273	5758.03
643.467	5655.64
643.66	5598.29
643.853	5559.38
644.046	5608.53
644.239	5520.47
644.432	5557.33
644.626	5342.3
644.819	5282.91
645.012	5282.91
645.205	5377.11
645.398	5411.93
645.591	5241.95
645.784	5299.29
645.977	5295.19
646.17	5381.21
646.363	5176.41
646.556	5241.95
646.749	5209.18
646.942	5004.38
647.135	5192.8
647.328	5121.12
647.521	4901.98
647.714	4815.97
647.907	5137.5
648.099	4998.24
648.292	5082.21
648.485	4838.5
648.678	4772.96
648.871	4709.47
649.064	4734.05
649.256	4803.68
649.449	4795.49
649.642	4670.56
649.835	4676.71
650.027	4660.32
650.22	4523.11
650.413	4756.58
650.605	4574.31
650.798	4613.22
650.991	4537.45
651.183	4420.71
651.376	4351.08
651.568	4445.29
651.761	4312.17
651.954	4213.87
652.146	4387.94
652.339	4340.84
652.531	4398.18
652.724	4097.13
652.916	4279.4
653.109	4189.29
653.301	4142.19
653.494	4209.77
653.686	4193.39
653.879	4238.44
654.071	4136.04
654.263	4117.61
654.456	4156.52
654.648	4025.45
654.84	3912.81
655.033	4082.8
655.225	4066.41
655.417	3968.11
655.61	3974.25
655.802	3955.82
655.994	4011.12
656.186	3834.99
656.379	3947.63
656.571	3863.66
656.763	3861.62
656.955	3804.27
657.148	3882.1
657.34	3779.7
657.532	3728.5
657.724	3824.75
657.916	3699.83
658.108	3652.72
658.3	3667.06
658.492	3566.71
658.684	3591.28
658.876	3695.73
659.068	3601.52
659.26	3570.8
659.452	3576.95
659.644	3519.6
659.836	3523.7
660.028	3374.2
660.22	3400.82
660.412	3458.17
660.604	3550.32
660.796	3368.06
660.988	3478.65
661.18	3425.4
661.372	3275.9
661.563	3290.23
661.755	3282.04
661.947	3331.19
662.139	3118.2
662.331	3284.09
662.522	3312.76
662.714	3349.62
662.906	3193.98
663.097	3220.6
663.289	3050.62
663.481	3200.12
663.673	3112.06
663.864	3091.58
664.056	3107.96
664.247	3089.53
664.439	3040.38
664.631	2985.09
664.822	2862.21
665.014	3077.24
665.205	2978.94
665.397	3032.19
665.588	2991.23
665.78	2905.21
665.971	2931.84
666.163	2993.28
666.354	2794.62
666.546	2886.78
666.737	2923.65
666.929	2888.83
667.12	2821.25
667.311	2862.21
667.503	2772.1
667.694	2866.3
667.885	2763.9
668.077	2659.46
668.268	2749.57
668.459	2745.47
668.651	2790.53
668.842	2679.94
669.033	2622.59
669.224	2710.66
669.416	2663.55
669.607	2661.51
669.798	2770.05
669.989	2667.65
670.18	2591.88
670.371	2712.71
670.563	2608.26
670.754	2698.37
670.945	2534.53
671.136	2575.49
671.327	2581.64
671.518	2440.33
671.709	2516.1
671.9	2573.44
672.091	2491.52
672.282	2389.13
672.473	2378.89
672.664	2425.99
672.855	2321.54
673.046	2481.28
673.237	2425.99
673.428	2505.86
673.619	2524.29
673.809	2370.69
674	2456.71
674.191	2413.7
674.382	2335.88
674.573	2473.09
674.764	2380.93
674.954	2442.37
675.145	2329.74
675.336	2350.21
675.527	2258.06
675.717	2276.49
675.908	2299.02
676.099	2354.31
676.289	2376.84
676.48	2282.63
676.671	2360.45
676.861	2303.11
677.052	2239.62
677.243	2167.95
677.433	2208.9
677.624	2161.8
677.814	2305.16
678.005	2362.5
678.195	2182.28
678.386	2243.72
678.576	2165.9
678.767	2135.18
678.957	2135.18
679.148	2124.94
679.338	2153.61
679.529	2219.14
679.719	2118.79
679.909	2249.86
680.1	2296.97
680.29	2253.96
680.481	2180.23
680.671	2223.24
680.861	2079.88
681.052	2083.98
681.242	2104.46
681.432	2126.99
681.622	2149.51
681.813	2174.09
682.003	2196.62
682.193	2126.99
682.383	2063.5
682.573	2124.94
682.764	2133.13
682.954	2194.57
683.144	2081.93
683.334	2210.95
683.524	2063.5
683.714	2067.6
683.904	2020.49
684.094	2075.79
684.284	2047.12
684.474	2169.99
684.664	2077.83
684.854	1946.76
685.044	2055.31
685.234	2131.08
685.424	2180.23
685.614	2002.06
685.804	2026.64
685.994	2038.92
686.184	2118.79
686.374	2002.06
686.564	1938.57
686.753	1961.1
686.943	2053.26
687.133	1965.2
687.323	1944.72
687.513	1975.44
687.702	1967.24
687.892	1963.15
688.082	1930.38
688.272	2061.45
688.461	1985.68
688.651	2002.06
688.841	1881.23
689.03	2000.01
689.22	1971.34
689.41	2004.11
689.599	1954.96
689.789	1848.46
689.979	1873.04
690.168	1883.28
690.358	1940.62
690.547	1934.48
690.737	1948.81
690.926	1914
691.116	1895.57
691.305	1883.28
691.495	1881.23
691.684	1868.94
691.874	1934.48
692.063	1914
692.252	1864.85
692.442	1926.29
692.631	1817.74
692.82	1795.22
693.01	1868.94
693.199	1926.29
693.388	1848.46
693.578	1684.62
693.767	1848.46
693.956	1762.45
694.146	1858.7
694.335	1776.78
694.524	1793.17
694.713	1860.75
694.902	1883.28
695.092	1809.55
695.281	1723.54
695.47	1864.85
695.659	1842.32
695.848	1834.13
696.037	1744.02
696.226	1715.34
696.415	1801.36
696.604	1733.78
696.793	1741.97
696.982	1764.5
697.171	1692.82
697.36	1754.26
697.549	1744.02
697.738	1707.15
697.927	1649.81
698.116	1701.01
698.305	1688.72
698.494	1821.84
698.683	1713.3
698.872	1727.63
699.061	1698.96
699.25	1649.81
699.438	1719.44
699.627	1723.54
699.816	1633.43
700.005	1549.46
700.193	1678.48
700.382	1678.48
700.571	1610.9
700.76	1719.44
700.948	1731.73
701.137	1752.21
701.326	1733.78
701.514	1639.57
701.703	1721.49
701.892	1696.91
702.08	1637.52
702.269	1733.78
702.457	1658
702.646	1633.43
702.834	1578.13
703.023	1664.15
703.212	1645.71
703.4	1614.99
703.589	1645.71
703.777	1612.95
703.965	1600.66
704.154	1619.09
704.342	1559.7
704.531	1619.09
704.719	1598.61
704.907	1627.28
705.096	1498.26
705.284	1442.96
705.472	1584.27
705.661	1606.8
705.849	1565.84
706.037	1727.63
706.226	1518.74
706.414	1537.17
706.602	1549.46
706.79	1600.66
706.979	1481.88
707.167	1629.33
707.355	1545.36
707.543	1524.88
707.731	1668.24
707.919	1580.18
708.107	1465.49
708.296	1565.84
708.484	1588.37
708.672	1559.7
708.86	1479.83
709.048	1535.12
709.236	1522.84
709.424	1445.01
709.612	1512.6
709.8	1479.83
709.988	1494.16
710.176	1578.13
710.364	1440.92
710.551	1445.01
710.739	1483.92
710.927	1461.4
711.115	1445.01
711.303	1428.63
711.491	1528.98
711.679	1424.53
711.866	1432.72
712.054	1522.84
712.242	1440.92
712.43	1428.63
712.617	1428.63
712.805	1451.16
712.993	1406.1
713.181	1418.39
713.368	1449.11
713.556	1393.81
713.744	1426.58
713.931	1328.28
714.119	1432.72
714.306	1453.2
714.494	1395.86
714.682	1285.27
714.869	1359
715.057	1373.33
715.244	1297.56
715.432	1389.72
715.619	1354.9
715.807	1350.81
715.994	1412.25
716.182	1354.9
716.369	1340.57
716.556	1338.52
716.744	1301.65
716.931	1334.42
717.119	1320.09
717.306	1303.7
717.493	1334.42
717.681	1320.09
717.868	1356.95
718.055	1297.56
718.242	1315.99
718.43	1371.29
718.617	1395.86
718.804	1385.62
718.991	1311.89
719.179	1320.09
719.366	1195.16
719.553	1285.27
719.74	1313.94
719.927	1313.94
720.114	1328.28
720.301	1195.16
720.488	1176.73
720.676	1301.65
720.863	1256.6
721.05	1305.75
721.237	1275.03
721.424	1272.98
721.611	1264.79
721.798	1299.61
721.985	1199.26
722.172	1182.87
722.358	1260.7
722.545	1184.92
722.732	1264.79
722.919	1250.46
723.106	1184.92
723.293	1227.93
723.48	1176.73
723.667	1221.78
723.853	1189.02
724.04	1113.24
724.227	1156.25
724.414	1178.78
724.6	1141.91
724.787	1189.02
724.974	1236.12
725.161	1131.67
725.347	1164.44
725.534	1182.87
725.72	1182.87
725.907	1223.83
726.094	1248.41
726.28	1221.78
726.467	1148.06
726.653	1240.22
726.84	1152.15
727.027	1211.54
727.213	1268.89
727.4	1250.46
727.586	1191.06
727.773	1262.74
727.959	1195.16
728.145	1064.09
728.332	1209.5
728.518	1242.26
728.705	1129.63
728.891	1168.54
729.077	1117.34
729.264	1184.92
729.45	1066.14
729.636	1127.58
729.823	1141.91
730.009	1182.87
730.195	1154.2
730.382	1109.15
730.568	1272.98
730.754	1109.15
730.94	1164.44
731.126	1191.06
731.313	1092.76
731.499	1096.86
731.685	1178.78
731.871	1146.01
732.057	1146.01
732.243	1150.11
732.429	1119.39
732.615	1066.14
732.801	1139.87
732.987	1158.3
733.173	1094.81
733.359	1045.66
733.545	1100.95
733.731	1012.89
733.917	986.27
734.103	1027.23
734.289	1133.72
734.475	1143.96
734.661	1043.61
734.847	1197.21
735.033	1043.61
735.219	1184.92
735.404	1057.95
735.59	1078.43
735.776	1055.9
735.962	1059.99
736.148	1096.86
736.333	1066.14
736.519	998.56
736.705	1021.08
736.89	1053.85
737.076	1039.51
737.262	1053.85
737.447	1100.95
737.633	1045.66
737.819	1037.47
738.004	1086.62
738.19	1041.56
738.375	1023.13
738.561	1092.76
738.747	937.12
738.932	1000.6
739.118	1010.84
739.303	1043.61
739.489	1115.29
739.674	1076.38
739.859	1006.75
740.045	1064.09
740.23	1047.71
740.416	939.16
740.601	1080.47
740.786	963.74
740.972	867.49
741.157	994.46
741.342	998.56
741.528	1045.66
741.713	1014.94
741.898	1027.23
742.084	1010.84
742.269	990.36
742.454	959.64
742.639	937.12
742.824	945.31
743.01	928.92
743.195	992.41
743.38	896.16
743.565	984.22
743.75	994.46
743.935	906.4
744.12	1010.84
744.305	900.25
744.49	926.88
744.675	971.93
744.86	869.53
745.045	877.73
745.23	963.74
745.415	881.82
745.6	937.12
745.785	961.69
745.97	801.95
746.155	906.4
746.34	922.78
746.525	849.05
746.71	904.35
746.895	918.68
747.079	885.92
747.264	765.09
747.449	953.5
747.634	898.2
747.819	945.31
748.003	832.67
748.188	859.29
748.373	855.2
748.557	834.72
748.742	849.05
748.927	791.71
749.111	879.77
749.296	832.67
749.481	799.9
749.665	785.57
749.85	758.94
750.034	740.51
750.219	738.46
750.404	756.9
750.588	740.51
750.773	783.52
750.957	746.66
751.141	699.55
751.326	744.61
751.51	681.12
751.695	740.51
751.879	797.85
752.064	746.66
752.248	689.31
752.432	695.46
752.617	726.18
752.801	679.07
752.985	744.61
753.17	777.37
753.354	658.59
753.538	720.03
753.722	760.99
753.907	738.46
754.091	609.44
754.275	677.02
754.459	683.17
754.643	705.7
754.828	599.2
755.012	668.83
755.196	636.06
755.38	681.12
755.564	738.46
755.748	711.84
755.932	715.94
756.116	638.11
756.3	591.01
756.484	683.17
756.668	640.16
756.852	552.1
757.036	638.11
757.22	502.95
757.404	681.12
757.588	658.59
757.772	539.81
757.956	591.01
758.14	591.01
758.323	548
758.507	548
758.691	668.83
758.875	515.23
759.059	560.29
759.242	576.67
759.426	593.06
759.61	599.2
759.794	496.8
759.977	541.86
760.161	601.25
760.345	623.78
760.528	535.71
760.712	580.77
760.895	560.29
761.079	490.66
761.263	482.47
761.446	439.46
761.63	488.61
761.813	611.49
761.997	482.47
762.18	588.96
762.364	492.71
762.547	423.08
762.731	511.14
762.914	507.04
763.098	474.28
763.281	472.23
763.464	593.06
763.648	562.34
763.831	466.08
764.015	558.24
764.198	533.67
764.381	437.41
764.564	435.36
764.748	490.66
764.931	613.54
765.114	494.76
765.297	459.94
765.481	447.65
765.664	562.34
765.847	490.66
766.03	466.08
766.213	439.46
766.397	470.18
766.58	457.89
766.763	556.19
766.946	380.07
767.129	504.99
767.312	507.04
767.495	486.56
767.678	433.32
767.861	488.61
768.044	439.46
768.227	488.61
768.41	427.17
768.593	478.37
768.776	500.9
768.959	496.8
769.142	423.08
769.324	504.99
769.507	468.13
769.69	408.74
769.873	502.95
770.056	474.28
770.239	517.28
770.421	423.08
770.604	478.37
770.787	412.84
770.97	484.52
771.152	394.4
771.335	427.17
771.518	457.89
771.7	398.5
771.883	418.98
772.066	328.87
772.248	439.46
772.431	394.4
772.613	380.07
772.796	398.5
772.978	386.21
773.161	392.36
773.343	453.8
773.526	384.16
773.708	427.17
773.891	380.07
774.073	396.45
774.256	343.21
774.438	363.69
774.621	355.49
774.803	355.49
774.985	363.69
775.168	451.75
775.35	343.21
775.532	404.64
775.715	259.24
775.897	410.79
776.079	330.92
776.261	365.73
776.444	275.62
776.626	427.17
776.808	306.34
776.99	261.29
777.173	312.49
777.355	369.83
777.537	314.53
777.719	343.21
777.901	300.2
778.083	267.43
778.265	285.86
778.447	294.05
778.629	332.97
778.811	347.3
778.993	267.43
779.175	339.11
779.357	271.53
779.539	322.73
779.721	312.49
779.903	337.06
780.085	249
780.267	167.08
780.449	351.4
780.631	324.77
780.812	240.81
780.994	201.9
781.176	269.48
781.358	289.96
781.54	318.63
781.721	265.38
781.903	275.62
782.085	269.48
782.267	308.39
782.448	273.57
782.63	242.85
782.812	261.29
782.993	283.81
783.175	222.38
783.357	277.67
783.538	302.25
783.72	205.99
783.901	285.86
784.083	255.14
784.264	212.14
784.446	228.52
784.627	181.42
784.809	242.85
784.99	220.33
785.172	253.09
785.353	255.14
785.535	261.29
785.716	191.66
785.897	203.94
786.079	232.62
786.26	179.37
786.441	220.33
786.623	195.75
786.804	251.05
786.985	251.05
787.167	171.18
787.348	183.46
787.529	216.23
787.71	232.62
787.891	228.52
788.073	201.9
788.254	210.09
788.435	253.09
788.616	244.9
788.797	195.75
788.978	201.9
789.159	144.55
789.34	228.52
789.522	136.36
789.703	224.42
789.884	169.13
790.065	230.57
790.246	191.66
790.427	210.09
790.607	257.19
790.788	187.56
790.969	36.01
791.15	136.36
791.331	152.74
791.512	193.7
791.693	144.55
791.874	140.46
792.054	203.94
792.235	158.89
792.416	117.93
792.597	212.14
792.778	126.12
792.958	119.98
793.139	152.74
793.32	150.7
793.5	232.62
793.681	122.02
793.862	119.98
794.042	154.79
794.223	128.17
794.404	185.51
794.584	97.45
794.765	111.78
794.945	117.93
795.126	171.18
795.306	158.89
795.487	150.7
795.667	142.5
795.848	89.26
796.028	58.54
796.209	117.93
796.389	152.74
796.57	181.42
796.75	97.45
796.93	85.16
797.111	138.41
797.291	191.66
797.471	142.5
797.652	62.63
797.832	156.84
798.012	62.63
798.192	93.35
798.373	165.03
798.553	111.78
798.733	169.13
798.913	105.64
799.093	93.35
799.274	91.31
799.454	83.11
799.634	117.93
799.814	128.17
799.994	70.83
800.174	216.23
800.354	148.65
800.534	128.17
800.714	146.6
800.894	109.74
801.074	79.02
801.254	109.74
801.434	103.59
801.614	48.3
801.794	99.5
801.974	384.16
802.154	107.69
802.334	136.36
802.514	148.65
802.693	97.45
802.873	83.11
803.053	107.69
803.233	140.46
803.413	115.88
803.592	103.59
803.772	60.59
803.952	68.78
804.131	142.5
804.311	50.35
804.491	109.74
804.67	62.63
804.85	130.22
805.03	107.69
805.209	117.93
805.389	97.45
805.568	97.45
805.748	85.16
805.928	105.64
806.107	146.6
806.287	68.78
806.466	101.55
806.646	79.02
806.825	99.5
807.004	62.63
807.184	95.4
807.363	111.78
807.543	66.73
807.722	81.07
807.901	62.63
808.081	85.16
808.26	64.68
808.439	93.35
808.619	134.31
808.798	134.31
808.977	66.73
809.156	52.39
809.336	142.5
809.515	62.63
809.694	60.59
809.873	95.4
810.052	124.07
810.231	66.73
810.411	87.21
810.59	158.89
810.769	179.37
810.948	158.89
811.127	103.59
811.306	60.59
811.485	62.63
811.664	81.07
811.843	33.96
812.022	58.54
812.201	64.68
812.38	124.07
812.559	27.82
812.737	99.5
812.916	113.83
813.095	29.87
813.274	23.72
813.453	74.92
813.632	31.91
813.811	64.68
813.989	81.07
814.168	72.87
814.347	33.96
814.526	62.63
814.704	85.16
814.883	36.01
815.062	107.69
815.24	31.91
815.419	31.91
815.598	64.68
815.776	44.2
815.955	48.3
816.133	111.78
816.312	40.11
816.49	56.49
816.669	109.74
816.847	58.54
817.026	101.55
817.204	93.35
817.383	42.15
817.561	50.35
817.74	87.21
817.918	72.87
818.097	29.87
818.275	7.34
818.453	91.31
818.632	36.01
818.81	52.39
818.988	38.06
819.167	76.97
819.345	79.02
819.523	56.49
819.701	42.15
819.879	79.02
820.058	56.49
820.236	134.31
820.414	19.63
820.592	109.74
820.77	-9.05
820.948	33.96
821.127	-9.05
821.305	-4.95
821.483	68.78
821.661	25.77
821.839	29.87
822.017	38.06
822.195	15.53
822.373	42.15
822.551	54.44
822.729	85.16
822.907	3.24
823.085	11.43
823.262	79.02
823.44	93.35
823.618	-21.33
823.796	89.26
823.974	46.25
824.152	17.58
824.329	3.24
824.507	152.74
824.685	25.77
824.863	56.49
825.04	38.06
825.218	101.55
825.396	-23.38
825.574	33.96
825.751	72.87
825.929	62.63
826.107	-4.95
826.284	-2.9
826.462	52.39
826.639	103.59
826.817	21.67
826.994	-0.85
827.172	-31.57
827.349	72.87
827.527	56.49
827.704	52.39
827.882	74.92
828.059	50.35
828.237	1.19
828.414	103.59
828.591	50.35
828.769	142.5
828.946	40.11
829.124	109.74
829.301	19.63
829.478	38.06
829.655	74.92
829.833	3.24
830.01	5.29
830.187	85.16
830.364	44.2
830.542	44.2
830.719	74.92
830.896	40.11
831.073	38.06
831.25	-0.85
831.427	40.11
831.604	3.24
831.782	3.24
831.959	21.67
832.136	27.82
832.313	-4.95
832.49	44.2
832.667	5.29
832.844	54.44
833.021	89.26
833.198	74.92
833.374	23.72
833.551	13.48
833.728	1.19
833.905	36.01
834.082	3.24
834.259	31.91
834.436	38.06
834.612	25.77
834.789	-13.14
834.966	-21.33
835.143	-2.9
835.319	58.54
835.496	66.73
835.673	52.39
835.85	93.35
836.026	-29.52
836.203	3.24
836.38	113.83
836.556	52.39
836.733	17.58
836.909	56.49
837.086	11.43
837.262	-9.05
837.439	-19.29
837.616	25.77
837.792	95.4
837.968	29.87
838.145	44.2
838.321	5.29
838.498	101.55
838.674	68.78
838.851	15.53
839.027	54.44
839.203	29.87
839.38	19.63
839.556	5.29
839.732	15.53
839.909	44.2
840.085	-0.85
840.261	-2.9
840.437	5.29
840.614	-45.91
840.79	33.96
840.966	19.63
841.142	64.68
841.318	-19.29
841.494	27.82
841.671	70.83
841.847	21.67
842.023	64.68
842.199	-27.48
842.375	97.45
842.551	81.07
842.727	46.25
842.903	-11.09
843.079	58.54
843.255	52.39
843.431	21.67
843.607	31.91
843.783	-4.95
843.959	19.63
844.134	42.15
844.31	5.29
844.486	52.39
844.662	-29.52
844.838	-9.05
845.013	15.53
845.189	15.53
845.365	13.48
845.541	9.39
845.716	-4.95
845.892	46.25
846.068	17.58
846.244	21.67
846.419	72.87
846.595	15.53
846.77	36.01
846.946	44.2
847.122	74.92
847.297	7.34
847.473	89.26
847.648	5.29
847.824	87.21
847.999	-15.19
848.175	25.77
848.35	-0.85
848.526	36.01
848.701	3.24
848.876	40.11
849.052	52.39
849.227	17.58
849.403	-52.05
849.578	19.63
849.753	52.39
849.929	93.35
850.104	-13.14
850.279	89.26
850.454	58.54
850.63	50.35
850.805	-58.2
850.98	1.19
851.155	-15.19
851.33	52.39
851.505	-33.62
851.681	17.58
851.856	-9.05
852.031	11.43
852.206	-33.62
852.381	-17.24
852.556	-68.44
852.731	-15.19
852.906	-11.09
853.081	-17.24
853.256	58.54
853.431	64.68
853.606	-19.29
853.781	46.25
853.956	48.3
854.131	40.11
854.305	-29.52
854.48	-21.33
854.655	40.11
854.83	17.58
855.005	5.29
855.18	31.91
855.354	-19.29
855.529	21.67
855.704	15.53
855.879	38.06
856.053	1.19
856.228	-54.1
856.403	-23.38
856.577	-27.48
856.752	-41.81
856.926	68.78
857.101	33.96
857.276	-0.85
857.45	-35.67
857.625	-39.76
857.799	9.39
857.974	-27.48
858.148	-7
858.323	-21.33
858.497	-45.91
858.672	15.53
858.846	62.63
859.02	-31.57
859.195	-45.91
859.369	-0.85
859.543	-43.86
859.718	-2.9
859.892	-4.95
860.066	17.58
860.241	-33.62
860.415	11.43
860.589	-19.29
860.763	-17.24
860.938	38.06
861.112	19.63
861.286	-25.43
861.46	-9.05
861.634	46.25
861.808	9.39
861.982	9.39
862.157	-17.24
862.331	62.63
862.505	54.44
862.679	-29.52
862.853	-45.91
863.027	13.48
863.201	-45.91
863.375	72.87
863.549	5.29
863.722	-43.86
863.896	11.43
864.07	1.19
864.244	15.53
864.418	79.02
864.592	-7
864.766	17.58
864.939	-41.81
865.113	79.02
865.287	19.63
865.461	29.87
865.634	31.91
865.808	-11.09
865.982	27.82
866.156	38.06
866.329	15.53
866.503	15.53
866.676	-41.81
866.85	70.83
867.024	31.91
867.197	17.58
867.371	23.72
867.544	-25.43
867.718	60.59
867.891	7.34
868.065	-15.19
868.238	-11.09
868.412	21.67
868.585	-33.62
868.759	29.87
868.932	60.59
869.105	-41.81
869.279	-9.05
869.452	-4.95
869.625	48.3
869.799	36.01
869.972	-119.64
870.145	-13.14
870.319	-29.52
870.492	33.96
870.665	21.67
870.838	19.63
871.011	1.19
871.185	-2.9
871.358	31.91
871.531	85.16
871.704	-80.72
871.877	15.53
872.05	68.78
872.223	56.49
872.396	-76.63
872.569	15.53
872.742	-29.52
872.915	-25.43
873.088	-99.16
873.261	-25.43
873.434	23.72
873.607	-17.24
873.78	58.54
873.953	-15.19
874.126	-17.24
874.299	54.44
874.471	-4.95
874.644	-35.67
874.817	-56.15
874.99	31.91
875.163	-15.19
875.335	-21.33
875.508	46.25
875.681	-7
875.853	-62.29
876.026	-29.52
876.199	124.07
876.371	60.59
876.544	9.39
876.717	-9.05
876.889	11.43
877.062	58.54
877.234	-62.29
877.407	-64.34
877.579	-80.72
877.752	36.01
877.924	25.77
878.097	29.87
878.269	-76.63
878.442	44.2
878.614	17.58
878.786	19.63
878.959	27.82
879.131	-41.81
879.303	-29.52
879.476	-17.24
879.648	-54.1
879.82	-45.91
879.993	111.78
880.165	-45.91
880.337	-27.48
880.509	-64.34
880.681	-78.68
880.854	-0.85
881.026	-17.24
881.198	70.83
881.37	-2.9
881.542	-70.48
881.714	5.29
881.886	-29.52
882.058	-60.24
882.23	-45.91
882.402	1.19
882.574	-0.85
882.746	23.72
882.918	25.77
883.09	-11.09
883.262	5.29
883.434	-35.67
883.606	68.78
883.778	36.01
883.95	15.53
884.122	-2.9
884.293	21.67
884.465	23.72
884.637	33.96
884.809	-72.53
884.98	-4.95
885.152	46.25
885.324	33.96
885.496	-29.52
885.667	-50
885.839	-31.57
886.011	3.24
886.182	-7
886.354	-19.29
886.525	7.34
886.697	3.24
886.869	38.06
887.04	-21.33
887.212	-4.95
887.383	-4.95
887.555	11.43
887.726	-43.86
887.897	58.54
888.069	-62.29
888.24	1.19
888.412	-72.53
888.583	-29.52
888.754	21.67
888.926	-27.48
889.097	9.39
889.268	-37.72
889.44	-7
889.611	-37.72
889.782	99.5
889.953	-17.24
890.125	11.43
890.296	-13.14
890.467	54.44
890.638	-21.33
890.809	60.59
890.98	-56.15
891.151	1.19
891.323	-2.9
891.494	29.87
891.665	-45.91
891.836	-35.67
892.007	-7
892.178	7.34
892.349	-35.67
892.52	9.39
892.691	-29.52
892.862	74.92
893.032	-50
893.203	-68.44
893.374	17.58
893.545	3.24
893.716	-15.19
893.887	60.59
894.057	25.77
894.228	-35.67
894.399	-9.05
894.57	-64.34
894.74	-86.87
894.911	-35.67
895.082	31.91
895.253	-23.38
895.423	-0.85
895.594	29.87
895.764	42.15
895.935	-17.24
896.106	33.96
896.276	42.15
896.447	11.43
896.617	9.39
896.788	-15.19
896.958	19.63
897.129	3.24
897.299	17.58
897.47	7.34
897.64	58.54
897.81	11.43
897.981	-47.96
898.151	-68.44
898.322	9.39
898.492	29.87
898.662	33.96
898.832	9.39
899.003	-39.76
899.173	17.58
899.343	-13.14
899.513	5.29
