Data from USB4F104151__18__12-58-33-860.txt Node

Date: Fri Mar 14 12:58:33 EDT 2025
User: louis
Spectrometer: USB4F10415
Trigger mode: 4
Integration Time (sec): 1.000000E-2
Scans to average: 1
Electric dark correction enabled: true
Nonlinearity correction enabled: false
Boxcar width: 0
XAxis mode: Wavelengths
Number of Pixels in Spectrum: 3648
>>>>>Begin Spectral Data<<<<<
178.204	-44.54
178.424	-44.54
178.644	-44.54
178.864	-81.41
179.084	-15.87
179.304	-9.73
179.524	-11.78
179.744	37.38
179.964	61.95
180.184	-93.69
180.404	25.09
180.624	-9.73
180.844	-7.68
181.064	12.8
181.283	8.7
181.503	-9.73
181.723	-3.58
181.943	23.04
182.163	35.33
182.383	-17.92
182.602	37.38
182.822	29.18
183.042	18.94
183.262	35.33
183.482	-60.93
183.701	37.38
183.921	6.66
184.141	6.66
184.361	45.57
184.58	20.99
184.8	-3.58
185.02	-9.73
185.239	78.33
185.459	45.57
185.679	10.75
185.898	-15.87
186.118	16.9
186.338	61.95
186.557	45.57
186.777	29.18
186.997	25.09
187.216	14.85
187.436	37.38
187.655	16.9
187.875	18.94
188.095	-5.63
188.314	16.9
188.534	-1.54
188.753	-13.82
188.973	-9.73
189.192	98.81
189.412	10.75
189.631	-19.97
189.851	4.61
190.07	45.57
190.29	20.99
190.509	-73.21
190.729	74.24
190.948	14.85
191.168	94.72
191.387	72.19
191.607	-15.87
191.826	111.1
192.045	-19.97
192.265	4.61
192.484	-42.5
192.704	59.9
192.923	27.14
193.142	6.66
193.362	12.8
193.581	25.09
193.8	6.66
194.02	59.9
194.239	23.04
194.458	51.71
194.678	0.51
194.897	2.56
195.116	27.14
195.335	4.61
195.555	-15.87
195.774	-9.73
195.993	10.75
196.212	27.14
196.432	2.56
196.651	-44.54
196.87	41.47
197.089	117.25
197.308	-54.78
197.528	117.25
197.747	8.7
197.966	4.61
198.185	49.66
198.404	66.05
198.623	37.38
198.842	6.66
199.062	29.18
199.281	78.33
199.5	-40.45
199.719	33.28
199.938	-5.63
200.157	68.09
200.376	-9.73
200.595	12.8
200.814	-24.06
201.033	-7.68
201.252	84.48
201.471	-22.02
201.69	10.75
201.909	-56.83
202.128	25.09
202.347	-5.63
202.566	59.9
202.785	-5.63
203.004	57.86
203.223	53.76
203.442	57.86
203.661	41.47
203.879	2.56
204.098	16.9
204.317	98.81
204.536	59.9
204.755	-17.92
204.974	-36.35
205.193	59.9
205.411	4.61
205.63	78.33
205.849	27.14
206.068	12.8
206.287	-5.63
206.505	10.75
206.724	-15.87
206.943	-13.82
207.162	14.85
207.381	6.66
207.599	-36.35
207.818	-19.97
208.037	-11.78
208.255	98.81
208.474	-26.11
208.693	53.76
208.911	-22.02
209.13	66.05
209.349	104.96
209.567	-3.58
209.786	76.29
210.005	31.23
210.223	6.66
210.442	23.04
210.661	0.51
210.879	43.52
211.098	111.1
211.316	-11.78
211.535	37.38
211.753	37.38
211.972	25.09
212.191	49.66
212.409	14.85
212.628	29.18
212.846	61.95
213.065	49.66
213.283	45.57
213.502	18.94
213.72	57.86
213.938	-54.78
214.157	31.23
214.375	-13.82
214.594	-11.78
214.812	102.91
215.031	-13.82
215.249	25.09
215.467	64
215.686	4.61
215.904	66.05
216.122	-7.68
216.341	20.99
216.559	-30.21
216.778	-17.92
216.996	39.42
217.214	-5.63
217.432	57.86
217.651	43.52
217.869	8.7
218.087	-3.58
218.306	-24.06
218.524	47.62
218.742	37.38
218.96	80.38
219.179	64
219.397	-1.54
219.615	-46.59
219.833	84.48
220.051	-7.68
220.27	55.81
220.488	33.28
220.706	2.56
220.924	-13.82
221.142	-1.54
221.36	20.99
221.578	100.86
221.796	41.47
222.015	68.09
222.233	4.61
222.451	12.8
222.669	-9.73
222.887	-3.58
223.105	20.99
223.323	-24.06
223.541	51.71
223.759	35.33
223.977	27.14
224.195	6.66
224.413	59.9
224.631	16.9
224.849	16.9
225.067	-22.02
225.285	74.24
225.503	12.8
225.721	14.85
225.939	12.8
226.157	-40.45
226.375	90.62
226.592	-24.06
226.81	35.33
227.028	59.9
227.246	-15.87
227.464	-58.88
227.682	0.51
227.9	6.66
228.117	35.33
228.335	-5.63
228.553	-40.45
228.771	82.43
228.989	18.94
229.206	-22.02
229.424	10.75
229.642	59.9
229.86	45.57
230.077	-34.3
230.295	31.23
230.513	53.76
230.731	37.38
230.948	55.81
231.166	35.33
231.384	33.28
231.601	68.09
231.819	25.09
232.037	14.85
232.254	33.28
232.472	4.61
232.689	39.42
232.907	90.62
233.125	-36.35
233.342	-58.88
233.56	4.61
233.777	37.38
233.995	-11.78
234.213	70.14
234.43	-48.64
234.648	45.57
234.865	18.94
235.083	90.62
235.3	-9.73
235.518	45.57
235.735	-5.63
235.953	129.53
236.17	-48.64
236.388	14.85
236.605	33.28
236.822	8.7
237.04	31.23
237.257	27.14
237.475	-1.54
237.692	-11.78
237.909	53.76
238.127	84.48
238.344	76.29
238.562	20.99
238.779	117.25
238.996	20.99
239.214	37.38
239.431	23.04
239.648	49.66
239.865	0.51
240.083	-3.58
240.3	-1.54
240.517	16.9
240.735	51.71
240.952	43.52
241.169	12.8
241.386	16.9
241.603	47.62
241.821	-13.82
242.038	2.56
242.255	51.71
242.472	57.86
242.689	90.62
242.907	49.66
243.124	2.56
243.341	2.56
243.558	-17.92
243.775	20.99
243.992	59.9
244.209	23.04
244.426	18.94
244.643	45.57
244.86	39.42
245.078	27.14
245.295	4.61
245.512	-11.78
245.729	55.81
245.946	-15.87
246.163	143.87
246.38	72.19
246.597	25.09
246.814	27.14
247.031	0.51
247.248	80.38
247.464	45.57
247.681	37.38
247.898	-42.5
248.115	-15.87
248.332	-17.92
248.549	33.28
248.766	12.8
248.983	-7.68
249.2	66.05
249.417	18.94
249.633	31.23
249.85	-5.63
250.067	-34.3
250.284	-24.06
250.501	45.57
250.717	8.7
250.934	-42.5
251.151	66.05
251.368	-11.78
251.585	43.52
251.801	0.51
252.018	51.71
252.235	45.57
252.451	29.18
252.668	8.7
252.885	16.9
253.102	88.57
253.318	-5.63
253.535	-1.54
253.752	80.38
253.968	12.8
254.185	31.23
254.401	-36.35
254.618	27.14
254.835	41.47
255.051	10.75
255.268	8.7
255.484	23.04
255.701	37.38
255.917	33.28
256.134	-17.92
256.351	10.75
256.567	6.66
256.784	109.05
257	6.66
257.217	111.1
257.433	10.75
257.65	23.04
257.866	-13.82
258.082	127.49
258.299	8.7
258.515	39.42
258.732	41.47
258.948	66.05
259.165	29.18
259.381	0.51
259.597	8.7
259.814	90.62
260.03	39.42
260.246	43.52
260.463	-38.4
260.679	49.66
260.895	25.09
261.112	92.67
261.328	-5.63
261.544	-3.58
261.761	57.86
261.977	-1.54
262.193	-17.92
262.409	76.29
262.626	29.18
262.842	-15.87
263.058	-3.58
263.274	61.95
263.49	20.99
263.707	23.04
263.923	-32.26
264.139	-17.92
264.355	37.38
264.571	-28.16
264.787	25.09
265.004	33.28
265.22	-19.97
265.436	51.71
265.652	55.81
265.868	-26.11
266.084	31.23
266.3	33.28
266.516	33.28
266.732	55.81
266.948	-13.82
267.164	53.76
267.38	43.52
267.596	8.7
267.812	68.09
268.028	72.19
268.244	12.8
268.46	37.38
268.676	14.85
268.892	72.19
269.108	39.42
269.324	35.33
269.54	39.42
269.756	31.23
269.972	-24.06
270.188	12.8
270.403	25.09
270.619	16.9
270.835	55.81
271.051	74.24
271.267	10.75
271.483	27.14
271.698	-28.16
271.914	61.95
272.13	78.33
272.346	29.18
272.562	35.33
272.777	53.76
272.993	6.66
273.209	61.95
273.425	-11.78
273.64	45.57
273.856	10.75
274.072	-32.26
274.287	12.8
274.503	-1.54
274.719	82.43
274.934	-13.82
275.15	53.76
275.366	55.81
275.581	12.8
275.797	53.76
276.012	-1.54
276.228	39.42
276.444	33.28
276.659	96.77
276.875	39.42
277.09	14.85
277.306	33.28
277.521	0.51
277.737	-24.06
277.952	39.42
278.168	-67.07
278.383	31.23
278.599	88.57
278.814	-36.35
279.03	-7.68
279.245	6.66
279.461	90.62
279.676	45.57
279.892	-120.32
280.107	4.61
280.322	-1.54
280.538	55.81
280.753	-7.68
280.969	39.42
281.184	51.71
281.399	31.23
281.615	29.18
281.83	-11.78
282.045	59.9
282.26	-5.63
282.476	-1.54
282.691	55.81
282.906	10.75
283.122	-42.5
283.337	-5.63
283.552	4.61
283.767	-22.02
283.983	80.38
284.198	33.28
284.413	53.76
284.628	20.99
284.843	45.57
285.058	39.42
285.274	51.71
285.489	76.29
285.704	23.04
285.919	49.66
286.134	82.43
286.349	47.62
286.564	-19.97
286.779	57.86
286.995	59.9
287.21	-24.06
287.425	96.77
287.64	10.75
287.855	45.57
288.07	25.09
288.285	23.04
288.5	55.81
288.715	14.85
288.93	-5.63
289.145	-9.73
289.36	14.85
289.575	37.38
289.79	88.57
290.004	70.14
290.219	102.91
290.434	20.99
290.649	-89.6
290.864	14.85
291.079	49.66
291.294	41.47
291.509	10.75
291.724	16.9
291.938	-32.26
292.153	43.52
292.368	37.38
292.583	49.66
292.798	88.57
293.012	4.61
293.227	27.14
293.442	12.8
293.657	53.76
293.871	-50.69
294.086	39.42
294.301	37.38
294.516	41.47
294.73	14.85
294.945	-24.06
295.16	53.76
295.374	16.9
295.589	33.28
295.804	-11.78
296.018	23.04
296.233	33.28
296.447	6.66
296.662	18.94
296.877	-3.58
297.091	35.33
297.306	27.14
297.52	6.66
297.735	53.76
297.949	90.62
298.164	31.23
298.378	25.09
298.593	37.38
298.807	31.23
299.022	-9.73
299.236	-1.54
299.451	12.8
299.665	25.09
299.88	80.38
300.094	27.14
300.309	-26.11
300.523	64
300.737	12.8
300.952	16.9
301.166	-40.45
301.381	-5.63
301.595	96.77
301.809	-24.06
302.024	2.56
302.238	12.8
302.452	139.77
302.667	16.9
302.881	23.04
303.095	-7.68
303.309	53.76
303.524	-11.78
303.738	4.61
303.952	86.53
304.166	66.05
304.381	-24.06
304.595	80.38
304.809	47.62
305.023	66.05
305.237	0.51
305.452	-15.87
305.666	29.18
305.88	102.91
306.094	72.19
306.308	37.38
306.522	72.19
306.736	72.19
306.95	29.18
307.164	12.8
307.379	33.28
307.593	102.91
307.807	33.28
308.021	61.95
308.235	49.66
308.449	33.28
308.663	-5.63
308.877	29.18
309.091	14.85
309.305	6.66
309.519	-56.83
309.733	74.24
309.947	47.62
310.161	72.19
310.374	41.47
310.588	16.9
310.802	59.9
311.016	27.14
311.23	37.38
311.444	23.04
311.658	66.05
311.872	53.76
312.085	61.95
312.299	82.43
312.513	57.86
312.727	12.8
312.941	31.23
313.154	74.24
313.368	0.51
313.582	18.94
313.796	29.18
314.009	16.9
314.223	-3.58
314.437	64
314.651	29.18
314.864	31.23
315.078	25.09
315.292	45.57
315.505	37.38
315.719	119.29
315.933	-30.21
316.146	33.28
316.36	-46.59
316.573	-3.58
316.787	61.95
317.001	-17.92
317.214	6.66
317.428	33.28
317.641	12.8
317.855	51.71
318.068	20.99
318.282	45.57
318.495	55.81
318.709	16.9
318.922	78.33
319.136	49.66
319.349	66.05
319.563	45.57
319.776	-3.58
319.99	94.72
320.203	-11.78
320.417	68.09
320.63	70.14
320.843	74.24
321.057	45.57
321.27	55.81
321.483	43.52
321.697	72.19
321.91	4.61
322.124	47.62
322.337	31.23
322.55	39.42
322.763	53.76
322.977	12.8
323.19	10.75
323.403	23.04
323.617	8.7
323.83	51.71
324.043	-28.16
324.256	39.42
324.469	12.8
324.683	102.91
324.896	70.14
325.109	31.23
325.322	29.18
325.535	-13.82
325.748	57.86
325.962	31.23
326.175	-7.68
326.388	51.71
326.601	0.51
326.814	-32.26
327.027	49.66
327.24	10.75
327.453	-19.97
327.666	80.38
327.879	66.05
328.092	82.43
328.305	-11.78
328.518	37.38
328.731	-1.54
328.944	43.52
329.157	55.81
329.37	109.05
329.583	20.99
329.796	18.94
330.009	-1.54
330.222	119.29
330.435	20.99
330.648	61.95
330.861	-28.16
331.073	-87.55
331.286	35.33
331.499	-3.58
331.712	20.99
331.925	12.8
332.138	86.53
332.35	70.14
332.563	90.62
332.776	57.86
332.989	55.81
333.202	-1.54
333.414	0.51
333.627	27.14
333.84	-30.21
334.053	23.04
334.265	-7.68
334.478	53.76
334.691	-17.92
334.903	45.57
335.116	41.47
335.329	-15.87
335.541	72.19
335.754	45.57
335.966	-50.69
336.179	20.99
336.392	-5.63
336.604	16.9
336.817	14.85
337.029	29.18
337.242	23.04
337.454	74.24
337.667	6.66
337.88	16.9
338.092	4.61
338.305	41.47
338.517	-19.97
338.729	53.76
338.942	14.85
339.154	37.38
339.367	-28.16
339.579	12.8
339.792	92.67
340.004	86.53
340.217	-5.63
340.429	41.47
340.641	12.8
340.854	104.96
341.066	-9.73
341.278	70.14
341.491	-11.78
341.703	51.71
341.915	29.18
342.128	23.04
342.34	35.33
342.552	66.05
342.764	59.9
342.977	47.62
343.189	39.42
343.401	18.94
343.613	-105.98
343.826	80.38
344.038	31.23
344.25	-9.73
344.462	-7.68
344.674	8.7
344.886	20.99
345.099	49.66
345.311	35.33
345.523	29.18
345.735	0.51
345.947	70.14
346.159	-1.54
346.371	8.7
346.583	94.72
346.795	70.14
347.007	16.9
347.219	41.47
347.431	18.94
347.643	43.52
347.855	72.19
348.067	12.8
348.279	14.85
348.491	51.71
348.703	18.94
348.915	23.04
349.127	29.18
349.339	53.76
349.551	-19.97
349.763	33.28
349.975	-7.68
350.187	61.95
350.399	2.56
350.61	33.28
350.822	-11.78
351.034	14.85
351.246	64
351.458	-36.35
351.669	14.85
351.881	-3.58
352.093	90.62
352.305	25.09
352.517	37.38
352.728	88.57
352.94	96.77
353.152	6.66
353.363	64
353.575	33.28
353.787	57.86
353.999	37.38
354.21	59.9
354.422	35.33
354.633	-56.83
354.845	37.38
355.057	86.53
355.268	-7.68
355.48	41.47
355.692	-17.92
355.903	51.71
356.115	-3.58
356.326	35.33
356.538	72.19
356.749	0.51
356.961	72.19
357.172	70.14
357.384	-11.78
357.595	72.19
357.807	4.61
358.018	80.38
358.23	25.09
358.441	70.14
358.653	74.24
358.864	41.47
359.075	-32.26
359.287	94.72
359.498	29.18
359.709	55.81
359.921	29.18
360.132	2.56
360.344	84.48
360.555	18.94
360.766	-32.26
360.977	33.28
361.189	43.52
361.4	37.38
361.611	-15.87
361.823	-3.58
362.034	43.52
362.245	29.18
362.456	29.18
362.667	107.01
362.879	29.18
363.09	51.71
363.301	41.47
363.512	31.23
363.723	-17.92
363.935	-3.58
364.146	66.05
364.357	-32.26
364.568	20.99
364.779	18.94
364.99	55.81
365.201	39.42
365.412	39.42
365.623	35.33
365.834	29.18
366.045	10.75
366.256	2.56
366.467	8.7
366.678	37.38
366.889	78.33
367.1	92.67
367.311	35.33
367.522	80.38
367.733	12.8
367.944	25.09
368.155	66.05
368.366	27.14
368.577	-22.02
368.788	72.19
368.999	20.99
369.209	53.76
369.42	82.43
369.631	72.19
369.842	96.77
370.053	33.28
370.264	-26.11
370.474	27.14
370.685	90.62
370.896	84.48
371.107	47.62
371.317	16.9
371.528	-22.02
371.739	10.75
371.95	51.71
372.16	18.94
372.371	55.81
372.582	66.05
372.792	45.57
373.003	37.38
373.214	68.09
373.424	29.18
373.635	6.66
373.846	64
374.056	43.52
374.267	-9.73
374.477	-15.87
374.688	-15.87
374.898	53.76
375.109	55.81
375.319	45.57
375.53	4.61
375.74	74.24
375.951	16.9
376.161	68.09
376.372	37.38
376.582	-1.54
376.793	2.56
377.003	45.57
377.214	94.72
377.424	59.9
377.635	18.94
377.845	25.09
378.055	57.86
378.266	6.66
378.476	66.05
378.686	-5.63
378.897	33.28
379.107	53.76
379.317	37.38
379.528	35.33
379.738	66.05
379.948	29.18
380.158	33.28
380.369	68.09
380.579	25.09
380.789	37.38
380.999	-7.68
381.21	84.48
381.42	47.62
381.63	51.71
381.84	18.94
382.05	25.09
382.261	-36.35
382.471	8.7
382.681	84.48
382.891	55.81
383.101	49.66
383.311	53.76
383.521	82.43
383.731	55.81
383.941	-19.97
384.151	18.94
384.361	12.8
384.571	64
384.781	66.05
384.991	31.23
385.201	-9.73
385.411	59.9
385.621	-19.97
385.831	51.71
386.041	74.24
386.251	115.2
386.461	92.67
386.671	61.95
386.881	143.87
387.091	59.9
387.301	70.14
387.511	18.94
387.72	84.48
387.93	47.62
388.14	25.09
388.35	90.62
388.56	53.76
388.769	49.66
388.979	92.67
389.189	6.66
389.399	33.28
389.609	0.51
389.818	31.23
390.028	29.18
390.238	55.81
390.447	53.76
390.657	107.01
390.867	61.95
391.076	121.34
391.286	80.38
391.496	-30.21
391.705	16.9
391.915	37.38
392.125	82.43
392.334	20.99
392.544	145.92
392.753	115.2
392.963	41.47
393.172	104.96
393.382	82.43
393.591	45.57
393.801	41.47
394.01	53.76
394.22	131.58
394.429	-3.58
394.639	131.58
394.848	-26.11
395.058	94.72
395.267	90.62
395.477	109.05
395.686	49.66
395.895	78.33
396.105	94.72
396.314	66.05
396.524	104.96
396.733	-7.68
396.942	86.53
397.152	29.18
397.361	127.49
397.57	55.81
397.78	96.77
397.989	70.14
398.198	119.29
398.407	39.42
398.617	55.81
398.826	78.33
399.035	90.62
399.244	92.67
399.453	98.81
399.663	96.77
399.872	129.53
400.081	100.86
400.29	145.92
400.499	119.29
400.708	66.05
400.917	55.81
401.127	41.47
401.336	86.53
401.545	117.25
401.754	111.1
401.963	137.73
402.172	74.24
402.381	76.29
402.59	150.01
402.799	41.47
403.008	66.05
403.217	39.42
403.426	98.81
403.635	20.99
403.844	70.14
404.053	98.81
404.262	49.66
404.471	70.14
404.68	107.01
404.888	102.91
405.097	76.29
405.306	129.53
405.515	168.45
405.724	82.43
405.933	111.1
406.142	127.49
406.35	152.06
406.559	147.97
406.768	162.3
406.977	135.68
407.185	102.91
407.394	104.96
407.603	178.69
407.812	133.63
408.02	137.73
408.229	174.59
408.438	127.49
408.646	125.44
408.855	168.45
409.064	131.58
409.272	188.93
409.481	252.41
409.69	172.54
409.898	186.88
410.107	193.02
410.315	256.51
410.524	168.45
410.733	184.83
410.941	213.5
411.15	225.79
411.358	336.38
411.567	236.03
411.775	295.42
411.984	260.6
412.192	233.98
412.401	383.48
412.609	315.9
412.818	295.42
413.026	334.33
413.234	367.1
413.443	326.14
413.651	307.71
413.86	393.72
414.068	410.11
414.276	369.15
414.485	522.74
414.693	438.78
414.901	416.25
415.11	365.05
415.318	397.82
415.526	412.15
415.734	524.79
415.943	485.88
416.151	537.08
416.359	575.99
416.567	619
416.776	567.8
416.984	596.47
417.192	707.06
417.4	649.72
417.608	569.85
417.817	659.96
418.025	702.97
418.233	760.31
418.441	725.49
418.649	829.94
418.857	874.99
419.065	860.66
419.273	842.23
419.481	856.56
419.689	985.58
419.897	1012.21
420.105	1014.26
420.313	983.54
420.521	1053.17
420.729	1102.32
420.937	1061.36
421.145	1010.16
421.353	1208.81
421.561	1208.81
421.769	1163.76
421.977	1317.36
422.185	1380.84
422.393	1376.75
422.601	1401.32
422.809	1425.9
423.017	1495.53
423.224	1511.91
423.432	1599.98
423.64	1702.37
423.848	1724.9
424.056	1712.61
424.263	1833.44
424.471	1753.57
424.679	1821.16
424.887	1890.79
425.094	1993.19
425.302	2077.15
425.51	2019.81
425.718	2150.88
425.925	2169.31
426.133	2333.15
426.341	2421.21
426.548	2529.75
426.756	2550.23
426.964	2550.23
427.171	2744.79
427.379	2750.93
427.586	2765.27
427.794	2752.98
428.001	3064.27
428.209	2992.59
428.417	2984.4
428.624	3199.44
428.832	3205.58
429.039	3250.64
429.247	3181.01
429.454	3676.62
429.662	3936.71
429.869	3674.57
430.076	3832.26
430.284	3609.03
430.491	3875.27
430.699	4090.31
430.906	3979.72
431.114	4088.26
431.321	4446.65
431.528	4465.08
431.736	4721.08
431.943	4903.35
432.15	4657.59
432.358	4766.14
432.565	5032.37
432.772	5134.77
432.979	5304.75
433.187	5376.43
433.394	5613.99
433.601	5792.17
433.808	5657
434.016	5702.06
434.223	5962.15
434.43	6482.33
434.637	6119.84
434.844	6517.15
435.052	6779.29
435.259	6726.04
435.466	6683.03
435.673	6789.53
435.88	7117.2
436.087	7541.13
436.294	7451.02
436.501	7551.37
436.708	7424.4
436.915	7735.69
437.122	8182.15
437.329	8006.02
437.537	8331.65
437.743	8614.27
437.95	8395.14
438.157	8853.88
438.364	9236.85
438.571	9259.38
438.778	9152.88
438.985	9933.16
439.192	9740.65
439.399	10064.23
439.606	9818.47
439.813	10164.58
440.02	10805.6
440.227	10760.54
440.433	10705.24
440.64	11024.73
440.847	10862.94
441.054	11125.08
441.261	11850.06
441.467	11796.81
441.674	12163.4
441.881	12517.7
442.088	12390.72
442.294	12300.61
442.501	12663.1
442.708	12896.57
442.914	13515.06
443.121	14098.73
443.328	13685.04
443.534	14510.37
443.741	14037.29
443.948	13947.18
444.154	14948.64
444.361	14721.31
444.568	15223.06
444.774	15069.47
444.981	15210.78
445.187	15859.98
445.394	16310.54
445.6	15952.14
445.807	17541.36
446.013	16947.45
446.22	17307.9
446.426	17780.98
446.633	18082.03
446.839	18813.15
447.046	17893.61
447.252	18948.32
447.459	19144.92
447.665	18958.56
447.871	19816.66
448.078	20945.09
448.284	19751.12
448.491	20107.47
448.697	21205.18
448.903	21297.34
449.11	21348.54
449.316	21450.94
449.522	21795
449.728	22378.67
449.935	22372.52
450.141	22423.72
450.347	22610.09
450.553	22018.22
450.76	22493.35
450.966	23455.9
451.172	22925.47
451.378	23298.2
451.584	23152.8
451.791	23435.42
451.997	23539.86
452.203	23937.17
452.409	24058
452.615	24068.24
452.821	23177.37
453.027	22726.82
453.233	23904.4
453.44	22843.56
453.646	23634.07
453.852	23519.39
454.058	23644.31
454.264	23048.35
454.47	23771.29
454.676	22685.86
454.882	23558.3
455.088	22044.85
455.294	22085.81
455.5	22419.63
455.705	22542.5
455.911	21616.82
456.117	21495.99
456.323	20766.92
456.529	20211.92
456.735	21033.15
456.941	20140.24
457.147	19751.12
457.352	19302.62
457.558	19075.29
457.764	19372.25
457.97	18680.03
458.176	18489.57
458.381	18616.55
458.587	17537.27
458.793	17545.46
458.999	16474.37
459.204	17858.8
459.41	17199.35
459.616	16175.37
459.821	16161.03
460.027	16120.07
460.233	15776.02
460.438	15057.18
460.644	15423.76
460.85	14489.89
461.055	14561.57
461.261	14358.82
461.466	13359.41
461.672	12611.9
461.878	13934.89
462.083	12671.29
462.289	12437.83
462.494	12429.63
462.7	11991.37
462.905	11460.95
463.111	11874.63
463.316	11917.64
463.522	11538.77
463.727	11635.02
463.932	11774.28
464.138	12038.47
464.343	11524.43
464.549	11178.33
464.754	11768.14
464.959	11678.03
465.165	11350.35
465.37	10975.58
465.575	10875.23
465.781	11139.41
465.986	11227.48
466.191	10813.79
466.397	10639.71
466.602	10033.51
466.807	10568.03
467.012	10594.65
467.218	10238.31
467.423	10469.73
467.628	10557.79
467.833	10594.65
468.038	10406.24
468.244	10228.07
468.449	10557.79
468.654	10197.35
468.859	9980.26
469.064	10254.69
469.269	9705.84
469.474	9841
469.679	9996.65
469.885	9523.57
470.09	9820.52
470.295	9501.04
470.5	9562.48
470.705	9654.64
470.91	9306.48
471.115	9269.62
471.32	9210.23
471.525	9265.52
471.73	8999.29
471.935	8991.09
472.139	8845.69
472.344	8804.73
472.549	8878.46
472.754	8616.32
472.959	8475.01
473.164	8434.05
473.369	8221.06
473.574	8569.21
473.778	8468.86
473.983	8542.59
474.188	8393.09
474.393	7977.35
474.598	7995.78
474.802	7956.87
475.007	7946.63
475.212	7975.3
475.417	7610.76
475.621	7518.61
475.826	7557.52
476.031	7465.36
476.235	7498.13
476.44	7467.41
476.645	7238.03
476.849	7289.23
477.054	7192.98
477.259	7186.83
477.463	7215.51
477.668	7002.52
477.872	6984.09
478.077	6650.27
478.282	6660.51
478.486	6762.9
478.691	6549.92
478.895	6627.74
479.1	6566.3
479.304	6590.88
479.509	6379.93
479.713	6517.15
479.918	6418.85
480.122	6416.8
480.326	6480.29
480.531	6384.03
480.735	6156.71
480.94	6308.26
481.144	6341.02
481.348	6361.5
481.553	6033.83
481.757	6052.26
481.961	6160.8
482.166	6250.91
482.37	6146.47
482.574	5984.68
482.778	6062.5
482.983	6109.6
483.187	6113.7
483.391	6070.69
483.595	6103.46
483.8	6218.15
484.004	6152.61
484.208	6267.3
484.412	6125.99
484.616	6025.64
484.821	6181.28
485.025	6001.06
485.229	6214.05
485.433	5910.95
485.637	6109.6
485.841	6115.75
486.045	5915.05
486.249	5915.05
486.453	6089.12
486.657	6146.47
486.861	6298.02
487.065	5988.77
487.269	6031.78
487.473	6035.88
487.677	6050.21
487.881	5915.05
488.085	5976.48
488.289	6185.38
488.493	6175.14
488.697	6111.65
488.901	6171.04
489.105	6027.68
489.309	6080.93
489.512	6222.24
489.716	6248.86
489.92	6101.41
490.124	6021.54
490.328	6304.16
490.531	6269.34
490.735	6212
490.939	6482.33
491.143	6287.78
491.346	6052.26
491.55	6468
491.754	6392.22
491.958	6521.24
492.161	6259.1
492.365	6443.42
492.569	6502.81
492.772	6445.47
492.976	6621.59
493.18	6551.96
493.383	6572.44
493.587	6650.27
493.79	6642.07
493.994	6539.68
494.197	6644.12
494.401	6857.11
494.605	6896.02
494.808	7000.47
495.012	6728.09
495.215	7072.15
495.419	6906.26
495.622	7119.25
495.825	7184.79
496.029	7049.62
496.232	7209.36
496.436	7127.44
496.639	7360.91
496.843	7424.4
497.046	7551.37
497.249	7448.97
497.453	7623.05
497.656	7680.39
497.859	7786.89
498.063	7737.74
498.266	7872.9
498.469	8010.12
498.673	8073.6
498.876	8165.76
499.079	8190.34
499.282	8247.68
499.485	8659.32
499.689	8575.36
499.892	8712.57
500.095	8528.25
500.298	8900.98
500.501	8857.98
500.705	9175.41
500.908	9132.4
501.111	9359.73
501.314	9468.27
501.517	9329.01
501.72	9537.9
501.923	9580.91
502.126	9746.8
502.329	9787.75
502.532	9888.11
502.735	9771.37
502.938	10330.47
503.141	10346.85
503.344	10572.13
503.547	10383.71
503.75	10684.76
503.953	10387.81
504.156	11000.15
504.359	10856.79
504.562	11096.41
504.765	11270.48
504.968	11462.99
505.17	11381.07
505.373	11397.46
505.576	11862.35
505.779	11895.11
505.982	11878.73
506.185	12267.84
506.387	12317
506.59	12261.7
506.793	12685.63
506.996	12577.09
507.198	13148.47
507.401	12937.53
507.604	13295.93
507.807	13257.01
508.009	13486.39
508.212	13650.22
508.415	13656.37
508.617	13682.99
508.82	13705.52
509.022	13801.77
509.225	14291.24
509.428	14352.68
509.63	14690.59
509.833	14508.32
510.035	14891.29
510.238	14811.42
510.44	15096.09
510.643	15393.05
510.845	15362.33
511.048	15331.61
511.25	15806.73
511.453	15601.94
511.655	16181.51
511.858	15829.26
512.06	16509.19
512.262	16453.89
512.465	16304.39
512.667	16939.26
512.87	17150.2
513.072	17180.92
513.274	17266.94
513.477	17619.19
513.679	17549.56
513.881	17772.78
514.084	18069.74
514.286	18088.17
514.488	18313.45
514.69	18770.15
514.893	18874.59
515.095	18976.99
515.297	19157.21
515.499	19263.71
515.701	19390.68
515.904	19630.29
516.106	19728.59
516.308	19785.94
516.51	20052.17
516.712	20316.36
516.914	20502.73
517.116	20838.59
517.318	20891.84
517.52	21024.96
517.722	20951.23
517.925	21358.78
518.127	21727.41
518.329	21717.17
518.531	21917.87
518.733	22450.35
518.935	22259.88
519.136	22304.94
519.338	22706.34
519.54	22923.43
519.742	23199.9
519.944	23152.8
520.146	23449.75
520.348	23650.46
520.55	23885.97
520.752	24113.3
520.954	24309.9
521.155	24187.02
521.357	24508.55
521.559	24914.05
521.761	25292.93
521.963	25124.99
522.164	24918.15
522.366	25251.97
522.568	25510.01
522.77	25696.38
522.971	25948.28
523.173	25938.04
523.375	25929.84
523.576	26185.84
523.778	26366.06
523.98	26583.15
524.181	26566.76
524.383	26818.66
524.584	27187.3
524.786	27566.17
524.988	27113.57
525.189	27336.8
525.391	28074.07
525.592	27510.88
525.794	27758.68
525.995	27719.77
526.197	27871.32
526.398	27994.2
526.6	28102.74
526.801	28319.82
527.003	28768.33
527.204	28620.88
527.406	28946.5
527.607	28745.8
527.808	28758.09
528.01	28407.89
528.211	28909.64
528.412	29243.46
528.614	29423.68
528.815	29130.82
529.016	29696.06
529.218	29435.97
529.419	29425.73
529.62	29360.19
529.822	29292.61
530.023	29874.23
530.224	29515.84
530.425	29478.97
530.626	29298.75
530.828	29648.96
531.029	30216.24
531.23	29784.12
531.431	29747.26
531.632	29917.24
531.833	30033.97
532.035	29898.81
532.236	30187.57
532.437	30283.83
532.638	29999.16
532.839	30056.5
533.04	30375.98
533.241	29911.1
533.442	30402.61
533.643	30507.05
533.844	29950.01
534.045	30130.23
534.246	30136.37
534.447	30199.86
534.648	30439.47
534.849	30664.75
535.05	30183.48
535.251	30418.99
535.451	30146.61
535.652	30441.52
535.853	30267.44
536.054	30369.84
536.255	30289.97
536.456	30013.49
536.657	30554.16
536.857	30056.5
537.058	30115.89
537.259	30926.89
537.46	30275.63
537.66	30148.66
537.861	30175.28
538.062	30179.38
538.263	30517.29
538.463	30111.8
538.664	30203.96
538.865	30289.97
539.065	30644.27
539.266	29823.03
539.466	30679.08
539.667	30015.54
539.868	30640.17
540.068	30140.47
540.269	30103.6
540.469	30576.69
540.67	30249.01
540.87	30081.08
541.071	30281.78
541.271	30263.35
541.472	30218.29
541.672	30279.73
541.873	30394.42
542.073	30003.25
542.274	30418.99
542.474	30423.09
542.675	29802.55
542.875	30349.36
543.075	30068.79
543.276	29952.05
543.476	30277.68
543.676	29933.62
543.877	30187.57
544.077	30134.32
544.277	30191.67
544.478	30093.36
544.678	30140.47
544.878	29962.29
545.078	30285.87
545.279	29997.11
545.479	29710.39
545.679	29950.01
545.879	29915.19
546.079	30318.64
546.28	29777.98
546.48	29792.31
546.68	30185.52
546.88	29773.88
547.08	30072.89
547.28	29874.23
547.48	29829.18
547.68	29837.37
547.88	29665.34
548.081	30158.9
548.281	29839.42
548.481	30173.24
548.681	29839.42
548.881	29960.25
549.081	30031.93
549.28	29519.93
549.48	30158.9
549.68	29919.29
549.88	30304.31
550.08	29780.03
550.28	29788.22
550.48	29851.7
550.68	29913.14
550.88	29802.55
551.08	29911.1
551.279	30263.35
551.479	29931.58
551.679	29657.15
551.879	29712.44
552.079	29902.9
552.278	29691.96
552.478	29548.61
552.678	29716.54
552.878	29724.73
553.077	29804.6
553.277	29638.72
553.477	29745.21
553.676	29622.33
553.876	29433.92
554.076	29190.21
554.275	29380.67
554.475	29235.27
554.674	29810.75
554.874	29458.49
555.074	29253.7
555.273	29546.56
555.473	29800.51
555.672	29134.92
555.872	29298.75
556.071	29358.14
556.271	29478.97
556.47	29366.34
556.67	29347.9
556.869	29141.06
557.068	29368.38
557.268	29190.21
557.467	28934.21
557.667	29395.01
557.866	29278.27
558.065	29063.24
558.265	28835.91
558.464	28934.21
558.663	28819.53
558.863	28371.02
559.062	29214.79
559.261	28592.2
559.461	28975.17
559.66	28588.11
559.859	28784.71
560.058	28553.29
560.258	28844.1
560.457	28330.06
560.656	28921.93
560.855	28270.67
561.054	28504.14
561.253	28012.63
561.453	28313.68
561.652	28383.31
561.851	28457.04
562.05	28328.02
562.249	27682.91
562.448	28655.69
562.647	28438.61
562.846	28166.23
563.045	27967.57
563.244	27551.84
563.443	28110.93
563.642	27783.26
563.841	27922.52
564.04	27854.93
564.239	27805.78
564.438	27697.24
564.637	27656.28
564.836	27623.51
565.035	27643.99
565.234	27672.67
565.432	27471.96
565.631	27398.24
565.83	27615.32
566.029	27095.14
566.228	27166.82
566.427	27402.33
566.625	27150.43
566.824	26830.95
567.023	27256.93
567.222	27050.08
567.42	27125.86
567.619	26826.85
567.818	26902.63
568.016	26957.92
568.215	27062.37
568.414	27111.52
568.612	26689.64
568.811	26736.74
569.01	26665.07
569.208	26359.92
569.407	26728.55
569.605	26175.6
569.804	26441.84
570.002	26056.82
570.201	26464.36
570.4	25938.04
570.598	25864.31
570.797	25866.36
570.995	26095.73
571.193	25686.14
571.392	26015.86
571.59	25512.06
571.789	25872.5
571.987	25759.86
572.186	25532.54
572.384	25528.44
572.582	25516.15
572.781	25567.35
572.979	25440.38
573.177	25202.82
573.376	25272.45
573.574	25081.99
573.772	25632.89
573.971	24901.76
574.169	24924.29
574.367	25061.51
574.565	25321.6
574.763	24780.93
574.962	24574.09
575.16	24561.8
575.358	24733.83
575.556	24449.16
575.754	25030.79
575.952	23976.08
576.151	24647.82
576.349	24287.37
576.547	24060.05
576.745	24209.55
576.943	24443.02
577.141	24129.68
577.339	24189.07
577.537	23990.42
577.735	24189.07
577.933	23523.48
578.131	24006.8
578.329	23779.48
578.527	23746.71
578.725	23576.73
578.923	23677.08
579.121	23204
579.319	23462.04
579.516	23838.87
579.714	23398.55
579.912	23206.05
580.11	23154.85
580.308	23056.54
580.506	23167.13
580.704	22882.47
580.901	22747.3
581.099	22948
581.297	23025.82
581.495	22628.52
581.692	22935.71
581.89	22573.22
582.088	22962.34
582.285	22536.36
582.483	22560.94
582.681	22550.7
582.878	22538.41
583.076	22323.37
583.274	22511.78
583.471	22010.03
583.669	22259.88
583.866	22239.4
584.064	22022.32
584.262	21766.32
584.459	21754.04
584.657	21756.08
584.854	22096.05
585.052	21444.79
585.249	22046.9
585.447	21776.56
585.644	21280.96
585.841	21403.83
586.039	21655.73
586.236	21211.32
586.434	20963.52
586.631	21149.89
586.828	21424.31
587.026	21424.31
587.223	21096.64
587.42	21100.73
587.618	21244.09
587.815	20576.45
588.012	20785.35
588.21	20701.38
588.407	21098.69
588.604	20826.31
588.801	20572.36
588.999	20459.72
589.196	20533.45
589.393	20297.93
589.59	20709.57
589.787	20138.19
589.984	20291.79
590.182	20093.13
590.379	20369.61
590.576	19960.02
590.773	19988.69
590.97	19941.58
591.167	20365.51
591.364	19740.88
591.561	19732.69
591.758	19669.2
591.955	19583.19
592.152	19759.31
592.349	19495.13
592.546	19738.83
592.743	19579.09
592.94	19255.51
593.137	19439.83
593.334	19411.16
593.531	19132.64
593.727	19165.4
593.924	19144.92
594.121	19302.62
594.318	19253.47
594.515	18706.66
594.712	19052.77
594.908	18757.86
595.105	18829.54
595.302	18919.65
595.499	19009.76
595.696	18649.32
595.892	18575.59
596.089	18796.77
596.286	18682.08
596.482	18450.66
596.679	18626.79
596.876	18417.89
597.072	18188.52
597.269	18350.31
597.466	18219.24
597.662	18268.39
597.859	18026.73
598.055	18030.83
598.252	17826.03
598.448	18071.79
598.645	17701.11
598.841	17619.19
599.038	17615.09
599.234	17852.66
599.431	17488.12
599.627	17594.61
599.824	17654
600.02	17500.4
600.217	17367.29
600.413	17449.21
600.609	17250.55
600.806	16978.17
601.002	17432.82
601.198	17314.04
601.395	16951.55
601.591	17021.18
601.787	17172.73
601.984	16984.32
602.18	17211.64
602.376	16886.01
602.572	16666.88
602.769	16466.18
602.965	16650.5
603.161	16652.55
603.357	16697.6
603.553	16517.38
603.75	16726.27
603.946	16478.47
604.142	16378.12
604.338	16300.3
604.534	16265.48
604.73	16060.68
604.926	16177.42
605.122	16158.99
605.318	16075.02
605.514	16167.18
605.71	16056.59
605.906	15845.65
606.102	15851.79
606.298	15823.12
606.494	15798.54
606.69	15722.77
606.886	15649.04
607.082	15630.61
607.278	15847.69
607.474	15733.01
607.67	15649.04
607.866	15470.87
608.062	15364.37
608.257	15665.42
608.453	15581.46
608.649	15497.49
608.845	15042.84
609.041	15253.78
609.236	15374.61
609.432	15171.86
609.628	15079.71
609.824	15362.33
610.019	15188.25
610.215	15010.07
610.411	15241.5
610.606	15100.19
610.802	15108.38
610.998	14885.15
611.193	15175.96
611.389	15020.31
611.584	14784.8
611.78	14823.71
611.976	14919.96
612.171	14770.46
612.367	14684.45
612.562	14547.23
612.758	14743.84
612.953	14647.58
613.149	14887.2
613.344	14569.76
613.539	14833.95
613.735	14655.78
613.93	14692.64
614.126	14420.26
614.321	14473.51
614.517	14395.68
614.712	14539.04
614.907	14254.37
615.103	14491.94
615.298	14176.55
615.493	14338.34
615.688	14070.06
615.884	14375.2
616.079	14037.29
616.274	14317.86
616.47	14219.56
616.665	14227.75
616.86	14342.44
617.055	14039.34
617.25	13873.45
617.445	14088.49
617.641	13973.8
617.836	14072.11
618.031	13779.25
618.226	13699.37
618.421	13447.47
618.616	13852.97
618.811	13521.2
619.006	13783.34
619.201	13465.91
619.396	13601.07
619.591	13588.78
619.786	13490.48
619.981	13250.87
620.176	13531.44
620.371	13185.33
620.566	13207.86
620.761	12929.34
620.956	13103.42
621.151	13019.45
621.346	13097.27
621.541	13029.69
621.735	12960.06
621.93	12802.36
622.125	13027.64
622.32	12572.99
622.515	12753.21
622.709	12458.31
622.904	12560.7
623.099	12441.92
623.294	12212.55
623.488	12300.61
623.683	12222.79
623.878	12030.28
624.072	12175.69
624.267	12126.53
624.462	11913.55
624.656	11718.99
624.851	11956.55
625.046	11792.72
625.24	11706.7
625.435	11516.24
625.629	11571.54
625.824	11518.29
626.018	11762
626.213	11383.12
626.407	11233.62
626.602	11129.17
626.796	11354.45
626.991	11270.48
627.185	11225.43
627.38	11028.82
627.574	10953.05
627.768	10957.14
627.963	10955.1
628.157	10897.75
628.352	10918.23
628.546	10795.36
628.74	10652
628.935	10590.56
629.129	10498.4
629.323	10256.74
629.517	10453.34
629.712	10324.32
629.906	10183.01
630.1	10246.5
630.294	10064.23
630.489	10019.18
630.683	10043.75
630.877	9877.87
631.071	9828.71
631.265	9879.91
631.459	9728.36
631.653	9843.05
631.848	9689.45
632.042	9707.88
632.236	9783.66
632.43	9642.35
632.624	9711.98
632.818	9511.28
633.012	9580.91
633.206	9429.36
633.4	9490.8
633.594	9224.56
633.788	9542
633.982	9376.11
634.176	9195.89
634.369	9226.61
634.563	9208.18
634.757	9140.6
634.951	9050.49
635.145	8991.09
635.339	9124.21
635.533	8802.68
635.726	8808.83
635.92	8784.25
636.114	8612.22
636.308	8704.38
636.501	8632.7
636.695	8700.28
636.889	8565.12
637.083	8407.42
637.276	8466.81
637.47	8511.87
637.664	8462.72
637.857	8511.87
638.051	8391.04
638.244	8030.6
638.438	8184.2
638.632	8165.76
638.825	8012.17
639.019	8192.39
639.212	7985.54
639.406	7969.16
639.599	7983.49
639.793	7893.38
639.986	7614.86
640.18	7838.09
640.373	7745.93
640.567	7795.08
640.76	7690.63
640.954	7446.93
641.147	7602.57
641.34	7604.62
641.534	7465.36
641.727	7301.52
641.92	7416.21
642.114	7213.46
642.307	7180.69
642.5	7393.68
642.694	7137.68
642.887	7334.29
643.08	7311.76
643.273	7094.68
643.467	7231.89
643.66	7035.28
643.853	7176.59
644.046	7045.52
644.239	7049.62
644.432	6764.95
644.626	7010.71
644.819	6955.41
645.012	6924.69
645.205	6738.33
645.398	6758.81
645.591	6732.19
645.784	6541.72
645.977	6435.23
646.17	6664.6
646.363	6361.5
646.556	6455.71
646.749	6459.81
646.942	6498.72
647.135	6451.61
647.328	6287.78
647.521	6302.11
647.714	6347.17
647.907	6197.67
648.099	6044.07
648.292	6058.4
648.485	6052.26
648.678	6050.21
648.871	5976.48
649.064	5888.42
649.256	5921.19
649.449	5939.62
649.642	6031.78
649.835	5829.03
650.027	5798.31
650.22	5802.41
650.413	5851.56
650.605	5749.16
650.798	5767.59
650.991	5796.26
651.183	5800.36
651.376	5505.45
651.568	5595.56
651.761	5444.01
651.954	5550.51
652.146	5538.22
652.339	5474.73
652.531	5534.12
652.724	5480.88
652.916	5364.14
653.109	5372.33
653.301	5161.39
653.494	5290.42
653.686	5280.18
653.879	5323.18
654.071	5200.3
654.263	5243.31
654.456	5171.63
654.648	5183.92
654.84	5044.66
655.033	4903.35
655.225	5056.95
655.417	5161.39
655.61	5095.86
655.802	4983.22
655.994	4997.56
656.186	5011.89
656.379	4872.63
656.571	4727.22
656.763	4929.97
656.955	4815.29
657.148	4790.71
657.34	4854.2
657.532	4669.88
657.724	4733.37
657.916	4706.74
658.108	4692.41
658.3	4409.79
658.492	4620.73
658.684	4594.11
658.876	4534.71
659.068	4559.29
659.26	4534.71
659.452	4344.25
659.644	4344.25
659.836	4411.84
660.028	4415.93
660.22	4383.17
660.412	4372.93
660.604	4297.15
660.796	4178.37
660.988	4403.64
661.18	4204.99
661.372	4293.05
661.563	4219.33
661.755	4006.34
661.947	4209.09
662.139	4186.56
662.331	4207.04
662.522	4170.18
662.714	4047.3
662.906	4071.87
663.097	3992
663.289	4069.83
663.481	3926.47
663.673	3867.08
663.864	3920.32
664.056	3883.46
664.247	3852.74
664.439	3916.23
664.631	3840.45
664.822	3850.69
665.014	3926.47
665.205	3822.02
665.397	3758.53
665.588	3807.69
665.78	3627.46
665.971	3707.34
666.163	3647.94
666.354	3574.22
666.546	3635.66
666.737	3584.46
666.929	3545.55
667.12	3686.86
667.311	3568.07
667.503	3561.93
667.694	3551.69
667.885	3422.67
668.077	3523.02
668.268	3453.39
668.459	3496.39
668.651	3367.37
668.842	3377.61
669.033	3383.76
669.224	3330.51
669.416	3377.61
669.607	3400.14
669.798	3303.89
669.989	3215.82
670.18	3183.06
670.371	3334.61
670.563	3307.98
670.754	3246.54
670.945	3273.17
671.136	3215.82
671.327	3144.14
671.518	3140.05
671.709	3262.93
671.9	3133.9
672.091	3226.06
672.282	3176.91
672.473	3058.13
672.664	3049.94
672.855	3088.85
673.046	3127.76
673.237	3119.57
673.428	3133.9
673.619	3183.06
673.809	3090.9
674	3084.75
674.191	2929.11
674.382	3031.51
674.573	3031.51
674.764	2961.87
674.954	2974.16
675.145	2875.86
675.336	2873.81
675.527	2974.16
675.717	3011.03
675.908	2808.28
676.099	2845.14
676.289	2822.61
676.48	2824.66
676.671	2949.59
676.861	2716.12
677.052	2867.67
677.243	2707.93
677.433	2795.99
677.624	2865.62
677.814	2703.83
678.005	2974.16
678.195	2865.62
678.386	2752.98
678.576	2709.97
678.767	2714.07
678.957	2693.59
679.148	2867.67
679.338	2699.73
679.529	2791.89
679.719	2658.78
679.909	2671.06
680.1	2795.99
680.29	2785.75
680.481	2642.39
680.671	2619.86
680.861	2640.34
681.052	2689.49
681.242	2695.64
681.432	2744.79
681.622	2605.53
681.813	2755.03
682.003	2736.6
682.193	2558.42
682.383	2634.2
682.573	2619.86
682.764	2644.44
682.954	2666.97
683.144	2640.34
683.334	2636.25
683.524	2654.68
683.714	2623.96
683.904	2615.77
684.094	2523.61
684.284	2525.66
684.474	2585.05
684.664	2568.66
684.854	2669.02
685.044	2601.43
685.234	2562.52
685.424	2599.38
685.614	2556.38
685.804	2570.71
685.994	2546.14
686.184	2531.8
686.374	2384.35
686.564	2478.55
686.753	2431.45
686.943	2583
687.133	2474.46
687.323	2496.99
687.513	2451.93
687.702	2382.3
687.892	2484.7
688.082	2462.17
688.272	2480.6
688.461	2480.6
688.651	2410.97
688.841	2327
689.03	2468.31
689.22	2423.26
689.41	2402.78
689.599	2314.72
689.789	2316.76
689.979	2421.21
690.168	2380.25
690.358	2355.68
690.547	2339.29
690.737	2361.82
690.926	2441.69
691.116	2372.06
691.305	2296.28
691.495	2339.29
691.684	2324.96
691.874	2439.64
692.063	2300.38
692.252	2329.05
692.442	2306.52
692.631	2365.92
692.82	2230.75
693.01	2273.76
693.199	2300.38
693.388	2232.8
693.578	2294.24
693.767	2181.6
693.956	2310.62
694.146	2226.65
694.335	2271.71
694.524	2189.79
694.713	2230.75
694.902	2146.78
695.092	2169.31
695.281	2169.31
695.47	2159.07
695.659	2230.75
695.848	2234.85
696.037	2140.64
696.226	2216.41
696.415	2079.2
696.604	2177.5
696.793	2095.58
696.982	2152.93
697.171	2177.5
697.36	2107.87
697.549	2025.95
697.738	2060.77
697.927	2138.59
698.116	2136.54
698.305	2200.03
698.494	2124.26
698.683	2023.91
698.872	2120.16
699.061	2103.78
699.25	2130.4
699.438	2150.88
699.627	2015.71
699.816	2169.31
700.005	2109.92
700.193	2109.92
700.382	1978.85
700.571	2085.34
700.76	2046.43
700.948	2001.38
701.137	1982.95
701.326	2005.47
701.514	1999.33
701.703	1882.6
701.892	1935.84
702.08	2013.67
702.269	2023.91
702.457	2011.62
702.646	2079.2
702.834	2005.47
703.023	1956.32
703.212	1980.9
703.4	1978.85
703.589	1989.09
703.777	2068.96
703.965	2009.57
704.154	1970.66
704.342	1964.51
704.531	1995.23
704.719	1892.84
704.907	2060.77
705.096	1868.26
705.284	1987.04
705.472	1958.37
705.661	1878.5
705.849	1888.74
706.037	1921.51
706.226	1901.03
706.414	1997.28
706.602	1851.88
706.79	1847.78
706.979	1894.88
707.167	1901.03
707.355	1905.12
707.543	1923.55
707.731	1931.75
707.919	1823.2
708.107	1964.51
708.296	1919.46
708.484	1808.87
708.672	1880.55
708.86	1939.94
709.048	1870.31
709.236	1804.77
709.424	1952.23
709.612	1808.87
709.8	1823.2
709.988	1761.77
710.176	1921.51
710.364	1790.44
710.551	1839.59
710.739	1872.36
710.927	1772
711.115	1841.64
711.303	1845.73
711.491	1806.82
711.679	1847.78
711.866	1751.53
712.054	1790.44
712.242	1815.01
712.43	1839.59
712.617	1710.57
712.805	1860.07
712.993	1815.01
713.181	1671.65
713.368	1835.49
713.556	1747.43
713.744	1749.48
713.931	1831.4
714.119	1796.58
714.306	1829.35
714.494	1716.71
714.682	1714.66
714.869	1847.78
715.057	1714.66
715.244	1685.99
715.432	1706.47
715.619	1710.57
715.807	1817.06
715.994	1747.43
716.182	1716.71
716.369	1724.9
716.556	1761.77
716.744	1720.81
716.931	1751.53
717.119	1722.85
717.306	1577.45
717.493	1647.08
717.681	1624.55
717.868	1659.37
718.055	1675.75
718.242	1589.74
718.43	1610.22
718.617	1653.22
718.804	1724.9
718.991	1661.41
719.179	1763.81
719.366	1620.46
719.553	1677.8
719.74	1470.95
719.927	1589.74
720.114	1554.92
720.301	1534.44
720.488	1659.37
720.676	1651.17
720.863	1530.34
721.05	1599.98
721.237	1634.79
721.424	1726.95
721.611	1647.08
721.798	1483.24
721.985	1554.92
722.172	1511.91
722.358	1565.16
722.545	1563.11
722.732	1575.4
722.919	1563.11
723.106	1552.87
723.293	1509.86
723.48	1585.64
723.667	1550.82
723.853	1452.52
724.04	1612.26
724.227	1509.86
724.414	1542.63
724.6	1532.39
724.787	1530.34
724.974	1503.72
725.161	1507.82
725.347	1511.91
725.534	1526.25
725.72	1534.44
725.907	1434.09
726.094	1511.91
726.28	1417.71
726.467	1481.19
726.653	1534.44
726.84	1577.45
727.027	1559.02
727.213	1436.14
727.4	1565.16
727.586	1569.26
727.773	1429.99
727.959	1399.27
728.145	1481.19
728.332	1481.19
728.518	1458.67
728.705	1595.88
728.891	1464.81
729.077	1468.91
729.264	1536.49
729.45	1470.95
729.636	1559.02
729.823	1487.34
730.009	1460.71
730.195	1516.01
730.382	1505.77
730.568	1520.1
730.754	1382.89
730.94	1458.67
731.126	1530.34
731.313	1436.14
731.499	1448.43
731.685	1528.3
731.871	1507.82
732.057	1448.43
732.243	1534.44
732.429	1417.71
732.615	1495.53
732.801	1382.89
732.987	1464.81
733.173	1413.61
733.359	1413.61
733.545	1470.95
733.731	1434.09
733.917	1432.04
734.103	1464.81
734.289	1493.48
734.475	1391.08
734.661	1374.7
734.847	1442.28
735.033	1354.22
735.219	1380.84
735.404	1384.94
735.59	1450.47
735.776	1397.23
735.962	1370.6
736.148	1432.04
736.333	1413.61
736.519	1346.03
736.705	1380.84
736.89	1386.99
737.076	1405.42
737.262	1448.43
737.447	1429.99
737.633	1378.79
737.819	1438.19
738.004	1356.27
738.19	1323.5
738.375	1382.89
738.561	1436.14
738.747	1485.29
738.932	1429.99
739.118	1331.69
739.303	1264.11
739.489	1337.84
739.674	1399.27
739.859	1331.69
740.045	1409.51
740.23	1421.8
740.416	1343.98
740.601	1307.12
740.786	1360.36
740.972	1266.16
741.157	1352.17
741.342	1290.73
741.528	1389.03
741.713	1440.23
741.898	1315.31
742.084	1331.69
742.269	1286.64
742.454	1296.88
742.639	1399.27
742.824	1307.12
743.01	1274.35
743.195	1315.31
743.38	1311.21
743.565	1298.92
743.75	1290.73
743.935	1282.54
744.12	1182.19
744.305	1221.1
744.49	1227.25
744.675	1251.82
744.86	1307.12
745.045	1229.29
745.23	1303.02
745.415	1219.05
745.6	1276.4
745.785	1204.72
745.97	1360.36
746.155	1151.47
746.34	1192.43
746.525	1114.61
746.71	1184.24
746.895	1147.37
747.079	1094.13
747.264	1184.24
747.449	1167.85
747.634	1112.56
747.819	1159.66
748.003	1155.57
748.188	1219.05
748.373	1096.18
748.557	1180.14
748.742	1061.36
748.927	1055.22
749.111	1147.37
749.296	1081.84
749.481	1081.84
749.665	1192.43
749.85	1135.09
750.034	1114.61
750.219	1006.06
750.404	1130.99
750.588	1147.37
750.773	1044.98
750.957	1077.74
751.141	956.91
751.326	985.58
751.51	1042.93
751.695	1061.36
751.879	1085.94
752.064	1094.13
752.248	963.06
752.432	997.87
752.617	948.72
752.801	965.11
752.985	1006.06
753.17	987.63
753.354	909.81
753.538	913.91
753.722	864.75
753.907	846.32
754.091	887.28
754.275	860.66
754.459	897.52
754.643	881.14
754.828	889.33
755.012	901.62
755.196	836.08
755.38	858.61
755.564	903.67
755.748	864.75
755.932	887.28
756.116	858.61
756.3	901.62
756.484	852.47
756.668	885.23
756.852	856.56
757.036	903.67
757.22	735.73
757.404	821.75
757.588	866.8
757.772	819.7
757.956	856.56
758.14	891.38
758.323	805.36
758.507	842.23
758.691	819.7
758.875	874.99
759.059	807.41
759.242	825.84
759.426	772.6
759.61	774.64
759.794	709.11
759.977	721.4
760.161	741.88
760.345	713.21
760.528	737.78
760.712	727.54
760.895	776.69
761.079	711.16
761.263	719.35
761.446	717.3
761.63	694.77
761.813	743.92
761.997	715.25
762.18	668.15
762.364	745.97
762.547	743.92
762.731	764.4
762.914	676.34
763.098	694.77
763.281	723.44
763.464	694.77
763.648	686.58
763.831	666.1
764.015	645.62
764.198	717.3
764.381	688.63
764.564	698.87
764.748	700.92
764.931	668.15
765.114	711.16
765.297	659.96
765.481	612.85
765.664	565.75
765.847	662.01
766.03	616.95
766.213	610.81
766.397	651.77
766.58	621.05
766.763	571.9
766.946	541.18
767.129	676.34
767.312	682.49
767.495	602.61
767.678	645.62
767.861	659.96
768.044	702.97
768.227	643.57
768.41	637.43
768.593	565.75
768.776	655.86
768.959	578.04
769.142	631.29
769.324	612.85
769.507	598.52
769.69	578.04
769.873	555.51
770.056	547.32
770.239	578.04
770.421	553.46
770.604	541.18
770.787	551.42
770.97	532.98
771.152	549.37
771.335	541.18
771.518	596.47
771.7	553.46
771.883	639.48
772.066	537.08
772.248	567.8
772.431	543.22
772.613	639.48
772.796	539.13
772.978	498.17
773.161	473.59
773.343	604.66
773.526	545.27
773.708	573.94
773.891	616.95
774.073	539.13
774.256	465.4
774.438	455.16
774.621	512.5
774.803	489.98
774.985	483.83
775.168	477.69
775.35	537.08
775.532	508.41
775.715	549.37
775.897	496.12
776.079	498.17
776.261	561.66
776.444	526.84
776.626	442.87
776.808	557.56
776.99	461.3
777.173	457.21
777.355	512.5
777.537	358.91
777.719	559.61
777.901	373.24
778.083	377.34
778.265	363
778.447	430.59
778.629	430.59
778.811	422.39
778.993	422.39
779.175	434.68
779.357	434.68
779.539	455.16
779.721	449.02
779.903	418.3
780.085	457.21
780.267	365.05
780.449	381.43
780.631	293.37
780.812	465.4
780.994	442.87
781.176	332.28
781.358	360.95
781.54	279.04
781.721	399.87
781.903	381.43
782.085	352.76
782.267	379.39
782.448	330.23
782.63	313.85
782.812	363
782.993	385.53
783.175	367.1
783.357	389.63
783.538	391.67
783.72	291.32
783.901	352.76
784.083	338.43
784.264	356.86
784.446	248.32
784.627	340.47
784.809	399.87
784.99	354.81
785.172	340.47
785.353	348.67
785.535	283.13
785.716	289.28
785.897	272.89
786.079	403.96
786.26	248.32
786.441	283.13
786.623	301.56
786.804	195.07
786.985	254.46
787.167	270.84
787.348	324.09
787.529	334.33
787.71	279.04
787.891	291.32
788.073	293.37
788.254	248.32
788.435	270.84
788.616	242.17
788.797	256.51
788.978	328.19
789.159	320
789.34	236.03
789.522	287.23
789.703	244.22
789.884	227.84
790.065	262.65
790.246	219.64
790.427	250.36
790.607	193.02
790.788	223.74
790.969	254.46
791.15	283.13
791.331	227.84
791.512	268.8
791.693	238.08
791.874	266.75
792.054	219.64
792.235	227.84
792.416	244.22
792.597	285.18
792.778	256.51
792.958	272.89
793.139	160.25
793.32	197.12
793.5	199.16
793.681	268.8
793.862	141.82
794.042	203.26
794.223	180.73
794.404	215.55
794.584	227.84
794.765	221.69
794.945	250.36
795.126	225.79
795.306	221.69
795.487	209.4
795.667	162.3
795.848	281.08
796.028	262.65
796.209	221.69
796.389	223.74
796.57	219.64
796.75	201.21
796.93	266.75
797.111	213.5
797.291	184.83
797.471	170.49
797.652	133.63
797.832	205.31
798.012	205.31
798.192	176.64
798.373	211.45
798.553	160.25
798.733	223.74
798.913	150.01
799.093	117.25
799.274	199.16
799.454	170.49
799.634	178.69
799.814	244.22
799.994	217.6
800.174	162.3
800.354	248.32
800.534	104.96
800.714	184.83
800.894	223.74
801.074	152.06
801.254	197.12
801.434	121.34
801.614	184.83
801.794	182.78
801.974	446.97
802.154	150.01
802.334	131.58
802.514	211.45
802.693	115.2
802.873	166.4
803.053	217.6
803.233	154.11
803.413	141.82
803.592	139.77
803.772	250.36
803.952	80.38
804.131	135.68
804.311	129.53
804.491	219.64
804.67	94.72
804.85	154.11
805.03	152.06
805.209	180.73
805.389	127.49
805.568	152.06
805.748	119.29
805.928	145.92
806.107	184.83
806.287	203.26
806.466	137.73
806.646	127.49
806.825	127.49
807.004	137.73
807.184	98.81
807.363	111.1
807.543	141.82
807.722	98.81
807.901	129.53
808.081	119.29
808.26	94.72
808.439	188.93
808.619	102.91
808.798	111.1
808.977	170.49
809.156	90.62
809.336	141.82
809.515	156.16
809.694	102.91
809.873	139.77
810.052	104.96
810.231	98.81
810.411	72.19
810.59	131.58
810.769	100.86
810.948	72.19
811.127	78.33
811.306	156.16
811.485	100.86
811.664	205.31
811.843	100.86
812.022	123.39
812.201	51.71
812.38	127.49
812.559	127.49
812.737	72.19
812.916	61.95
813.095	109.05
813.274	98.81
813.453	96.77
813.632	86.53
813.811	96.77
813.989	78.33
814.168	70.14
814.347	111.1
814.526	147.97
814.704	84.48
814.883	86.53
815.062	164.35
815.24	102.91
815.419	104.96
815.598	98.81
815.776	205.31
815.955	147.97
816.133	-22.02
816.312	135.68
816.49	139.77
816.669	150.01
816.847	119.29
817.026	96.77
817.204	94.72
817.383	98.81
817.561	18.94
817.74	162.3
817.918	98.81
818.097	119.29
818.275	59.9
818.453	76.29
818.632	115.2
818.81	88.57
818.988	43.52
819.167	82.43
819.345	57.86
819.523	88.57
819.701	47.62
819.879	64
820.058	64
820.236	123.39
820.414	45.57
820.592	66.05
820.77	94.72
820.948	88.57
821.127	72.19
821.305	35.33
821.483	88.57
821.661	145.92
821.839	131.58
822.017	184.83
822.195	66.05
822.373	59.9
822.551	119.29
822.729	90.62
822.907	100.86
823.085	61.95
823.262	107.01
823.44	121.34
823.618	66.05
823.796	156.16
823.974	115.2
824.152	135.68
824.329	107.01
824.507	147.97
824.685	107.01
824.863	25.09
825.04	31.23
825.218	115.2
825.396	55.81
825.574	147.97
825.751	57.86
825.929	72.19
826.107	86.53
826.284	119.29
826.462	37.38
826.639	8.7
826.817	64
826.994	80.38
827.172	4.61
827.349	172.54
827.527	-24.06
827.704	109.05
827.882	102.91
828.059	55.81
828.237	2.56
828.414	72.19
828.591	49.66
828.769	88.57
828.946	41.47
829.124	57.86
829.301	51.71
829.478	82.43
829.655	43.52
829.833	47.62
830.01	51.71
830.187	143.87
830.364	37.38
830.542	102.91
830.719	-9.73
830.896	-34.3
831.073	55.81
831.25	70.14
831.427	61.95
831.604	98.81
831.782	29.18
831.959	121.34
832.136	61.95
832.313	51.71
832.49	64
832.667	88.57
832.844	84.48
833.021	94.72
833.198	96.77
833.374	57.86
833.551	41.47
833.728	55.81
833.905	41.47
834.082	37.38
834.259	80.38
834.436	53.76
834.612	41.47
834.789	84.48
834.966	76.29
835.143	119.29
835.319	80.38
835.496	41.47
835.673	10.75
835.85	102.91
836.026	59.9
836.203	29.18
836.38	47.62
836.556	82.43
836.733	96.77
836.909	72.19
837.086	-22.02
837.262	74.24
837.439	96.77
837.616	82.43
837.792	74.24
837.968	29.18
838.145	39.42
838.321	111.1
838.498	72.19
838.674	37.38
838.851	-34.3
839.027	18.94
839.203	61.95
839.38	129.53
839.556	18.94
839.732	-9.73
839.909	-32.26
840.085	117.25
840.261	90.62
840.437	86.53
840.614	4.61
840.79	55.81
840.966	111.1
841.142	4.61
841.318	-13.82
841.494	55.81
841.671	-22.02
841.847	29.18
842.023	55.81
842.199	35.33
842.375	20.99
842.551	29.18
842.727	-17.92
842.903	72.19
843.079	61.95
843.255	107.01
843.431	45.57
843.607	29.18
843.783	68.09
843.959	90.62
844.134	4.61
844.31	39.42
844.486	23.04
844.662	64
844.838	102.91
845.013	88.57
845.189	12.8
845.365	14.85
845.541	49.66
845.716	16.9
845.892	72.19
846.068	2.56
846.244	64
846.419	100.86
846.595	45.57
846.77	49.66
846.946	51.71
847.122	66.05
847.297	61.95
847.473	104.96
847.648	39.42
847.824	39.42
847.999	0.51
848.175	49.66
848.35	35.33
848.526	41.47
848.701	41.47
848.876	43.52
849.052	25.09
849.227	-26.11
849.403	61.95
849.578	-7.68
849.753	-19.97
849.929	29.18
850.104	-32.26
850.279	4.61
850.454	80.38
850.63	66.05
850.805	25.09
850.98	82.43
851.155	4.61
851.33	55.81
851.505	14.85
851.681	45.57
851.856	20.99
852.031	16.9
852.206	76.29
852.381	70.14
852.556	0.51
852.731	84.48
852.906	33.28
853.081	41.47
853.256	23.04
853.431	55.81
853.606	45.57
853.781	92.67
853.956	61.95
854.131	29.18
854.305	0.51
854.48	55.81
854.655	6.66
854.83	-5.63
855.005	88.57
855.18	115.2
855.354	12.8
855.529	-3.58
855.704	41.47
855.879	8.7
856.053	12.8
856.228	0.51
856.403	-85.5
856.577	82.43
856.752	-1.54
856.926	53.76
857.101	127.49
857.276	20.99
857.45	-7.68
857.625	16.9
857.799	86.53
857.974	55.81
858.148	68.09
858.323	39.42
858.497	10.75
858.672	2.56
858.846	-9.73
859.02	41.47
859.195	37.38
859.369	0.51
859.543	14.85
859.718	-19.97
859.892	-17.92
860.066	111.1
860.241	-9.73
860.415	59.9
860.589	20.99
860.763	78.33
860.938	-7.68
861.112	33.28
861.286	14.85
861.46	47.62
861.634	18.94
861.808	37.38
861.982	66.05
862.157	-9.73
862.331	25.09
862.505	37.38
862.679	-1.54
862.853	-13.82
863.027	31.23
863.201	27.14
863.375	37.38
863.549	61.95
863.722	-19.97
863.896	61.95
864.07	23.04
864.244	113.15
864.418	45.57
864.592	66.05
864.766	-7.68
864.939	45.57
865.113	20.99
865.287	41.47
865.461	6.66
865.634	23.04
865.808	-3.58
865.982	94.72
866.156	20.99
866.329	-1.54
866.503	14.85
866.676	-24.06
866.85	68.09
867.024	-40.45
867.197	10.75
867.371	68.09
867.544	20.99
867.718	16.9
867.891	-28.16
868.065	25.09
868.238	4.61
868.412	-28.16
868.585	37.38
868.759	53.76
868.932	-7.68
869.105	29.18
869.279	-11.78
869.452	-38.4
869.625	-9.73
869.799	35.33
869.972	47.62
870.145	-9.73
870.319	-38.4
870.492	-36.35
870.665	27.14
870.838	-19.97
871.011	-11.78
871.185	4.61
871.358	14.85
871.531	72.19
871.704	49.66
871.877	-40.45
872.05	0.51
872.223	2.56
872.396	29.18
872.569	39.42
872.742	35.33
872.915	25.09
873.088	-24.06
873.261	14.85
873.434	-24.06
873.607	-30.21
873.78	-15.87
873.953	-48.64
874.126	49.66
874.299	37.38
874.471	-9.73
874.644	45.57
874.817	53.76
874.99	47.62
875.163	-13.82
875.335	-9.73
875.508	0.51
875.681	45.57
875.853	49.66
876.026	43.52
876.199	41.47
876.371	37.38
876.544	-1.54
876.717	53.76
876.889	-24.06
877.062	-3.58
877.234	-28.16
877.407	74.24
877.579	-5.63
877.752	66.05
877.924	78.33
878.097	55.81
878.269	-11.78
878.442	39.42
878.614	-38.4
878.786	25.09
878.959	2.56
879.131	4.61
879.303	2.56
879.476	-3.58
879.648	29.18
879.82	107.01
879.993	-9.73
880.165	-67.07
880.337	-28.16
880.509	25.09
880.681	-54.78
880.854	16.9
881.026	31.23
881.198	14.85
881.37	-19.97
881.542	2.56
881.714	16.9
881.886	10.75
882.058	4.61
882.23	0.51
882.402	59.9
882.574	37.38
882.746	0.51
882.918	-22.02
883.09	-54.78
883.262	-28.16
883.434	-19.97
883.606	-36.35
883.778	27.14
883.95	41.47
884.122	-1.54
884.293	14.85
884.465	4.61
884.637	27.14
884.809	-24.06
884.98	10.75
885.152	8.7
885.324	41.47
885.496	-22.02
885.667	8.7
885.839	-65.02
886.011	66.05
886.182	2.56
886.354	-3.58
886.525	70.14
886.697	35.33
886.869	-65.02
887.04	-3.58
887.212	-11.78
887.383	37.38
887.555	-1.54
887.726	-22.02
887.897	-17.92
888.069	80.38
888.24	61.95
888.412	23.04
888.583	12.8
888.754	37.38
888.926	64
889.097	23.04
889.268	29.18
889.44	-15.87
889.611	23.04
889.782	20.99
889.953	123.39
890.125	96.77
890.296	18.94
890.467	70.14
890.638	35.33
890.809	37.38
890.98	-44.54
891.151	-24.06
891.323	35.33
891.494	4.61
891.665	4.61
891.836	20.99
892.007	29.18
892.178	-26.11
892.349	14.85
892.52	16.9
892.691	74.24
892.862	31.23
893.032	-32.26
893.203	-62.98
893.374	0.51
893.545	86.53
893.716	-7.68
893.887	0.51
894.057	-9.73
894.228	27.14
894.399	-19.97
894.57	16.9
894.74	-1.54
894.911	-19.97
895.082	-24.06
895.253	43.52
895.423	27.14
895.594	55.81
895.764	-50.69
895.935	-26.11
896.106	37.38
896.276	-3.58
896.447	37.38
896.617	4.61
896.788	-17.92
896.958	14.85
897.129	41.47
897.299	-17.92
897.47	51.71
897.64	20.99
897.81	-34.3
897.981	39.42
898.151	-3.58
898.322	64
898.492	16.9
898.662	-5.63
898.832	72.19
899.003	20.99
899.173	35.33
899.343	80.38
899.513	-26.11
