Data from USB4F104151__40__12-59-04-285.txt Node

Date: Fri Mar 14 12:59:04 EDT 2025
User: louis
Spectrometer: USB4F10415
Trigger mode: 4
Integration Time (sec): 1.000000E-2
Scans to average: 1
Electric dark correction enabled: true
Nonlinearity correction enabled: false
Boxcar width: 0
XAxis mode: Wavelengths
Number of Pixels in Spectrum: 3648
>>>>>Begin Spectral Data<<<<<
178.204	-71.17
178.424	-71.17
178.644	-71.17
178.864	-91.65
179.084	-36.35
179.304	14.85
179.524	6.66
179.744	-50.69
179.964	-22.02
180.184	-7.68
180.404	51.71
180.624	-3.58
180.844	-5.63
181.064	2.56
181.283	-24.06
181.503	18.94
181.723	18.94
181.943	-40.45
182.163	25.09
182.383	27.14
182.602	33.28
182.822	16.9
183.042	-5.63
183.262	0.51
183.482	6.66
183.701	4.61
183.921	-32.26
184.141	-60.93
184.361	41.47
184.58	-19.97
184.8	66.05
185.02	-132.61
185.239	2.56
185.459	55.81
185.679	-19.97
185.898	51.71
186.118	6.66
186.338	10.75
186.557	-42.5
186.777	23.04
186.997	31.23
187.216	-30.21
187.436	16.9
187.655	72.19
187.875	41.47
188.095	27.14
188.314	12.8
188.534	-13.82
188.753	10.75
188.973	27.14
189.192	29.18
189.412	8.7
189.631	39.42
189.851	-24.06
190.07	100.86
190.29	18.94
190.509	35.33
190.729	-22.02
190.948	115.2
191.168	-30.21
191.387	27.14
191.607	-62.98
191.826	16.9
192.045	39.42
192.265	-1.54
192.484	0.51
192.704	31.23
192.923	14.85
193.142	57.86
193.362	102.91
193.581	29.18
193.8	14.85
194.02	39.42
194.239	0.51
194.458	20.99
194.678	39.42
194.897	4.61
195.116	78.33
195.335	80.38
195.555	-22.02
195.774	16.9
195.993	-11.78
196.212	31.23
196.432	-44.54
196.651	14.85
196.87	-26.11
197.089	49.66
197.308	35.33
197.528	-34.3
197.747	29.18
197.966	33.28
198.185	-24.06
198.404	14.85
198.623	12.8
198.842	-34.3
199.062	23.04
199.281	27.14
199.5	4.61
199.719	14.85
199.938	-1.54
200.157	10.75
200.376	39.42
200.595	94.72
200.814	-17.92
201.033	-9.73
201.252	-36.35
201.471	25.09
201.69	-15.87
201.909	43.52
202.128	39.42
202.347	66.05
202.566	59.9
202.785	31.23
203.004	-38.4
203.223	107.01
203.442	47.62
203.661	6.66
203.879	29.18
204.098	35.33
204.317	23.04
204.536	41.47
204.755	27.14
204.974	39.42
205.193	0.51
205.411	51.71
205.63	-9.73
205.849	-9.73
206.068	10.75
206.287	-32.26
206.505	104.96
206.724	-1.54
206.943	-54.78
207.162	18.94
207.381	-7.68
207.599	43.52
207.818	43.52
208.037	64
208.255	20.99
208.474	-7.68
208.693	25.09
208.911	-71.17
209.13	4.61
209.349	80.38
209.567	0.51
209.786	23.04
210.005	37.38
210.223	-54.78
210.442	-7.68
210.661	55.81
210.879	53.76
211.098	14.85
211.316	51.71
211.535	-30.21
211.753	-17.92
211.972	39.42
212.191	-36.35
212.409	14.85
212.628	-7.68
212.846	4.61
213.065	43.52
213.283	2.56
213.502	39.42
213.72	12.8
213.938	33.28
214.157	-44.54
214.375	68.09
214.594	20.99
214.812	-22.02
215.031	35.33
215.249	-26.11
215.467	80.38
215.686	-9.73
215.904	10.75
216.122	23.04
216.341	6.66
216.559	25.09
216.778	49.66
216.996	64
217.214	35.33
217.432	61.95
217.651	-17.92
217.869	-48.64
218.087	8.7
218.306	2.56
218.524	-34.3
218.742	-54.78
218.96	49.66
219.179	49.66
219.397	12.8
219.615	94.72
219.833	49.66
220.051	-15.87
220.27	74.24
220.488	27.14
220.706	47.62
220.924	16.9
221.142	29.18
221.36	45.57
221.578	37.38
221.796	20.99
222.015	12.8
222.233	-15.87
222.451	86.53
222.669	23.04
222.887	10.75
223.105	2.56
223.323	31.23
223.541	-30.21
223.759	45.57
223.977	14.85
224.195	92.67
224.413	10.75
224.631	18.94
224.849	33.28
225.067	39.42
225.285	41.47
225.503	-34.3
225.721	-28.16
225.939	64
226.157	0.51
226.375	51.71
226.592	33.28
226.81	-19.97
227.028	35.33
227.246	10.75
227.464	66.05
227.682	66.05
227.9	27.14
228.117	64
228.335	45.57
228.553	41.47
228.771	-48.64
228.989	29.18
229.206	10.75
229.424	55.81
229.642	57.86
229.86	-38.4
230.077	78.33
230.295	25.09
230.513	-19.97
230.731	45.57
230.948	102.91
231.166	64
231.384	-17.92
231.601	8.7
231.819	78.33
232.037	10.75
232.254	31.23
232.472	47.62
232.689	113.15
232.907	-32.26
233.125	115.2
233.342	-17.92
233.56	14.85
233.777	2.56
233.995	-77.31
234.213	88.57
234.43	33.28
234.648	-38.4
234.865	49.66
235.083	33.28
235.3	-1.54
235.518	31.23
235.735	16.9
235.953	121.34
236.17	-44.54
236.388	16.9
236.605	29.18
236.822	61.95
237.04	55.81
237.257	6.66
237.475	-9.73
237.692	23.04
237.909	-1.54
238.127	-15.87
238.344	-52.74
238.562	-17.92
238.779	-52.74
238.996	61.95
239.214	14.85
239.431	33.28
239.648	68.09
239.865	39.42
240.083	12.8
240.3	8.7
240.517	10.75
240.735	12.8
240.952	10.75
241.169	-1.54
241.386	-42.5
241.603	64
241.821	-32.26
242.038	107.01
242.255	14.85
242.472	45.57
242.689	39.42
242.907	31.23
243.124	27.14
243.341	53.76
243.558	-15.87
243.775	31.23
243.992	14.85
244.209	53.76
244.426	84.48
244.643	80.38
244.86	-28.16
245.078	47.62
245.295	31.23
245.512	66.05
245.729	20.99
245.946	55.81
246.163	55.81
246.38	47.62
246.597	25.09
246.814	25.09
247.031	-9.73
247.248	27.14
247.464	53.76
247.681	-15.87
247.898	14.85
248.115	-42.5
248.332	10.75
248.549	53.76
248.766	70.14
248.983	80.38
249.2	27.14
249.417	25.09
249.633	-1.54
249.85	2.56
250.067	51.71
250.284	2.56
250.501	39.42
250.717	-48.64
250.934	4.61
251.151	31.23
251.368	64
251.585	-26.11
251.801	41.47
252.018	16.9
252.235	-13.82
252.451	72.19
252.668	16.9
252.885	20.99
253.102	-9.73
253.318	39.42
253.535	47.62
253.752	51.71
253.968	78.33
254.185	16.9
254.401	47.62
254.618	31.23
254.835	-38.4
255.051	80.38
255.268	47.62
255.484	6.66
255.701	14.85
255.917	0.51
256.134	68.09
256.351	2.56
256.567	-15.87
256.784	27.14
257	20.99
257.217	57.86
257.433	-11.78
257.65	14.85
257.866	14.85
258.082	41.47
258.299	-24.06
258.515	49.66
258.732	59.9
258.948	31.23
259.165	53.76
259.381	43.52
259.597	4.61
259.814	23.04
260.03	49.66
260.246	6.66
260.463	25.09
260.679	-1.54
260.895	-26.11
261.112	16.9
261.328	20.99
261.544	-24.06
261.761	31.23
261.977	-9.73
262.193	8.7
262.409	59.9
262.626	10.75
262.842	0.51
263.058	18.94
263.274	27.14
263.49	25.09
263.707	4.61
263.923	-34.3
264.139	43.52
264.355	-32.26
264.571	0.51
264.787	-48.64
265.004	25.09
265.22	10.75
265.436	12.8
265.652	35.33
265.868	82.43
266.084	-34.3
266.3	137.73
266.516	-30.21
266.732	57.86
266.948	-1.54
267.164	12.8
267.38	31.23
267.596	-1.54
267.812	33.28
268.028	59.9
268.244	72.19
268.46	-1.54
268.676	23.04
268.892	57.86
269.108	37.38
269.324	-11.78
269.54	-71.17
269.756	8.7
269.972	4.61
270.188	-38.4
270.403	23.04
270.619	33.28
270.835	-1.54
271.051	-42.5
271.267	92.67
271.483	78.33
271.698	-13.82
271.914	57.86
272.13	-5.63
272.346	-13.82
272.562	35.33
272.777	64
272.993	115.2
273.209	35.33
273.425	25.09
273.64	-17.92
273.856	8.7
274.072	-11.78
274.287	-54.78
274.503	-17.92
274.719	-58.88
274.934	-1.54
275.15	18.94
275.366	55.81
275.581	41.47
275.797	37.38
276.012	72.19
276.228	-13.82
276.444	29.18
276.659	47.62
276.875	18.94
277.09	-28.16
277.306	-7.68
277.521	4.61
277.737	12.8
277.952	96.77
278.168	23.04
278.383	59.9
278.599	35.33
278.814	66.05
279.03	-19.97
279.245	2.56
279.461	27.14
279.676	37.38
279.892	33.28
280.107	18.94
280.322	35.33
280.538	53.76
280.753	-52.74
280.969	35.33
281.184	57.86
281.399	100.86
281.615	-3.58
281.83	35.33
282.045	-79.36
282.26	68.09
282.476	-42.5
282.691	14.85
282.906	27.14
283.122	39.42
283.337	-24.06
283.552	43.52
283.767	45.57
283.983	-11.78
284.198	6.66
284.413	84.48
284.628	33.28
284.843	16.9
285.058	-60.93
285.274	6.66
285.489	18.94
285.704	47.62
285.919	39.42
286.134	-5.63
286.349	35.33
286.564	0.51
286.779	66.05
286.995	6.66
287.21	12.8
287.425	27.14
287.64	16.9
287.855	41.47
288.07	-5.63
288.285	72.19
288.5	20.99
288.715	-40.45
288.93	31.23
289.145	45.57
289.36	8.7
289.575	20.99
289.79	-15.87
290.004	33.28
290.219	14.85
290.434	10.75
290.649	47.62
290.864	84.48
291.079	-17.92
291.294	-5.63
291.509	-42.5
291.724	12.8
291.938	90.62
292.153	20.99
292.368	35.33
292.583	2.56
292.798	4.61
293.012	45.57
293.227	-1.54
293.442	16.9
293.657	8.7
293.871	33.28
294.086	53.76
294.301	88.57
294.516	45.57
294.73	55.81
294.945	-3.58
295.16	90.62
295.374	76.29
295.589	76.29
295.804	0.51
296.018	43.52
296.233	16.9
296.447	14.85
296.662	-22.02
296.877	107.01
297.091	39.42
297.306	90.62
297.52	4.61
297.735	39.42
297.949	6.66
298.164	39.42
298.378	2.56
298.593	33.28
298.807	-24.06
299.022	88.57
299.236	-28.16
299.451	35.33
299.665	27.14
299.88	-19.97
300.094	31.23
300.309	-38.4
300.523	-58.88
300.737	74.24
300.952	-1.54
301.166	31.23
301.381	-11.78
301.595	29.18
301.809	94.72
302.024	0.51
302.238	-19.97
302.452	12.8
302.667	16.9
302.881	25.09
303.095	43.52
303.309	94.72
303.524	29.18
303.738	2.56
303.952	23.04
304.166	31.23
304.381	-3.58
304.595	39.42
304.809	12.8
305.023	53.76
305.237	41.47
305.452	53.76
305.666	-26.11
305.88	39.42
306.094	14.85
306.308	39.42
306.522	-40.45
306.736	78.33
306.95	-7.68
307.164	27.14
307.379	23.04
307.593	61.95
307.807	37.38
308.021	25.09
308.235	84.48
308.449	12.8
308.663	-7.68
308.877	61.95
309.091	-30.21
309.305	29.18
309.519	0.51
309.733	31.23
309.947	51.71
310.161	-24.06
310.374	53.76
310.588	8.7
310.802	59.9
311.016	41.47
311.23	-1.54
311.444	23.04
311.658	43.52
311.872	2.56
312.085	23.04
312.299	70.14
312.513	37.38
312.727	66.05
312.941	-17.92
313.154	18.94
313.368	66.05
313.582	27.14
313.796	43.52
314.009	0.51
314.223	6.66
314.437	45.57
314.651	49.66
314.864	-58.88
315.078	25.09
315.292	45.57
315.505	-32.26
315.719	-7.68
315.933	57.86
316.146	23.04
316.36	-93.69
316.573	90.62
316.787	0.51
317.001	0.51
317.214	-11.78
317.428	8.7
317.641	6.66
317.855	-34.3
318.068	-36.35
318.282	25.09
318.495	29.18
318.709	-7.68
318.922	2.56
319.136	82.43
319.349	66.05
319.563	61.95
319.776	14.85
319.99	10.75
320.203	51.71
320.417	61.95
320.63	8.7
320.843	113.15
321.057	4.61
321.27	53.76
321.483	23.04
321.697	29.18
321.91	39.42
322.124	96.77
322.337	-38.4
322.55	80.38
322.763	41.47
322.977	-1.54
323.19	-5.63
323.403	35.33
323.617	23.04
323.83	55.81
324.043	-28.16
324.256	16.9
324.469	-46.59
324.683	37.38
324.896	39.42
325.109	-3.58
325.322	-17.92
325.535	49.66
325.748	66.05
325.962	41.47
326.175	14.85
326.388	39.42
326.601	92.67
326.814	31.23
327.027	33.28
327.24	29.18
327.453	-15.87
327.666	80.38
327.879	-1.54
328.092	10.75
328.305	68.09
328.518	16.9
328.731	-7.68
328.944	-1.54
329.157	14.85
329.37	59.9
329.583	23.04
329.796	2.56
330.009	10.75
330.222	49.66
330.435	64
330.648	41.47
330.861	16.9
331.073	94.72
331.286	57.86
331.499	14.85
331.712	-44.54
331.925	43.52
332.138	31.23
332.35	57.86
332.563	82.43
332.776	57.86
332.989	37.38
333.202	74.24
333.414	0.51
333.627	43.52
333.84	45.57
334.053	41.47
334.265	133.63
334.478	55.81
334.691	23.04
334.903	23.04
335.116	-1.54
335.329	49.66
335.541	88.57
335.754	47.62
335.966	39.42
336.179	37.38
336.392	20.99
336.604	45.57
336.817	55.81
337.029	27.14
337.242	4.61
337.454	41.47
337.667	-1.54
337.88	66.05
338.092	41.47
338.305	43.52
338.517	41.47
338.729	49.66
338.942	82.43
339.154	12.8
339.367	-17.92
339.579	47.62
339.792	23.04
340.004	41.47
340.217	64
340.429	29.18
340.641	16.9
340.854	0.51
341.066	-9.73
341.278	31.23
341.491	25.09
341.703	-1.54
341.915	37.38
342.128	41.47
342.34	31.23
342.552	25.09
342.764	-28.16
342.977	55.81
343.189	80.38
343.401	14.85
343.613	90.62
343.826	31.23
344.038	-3.58
344.25	2.56
344.462	31.23
344.674	4.61
344.886	4.61
345.099	70.14
345.311	-17.92
345.523	-22.02
345.735	29.18
345.947	111.1
346.159	4.61
346.371	82.43
346.583	29.18
346.795	51.71
347.007	2.56
347.219	80.38
347.431	31.23
347.643	23.04
347.855	-50.69
348.067	47.62
348.279	47.62
348.491	18.94
348.703	23.04
348.915	61.95
349.127	-5.63
349.339	100.86
349.551	-13.82
349.763	49.66
349.975	-22.02
350.187	59.9
350.399	66.05
350.61	66.05
350.822	0.51
351.034	59.9
351.246	8.7
351.458	18.94
351.669	-22.02
351.881	86.53
352.093	-42.5
352.305	37.38
352.517	8.7
352.728	47.62
352.94	23.04
353.152	70.14
353.363	35.33
353.575	59.9
353.787	82.43
353.999	57.86
354.21	2.56
354.422	129.53
354.633	31.23
354.845	90.62
355.057	84.48
355.268	10.75
355.48	66.05
355.692	8.7
355.903	76.29
356.115	14.85
356.326	-42.5
356.538	88.57
356.749	6.66
356.961	57.86
357.172	23.04
357.384	39.42
357.595	41.47
357.807	78.33
358.018	70.14
358.23	121.34
358.441	107.01
358.653	-19.97
358.864	72.19
359.075	68.09
359.287	-1.54
359.498	88.57
359.709	39.42
359.921	-1.54
360.132	86.53
360.344	96.77
360.555	33.28
360.766	14.85
360.977	-48.64
361.189	51.71
361.4	66.05
361.611	113.15
361.823	-36.35
362.034	10.75
362.245	49.66
362.456	14.85
362.667	92.67
362.879	43.52
363.09	37.38
363.301	33.28
363.512	43.52
363.723	-17.92
363.935	82.43
364.146	51.71
364.357	31.23
364.568	39.42
364.779	23.04
364.99	74.24
365.201	10.75
365.412	-5.63
365.623	-67.07
365.834	18.94
366.045	-17.92
366.256	82.43
366.467	-42.5
366.678	18.94
366.889	35.33
367.1	33.28
367.311	47.62
367.522	88.57
367.733	16.9
367.944	39.42
368.155	-32.26
368.366	-15.87
368.577	68.09
368.788	25.09
368.999	43.52
369.209	12.8
369.42	20.99
369.631	39.42
369.842	84.48
370.053	57.86
370.264	64
370.474	31.23
370.685	23.04
370.896	102.91
371.107	90.62
371.317	57.86
371.528	-9.73
371.739	14.85
371.95	8.7
372.16	76.29
372.371	-34.3
372.582	29.18
372.792	51.71
373.003	64
373.214	64
373.424	82.43
373.635	10.75
373.846	96.77
374.056	23.04
374.267	39.42
374.477	74.24
374.688	2.56
374.898	39.42
375.109	61.95
375.319	31.23
375.53	-11.78
375.74	20.99
375.951	53.76
376.161	14.85
376.372	68.09
376.582	-13.82
376.793	57.86
377.003	51.71
377.214	-5.63
377.424	72.19
377.635	57.86
377.845	0.51
378.055	47.62
378.266	39.42
378.476	76.29
378.686	47.62
378.897	27.14
379.107	100.86
379.317	88.57
379.528	35.33
379.738	66.05
379.948	-40.45
380.158	47.62
380.369	12.8
380.579	53.76
380.789	12.8
380.999	31.23
381.21	45.57
381.42	39.42
381.63	-7.68
381.84	18.94
382.05	45.57
382.261	39.42
382.471	57.86
382.681	4.61
382.891	129.53
383.101	57.86
383.311	-9.73
383.521	55.81
383.731	45.57
383.941	74.24
384.151	74.24
384.361	47.62
384.571	29.18
384.781	10.75
384.991	16.9
385.201	55.81
385.411	25.09
385.621	4.61
385.831	-40.45
386.041	14.85
386.251	55.81
386.461	66.05
386.671	-3.58
386.881	39.42
387.091	-13.82
387.301	31.23
387.511	57.86
387.72	8.7
387.93	20.99
388.14	-22.02
388.35	23.04
388.56	80.38
388.769	41.47
388.979	4.61
389.189	57.86
389.399	59.9
389.609	-5.63
389.818	80.38
390.028	72.19
390.238	76.29
390.447	-11.78
390.657	35.33
390.867	37.38
391.076	78.33
391.286	88.57
391.496	37.38
391.705	0.51
391.915	39.42
392.125	4.61
392.334	-15.87
392.544	-17.92
392.753	18.94
392.963	29.18
393.172	-22.02
393.382	70.14
393.591	47.62
393.801	55.81
394.01	16.9
394.22	47.62
394.429	14.85
394.639	-15.87
394.848	74.24
395.058	25.09
395.267	90.62
395.477	57.86
395.686	94.72
395.895	88.57
396.105	80.38
396.314	39.42
396.524	94.72
396.733	57.86
396.942	88.57
397.152	72.19
397.361	68.09
397.57	115.2
397.78	66.05
397.989	53.76
398.198	125.44
398.407	98.81
398.617	82.43
398.826	74.24
399.035	49.66
399.244	76.29
399.453	47.62
399.663	84.48
399.872	66.05
400.081	86.53
400.29	55.81
400.499	43.52
400.708	74.24
400.917	74.24
401.127	96.77
401.336	12.8
401.545	80.38
401.754	72.19
401.963	18.94
402.172	139.77
402.381	135.68
402.59	55.81
402.799	68.09
403.008	70.14
403.217	61.95
403.426	45.57
403.635	12.8
403.844	70.14
404.053	64
404.262	129.53
404.471	143.87
404.68	96.77
404.888	150.01
405.097	18.94
405.306	107.01
405.515	131.58
405.724	123.39
405.933	154.11
406.142	61.95
406.35	145.92
406.559	133.63
406.768	121.34
406.977	123.39
407.185	170.49
407.394	162.3
407.603	111.1
407.812	78.33
408.02	211.45
408.229	203.26
408.438	107.01
408.646	129.53
408.855	160.25
409.064	98.81
409.272	174.59
409.481	180.73
409.69	121.34
409.898	272.89
410.107	236.03
410.315	236.03
410.524	197.12
410.733	285.18
410.941	258.56
411.15	201.21
411.358	332.28
411.567	160.25
411.775	195.07
411.984	254.46
412.192	236.03
412.401	195.07
412.609	258.56
412.818	297.47
413.026	252.41
413.234	305.66
413.443	332.28
413.651	279.04
413.86	328.19
414.068	266.75
414.276	352.76
414.485	408.06
414.693	350.71
414.901	424.44
415.11	377.34
415.318	410.11
415.526	336.38
415.734	420.35
415.943	373.24
416.151	446.97
416.359	489.98
416.567	506.36
416.776	535.03
416.984	535.03
417.192	541.18
417.4	557.56
417.608	561.66
417.817	637.43
418.025	745.97
418.233	600.57
418.441	657.91
418.649	649.72
418.857	739.83
419.065	670.2
419.273	754.16
419.481	874.99
419.689	852.47
419.897	766.45
420.105	776.69
420.313	809.46
420.521	854.51
420.729	1020.4
420.937	985.58
421.145	973.3
421.353	1114.61
421.561	1083.89
421.769	1116.65
421.977	1198.57
422.185	1165.81
422.393	1200.62
422.601	1233.39
422.809	1290.73
423.017	1321.45
423.224	1292.78
423.432	1378.79
423.64	1454.57
423.848	1532.39
424.056	1391.08
424.263	1526.25
424.471	1685.99
424.679	1688.04
424.887	1688.04
425.094	1833.44
425.302	1808.87
425.51	1884.64
425.718	1915.36
425.925	1837.54
426.133	2060.77
426.341	2193.89
426.548	2322.91
426.756	2165.21
426.964	2300.38
427.171	2367.96
427.379	2410.97
427.586	2415.07
427.794	2535.9
428.001	2767.32
428.209	2785.75
428.417	2712.02
428.624	2859.48
428.832	2984.4
429.039	2890.2
429.247	2804.18
429.454	3271.12
429.662	3398.09
429.869	3121.62
430.076	3447.24
430.284	3295.69
430.491	3443.15
430.699	3815.88
430.906	3510.73
431.114	3668.42
431.321	3762.63
431.528	3932.61
431.736	4047.3
431.943	4227.52
432.15	4219.33
432.358	4202.94
432.565	4487.61
432.772	4530.62
432.979	4833.72
433.187	4686.26
433.394	4747.7
433.601	5128.63
433.808	5071.28
434.016	5147.06
434.223	5466.54
434.43	5798.31
434.637	5552.56
434.844	5853.61
435.052	6101.41
435.259	5872.04
435.466	6128.03
435.673	6031.78
435.88	6322.59
436.087	6734.23
436.294	6734.23
436.501	6519.2
436.708	6723.99
436.915	6779.29
437.122	7149.97
437.329	7145.87
437.537	7475.6
437.743	7508.37
437.95	7444.88
438.157	7815.56
438.364	8204.67
438.571	8102.28
438.778	8294.79
438.985	9091.45
439.192	8507.77
439.399	8821.11
439.606	8644.99
439.813	9142.64
440.02	9679.21
440.227	9697.64
440.433	9580.91
440.64	9750.89
440.847	9859.43
441.054	9982.31
441.261	10703.2
441.467	10453.34
441.674	10758.49
441.881	11186.52
442.088	11075.93
442.294	10948.95
442.501	11487.57
442.708	11516.24
442.914	12073.29
443.121	12482.88
443.328	12101.96
443.534	13218.1
443.741	12476.74
443.948	12480.83
444.154	13277.49
444.361	13564.21
444.568	13566.26
444.774	13285.69
444.981	13660.46
445.187	14063.91
445.394	14717.22
445.6	14256.42
445.807	16124.17
446.013	14981.4
446.22	15544.59
446.426	16072.97
446.633	16132.36
446.839	16689.41
447.046	16075.02
447.252	17025.28
447.459	16894.21
447.665	17015.04
447.871	17846.51
448.078	18487.53
448.284	17570.04
448.491	17940.72
448.697	18759.91
448.903	19097.82
449.11	19278.04
449.316	19128.54
449.522	19488.98
449.728	19744.98
449.935	19921.1
450.141	20166.86
450.347	20359.37
450.553	20027.6
450.76	20173
450.966	20793.54
451.172	20598.98
451.378	21055.68
451.584	20539.59
451.791	21133.5
451.997	21289.15
452.203	21592.25
452.409	21584.05
452.615	21545.14
452.821	20625.61
453.027	20496.58
453.233	21539
453.44	20650.18
453.646	21233.85
453.852	21074.11
454.058	21487.8
454.264	20840.64
454.47	21045.44
454.676	20859.07
454.882	21698.74
455.088	19472.6
455.294	19994.83
455.5	20150.48
455.705	20187.34
455.911	19859.66
456.117	19519.7
456.323	18985.18
456.529	18145.52
456.735	18716.9
456.941	18075.88
457.147	17854.7
457.352	17484.02
457.558	17094.91
457.764	17330.42
457.97	16890.11
458.176	16580.87
458.381	16662.79
458.587	15927.56
458.793	15970.57
458.999	14981.4
459.204	16124.17
459.41	15716.62
459.616	14616.86
459.821	14592.29
460.027	14549.28
460.233	14117.16
460.438	13715.76
460.644	13678.9
460.85	12990.78
461.055	12843.32
461.261	12765.5
461.466	11831.63
461.672	11567.44
461.878	12386.63
462.083	11647.31
462.289	11460.95
462.494	11383.12
462.7	10678.62
462.905	10402.15
463.111	10729.82
463.316	10975.58
463.522	10502.5
463.727	10568.03
463.932	10600.8
464.138	10344.8
464.343	10545.5
464.549	10203.49
464.754	10176.87
464.959	10502.5
465.165	10342.75
465.37	10010.98
465.575	9693.55
465.781	10101.09
465.986	10199.4
466.191	9654.64
466.397	9601.39
466.602	8956.28
466.807	9599.34
467.012	9568.62
467.218	9615.73
467.423	9384.3
467.628	9421.17
467.833	9791.85
468.038	9451.89
468.244	9265.52
468.449	9617.77
468.654	9312.63
468.859	9120.12
469.064	9111.92
469.269	8706.43
469.474	8767.87
469.679	9105.78
469.885	8681.85
470.09	8841.59
470.295	8733.05
470.5	8399.23
470.705	8673.66
470.91	8311.17
471.115	8415.62
471.32	8583.55
471.525	8399.23
471.73	8194.43
471.935	8184.2
472.139	7960.97
472.344	8104.32
472.549	8022.41
472.754	7885.19
472.959	7682.44
473.164	7485.84
473.369	7709.07
473.574	7578
473.778	7698.83
473.983	7508.37
474.188	7434.64
474.393	7215.51
474.598	7281.04
474.802	7211.41
475.007	7160.21
475.212	7299.47
475.417	6955.41
475.621	6961.56
475.826	6965.65
476.031	6619.55
476.235	6586.78
476.44	6797.72
476.645	6633.88
476.849	6715.8
477.054	6586.78
477.259	6486.43
477.463	6617.5
477.668	6300.06
477.872	6314.4
478.077	6259.1
478.282	6271.39
478.486	6191.52
478.691	5937.57
478.895	6025.64
479.1	5847.46
479.304	6029.73
479.509	5921.19
479.713	5980.58
479.918	5867.94
480.122	5577.13
480.326	5833.13
480.531	5759.4
480.735	5636.52
480.94	5806.5
481.144	5822.89
481.348	5624.23
481.553	5581.23
481.757	5538.22
481.961	5702.06
482.166	5788.07
482.37	5783.98
482.574	5566.89
482.778	5597.61
482.983	5728.68
483.187	5605.8
483.391	5597.61
483.595	5609.9
483.8	5466.54
484.004	5554.6
484.208	5749.16
484.412	5704.1
484.616	5667.24
484.821	5611.95
485.025	5474.73
485.229	5630.38
485.433	5544.36
485.637	5530.03
485.841	5577.13
486.045	5722.54
486.249	5626.28
486.453	5591.47
486.657	5620.14
486.861	5605.8
487.065	5509.55
487.269	5575.08
487.473	5435.82
487.677	5589.42
487.881	5687.72
488.085	5435.82
488.289	5587.37
488.493	5718.44
488.697	5550.51
488.901	5573.03
489.105	5728.68
489.309	5622.19
489.512	5634.47
489.716	5720.49
489.92	5636.52
490.124	5591.47
490.328	5716.39
490.531	5798.31
490.735	5765.54
490.939	5779.88
491.143	5861.8
491.346	5708.2
491.55	5968.29
491.754	5964.2
491.958	6058.4
492.161	5874.09
492.365	5857.7
492.569	6039.97
492.772	5923.24
492.976	6021.54
493.18	5992.87
493.383	6091.17
493.587	5996.96
493.79	6154.66
493.994	6107.55
494.197	6220.19
494.401	6197.67
494.605	6322.59
494.808	6392.22
495.012	6232.48
495.215	6525.34
495.419	6558.11
495.622	6627.74
495.825	6642.07
496.029	6701.47
496.232	6740.38
496.436	6703.51
496.639	6891.93
496.843	6904.21
497.046	6840.73
497.249	6998.42
497.453	7106.96
497.656	7084.44
497.859	7164.31
498.063	7227.79
498.266	7467.41
498.469	7362.96
498.673	7485.84
498.876	7393.68
499.079	7625.1
499.282	7721.35
499.485	7860.62
499.689	7891.34
499.892	8001.93
500.095	8012.17
500.298	8417.66
500.501	8243.59
500.705	8440.19
500.908	8692.09
501.111	8589.69
501.314	8651.13
501.517	8864.12
501.72	8726.91
501.923	9111.92
502.126	9210.23
502.329	9171.32
502.532	9378.16
502.735	9351.54
502.938	9619.82
503.141	9632.11
503.344	9748.84
503.547	9935.21
503.75	9847.15
503.953	10197.35
504.156	10285.41
504.359	10420.58
504.562	10375.52
504.765	10604.89
504.968	10860.89
505.17	10867.03
505.373	10754.4
505.576	11325.78
505.779	11262.29
505.982	11403.6
506.185	11442.51
506.387	11452.75
506.59	11774.28
506.793	12026.18
506.996	12071.24
507.198	12187.97
507.401	12228.93
507.604	12439.87
507.807	12738.88
508.009	12898.62
508.212	12835.13
508.415	12818.75
508.617	13039.93
508.82	13269.3
509.022	13277.49
509.225	13449.52
509.428	13789.49
509.63	13904.17
509.833	14166.31
510.035	14319.91
510.238	14166.31
510.44	14545.19
510.643	14668.06
510.845	14745.89
511.048	14879
511.25	15317.27
511.453	14952.73
511.655	15685.9
511.858	15335.7
512.06	15659.28
512.262	15784.21
512.465	15685.9
512.667	16109.83
512.87	16402.69
513.072	16247.05
513.274	16726.27
513.477	16771.33
513.679	17287.42
513.881	17326.33
514.084	17508.6
514.286	17367.29
514.488	17651.95
514.69	18131.18
514.893	18137.32
515.095	18020.59
515.297	18698.47
515.499	18696.42
515.701	18999.52
515.904	18907.36
516.106	19175.64
516.308	19226.84
516.51	19622.1
516.712	19423.45
516.914	19986.64
517.116	20330.7
517.318	20150.48
517.52	20402.38
517.722	20609.22
517.925	20742.34
518.127	21260.48
518.329	21061.82
518.531	21379.26
518.733	21627.06
518.935	21825.71
519.136	21999.79
519.338	22091.95
519.54	22501.54
519.742	22380.71
519.944	22755.49
520.146	22665.38
520.348	23298.2
520.55	23343.26
520.752	23120.03
520.954	23877.78
521.155	23574.68
521.357	24092.82
521.559	24299.66
521.761	24653.96
521.963	24746.12
522.164	24739.97
522.366	24995.97
522.568	25129.09
522.77	25368.7
522.971	25598.07
523.173	25575.55
523.375	25444.48
523.576	25694.33
523.778	25993.33
523.98	26321.01
524.181	26425.45
524.383	26431.6
524.584	26824.81
524.786	26927.21
524.988	26490.99
525.189	27144.29
525.391	27080.8
525.592	27283.55
525.794	27746.39
525.995	27727.96
526.197	27584.6
526.398	27752.54
526.6	28217.43
526.801	28151.89
527.003	28305.49
527.204	28160.08
527.406	28407.89
527.607	28520.52
527.808	28833.86
528.01	28411.98
528.211	28418.13
528.412	29044.8
528.614	28948.55
528.815	29079.62
529.016	29153.35
529.218	28969.03
529.419	29227.07
529.62	29368.38
529.822	29128.77
530.023	29171.78
530.224	29638.72
530.425	29079.62
530.626	29069.38
530.828	29284.42
531.029	29880.38
531.23	29718.59
531.431	29216.83
531.632	29851.7
531.833	29628.48
532.035	29599.8
532.236	29982.77
532.437	30173.24
532.638	29784.12
532.839	30019.64
533.04	30091.32
533.241	29870.14
533.442	30607.4
533.643	29988.92
533.844	30058.55
534.045	30294.07
534.246	29904.95
534.447	30384.18
534.648	29859.9
534.849	30257.2
535.05	30357.55
535.251	30199.86
535.451	30220.34
535.652	30466.1
535.853	30265.39
536.054	29825.08
536.255	30644.27
536.456	30304.31
536.657	30742.57
536.857	29917.24
537.058	29800.51
537.259	30373.94
537.46	30335.03
537.66	30421.04
537.861	30564.4
538.062	30349.36
538.263	30777.39
538.463	30425.14
538.664	30154.8
538.865	30533.68
539.065	30330.93
539.266	29900.86
539.466	30709.8
539.667	30064.69
539.868	30601.26
540.068	30576.69
540.269	30115.89
540.469	30388.27
540.67	30345.26
540.87	30312.5
541.071	30261.3
541.271	30361.65
541.472	30183.48
541.672	30453.81
541.873	30478.38
542.073	29999.16
542.274	30423.09
542.474	30126.13
542.675	29763.64
542.875	30466.1
543.075	30314.55
543.276	30308.4
543.476	30226.48
543.676	30038.07
543.877	30124.08
544.077	29929.53
544.277	30046.26
544.478	30136.37
544.678	30470.19
544.878	30330.93
545.078	30197.81
545.279	29694.01
545.479	30275.63
545.679	30179.38
545.879	30097.46
546.079	29980.73
546.28	30124.08
546.48	29687.87
546.68	29968.44
546.88	30095.41
547.08	30138.42
547.28	30001.21
547.48	30138.42
547.68	30169.14
547.88	29753.4
548.081	29970.49
548.281	30138.42
548.481	30165.04
548.681	30441.52
548.881	30097.46
549.081	29665.34
549.28	29978.68
549.48	29755.45
549.68	30083.12
549.88	30304.31
550.08	29710.39
550.28	29704.25
550.48	29911.1
550.68	30011.45
550.88	30064.69
551.08	29997.11
551.279	30060.6
551.479	29788.22
551.679	30193.72
551.879	30038.07
552.079	30031.93
552.278	30017.59
552.478	29976.63
552.678	29921.34
552.878	30214.19
553.077	29720.63
553.277	29646.91
553.477	29952.05
553.676	29921.34
553.876	29392.96
554.076	29700.15
554.275	29644.86
554.475	29462.59
554.674	29640.76
554.874	29925.43
555.074	29716.54
555.273	29913.14
555.473	29782.07
555.672	29554.75
555.872	29765.69
556.071	29777.98
556.271	29771.83
556.47	29272.13
556.67	29337.66
556.869	29558.84
557.068	29691.96
557.268	29349.95
557.467	29155.4
557.667	29370.43
557.866	29577.28
558.065	29429.82
558.265	29126.72
558.464	29171.78
558.663	29190.21
558.863	28901.45
559.062	29579.32
559.261	28774.47
559.461	29210.69
559.66	28975.17
559.859	28969.03
560.058	28805.19
560.258	28551.24
560.457	28790.86
560.656	28780.62
560.855	28674.12
561.054	28887.11
561.253	28774.47
561.453	28921.93
561.652	28833.86
561.851	28758.09
562.05	28520.52
562.249	28289.1
562.448	28803.14
562.647	28645.45
562.846	28760.14
563.045	28172.37
563.244	28289.1
563.443	28414.03
563.642	27746.39
563.841	28291.15
564.04	27949.14
564.239	27988.05
564.438	28080.21
564.637	27734.1
564.836	28215.38
565.035	27863.13
565.234	28158.03
565.432	27826.26
565.631	27615.32
565.83	27717.72
566.029	27682.91
566.228	27754.58
566.427	27338.85
566.625	27181.15
566.824	27025.51
567.023	27420.77
567.222	27185.25
567.42	27449.44
567.619	27164.77
567.818	27213.92
568.016	26828.9
568.215	27453.53
568.414	27093.09
568.612	27037.8
568.811	26988.64
569.01	26777.7
569.208	26552.43
569.407	26863.72
569.605	26351.73
569.804	26966.12
570.002	26257.52
570.201	26513.52
570.4	26243.18
570.598	26280.05
570.797	26495.08
570.995	26134.64
571.193	25587.83
571.392	26513.52
571.59	25753.72
571.789	25679.99
571.987	25993.33
572.186	25770.1
572.384	25800.82
572.582	25659.51
572.781	25931.89
572.979	25602.17
573.177	25618.55
573.376	25825.4
573.574	25217.15
573.772	25333.89
573.971	25112.7
574.169	25024.64
574.367	25071.75
574.565	25540.73
574.763	25180.29
574.962	25036.93
575.16	24660.1
575.358	24989.83
575.556	24569.99
575.754	24946.82
575.952	24352.91
576.151	24778.89
576.349	24262.8
576.547	24219.79
576.745	24580.23
576.943	24342.67
577.141	24422.54
577.339	24477.83
577.537	24117.39
577.735	24287.37
577.933	23986.32
578.131	24137.87
578.329	23787.67
578.527	23947.41
578.725	23797.91
578.923	23918.74
579.121	23554.2
579.319	23386.27
579.516	23511.19
579.714	23476.38
579.912	23447.71
580.11	23419.03
580.308	23275.68
580.506	23130.27
580.704	22945.95
580.901	23044.26
581.099	23478.43
581.297	23027.87
581.495	23457.95
581.692	23089.31
581.89	22671.53
582.088	22937.76
582.285	22821.03
582.483	22853.8
582.681	22972.58
582.878	22679.72
583.076	22444.2
583.274	22681.77
583.471	22378.67
583.669	22278.32
583.866	22243.5
584.064	22192.3
584.262	22120.62
584.459	22247.6
584.657	21809.33
584.854	22108.33
585.052	21856.43
585.249	21885.11
585.447	21764.28
585.644	21596.34
585.841	21700.79
586.039	21764.28
586.236	21297.34
586.434	21364.92
586.631	21385.4
586.828	21811.38
587.026	21483.7
587.223	21203.13
587.42	21147.84
587.618	21422.27
587.815	20852.93
588.012	20988.1
588.21	20674.76
588.407	21332.15
588.604	20932.8
588.801	21047.49
588.999	20818.11
589.196	20576.45
589.393	20558.02
589.59	20709.57
589.787	20396.23
589.984	20660.42
590.182	20429
590.379	20256.97
590.576	20127.95
590.773	20420.81
590.97	20213.96
591.167	20388.04
591.364	20285.64
591.561	20136.14
591.758	19947.73
591.955	19857.62
592.152	20031.69
592.349	19761.36
592.546	19634.39
592.743	19785.94
592.94	19333.34
593.137	19542.23
593.334	19642.58
593.531	19169.5
593.727	19585.24
593.924	19460.31
594.121	19224.79
594.318	19183.84
594.515	19179.74
594.712	19521.75
594.908	18995.42
595.105	18862.3
595.302	18833.63
595.499	18952.41
595.696	18669.8
595.892	18510.05
596.089	18741.47
596.286	18704.61
596.482	18381.03
596.679	18751.71
596.876	18755.81
597.072	18471.14
597.269	18491.62
597.466	18354.41
597.662	18163.95
597.859	18419.94
598.055	18196.71
598.252	18286.82
598.448	18120.94
598.645	18288.87
598.841	17807.6
599.038	17869.04
599.234	17922.29
599.431	17787.12
599.627	17727.73
599.824	17854.7
600.02	17637.62
600.217	17498.36
600.413	17602.8
600.609	17389.81
600.806	17340.66
601.002	17574.13
601.198	17508.6
601.395	17185.02
601.591	17260.79
601.787	17166.59
601.984	17113.34
602.18	17410.29
602.376	17115.39
602.572	17103.1
602.769	16904.45
602.965	17082.62
603.161	16728.32
603.357	16627.97
603.553	16791.81
603.75	16775.42
603.946	16642.31
604.142	16771.33
604.338	16455.94
604.534	16462.08
604.73	16339.21
604.926	16533.76
605.122	16445.7
605.318	16173.32
605.514	16324.87
605.71	16101.64
605.906	16187.66
606.102	16171.27
606.298	15919.37
606.494	15874.32
606.69	15972.62
606.886	16005.39
607.082	15771.92
607.278	15821.07
607.474	15829.26
607.67	15749.39
607.866	15552.79
608.062	15864.08
608.257	15663.38
608.453	15718.67
608.649	15630.61
608.845	15794.45
609.041	15505.68
609.236	15550.74
609.432	15331.61
609.628	15317.27
609.824	15530.26
610.019	15331.61
610.215	15175.96
610.411	15477.01
610.606	15216.92
610.802	15403.28
610.998	15294.74
611.193	15227.16
611.389	15053.08
611.584	14938.4
611.78	15069.47
611.976	14874.91
612.171	14979.36
612.367	14786.85
612.562	15022.36
612.758	14829.85
612.953	14801.18
613.149	14592.29
613.344	14756.13
613.539	14940.44
613.735	14827.81
613.93	14715.17
614.126	14770.46
614.321	14749.98
614.517	14510.37
614.712	14477.6
614.907	14205.22
615.103	14653.73
615.298	14340.39
615.493	14688.54
615.688	14399.78
615.884	14375.2
616.079	14332.2
616.274	14256.42
616.47	14348.58
616.665	14309.67
616.86	14201.13
617.055	14022.95
617.25	14203.18
617.445	14297.38
617.641	13834.54
617.836	14141.74
618.031	13664.56
618.226	13857.07
618.421	13760.81
618.616	13998.38
618.811	13701.42
619.006	13873.45
619.201	13674.8
619.396	13613.36
619.591	13355.32
619.786	13633.84
619.981	13308.21
620.176	13351.22
620.371	13263.16
620.566	13377.84
620.761	13257.01
620.956	13130.04
621.151	13140.28
621.346	13007.16
621.541	13099.32
621.735	13001.02
621.93	12695.87
622.125	12933.43
622.32	12638.53
622.515	12704.06
622.709	12601.66
622.904	12566.85
623.099	12519.74
623.294	12597.57
623.488	12337.48
623.683	12462.4
623.878	12253.51
624.072	12206.41
624.267	12314.95
624.462	12163.4
624.656	12128.58
624.851	12015.94
625.046	11630.93
625.24	11762
625.435	11747.66
625.629	11934.03
625.824	11602.25
626.018	11700.56
626.213	11518.29
626.407	11346.26
626.602	11329.88
626.796	11540.82
626.991	11286.87
627.185	11221.33
627.38	11229.52
627.574	11000.15
627.768	10834.27
627.963	11108.69
628.157	10922.33
628.352	10834.27
628.546	10752.35
628.74	10797.4
628.935	10647.9
629.129	10664.29
629.323	10574.17
629.517	10434.91
629.712	10484.06
629.906	10545.5
630.1	10375.52
630.294	10510.69
630.489	10131.81
630.683	10461.54
630.877	10094.95
631.071	9888.11
631.265	9990.5
631.459	9845.1
631.653	9718.12
631.848	10076.52
632.042	9841
632.236	9927.02
632.43	9740.65
632.624	9636.2
632.818	9752.94
633.012	9544.05
633.206	9453.94
633.4	9464.18
633.594	9300.34
633.788	9302.39
633.982	9242.99
634.176	9161.08
634.369	9230.71
634.563	9169.27
634.757	9257.33
634.951	9167.22
635.145	9175.41
635.339	9116.02
635.533	9140.6
635.726	8991.09
635.92	8733.05
636.114	8800.63
636.308	8833.4
636.501	8659.32
636.695	8765.82
636.889	8587.64
637.083	8591.74
637.276	8778.11
637.47	8438.14
637.664	8550.78
637.857	8401.28
638.051	8321.41
638.244	8505.73
638.438	8182.15
638.632	8188.29
638.825	8057.22
639.019	8083.84
639.212	8073.6
639.406	8141.19
639.599	7954.82
639.793	7971.21
639.986	7743.88
640.18	7924.1
640.373	7866.76
640.567	7801.22
640.76	7731.59
640.954	7764.36
641.147	7545.23
641.34	7518.61
641.534	7500.17
641.727	7565.71
641.92	7381.39
642.114	7496.08
642.307	7307.66
642.5	7326.1
642.694	7274.9
642.887	7053.72
643.08	7283.09
643.273	7037.33
643.467	7006.61
643.66	7199.12
643.853	7035.28
644.046	7020.95
644.239	7063.96
644.432	6807.96
644.626	6877.59
644.819	6824.34
645.012	6857.11
645.205	6904.21
645.398	6855.06
645.591	6908.31
645.784	6793.62
645.977	6586.78
646.17	6668.7
646.363	6502.81
646.556	6523.29
646.749	6404.51
646.942	6650.27
647.135	6400.41
647.328	6394.27
647.521	6220.19
647.714	6373.79
647.907	6314.4
648.099	6281.63
648.292	6273.44
648.485	6216.1
648.678	6193.57
648.871	5943.72
649.064	5968.29
649.256	6173.09
649.449	5937.57
649.642	5994.92
649.835	5941.67
650.027	5906.85
650.22	5921.19
650.413	5714.34
650.605	5816.74
650.798	5824.94
650.991	5626.28
651.183	5765.54
651.376	5691.82
651.568	5693.87
651.761	5472.68
651.954	5603.75
652.146	5536.17
652.339	5636.52
652.531	5556.65
652.724	5411.25
652.916	5362.09
653.109	5386.67
653.301	5298.61
653.494	5325.23
653.686	5263.79
653.879	5327.28
654.071	5380.53
654.263	5173.68
654.456	5259.7
654.648	5165.49
654.84	5196.21
655.033	5126.58
655.225	5159.35
655.417	5036.47
655.61	5085.62
655.802	5069.23
655.994	5040.56
656.186	4942.26
656.379	4962.74
656.571	5030.32
656.763	4794.81
656.955	4913.59
657.148	4831.67
657.34	4714.94
657.532	4805.05
657.724	4630.97
657.916	4807.09
658.108	4723.13
658.3	4712.89
658.492	4686.26
658.684	4587.96
658.876	4553.15
659.068	4514.24
659.26	4358.59
659.452	4358.59
659.644	4411.84
659.836	4522.43
660.028	4405.69
660.22	4344.25
660.412	4420.03
660.604	4338.11
660.796	4358.59
660.988	4293.05
661.18	4303.29
661.372	4159.94
661.563	4202.94
661.755	4299.2
661.947	4184.51
662.139	4035.01
662.331	4020.67
662.522	4215.23
662.714	4010.43
662.906	4153.79
663.097	3987.91
663.289	4057.54
663.481	4141.5
663.673	3969.48
663.864	3877.32
664.056	3783.11
664.247	3822.02
664.439	3850.69
664.631	3885.51
664.822	3981.76
665.014	3828.17
665.205	3805.64
665.397	3807.69
665.588	3668.42
665.78	3654.09
665.971	3721.67
666.163	3770.82
666.354	3709.38
666.546	3627.46
666.737	3752.39
666.929	3600.84
667.12	3543.5
667.311	3609.03
667.503	3506.63
667.694	3488.2
667.885	3408.33
668.077	3424.72
668.268	3457.48
668.459	3455.44
668.651	3539.4
668.842	3346.89
669.033	3400.14
669.224	3420.62
669.416	3443.15
669.607	3338.7
669.798	3303.89
669.989	3305.93
670.18	3228.11
670.371	3203.54
670.563	3312.08
670.754	3322.32
670.945	3320.27
671.136	3238.35
671.327	3322.32
671.518	3217.87
671.709	3285.45
671.9	3189.2
672.091	3156.43
672.282	3140.05
672.473	3244.49
672.664	3244.49
672.855	3129.81
673.046	3103.18
673.237	3170.77
673.428	3086.8
673.619	3170.77
673.809	3029.46
674	3017.17
674.191	3047.89
674.382	3035.6
674.573	2980.31
674.764	2933.2
674.954	3002.83
675.145	3023.31
675.336	2980.31
675.527	2937.3
675.717	2916.82
675.908	2912.72
676.099	2898.39
676.289	2953.68
676.48	2785.75
676.671	2998.74
676.861	2931.16
677.052	2873.81
677.243	2863.57
677.433	2826.71
677.624	2900.44
677.814	2922.96
678.005	2857.43
678.195	2777.56
678.386	2916.82
678.576	2859.48
678.767	2761.17
678.957	2896.34
679.148	2826.71
679.338	2900.44
679.529	2789.85
679.719	2701.78
679.909	2818.52
680.1	2669.02
680.29	2746.84
680.481	2712.02
680.671	2804.18
680.861	2810.33
681.052	2671.06
681.242	2843.09
681.432	2785.75
681.622	2632.15
681.813	2642.39
682.003	2664.92
682.193	2685.4
682.383	2789.85
682.573	2705.88
682.764	2712.02
682.954	2617.82
683.144	2744.79
683.334	2570.71
683.524	2546.14
683.714	2632.15
683.904	2568.66
684.094	2544.09
684.284	2615.77
684.474	2734.55
684.664	2681.3
684.854	2539.99
685.044	2679.26
685.234	2564.57
685.424	2537.95
685.614	2503.13
685.804	2529.75
685.994	2638.3
686.184	2566.62
686.374	2472.41
686.564	2548.19
686.753	2492.89
686.943	2503.13
687.133	2499.03
687.323	2539.99
687.513	2558.42
687.702	2406.88
687.892	2486.75
688.082	2327
688.272	2490.84
688.461	2515.42
688.651	2535.9
688.841	2509.27
689.03	2523.61
689.22	2478.55
689.41	2445.79
689.599	2470.36
689.789	2435.55
689.979	2437.59
690.168	2533.85
690.358	2386.4
690.547	2353.63
690.737	2433.5
690.926	2441.69
691.116	2240.99
691.305	2482.65
691.495	2347.48
691.684	2294.24
691.874	2349.53
692.063	2476.51
692.252	2337.24
692.442	2376.16
692.631	2390.49
692.82	2413.02
693.01	2300.38
693.199	2349.53
693.388	2269.66
693.578	2226.65
693.767	2329.05
693.956	2300.38
694.146	2296.28
694.335	2337.24
694.524	2195.93
694.713	2202.08
694.902	2357.72
695.092	2333.15
695.281	2189.79
695.47	2318.81
695.659	2324.96
695.848	2286.05
696.037	2308.57
696.226	2185.69
696.415	2353.63
696.604	2310.62
696.793	2189.79
696.982	2251.23
697.171	2220.51
697.36	2275.81
697.549	2138.59
697.738	2329.05
697.927	2206.17
698.116	2357.72
698.305	2157.02
698.494	2200.03
698.683	2202.08
698.872	2249.18
699.061	2159.07
699.25	2255.33
699.438	2124.26
699.627	2036.19
699.816	2161.12
700.005	2230.75
700.193	2146.78
700.382	2208.22
700.571	2154.98
700.76	2120.16
700.948	2111.97
701.137	2138.59
701.326	2165.21
701.514	2056.67
701.703	2148.83
701.892	2128.35
702.08	2120.16
702.269	2142.69
702.457	2019.81
702.646	2093.54
702.834	2173.41
703.023	2062.82
703.212	2138.59
703.4	2124.26
703.589	2056.67
703.777	2025.95
703.965	1972.71
704.154	1993.19
704.342	2101.73
704.531	2071.01
704.719	1993.19
704.907	2028
705.096	1989.09
705.284	2120.16
705.472	2089.44
705.661	1970.66
705.849	1944.03
706.037	1944.03
706.226	1933.79
706.414	2023.91
706.602	1941.99
706.79	2013.67
706.979	1997.28
707.167	1962.47
707.355	1853.92
707.543	1892.84
707.731	1921.51
707.919	1886.69
708.107	1966.56
708.296	1905.12
708.484	1925.6
708.672	2001.38
708.86	1882.6
709.048	1890.79
709.236	1827.3
709.424	1876.45
709.612	1913.31
709.8	1884.64
709.988	1892.84
710.176	2013.67
710.364	1898.98
710.551	1864.16
710.739	1929.7
710.927	1866.21
711.115	1804.77
711.303	1776.1
711.491	1851.88
711.679	1798.63
711.866	1890.79
712.054	1939.94
712.242	1894.88
712.43	1819.11
712.617	1769.96
712.805	1864.16
712.993	1872.36
713.181	1763.81
713.368	1765.86
713.556	1757.67
713.744	1894.88
713.931	1804.77
714.119	1788.39
714.306	1784.29
714.494	1831.4
714.682	1714.66
714.869	1751.53
715.057	1737.19
715.244	1710.57
715.432	1722.85
715.619	1751.53
715.807	1702.37
715.994	1751.53
716.182	1774.05
716.369	1755.62
716.556	1663.46
716.744	1698.28
716.931	1688.04
717.119	1784.29
717.306	1837.54
717.493	1638.89
717.681	1620.46
717.868	1776.1
718.055	1597.93
718.242	1667.56
718.43	1548.78
718.617	1640.93
718.804	1667.56
718.991	1763.81
719.179	1612.26
719.366	1647.08
719.553	1671.65
719.74	1585.64
719.927	1657.32
720.114	1595.88
720.301	1589.74
720.488	1706.47
720.676	1604.07
720.863	1540.58
721.05	1669.61
721.237	1565.16
721.424	1612.26
721.611	1577.45
721.798	1536.49
721.985	1548.78
722.172	1659.37
722.358	1565.16
722.545	1522.15
722.732	1546.73
722.919	1565.16
723.106	1524.2
723.293	1573.35
723.48	1589.74
723.667	1526.25
723.853	1464.81
724.04	1544.68
724.227	1544.68
724.414	1546.73
724.6	1538.54
724.787	1450.47
724.974	1597.93
725.161	1454.57
725.347	1491.43
725.534	1448.43
725.72	1554.92
725.907	1511.91
726.094	1466.86
726.28	1530.34
726.467	1370.6
726.653	1473
726.84	1475.05
727.027	1534.44
727.213	1513.96
727.4	1511.91
727.586	1358.32
727.773	1475.05
727.959	1257.96
728.145	1473
728.332	1427.95
728.518	1507.82
728.705	1544.68
728.891	1425.9
729.077	1552.87
729.264	1485.29
729.45	1495.53
729.636	1454.57
729.823	1507.82
730.009	1444.33
730.195	1470.95
730.382	1341.93
730.568	1452.52
730.754	1391.08
730.94	1411.56
731.126	1407.47
731.313	1483.24
731.499	1407.47
731.685	1341.93
731.871	1470.95
732.057	1356.27
732.243	1432.04
732.429	1401.32
732.615	1468.91
732.801	1341.93
732.987	1372.65
733.173	1333.74
733.359	1358.32
733.545	1391.08
733.731	1425.9
733.917	1341.93
734.103	1460.71
734.289	1333.74
734.475	1403.37
734.661	1386.99
734.847	1339.88
735.033	1329.64
735.219	1348.08
735.404	1466.86
735.59	1262.06
735.776	1255.92
735.962	1499.63
736.148	1356.27
736.333	1315.31
736.519	1370.6
736.705	1346.03
736.89	1243.63
737.076	1348.08
737.262	1313.26
737.447	1278.44
737.633	1368.56
737.819	1303.02
738.004	1341.93
738.19	1296.88
738.375	1202.67
738.561	1335.79
738.747	1284.59
738.932	1327.6
739.118	1358.32
739.303	1274.35
739.489	1292.78
739.674	1274.35
739.859	1360.36
740.045	1241.58
740.23	1280.49
740.416	1182.19
740.601	1294.83
740.786	1202.67
740.972	1214.96
741.157	1214.96
741.342	1227.25
741.528	1120.75
741.713	1300.97
741.898	1192.43
742.084	1247.72
742.269	1169.9
742.454	1229.29
742.639	1139.18
742.824	1290.73
743.01	1141.23
743.195	1169.9
743.38	1147.37
743.565	1290.73
743.75	1182.19
743.935	1118.7
744.12	1104.37
744.305	1161.71
744.49	1184.24
744.675	1178.09
744.86	1151.47
745.045	1122.8
745.23	1182.19
745.415	1110.51
745.6	1114.61
745.785	1137.13
745.97	1106.42
746.155	1028.59
746.34	1083.89
746.525	1051.12
746.71	1112.56
746.895	1104.37
747.079	1061.36
747.264	1118.7
747.449	1085.94
747.634	1004.02
747.819	1104.37
748.003	1018.35
748.188	1147.37
748.373	1092.08
748.557	971.25
748.742	1042.93
748.927	901.62
749.111	1018.35
749.296	997.87
749.481	958.96
749.665	981.49
749.85	985.58
750.034	1024.5
750.219	1016.3
750.404	899.57
750.588	1047.02
750.773	1016.3
750.957	1026.54
751.141	1004.02
751.326	997.87
751.51	868.85
751.695	915.95
751.879	977.39
752.064	926.19
752.248	950.77
752.432	950.77
752.617	995.82
752.801	829.94
752.985	999.92
753.17	942.58
753.354	879.09
753.538	862.71
753.722	788.98
753.907	874.99
754.091	864.75
754.275	793.08
754.459	821.75
754.643	819.7
754.828	817.65
755.012	778.74
755.196	846.32
755.38	799.22
755.564	737.78
755.748	743.92
755.932	774.64
756.116	770.55
756.3	874.99
756.484	758.26
756.668	729.59
756.852	719.35
757.036	834.04
757.22	819.7
757.404	743.92
757.588	705.01
757.772	825.84
757.956	737.78
758.14	721.4
758.323	817.65
758.507	715.25
758.691	678.39
758.875	647.67
759.059	666.1
759.242	721.4
759.426	705.01
759.61	723.44
759.794	711.16
759.977	715.25
760.161	754.16
760.345	690.68
760.528	717.3
760.712	643.57
760.895	692.73
761.079	768.5
761.263	713.21
761.446	666.1
761.63	653.81
761.813	643.57
761.997	590.33
762.18	696.82
762.364	621.05
762.547	604.66
762.731	602.61
762.914	649.72
763.098	621.05
763.281	657.91
763.464	647.67
763.648	662.01
763.831	573.94
764.015	573.94
764.198	621.05
764.381	528.89
764.564	582.14
764.748	592.37
764.931	694.77
765.114	623.09
765.297	575.99
765.481	653.81
765.664	625.14
765.847	631.29
766.03	563.7
766.213	588.28
766.397	592.37
766.58	553.46
766.763	598.52
766.946	598.52
767.129	633.33
767.312	590.33
767.495	565.75
767.678	598.52
767.861	612.85
768.044	477.69
768.227	543.22
768.41	621.05
768.593	575.99
768.776	590.33
768.959	627.19
769.142	555.51
769.324	543.22
769.507	557.56
769.69	575.99
769.873	543.22
770.056	524.79
770.239	512.5
770.421	575.99
770.604	584.18
770.787	463.35
770.97	522.74
771.152	465.4
771.335	502.26
771.518	551.42
771.7	510.46
771.883	543.22
772.066	502.26
772.248	453.11
772.431	547.32
772.613	532.98
772.796	424.44
772.978	465.4
773.161	506.36
773.343	627.19
773.526	479.74
773.708	481.78
773.891	367.1
774.073	467.45
774.256	541.18
774.438	453.11
774.621	494.07
774.803	473.59
774.985	444.92
775.168	473.59
775.35	438.78
775.532	442.87
775.715	410.11
775.897	489.98
776.079	477.69
776.261	414.2
776.444	463.35
776.626	446.97
776.808	412.15
776.99	436.73
777.173	471.54
777.355	489.98
777.537	401.91
777.719	395.77
777.901	346.62
778.083	381.43
778.265	336.38
778.447	469.5
778.629	420.35
778.811	467.45
778.993	463.35
779.175	428.54
779.357	395.77
779.539	391.67
779.721	377.34
779.903	440.83
780.085	377.34
780.267	436.73
780.449	391.67
780.631	375.29
780.812	350.71
780.994	381.43
781.176	387.58
781.358	350.71
781.54	369.15
781.721	352.76
781.903	383.48
782.085	309.76
782.267	336.38
782.448	352.76
782.63	272.89
782.812	367.1
782.993	360.95
783.175	340.47
783.357	377.34
783.538	307.71
783.72	326.14
783.901	301.56
784.083	240.12
784.264	176.64
784.446	309.76
784.627	270.84
784.809	330.23
784.99	338.43
785.172	219.64
785.353	276.99
785.535	330.23
785.716	197.12
785.897	240.12
786.079	238.08
786.26	227.84
786.441	322.04
786.623	260.6
786.804	262.65
786.985	238.08
787.167	326.14
787.348	291.32
787.529	338.43
787.71	285.18
787.891	250.36
788.073	215.55
788.254	250.36
788.435	268.8
788.616	172.54
788.797	250.36
788.978	213.5
789.159	297.47
789.34	252.41
789.522	180.73
789.703	188.93
789.884	264.7
790.065	260.6
790.246	211.45
790.427	205.31
790.607	236.03
790.788	268.8
790.969	240.12
791.15	289.28
791.331	221.69
791.512	219.64
791.693	156.16
791.874	299.52
792.054	178.69
792.235	147.97
792.416	164.35
792.597	242.17
792.778	164.35
792.958	197.12
793.139	227.84
793.32	193.02
793.5	184.83
793.681	209.4
793.862	178.69
794.042	283.13
794.223	207.36
794.404	197.12
794.584	211.45
794.765	256.51
794.945	160.25
795.126	111.1
795.306	117.25
795.487	156.16
795.667	283.13
795.848	221.69
796.028	137.73
796.209	190.97
796.389	127.49
796.57	186.88
796.75	166.4
796.93	221.69
797.111	104.96
797.291	272.89
797.471	225.79
797.652	195.07
797.832	229.88
798.012	262.65
798.192	170.49
798.373	121.34
798.553	143.87
798.733	123.39
798.913	186.88
799.093	172.54
799.274	182.78
799.454	197.12
799.634	135.68
799.814	168.45
799.994	94.72
800.174	141.82
800.354	195.07
800.534	74.24
800.714	188.93
800.894	162.3
801.074	203.26
801.254	88.57
801.434	254.46
801.614	125.44
801.794	135.68
801.974	293.37
802.154	104.96
802.334	147.97
802.514	143.87
802.693	180.73
802.873	180.73
803.053	170.49
803.233	160.25
803.413	145.92
803.592	88.57
803.772	135.68
803.952	76.29
804.131	137.73
804.311	127.49
804.491	203.26
804.67	74.24
804.85	143.87
805.03	238.08
805.209	147.97
805.389	162.3
805.568	129.53
805.748	57.86
805.928	186.88
806.107	117.25
806.287	90.62
806.466	100.86
806.646	109.05
806.825	131.58
807.004	174.59
807.184	147.97
807.363	164.35
807.543	137.73
807.722	193.02
807.901	109.05
808.081	72.19
808.26	96.77
808.439	135.68
808.619	64
808.798	72.19
808.977	115.2
809.156	129.53
809.336	123.39
809.515	100.86
809.694	23.04
809.873	94.72
810.052	70.14
810.231	51.71
810.411	100.86
810.59	113.15
810.769	109.05
810.948	84.48
811.127	90.62
811.306	127.49
811.485	145.92
811.664	170.49
811.843	109.05
812.022	158.21
812.201	156.16
812.38	49.66
812.559	123.39
812.737	104.96
812.916	66.05
813.095	121.34
813.274	55.81
813.453	104.96
813.632	119.29
813.811	176.64
813.989	70.14
814.168	96.77
814.347	127.49
814.526	88.57
814.704	147.97
814.883	45.57
815.062	84.48
815.24	156.16
815.419	35.33
815.598	100.86
815.776	123.39
815.955	129.53
816.133	27.14
816.312	84.48
816.49	61.95
816.669	150.01
816.847	127.49
817.026	109.05
817.204	66.05
817.383	94.72
817.561	96.77
817.74	166.4
817.918	92.67
818.097	125.44
818.275	43.52
818.453	66.05
818.632	74.24
818.81	51.71
818.988	72.19
819.167	80.38
819.345	66.05
819.523	51.71
819.701	23.04
819.879	129.53
820.058	64
820.236	98.81
820.414	80.38
820.592	25.09
820.77	31.23
820.948	102.91
821.127	74.24
821.305	80.38
821.483	57.86
821.661	113.15
821.839	43.52
822.017	104.96
822.195	102.91
822.373	88.57
822.551	53.76
822.729	55.81
822.907	29.18
823.085	86.53
823.262	100.86
823.44	49.66
823.618	96.77
823.796	66.05
823.974	47.62
824.152	74.24
824.329	14.85
824.507	64
824.685	92.67
824.863	80.38
825.04	-13.82
825.218	41.47
825.396	33.28
825.574	113.15
825.751	18.94
825.929	76.29
826.107	107.01
826.284	6.66
826.462	68.09
826.639	68.09
826.817	37.38
826.994	66.05
827.172	41.47
827.349	2.56
827.527	25.09
827.704	-1.54
827.882	64
828.059	152.06
828.237	49.66
828.414	117.25
828.591	39.42
828.769	35.33
828.946	57.86
829.124	49.66
829.301	72.19
829.478	98.81
829.655	72.19
829.833	121.34
830.01	8.7
830.187	14.85
830.364	55.81
830.542	55.81
830.719	115.2
830.896	14.85
831.073	45.57
831.25	107.01
831.427	27.14
831.604	88.57
831.782	49.66
831.959	59.9
832.136	25.09
832.313	23.04
832.49	-5.63
832.667	119.29
832.844	109.05
833.021	-42.5
833.198	41.47
833.374	14.85
833.551	39.42
833.728	68.09
833.905	6.66
834.082	-5.63
834.259	133.63
834.436	88.57
834.612	43.52
834.789	107.01
834.966	61.95
835.143	47.62
835.319	66.05
835.496	0.51
835.673	96.77
835.85	49.66
836.026	41.47
836.203	41.47
836.38	6.66
836.556	16.9
836.733	20.99
836.909	133.63
837.086	47.62
837.262	14.85
837.439	18.94
837.616	96.77
837.792	86.53
837.968	76.29
838.145	76.29
838.321	-58.88
838.498	45.57
838.674	10.75
838.851	61.95
839.027	27.14
839.203	47.62
839.38	55.81
839.556	2.56
839.732	23.04
839.909	51.71
840.085	61.95
840.261	51.71
840.437	31.23
840.614	55.81
840.79	29.18
840.966	55.81
841.142	55.81
841.318	14.85
841.494	39.42
841.671	27.14
841.847	55.81
842.023	57.86
842.199	47.62
842.375	-3.58
842.551	61.95
842.727	39.42
842.903	43.52
843.079	115.2
843.255	4.61
843.431	12.8
843.607	90.62
843.783	-65.02
843.959	66.05
844.134	18.94
844.31	39.42
844.486	12.8
844.662	41.47
844.838	86.53
845.013	43.52
845.189	51.71
845.365	35.33
845.541	-11.78
845.716	88.57
845.892	4.61
846.068	64
846.244	6.66
846.419	70.14
846.595	-15.87
846.77	47.62
846.946	27.14
847.122	23.04
847.297	23.04
847.473	70.14
847.648	41.47
847.824	74.24
847.999	55.81
848.175	8.7
848.35	59.9
848.526	115.2
848.701	49.66
848.876	10.75
849.052	12.8
849.227	-30.21
849.403	-24.06
849.578	64
849.753	20.99
849.929	33.28
850.104	-1.54
850.279	64
850.454	35.33
850.63	10.75
850.805	14.85
850.98	14.85
851.155	47.62
851.33	31.23
851.505	90.62
851.681	0.51
851.856	33.28
852.031	-40.45
852.206	45.57
852.381	88.57
852.556	-17.92
852.731	33.28
852.906	84.48
853.081	90.62
853.256	-40.45
853.431	-1.54
853.606	39.42
853.781	-22.02
853.956	27.14
854.131	-65.02
854.305	23.04
854.48	-22.02
854.655	14.85
854.83	16.9
855.005	18.94
855.18	55.81
855.354	84.48
855.529	4.61
855.704	6.66
855.879	18.94
856.053	66.05
856.228	-32.26
856.403	-38.4
856.577	25.09
856.752	18.94
856.926	80.38
857.101	51.71
857.276	64
857.45	25.09
857.625	-67.07
857.799	-46.59
857.974	39.42
858.148	-50.69
858.323	64
858.497	18.94
858.672	55.81
858.846	-19.97
859.02	-11.78
859.195	29.18
859.369	115.2
859.543	39.42
859.718	39.42
859.892	57.86
860.066	10.75
860.241	-11.78
860.415	-7.68
860.589	-30.21
860.763	-26.11
860.938	18.94
861.112	-28.16
861.286	-30.21
861.46	68.09
861.634	41.47
861.808	47.62
861.982	-9.73
862.157	-1.54
862.331	49.66
862.505	-26.11
862.679	18.94
862.853	39.42
863.027	25.09
863.201	0.51
863.375	16.9
863.549	27.14
863.722	31.23
863.896	57.86
864.07	41.47
864.244	31.23
864.418	18.94
864.592	18.94
864.766	35.33
864.939	-24.06
865.113	-13.82
865.287	23.04
865.461	-56.83
865.634	133.63
865.808	18.94
865.982	0.51
866.156	6.66
866.329	-9.73
866.503	-36.35
866.676	68.09
866.85	64
867.024	-7.68
867.197	45.57
867.371	-9.73
867.544	16.9
867.718	14.85
867.891	23.04
868.065	16.9
868.238	-3.58
868.412	53.76
868.585	57.86
868.759	-19.97
868.932	8.7
869.105	-19.97
869.279	16.9
869.452	-7.68
869.625	47.62
869.799	0.51
869.972	-7.68
870.145	-15.87
870.319	39.42
870.492	80.38
870.665	51.71
870.838	-15.87
871.011	-28.16
871.185	78.33
871.358	8.7
871.531	78.33
871.704	6.66
871.877	6.66
872.05	23.04
872.223	78.33
872.396	4.61
872.569	-48.64
872.742	39.42
872.915	31.23
873.088	-50.69
873.261	-40.45
873.434	-28.16
873.607	29.18
873.78	-1.54
873.953	-9.73
874.126	-11.78
874.299	35.33
874.471	29.18
874.644	16.9
874.817	55.81
874.99	18.94
875.163	72.19
875.335	25.09
875.508	-1.54
875.681	2.56
875.853	-40.45
876.026	-17.92
876.199	49.66
876.371	-1.54
876.544	-3.58
876.717	-3.58
876.889	35.33
877.062	-15.87
877.234	-3.58
877.407	0.51
877.579	70.14
877.752	-48.64
877.924	-32.26
878.097	16.9
878.269	10.75
878.442	43.52
878.614	-34.3
878.786	33.28
878.959	-30.21
879.131	70.14
879.303	8.7
879.476	29.18
879.648	88.57
879.82	39.42
879.993	-24.06
880.165	18.94
880.337	-5.63
880.509	10.75
880.681	-34.3
880.854	33.28
881.026	-62.98
881.198	39.42
881.37	70.14
881.542	88.57
881.714	-62.98
881.886	92.67
882.058	-38.4
882.23	-22.02
882.402	-22.02
882.574	53.76
882.746	-13.82
882.918	-19.97
883.09	-42.5
883.262	64
883.434	0.51
883.606	14.85
883.778	-32.26
883.95	64
884.122	41.47
884.293	-54.78
884.465	10.75
884.637	35.33
884.809	-19.97
884.98	31.23
885.152	-28.16
885.324	20.99
885.496	43.52
885.667	-81.41
885.839	-48.64
886.011	43.52
886.182	68.09
886.354	-40.45
886.525	16.9
886.697	16.9
886.869	72.19
887.04	23.04
887.212	-9.73
887.383	41.47
887.555	-56.83
887.726	12.8
887.897	27.14
888.069	86.53
888.24	0.51
888.412	-32.26
888.583	-11.78
888.754	-28.16
888.926	-11.78
889.097	2.56
889.268	25.09
889.44	-83.45
889.611	-36.35
889.782	57.86
889.953	-7.68
890.125	4.61
890.296	-48.64
890.467	20.99
890.638	10.75
890.809	-22.02
890.98	-5.63
891.151	18.94
891.323	33.28
891.494	8.7
891.665	35.33
891.836	-11.78
892.007	29.18
892.178	-17.92
892.349	51.71
892.52	12.8
892.691	74.24
892.862	-32.26
893.032	2.56
893.203	18.94
893.374	16.9
893.545	68.09
893.716	10.75
893.887	-7.68
894.057	-26.11
894.228	49.66
894.399	14.85
894.57	-42.5
894.74	-36.35
894.911	27.14
895.082	23.04
895.253	-30.21
895.423	8.7
895.594	53.76
895.764	39.42
895.935	-7.68
896.106	-15.87
896.276	16.9
896.447	23.04
896.617	68.09
896.788	33.28
896.958	47.62
897.129	-95.74
897.299	-9.73
897.47	-7.68
897.64	27.14
897.81	53.76
897.981	-7.68
898.151	-24.06
898.322	35.33
898.492	10.75
898.662	35.33
898.832	-9.73
899.003	-1.54
899.173	18.94
899.343	61.95
899.513	16.9
