Data from USB4F104151__94__13-00-11-698.txt Node

Date: Fri Mar 14 13:00:11 EDT 2025
User: louis
Spectrometer: USB4F10415
Trigger mode: 4
Integration Time (sec): 1.000000E-2
Scans to average: 1
Electric dark correction enabled: true
Nonlinearity correction enabled: false
Boxcar width: 0
XAxis mode: Wavelengths
Number of Pixels in Spectrum: 3648
>>>>>Begin Spectral Data<<<<<
178.204	-3.07
178.424	-3.07
178.644	-3.07
178.864	-97.28
179.084	-7.17
179.304	1.02
179.524	7.17
179.744	33.79
179.964	-11.26
180.184	15.36
180.404	-11.26
180.624	-66.56
180.844	-39.94
181.064	11.26
181.283	7.17
181.503	39.94
181.723	13.31
181.943	-15.36
182.163	21.5
182.383	-23.55
182.602	87.04
182.822	-11.26
183.042	-62.46
183.262	-50.18
183.482	-9.22
183.701	-1.02
183.921	41.98
184.141	-48.13
184.361	-11.26
184.58	27.65
184.8	23.55
185.02	3.07
185.239	52.22
185.459	-3.07
185.679	56.32
185.898	-3.07
186.118	70.65
186.338	25.6
186.557	52.22
186.777	-39.94
186.997	-68.61
187.216	37.89
187.436	15.36
187.655	66.56
187.875	5.12
188.095	72.7
188.314	-17.41
188.534	54.27
188.753	33.79
188.973	-54.27
189.192	33.79
189.412	-21.5
189.631	80.89
189.851	21.5
190.07	-3.07
190.29	5.12
190.509	-7.17
190.729	58.37
190.948	21.5
191.168	105.47
191.387	39.94
191.607	-39.94
191.826	33.79
192.045	-11.26
192.265	87.04
192.484	-39.94
192.704	11.26
192.923	13.31
193.142	29.7
193.362	72.7
193.581	25.6
193.8	62.46
194.02	64.51
194.239	-1.02
194.458	11.26
194.678	17.41
194.897	-56.32
195.116	27.65
195.335	15.36
195.555	35.84
195.774	7.17
195.993	54.27
196.212	37.89
196.432	46.08
196.651	-39.94
196.87	1.02
197.089	23.55
197.308	54.27
197.528	93.18
197.747	-9.22
197.966	50.18
198.185	-5.12
198.404	46.08
198.623	15.36
198.842	3.07
199.062	60.42
199.281	46.08
199.5	-19.46
199.719	-13.31
199.938	58.37
200.157	44.03
200.376	3.07
200.595	29.7
200.814	17.41
201.033	46.08
201.252	29.7
201.471	-29.7
201.69	66.56
201.909	50.18
202.128	50.18
202.347	9.22
202.566	70.65
202.785	60.42
203.004	-17.41
203.223	31.74
203.442	95.23
203.661	74.75
203.879	13.31
204.098	54.27
204.317	27.65
204.536	87.04
204.755	-21.5
204.974	-15.36
205.193	29.7
205.411	76.8
205.63	11.26
205.849	-35.84
206.068	46.08
206.287	5.12
206.505	-1.02
206.724	33.79
206.943	-1.02
207.162	-27.65
207.381	-11.26
207.599	15.36
207.818	46.08
208.037	27.65
208.255	-13.31
208.474	50.18
208.693	72.7
208.911	31.74
209.13	-13.31
209.349	80.89
209.567	-72.7
209.786	13.31
210.005	7.17
210.223	13.31
210.442	41.98
210.661	5.12
210.879	21.5
211.098	1.02
211.316	37.89
211.535	84.99
211.753	-21.5
211.972	66.56
212.191	5.12
212.409	-33.79
212.628	48.13
212.846	52.22
213.065	23.55
213.283	-1.02
213.502	5.12
213.72	-46.08
213.938	-54.27
214.157	1.02
214.375	1.02
214.594	35.84
214.812	25.6
215.031	5.12
215.249	-33.79
215.467	-3.07
215.686	19.46
215.904	62.46
216.122	5.12
216.341	35.84
216.559	99.33
216.778	-17.41
216.996	78.85
217.214	35.84
217.432	46.08
217.651	52.22
217.869	-37.89
218.087	-39.94
218.306	-23.55
218.524	62.46
218.742	-44.03
218.96	27.65
219.179	44.03
219.397	-33.79
219.615	56.32
219.833	31.74
220.051	-23.55
220.27	-62.46
220.488	41.98
220.706	3.07
220.924	66.56
221.142	82.94
221.36	52.22
221.578	109.57
221.796	13.31
222.015	7.17
222.233	48.13
222.451	5.12
222.669	13.31
222.887	46.08
223.105	-19.46
223.323	-3.07
223.541	-17.41
223.759	21.5
223.977	-3.07
224.195	-27.65
224.413	-1.02
224.631	23.55
224.849	37.89
225.067	23.55
225.285	-13.31
225.503	74.75
225.721	-27.65
225.939	41.98
226.157	3.07
226.375	37.89
226.592	-27.65
226.81	48.13
227.028	25.6
227.246	29.7
227.464	44.03
227.682	31.74
227.9	5.12
228.117	9.22
228.335	-7.17
228.553	21.5
228.771	132.09
228.989	54.27
229.206	50.18
229.424	52.22
229.642	-19.46
229.86	-1.02
230.077	-9.22
230.295	23.55
230.513	-21.5
230.731	64.51
230.948	-19.46
231.166	29.7
231.384	-1.02
231.601	13.31
231.819	82.94
232.037	-78.85
232.254	48.13
232.472	-17.41
232.689	-7.17
232.907	44.03
233.125	37.89
233.342	48.13
233.56	19.46
233.777	-3.07
233.995	31.74
234.213	-25.6
234.43	-33.79
234.648	31.74
234.865	41.98
235.083	-9.22
235.3	17.41
235.518	117.76
235.735	66.56
235.953	78.85
236.17	48.13
236.388	33.79
236.605	39.94
236.822	35.84
237.04	-33.79
237.257	1.02
237.475	3.07
237.692	1.02
237.909	-5.12
238.127	-17.41
238.344	68.61
238.562	11.26
238.779	5.12
238.996	50.18
239.214	11.26
239.431	78.85
239.648	60.42
239.865	52.22
240.083	1.02
240.3	-1.02
240.517	-103.42
240.735	-25.6
240.952	-41.98
241.169	-7.17
241.386	66.56
241.603	54.27
241.821	19.46
242.038	-33.79
242.255	17.41
242.472	7.17
242.689	-33.79
242.907	-9.22
243.124	58.37
243.341	11.26
243.558	-1.02
243.775	5.12
243.992	31.74
244.209	66.56
244.426	52.22
244.643	-3.07
244.86	-9.22
245.078	13.31
245.295	37.89
245.512	3.07
245.729	31.74
245.946	48.13
246.163	15.36
246.38	29.7
246.597	-13.31
246.814	-27.65
247.031	48.13
247.248	1.02
247.464	31.74
247.681	11.26
247.898	41.98
248.115	52.22
248.332	25.6
248.549	70.65
248.766	72.7
248.983	74.75
249.2	66.56
249.417	62.46
249.633	1.02
249.85	-19.46
250.067	-11.26
250.284	27.65
250.501	19.46
250.717	-35.84
250.934	1.02
251.151	-7.17
251.368	23.55
251.585	21.5
251.801	3.07
252.018	44.03
252.235	5.12
252.451	23.55
252.668	-3.07
252.885	52.22
253.102	58.37
253.318	29.7
253.535	-52.22
253.752	80.89
253.968	-11.26
254.185	50.18
254.401	62.46
254.618	44.03
254.835	-48.13
255.051	60.42
255.268	50.18
255.484	46.08
255.701	13.31
255.917	1.02
256.134	41.98
256.351	1.02
256.567	-25.6
256.784	5.12
257	-15.36
257.217	-1.02
257.433	-9.22
257.65	44.03
257.866	25.6
258.082	-11.26
258.299	-5.12
258.515	58.37
258.732	-15.36
258.948	35.84
259.165	74.75
259.381	-13.31
259.597	-58.37
259.814	-9.22
260.03	29.7
260.246	5.12
260.463	37.89
260.679	17.41
260.895	46.08
261.112	-3.07
261.328	29.7
261.544	7.17
261.761	109.57
261.977	44.03
262.193	9.22
262.409	17.41
262.626	21.5
262.842	-1.02
263.058	23.55
263.274	-31.74
263.49	19.46
263.707	39.94
263.923	17.41
264.139	-7.17
264.355	52.22
264.571	-17.41
264.787	62.46
265.004	-25.6
265.22	-17.41
265.436	-11.26
265.652	33.79
265.868	15.36
266.084	-13.31
266.3	72.7
266.516	46.08
266.732	89.09
266.948	-27.65
267.164	31.74
267.38	35.84
267.596	19.46
267.812	76.8
268.028	78.85
268.244	-23.55
268.46	15.36
268.676	58.37
268.892	66.56
269.108	-29.7
269.324	-82.94
269.54	-1.02
269.756	3.07
269.972	-17.41
270.188	37.89
270.403	29.7
270.619	48.13
270.835	60.42
271.051	15.36
271.267	25.6
271.483	21.5
271.698	21.5
271.914	7.17
272.13	-3.07
272.346	-27.65
272.562	-11.26
272.777	11.26
272.993	95.23
273.209	-3.07
273.425	54.27
273.64	21.5
273.856	128
274.072	-39.94
274.287	41.98
274.503	21.5
274.719	11.26
274.934	-11.26
275.15	-7.17
275.366	-9.22
275.581	46.08
275.797	5.12
276.012	50.18
276.228	56.32
276.444	33.79
276.659	46.08
276.875	1.02
277.09	-15.36
277.306	-39.94
277.521	48.13
277.737	54.27
277.952	35.84
278.168	11.26
278.383	37.89
278.599	-33.79
278.814	7.17
279.03	56.32
279.245	17.41
279.461	-15.36
279.676	13.31
279.892	17.41
280.107	76.8
280.322	9.22
280.538	46.08
280.753	5.12
280.969	39.94
281.184	1.02
281.399	-27.65
281.615	56.32
281.83	-35.84
282.045	19.46
282.26	29.7
282.476	33.79
282.691	99.33
282.906	46.08
283.122	29.7
283.337	48.13
283.552	-1.02
283.767	3.07
283.983	54.27
284.198	66.56
284.413	-9.22
284.628	44.03
284.843	39.94
285.058	9.22
285.274	-9.22
285.489	37.89
285.704	84.99
285.919	78.85
286.134	80.89
286.349	37.89
286.564	-5.12
286.779	41.98
286.995	29.7
287.21	72.7
287.425	-1.02
287.64	-50.18
287.855	31.74
288.07	35.84
288.285	41.98
288.5	31.74
288.715	78.85
288.93	50.18
289.145	21.5
289.36	7.17
289.575	44.03
289.79	3.07
290.004	23.55
290.219	46.08
290.434	117.76
290.649	66.56
290.864	-3.07
291.079	13.31
291.294	-60.42
291.509	21.5
291.724	19.46
291.938	1.02
292.153	-5.12
292.368	19.46
292.583	48.13
292.798	35.84
293.012	60.42
293.227	17.41
293.442	87.04
293.657	21.5
293.871	-3.07
294.086	27.65
294.301	29.7
294.516	82.94
294.73	-11.26
294.945	1.02
295.16	39.94
295.374	-7.17
295.589	72.7
295.804	23.55
296.018	39.94
296.233	78.85
296.447	-15.36
296.662	56.32
296.877	54.27
297.091	-5.12
297.306	-15.36
297.52	52.22
297.735	15.36
297.949	-23.55
298.164	1.02
298.378	-17.41
298.593	70.65
298.807	52.22
299.022	-11.26
299.236	23.55
299.451	31.74
299.665	70.65
299.88	-1.02
300.094	-21.5
300.309	74.75
300.523	5.12
300.737	13.31
300.952	-3.07
301.166	7.17
301.381	35.84
301.595	95.23
301.809	17.41
302.024	-19.46
302.238	41.98
302.452	31.74
302.667	64.51
302.881	56.32
303.095	50.18
303.309	-1.02
303.524	-15.36
303.738	15.36
303.952	64.51
304.166	1.02
304.381	-13.31
304.595	-3.07
304.809	33.79
305.023	76.8
305.237	58.37
305.452	111.61
305.666	3.07
305.88	46.08
306.094	39.94
306.308	21.5
306.522	46.08
306.736	-11.26
306.95	58.37
307.164	48.13
307.379	3.07
307.593	23.55
307.807	1.02
308.021	-25.6
308.235	13.31
308.449	-27.65
308.663	29.7
308.877	23.55
309.091	17.41
309.305	3.07
309.519	-9.22
309.733	39.94
309.947	-54.27
310.161	39.94
310.374	37.89
310.588	89.09
310.802	44.03
311.016	87.04
311.23	-17.41
311.444	11.26
311.658	7.17
311.872	56.32
312.085	-41.98
312.299	64.51
312.513	11.26
312.727	39.94
312.941	35.84
313.154	-1.02
313.368	7.17
313.582	13.31
313.796	19.46
314.009	119.81
314.223	46.08
314.437	97.28
314.651	-7.17
314.864	11.26
315.078	111.61
315.292	56.32
315.505	37.89
315.719	33.79
315.933	39.94
316.146	41.98
316.36	3.07
316.573	-25.6
316.787	7.17
317.001	52.22
317.214	3.07
317.428	41.98
317.641	27.65
317.855	33.79
318.068	31.74
318.282	1.02
318.495	70.65
318.709	25.6
318.922	-35.84
319.136	9.22
319.349	93.18
319.563	64.51
319.776	44.03
319.99	33.79
320.203	25.6
320.417	-37.89
320.63	72.7
320.843	29.7
321.057	-11.26
321.27	15.36
321.483	103.42
321.697	31.74
321.91	19.46
322.124	25.6
322.337	-41.98
322.55	-19.46
322.763	54.27
322.977	-3.07
323.19	-29.7
323.403	31.74
323.617	-13.31
323.83	9.22
324.043	1.02
324.256	60.42
324.469	15.36
324.683	13.31
324.896	72.7
325.109	37.89
325.322	25.6
325.535	107.52
325.748	13.31
325.962	-23.55
326.175	31.74
326.388	9.22
326.601	50.18
326.814	-25.6
327.027	1.02
327.24	56.32
327.453	-9.22
327.666	62.46
327.879	82.94
328.092	27.65
328.305	-11.26
328.518	21.5
328.731	68.61
328.944	33.79
329.157	21.5
329.37	-5.12
329.583	33.79
329.796	21.5
330.009	46.08
330.222	21.5
330.435	-17.41
330.648	54.27
330.861	27.65
331.073	-11.26
331.286	48.13
331.499	107.52
331.712	21.5
331.925	5.12
332.138	-11.26
332.35	68.61
332.563	-37.89
332.776	78.85
332.989	-7.17
333.202	5.12
333.414	46.08
333.627	-9.22
333.84	-25.6
334.053	-3.07
334.265	27.65
334.478	19.46
334.691	23.55
334.903	44.03
335.116	25.6
335.329	87.04
335.541	13.31
335.754	132.09
335.966	11.26
336.179	56.32
336.392	62.46
336.604	-3.07
336.817	35.84
337.029	64.51
337.242	-1.02
337.454	17.41
337.667	56.32
337.88	15.36
338.092	46.08
338.305	17.41
338.517	74.75
338.729	11.26
338.942	80.89
339.154	31.74
339.367	41.98
339.579	21.5
339.792	80.89
340.004	29.7
340.217	44.03
340.429	31.74
340.641	46.08
340.854	-21.5
341.066	-3.07
341.278	54.27
341.491	1.02
341.703	15.36
341.915	23.55
342.128	21.5
342.34	50.18
342.552	21.5
342.764	29.7
342.977	-7.17
343.189	25.6
343.401	70.65
343.613	-3.07
343.826	111.61
344.038	-29.7
344.25	13.31
344.462	-13.31
344.674	31.74
344.886	-9.22
345.099	48.13
345.311	-15.36
345.523	60.42
345.735	82.94
345.947	54.27
346.159	-13.31
346.371	29.7
346.583	41.98
346.795	58.37
347.007	-72.7
347.219	80.89
347.431	17.41
347.643	33.79
347.855	15.36
348.067	25.6
348.279	46.08
348.491	68.61
348.703	-68.61
348.915	-35.84
349.127	87.04
349.339	70.65
349.551	21.5
349.763	70.65
349.975	3.07
350.187	58.37
350.399	21.5
350.61	52.22
350.822	-44.03
351.034	111.61
351.246	-17.41
351.458	105.47
351.669	46.08
351.881	-44.03
352.093	3.07
352.305	48.13
352.517	-23.55
352.728	29.7
352.94	-17.41
353.152	91.13
353.363	58.37
353.575	37.89
353.787	39.94
353.999	50.18
354.21	3.07
354.422	62.46
354.633	-3.07
354.845	84.99
355.057	-5.12
355.268	25.6
355.48	-3.07
355.692	39.94
355.903	123.9
356.115	41.98
356.326	7.17
356.538	37.89
356.749	-13.31
356.961	70.65
357.172	125.95
357.384	54.27
357.595	44.03
357.807	44.03
358.018	-3.07
358.23	95.23
358.441	48.13
358.653	27.65
358.864	-41.98
359.075	97.28
359.287	27.65
359.498	44.03
359.709	19.46
359.921	35.84
360.132	-19.46
360.344	-9.22
360.555	3.07
360.766	15.36
360.977	17.41
361.189	-27.65
361.4	5.12
361.611	11.26
361.823	13.31
362.034	25.6
362.245	-1.02
362.456	-41.98
362.667	25.6
362.879	91.13
363.09	-50.18
363.301	84.99
363.512	3.07
363.723	74.75
363.935	-5.12
364.146	82.94
364.357	11.26
364.568	5.12
364.779	27.65
364.99	56.32
365.201	70.65
365.412	123.9
365.623	-1.02
365.834	72.7
366.045	-15.36
366.256	39.94
366.467	44.03
366.678	13.31
366.889	5.12
367.1	31.74
367.311	37.89
367.522	74.75
367.733	-1.02
367.944	35.84
368.155	62.46
368.366	50.18
368.577	64.51
368.788	17.41
368.999	-21.5
369.209	9.22
369.42	80.89
369.631	97.28
369.842	31.74
370.053	115.71
370.264	33.79
370.474	76.8
370.685	35.84
370.896	80.89
371.107	113.66
371.317	1.02
371.528	74.75
371.739	46.08
371.95	25.6
372.16	-27.65
372.371	140.29
372.582	-37.89
372.792	23.55
373.003	-13.31
373.214	25.6
373.424	64.51
373.635	-15.36
373.846	119.81
374.056	-13.31
374.267	41.98
374.477	-3.07
374.688	15.36
374.898	3.07
375.109	9.22
375.319	39.94
375.53	35.84
375.74	35.84
375.951	-11.26
376.161	-15.36
376.372	27.65
376.582	66.56
376.793	37.89
377.003	41.98
377.214	-1.02
377.424	41.98
377.635	95.23
377.845	9.22
378.055	11.26
378.266	37.89
378.476	31.74
378.686	-29.7
378.897	54.27
379.107	9.22
379.317	93.18
379.528	-76.8
379.738	68.61
379.948	-1.02
380.158	62.46
380.369	-15.36
380.579	50.18
380.789	50.18
380.999	54.27
381.21	15.36
381.42	56.32
381.63	107.52
381.84	15.36
382.05	7.17
382.261	46.08
382.471	87.04
382.681	62.46
382.891	33.79
383.101	-9.22
383.311	1.02
383.521	31.74
383.731	29.7
383.941	11.26
384.151	97.28
384.361	56.32
384.571	37.89
384.781	70.65
384.991	70.65
385.201	117.76
385.411	64.51
385.621	113.66
385.831	9.22
386.041	-31.74
386.251	50.18
386.461	29.7
386.671	-7.17
386.881	113.66
387.091	3.07
387.301	9.22
387.511	-21.5
387.72	82.94
387.93	56.32
388.14	31.74
388.35	31.74
388.56	82.94
388.769	50.18
388.979	82.94
389.189	31.74
389.399	54.27
389.609	-37.89
389.818	95.23
390.028	-27.65
390.238	48.13
390.447	84.99
390.657	48.13
390.867	11.26
391.076	39.94
391.286	37.89
391.496	41.98
391.705	9.22
391.915	27.65
392.125	31.74
392.334	46.08
392.544	64.51
392.753	95.23
392.963	9.22
393.172	54.27
393.382	-37.89
393.591	37.89
393.801	-54.27
394.01	84.99
394.22	31.74
394.429	37.89
394.639	50.18
394.848	82.94
395.058	62.46
395.267	46.08
395.477	19.46
395.686	105.47
395.895	80.89
396.105	37.89
396.314	56.32
396.524	15.36
396.733	-17.41
396.942	101.37
397.152	89.09
397.361	9.22
397.57	25.6
397.78	50.18
397.989	54.27
398.198	50.18
398.407	80.89
398.617	41.98
398.826	82.94
399.035	-1.02
399.244	91.13
399.453	-3.07
399.663	33.79
399.872	48.13
400.081	56.32
400.29	121.85
400.499	19.46
400.708	107.52
400.917	-25.6
401.127	78.85
401.336	111.61
401.545	101.37
401.754	97.28
401.963	52.22
402.172	56.32
402.381	17.41
402.59	130.05
402.799	82.94
403.008	156.67
403.217	93.18
403.426	95.23
403.635	5.12
403.844	78.85
404.053	140.29
404.262	66.56
404.471	158.72
404.68	103.42
404.888	87.04
405.097	111.61
405.306	74.75
405.515	54.27
405.724	97.28
405.933	117.76
406.142	70.65
406.35	154.62
406.559	68.61
406.768	119.81
406.977	97.28
407.185	113.66
407.394	144.38
407.603	105.47
407.812	111.61
408.02	70.65
408.229	95.23
408.438	146.43
408.646	136.19
408.855	162.81
409.064	185.34
409.272	123.9
409.481	162.81
409.69	111.61
409.898	132.09
410.107	128
410.315	228.35
410.524	115.71
410.733	101.37
410.941	130.05
411.15	197.63
411.358	224.25
411.567	232.44
411.775	218.11
411.984	183.29
412.192	179.2
412.401	281.6
412.609	226.3
412.818	230.4
413.026	244.73
413.234	238.59
413.443	302.08
413.651	222.2
413.86	250.88
414.068	283.64
414.276	254.97
414.485	267.26
414.693	390.14
414.901	367.61
415.11	386.04
415.318	390.14
415.526	390.14
415.734	371.71
415.943	295.93
416.151	455.67
416.359	467.96
416.567	429.05
416.776	476.15
416.984	506.87
417.192	504.82
417.4	515.06
417.608	498.68
417.817	508.92
418.025	584.7
418.233	578.55
418.441	633.85
418.649	621.56
418.857	687.09
419.065	701.43
419.273	685.05
419.481	738.29
419.689	652.28
419.897	740.34
420.105	789.49
420.313	746.48
420.521	846.84
420.729	805.88
420.937	898.03
421.145	984.05
421.353	861.17
421.561	992.24
421.769	957.43
421.977	1031.15
422.185	1039.34
422.393	1082.35
422.601	1063.92
422.809	1145.84
423.017	1100.78
423.224	1143.79
423.432	1381.35
423.64	1281
423.848	1324.01
424.056	1334.25
424.263	1326.06
424.471	1463.27
424.679	1489.9
424.887	1602.54
425.094	1512.42
425.302	1602.54
425.51	1643.49
425.718	1848.29
425.925	1672.17
426.133	1758.18
426.341	1840.1
426.548	2098.14
426.756	1897.44
426.964	2153.44
427.171	2083.81
427.379	2251.74
427.586	2128.86
427.794	2352.09
428.001	2407.39
428.209	2479.07
428.417	2501.59
428.624	2520.03
428.832	2536.41
429.039	2560.98
429.247	2690.01
429.454	2743.25
429.662	3011.54
429.869	2898.9
430.076	2943.96
430.284	2946
430.491	3056.59
430.699	3126.22
430.906	3249.1
431.114	3341.26
431.321	3337.17
431.528	3425.23
431.736	3699.66
431.943	3922.88
432.15	3888.07
432.358	3730.38
432.565	4033.47
432.772	3959.75
432.979	4117.44
433.187	4275.13
433.394	4443.07
433.601	4727.74
433.808	4625.34
434.016	4578.23
434.223	4793.27
434.43	4996.02
434.637	4965.3
434.844	5321.65
435.052	5419.95
435.259	5419.95
435.466	5368.75
435.673	5362.61
435.88	5745.58
436.087	6040.48
436.294	6060.96
436.501	5882.79
436.708	5886.89
436.915	6288.29
437.122	6507.42
437.329	6382.49
437.537	6697.88
437.743	6847.38
437.95	6759.32
438.157	7211.92
438.364	7267.22
438.571	7080.85
438.778	7320.46
438.985	8059.78
439.192	7672.71
439.399	7961.48
439.606	7711.63
439.813	8383.36
440.02	8741.75
440.227	8573.82
440.433	8362.88
440.64	8883.06
440.847	8813.43
441.054	9079.67
441.261	9450.35
441.467	9468.78
441.674	9694.06
441.881	9993.06
442.088	10113.89
442.294	9929.58
442.501	10175.33
442.708	10492.77
442.914	10812.25
443.121	11311.96
443.328	10869.59
443.534	11662.16
443.741	11258.71
443.948	11299.67
444.154	12129.09
444.361	11889.48
444.568	12202.82
444.774	11995.98
444.981	12352.32
445.187	12499.78
445.394	13048.63
445.6	13134.65
445.807	14369.57
446.013	13857.58
446.22	14115.62
446.426	14392.1
446.633	14660.38
446.839	15031.07
447.046	14576.42
447.252	15432.47
447.459	15557.39
447.665	15547.15
447.871	16286.47
448.078	16761.6
448.284	15958.8
448.491	16374.53
448.697	17175.29
448.903	17472.25
449.11	17472.25
449.316	17275.64
449.522	17666.8
449.728	18060.01
449.935	18273
450.141	18125.55
450.347	18526.95
450.553	18105.07
450.76	18215.66
450.966	18846.43
451.172	18768.61
451.378	19329.75
451.584	18719.46
451.791	19524.31
451.997	19157.72
452.203	19559.13
452.409	19505.88
452.615	19466.97
452.821	18932.45
453.027	18676.45
453.233	19671.76
453.44	18946.78
453.646	19120.86
453.852	19378.9
454.058	19806.93
454.264	19071.71
454.47	19198.68
454.676	18963.17
454.882	19720.92
455.088	18121.45
455.294	18322.15
455.5	18432.74
455.705	18612.96
455.911	18012.91
456.117	17654.51
456.323	17322.74
456.529	16204.55
456.735	17048.32
456.941	16567.04
457.147	16501.51
457.352	15801.1
457.558	15708.94
457.764	15944.46
457.97	15452.95
458.176	15379.22
458.381	15395.61
458.587	14416.68
458.793	14455.59
458.999	13708.08
459.204	14711.58
459.41	14222.12
459.616	13339.44
459.821	13339.44
460.027	13421.36
460.233	13157.18
460.438	12217.16
460.644	12669.76
460.85	12057.42
461.055	11719.5
461.261	11621.2
461.466	11006.81
461.672	10320.74
461.878	11402.07
462.083	10494.82
462.289	10275.68
462.494	10183.52
462.7	9841.51
462.905	9444.21
463.111	9839.47
463.316	10138.47
463.522	9751.4
463.727	9714.54
463.932	9698.16
464.138	9429.87
464.343	9655.15
464.549	9376.62
464.754	9376.62
464.959	9483.12
465.165	9395.06
465.37	8991.61
465.575	8940.41
465.781	9212.79
465.986	9323.38
466.191	8991.61
466.397	8878.97
466.602	8307.59
466.807	8676.22
467.012	8518.53
467.218	8676.22
467.423	8598.4
467.628	8543.1
467.833	9085.81
468.038	8688.51
468.244	8491.9
468.449	8850.3
468.654	8369.02
468.859	8682.36
469.064	8254.34
469.269	8006.53
469.474	8125.32
469.679	8440.7
469.885	8049.54
470.09	8289.15
470.295	8078.21
470.5	7822.22
470.705	7965.57
470.91	7635.85
471.115	7758.73
471.32	7818.12
471.525	7771.02
471.73	7486.35
471.935	7584.65
472.139	7224.21
472.344	7500.69
472.549	7400.34
472.754	7359.38
472.959	7148.43
473.164	6986.65
473.369	6996.89
473.574	7224.21
473.778	7199.63
473.983	7046.04
474.188	6974.36
474.393	6693.79
474.598	6597.53
474.802	6595.48
475.007	6714.27
475.212	6742.94
475.417	6497.18
475.621	6409.12
475.826	6529.95
476.031	6282.14
476.235	6189.99
476.44	6370.21
476.645	6112.16
476.849	6159.27
477.054	6026.15
477.259	6206.37
477.463	6122.4
477.668	5813.16
477.872	5931.94
478.077	5917.61
478.282	5673.9
478.486	5671.85
478.691	5665.71
478.895	5624.75
479.1	5440.43
479.304	5641.13
479.509	5352.37
479.713	5677.99
479.918	5338.03
480.122	5338.03
480.326	5481.39
480.531	5383.09
480.735	5415.85
480.94	5264.3
481.144	5383.09
481.348	5209.01
481.553	5323.69
481.757	5256.11
481.961	5292.98
482.166	5284.78
482.37	5338.03
482.574	4989.88
482.778	5082.03
482.983	5284.78
483.187	5252.02
483.391	5223.34
483.595	5118.9
483.8	5149.62
484.004	5075.89
484.208	5180.34
484.412	5192.62
484.616	5325.74
484.821	5297.07
485.025	5239.73
485.229	5215.15
485.433	5202.86
485.637	5194.67
485.841	5274.54
486.045	5272.5
486.249	5192.62
486.453	5272.5
486.657	5155.76
486.861	5229.49
487.065	5092.27
487.269	5206.96
487.473	5125.04
487.677	5297.07
487.881	5159.86
488.085	5063.6
488.289	5204.91
488.493	5116.85
488.697	5372.85
488.901	5340.08
489.105	5305.26
489.309	5374.89
489.512	5422
489.716	5440.43
489.92	5280.69
490.124	5274.54
490.328	5473.2
490.531	5428.14
490.735	5415.85
490.939	5520.3
491.143	5374.89
491.346	5518.25
491.55	5483.44
491.754	5372.85
491.958	5569.45
492.161	5553.07
492.365	5700.52
492.569	5688.23
492.772	5559.21
492.976	5776.3
493.18	5821.35
493.383	5723.05
493.587	5788.58
493.79	5823.4
493.994	5796.78
494.197	5825.45
494.401	5874.6
494.605	5850.02
494.808	5837.73
495.012	6149.03
495.215	5899.17
495.419	6189.99
495.622	6300.58
495.825	6276
496.029	6163.36
496.232	6327.2
496.436	6411.17
496.639	6460.32
496.843	6415.26
497.046	6638.49
497.249	6730.65
497.453	6613.92
497.656	6790.04
497.859	6874.01
498.063	6843.29
498.266	6964.12
498.469	7009.17
498.673	7019.41
498.876	7256.98
499.079	7252.88
499.282	7269.27
499.485	7576.46
499.689	7621.52
499.892	7682.95
500.095	7611.28
500.298	7990.15
500.501	7811.98
500.705	8012.68
500.908	7994.25
501.111	8196.99
501.314	8315.78
501.517	8366.98
501.72	8330.11
501.923	8371.07
502.126	8706.94
502.329	8862.58
502.532	8835.96
502.735	9024.37
502.938	9100.15
503.141	9208.69
503.344	9227.12
503.547	9321.33
503.75	9468.78
503.953	9743.21
504.156	9726.83
504.359	9984.87
504.562	9980.78
504.765	10279.78
504.968	10216.29
505.17	10195.81
505.373	10335.07
505.576	10419.04
505.779	10842.97
505.982	10779.48
506.185	10883.93
506.387	11055.96
506.59	11060.06
506.793	11428.69
506.996	11373.39
507.198	11813.71
507.401	11615.05
507.604	11580.24
507.807	12174.15
508.009	12055.37
508.212	12247.88
508.415	12501.83
508.617	12520.26
508.82	12845.88
509.022	12751.68
509.225	12903.23
509.428	13032.25
509.63	13210.42
509.833	13206.33
510.035	13488.95
510.238	13413.17
510.44	13699.89
510.643	13994.79
510.845	14084.91
511.048	14007.08
511.25	14498.59
511.453	14519.07
511.655	15188.76
511.858	14826.27
512.06	15170.33
512.262	15278.87
512.465	15069.98
512.667	15354.65
512.87	15815.44
513.072	15538.96
513.274	15909.65
513.477	16202.5
513.679	16292.62
513.881	16440.07
514.084	16599.81
514.286	16888.57
514.488	16907.01
514.69	17369.85
514.893	17332.98
515.095	17304.31
515.297	17474.29
515.499	17785.58
515.701	18166.51
515.904	18449.13
516.106	18391.78
516.308	18580.2
516.51	18877.15
516.712	18823.9
516.914	19157.72
517.116	19163.87
517.318	19296.99
517.52	19743.44
517.722	19534.55
517.925	19946.19
518.127	20456.14
518.329	20308.68
518.531	20572.87
518.733	21021.38
518.935	20916.93
519.136	20869.83
519.338	21455.54
519.54	21684.92
519.742	21742.26
519.944	21498.55
520.146	22192.81
520.348	22311.6
520.55	22352.55
520.752	22502.06
520.954	23040.67
521.155	22565.54
521.357	22938.27
521.559	23167.65
521.761	23440.03
521.963	23642.78
522.164	23976.59
522.366	23986.83
522.568	24367.76
522.77	24003.22
522.971	24793.73
523.173	24593.03
523.375	24722.05
523.576	24896.13
523.778	24787.59
523.98	24926.85
524.181	25303.68
524.383	25440.89
524.584	25975.41
524.786	25670.26
524.988	25680.5
525.189	25887.35
525.391	26040.95
525.592	26376.81
525.794	26376.81
525.995	26575.47
526.197	26870.37
526.398	26536.56
526.6	27251.3
526.801	26954.34
527.003	26948.2
527.204	26980.96
527.406	27261.54
527.607	27300.45
527.808	27558.49
528.01	27132.51
528.211	27429.47
528.412	27910.74
528.614	27998.8
528.815	27529.82
529.016	28113.49
529.218	27769.43
529.419	27902.55
529.62	28142.16
529.822	28056.15
530.023	28373.58
530.224	28447.31
530.425	27853.4
530.626	28234.32
530.828	28156.5
531.029	28734.03
531.23	28334.67
531.431	28547.66
531.632	28791.37
531.833	28623.44
532.035	28473.93
532.236	28744.27
532.437	28987.97
532.638	28490.32
532.839	28811.85
533.04	28996.17
533.241	28709.45
533.442	29332.03
533.643	29102.66
533.844	28856.9
534.045	28981.83
534.246	28932.68
534.447	29043.27
534.648	28897.86
534.849	29037.12
535.05	28990.02
535.251	29252.16
535.451	29063.75
535.652	28936.77
535.853	29076.04
536.054	29276.74
536.255	29379.14
536.456	28977.73
536.657	29874.74
536.857	29039.17
537.058	29065.8
537.259	29370.94
537.46	29448.77
537.66	29004.36
537.861	29256.26
538.062	29008.45
538.263	29221.44
538.463	29037.12
538.664	29323.84
538.865	29399.62
539.065	29430.33
539.266	29061.7
539.466	29508.16
539.667	28867.14
539.868	29659.71
540.068	29352.51
540.269	29051.46
540.469	29383.23
540.67	29276.74
540.87	28940.87
541.071	29248.07
541.271	29477.44
541.472	29155.91
541.672	28846.66
541.873	29078.08
542.073	28562
542.274	29387.33
542.474	29200.96
542.675	28820.04
542.875	29256.26
543.075	28949.06
543.276	28609.1
543.476	29368.9
543.676	29248.07
543.877	29225.54
544.077	29260.35
544.277	28781.13
544.478	29205.06
544.678	29157.96
544.878	29209.15
545.078	29071.94
545.279	28885.58
545.479	28998.21
545.679	29274.69
545.879	29104.71
546.079	28846.66
546.28	28822.09
546.48	28783.18
546.68	29039.17
546.88	29262.4
547.08	29073.99
547.28	29069.89
547.48	29151.81
547.68	29188.67
547.88	29035.08
548.081	28897.86
548.281	28764.75
548.481	28537.42
548.681	29598.27
548.881	28813.9
549.081	28817.99
549.28	28541.52
549.48	29227.59
549.68	28836.42
549.88	29448.77
550.08	28785.22
550.28	29372.99
550.48	29129.28
550.68	29274.69
550.88	28602.96
551.08	28826.18
551.279	28987.97
551.479	28678.73
551.679	28865.1
551.879	28680.78
552.079	29020.74
552.278	28865.1
552.478	28965.45
552.678	28719.69
552.878	29196.87
553.077	28684.87
553.277	28996.17
553.477	29131.33
553.676	28899.91
553.876	28983.88
554.076	28803.66
554.275	28543.56
554.475	28308.05
554.674	28721.74
554.874	28834.38
555.074	28709.45
555.273	29252.16
555.473	28805.7
555.672	28215.89
555.872	28496.46
556.071	28371.54
556.271	28535.37
556.47	28498.51
556.67	28017.24
556.869	28650.06
557.068	28650.06
557.268	28301.9
557.467	28611.15
557.667	28443.21
557.866	28484.17
558.065	28211.79
558.265	28009.04
558.464	28189.27
558.663	28525.13
558.863	28172.88
559.062	28545.61
559.261	28088.92
559.461	28131.92
559.66	27908.69
559.859	28299.86
560.058	27746.9
560.258	28029.52
560.457	27898.45
560.656	28125.78
560.855	27955.8
561.054	28037.72
561.253	27669.08
561.453	28023.38
561.652	27892.31
561.851	27902.55
562.05	27890.26
562.249	27591.26
562.448	27828.82
562.647	27447.9
562.846	27671.13
563.045	27578.97
563.244	27292.26
563.443	27781.72
563.642	27187.81
563.841	27621.98
564.04	27132.51
564.239	27425.37
564.438	27157.09
564.637	27132.51
564.836	27662.94
565.035	27066.98
565.234	27093.6
565.432	27091.55
565.631	26989.16
565.83	26860.13
566.029	26724.97
566.228	26780.26
566.427	26919.53
566.625	26507.88
566.824	26438.25
567.023	26995.3
567.222	26012.28
567.42	26694.25
567.619	26661.48
567.818	26368.62
568.016	26407.53
568.215	26630.76
568.414	26385.01
568.612	26438.25
568.811	26264.18
569.01	26124.91
569.208	25764.47
569.407	26325.61
569.605	25932.4
569.804	25877.11
570.002	26040.95
570.201	26012.28
570.4	25688.7
570.598	25404.03
570.797	25502.33
570.995	25825.91
571.193	25281.15
571.392	25629.3
571.59	25207.42
571.789	25307.77
571.987	24992.39
572.186	25285.25
572.384	25066.11
572.582	25238.14
572.781	24990.34
572.979	24683.14
573.177	25121.41
573.376	24990.34
573.574	24904.32
573.772	25080.45
573.971	24822.41
574.169	24547.98
574.367	24593.03
574.565	24515.21
574.763	24521.35
574.962	24406.67
575.16	24062.61
575.358	24132.24
575.556	23806.61
575.754	24304.27
575.952	24050.32
576.151	24158.86
576.349	23628.44
576.547	23976.59
576.745	23786.13
576.943	23890.58
577.141	23847.57
577.339	23749.27
577.537	23644.82
577.735	23736.98
577.933	23231.13
578.131	23257.76
578.329	23483.03
578.527	22858.4
578.725	23282.33
578.923	23618.2
579.121	23036.58
579.319	23208.61
579.516	23179.93
579.714	22971.04
579.912	22973.09
580.11	22993.57
580.308	23063.2
580.506	22860.45
580.704	22631.08
580.901	22708.9
581.099	22731.43
581.297	22762.15
581.495	22604.46
581.692	22528.68
581.89	22342.32
582.088	22669.99
582.285	22295.21
582.483	22540.97
582.681	22139.57
582.878	22092.46
583.076	22289.07
583.274	22362.79
583.471	21881.52
583.669	21940.91
583.866	21611.19
584.064	22063.79
584.262	21512.89
584.459	21770.93
584.657	21648.05
584.854	21715.64
585.052	21463.74
585.249	21574.33
585.447	21584.57
585.644	21170.88
585.841	21400.25
586.039	21406.39
586.236	21091.01
586.434	20925.12
586.631	20990.66
586.828	20722.37
587.026	20918.98
587.223	20783.81
587.42	20724.42
587.618	21105.34
587.815	20656.84
588.012	20267.72
588.21	20640.45
588.407	20785.86
588.604	20730.56
588.801	20292.3
588.999	20441.8
589.196	20189.9
589.393	20275.91
589.59	20398.79
589.787	19923.66
589.984	20169.42
590.182	20140.75
590.379	20056.78
590.576	19952.34
590.773	19909.33
590.97	19845.84
591.167	20095.69
591.364	19536.6
591.561	20112.08
591.758	19301.08
591.955	19270.36
592.152	19655.38
592.349	19585.75
592.546	19419.86
592.743	19462.87
592.94	19245.79
593.137	19208.92
593.334	19485.4
593.531	18907.87
593.727	18989.79
593.924	19276.51
594.121	18975.45
594.318	18973.41
594.515	18678.5
594.712	19092.19
594.908	18576.1
595.105	18828
595.302	18793.19
595.499	18547.43
595.696	18625.25
595.892	18553.57
596.089	18813.66
596.286	18567.91
596.482	18262.76
596.679	18356.97
596.876	18367.21
597.072	18121.45
597.269	18053.87
597.466	17996.53
597.662	18115.31
597.859	17998.57
598.055	18189.03
598.252	17437.43
598.448	18039.53
598.645	17834.74
598.841	17728.24
599.038	17695.47
599.234	17775.34
599.431	17232.63
599.627	17400.57
599.824	17466.1
600.02	17660.66
600.217	17347.32
600.413	17128.19
600.609	17117.95
600.806	17119.99
601.002	17212.15
601.198	17326.84
601.395	17105.66
601.591	16896.77
601.787	17060.6
601.984	16841.47
602.18	17052.41
602.376	16714.5
602.572	16849.66
602.769	16644.87
602.965	16517.89
603.161	16411.4
603.357	16536.32
603.553	16687.87
603.75	16358.15
603.946	16200.46
604.142	16282.38
604.338	16319.24
604.534	16397.06
604.73	16165.64
604.926	16057.1
605.122	16124.68
605.318	16257.8
605.514	16040.72
605.71	15870.73
605.906	15801.1
606.102	16087.82
606.298	15966.99
606.494	15790.86
606.69	15737.62
606.886	15805.2
607.082	15534.87
607.278	15895.31
607.474	15469.33
607.67	15745.81
607.866	15385.37
608.062	15766.29
608.257	15356.69
608.453	15493.91
608.649	15465.24
608.845	15295.25
609.041	15508.24
609.236	15397.65
609.432	15274.77
609.628	15414.04
609.824	15184.66
610.019	15162.14
610.215	15092.51
610.411	15231.77
610.606	15063.83
610.802	15096.6
610.998	15080.22
611.193	15067.93
611.389	14828.32
611.584	15100.7
611.78	14699.3
611.976	14936.86
612.171	14828.32
612.367	14619.42
612.562	14723.87
612.758	14637.86
612.953	14613.28
613.149	14783.26
613.344	14324.52
613.539	14867.23
613.735	14641.95
613.93	14646.05
614.126	14646.05
614.321	14545.7
614.517	14764.83
614.712	14547.75
614.907	14404.39
615.103	14486.31
615.298	14324.52
615.493	14578.47
615.688	14197.54
615.884	14398.24
616.079	14162.73
616.274	14150.44
616.47	14193.45
616.665	14369.57
616.86	13994.79
617.055	14021.42
617.25	13951.79
617.445	14099.24
617.641	13785.9
617.836	13955.88
618.031	13542.19
618.226	13884.2
618.421	13595.44
618.616	13738.8
618.811	13556.53
619.006	13720.37
619.201	13560.63
619.396	13628.21
619.591	13398.84
619.786	13822.77
619.981	13261.62
620.176	13499.19
620.371	13241.14
620.566	13034.3
620.761	12919.61
620.956	13097.78
621.151	13108.02
621.346	12876.6
621.541	12829.5
621.735	13030.2
621.93	12608.32
622.125	12897.08
622.32	12520.26
622.515	12708.67
622.709	12337.99
622.904	12675.9
623.099	12299.08
623.294	12323.65
623.488	12229.45
623.683	12163.91
623.878	12225.35
624.072	12157.77
624.267	12092.23
624.462	12024.65
624.656	11877.19
624.851	11780.94
625.046	11764.56
625.24	11912.01
625.435	11649.87
625.629	11608.91
625.824	11432.79
626.018	11582.29
626.213	11334.48
626.407	11430.74
626.602	11289.43
626.796	11361.11
626.991	11076.44
627.185	11041.62
627.38	10978.14
627.574	11017.05
627.768	10890.07
627.963	10951.51
628.157	10767.2
628.352	10836.83
628.546	10736.48
628.74	10795.87
628.935	10687.32
629.129	10703.71
629.323	10613.6
629.517	10703.71
629.712	10437.47
629.906	10208.1
630.1	10185.57
630.294	10380.13
630.489	10056.55
630.683	10181.48
630.877	10113.89
631.071	10058.6
631.265	9993.06
631.459	10113.89
631.653	10019.69
631.848	9769.83
632.042	9722.73
632.236	9737.07
632.43	9757.55
632.624	9663.34
632.818	9620.33
633.012	9550.7
633.206	9657.2
633.4	9540.46
633.594	9245.55
633.788	9413.49
633.982	9212.79
634.176	9163.64
634.369	9298.8
634.563	9352.05
634.757	9218.93
634.951	9065.33
635.145	8921.98
635.339	9149.3
635.533	8991.61
635.726	9042.81
635.92	8926.07
636.114	8893.3
636.308	8663.93
636.501	8780.67
636.695	8708.99
636.889	8569.73
637.083	8506.24
637.276	8659.84
637.47	8557.44
637.664	8504.19
637.857	8364.93
638.051	8422.27
638.244	8213.38
638.438	8342.4
638.632	8156.04
638.825	8264.58
639.019	8217.47
639.212	8055.69
639.406	8055.69
639.599	8086.4
639.793	7928.71
639.986	7857.03
640.18	7943.05
640.373	7746.44
640.567	7881.61
640.76	7670.67
640.954	7662.48
641.147	7621.52
641.34	7502.73
641.534	7582.6
641.727	7369.62
641.92	7416.72
642.114	7388.05
642.307	7510.93
642.5	7293.84
642.694	7228.31
642.887	7130
643.08	7302.03
643.273	7261.07
643.467	7269.27
643.66	7078.8
643.853	7275.41
644.046	6806.42
644.239	7066.52
644.432	6886.29
644.626	6816.66
644.819	6964.12
645.012	6869.91
645.205	6681.5
645.398	6618.01
645.591	6587.29
645.784	6773.66
645.977	6591.39
646.17	6583.2
646.363	6591.39
646.556	6577.05
646.749	6448.03
646.942	6429.6
647.135	6517.66
647.328	6276
647.521	6273.95
647.714	6339.49
647.907	6282.14
648.099	6200.23
648.292	6265.76
648.485	6218.66
648.678	6042.53
648.871	6144.93
649.064	6040.48
649.256	6069.16
649.449	6044.58
649.642	5749.67
649.835	5739.43
650.027	5843.88
650.22	5974.95
650.413	5770.15
650.605	5893.03
650.798	5798.82
650.991	5704.62
651.183	5813.16
651.376	5622.7
651.568	5634.99
651.761	5618.6
651.954	5612.46
652.146	5397.42
652.339	5526.44
652.531	5510.06
652.724	5462.96
652.916	5303.22
653.109	5450.67
653.301	5241.78
653.494	5424.05
653.686	5268.4
653.879	5411.76
654.071	5309.36
654.263	5051.31
654.456	5147.57
654.648	5198.77
654.84	5043.12
655.033	5166
655.225	5036.98
655.417	5090.23
655.61	4959.16
655.802	5088.18
655.994	5012.4
656.186	4965.3
656.379	5063.6
656.571	4975.54
656.763	4887.48
656.955	4733.88
657.148	4922.29
657.34	4715.45
657.532	4717.5
657.724	4633.53
657.916	4651.96
658.108	4735.93
658.3	4551.61
658.492	4682.68
658.684	4547.51
658.876	4441.02
659.068	4559.8
659.26	4537.27
659.452	4539.32
659.644	4494.27
659.836	4363.2
660.028	4424.64
660.22	4357.05
660.412	4414.4
660.604	4352.96
660.796	4330.43
660.988	4189.12
661.18	4359.1
661.372	4201.41
661.563	4185.02
661.755	4295.61
661.947	4328.38
662.139	4187.07
662.331	4195.26
662.522	4170.69
662.714	4146.11
662.906	3998.66
663.097	3990.47
663.289	3939.27
663.481	4002.75
663.673	4068.29
663.864	3863.49
664.056	3804.1
664.247	3931.08
664.439	3783.62
664.631	3843.01
664.822	3857.35
665.014	3705.8
665.205	3783.62
665.397	3685.32
665.588	3761.09
665.78	3738.57
665.971	3701.7
666.163	3707.85
666.354	3630.02
666.546	3623.88
666.737	3507.15
666.929	3695.56
667.12	3668.94
667.311	3550.15
667.503	3529.67
667.694	3564.49
667.885	3498.95
668.077	3537.87
668.268	3412.94
668.459	3371.98
668.651	3511.24
668.842	3392.46
669.033	3462.09
669.224	3398.6
669.416	3474.38
669.607	3394.51
669.798	3179.47
669.989	3529.67
670.18	3384.27
670.371	3302.35
670.563	3339.21
670.754	3396.56
670.945	3218.38
671.136	3394.51
671.327	3206.1
671.518	3226.57
671.709	3097.55
671.9	3169.23
672.091	3193.81
672.282	3072.98
672.473	3167.18
672.664	3146.7
672.855	3021.78
673.046	3115.98
673.237	3103.7
673.428	3191.76
673.619	2976.72
673.809	3105.74
674	3072.98
674.191	3130.32
674.382	2927.57
674.573	2970.58
674.764	2958.29
674.954	3070.93
675.145	2997.2
675.336	2941.91
675.527	2913.24
675.717	2946
675.908	2819.03
676.099	2886.61
676.289	2827.22
676.48	2986.96
676.671	2913.24
676.861	2786.26
677.052	2835.41
677.243	2827.22
677.433	2757.59
677.624	2794.45
677.814	2888.66
678.005	2692.05
678.195	2841.56
678.386	2769.88
678.576	2816.98
678.767	2780.12
678.957	2833.36
679.148	2644.95
679.338	2610.14
679.529	2718.68
679.719	2671.58
679.909	2784.21
680.1	2550.75
680.29	2829.27
680.481	2773.97
680.671	2653.14
680.861	2677.72
681.052	2757.59
681.242	2724.82
681.432	2890.71
681.622	2763.73
681.813	2585.56
682.003	2657.24
682.193	2548.7
682.383	2655.19
682.573	2569.18
682.764	2620.38
682.954	2649.05
683.144	2642.9
683.334	2569.18
683.524	2698.2
683.714	2567.13
683.904	2565.08
684.094	2624.47
684.284	2683.86
684.474	2534.36
684.664	2657.24
684.854	2591.7
685.044	2505.69
685.234	2589.66
685.424	2546.65
685.614	2737.11
685.804	2571.22
685.994	2612.18
686.184	2540.51
686.374	2593.75
686.564	2446.3
686.753	2542.55
686.943	2560.98
687.133	2556.89
687.323	2528.22
687.513	2597.85
687.702	2417.63
687.892	2479.07
688.082	2364.38
688.272	2544.6
688.461	2405.34
688.651	2429.91
688.841	2507.74
689.03	2458.59
689.22	2341.85
689.41	2524.12
689.599	2438.11
689.789	2444.25
689.979	2509.79
690.168	2487.26
690.358	2352.09
690.547	2427.87
690.737	2446.3
690.926	2448.35
691.116	2386.91
691.305	2343.9
691.495	2446.3
691.684	2450.39
691.874	2427.87
692.063	2382.81
692.252	2444.25
692.442	2274.27
692.631	2311.13
692.82	2354.14
693.01	2276.32
693.199	2348
693.388	2345.95
693.578	2261.98
693.767	2276.32
693.956	2227.17
694.146	2317.28
694.335	2397.15
694.524	2233.31
694.713	2233.31
694.902	2210.78
695.092	2307.04
695.281	2237.41
695.47	2202.59
695.659	2298.84
695.848	2153.44
696.037	2339.8
696.226	2253.79
696.415	2216.93
696.604	2257.89
696.793	2210.78
696.982	2182.11
697.171	2278.37
697.36	2325.47
697.549	2178.01
697.738	2243.55
697.927	2184.16
698.116	2216.93
698.305	2221.02
698.494	2151.39
698.683	2180.06
698.872	2233.31
699.061	2135.01
699.25	2173.92
699.438	2147.3
699.627	2175.97
699.816	2137.06
700.005	2122.72
700.193	2110.43
700.382	2188.25
700.571	2171.87
700.76	2210.78
700.948	2122.72
701.137	2135.01
701.326	2122.72
701.514	2079.71
701.703	2094.05
701.892	2143.2
702.08	2135.01
702.269	2159.58
702.457	2077.66
702.646	1979.36
702.834	2061.28
703.023	1991.65
703.212	2030.56
703.4	1991.65
703.589	2016.23
703.777	2085.86
703.965	2137.06
704.154	1962.98
704.342	2055.14
704.531	2102.24
704.719	1979.36
704.907	2098.14
705.096	1954.79
705.284	1967.07
705.472	1987.55
705.661	1889.25
705.849	1971.17
706.037	2022.37
706.226	1903.59
706.414	2030.56
706.602	1997.79
706.79	2069.47
706.979	1958.88
707.167	1948.64
707.355	1952.74
707.543	1825.76
707.731	1887.2
707.919	1987.55
708.107	1946.59
708.296	2020.32
708.484	1975.27
708.672	1969.12
708.86	1891.3
709.048	1883.11
709.236	1831.91
709.424	2032.61
709.612	1938.4
709.8	1874.92
709.988	1862.63
710.176	1833.96
710.364	1815.52
710.551	1905.63
710.739	1776.61
710.927	1848.29
711.115	1838.05
711.303	1725.41
711.491	1790.95
711.679	1788.9
711.866	1821.67
712.054	1760.23
712.242	1790.95
712.43	1899.49
712.617	1727.46
712.805	1813.48
712.993	1764.33
713.181	1784.8
713.368	1741.8
713.556	1727.46
713.744	1643.49
713.931	1713.13
714.119	1749.99
714.306	1801.19
714.494	1686.5
714.682	1590.25
714.869	1661.93
715.057	1698.79
715.244	1694.69
715.432	1739.75
715.619	1743.85
715.807	1704.93
715.994	1686.5
716.182	1719.27
716.369	1649.64
716.556	1653.73
716.744	1737.7
716.931	1768.42
717.119	1625.06
717.306	1645.54
717.493	1680.36
717.681	1666.02
717.868	1637.35
718.055	1688.55
718.242	1485.8
718.43	1647.59
718.617	1520.62
718.804	1627.11
718.991	1633.26
719.179	1606.63
719.366	1620.97
719.553	1606.63
719.74	1627.11
719.927	1594.34
720.114	1524.71
720.301	1616.87
720.488	1561.58
720.676	1489.9
720.863	1539.05
721.05	1612.78
721.237	1512.42
721.424	1500.14
721.611	1625.06
721.798	1610.73
721.985	1592.3
722.172	1692.65
722.358	1610.73
722.545	1618.92
722.732	1532.9
722.919	1516.52
723.106	1508.33
723.293	1569.77
723.48	1471.47
723.667	1608.68
723.853	1414.12
724.04	1537
724.227	1516.52
724.414	1483.75
724.6	1455.08
724.787	1493.99
724.974	1457.13
725.161	1506.28
725.347	1461.23
725.534	1479.66
725.72	1455.08
725.907	1442.79
726.094	1614.82
726.28	1557.48
726.467	1424.36
726.653	1422.31
726.84	1405.93
727.027	1459.18
727.213	1496.04
727.4	1461.23
727.586	1375.21
727.773	1407.98
727.959	1440.75
728.145	1450.99
728.332	1387.5
728.518	1356.78
728.705	1379.31
728.891	1401.83
729.077	1375.21
729.264	1377.26
729.45	1493.99
729.636	1281
729.823	1401.83
730.009	1407.98
730.195	1463.27
730.382	1387.5
730.568	1405.93
730.754	1309.68
730.94	1448.94
731.126	1369.07
731.313	1313.77
731.499	1430.51
731.685	1430.51
731.871	1344.49
732.057	1397.74
732.243	1463.27
732.429	1362.92
732.615	1407.98
732.801	1369.07
732.987	1311.72
733.173	1459.18
733.359	1346.54
733.545	1315.82
733.731	1534.95
733.917	1369.07
734.103	1262.57
734.289	1266.67
734.475	1381.35
734.661	1381.35
734.847	1338.35
735.033	1319.92
735.219	1338.35
735.404	1403.88
735.59	1238
735.776	1188.85
735.962	1389.55
736.148	1356.78
736.333	1225.71
736.519	1309.68
736.705	1231.85
736.89	1324.01
737.076	1131.5
737.262	1274.86
737.447	1205.23
737.633	1276.91
737.819	1219.57
738.004	1307.63
738.19	1235.95
738.375	1233.9
738.561	1213.42
738.747	1227.76
738.932	1233.9
739.118	1266.67
739.303	1311.72
739.489	1242.09
739.674	1274.86
739.859	1260.52
740.045	1297.39
740.23	1238
740.416	1250.28
740.601	1233.9
740.786	1115.12
740.972	1176.56
741.157	1160.17
741.342	1244.14
741.528	1176.56
741.713	1086.45
741.898	1217.52
742.084	1176.56
742.269	1194.99
742.454	1108.98
742.639	1072.11
742.824	1252.33
743.01	1078.26
743.195	1174.51
743.38	1119.21
743.565	1158.13
743.75	1233.9
743.935	1309.68
744.12	1100.78
744.305	1055.73
744.49	1184.75
744.675	1160.17
744.86	1090.54
745.045	1129.45
745.23	1070.06
745.415	1078.26
745.6	1106.93
745.785	1154.03
745.97	1025.01
746.155	1121.26
746.34	1049.58
746.525	1020.91
746.71	1008.62
746.895	1063.92
747.079	1061.87
747.264	1033.2
747.449	1094.64
747.634	1100.78
747.819	1014.77
748.003	1045.49
748.188	1047.54
748.373	1000.43
748.557	998.38
748.742	1045.49
748.927	1076.21
749.111	988.14
749.296	973.81
749.481	996.34
749.665	955.38
749.85	947.19
750.034	1000.43
750.219	963.57
750.404	924.66
750.588	834.55
750.773	869.36
750.957	969.71
751.141	916.47
751.326	916.47
751.51	906.23
751.695	906.23
751.879	979.95
752.064	887.79
752.248	973.81
752.432	859.12
752.617	863.22
752.801	861.17
752.985	836.6
753.17	850.93
753.354	861.17
753.538	930.8
753.722	859.12
753.907	828.4
754.091	783.35
754.275	873.46
754.459	822.26
754.643	889.84
754.828	891.89
755.012	756.72
755.196	807.92
755.38	773.11
755.564	852.98
755.748	889.84
755.932	738.29
756.116	769.01
756.3	756.72
756.484	730.1
756.668	754.68
756.852	769.01
757.036	769.01
757.22	803.83
757.404	771.06
757.588	732.15
757.772	726
757.956	742.39
758.14	693.24
758.323	676.85
758.507	789.49
758.691	721.91
758.875	760.82
759.059	732.15
759.242	717.81
759.426	615.41
759.61	738.29
759.794	721.91
759.977	680.95
760.161	728.05
760.345	685.05
760.528	709.62
760.712	744.44
760.895	719.86
761.079	709.62
761.263	689.14
761.446	646.13
761.63	654.33
761.813	689.14
761.997	648.18
762.18	607.22
762.364	621.56
762.547	515.06
762.731	621.56
762.914	601.08
763.098	556.02
763.281	658.42
763.464	639.99
763.648	613.37
763.831	570.36
764.015	578.55
764.198	654.33
764.381	558.07
764.564	680.95
764.748	680.95
764.931	650.23
765.114	596.98
765.297	588.79
765.481	642.04
765.664	623.61
765.847	488.44
766.03	607.22
766.213	535.54
766.397	568.31
766.58	535.54
766.763	588.79
766.946	551.93
767.129	652.28
767.312	549.88
767.495	592.89
767.678	558.07
767.861	580.6
768.044	502.78
768.227	588.79
768.41	611.32
768.593	521.21
768.776	553.98
768.959	535.54
769.142	498.68
769.324	472.06
769.507	549.88
769.69	662.52
769.873	562.17
770.056	463.86
770.239	474.1
770.421	564.22
770.604	545.78
770.787	533.5
770.97	484.34
771.152	486.39
771.335	478.2
771.518	496.63
771.7	533.5
771.883	558.07
772.066	488.44
772.248	521.21
772.431	553.98
772.613	406.52
772.796	445.43
772.978	467.96
773.161	375.8
773.343	541.69
773.526	541.69
773.708	474.1
773.891	472.06
774.073	510.97
774.256	463.86
774.438	486.39
774.621	431.1
774.803	447.48
774.985	476.15
775.168	484.34
775.35	474.1
775.532	424.95
775.715	443.39
775.897	472.06
776.079	381.95
776.261	381.95
776.444	519.16
776.626	394.23
776.808	455.67
776.99	381.95
777.173	394.23
777.355	447.48
777.537	383.99
777.719	449.53
777.901	336.89
778.083	388.09
778.265	386.04
778.447	388.09
778.629	402.43
778.811	318.46
778.993	347.13
779.175	472.06
779.357	431.1
779.539	302.08
779.721	295.93
779.903	351.23
780.085	445.43
780.267	320.51
780.449	320.51
780.631	357.37
780.812	367.61
780.994	349.18
781.176	357.37
781.358	402.43
781.54	420.86
781.721	351.23
781.903	388.09
782.085	398.33
782.267	263.16
782.448	316.41
782.63	304.12
782.812	318.46
782.993	295.93
783.175	353.27
783.357	293.88
783.538	367.61
783.72	318.46
783.901	318.46
784.083	304.12
784.264	291.84
784.446	224.25
784.627	224.25
784.809	287.74
784.99	285.69
785.172	293.88
785.353	285.69
785.535	310.27
785.716	271.36
785.897	308.22
786.079	334.84
786.26	316.41
786.441	297.98
786.623	326.65
786.804	238.59
786.985	252.92
787.167	166.91
787.348	236.54
787.529	338.94
787.71	281.6
787.891	293.88
788.073	246.78
788.254	189.44
788.435	291.84
788.616	277.5
788.797	222.2
788.978	250.88
789.159	242.68
789.34	162.81
789.522	154.62
789.703	203.77
789.884	246.78
790.065	300.03
790.246	340.99
790.427	267.26
790.607	238.59
790.788	254.97
790.969	263.16
791.15	199.68
791.331	203.77
791.512	220.16
791.693	238.59
791.874	205.82
792.054	236.54
792.235	193.53
792.416	185.34
792.597	205.82
792.778	177.15
792.958	209.92
793.139	140.29
793.32	142.33
793.5	236.54
793.681	285.69
793.862	205.82
794.042	201.72
794.223	154.62
794.404	195.58
794.584	216.06
794.765	211.96
794.945	201.72
795.126	246.78
795.306	216.06
795.487	234.49
795.667	150.53
795.848	205.82
796.028	156.67
796.209	244.73
796.389	183.29
796.57	152.57
796.75	277.5
796.93	171.01
797.111	203.77
797.291	187.39
797.471	224.25
797.652	119.81
797.832	193.53
798.012	128
798.192	177.15
798.373	189.44
798.553	162.81
798.733	211.96
798.913	168.96
799.093	142.33
799.274	160.77
799.454	222.2
799.634	205.82
799.814	130.05
799.994	99.33
800.174	80.89
800.354	220.16
800.534	162.81
800.714	128
800.894	152.57
801.074	132.09
801.254	175.1
801.434	171.01
801.614	160.77
801.794	111.61
801.974	472.06
802.154	164.86
802.334	109.57
802.514	138.24
802.693	111.61
802.873	136.19
803.053	156.67
803.233	154.62
803.413	136.19
803.592	128
803.772	103.42
803.952	107.52
804.131	201.72
804.311	123.9
804.491	162.81
804.67	119.81
804.85	136.19
805.03	150.53
805.209	101.37
805.389	162.81
805.568	56.32
805.748	70.65
805.928	80.89
806.107	121.85
806.287	168.96
806.466	128
806.646	168.96
806.825	132.09
807.004	56.32
807.184	173.05
807.363	1.02
807.543	84.99
807.722	103.42
807.901	128
808.081	66.56
808.26	103.42
808.439	189.44
808.619	166.91
808.798	58.37
808.977	119.81
809.156	82.94
809.336	58.37
809.515	154.62
809.694	70.65
809.873	95.23
810.052	101.37
810.231	136.19
810.411	72.7
810.59	119.81
810.769	117.76
810.948	107.52
811.127	115.71
811.306	62.46
811.485	117.76
811.664	138.24
811.843	203.77
812.022	150.53
812.201	134.14
812.38	119.81
812.559	128
812.737	140.29
812.916	58.37
813.095	5.12
813.274	74.75
813.453	142.33
813.632	52.22
813.811	74.75
813.989	46.08
814.168	84.99
814.347	158.72
814.526	39.94
814.704	107.52
814.883	115.71
815.062	19.46
815.24	105.47
815.419	50.18
815.598	121.85
815.776	121.85
815.955	105.47
816.133	146.43
816.312	158.72
816.49	66.56
816.669	103.42
816.847	119.81
817.026	44.03
817.204	160.77
817.383	113.66
817.561	25.6
817.74	146.43
817.918	158.72
818.097	148.48
818.275	13.31
818.453	105.47
818.632	87.04
818.81	66.56
818.988	7.17
819.167	87.04
819.345	140.29
819.523	76.8
819.701	95.23
819.879	58.37
820.058	91.13
820.236	107.52
820.414	119.81
820.592	119.81
820.77	89.09
820.948	125.95
821.127	93.18
821.305	117.76
821.483	9.22
821.661	52.22
821.839	58.37
822.017	48.13
822.195	31.74
822.373	154.62
822.551	128
822.729	9.22
822.907	-25.6
823.085	115.71
823.262	101.37
823.44	76.8
823.618	117.76
823.796	121.85
823.974	25.6
824.152	60.42
824.329	91.13
824.507	66.56
824.685	64.51
824.863	74.75
825.04	105.47
825.218	136.19
825.396	64.51
825.574	76.8
825.751	105.47
825.929	95.23
826.107	31.74
826.284	93.18
826.462	-27.65
826.639	60.42
826.817	33.79
826.994	41.98
827.172	54.27
827.349	87.04
827.527	56.32
827.704	3.07
827.882	60.42
828.059	74.75
828.237	25.6
828.414	60.42
828.591	-11.26
828.769	111.61
828.946	39.94
829.124	109.57
829.301	97.28
829.478	82.94
829.655	97.28
829.833	82.94
830.01	13.31
830.187	21.5
830.364	9.22
830.542	154.62
830.719	72.7
830.896	103.42
831.073	-11.26
831.25	87.04
831.427	89.09
831.604	107.52
831.782	74.75
831.959	54.27
832.136	35.84
832.313	66.56
832.49	46.08
832.667	162.81
832.844	29.7
833.021	64.51
833.198	31.74
833.374	115.71
833.551	64.51
833.728	82.94
833.905	46.08
834.082	11.26
834.259	171.01
834.436	84.99
834.612	97.28
834.789	82.94
834.966	76.8
835.143	58.37
835.319	46.08
835.496	48.13
835.673	74.75
835.85	68.61
836.026	82.94
836.203	107.52
836.38	25.6
836.556	68.61
836.733	37.89
836.909	23.55
837.086	48.13
837.262	39.94
837.439	-15.36
837.616	-35.84
837.792	66.56
837.968	-31.74
838.145	-1.02
838.321	-23.55
838.498	-31.74
838.674	60.42
838.851	23.55
839.027	64.51
839.203	-11.26
839.38	29.7
839.556	76.8
839.732	33.79
839.909	27.65
840.085	72.7
840.261	-1.02
840.437	46.08
840.614	84.99
840.79	-39.94
840.966	48.13
841.142	82.94
841.318	-1.02
841.494	37.89
841.671	70.65
841.847	13.31
842.023	5.12
842.199	125.95
842.375	-13.31
842.551	74.75
842.727	21.5
842.903	44.03
843.079	52.22
843.255	119.81
843.431	7.17
843.607	99.33
843.783	-11.26
843.959	91.13
844.134	78.85
844.31	93.18
844.486	-9.22
844.662	-5.12
844.838	-21.5
845.013	48.13
845.189	87.04
845.365	21.5
845.541	23.55
845.716	-37.89
845.892	39.94
846.068	56.32
846.244	1.02
846.419	-15.36
846.595	-7.17
846.77	119.81
846.946	39.94
847.122	3.07
847.297	7.17
847.473	97.28
847.648	-33.79
847.824	60.42
847.999	68.61
848.175	80.89
848.35	13.31
848.526	17.41
848.701	29.7
848.876	62.46
849.052	68.61
849.227	29.7
849.403	76.8
849.578	5.12
849.753	66.56
849.929	78.85
850.104	23.55
850.279	7.17
850.454	9.22
850.63	11.26
850.805	103.42
850.98	29.7
851.155	60.42
851.33	31.74
851.505	84.99
851.681	-9.22
851.856	52.22
852.031	56.32
852.206	-9.22
852.381	119.81
852.556	9.22
852.731	13.31
852.906	31.74
853.081	-11.26
853.256	11.26
853.431	66.56
853.606	29.7
853.781	25.6
853.956	25.6
854.131	-33.79
854.305	56.32
854.48	1.02
854.655	50.18
854.83	25.6
855.005	17.41
855.18	21.5
855.354	33.79
855.529	23.55
855.704	39.94
855.879	72.7
856.053	80.89
856.228	13.31
856.403	-11.26
856.577	58.37
856.752	-9.22
856.926	91.13
857.101	50.18
857.276	39.94
857.45	56.32
857.625	-37.89
857.799	27.65
857.974	21.5
858.148	-33.79
858.323	3.07
858.497	66.56
858.672	5.12
858.846	27.65
859.02	80.89
859.195	-7.17
859.369	17.41
859.543	-15.36
859.718	-25.6
859.892	-35.84
860.066	29.7
860.241	25.6
860.415	15.36
860.589	-27.65
860.763	50.18
860.938	-17.41
861.112	27.65
861.286	-11.26
861.46	3.07
861.634	-44.03
861.808	78.85
861.982	70.65
862.157	68.61
862.331	74.75
862.505	41.98
862.679	-27.65
862.853	13.31
863.027	39.94
863.201	15.36
863.375	25.6
863.549	48.13
863.722	1.02
863.896	9.22
864.07	29.7
864.244	-39.94
864.418	-25.6
864.592	44.03
864.766	33.79
864.939	9.22
865.113	-33.79
865.287	91.13
865.461	46.08
865.634	23.55
865.808	-41.98
865.982	11.26
866.156	82.94
866.329	5.12
866.503	5.12
866.676	23.55
866.85	-3.07
867.024	29.7
867.197	19.46
867.371	17.41
867.544	-25.6
867.718	-19.46
867.891	-31.74
868.065	25.6
868.238	37.89
868.412	17.41
868.585	-64.51
868.759	27.65
868.932	13.31
869.105	-7.17
869.279	-9.22
869.452	-17.41
869.625	23.55
869.799	31.74
869.972	21.5
870.145	37.89
870.319	17.41
870.492	31.74
870.665	21.5
870.838	13.31
871.011	9.22
871.185	76.8
871.358	-58.37
871.531	39.94
871.704	54.27
871.877	39.94
872.05	29.7
872.223	17.41
872.396	5.12
872.569	105.47
872.742	-15.36
872.915	-17.41
873.088	-5.12
873.261	-54.27
873.434	21.5
873.607	-3.07
873.78	41.98
873.953	56.32
874.126	-11.26
874.299	62.46
874.471	11.26
874.644	29.7
874.817	1.02
874.99	-13.31
875.163	56.32
875.335	-1.02
875.508	25.6
875.681	-3.07
875.853	3.07
876.026	64.51
876.199	66.56
876.371	15.36
876.544	-1.02
876.717	-3.07
876.889	11.26
877.062	80.89
877.234	-11.26
877.407	-29.7
877.579	37.89
877.752	46.08
877.924	48.13
878.097	-9.22
878.269	21.5
878.442	5.12
878.614	-11.26
878.786	-7.17
878.959	25.6
879.131	68.61
879.303	-11.26
879.476	3.07
879.648	37.89
879.82	9.22
879.993	23.55
880.165	25.6
880.337	31.74
880.509	-119.81
880.681	1.02
880.854	3.07
881.026	-5.12
881.198	-7.17
881.37	-17.41
881.542	5.12
881.714	-13.31
881.886	19.46
882.058	-27.65
882.23	58.37
882.402	7.17
882.574	-3.07
882.746	60.42
882.918	50.18
883.09	-1.02
883.262	21.5
883.434	27.65
883.606	72.7
883.778	7.17
883.95	64.51
884.122	35.84
884.293	-15.36
884.465	5.12
884.637	33.79
884.809	93.18
884.98	119.81
885.152	66.56
885.324	9.22
885.496	-23.55
885.667	74.75
885.839	-48.13
886.011	-15.36
886.182	23.55
886.354	29.7
886.525	91.13
886.697	-1.02
886.869	-39.94
887.04	-52.22
887.212	-31.74
887.383	56.32
887.555	-31.74
887.726	87.04
887.897	21.5
888.069	25.6
888.24	74.75
888.412	3.07
888.583	-5.12
888.754	52.22
888.926	-35.84
889.097	-31.74
889.268	-9.22
889.44	15.36
889.611	-11.26
889.782	72.7
889.953	13.31
890.125	29.7
890.296	1.02
890.467	-17.41
890.638	-11.26
890.809	-31.74
890.98	-25.6
891.151	-29.7
891.323	19.46
891.494	35.84
891.665	13.31
891.836	25.6
892.007	39.94
892.178	-17.41
892.349	-39.94
892.52	-72.7
892.691	72.7
892.862	111.61
893.032	-9.22
893.203	9.22
893.374	7.17
893.545	15.36
893.716	-3.07
893.887	41.98
894.057	39.94
894.228	37.89
894.399	-33.79
894.57	68.61
894.74	-7.17
894.911	13.31
895.082	-7.17
895.253	-37.89
895.423	-3.07
895.594	54.27
895.764	7.17
895.935	5.12
896.106	-15.36
896.276	78.85
896.447	5.12
896.617	17.41
896.788	-27.65
896.958	25.6
897.129	-27.65
897.299	80.89
897.47	-5.12
897.64	-19.46
897.81	3.07
897.981	15.36
898.151	60.42
898.322	41.98
898.492	13.31
898.662	-23.55
898.832	76.8
899.003	-21.5
899.173	29.7
899.343	39.94
899.513	19.46
