Data from USB4F104151__29__12-58-46-427.txt Node

Date: Fri Mar 14 12:58:46 EDT 2025
User: louis
Spectrometer: USB4F10415
Trigger mode: 4
Integration Time (sec): 1.000000E-2
Scans to average: 1
Electric dark correction enabled: true
Nonlinearity correction enabled: false
Boxcar width: 0
XAxis mode: Wavelengths
Number of Pixels in Spectrum: 3648
>>>>>Begin Spectral Data<<<<<
178.204	-53.76
178.424	-53.76
178.644	-53.76
178.864	-72.19
179.084	-35.33
179.304	-78.33
179.524	-8.7
179.744	50.69
179.964	22.02
180.184	-12.8
180.404	7.68
180.624	1.54
180.844	28.16
181.064	-39.42
181.283	24.06
181.503	-16.9
181.723	22.02
181.943	15.87
182.163	13.82
182.383	-14.85
182.602	-51.71
182.822	-10.75
183.042	114.17
183.262	-18.94
183.482	-20.99
183.701	7.68
183.921	40.45
184.141	40.45
184.361	7.68
184.58	-61.95
184.8	-0.51
185.02	36.35
185.239	11.78
185.459	-49.66
185.679	60.93
185.898	-10.75
186.118	48.64
186.338	34.3
186.557	11.78
186.777	-55.81
186.997	11.78
187.216	-39.42
187.436	19.97
187.655	69.12
187.875	-16.9
188.095	13.82
188.314	17.92
188.534	-12.8
188.753	-80.38
188.973	13.82
189.192	40.45
189.412	48.64
189.631	-12.8
189.851	9.73
190.07	97.79
190.29	56.83
190.509	-49.66
190.729	13.82
190.948	36.35
191.168	7.68
191.387	83.45
191.607	30.21
191.826	73.21
192.045	-27.14
192.265	30.21
192.484	-8.7
192.704	-4.61
192.923	22.02
193.142	81.41
193.362	-4.61
193.581	44.54
193.8	15.87
194.02	30.21
194.239	15.87
194.458	-8.7
194.678	-43.52
194.897	71.17
195.116	-20.99
195.335	15.87
195.555	36.35
195.774	3.58
195.993	62.98
196.212	-41.47
196.432	7.68
196.651	-45.57
196.87	7.68
197.089	67.07
197.308	81.41
197.528	44.54
197.747	-4.61
197.966	26.11
198.185	13.82
198.404	-0.51
198.623	-43.52
198.842	60.93
199.062	22.02
199.281	28.16
199.5	36.35
199.719	-8.7
199.938	22.02
200.157	11.78
200.376	19.97
200.595	-4.61
200.814	-23.04
201.033	-16.9
201.252	40.45
201.471	5.63
201.69	5.63
201.909	83.45
202.128	11.78
202.347	85.5
202.566	52.74
202.785	19.97
203.004	-10.75
203.223	134.65
203.442	-0.51
203.661	-6.66
203.879	7.68
204.098	-8.7
204.317	36.35
204.536	-33.28
204.755	81.41
204.974	-10.75
205.193	-25.09
205.411	-20.99
205.63	-10.75
205.849	50.69
206.068	-2.56
206.287	26.11
206.505	-27.14
206.724	38.4
206.943	-27.14
207.162	89.6
207.381	93.69
207.599	17.92
207.818	128.51
208.037	103.93
208.255	-16.9
208.474	65.02
208.693	3.58
208.911	26.11
209.13	-23.04
209.349	9.73
209.567	11.78
209.786	48.64
210.005	50.69
210.223	-18.94
210.442	7.68
210.661	-20.99
210.879	-8.7
211.098	11.78
211.316	77.31
211.535	77.31
211.753	-45.57
211.972	13.82
212.191	-10.75
212.409	-23.04
212.628	40.45
212.846	93.69
213.065	69.12
213.283	-33.28
213.502	19.97
213.72	22.02
213.938	44.54
214.157	-27.14
214.375	-14.85
214.594	11.78
214.812	-8.7
215.031	58.88
215.249	-57.86
215.467	15.87
215.686	28.16
215.904	17.92
216.122	-35.33
216.341	7.68
216.559	22.02
216.778	24.06
216.996	44.54
217.214	52.74
217.432	-12.8
217.651	26.11
217.869	13.82
218.087	-10.75
218.306	-2.56
218.524	3.58
218.742	-4.61
218.96	54.78
219.179	54.78
219.397	65.02
219.615	69.12
219.833	1.54
220.051	9.73
220.27	40.45
220.488	17.92
220.706	9.73
220.924	3.58
221.142	-2.56
221.36	54.78
221.578	-2.56
221.796	65.02
222.015	91.65
222.233	38.4
222.451	32.26
222.669	46.59
222.887	-4.61
223.105	9.73
223.323	34.3
223.541	28.16
223.759	77.31
223.977	13.82
224.195	48.64
224.413	-0.51
224.631	-23.04
224.849	-14.85
225.067	65.02
225.285	19.97
225.503	-6.66
225.721	7.68
225.939	5.63
226.157	-18.94
226.375	77.31
226.592	36.35
226.81	15.87
227.028	19.97
227.246	62.98
227.464	-8.7
227.682	11.78
227.9	17.92
228.117	44.54
228.335	-6.66
228.553	19.97
228.771	75.26
228.989	52.74
229.206	-29.18
229.424	52.74
229.642	-2.56
229.86	15.87
230.077	32.26
230.295	36.35
230.513	42.5
230.731	65.02
230.948	13.82
231.166	65.02
231.384	38.4
231.601	67.07
231.819	48.64
232.037	30.21
232.254	-51.71
232.472	52.74
232.689	52.74
232.907	-49.66
233.125	93.69
233.342	46.59
233.56	40.45
233.777	9.73
233.995	3.58
234.213	3.58
234.43	15.87
234.648	40.45
234.865	-33.28
235.083	3.58
235.3	-25.09
235.518	15.87
235.735	28.16
235.953	56.83
236.17	97.79
236.388	5.63
236.605	19.97
236.822	50.69
237.04	15.87
237.257	1.54
237.475	-33.28
237.692	26.11
237.909	95.74
238.127	3.58
238.344	44.54
238.562	-14.85
238.779	-33.28
238.996	-18.94
239.214	13.82
239.431	-64
239.648	32.26
239.865	-39.42
240.083	67.07
240.3	54.78
240.517	48.64
240.735	58.88
240.952	17.92
241.169	77.31
241.386	48.64
241.603	19.97
241.821	28.16
242.038	-18.94
242.255	3.58
242.472	-10.75
242.689	1.54
242.907	15.87
243.124	48.64
243.341	9.73
243.558	-4.61
243.775	36.35
243.992	22.02
244.209	15.87
244.426	30.21
244.643	-2.56
244.86	-8.7
245.078	32.26
245.295	-55.81
245.512	-8.7
245.729	-18.94
245.946	65.02
246.163	34.3
246.38	71.17
246.597	46.59
246.814	40.45
247.031	50.69
247.248	11.78
247.464	-12.8
247.681	-10.75
247.898	-45.57
248.115	38.4
248.332	-43.52
248.549	-14.85
248.766	34.3
248.983	69.12
249.2	-37.38
249.417	24.06
249.633	-16.9
249.85	44.54
250.067	15.87
250.284	44.54
250.501	3.58
250.717	5.63
250.934	-8.7
251.151	38.4
251.368	-16.9
251.585	11.78
251.801	-37.38
252.018	-20.99
252.235	19.97
252.451	50.69
252.668	-0.51
252.885	60.93
253.102	-29.18
253.318	36.35
253.535	-37.38
253.752	-23.04
253.968	24.06
254.185	62.98
254.401	22.02
254.618	-18.94
254.835	26.11
255.051	13.82
255.268	48.64
255.484	56.83
255.701	13.82
255.917	52.74
256.134	-0.51
256.351	-27.14
256.567	-72.19
256.784	1.54
257	56.83
257.217	-8.7
257.433	93.69
257.65	24.06
257.866	32.26
258.082	-20.99
258.299	-53.76
258.515	-8.7
258.732	15.87
258.948	32.26
259.165	-35.33
259.381	26.11
259.597	-2.56
259.814	3.58
260.03	46.59
260.246	36.35
260.463	26.11
260.679	-41.47
260.895	1.54
261.112	-12.8
261.328	65.02
261.544	46.59
261.761	28.16
261.977	91.65
262.193	77.31
262.409	15.87
262.626	15.87
262.842	30.21
263.058	5.63
263.274	32.26
263.49	-33.28
263.707	99.84
263.923	-4.61
264.139	60.93
264.355	97.79
264.571	22.02
264.787	73.21
265.004	60.93
265.22	32.26
265.436	60.93
265.652	69.12
265.868	-2.56
266.084	-61.95
266.3	103.93
266.516	5.63
266.732	3.58
266.948	36.35
267.164	105.98
267.38	36.35
267.596	34.3
267.812	38.4
268.028	15.87
268.244	-45.57
268.46	77.31
268.676	24.06
268.892	7.68
269.108	-18.94
269.324	-10.75
269.54	7.68
269.756	52.74
269.972	54.78
270.188	79.36
270.403	-68.09
270.619	28.16
270.835	44.54
271.051	52.74
271.267	40.45
271.483	13.82
271.698	-12.8
271.914	-23.04
272.13	48.64
272.346	5.63
272.562	-0.51
272.777	52.74
272.993	-43.52
273.209	11.78
273.425	-45.57
273.64	40.45
273.856	11.78
274.072	28.16
274.287	7.68
274.503	91.65
274.719	30.21
274.934	-12.8
275.15	-53.76
275.366	22.02
275.581	7.68
275.797	108.03
276.012	-10.75
276.228	32.26
276.444	62.98
276.659	87.55
276.875	7.68
277.09	-37.38
277.306	3.58
277.521	81.41
277.737	1.54
277.952	24.06
278.168	112.13
278.383	26.11
278.599	-18.94
278.814	22.02
279.03	26.11
279.245	40.45
279.461	-37.38
279.676	38.4
279.892	-31.23
280.107	56.83
280.322	-12.8
280.538	13.82
280.753	56.83
280.969	46.59
281.184	3.58
281.399	46.59
281.615	-0.51
281.83	60.93
282.045	42.5
282.26	36.35
282.476	40.45
282.691	-29.18
282.906	56.83
283.122	-27.14
283.337	69.12
283.552	17.92
283.767	26.11
283.983	85.5
284.198	-25.09
284.413	3.58
284.628	-12.8
284.843	26.11
285.058	105.98
285.274	11.78
285.489	3.58
285.704	38.4
285.919	-2.56
286.134	48.64
286.349	36.35
286.564	62.98
286.779	-0.51
286.995	73.21
287.21	-4.61
287.425	22.02
287.64	-41.47
287.855	-4.61
288.07	-25.09
288.285	60.93
288.5	32.26
288.715	26.11
288.93	-12.8
289.145	-0.51
289.36	-8.7
289.575	7.68
289.79	-0.51
290.004	44.54
290.219	30.21
290.434	-37.38
290.649	30.21
290.864	28.16
291.079	42.5
291.294	62.98
291.509	60.93
291.724	-16.9
291.938	26.11
292.153	15.87
292.368	36.35
292.583	62.98
292.798	40.45
293.012	24.06
293.227	67.07
293.442	1.54
293.657	15.87
293.871	44.54
294.086	-20.99
294.301	79.36
294.516	22.02
294.73	54.78
294.945	-0.51
295.16	38.4
295.374	52.74
295.589	91.65
295.804	26.11
296.018	36.35
296.233	38.4
296.447	3.58
296.662	1.54
296.877	34.3
297.091	26.11
297.306	46.59
297.52	-12.8
297.735	7.68
297.949	28.16
298.164	11.78
298.378	11.78
298.593	5.63
298.807	32.26
299.022	60.93
299.236	42.5
299.451	32.26
299.665	81.41
299.88	-12.8
300.094	36.35
300.309	11.78
300.523	32.26
300.737	-25.09
300.952	9.73
301.166	144.89
301.381	93.69
301.595	24.06
301.809	-27.14
302.024	77.31
302.238	11.78
302.452	26.11
302.667	44.54
302.881	-0.51
303.095	-0.51
303.309	81.41
303.524	42.5
303.738	13.82
303.952	19.97
304.166	17.92
304.381	26.11
304.595	38.4
304.809	-31.23
305.023	77.31
305.237	22.02
305.452	13.82
305.666	44.54
305.88	40.45
306.094	-37.38
306.308	3.58
306.522	85.5
306.736	77.31
306.95	-64
307.164	7.68
307.379	38.4
307.593	56.83
307.807	58.88
308.021	-4.61
308.235	44.54
308.449	48.64
308.663	73.21
308.877	71.17
309.091	75.26
309.305	56.83
309.519	19.97
309.733	-4.61
309.947	-4.61
310.161	44.54
310.374	-27.14
310.588	62.98
310.802	-18.94
311.016	42.5
311.23	-27.14
311.444	-27.14
311.658	93.69
311.872	-8.7
312.085	24.06
312.299	-33.28
312.513	38.4
312.727	30.21
312.941	36.35
313.154	19.97
313.368	97.79
313.582	34.3
313.796	-12.8
314.009	38.4
314.223	9.73
314.437	112.13
314.651	-10.75
314.864	58.88
315.078	-16.9
315.292	7.68
315.505	67.07
315.719	69.12
315.933	60.93
316.146	24.06
316.36	69.12
316.573	54.78
316.787	11.78
317.001	97.79
317.214	-16.9
317.428	-43.52
317.641	-90.62
317.855	-37.38
318.068	19.97
318.282	15.87
318.495	44.54
318.709	30.21
318.922	17.92
319.136	-33.28
319.349	-27.14
319.563	40.45
319.776	-27.14
319.99	38.4
320.203	36.35
320.417	5.63
320.63	103.93
320.843	36.35
321.057	105.98
321.27	34.3
321.483	36.35
321.697	85.5
321.91	3.58
322.124	-49.66
322.337	69.12
322.55	13.82
322.763	44.54
322.977	-18.94
323.19	19.97
323.403	-41.47
323.617	38.4
323.83	17.92
324.043	77.31
324.256	-2.56
324.469	-6.66
324.683	91.65
324.896	-12.8
325.109	46.59
325.322	22.02
325.535	67.07
325.748	3.58
325.962	69.12
326.175	56.83
326.388	22.02
326.601	30.21
326.814	11.78
327.027	69.12
327.24	15.87
327.453	-14.85
327.666	42.5
327.879	93.69
328.092	65.02
328.305	38.4
328.518	-33.28
328.731	32.26
328.944	81.41
329.157	-37.38
329.37	52.74
329.583	11.78
329.796	75.26
330.009	36.35
330.222	-4.61
330.435	34.3
330.648	34.3
330.861	-20.99
331.073	24.06
331.286	34.3
331.499	-4.61
331.712	-31.23
331.925	69.12
332.138	-0.51
332.35	77.31
332.563	11.78
332.776	110.08
332.989	-41.47
333.202	5.63
333.414	7.68
333.627	-20.99
333.84	11.78
334.053	28.16
334.265	1.54
334.478	36.35
334.691	77.31
334.903	75.26
335.116	56.83
335.329	118.27
335.541	9.73
335.754	-6.66
335.966	15.87
336.179	65.02
336.392	17.92
336.604	93.69
336.817	62.98
337.029	3.58
337.242	36.35
337.454	77.31
337.667	-4.61
337.88	60.93
338.092	-2.56
338.305	114.17
338.517	32.26
338.729	-6.66
338.942	56.83
339.154	-35.33
339.367	24.06
339.579	91.65
339.792	-27.14
340.004	48.64
340.217	-6.66
340.429	-0.51
340.641	89.6
340.854	73.21
341.066	7.68
341.278	1.54
341.491	48.64
341.703	-14.85
341.915	28.16
342.128	83.45
342.34	48.64
342.552	79.36
342.764	28.16
342.977	-57.86
343.189	48.64
343.401	-4.61
343.613	-39.42
343.826	5.63
344.038	60.93
344.25	11.78
344.462	79.36
344.674	40.45
344.886	52.74
345.099	11.78
345.311	54.78
345.523	42.5
345.735	30.21
345.947	-12.8
346.159	-12.8
346.371	-70.14
346.583	79.36
346.795	42.5
347.007	-18.94
347.219	48.64
347.431	44.54
347.643	36.35
347.855	-14.85
348.067	83.45
348.279	-0.51
348.491	60.93
348.703	30.21
348.915	26.11
349.127	-23.04
349.339	-12.8
349.551	-4.61
349.763	28.16
349.975	-39.42
350.187	28.16
350.399	69.12
350.61	60.93
350.822	-18.94
351.034	42.5
351.246	28.16
351.458	60.93
351.669	58.88
351.881	-18.94
352.093	-14.85
352.305	36.35
352.517	46.59
352.728	-51.71
352.94	-8.7
353.152	34.3
353.363	54.78
353.575	22.02
353.787	65.02
353.999	22.02
354.21	-41.47
354.422	13.82
354.633	-12.8
354.845	-10.75
355.057	34.3
355.268	28.16
355.48	77.31
355.692	-16.9
355.903	-4.61
356.115	75.26
356.326	-2.56
356.538	24.06
356.749	85.5
356.961	44.54
357.172	58.88
357.384	46.59
357.595	67.07
357.807	15.87
358.018	17.92
358.23	3.58
358.441	11.78
358.653	46.59
358.864	-45.57
359.075	79.36
359.287	97.79
359.498	19.97
359.709	58.88
359.921	36.35
360.132	-37.38
360.344	22.02
360.555	32.26
360.766	17.92
360.977	69.12
361.189	62.98
361.4	38.4
361.611	13.82
361.823	-41.47
362.034	54.78
362.245	-16.9
362.456	22.02
362.667	5.63
362.879	13.82
363.09	54.78
363.301	15.87
363.512	36.35
363.723	-12.8
363.935	22.02
364.146	69.12
364.357	40.45
364.568	56.83
364.779	5.63
364.99	62.98
365.201	65.02
365.412	36.35
365.623	30.21
365.834	56.83
366.045	-14.85
366.256	40.45
366.467	48.64
366.678	7.68
366.889	5.63
367.1	9.73
367.311	-33.28
367.522	62.98
367.733	17.92
367.944	83.45
368.155	40.45
368.366	30.21
368.577	79.36
368.788	85.5
368.999	-47.62
369.209	32.26
369.42	-20.99
369.631	73.21
369.842	42.5
370.053	99.84
370.264	81.41
370.474	-37.38
370.685	-8.7
370.896	30.21
371.107	77.31
371.317	19.97
371.528	22.02
371.739	11.78
371.95	34.3
372.16	60.93
372.371	-31.23
372.582	71.17
372.792	65.02
373.003	-14.85
373.214	65.02
373.424	24.06
373.635	-59.9
373.846	-29.18
374.056	-20.99
374.267	54.78
374.477	9.73
374.688	26.11
374.898	17.92
375.109	-2.56
375.319	126.46
375.53	46.59
375.74	22.02
375.951	118.27
376.161	3.58
376.372	28.16
376.582	-37.38
376.793	60.93
377.003	1.54
377.214	48.64
377.424	48.64
377.635	50.69
377.845	73.21
378.055	91.65
378.266	-45.57
378.476	7.68
378.686	-25.09
378.897	17.92
379.107	75.26
379.317	60.93
379.528	-8.7
379.738	54.78
379.948	15.87
380.158	60.93
380.369	5.63
380.579	7.68
380.789	44.54
380.999	17.92
381.21	79.36
381.42	120.32
381.63	44.54
381.84	-2.56
382.05	73.21
382.261	30.21
382.471	58.88
382.681	56.83
382.891	-6.66
383.101	22.02
383.311	-33.28
383.521	9.73
383.731	81.41
383.941	77.31
384.151	46.59
384.361	3.58
384.571	48.64
384.781	46.59
384.991	-16.9
385.201	38.4
385.411	-2.56
385.621	-6.66
385.831	50.69
386.041	101.89
386.251	77.31
386.461	71.17
386.671	24.06
386.881	85.5
387.091	79.36
387.301	48.64
387.511	44.54
387.72	-14.85
387.93	36.35
388.14	24.06
388.35	-6.66
388.56	15.87
388.769	32.26
388.979	81.41
389.189	-12.8
389.399	52.74
389.609	-8.7
389.818	60.93
390.028	-18.94
390.238	38.4
390.447	5.63
390.657	-20.99
390.867	-55.81
391.076	11.78
391.286	52.74
391.496	75.26
391.705	73.21
391.915	50.69
392.125	122.37
392.334	155.13
392.544	3.58
392.753	3.58
392.963	22.02
393.172	52.74
393.382	28.16
393.591	60.93
393.801	54.78
394.01	83.45
394.22	28.16
394.429	17.92
394.639	62.98
394.848	15.87
395.058	19.97
395.267	81.41
395.477	22.02
395.686	65.02
395.895	36.35
396.105	95.74
396.314	-18.94
396.524	19.97
396.733	7.68
396.942	56.83
397.152	99.84
397.361	91.65
397.57	17.92
397.78	67.07
397.989	44.54
398.198	112.13
398.407	7.68
398.617	36.35
398.826	-16.9
399.035	26.11
399.244	69.12
399.453	60.93
399.663	44.54
399.872	89.6
400.081	54.78
400.29	81.41
400.499	75.26
400.708	79.36
400.917	11.78
401.127	62.98
401.336	101.89
401.545	97.79
401.754	34.3
401.963	134.65
402.172	19.97
402.381	65.02
402.59	48.64
402.799	13.82
403.008	122.37
403.217	38.4
403.426	120.32
403.635	101.89
403.844	36.35
404.053	46.59
404.262	81.41
404.471	60.93
404.68	54.78
404.888	112.13
405.097	132.61
405.306	105.98
405.515	103.93
405.724	81.41
405.933	108.03
406.142	44.54
406.35	108.03
406.559	114.17
406.768	65.02
406.977	128.51
407.185	224.76
407.394	99.84
407.603	95.74
407.812	120.32
408.02	110.08
408.229	153.09
408.438	99.84
408.646	91.65
408.855	124.41
409.064	126.46
409.272	95.74
409.481	208.38
409.69	95.74
409.898	112.13
410.107	146.94
410.315	159.23
410.524	136.7
410.733	167.42
410.941	71.17
411.15	165.37
411.358	216.57
411.567	159.23
411.775	93.69
411.984	157.18
412.192	235
412.401	122.37
412.609	232.96
412.818	292.35
413.026	189.95
413.234	275.96
413.443	151.04
413.651	177.66
413.86	292.35
414.068	300.54
414.276	300.54
414.485	300.54
414.693	286.2
414.901	292.35
415.11	282.11
415.318	278.01
415.526	361.98
415.734	398.84
415.943	343.55
416.151	407.03
416.359	411.13
416.567	435.71
416.776	374.27
416.984	511.48
417.192	550.39
417.4	517.62
417.608	435.71
417.817	402.94
418.025	460.28
418.233	513.53
418.441	536.06
418.649	521.72
418.857	564.73
419.065	564.73
419.273	536.06
419.481	667.13
419.689	609.78
419.897	658.93
420.105	689.65
420.313	757.24
420.521	742.9
420.729	775.67
420.937	736.76
421.145	697.85
421.353	884.21
421.561	873.97
421.769	884.21
421.977	1031.66
422.185	894.45
422.393	955.89
422.601	1017.33
422.809	1013.23
423.017	962.03
423.224	1146.35
423.432	1129.97
423.64	1226.22
423.848	1213.93
424.056	1248.75
424.263	1291.76
424.471	1275.37
424.679	1291.76
424.887	1345
425.094	1519.08
425.302	1465.83
425.51	1562.09
425.718	1506.79
425.925	1601
426.133	1553.9
426.341	1609.19
426.548	1785.32
426.756	1842.66
426.964	1793.51
427.171	1928.67
427.379	1967.59
427.586	1908.19
427.794	2037.22
428.001	2043.36
428.209	2276.83
428.417	2182.62
428.624	2395.61
428.832	2321.88
429.039	2461.15
429.247	2407.9
429.454	2530.78
429.662	2641.37
429.869	2528.73
430.076	2723.29
430.284	2596.31
430.491	2735.57
430.699	3018.19
430.906	2964.95
431.114	3050.96
431.321	3034.58
431.528	3075.54
431.736	3292.62
431.943	3452.36
432.15	3358.16
432.358	3456.46
432.565	3593.67
432.772	3646.92
432.979	3898.82
433.187	3829.19
433.394	3769.8
433.601	4111.81
433.808	4107.71
434.016	4122.05
434.223	4328.89
434.43	4543.93
434.637	4474.3
434.844	4881.85
435.052	4863.41
435.259	4849.08
435.466	4820.41
435.673	4935.09
435.88	5051.83
436.087	5340.59
436.294	5492.14
436.501	5365.17
436.708	5287.34
436.915	5576.11
437.122	5701.03
437.329	5737.9
437.537	5809.58
437.743	5860.77
437.95	6024.61
438.157	6419.87
438.364	6526.36
438.571	6534.56
438.778	6485.41
438.985	7308.69
439.192	6958.49
439.399	7194
439.606	7136.66
439.813	7329.17
440.02	7890.31
440.227	7542.16
440.433	7671.18
440.64	7777.67
440.847	7828.87
441.054	7943.56
441.261	8627.58
441.467	8435.07
441.674	8568.19
441.881	8930.68
442.088	8754.55
442.294	8902.01
442.501	9031.03
442.708	9254.26
442.914	9680.24
443.121	9977.19
443.328	9663.85
443.534	10478.94
443.741	10163.56
443.948	10087.78
444.154	10876.25
444.361	10669.41
444.568	10812.76
444.774	10882.39
444.981	10941.79
445.187	11138.39
445.394	11803.98
445.6	11502.93
445.807	12672.32
446.013	12315.97
446.22	12410.18
446.426	12875.07
446.633	12938.55
446.839	13567.28
447.046	12983.61
447.252	13741.36
447.459	13913.39
447.665	13702.45
447.871	14380.32
448.078	14855.45
448.284	14206.25
448.491	14939.42
448.697	15066.39
448.903	15572.24
449.11	15463.7
449.316	15226.14
449.522	15754.51
449.728	16221.45
449.935	16135.43
450.141	15883.53
450.347	16289.03
450.553	15813.9
450.76	16141.58
450.966	16672
451.172	16762.11
451.378	17059.07
451.584	16649.47
451.791	17065.21
451.997	17128.7
452.203	17534.2
452.409	17300.73
452.615	17265.91
452.821	16745.73
453.027	16389.38
453.233	17483
453.44	16719.1
453.646	17165.56
453.852	17075.45
454.058	17345.78
454.264	16856.32
454.47	17077.5
454.676	16723.2
454.882	17257.72
455.088	15813.9
455.294	15965.45
455.5	16311.56
455.705	16303.37
455.911	15826.19
456.117	15682.83
456.323	15394.07
456.529	14497.06
456.735	15056.15
456.941	14859.55
457.147	14560.55
457.352	14232.87
457.558	13765.93
457.764	13964.59
457.97	13704.49
458.176	13659.44
458.381	13602.1
458.587	12901.69
458.793	12866.88
458.999	12281.16
459.204	12993.85
459.41	12758.33
459.616	11871.56
459.821	11816.27
460.027	11779.4
460.233	11443.54
460.438	10947.93
460.644	11234.64
460.85	10667.36
461.055	10415.46
461.261	10556.77
461.466	9649.52
461.672	9497.97
461.878	9897.32
462.083	9289.07
462.289	9035.13
462.494	9096.57
462.7	8310.15
462.905	8371.58
463.111	8668.54
463.316	8646.01
463.522	8650.11
463.727	8584.57
463.932	8641.92
464.138	8541.57
464.343	8435.07
464.549	8338.82
464.754	8564.09
464.959	8449.41
465.165	8355.2
465.37	8101.25
465.575	7720.33
465.781	8097.16
465.986	8111.49
466.191	8054.15
466.397	7869.83
466.602	7439.76
466.807	7519.63
467.012	7572.88
467.218	7591.31
467.423	7593.36
467.628	7634.32
467.833	8007.05
468.038	7570.83
468.244	7417.23
468.449	7550.35
468.654	7507.34
468.859	7423.37
469.064	7386.51
469.269	7062.93
469.474	7220.63
469.679	7175.57
469.885	7005.59
470.09	7196.05
470.295	7046.55
470.5	6907.29
470.705	6913.43
470.91	6952.34
471.115	6788.5
471.32	6925.72
471.525	6837.66
471.73	6614.43
471.935	6806.94
472.139	6415.77
472.344	6438.3
472.549	6636.95
472.754	6520.22
472.959	6163.87
473.164	6137.25
473.369	5889.45
473.574	6497.69
473.778	6104.48
473.983	6274.46
474.188	6000.04
474.393	5862.82
474.598	5719.46
474.802	5920.17
475.007	5809.58
475.212	5770.66
475.417	5483.95
475.621	5621.16
475.826	5553.58
476.031	5498.28
476.235	5426.61
476.44	5510.57
476.645	5397.93
476.849	5475.76
477.054	5375.41
477.259	5189.04
477.463	5201.33
477.668	5164.47
477.872	4953.52
478.077	5019.06
478.282	4984.24
478.486	5012.92
478.691	4996.53
478.895	4744.63
479.1	4849.08
479.304	4859.32
479.509	4734.39
479.713	4908.47
479.918	4730.3
480.122	4646.33
480.326	4660.66
480.531	4804.02
480.735	4701.62
480.94	4582.84
481.144	4822.45
481.348	4531.64
481.553	4666.81
481.757	4455.87
481.961	4517.31
482.166	4711.86
482.37	4560.31
482.574	4507.07
482.778	4421.05
482.983	4619.71
483.187	4545.98
483.391	4591.03
483.595	4535.74
483.8	4423.1
484.004	4550.07
484.208	4740.54
484.412	4513.21
484.616	4464.06
484.821	4599.23
485.025	4435.39
485.229	4527.55
485.433	4468.16
485.637	4429.24
485.841	4525.5
486.045	4445.63
486.249	4459.96
486.453	4597.18
486.657	4599.23
486.861	4507.07
487.065	4539.83
487.269	4498.88
487.473	4423.1
487.677	4697.53
487.881	4593.08
488.085	4414.91
488.289	4619.71
488.493	4361.66
488.697	4558.27
488.901	4548.03
489.105	4550.07
489.309	4601.27
489.512	4656.57
489.716	4660.66
489.92	4627.9
490.124	4394.43
490.328	4615.61
490.531	4558.27
490.735	4652.47
490.939	4746.68
491.143	4591.03
491.346	4548.03
491.55	4730.3
491.754	4836.79
491.958	4787.64
492.161	4793.78
492.365	4799.93
492.569	4756.92
492.772	4730.3
492.976	4754.87
493.18	4912.57
493.383	5033.4
493.587	5066.16
493.79	5027.25
493.994	5021.11
494.197	4992.44
494.401	4916.66
494.605	5125.55
494.808	5236.14
495.012	5195.18
495.215	5107.12
495.419	5293.49
495.622	5209.52
495.825	5373.36
496.029	5283.25
496.232	5479.85
496.436	5457.32
496.639	5520.81
496.843	5612.97
497.046	5569.96
497.249	5705.13
497.453	5610.92
497.656	5770.66
497.859	5668.27
498.063	5977.51
498.266	5981.6
498.469	5914.02
498.673	5862.82
498.876	6081.96
499.079	6266.27
499.282	6180.26
499.485	6329.76
499.689	6354.34
499.892	6487.45
500.095	6325.66
500.298	6692.25
500.501	6602.14
500.705	6692.25
500.908	6948.25
501.111	6905.24
501.314	6911.38
501.517	6946.2
501.72	7318.93
501.923	7224.72
502.126	7255.44
502.329	7679.37
502.532	7478.67
502.735	7622.03
502.938	7718.28
503.141	7761.29
503.344	8088.96
503.547	7871.88
503.75	7959.94
503.953	8222.08
504.156	8228.23
504.359	8492.41
504.562	8394.11
504.765	8809.85
504.968	8637.82
505.17	8852.86
505.373	8885.62
505.576	8967.54
505.779	9096.57
505.982	9133.43
506.185	9424.24
506.387	9246.07
506.59	9479.54
506.793	9819.5
506.996	9641.32
507.198	10061.16
507.401	9784.68
507.604	10009.96
507.807	10091.88
508.009	10351.97
508.212	10329.44
508.415	10702.17
508.617	10816.86
508.82	10841.43
509.022	10669.41
509.225	10861.91
509.428	11203.93
509.63	11390.29
509.833	11271.51
510.035	11717.97
510.238	11461.97
510.44	11664.72
510.643	11988.3
510.845	12221.77
511.048	12029.26
511.25	12369.22
511.453	12236.1
511.655	12936.51
511.858	12338.5
512.06	12750.14
512.262	13004.09
512.465	12766.53
512.667	13040.95
512.87	13325.62
513.072	13217.08
513.274	13819.18
513.477	13837.61
513.679	13987.11
513.881	13845.8
514.084	14218.54
514.286	14228.77
514.488	14365.99
514.69	14830.88
514.893	14843.17
515.095	14685.47
515.297	15066.39
515.499	15170.84
515.701	15289.62
515.904	15459.6
516.106	15557.91
516.308	15861.01
516.51	15973.64
516.712	15963.4
516.914	16329.99
517.116	16483.59
517.318	16520.45
517.52	16702.72
517.722	16776.45
517.925	16979.2
518.127	17388.79
518.329	17353.98
518.531	17347.83
518.733	17677.55
518.935	17792.24
519.136	17863.92
519.338	18218.22
519.54	18179.31
519.742	18377.96
519.944	18449.64
520.146	18805.99
520.348	18859.23
520.55	19135.71
520.752	19270.87
520.954	19619.03
521.155	19121.37
521.357	19528.92
521.559	19799.25
521.761	20399.3
521.963	20120.78
522.164	20319.43
522.366	20348.11
522.568	20772.04
522.77	20600.01
522.971	21073.09
523.173	20755.65
523.375	21281.98
523.576	21173.44
523.778	21120.19
523.98	21392.57
524.181	21546.17
524.383	21552.31
524.584	22193.33
524.786	22162.61
524.988	21703.86
525.189	22135.98
525.391	22285.48
525.592	22217.9
525.794	22498.47
525.995	22686.89
526.197	22885.54
526.398	22836.39
526.6	22856.87
526.801	22760.61
527.003	23272.6
527.204	23233.69
527.406	23473.31
527.607	23741.59
527.808	23399.58
528.01	23207.07
528.211	23346.33
528.412	23696.53
528.614	23680.15
528.815	23833.75
529.016	24296.59
529.218	24216.72
529.419	23968.91
529.62	24294.54
529.822	24071.31
530.023	24218.77
530.224	24089.74
530.425	24358.03
530.626	23860.37
530.828	23999.63
531.029	24927.36
531.23	24308.88
531.431	24351.88
531.632	24753.29
531.833	24857.73
532.035	24462.47
532.236	24718.47
532.437	24945.8
532.638	24571.02
532.839	24700.04
533.04	24632.46
533.241	24607.88
533.442	25042.05
533.643	24456.33
533.844	24736.9
534.045	25099.39
534.246	24525.96
534.447	25001.09
534.648	24972.42
534.849	24939.65
535.05	24683.66
535.251	24761.48
535.451	25209.98
535.652	24773.77
535.853	24913.03
536.054	25076.87
536.255	25052.29
536.456	24845.44
536.657	25291.9
536.857	24628.36
537.058	24794.25
537.259	25115.78
537.46	25216.13
537.66	25007.23
537.861	25250.94
538.062	24851.59
538.263	25150.59
538.463	24820.87
538.664	24781.96
538.865	25248.89
539.065	25160.83
539.266	25025.67
539.466	25072.77
539.667	24718.47
539.868	25441.4
540.068	25097.35
540.269	24917.12
540.469	25189.5
540.67	24812.68
540.87	24925.32
541.071	25072.77
541.271	24947.84
541.472	24753.29
541.672	24855.68
541.873	24765.57
542.073	24695.94
542.274	25252.99
542.474	24943.75
542.675	24956.04
542.875	25197.7
543.075	25009.28
543.276	24595.59
543.476	24949.89
543.676	24685.7
543.877	24831.11
544.077	24743.05
544.277	24616.07
544.478	24827.01
544.678	25074.82
544.878	24880.26
545.078	24790.15
545.279	24714.37
545.479	24894.6
545.679	24996.99
545.879	24769.67
546.079	24798.34
546.28	24499.34
546.48	24603.78
546.68	24626.31
546.88	25015.43
547.08	24769.67
547.28	24915.08
547.48	24749.19
547.68	24659.08
547.88	24454.28
548.081	24829.06
548.281	25003.14
548.481	24618.12
548.681	24822.92
548.881	24521.87
549.081	24808.58
549.28	24611.98
549.48	24835.21
549.68	24425.61
549.88	25070.72
550.08	25050.24
550.28	24632.46
550.48	24681.61
550.68	25015.43
550.88	24593.54
551.08	24657.03
551.279	24599.69
551.479	24333.45
551.679	24726.66
551.879	24419.47
552.079	24398.99
552.278	24657.03
552.478	24831.11
552.678	24638.6
552.878	24597.64
553.077	24671.37
553.277	24538.25
553.477	25099.39
553.676	24298.64
553.876	24566.92
554.076	24609.93
554.275	24560.78
554.475	24269.97
554.674	24773.77
554.874	24589.45
555.074	24259.73
555.273	24562.83
555.473	24386.7
555.672	24073.36
555.872	24175.76
556.071	24317.07
556.271	24474.76
556.47	24337.55
556.67	24032.4
556.869	24052.88
557.068	24073.36
557.268	23897.24
557.467	24372.36
557.667	24257.68
557.866	24226.96
558.065	24065.17
558.265	23772.31
558.464	23753.88
558.663	24321.16
558.863	23737.49
559.062	24114.32
559.261	23354.52
559.461	24218.77
559.66	23811.22
559.859	23674.01
560.058	23491.74
560.258	23823.51
560.457	23587.99
560.656	24003.73
560.855	23510.17
561.054	23735.45
561.253	23674.01
561.453	23528.6
561.652	23252.13
561.851	23405.72
562.05	23397.53
562.249	23313.56
562.448	23215.26
562.647	23514.27
562.846	23372.96
563.045	23340.19
563.244	23184.54
563.443	23467.16
563.642	22926.5
563.841	23356.57
564.04	23145.63
564.239	23215.26
564.438	23053.47
564.637	23157.92
564.836	22809.76
565.035	22760.61
565.234	22713.51
565.432	22820
565.631	22564.01
565.83	22850.72
566.029	22740.13
566.228	22799.52
566.427	22830.24
566.625	22516.9
566.824	22271.15
567.023	22557.86
567.222	22166.7
567.42	22596.78
567.619	22330.54
567.818	22123.69
568.016	22332.59
568.215	22383.79
568.414	21929.14
568.612	22238.38
568.811	21988.53
569.01	21910.71
569.208	21951.67
569.407	21902.51
569.605	21644.47
569.804	21892.27
570.002	21730.48
570.201	21730.48
570.4	21488.82
570.598	21648.57
570.797	21425.34
570.995	21574.84
571.193	21343.42
571.392	21324.99
571.59	21126.33
571.789	21228.73
571.987	20868.29
572.186	21038.27
572.384	20939.97
572.582	21083.33
572.781	21038.27
572.979	20948.16
573.177	20884.67
573.376	20952.26
573.574	20794.56
573.772	20780.23
573.971	20858.05
574.169	20632.77
574.367	20477.13
574.565	20643.01
574.763	20384.97
574.962	20548.81
575.16	20405.45
575.358	20327.63
575.556	19924.18
575.754	20233.42
575.952	19879.12
576.151	20356.3
576.349	19825.87
576.547	19973.33
576.745	19770.58
576.943	19932.37
577.141	19688.66
577.339	19832.02
577.537	19616.98
577.735	19834.07
577.933	19262.68
578.131	19549.4
578.329	19449.05
578.527	19551.45
578.725	19256.54
578.923	19428.57
579.121	19383.51
579.319	19303.64
579.516	19117.28
579.714	19246.3
579.912	19279.07
580.11	18892
580.308	19154.14
580.506	19041.5
580.704	18529.51
580.901	18687.2
581.099	18930.91
581.297	18783.46
581.495	18709.73
581.692	18779.36
581.89	18549.99
582.088	18574.56
582.285	18433.25
582.483	18623.72
582.681	18506.98
582.878	18152.68
583.076	18230.51
583.274	18408.68
583.471	18205.93
583.669	18339.05
583.866	17837.3
584.064	17945.84
584.262	17927.41
584.459	18003.18
584.657	17806.58
584.854	18044.14
585.052	17939.69
585.249	17954.03
585.447	17648.88
585.644	17583.35
585.841	17837.3
586.039	17927.41
586.236	17290.49
586.434	17923.31
586.631	17439.99
586.828	17294.58
587.026	17503.48
587.223	17239.29
587.42	17130.75
587.618	17425.65
587.815	17116.41
588.012	16993.53
588.21	17177.85
588.407	17323.26
588.604	16928
588.801	16782.59
588.999	16784.64
589.196	16614.66
589.393	16547.08
589.59	16667.91
589.787	16706.82
589.984	16532.74
590.182	16243.98
590.379	16538.88
590.576	16319.75
590.773	16647.43
590.97	16176.39
591.167	16432.39
591.364	16545.03
591.561	16117
591.758	16000.27
591.955	16172.3
592.152	16229.64
592.349	16006.41
592.546	16063.75
592.743	15924.49
592.94	15936.78
593.137	15949.07
593.334	15770.9
593.531	15445.27
593.727	15807.76
593.924	15867.15
594.121	15781.14
594.318	15711.5
594.515	15512.85
594.712	15680.78
594.908	15443.22
595.105	15410.45
595.302	15451.41
595.499	15193.37
595.696	15441.17
595.892	14947.61
596.089	15297.81
596.286	14996.76
596.482	15111.45
596.679	15172.89
596.876	15080.73
597.072	15045.91
597.269	14902.56
597.466	14961.95
597.662	14916.89
597.859	14800.16
598.055	14849.31
598.252	14712.1
598.448	14599.46
598.645	14454.05
598.841	14548.26
599.038	14664.99
599.234	14480.68
599.431	14519.59
599.627	14468.39
599.824	14329.13
600.02	14306.6
600.217	14421.28
600.413	14165.29
600.609	14167.34
600.806	14277.93
601.002	14136.62
601.198	13870.38
601.395	14081.32
601.591	14050.6
601.787	13942.06
601.984	14052.65
602.18	14001.45
602.376	13935.92
602.572	13432.12
602.769	13858.09
602.965	13493.55
603.161	13708.59
603.357	13563.19
603.553	13557.04
603.75	13684.02
603.946	13380.92
604.142	13667.63
604.338	13186.36
604.534	13329.72
604.73	13307.19
604.926	13319.48
605.122	13255.99
605.318	13059.38
605.514	13223.22
605.71	13004.09
605.906	12999.99
606.102	12705.09
606.298	13159.74
606.494	12842.3
606.69	12940.6
606.886	12524.86
607.082	12870.97
607.278	12993.85
607.474	12688.7
607.67	12737.85
607.866	12543.3
608.062	12870.97
608.257	12887.36
608.453	12367.17
608.649	12496.19
608.845	12553.54
609.041	12424.51
609.236	12549.44
609.432	12563.78
609.628	12420.42
609.824	12223.81
610.019	12254.53
610.215	12311.88
610.411	12510.53
610.606	12307.78
610.802	12123.46
610.998	12225.86
611.193	12252.49
611.389	12248.39
611.584	12080.46
611.78	12119.37
611.976	11984.2
612.171	11967.82
612.367	12109.13
612.562	11971.91
612.758	12189
612.953	11593.04
613.149	11953.48
613.344	11789.64
613.539	12035.4
613.735	11986.25
613.93	12117.32
614.126	11660.62
614.321	11806.03
614.517	11611.47
614.712	11650.38
614.907	11619.66
615.103	11724.11
615.298	11537.74
615.493	11636.05
615.688	11459.92
615.884	11828.56
616.079	11443.54
616.274	11453.78
616.47	11488.59
616.665	11427.15
616.86	11294.04
617.055	11453.78
617.25	11257.17
617.445	11488.59
617.641	11238.74
617.836	11275.6
618.031	11332.95
618.226	11138.39
618.421	11324.76
618.616	11261.27
618.811	10915.16
619.006	11111.77
619.201	10913.11
619.396	11222.36
619.591	10728.8
619.786	10984.79
619.981	10741.08
620.176	10761.56
620.371	10849.63
620.566	10677.6
620.761	10759.52
620.956	10644.83
621.151	10599.77
621.346	10640.73
621.541	10460.51
621.735	10380.64
621.93	10524
622.125	10317.15
622.32	10196.32
622.515	10169.7
622.709	10253.67
622.904	10136.93
623.099	10136.93
623.294	10186.08
623.488	9934.18
623.683	10034.53
623.878	9817.45
624.072	9774.44
624.267	9741.68
624.462	9586.03
624.656	9739.63
624.851	9559.41
625.046	9536.88
625.24	9379.18
625.435	9293.17
625.629	9540.97
625.824	9526.64
626.018	9362.8
626.213	9141.62
626.407	9229.68
626.602	9112.95
626.796	9094.52
626.991	9090.42
627.185	9137.52
627.38	8979.83
627.574	8961.4
627.768	8672.64
627.963	9014.65
628.157	8904.06
628.352	8734.07
628.546	8613.24
628.74	8758.65
628.935	8566.14
629.129	8498.56
629.323	8514.94
629.517	8398.21
629.712	8236.42
629.906	8260.99
630.1	8217.99
630.294	8297.86
630.489	8170.88
630.683	8445.31
630.877	8209.79
631.071	8154.5
631.265	8062.34
631.459	8011.14
631.653	8002.95
631.848	8009.09
632.042	7859.59
632.236	8111.49
632.43	7634.32
632.624	7937.41
632.818	7759.24
633.012	7792.01
633.206	7581.07
633.4	7503.25
633.594	7507.34
633.788	7560.59
633.982	7607.69
634.176	7380.37
634.369	7396.75
634.563	7349.65
634.757	7282.06
634.951	7441.81
635.145	7318.93
635.339	7273.87
635.533	7009.69
635.726	7144.85
635.92	7024.02
636.114	7005.59
636.308	6935.96
636.501	6993.3
636.695	6966.68
636.889	6960.53
637.083	6722.97
637.276	6966.68
637.47	6673.82
637.664	6768.02
637.857	6796.7
638.051	6720.92
638.244	6686.11
638.438	6729.11
638.632	6634.91
638.825	6516.12
639.019	6712.73
639.212	6444.45
639.406	6403.49
639.599	6442.4
639.793	6518.17
639.986	6188.45
640.18	6305.18
640.373	6149.54
640.567	6196.64
640.76	6149.54
640.954	6157.73
641.147	6061.48
641.34	6045.09
641.534	6071.72
641.727	6057.38
641.92	6049.19
642.114	5975.46
642.307	6106.53
642.5	5748.14
642.694	5830.06
642.887	5772.71
643.08	5780.9
643.273	5733.8
643.467	5572.01
643.66	5615.02
643.853	5698.99
644.046	5518.76
644.239	5580.2
644.432	5512.62
644.626	5504.43
644.819	5408.17
645.012	5580.2
645.205	5230
645.398	5453.23
645.591	5291.44
645.784	5399.98
645.977	5354.93
646.17	5336.49
646.363	5225.9
646.556	5141.94
646.749	5123.51
646.942	5205.42
647.135	5125.55
647.328	5094.83
647.521	4984.24
647.714	4924.85
647.907	4910.52
648.099	4994.48
648.292	4836.79
648.485	4959.67
648.678	4859.32
648.871	4949.43
649.064	4642.23
649.256	4754.87
649.449	4816.31
649.642	4818.36
649.835	4668.86
650.027	4756.92
650.22	4738.49
650.413	4652.47
650.605	4582.84
650.798	4462.01
650.991	4568.51
651.183	4459.96
651.376	4406.72
651.568	4531.64
651.761	4562.36
651.954	4363.71
652.146	4300.22
652.339	4505.02
652.531	4353.47
652.724	4289.98
652.916	4242.88
653.109	4314.56
653.301	4238.78
653.494	4251.07
653.686	4117.95
653.879	4154.82
654.071	4095.43
654.263	4070.85
654.456	4109.76
654.648	4152.77
654.84	4150.72
655.033	4097.47
655.225	4173.25
655.417	4038.08
655.61	4013.51
655.802	4040.13
655.994	3978.69
656.186	3835.33
656.379	3864.01
656.571	3876.29
656.763	3878.34
656.955	3921.35
657.148	3954.12
657.34	3818.95
657.532	3780.04
657.724	3644.87
657.916	3855.81
658.108	3821
658.3	3691.98
658.492	3663.3
658.684	3597.77
658.876	3636.68
659.068	3614.15
659.26	3657.16
659.452	3651.02
659.644	3413.45
659.836	3509.71
660.028	3630.54
660.22	3442.12
660.412	3505.61
660.604	3474.89
660.796	3423.69
660.988	3454.41
661.18	3364.3
661.372	3370.44
661.563	3440.08
661.755	3235.28
661.947	3376.59
662.139	3458.51
662.331	3309.01
662.522	3165.65
662.714	3302.86
662.906	3196.37
663.097	3227.09
663.289	3151.31
663.481	3165.65
663.673	3157.46
663.864	3165.65
664.056	3040.72
664.247	3061.2
664.439	3132.88
664.631	3212.75
664.822	3036.63
665.014	3061.2
665.205	2979.28
665.397	2923.99
665.588	2878.93
665.78	2960.85
665.971	2917.84
666.163	2938.32
666.354	2866.64
666.546	2862.55
666.737	2848.21
666.929	2817.49
667.12	2809.3
667.311	2741.72
667.503	2794.97
667.694	2840.02
667.885	2780.63
668.077	2840.02
668.268	2729.43
668.459	2735.57
668.651	2702.81
668.842	2713.05
669.033	2774.49
669.224	2735.57
669.416	2637.27
669.607	2696.66
669.798	2491.87
669.989	2633.18
670.18	2643.42
670.371	2543.07
670.563	2520.54
670.754	2565.59
670.945	2659.8
671.136	2590.17
671.327	2577.88
671.518	2543.07
671.709	2475.48
671.9	2526.68
672.091	2448.86
672.282	2559.45
672.473	2594.26
672.664	2516.44
672.855	2563.54
673.046	2426.33
673.237	2420.19
673.428	2477.53
673.619	2440.67
673.809	2428.38
674	2397.66
674.191	2389.47
674.382	2536.92
674.573	2436.57
674.764	2397.66
674.954	2498.01
675.145	2334.17
675.336	2356.7
675.527	2323.93
675.717	2305.5
675.908	2242.01
676.099	2393.56
676.289	2371.04
676.48	2354.65
676.671	2330.08
676.861	2344.41
677.052	2254.3
677.243	2305.5
677.433	2354.65
677.624	2338.27
677.814	2313.69
678.005	2213.34
678.195	2297.31
678.386	2248.16
678.576	2334.17
678.767	2291.17
678.957	2262.49
679.148	2233.82
679.338	2176.48
679.529	2201.05
679.719	2258.4
679.909	2260.45
680.1	2192.86
680.29	2158.05
680.481	2231.77
680.671	2242.01
680.861	2205.15
681.052	2203.1
681.242	2215.39
681.432	2168.29
681.622	2170.33
681.813	2227.68
682.003	2201.05
682.193	2215.39
682.383	2174.43
682.573	2194.91
682.764	2084.32
682.954	2174.43
683.144	2131.42
683.334	2145.76
683.524	2242.01
683.714	2244.06
683.904	2133.47
684.094	2074.08
684.284	2233.82
684.474	2217.44
684.664	2260.45
684.854	2147.81
685.044	2041.31
685.234	2231.77
685.424	2119.14
685.614	2149.86
685.804	2090.46
685.994	2067.94
686.184	2139.62
686.374	2145.76
686.564	2082.27
686.753	2141.66
686.943	2061.79
687.133	2133.47
687.323	2145.76
687.513	2033.12
687.702	2123.23
687.892	2008.55
688.082	2088.42
688.272	2020.83
688.461	2061.79
688.651	2026.98
688.841	2090.46
689.03	1977.83
689.22	2024.93
689.41	2047.46
689.599	2010.59
689.789	2004.45
689.979	1975.78
690.168	1971.68
690.358	1961.44
690.547	1928.67
690.737	2059.74
690.926	1992.16
691.116	2004.45
691.305	2055.65
691.495	1971.68
691.684	1955.3
691.874	1893.86
692.063	2008.55
692.252	1906.15
692.442	1940.96
692.631	1951.2
692.82	1883.62
693.01	1914.34
693.199	1857
693.388	1900
693.578	1924.58
693.767	1938.91
693.956	1959.39
694.146	1822.18
694.335	1871.33
694.524	1863.14
694.713	1959.39
694.902	1783.27
695.092	1936.87
695.281	1914.34
695.47	1803.75
695.659	1887.72
695.848	1897.96
696.037	1850.85
696.226	1897.96
696.415	1816.04
696.604	1895.91
696.793	1932.77
696.982	1793.51
697.171	1865.19
697.36	1785.32
697.549	1809.89
697.738	1846.76
697.927	1846.76
698.116	1785.32
698.305	1824.23
698.494	1760.74
698.683	1846.76
698.872	1912.29
699.061	1830.37
699.25	1861.09
699.438	1830.37
699.627	1680.87
699.816	1873.38
700.005	1805.8
700.193	1897.96
700.382	1795.56
700.571	1748.45
700.76	1777.12
700.948	1756.65
701.137	1904.1
701.326	1797.6
701.514	1682.92
701.703	1744.36
701.892	1781.22
702.08	1848.8
702.269	1748.45
702.457	1789.41
702.646	1746.41
702.834	1764.84
703.023	1691.11
703.212	1721.83
703.4	1754.6
703.589	1666.53
703.777	1730.02
703.965	1740.26
704.154	1762.79
704.342	1596.9
704.531	1637.86
704.719	1730.02
704.907	1670.63
705.096	1691.11
705.284	1793.51
705.472	1707.49
705.661	1578.47
705.849	1750.5
706.037	1629.67
706.226	1730.02
706.414	1760.74
706.602	1668.58
706.79	1627.62
706.979	1682.92
707.167	1662.44
707.355	1707.49
707.543	1660.39
707.731	1623.53
707.919	1627.62
708.107	1715.69
708.296	1670.63
708.484	1644.01
708.672	1598.95
708.86	1621.48
709.048	1627.62
709.236	1586.66
709.424	1605.1
709.612	1551.85
709.8	1633.77
709.988	1648.1
710.176	1633.77
710.364	1676.77
710.551	1603.05
710.739	1557.99
710.927	1555.94
711.115	1588.71
711.303	1547.75
711.491	1576.42
711.679	1551.85
711.866	1633.77
712.054	1512.94
712.242	1498.6
712.43	1555.94
712.617	1498.6
712.805	1562.09
712.993	1592.81
713.181	1433.07
713.368	1555.94
713.556	1506.79
713.744	1545.7
713.931	1656.29
714.119	1574.38
714.306	1582.57
714.494	1555.94
714.682	1586.66
714.869	1441.26
715.057	1467.88
715.244	1590.76
715.432	1523.18
715.619	1502.7
715.807	1463.79
715.994	1504.75
716.182	1492.46
716.369	1576.42
716.556	1551.85
716.744	1496.55
716.931	1562.09
717.119	1517.03
717.306	1502.7
717.493	1525.22
717.681	1359.34
717.868	1406.44
718.055	1494.51
718.242	1504.75
718.43	1502.7
718.617	1494.51
718.804	1494.51
718.991	1422.83
719.179	1414.63
719.366	1291.76
719.553	1537.51
719.74	1408.49
719.927	1439.21
720.114	1461.74
720.301	1437.16
720.488	1471.98
720.676	1381.87
720.863	1316.33
721.05	1385.96
721.237	1392.11
721.424	1390.06
721.611	1422.83
721.798	1326.57
721.985	1451.5
722.172	1340.91
722.358	1363.44
722.545	1428.97
722.732	1320.43
722.919	1291.76
723.106	1375.72
723.293	1297.9
723.48	1402.35
723.667	1332.72
723.853	1463.79
724.04	1426.92
724.227	1365.48
724.414	1379.82
724.6	1345
724.787	1322.48
724.974	1381.87
725.161	1324.52
725.347	1287.66
725.534	1330.67
725.72	1367.53
725.907	1281.52
726.094	1381.87
726.28	1347.05
726.467	1310.19
726.653	1248.75
726.84	1322.48
727.027	1359.34
727.213	1314.28
727.4	1363.44
727.586	1250.8
727.773	1261.04
727.959	1381.87
728.145	1385.96
728.332	1316.33
728.518	1277.42
728.705	1289.71
728.891	1306.09
729.077	1347.05
729.264	1306.09
729.45	1306.09
729.636	1205.74
729.823	1314.28
730.009	1287.66
730.195	1367.53
730.382	1236.46
730.568	1340.91
730.754	1334.76
730.94	1218.03
731.126	1334.76
731.313	1250.8
731.499	1293.8
731.685	1289.71
731.871	1242.61
732.057	1324.52
732.243	1310.19
732.429	1357.29
732.615	1336.81
732.801	1261.04
732.987	1185.26
733.173	1236.46
733.359	1258.99
733.545	1244.65
733.731	1336.81
733.917	1250.8
734.103	1275.37
734.289	1299.95
734.475	1347.05
734.661	1271.28
734.847	1234.41
735.033	1308.14
735.219	1199.6
735.404	1289.71
735.59	1271.28
735.776	1228.27
735.962	1287.66
736.148	1238.51
736.333	1277.42
736.519	1322.48
736.705	1256.94
736.89	1242.61
737.076	1197.55
737.262	1232.37
737.447	1185.26
737.633	1283.56
737.819	1164.78
738.004	1209.84
738.19	1211.89
738.375	1207.79
738.561	1281.52
738.747	1215.98
738.932	1244.65
739.118	1242.61
739.303	1177.07
739.489	1162.73
739.674	1179.12
739.859	1164.78
740.045	1125.87
740.23	1238.51
740.416	1197.55
740.601	1162.73
740.786	1252.84
740.972	1183.21
741.157	1201.65
741.342	1086.96
741.528	1080.82
741.713	1195.5
741.898	1136.11
742.084	1160.69
742.269	1076.72
742.454	1152.49
742.639	1195.5
742.824	1105.39
743.01	1082.86
743.195	1134.06
743.38	1111.54
743.565	1107.44
743.75	1119.73
743.935	1125.87
744.12	1152.49
744.305	1136.11
744.49	1076.72
744.675	1105.39
744.86	1125.87
745.045	1011.18
745.23	1043.95
745.415	1117.68
745.6	1097.2
745.785	970.23
745.97	1048.05
746.155	1054.19
746.34	984.56
746.525	1037.81
746.71	1013.23
746.895	1005.04
747.079	1058.29
747.264	994.8
747.449	949.75
747.634	957.94
747.819	1086.96
748.003	947.7
748.188	900.59
748.373	1013.23
748.557	1050.1
748.742	1025.52
748.927	966.13
749.111	978.42
749.296	902.64
749.481	968.18
749.665	953.84
749.85	974.32
750.034	945.65
750.219	1064.43
750.404	865.78
750.588	957.94
750.773	912.88
750.957	964.08
751.141	818.68
751.326	990.7
751.51	890.35
751.695	968.18
751.879	869.87
752.064	894.45
752.248	816.63
752.432	859.63
752.617	873.97
752.801	945.65
752.985	810.48
753.17	857.59
753.354	812.53
753.538	847.35
753.722	753.14
753.907	826.87
754.091	765.43
754.275	794.1
754.459	769.52
754.643	876.02
754.828	738.8
755.012	783.86
755.196	693.75
755.38	814.58
755.564	841.2
755.748	751.09
755.932	785.91
756.116	798.2
756.3	736.76
756.484	747
756.668	701.94
756.852	759.28
757.036	710.13
757.22	761.33
757.404	724.47
757.588	732.66
757.772	753.14
757.956	751.09
758.14	615.93
758.323	765.43
758.507	638.45
758.691	654.84
758.875	718.33
759.059	753.14
759.242	706.04
759.426	720.37
759.61	673.27
759.794	632.31
759.977	677.37
760.161	726.52
760.345	607.73
760.528	656.89
760.712	720.37
760.895	634.36
761.079	634.36
761.263	613.88
761.446	634.36
761.63	620.02
761.813	708.09
761.997	634.36
762.18	640.5
762.364	529.91
762.547	570.87
762.731	560.63
762.914	550.39
763.098	579.06
763.281	624.12
763.464	630.26
763.648	574.97
763.831	620.02
764.015	630.26
764.198	577.02
764.381	613.88
764.564	558.58
764.748	591.35
764.931	622.07
765.114	534.01
765.297	634.36
765.481	558.58
765.664	583.16
765.847	587.26
766.03	577.02
766.213	585.21
766.397	634.36
766.58	472.57
766.763	550.39
766.946	521.72
767.129	538.1
767.312	499.19
767.495	531.96
767.678	601.59
767.861	546.3
768.044	523.77
768.227	572.92
768.41	667.13
768.593	511.48
768.776	585.21
768.959	538.1
769.142	529.91
769.324	558.58
769.507	501.24
769.69	470.52
769.873	521.72
770.056	396.79
770.239	560.63
770.421	435.71
770.604	478.71
770.787	534.01
770.97	544.25
771.152	452.09
771.335	458.23
771.518	447.99
771.7	441.85
771.883	470.52
772.066	519.67
772.248	472.57
772.431	534.01
772.613	488.95
772.796	501.24
772.978	534.01
773.161	540.15
773.343	456.19
773.526	503.29
773.708	486.9
773.891	392.7
774.073	529.91
774.256	509.43
774.438	470.52
774.621	454.14
774.803	433.66
774.985	364.03
775.168	474.62
775.35	349.69
775.532	460.28
775.715	374.27
775.897	441.85
776.079	368.12
776.261	454.14
776.444	370.17
776.626	380.41
776.808	349.69
776.99	441.85
777.173	495.1
777.355	443.9
777.537	392.7
777.719	431.61
777.901	310.78
778.083	415.23
778.265	376.31
778.447	380.41
778.629	374.27
778.811	472.57
778.993	357.88
779.175	376.31
779.357	327.16
779.539	370.17
779.721	402.94
779.903	364.03
780.085	409.08
780.267	325.12
780.449	286.2
780.631	321.02
780.812	366.07
780.994	370.17
781.176	275.96
781.358	347.64
781.54	294.4
781.721	357.88
781.903	318.97
782.085	325.12
782.267	325.12
782.448	351.74
782.63	355.83
782.812	333.31
782.993	357.88
783.175	312.83
783.357	294.4
783.538	265.72
783.72	257.53
783.901	296.44
784.083	245.24
784.264	339.45
784.446	257.53
784.627	282.11
784.809	296.44
784.99	265.72
785.172	294.4
785.353	241.15
785.535	220.67
785.716	267.77
785.897	275.96
786.079	269.82
786.26	275.96
786.441	282.11
786.623	275.96
786.804	376.31
786.985	212.48
787.167	239.1
787.348	310.78
787.529	306.68
787.71	239.1
787.891	296.44
788.073	146.94
788.254	265.72
788.435	257.53
788.616	245.24
788.797	210.43
788.978	249.34
789.159	267.77
789.34	208.38
789.522	214.52
789.703	257.53
789.884	161.28
790.065	202.24
790.246	267.77
790.427	296.44
790.607	253.44
790.788	302.59
790.969	220.67
791.15	200.19
791.331	214.52
791.512	235
791.693	185.85
791.874	171.52
792.054	187.9
792.235	247.29
792.416	269.82
792.597	206.33
792.778	243.2
792.958	212.48
793.139	165.37
793.32	196.09
793.5	118.27
793.681	179.71
793.862	144.89
794.042	155.13
794.223	157.18
794.404	126.46
794.584	163.33
794.765	159.23
794.945	206.33
795.126	185.85
795.306	212.48
795.487	163.33
795.667	134.65
795.848	251.39
796.028	181.76
796.209	153.09
796.389	116.22
796.57	122.37
796.75	163.33
796.93	128.51
797.111	175.61
797.291	175.61
797.471	97.79
797.652	93.69
797.832	173.57
798.012	241.15
798.192	138.75
798.373	181.76
798.553	173.57
798.733	192
798.913	134.65
799.093	161.28
799.274	163.33
799.454	130.56
799.634	208.38
799.814	71.17
799.994	89.6
800.174	136.7
800.354	118.27
800.534	159.23
800.714	114.17
800.894	132.61
801.074	173.57
801.254	128.51
801.434	189.95
801.614	103.93
801.794	159.23
801.974	345.59
802.154	103.93
802.334	169.47
802.514	75.26
802.693	144.89
802.873	163.33
803.053	89.6
803.233	173.57
803.413	101.89
803.592	175.61
803.772	110.08
803.952	167.42
804.131	105.98
804.311	126.46
804.491	85.5
804.67	62.98
804.85	208.38
805.03	194.05
805.209	153.09
805.389	101.89
805.568	142.85
805.748	52.74
805.928	69.12
806.107	132.61
806.287	146.94
806.466	136.7
806.646	58.88
806.825	251.39
807.004	91.65
807.184	132.61
807.363	146.94
807.543	132.61
807.722	134.65
807.901	146.94
808.081	130.56
808.26	99.84
808.439	144.89
808.619	95.74
808.798	114.17
808.977	116.22
809.156	110.08
809.336	151.04
809.515	77.31
809.694	85.5
809.873	112.13
810.052	87.55
810.231	97.79
810.411	65.02
810.59	99.84
810.769	142.85
810.948	118.27
811.127	28.16
811.306	99.84
811.485	44.54
811.664	167.42
811.843	67.07
812.022	101.89
812.201	77.31
812.38	99.84
812.559	101.89
812.737	120.32
812.916	134.65
813.095	124.41
813.274	110.08
813.453	116.22
813.632	116.22
813.811	136.7
813.989	105.98
814.168	97.79
814.347	24.06
814.526	69.12
814.704	124.41
814.883	140.8
815.062	120.32
815.24	93.69
815.419	99.84
815.598	108.03
815.776	93.69
815.955	87.55
816.133	122.37
816.312	7.68
816.49	56.83
816.669	71.17
816.847	71.17
817.026	56.83
817.204	114.17
817.383	83.45
817.561	40.45
817.74	136.7
817.918	116.22
818.097	46.59
818.275	73.21
818.453	77.31
818.632	89.6
818.81	62.98
818.988	62.98
819.167	-27.14
819.345	81.41
819.523	71.17
819.701	110.08
819.879	183.81
820.058	130.56
820.236	95.74
820.414	19.97
820.592	122.37
820.77	60.93
820.948	38.4
821.127	-14.85
821.305	71.17
821.483	56.83
821.661	110.08
821.839	52.74
822.017	38.4
822.195	62.98
822.373	93.69
822.551	38.4
822.729	134.65
822.907	99.84
823.085	81.41
823.262	112.13
823.44	42.5
823.618	93.69
823.796	83.45
823.974	112.13
824.152	44.54
824.329	112.13
824.507	95.74
824.685	38.4
824.863	110.08
825.04	40.45
825.218	103.93
825.396	54.78
825.574	15.87
825.751	-23.04
825.929	28.16
826.107	128.51
826.284	3.58
826.462	103.93
826.639	79.36
826.817	-29.18
826.994	85.5
827.172	42.5
827.349	89.6
827.527	62.98
827.704	9.73
827.882	134.65
828.059	77.31
828.237	60.93
828.414	97.79
828.591	32.26
828.769	-18.94
828.946	26.11
829.124	79.36
829.301	42.5
829.478	73.21
829.655	5.63
829.833	58.88
830.01	17.92
830.187	46.59
830.364	48.64
830.542	67.07
830.719	97.79
830.896	101.89
831.073	85.5
831.25	30.21
831.427	36.35
831.604	126.46
831.782	52.74
831.959	62.98
832.136	26.11
832.313	36.35
832.49	40.45
832.667	56.83
832.844	93.69
833.021	54.78
833.198	75.26
833.374	58.88
833.551	34.3
833.728	44.54
833.905	95.74
834.082	69.12
834.259	32.26
834.436	97.79
834.612	56.83
834.789	56.83
834.966	71.17
835.143	62.98
835.319	32.26
835.496	44.54
835.673	83.45
835.85	95.74
836.026	48.64
836.203	19.97
836.38	-25.09
836.556	60.93
836.733	-4.61
836.909	-23.04
837.086	73.21
837.262	71.17
837.439	19.97
837.616	7.68
837.792	73.21
837.968	30.21
838.145	7.68
838.321	-20.99
838.498	24.06
838.674	44.54
838.851	-12.8
839.027	85.5
839.203	52.74
839.38	54.78
839.556	-12.8
839.732	7.68
839.909	67.07
840.085	-0.51
840.261	15.87
840.437	-27.14
840.614	52.74
840.79	3.58
840.966	50.69
841.142	101.89
841.318	28.16
841.494	-18.94
841.671	3.58
841.847	38.4
842.023	-29.18
842.199	46.59
842.375	73.21
842.551	-12.8
842.727	19.97
842.903	-2.56
843.079	-2.56
843.255	77.31
843.431	30.21
843.607	36.35
843.783	81.41
843.959	40.45
844.134	138.75
844.31	22.02
844.486	71.17
844.662	48.64
844.838	65.02
845.013	15.87
845.189	77.31
845.365	-8.7
845.541	3.58
845.716	-57.86
845.892	22.02
846.068	48.64
846.244	-20.99
846.419	48.64
846.595	48.64
846.77	-20.99
846.946	40.45
847.122	32.26
847.297	58.88
847.473	50.69
847.648	28.16
847.824	36.35
847.999	-2.56
848.175	46.59
848.35	13.82
848.526	62.98
848.701	34.3
848.876	50.69
849.052	50.69
849.227	11.78
849.403	-43.52
849.578	54.78
849.753	52.74
849.929	7.68
850.104	28.16
850.279	48.64
850.454	-29.18
850.63	-0.51
850.805	48.64
850.98	65.02
851.155	15.87
851.33	13.82
851.505	42.5
851.681	15.87
851.856	-20.99
852.031	46.59
852.206	-37.38
852.381	-23.04
852.556	36.35
852.731	44.54
852.906	-18.94
853.081	69.12
853.256	15.87
853.431	50.69
853.606	22.02
853.781	-6.66
853.956	-57.86
854.131	5.63
854.305	-8.7
854.48	36.35
854.655	93.69
854.83	54.78
855.005	-39.42
855.18	28.16
855.354	60.93
855.529	93.69
855.704	-59.9
855.879	-45.57
856.053	54.78
856.228	-20.99
856.403	-39.42
856.577	-0.51
856.752	1.54
856.926	-20.99
857.101	-55.81
857.276	32.26
857.45	-27.14
857.625	52.74
857.799	19.97
857.974	67.07
858.148	89.6
858.323	60.93
858.497	54.78
858.672	26.11
858.846	11.78
859.02	7.68
859.195	-2.56
859.369	95.74
859.543	-2.56
859.718	22.02
859.892	77.31
860.066	105.98
860.241	-14.85
860.415	50.69
860.589	3.58
860.763	67.07
860.938	-20.99
861.112	3.58
861.286	54.78
861.46	40.45
861.634	28.16
861.808	3.58
861.982	-16.9
862.157	-35.33
862.331	-25.09
862.505	32.26
862.679	81.41
862.853	-35.33
863.027	1.54
863.201	50.69
863.375	1.54
863.549	-10.75
863.722	71.17
863.896	36.35
864.07	-35.33
864.244	3.58
864.418	-0.51
864.592	30.21
864.766	-10.75
864.939	-74.24
865.113	-25.09
865.287	44.54
865.461	32.26
865.634	-29.18
865.808	-4.61
865.982	5.63
866.156	-0.51
866.329	-8.7
866.503	-78.33
866.676	-39.42
866.85	44.54
867.024	3.58
867.197	38.4
867.371	54.78
867.544	19.97
867.718	-18.94
867.891	44.54
868.065	60.93
868.238	52.74
868.412	-4.61
868.585	44.54
868.759	38.4
868.932	46.59
869.105	52.74
869.279	22.02
869.452	19.97
869.625	3.58
869.799	24.06
869.972	54.78
870.145	42.5
870.319	28.16
870.492	71.17
870.665	-70.14
870.838	19.97
871.011	-29.18
871.185	62.98
871.358	36.35
871.531	42.5
871.704	-4.61
871.877	114.17
872.05	34.3
872.223	-18.94
872.396	24.06
872.569	30.21
872.742	32.26
872.915	48.64
873.088	1.54
873.261	-4.61
873.434	17.92
873.607	7.68
873.78	89.6
873.953	-8.7
874.126	7.68
874.299	1.54
874.471	-25.09
874.644	19.97
874.817	11.78
874.99	54.78
875.163	19.97
875.335	17.92
875.508	17.92
875.681	-2.56
875.853	-66.05
876.026	26.11
876.199	3.58
876.371	85.5
876.544	7.68
876.717	5.63
876.889	-49.66
877.062	-16.9
877.234	7.68
877.407	-10.75
877.579	34.3
877.752	7.68
877.924	87.55
878.097	83.45
878.269	67.07
878.442	40.45
878.614	-12.8
878.786	17.92
878.959	42.5
879.131	36.35
879.303	7.68
879.476	38.4
879.648	32.26
879.82	30.21
879.993	38.4
880.165	15.87
880.337	-6.66
880.509	5.63
880.681	-43.52
880.854	13.82
881.026	-12.8
881.198	52.74
881.37	32.26
881.542	-8.7
881.714	-18.94
881.886	-16.9
882.058	-8.7
882.23	54.78
882.402	9.73
882.574	-29.18
882.746	-2.56
882.918	50.69
883.09	5.63
883.262	-25.09
883.434	52.74
883.606	-41.47
883.778	7.68
883.95	-27.14
884.122	-8.7
884.293	48.64
884.465	-41.47
884.637	30.21
884.809	19.97
884.98	1.54
885.152	-16.9
885.324	22.02
885.496	-10.75
885.667	-16.9
885.839	-4.61
886.011	22.02
886.182	-51.71
886.354	-10.75
886.525	15.87
886.697	26.11
886.869	5.63
887.04	71.17
887.212	24.06
887.383	38.4
887.555	-66.05
887.726	44.54
887.897	42.5
888.069	26.11
888.24	22.02
888.412	62.98
888.583	-4.61
888.754	-6.66
888.926	-33.28
889.097	22.02
889.268	5.63
889.44	-12.8
889.611	56.83
889.782	-29.18
889.953	13.82
890.125	-41.47
890.296	-20.99
890.467	-4.61
890.638	32.26
890.809	19.97
890.98	-16.9
891.151	56.83
891.323	-14.85
891.494	-82.43
891.665	13.82
891.836	54.78
892.007	32.26
892.178	32.26
892.349	-25.09
892.52	11.78
892.691	38.4
892.862	13.82
893.032	-33.28
893.203	81.41
893.374	-14.85
893.545	50.69
893.716	-10.75
893.887	73.21
894.057	34.3
894.228	11.78
894.399	-16.9
894.57	19.97
894.74	-6.66
894.911	36.35
895.082	-23.04
895.253	7.68
895.423	9.73
895.594	9.73
895.764	24.06
895.935	22.02
896.106	-35.33
896.276	-31.23
896.447	42.5
896.617	-20.99
896.788	32.26
896.958	-31.23
897.129	17.92
897.299	24.06
897.47	1.54
897.64	40.45
897.81	65.02
897.981	28.16
898.151	-35.33
898.322	52.74
898.492	46.59
898.662	30.21
898.832	42.5
899.003	34.3
899.173	-18.94
899.343	58.88
899.513	9.73
