Data from USB4F104151__54__12-59-18-004.txt Node

Date: Fri Mar 14 12:59:18 EDT 2025
User: louis
Spectrometer: USB4F10415
Trigger mode: 4
Integration Time (sec): 1.000000E-2
Scans to average: 1
Electric dark correction enabled: true
Nonlinearity correction enabled: false
Boxcar width: 0
XAxis mode: Wavelengths
Number of Pixels in Spectrum: 3648
>>>>>Begin Spectral Data<<<<<
178.204	-66.56
178.424	-66.56
178.644	-66.56
178.864	-64.51
179.084	-117.76
179.304	-19.46
179.524	19.46
179.744	-5.12
179.964	39.94
180.184	-46.08
180.404	-3.07
180.624	-52.22
180.844	39.94
181.064	-31.74
181.283	44.03
181.503	-29.7
181.723	44.03
181.943	-91.13
182.163	-21.5
182.383	-103.42
182.602	-23.55
182.822	9.22
183.042	19.46
183.262	-78.85
183.482	-35.84
183.701	7.17
183.921	3.07
184.141	-7.17
184.361	52.22
184.58	-17.41
184.8	-39.94
185.02	-35.84
185.239	76.8
185.459	-48.13
185.679	21.5
185.898	33.79
186.118	-29.7
186.338	-3.07
186.557	-48.13
186.777	-21.5
186.997	-17.41
187.216	-52.22
187.436	17.41
187.655	-1.02
187.875	-21.5
188.095	-66.56
188.314	41.98
188.534	-54.27
188.753	17.41
188.973	58.37
189.192	-56.32
189.412	-5.12
189.631	1.02
189.851	21.5
190.07	41.98
190.29	25.6
190.509	-3.07
190.729	7.17
190.948	-33.79
191.168	27.65
191.387	1.02
191.607	11.26
191.826	-19.46
192.045	-50.18
192.265	7.17
192.484	-11.26
192.704	13.31
192.923	-82.94
193.142	-1.02
193.362	-70.65
193.581	-5.12
193.8	35.84
194.02	17.41
194.239	-39.94
194.458	13.31
194.678	-64.51
194.897	33.79
195.116	-78.85
195.335	-50.18
195.555	-29.7
195.774	-39.94
195.993	-35.84
196.212	7.17
196.432	-52.22
196.651	-56.32
196.87	-11.26
197.089	-21.5
197.308	-56.32
197.528	111.61
197.747	-44.03
197.966	-48.13
198.185	-3.07
198.404	-74.75
198.623	-25.6
198.842	-15.36
199.062	33.79
199.281	-41.98
199.5	1.02
199.719	39.94
199.938	5.12
200.157	-25.6
200.376	37.89
200.595	41.98
200.814	-29.7
201.033	9.22
201.252	7.17
201.471	-80.89
201.69	23.55
201.909	-33.79
202.128	-68.61
202.347	-3.07
202.566	52.22
202.785	-29.7
203.004	-72.7
203.223	72.7
203.442	19.46
203.661	-15.36
203.879	-52.22
204.098	25.6
204.317	19.46
204.536	29.7
204.755	-33.79
204.974	29.7
205.193	7.17
205.411	-37.89
205.63	11.26
205.849	13.31
206.068	-35.84
206.287	-87.04
206.505	-15.36
206.724	-11.26
206.943	-48.13
207.162	13.31
207.381	15.36
207.599	-52.22
207.818	11.26
208.037	9.22
208.255	-27.65
208.474	17.41
208.693	-58.37
208.911	-46.08
209.13	11.26
209.349	9.22
209.567	-33.79
209.786	37.89
210.005	-9.22
210.223	82.94
210.442	-27.65
210.661	-37.89
210.879	21.5
211.098	33.79
211.316	-15.36
211.535	78.85
211.753	-27.65
211.972	-56.32
212.191	-64.51
212.409	46.08
212.628	-44.03
212.846	-17.41
213.065	17.41
213.283	-19.46
213.502	-25.6
213.72	50.18
213.938	-5.12
214.157	-64.51
214.375	-3.07
214.594	-3.07
214.812	13.31
215.031	-80.89
215.249	-1.02
215.467	-21.5
215.686	-27.65
215.904	23.55
216.122	-3.07
216.341	-62.46
216.559	41.98
216.778	25.6
216.996	-41.98
217.214	-13.31
217.432	-25.6
217.651	-21.5
217.869	46.08
218.087	1.02
218.306	-23.55
218.524	-17.41
218.742	-25.6
218.96	-41.98
219.179	-56.32
219.397	-27.65
219.615	74.75
219.833	-64.51
220.051	-27.65
220.27	-11.26
220.488	3.07
220.706	3.07
220.924	-5.12
221.142	-11.26
221.36	11.26
221.578	15.36
221.796	17.41
222.015	17.41
222.233	-23.55
222.451	-25.6
222.669	-41.98
222.887	-9.22
223.105	9.22
223.323	-11.26
223.541	13.31
223.759	27.65
223.977	-33.79
224.195	-5.12
224.413	-60.42
224.631	-37.89
224.849	15.36
225.067	48.13
225.285	-70.65
225.503	-9.22
225.721	-23.55
225.939	17.41
226.157	-7.17
226.375	9.22
226.592	-29.7
226.81	-37.89
227.028	-50.18
227.246	37.89
227.464	-35.84
227.682	-7.17
227.9	-37.89
228.117	-64.51
228.335	-58.37
228.553	-39.94
228.771	-9.22
228.989	70.65
229.206	-19.46
229.424	23.55
229.642	-27.65
229.86	-3.07
230.077	-9.22
230.295	11.26
230.513	-68.61
230.731	68.61
230.948	17.41
231.166	17.41
231.384	-31.74
231.601	17.41
231.819	31.74
232.037	-29.7
232.254	-68.61
232.472	82.94
232.689	-44.03
232.907	-48.13
233.125	-80.89
233.342	-46.08
233.56	-46.08
233.777	-29.7
233.995	3.07
234.213	-31.74
234.43	-68.61
234.648	29.7
234.865	3.07
235.083	9.22
235.3	-46.08
235.518	-7.17
235.735	-46.08
235.953	-5.12
236.17	-7.17
236.388	17.41
236.605	21.5
236.822	-41.98
237.04	-35.84
237.257	50.18
237.475	-13.31
237.692	13.31
237.909	-31.74
238.127	7.17
238.344	29.7
238.562	78.85
238.779	-1.02
238.996	-60.42
239.214	-54.27
239.431	-23.55
239.648	-64.51
239.865	1.02
240.083	-29.7
240.3	25.6
240.517	33.79
240.735	15.36
240.952	13.31
241.169	3.07
241.386	-19.46
241.603	52.22
241.821	-89.09
242.038	-48.13
242.255	37.89
242.472	-1.02
242.689	5.12
242.907	58.37
243.124	-13.31
243.341	-19.46
243.558	-48.13
243.775	25.6
243.992	-7.17
244.209	-39.94
244.426	-25.6
244.643	29.7
244.86	39.94
245.078	25.6
245.295	-76.8
245.512	-58.37
245.729	93.18
245.946	-21.5
246.163	-46.08
246.38	9.22
246.597	60.42
246.814	-7.17
247.031	-33.79
247.248	-21.5
247.464	-62.46
247.681	-1.02
247.898	-56.32
248.115	-9.22
248.332	3.07
248.549	29.7
248.766	46.08
248.983	-29.7
249.2	70.65
249.417	60.42
249.633	-15.36
249.85	44.03
250.067	-56.32
250.284	-78.85
250.501	-46.08
250.717	9.22
250.934	-74.75
251.151	-9.22
251.368	-5.12
251.585	25.6
251.801	-11.26
252.018	52.22
252.235	19.46
252.451	13.31
252.668	33.79
252.885	-9.22
253.102	-5.12
253.318	-13.31
253.535	23.55
253.752	9.22
253.968	-64.51
254.185	9.22
254.401	-29.7
254.618	17.41
254.835	-33.79
255.051	3.07
255.268	-5.12
255.484	-23.55
255.701	-78.85
255.917	-29.7
256.134	-13.31
256.351	9.22
256.567	-9.22
256.784	-15.36
257	-56.32
257.217	5.12
257.433	-23.55
257.65	17.41
257.866	-23.55
258.082	44.03
258.299	-25.6
258.515	-7.17
258.732	-89.09
258.948	46.08
259.165	15.36
259.381	-31.74
259.597	17.41
259.814	-15.36
260.03	-19.46
260.246	-27.65
260.463	-27.65
260.679	-27.65
260.895	1.02
261.112	60.42
261.328	17.41
261.544	-25.6
261.761	-39.94
261.977	39.94
262.193	27.65
262.409	-9.22
262.626	-13.31
262.842	-3.07
263.058	-33.79
263.274	3.07
263.49	-60.42
263.707	33.79
263.923	37.89
264.139	21.5
264.355	-11.26
264.571	33.79
264.787	-11.26
265.004	17.41
265.22	33.79
265.436	-64.51
265.652	-50.18
265.868	-37.89
266.084	-95.23
266.3	-19.46
266.516	-5.12
266.732	21.5
266.948	-21.5
267.164	-60.42
267.38	-15.36
267.596	-25.6
267.812	50.18
268.028	-13.31
268.244	31.74
268.46	13.31
268.676	-13.31
268.892	48.13
269.108	15.36
269.324	-41.98
269.54	-64.51
269.756	68.61
269.972	66.56
270.188	-41.98
270.403	-17.41
270.619	-3.07
270.835	-27.65
271.051	87.04
271.267	-33.79
271.483	-39.94
271.698	3.07
271.914	-15.36
272.13	50.18
272.346	7.17
272.562	3.07
272.777	7.17
272.993	-25.6
273.209	1.02
273.425	-89.09
273.64	-74.75
273.856	25.6
274.072	62.46
274.287	-15.36
274.503	-44.03
274.719	21.5
274.934	9.22
275.15	-64.51
275.366	-44.03
275.581	-37.89
275.797	46.08
276.012	33.79
276.228	1.02
276.444	-70.65
276.659	82.94
276.875	-50.18
277.09	-39.94
277.306	-76.8
277.521	33.79
277.737	-35.84
277.952	-7.17
278.168	-3.07
278.383	35.84
278.599	-25.6
278.814	-33.79
279.03	48.13
279.245	50.18
279.461	-7.17
279.676	-115.71
279.892	-56.32
280.107	11.26
280.322	-21.5
280.538	-23.55
280.753	-5.12
280.969	-13.31
281.184	-19.46
281.399	15.36
281.615	-31.74
281.83	31.74
282.045	-21.5
282.26	-37.89
282.476	-35.84
282.691	-23.55
282.906	-60.42
283.122	9.22
283.337	-13.31
283.552	35.84
283.767	-11.26
283.983	-11.26
284.198	-95.23
284.413	25.6
284.628	29.7
284.843	11.26
285.058	-41.98
285.274	-17.41
285.489	-15.36
285.704	41.98
285.919	-60.42
286.134	-35.84
286.349	9.22
286.564	-19.46
286.779	-7.17
286.995	-3.07
287.21	31.74
287.425	50.18
287.64	-13.31
287.855	-1.02
288.07	11.26
288.285	11.26
288.5	76.8
288.715	9.22
288.93	-62.46
289.145	21.5
289.36	23.55
289.575	3.07
289.79	-35.84
290.004	-13.31
290.219	17.41
290.434	-5.12
290.649	-64.51
290.864	-35.84
291.079	-39.94
291.294	1.02
291.509	-29.7
291.724	-21.5
291.938	3.07
292.153	-1.02
292.368	-1.02
292.583	-13.31
292.798	3.07
293.012	11.26
293.227	-46.08
293.442	1.02
293.657	-87.04
293.871	11.26
294.086	27.65
294.301	3.07
294.516	48.13
294.73	54.27
294.945	-58.37
295.16	19.46
295.374	46.08
295.589	31.74
295.804	44.03
296.018	-46.08
296.233	48.13
296.447	-1.02
296.662	-33.79
296.877	52.22
297.091	-7.17
297.306	3.07
297.52	-23.55
297.735	-21.5
297.949	-33.79
298.164	5.12
298.378	19.46
298.593	-48.13
298.807	-21.5
299.022	-25.6
299.236	17.41
299.451	-60.42
299.665	-19.46
299.88	52.22
300.094	3.07
300.309	-21.5
300.523	-33.79
300.737	48.13
300.952	3.07
301.166	3.07
301.381	60.42
301.595	7.17
301.809	-46.08
302.024	33.79
302.238	19.46
302.452	9.22
302.667	39.94
302.881	-33.79
303.095	-15.36
303.309	84.99
303.524	-21.5
303.738	54.27
303.952	19.46
304.166	33.79
304.381	-48.13
304.595	-5.12
304.809	39.94
305.023	9.22
305.237	-5.12
305.452	21.5
305.666	62.46
305.88	5.12
306.094	-31.74
306.308	-41.98
306.522	-5.12
306.736	-3.07
306.95	1.02
307.164	-3.07
307.379	-13.31
307.593	-31.74
307.807	52.22
308.021	-21.5
308.235	-39.94
308.449	-35.84
308.663	-17.41
308.877	56.32
309.091	-35.84
309.305	9.22
309.519	-78.85
309.733	37.89
309.947	-3.07
310.161	-54.27
310.374	-15.36
310.588	46.08
310.802	5.12
311.016	50.18
311.23	-29.7
311.444	35.84
311.658	17.41
311.872	1.02
312.085	-70.65
312.299	7.17
312.513	39.94
312.727	-21.5
312.941	35.84
313.154	5.12
313.368	29.7
313.582	70.65
313.796	-19.46
314.009	17.41
314.223	5.12
314.437	-111.61
314.651	29.7
314.864	-27.65
315.078	-17.41
315.292	-33.79
315.505	-21.5
315.719	74.75
315.933	-27.65
316.146	11.26
316.36	-15.36
316.573	33.79
316.787	-13.31
317.001	5.12
317.214	-56.32
317.428	5.12
317.641	-46.08
317.855	1.02
318.068	1.02
318.282	-21.5
318.495	41.98
318.709	-46.08
318.922	-19.46
319.136	-46.08
319.349	-35.84
319.563	-23.55
319.776	84.99
319.99	-13.31
320.203	-52.22
320.417	33.79
320.63	-17.41
320.843	-27.65
321.057	-5.12
321.27	3.07
321.483	15.36
321.697	48.13
321.91	19.46
322.124	11.26
322.337	13.31
322.55	48.13
322.763	5.12
322.977	19.46
323.19	-15.36
323.403	-21.5
323.617	7.17
323.83	-17.41
324.043	-3.07
324.256	13.31
324.469	-27.65
324.683	33.79
324.896	-140.29
325.109	41.98
325.322	-15.36
325.535	50.18
325.748	-5.12
325.962	-48.13
326.175	-9.22
326.388	-25.6
326.601	41.98
326.814	-11.26
327.027	-44.03
327.24	50.18
327.453	-5.12
327.666	3.07
327.879	66.56
328.092	-35.84
328.305	23.55
328.518	-7.17
328.731	-50.18
328.944	3.07
329.157	-78.85
329.37	-58.37
329.583	66.56
329.796	-3.07
330.009	-48.13
330.222	-7.17
330.435	-50.18
330.648	21.5
330.861	-58.37
331.073	-48.13
331.286	-9.22
331.499	9.22
331.712	23.55
331.925	-25.6
332.138	50.18
332.35	-72.7
332.563	23.55
332.776	3.07
332.989	15.36
333.202	21.5
333.414	-11.26
333.627	58.37
333.84	13.31
334.053	27.65
334.265	-23.55
334.478	-9.22
334.691	-21.5
334.903	-58.37
335.116	66.56
335.329	-29.7
335.541	62.46
335.754	19.46
335.966	-1.02
336.179	58.37
336.392	64.51
336.604	-1.02
336.817	23.55
337.029	-9.22
337.242	31.74
337.454	39.94
337.667	-78.85
337.88	101.37
338.092	-60.42
338.305	1.02
338.517	-50.18
338.729	58.37
338.942	21.5
339.154	48.13
339.367	-41.98
339.579	48.13
339.792	46.08
340.004	17.41
340.217	-64.51
340.429	-72.7
340.641	-70.65
340.854	-1.02
341.066	-17.41
341.278	-1.02
341.491	-5.12
341.703	54.27
341.915	-19.46
342.128	1.02
342.34	7.17
342.552	-52.22
342.764	-19.46
342.977	41.98
343.189	48.13
343.401	-3.07
343.613	-33.79
343.826	-17.41
344.038	15.36
344.25	-37.89
344.462	-17.41
344.674	1.02
344.886	54.27
345.099	-31.74
345.311	31.74
345.523	-1.02
345.735	-44.03
345.947	9.22
346.159	-9.22
346.371	-82.94
346.583	-39.94
346.795	41.98
347.007	19.46
347.219	-23.55
347.431	-9.22
347.643	-39.94
347.855	25.6
348.067	25.6
348.279	17.41
348.491	-39.94
348.703	-15.36
348.915	3.07
349.127	19.46
349.339	13.31
349.551	7.17
349.763	-3.07
349.975	3.07
350.187	48.13
350.399	-48.13
350.61	23.55
350.822	27.65
351.034	17.41
351.246	19.46
351.458	-27.65
351.669	13.31
351.881	-29.7
352.093	-7.17
352.305	21.5
352.517	17.41
352.728	33.79
352.94	3.07
353.152	-35.84
353.363	-29.7
353.575	-19.46
353.787	-84.99
353.999	11.26
354.21	-3.07
354.422	1.02
354.633	-21.5
354.845	-15.36
355.057	-19.46
355.268	54.27
355.48	-35.84
355.692	25.6
355.903	-23.55
356.115	-37.89
356.326	-17.41
356.538	29.7
356.749	-52.22
356.961	91.13
357.172	66.56
357.384	-66.56
357.595	-52.22
357.807	-25.6
358.018	68.61
358.23	-25.6
358.441	-37.89
358.653	35.84
358.864	-3.07
359.075	-7.17
359.287	52.22
359.498	9.22
359.709	21.5
359.921	-64.51
360.132	-58.37
360.344	33.79
360.555	27.65
360.766	-23.55
360.977	35.84
361.189	-23.55
361.4	1.02
361.611	-5.12
361.823	9.22
362.034	-37.89
362.245	-62.46
362.456	82.94
362.667	11.26
362.879	-84.99
363.09	-7.17
363.301	-39.94
363.512	60.42
363.723	-37.89
363.935	1.02
364.146	-35.84
364.357	3.07
364.568	-3.07
364.779	-70.65
364.99	7.17
365.201	-1.02
365.412	17.41
365.623	-60.42
365.834	39.94
366.045	-3.07
366.256	41.98
366.467	37.89
366.678	-9.22
366.889	3.07
367.1	39.94
367.311	-5.12
367.522	1.02
367.733	9.22
367.944	19.46
368.155	-62.46
368.366	13.31
368.577	-29.7
368.788	68.61
368.999	-11.26
369.209	3.07
369.42	29.7
369.631	1.02
369.842	37.89
370.053	44.03
370.264	-11.26
370.474	7.17
370.685	-7.17
370.896	-17.41
371.107	-19.46
371.317	11.26
371.528	-68.61
371.739	-31.74
371.95	-82.94
372.16	-1.02
372.371	-7.17
372.582	48.13
372.792	39.94
373.003	5.12
373.214	5.12
373.424	15.36
373.635	29.7
373.846	-27.65
374.056	-39.94
374.267	-27.65
374.477	-5.12
374.688	-21.5
374.898	-23.55
375.109	25.6
375.319	58.37
375.53	-29.7
375.74	35.84
375.951	-11.26
376.161	3.07
376.372	50.18
376.582	41.98
376.793	-19.46
377.003	7.17
377.214	33.79
377.424	35.84
377.635	27.65
377.845	-89.09
378.055	7.17
378.266	-29.7
378.476	9.22
378.686	-56.32
378.897	23.55
379.107	-5.12
379.317	-5.12
379.528	-17.41
379.738	1.02
379.948	-76.8
380.158	-27.65
380.369	-3.07
380.579	72.7
380.789	-15.36
380.999	9.22
381.21	-25.6
381.42	48.13
381.63	-54.27
381.84	-13.31
382.05	17.41
382.261	52.22
382.471	60.42
382.681	27.65
382.891	50.18
383.101	58.37
383.311	33.79
383.521	41.98
383.731	-9.22
383.941	21.5
384.151	-11.26
384.361	1.02
384.571	115.71
384.781	-29.7
384.991	-23.55
385.201	25.6
385.411	-17.41
385.621	58.37
385.831	-29.7
386.041	-3.07
386.251	19.46
386.461	1.02
386.671	52.22
386.881	46.08
387.091	-15.36
387.301	48.13
387.511	-7.17
387.72	66.56
387.93	11.26
388.14	37.89
388.35	-15.36
388.56	-5.12
388.769	37.89
388.979	-60.42
389.189	5.12
389.399	37.89
389.609	-15.36
389.818	1.02
390.028	25.6
390.238	41.98
390.447	76.8
390.657	-25.6
390.867	-13.31
391.076	50.18
391.286	-7.17
391.496	25.6
391.705	-27.65
391.915	84.99
392.125	44.03
392.334	3.07
392.544	52.22
392.753	1.02
392.963	-3.07
393.172	109.57
393.382	-44.03
393.591	60.42
393.801	132.09
394.01	35.84
394.22	62.46
394.429	-17.41
394.639	15.36
394.848	11.26
395.058	62.46
395.267	56.32
395.477	52.22
395.686	27.65
395.895	89.09
396.105	68.61
396.314	93.18
396.524	-13.31
396.733	-35.84
396.942	5.12
397.152	-39.94
397.361	-46.08
397.57	46.08
397.78	76.8
397.989	3.07
398.198	93.18
398.407	21.5
398.617	99.33
398.826	11.26
399.035	19.46
399.244	21.5
399.453	105.47
399.663	76.8
399.872	44.03
400.081	5.12
400.29	54.27
400.499	132.09
400.708	91.13
400.917	21.5
401.127	66.56
401.336	27.65
401.545	103.42
401.754	60.42
401.963	60.42
402.172	-15.36
402.381	23.55
402.59	44.03
402.799	-39.94
403.008	52.22
403.217	31.74
403.426	93.18
403.635	25.6
403.844	187.39
404.053	50.18
404.262	62.46
404.471	111.61
404.68	70.65
404.888	101.37
405.097	64.51
405.306	58.37
405.515	95.23
405.724	109.57
405.933	74.75
406.142	111.61
406.35	93.18
406.559	56.32
406.768	93.18
406.977	78.85
407.185	107.52
407.394	128
407.603	115.71
407.812	87.04
408.02	121.85
408.229	78.85
408.438	107.52
408.646	117.76
408.855	134.14
409.064	103.42
409.272	91.13
409.481	197.63
409.69	144.38
409.898	117.76
410.107	142.33
410.315	199.68
410.524	150.53
410.733	203.77
410.941	171.01
411.15	199.68
411.358	195.58
411.567	252.92
411.775	216.06
411.984	224.25
412.192	209.92
412.401	230.4
412.609	254.97
412.818	281.6
413.026	232.44
413.234	218.11
413.443	254.97
413.651	240.64
413.86	328.7
414.068	351.23
414.276	318.46
414.485	275.45
414.693	295.93
414.901	345.08
415.11	379.9
415.318	353.27
415.526	394.23
415.734	357.37
415.943	418.81
416.151	506.87
416.359	484.34
416.567	480.25
416.776	455.67
416.984	586.74
417.192	590.84
417.4	541.69
417.608	517.11
417.817	558.07
418.025	625.65
418.233	662.52
418.441	670.71
418.649	672.76
418.857	695.29
419.065	629.75
419.273	728.05
419.481	730.1
419.689	865.27
419.897	838.64
420.105	844.79
420.313	830.45
420.521	877.55
420.729	922.61
420.937	918.51
421.145	984.05
421.353	1119.21
421.561	1094.64
421.769	994.29
421.977	1201.13
422.185	1162.22
422.393	1240.05
422.601	1326.06
422.809	1268.72
423.017	1303.53
423.224	1479.66
423.432	1375.21
423.64	1389.55
423.848	1571.82
424.056	1463.27
424.263	1580.01
424.471	1616.87
424.679	1608.68
424.887	1524.71
425.094	1776.61
425.302	1795.04
425.51	1838.05
425.718	1938.4
425.925	1899.49
426.133	1926.11
426.341	2055.14
426.548	2221.02
426.756	2153.44
426.964	2241.5
427.171	2331.61
427.379	2464.73
427.586	2503.64
427.794	2638.81
428.001	2685.91
428.209	2753.49
428.417	2724.82
428.624	2874.32
428.832	2782.17
429.039	2950.1
429.247	2884.56
429.454	3242.96
429.662	3421.13
429.869	3173.33
430.076	3441.61
430.284	3212.24
430.491	3480.52
430.699	3496.91
430.906	3576.78
431.114	3638.22
431.321	3771.33
431.528	3890.12
431.736	4105.15
431.943	4361.15
432.15	4295.61
432.358	4355.01
432.565	4447.16
432.772	4451.26
432.979	4795.32
433.187	4789.17
433.394	4856.76
433.601	5153.71
433.808	5219.25
434.016	5139.38
434.223	5356.46
434.43	5821.35
434.637	5563.31
434.844	5862.31
435.052	6110.11
435.259	6132.64
435.466	5997.48
435.673	6005.67
435.88	6421.41
436.087	6736.79
436.294	6753.18
436.501	6693.79
436.708	6753.18
436.915	6902.68
437.122	7183.25
437.329	7232.4
437.537	7330.7
437.743	7713.67
437.95	7463.82
438.157	7875.46
438.364	8407.94
438.571	8412.03
438.778	8276.87
438.985	9005.94
439.192	8797.05
439.399	8924.02
439.606	8905.59
439.813	9134.96
440.02	9827.18
440.227	9855.85
440.433	9444.21
440.64	9790.31
440.847	9728.88
441.054	10255.2
441.261	10802.01
441.467	10611.55
441.674	10910.55
441.881	11352.91
442.088	11289.43
442.294	11377.49
442.501	11305.81
442.708	11803.47
442.914	12145.48
443.121	12833.6
443.328	12376.9
443.534	13058.87
443.741	12798.78
443.948	13038.39
444.154	13681.46
444.361	13513.52
444.568	13691.7
444.774	13634.35
444.981	13947.69
445.187	14381.86
445.394	14856.99
445.6	14666.53
445.807	15971.08
446.013	15665.94
446.22	15631.12
446.426	16536.32
446.633	16550.66
446.839	16980.73
447.046	16347.91
447.252	17429.24
447.459	17289.98
447.665	17171.19
447.871	18111.21
448.078	19090.14
448.284	17965.81
448.491	18750.18
448.697	19305.18
448.903	19782.35
449.11	19821.27
449.316	19327.71
449.522	19671.76
449.728	20116.17
449.935	20275.91
450.141	20306.63
450.347	20775.62
450.553	20316.87
450.76	20439.75
450.966	21310.14
451.172	20755.14
451.378	21611.19
451.584	21111.49
451.791	21641.91
451.997	21516.98
452.203	22241.96
452.409	21891.76
452.615	21809.84
452.821	21201.6
453.027	20853.44
453.233	22125.23
453.44	21054.14
453.646	21672.63
453.852	21893.81
454.058	22192.81
454.264	21154.49
454.47	21410.49
454.676	20980.42
454.882	21938.87
455.088	20026.06
455.294	20449.99
455.5	20777.67
455.705	20931.26
455.911	20185.8
456.117	19770.07
456.323	19587.8
456.529	18604.77
456.735	19213.02
456.941	18696.93
457.147	18510.57
457.352	17930.99
457.558	17844.98
457.764	17769.2
457.97	17310.46
458.176	17111.8
458.381	17097.47
458.587	16028.43
458.793	16417.54
458.999	15436.56
459.204	16505.6
459.41	15977.23
459.616	15035.16
459.821	14850.85
460.027	15000.35
460.233	14381.86
460.438	13978.41
460.644	14256.93
460.85	13296.44
461.055	13165.37
461.261	13218.61
461.466	12008.26
461.672	11826
461.878	12821.31
462.083	11807.56
462.289	11752.27
462.494	11430.74
462.7	11191.13
462.905	10711.9
463.111	11150.17
463.316	11152.21
463.522	10951.51
463.727	10898.27
463.932	10822.49
464.138	10769.24
464.343	10685.28
464.549	10492.77
464.754	10812.25
464.959	10754.91
465.165	10713.95
465.37	10171.24
465.575	9943.91
465.781	10302.31
465.986	10384.23
466.191	9972.58
466.397	9837.42
466.602	9364.34
466.807	9726.83
467.012	9841.51
467.218	9628.53
467.423	9636.72
467.628	9745.26
467.833	10017.64
468.038	9634.67
468.244	9397.1
468.449	9757.55
468.654	9376.62
468.859	9261.94
469.064	9458.54
469.269	8985.46
469.474	8997.75
469.679	9036.66
469.885	8872.82
470.09	9130.87
470.295	9173.88
470.5	8948.6
470.705	8655.74
470.91	8749.95
471.115	8491.9
471.32	8784.76
471.525	8629.12
471.73	8442.75
471.935	8639.36
472.139	8135.56
472.344	8317.83
472.549	8076.16
472.754	8133.51
472.959	7887.75
473.164	7992.2
473.369	7678.86
473.574	7863.18
473.778	7752.59
473.983	7738.25
474.188	7734.15
474.393	7433.1
474.598	7512.97
474.802	7402.38
475.007	7410.57
475.212	7484.3
475.417	7168.91
475.621	7218.07
475.826	7078.8
476.031	6906.77
476.235	6822.81
476.44	6921.11
476.645	6843.29
476.849	6738.84
477.054	6831
477.259	6677.4
477.463	6849.43
477.668	6544.28
477.872	6656.92
478.077	6384.54
478.282	6269.86
478.486	6216.61
478.691	6288.29
478.895	6200.23
479.1	6230.94
479.304	6204.32
479.509	6095.78
479.713	6130.59
479.918	5954.47
480.122	5974.95
480.326	5942.18
480.531	5819.3
480.735	5919.65
480.94	5895.08
481.144	6081.44
481.348	5780.39
481.553	5864.36
481.757	5802.92
481.961	5688.23
482.166	5807.02
482.37	5870.5
482.574	5677.99
482.778	5604.27
482.983	5682.09
483.187	5677.99
483.391	5788.58
483.595	5790.63
483.8	5870.5
484.004	5886.89
484.208	5710.76
484.412	5749.67
484.616	5589.93
484.821	5954.47
485.025	5682.09
485.229	5907.37
485.433	5647.27
485.637	5770.15
485.841	5489.58
486.045	5692.33
486.249	5751.72
486.453	5686.19
486.657	5794.73
486.861	5815.21
487.065	5620.65
487.269	5915.56
487.473	5491.63
487.677	5872.55
487.881	5839.78
488.085	5862.31
488.289	5817.26
488.493	5628.84
488.697	5667.75
488.901	5759.91
489.105	5712.81
489.309	5888.93
489.512	5794.73
489.716	5770.15
489.92	5798.82
490.124	5927.85
490.328	5964.71
490.531	5776.3
490.735	5981.09
490.939	5878.69
491.143	5950.37
491.346	5931.94
491.55	5942.18
491.754	6015.91
491.958	6187.94
492.161	6091.68
492.365	6198.18
492.569	6038.44
492.772	6130.59
492.976	6296.48
493.18	6251.42
493.383	6312.86
493.587	6425.5
493.79	6402.97
493.994	6339.49
494.197	6316.96
494.401	6505.37
494.605	6474.65
494.808	6669.21
495.012	6505.37
495.215	6728.6
495.419	6826.9
495.622	6718.36
495.825	6753.18
496.029	6787.99
496.232	6953.88
496.436	6953.88
496.639	7084.95
496.843	7037.84
497.046	7158.67
497.249	7351.18
497.453	7173.01
497.656	7459.73
497.859	7482.25
498.063	7637.9
498.266	7633.8
498.469	7695.24
498.673	7875.46
498.876	7854.98
499.079	8070.02
499.282	7979.91
499.485	8213.38
499.689	8242.05
499.892	8352.64
500.095	8401.79
500.298	8502.14
500.501	8405.89
500.705	8729.47
500.908	8909.69
501.111	8924.02
501.314	9003.89
501.517	9157.49
501.72	9173.88
501.923	9194.36
502.126	9513.84
502.329	9544.56
502.532	9603.95
502.735	9925.48
502.938	9948.01
503.141	9978.73
503.344	10113.89
503.547	10117.99
503.75	10380.13
503.953	10779.48
504.156	10855.26
504.359	10867.55
504.562	10711.9
504.765	10863.45
504.968	11244.37
505.17	11363.15
505.373	11346.77
505.576	11660.11
505.779	11733.84
505.982	11858.76
506.185	12059.46
506.387	12139.33
506.59	12102.47
506.793	12329.8
506.996	12647.23
507.198	12903.23
507.401	12862.27
507.604	12864.32
507.807	13210.42
508.009	13280.05
508.212	13396.79
508.415	13787.95
508.617	13876.01
508.82	13996.84
509.022	13898.54
509.225	14086.95
509.428	14261.03
509.63	14545.7
509.833	14580.51
510.035	15018.78
510.238	14934.81
510.44	15485.72
510.643	15330.07
510.845	15876.88
511.048	15575.83
511.25	15934.22
511.453	15915.79
511.655	16634.63
511.858	16116.49
512.06	16612.1
512.262	17132.28
512.465	16696.07
512.667	17226.49
512.87	17316.6
513.072	17550.07
513.274	17572.6
513.477	17959.66
513.679	18084.59
513.881	18295.53
514.084	18537.19
514.286	18391.78
514.488	18682.59
514.69	19253.98
514.893	19157.72
515.095	19227.35
515.297	19509.97
515.499	19731.15
515.701	19776.21
515.904	20421.32
516.106	20316.87
516.308	20511.43
516.51	20912.83
516.712	20781.76
516.914	21306.04
517.116	21426.87
517.318	21467.83
517.52	21787.32
517.722	21539.51
517.925	21914.29
518.127	22178.48
518.329	22635.17
518.531	22524.58
518.733	22815.4
518.935	23055.01
519.136	22762.15
519.338	23671.45
519.54	23364.25
519.742	24068.75
519.944	24208.01
520.146	24380.04
520.348	24466.06
520.55	24781.45
520.752	24912.52
520.954	25641.59
521.155	25291.39
521.357	25690.74
521.559	25784.95
521.761	26282.61
521.963	26344.05
522.164	26172.02
522.366	26360.43
522.568	26921.57
522.77	27030.12
522.971	27155.04
523.173	27279.97
523.375	27812.44
523.576	27497.05
523.778	27585.12
523.98	28207.7
524.181	27703.9
524.383	28238.42
524.584	28500.56
524.786	28723.79
524.988	28287.57
525.189	29094.47
525.391	28832.33
525.592	29280.83
525.794	29416
525.995	29370.94
526.197	29540.93
526.398	29872.7
526.6	29770.3
526.801	29917.75
527.003	29911.61
527.204	30132.79
527.406	30470.7
527.607	30384.69
527.808	30265.91
528.01	30405.17
528.211	30575.15
528.412	31203.88
528.614	31085.09
528.815	30847.53
529.016	31423.01
529.218	31021.61
529.419	31007.27
529.62	31466.02
529.822	31265.31
530.023	31474.21
530.224	31496.74
530.425	31416.86
530.626	31171.11
530.828	31476.26
531.029	32182.8
531.23	31500.83
531.431	31642.14
531.632	31670.81
531.833	32131.61
532.035	32064.02
532.236	32090.65
532.437	32195.09
532.638	31822.36
532.839	32092.69
533.04	32055.83
533.241	32014.87
533.442	32872.97
533.643	32227.86
533.844	32391.7
534.045	32350.74
534.246	32076.31
534.447	32446.99
534.648	32231.96
534.849	32604.69
535.05	32150.04
535.251	32483.86
535.451	32502.29
535.652	32608.78
535.853	32643.6
536.054	32375.31
536.255	32420.37
536.456	32449.04
536.657	32614.93
536.857	32705.04
537.058	32358.93
537.259	32934.41
537.46	32541.2
537.66	32414.23
537.861	32922.12
538.062	32264.72
538.263	32719.37
538.463	32229.91
538.664	32440.85
538.865	32573.97
539.065	32666.13
539.266	32277.01
539.466	32598.54
539.667	32066.07
539.868	32707.08
540.068	32422.42
540.269	32414.23
540.469	32541.2
540.67	32676.37
540.87	32834.06
541.071	32412.18
541.271	32573.97
541.472	32346.64
541.672	32369.17
541.873	32406.03
542.073	32127.51
542.274	32533.01
542.474	32061.97
542.675	31963.67
542.875	32881.16
543.075	32473.62
543.276	32002.58
543.476	32715.28
543.676	31943.19
543.877	32440.85
544.077	32477.71
544.277	32508.43
544.478	32293.4
544.678	32551.44
544.878	32490
545.078	32465.42
545.279	32352.79
545.479	32076.31
545.679	32387.6
545.879	32424.47
546.079	32070.17
546.28	32440.85
546.48	32174.61
546.68	32506.38
546.88	32379.41
547.08	32360.98
547.28	32068.12
547.48	32121.37
547.68	32363.03
547.88	31896.09
548.081	32434.71
548.281	32195.09
548.481	31973.91
548.681	32426.51
548.881	32403.99
549.081	32338.45
549.28	31885.85
549.48	32731.66
549.68	32272.92
549.88	32567.82
550.08	32129.56
550.28	32526.86
550.48	32215.57
550.68	32494.1
550.88	32465.42
551.08	31992.34
551.279	32086.55
551.479	32090.65
551.679	32125.46
551.879	32135.7
552.079	32250.39
552.278	32326.16
552.478	31789.59
552.678	31754.78
552.878	32166.42
553.077	32365.07
553.277	32115.22
553.477	32129.56
553.676	32244.24
553.876	31822.36
554.076	31765.02
554.275	31939.1
554.475	31476.26
554.674	32041.5
554.874	31855.13
555.074	31752.73
555.273	32021.02
555.473	31996.44
555.672	31738.4
555.872	31449.63
556.071	31869.47
556.271	31879.71
556.47	31648.29
556.67	31443.49
556.869	31334.95
557.068	31810.07
557.268	31523.36
557.467	31554.08
557.667	31726.11
557.866	31574.56
558.065	31437.34
558.265	31472.16
558.464	31312.42
558.663	31781.4
558.863	31124.01
559.062	31636
559.261	31322.66
559.461	31371.81
559.66	31046.18
559.859	31371.81
560.058	30956.07
560.258	31365.67
560.457	31138.34
560.656	31076.9
560.855	30806.57
561.054	31040.04
561.253	30528.05
561.453	30880.3
561.652	30927.4
561.851	31281.7
562.05	30591.53
562.249	30388.78
562.448	30634.54
562.647	30716.46
562.846	30261.81
563.045	30270
563.244	30427.7
563.443	30603.82
563.642	30202.42
563.841	30157.36
564.04	30356.02
564.239	30487.09
564.438	30249.52
564.637	30077.49
564.836	30179.89
565.035	29641.28
565.234	30077.49
565.432	29762.11
565.631	29940.28
565.83	29964.85
566.029	29510.21
566.228	29616.7
566.427	29579.84
566.625	29499.97
566.824	29235.78
567.023	29737.53
567.222	29317.7
567.42	29413.95
567.619	29151.81
567.818	29336.13
568.016	29127.24
568.215	29637.18
568.414	28803.66
568.612	29368.9
568.811	29104.71
569.01	28926.53
569.208	28680.78
569.407	28938.82
569.605	28701.26
569.804	28914.25
570.002	28705.35
570.201	28707.4
570.4	28258.9
570.598	28037.72
570.797	27877.97
570.995	28230.23
571.193	27859.54
571.392	28256.85
571.59	28148.31
571.789	27847.26
571.987	27894.36
572.186	27867.73
572.384	27851.35
572.582	27654.75
572.781	27996.76
572.979	27249.25
573.177	27378.27
573.376	27544.16
573.574	27427.42
573.772	27456.09
573.971	27202.14
574.169	27118.18
574.367	26911.33
574.565	27310.69
574.763	26964.58
574.962	27062.88
575.16	26430.06
575.358	27058.79
575.556	26317.42
575.754	26792.55
575.952	26405.49
576.151	26382.96
576.349	26466.92
576.547	26288.75
576.745	26290.8
576.943	26530.41
577.141	26057.33
577.339	26079.86
577.537	25834.1
577.735	25840.25
577.933	26071.67
578.131	26131.06
578.329	25621.11
578.527	25664.12
578.725	25584.25
578.923	25725.56
579.121	25395.84
579.319	25485.95
579.516	25379.45
579.714	25285.25
579.912	25647.74
580.11	25348.73
580.308	24892.04
580.506	24933
580.704	24760.97
580.901	24939.14
581.099	25186.94
581.297	24699.53
581.495	24640.14
581.692	24967.81
581.89	24480.39
582.088	24822.41
582.285	24713.86
582.483	24537.74
582.681	24218.25
582.878	24461.96
583.076	24132.24
583.274	24554.12
583.471	23952.02
583.669	24031.89
583.866	24060.56
584.064	23962.26
584.262	23722.65
584.459	24076.94
584.657	23429.79
584.854	23622.3
585.052	23421.59
585.249	23607.96
585.447	23644.82
585.644	23067.3
585.841	23272.09
586.039	23794.32
586.236	22876.83
586.434	23128.74
586.631	22741.67
586.828	23095.97
587.026	23093.92
587.223	23057.06
587.42	22950.56
587.618	22741.67
587.815	22250.16
588.012	22780.58
588.21	22805.16
588.407	22760.1
588.604	22270.64
588.801	22155.95
588.999	22422.19
589.196	22385.32
589.393	22342.32
589.59	22158
589.787	22307.5
589.984	21758.64
590.182	21723.83
590.379	21863.09
590.576	21945.01
590.773	21709.49
590.97	21504.7
591.167	21756.6
591.364	21324.47
591.561	21527.22
591.758	21236.41
591.955	21146.3
592.152	21269.18
592.349	20984.51
592.546	21197.5
592.743	20972.22
592.94	20982.46
593.137	20961.98
593.334	21365.43
593.531	20685.51
593.727	20951.74
593.924	20845.25
594.121	20456.14
594.318	20880.07
594.515	20411.08
594.712	20511.43
594.908	20617.93
595.105	20603.59
595.302	20411.08
595.499	20280.01
595.696	20103.89
595.892	20228.81
596.089	20112.08
596.286	20269.77
596.482	20140.75
596.679	20134.6
596.876	19829.46
597.072	19894.99
597.269	19911.38
597.466	19473.11
597.662	19559.13
597.859	19604.18
598.055	19604.18
598.252	19501.78
598.448	19333.85
598.645	19614.42
598.841	19309.27
599.038	19391.19
599.234	19024.61
599.431	19131.1
599.627	19129.05
599.824	19153.63
600.02	18723.55
600.217	18979.55
600.413	18948.83
600.609	18680.55
600.806	18617.06
601.002	18762.47
601.198	18608.87
601.395	18637.54
601.591	18639.59
601.787	18694.88
601.984	18422.5
602.18	18547.43
602.376	18348.78
602.572	18029.29
602.769	18379.5
602.965	17869.55
603.161	18350.82
603.357	17814.26
603.553	18096.88
603.75	18141.93
603.946	17668.85
604.142	18004.72
604.338	17703.67
604.534	17816.3
604.73	17605.36
604.926	17736.43
605.122	17822.45
605.318	17322.74
605.514	17556.21
605.71	17236.73
605.906	17558.26
606.102	17224.44
606.298	17443.57
606.494	17115.9
606.69	17408.76
606.886	17294.07
607.082	17023.74
607.278	16997.12
607.474	17085.18
607.67	17017.6
607.866	16630.53
608.062	16777.98
608.257	16915.2
608.453	17003.26
608.649	16880.38
608.845	16755.46
609.041	16487.17
609.236	16698.11
609.432	16620.29
609.628	16505.6
609.824	16419.59
610.019	16489.22
610.215	16358.15
610.411	16575.24
610.606	16421.64
610.802	16089.87
610.998	16431.88
611.193	16296.71
611.389	16263.94
611.584	16116.49
611.78	16055.05
611.976	16098.06
612.171	15962.89
612.367	15803.15
612.562	16010
612.758	15776.53
612.953	15577.87
613.149	15840.01
613.344	15850.25
613.539	15938.32
613.735	15995.66
613.93	16007.95
614.126	15647.51
614.321	15840.01
614.517	15708.94
614.712	15672.08
614.907	15518.48
615.103	15688.46
615.298	15455
615.493	15911.69
615.688	15590.16
615.884	15502.1
616.079	15356.69
616.274	15467.28
616.47	15252.25
616.665	15452.95
616.86	15348.5
617.055	15201.05
617.25	15434.52
617.445	15403.8
617.641	15026.97
617.836	14875.42
618.031	14895.9
618.226	14938.91
618.421	14553.89
618.616	14877.47
618.811	14727.97
619.006	14766.88
619.201	14476.07
619.396	14738.21
619.591	14844.7
619.786	14746.4
619.981	14316.33
620.176	14727.97
620.371	14279.46
620.566	14127.91
620.761	14041.9
620.956	14338.85
621.151	13951.79
621.346	14166.82
621.541	13847.34
621.735	14078.76
621.93	13484.85
622.125	13835.05
622.32	13732.65
622.515	13560.63
622.709	13267.77
622.904	13544.24
623.099	13318.96
623.294	13278.01
623.488	13208.37
623.683	13245.24
623.878	13007.67
624.072	13050.68
624.267	13247.29
624.462	12940.09
624.656	12888.89
624.851	12835.64
625.046	12776.25
625.24	12671.81
625.435	12708.67
625.629	12714.81
625.824	12776.25
626.018	12516.16
626.213	12143.43
626.407	12358.47
626.602	12122.95
626.796	12299.08
626.991	12208.97
627.185	12186.44
627.38	11905.87
627.574	11881.29
627.768	11846.48
627.963	11739.98
628.157	11653.97
628.352	11727.69
628.546	11477.84
628.74	11850.57
628.935	11631.44
629.129	11727.69
629.323	11332.44
629.517	11227.99
629.712	11318.1
629.906	11375.44
630.1	11170.65
630.294	11283.28
630.489	11107.16
630.683	10795.87
630.877	10666.85
631.071	10765.15
631.265	10945.37
631.459	10660.7
631.653	10595.17
631.848	10548.06
632.042	10675.04
632.236	10556.25
632.43	10292.07
632.624	10429.28
632.818	10316.64
633.012	10259.3
633.206	10052.45
633.4	10355.55
633.594	9909.1
633.788	10173.28
633.982	10097.51
634.176	10068.84
634.369	9812.84
634.563	9915.24
634.757	9880.43
634.951	9763.69
635.145	9775.98
635.339	9853.8
635.533	9634.67
635.726	9646.96
635.92	9649
636.114	9460.59
636.308	9399.15
636.501	9495.41
636.695	9569.13
636.889	9259.89
637.083	9114.48
637.276	9153.4
637.47	9276.27
637.664	8987.51
637.857	9077.62
638.051	9104.25
638.244	8887.16
638.438	8838.01
638.632	8678.27
638.825	8784.76
639.019	8733.56
639.212	8612.73
639.406	8754.04
639.599	8682.36
639.793	8782.71
639.986	8438.66
640.18	8481.66
640.373	8323.97
640.567	8340.35
640.76	8330.11
640.954	8166.28
641.147	8207.23
641.34	8242.05
641.534	8004.49
641.727	8240
641.92	8051.59
642.114	8074.12
642.307	7930.76
642.5	7719.82
642.694	7795.59
642.887	7859.08
643.08	7789.45
643.273	7588.75
643.467	7621.52
643.66	7613.32
643.853	7594.89
644.046	7525.26
644.239	7474.06
644.432	7455.63
644.626	7379.86
644.819	7334.8
645.012	7281.55
645.205	7285.65
645.398	7279.5
645.591	7144.34
645.784	7072.66
645.977	7054.23
646.17	6886.29
646.363	6886.29
646.556	6976.41
646.749	7058.32
646.942	6990.74
647.135	6818.71
647.328	6837.14
647.521	6738.84
647.714	6693.79
647.907	6507.42
648.099	6599.58
648.292	6742.94
648.485	6517.66
648.678	6579.1
648.871	6386.59
649.064	6562.72
649.256	6421.41
649.449	6359.97
649.642	6423.45
649.835	6273.95
650.027	6407.07
650.22	6206.37
650.413	6159.27
650.605	6136.74
650.798	6058.92
650.991	6093.73
651.183	6101.92
651.376	6108.07
651.568	5979.04
651.761	5890.98
651.954	5923.75
652.146	6024.1
652.339	5890.98
652.531	5948.33
652.724	5786.54
652.916	5686.19
653.109	5737.38
653.301	5792.68
653.494	5655.47
653.686	5764.01
653.879	5651.37
654.071	5655.47
654.263	5540.78
654.456	5508.01
654.648	5626.79
654.84	5528.49
655.033	5477.29
655.225	5479.34
655.417	5364.65
655.61	5514.16
655.802	5374.89
655.994	5317.55
656.186	5331.89
656.379	5106.61
656.571	5161.91
656.763	5145.52
656.955	5213.1
657.148	5284.78
657.34	5075.89
657.532	5067.7
657.724	5014.45
657.916	5055.41
658.108	5082.03
658.3	4910.01
658.492	5174.19
658.684	4957.11
658.876	4873.14
659.068	4973.49
659.26	4823.99
659.452	5006.26
659.644	4850.61
659.836	4840.37
660.028	4651.96
660.22	4654.01
660.412	4731.83
660.604	4717.5
660.796	4621.24
660.988	4553.66
661.18	4563.9
661.372	4494.27
661.563	4516.8
661.755	4506.56
661.947	4531.13
662.139	4346.81
662.331	4391.87
662.522	4240.32
662.714	4348.86
662.906	4361.15
663.097	4330.43
663.289	4318.14
663.481	4230.08
663.673	4211.65
663.864	4234.18
664.056	4000.71
664.247	3982.28
664.439	4121.54
664.631	4236.22
664.822	4139.97
665.014	4152.26
665.205	4070.34
665.397	4004.8
665.588	4025.28
665.78	4025.28
665.971	3857.35
666.163	3945.41
666.354	3998.66
666.546	3802.05
666.737	3886.02
666.929	3931.08
667.12	3814.34
667.311	3879.88
667.503	3806.15
667.694	3951.56
667.885	3726.28
668.077	3750.85
668.268	3681.22
668.459	3703.75
668.651	3662.79
668.842	3568.59
669.033	3666.89
669.224	3687.37
669.416	3640.26
669.607	3617.74
669.798	3556.3
669.989	3501
670.18	3517.39
670.371	3449.8
670.563	3433.42
670.754	3482.57
670.945	3392.46
671.136	3548.11
671.327	3501
671.518	3433.42
671.709	3384.27
671.9	3451.85
672.091	3376.08
672.282	3298.25
672.473	3093.46
672.664	3404.75
672.855	3142.61
673.046	3259.34
673.237	3326.93
673.428	3312.59
673.619	3265.49
673.809	3273.68
674	3304.4
674.191	3208.14
674.382	3257.29
674.573	3216.33
674.764	3220.43
674.954	3283.92
675.145	3240.91
675.336	3345.36
675.527	3218.38
675.717	3222.48
675.908	3046.35
676.099	3089.36
676.289	3107.79
676.48	3095.5
676.671	3066.83
676.861	3193.81
677.052	3107.79
677.243	3089.36
677.433	2986.96
677.624	2984.91
677.814	3107.79
678.005	3048.4
678.195	2976.72
678.386	2995.15
678.576	2984.91
678.767	2984.91
678.957	3025.87
679.148	2960.34
679.338	3007.44
679.529	2966.48
679.719	2929.62
679.909	2907.09
680.1	3011.54
680.29	2816.98
680.481	3052.5
680.671	2935.76
680.861	2870.23
681.052	2870.23
681.242	2986.96
681.432	2859.99
681.622	2759.64
681.813	2935.76
682.003	2778.07
682.193	2763.73
682.383	2931.67
682.573	2937.81
682.764	2761.69
682.954	2798.55
683.144	2888.66
683.334	2810.84
683.524	2810.84
683.714	2823.12
683.904	2962.39
684.094	2903
684.284	2769.88
684.474	2874.32
684.664	2778.07
684.854	2819.03
685.044	2647
685.234	2802.65
685.424	2843.6
685.614	2794.45
685.804	2776.02
685.994	2814.93
686.184	2773.97
686.374	2630.62
686.564	2800.6
686.753	2765.78
686.943	2747.35
687.133	2810.84
687.323	2687.96
687.513	2890.71
687.702	2761.69
687.892	2567.13
688.082	2720.73
688.272	2716.63
688.461	2747.35
688.651	2702.29
688.841	2618.33
689.03	2534.36
689.22	2573.27
689.41	2597.85
689.599	2636.76
689.789	2532.31
689.979	2620.38
690.168	2647
690.358	2546.65
690.547	2612.18
690.737	2577.37
690.926	2550.75
691.116	2558.94
691.305	2614.23
691.495	2550.75
691.684	2542.55
691.874	2638.81
692.063	2474.97
692.252	2577.37
692.442	2565.08
692.631	2558.94
692.82	2489.31
693.01	2491.35
693.199	2675.67
693.388	2423.77
693.578	2534.36
693.767	2599.9
693.956	2458.59
694.146	2450.39
694.335	2450.39
694.524	2436.06
694.713	2431.96
694.902	2573.27
695.092	2515.93
695.281	2458.59
695.47	2409.44
695.659	2503.64
695.848	2411.48
696.037	2511.83
696.226	2407.39
696.415	2368.48
696.604	2407.39
696.793	2378.72
696.982	2444.25
697.171	2456.54
697.36	2415.58
697.549	2391
697.738	2388.96
697.927	2331.61
698.116	2300.89
698.305	2358.24
698.494	2474.97
698.683	2337.76
698.872	2485.21
699.061	2272.22
699.25	2495.45
699.438	2448.35
699.627	2286.56
699.816	2362.33
700.005	2370.52
700.193	2288.61
700.382	2335.71
700.571	2343.9
700.76	2288.61
700.948	2233.31
701.137	2272.22
701.326	2395.1
701.514	2225.12
701.703	2237.41
701.892	2372.57
702.08	2278.37
702.269	2321.37
702.457	2270.17
702.646	2323.42
702.834	2233.31
703.023	2364.38
703.212	2255.84
703.4	2278.37
703.589	2280.41
703.777	2139.1
703.965	2192.35
704.154	2210.78
704.342	2253.79
704.531	2182.11
704.719	2313.18
704.907	2241.5
705.096	2245.6
705.284	2153.44
705.472	2243.55
705.661	2171.87
705.849	2143.2
706.037	2126.82
706.226	2065.38
706.414	2149.34
706.602	2151.39
706.79	2184.16
706.979	2014.18
707.167	2147.3
707.355	2175.97
707.543	2122.72
707.731	2239.45
707.919	2042.85
708.107	2206.69
708.296	2098.14
708.484	2108.38
708.672	2167.77
708.86	2018.27
709.048	2016.23
709.236	1999.84
709.424	2094.05
709.612	2057.18
709.8	2122.72
709.988	2026.47
710.176	2143.2
710.364	2155.49
710.551	1944.55
710.739	2022.37
710.927	2028.51
711.115	1913.83
711.303	2028.51
711.491	1930.21
711.679	1934.31
711.866	2081.76
712.054	1975.27
712.242	1956.83
712.43	1969.12
712.617	2061.28
712.805	1958.88
712.993	1897.44
713.181	1934.31
713.368	2018.27
713.556	2008.03
713.744	1842.15
713.931	1973.22
714.119	1981.41
714.306	1999.84
714.494	1860.58
714.682	1881.06
714.869	1911.78
715.057	2053.09
715.244	1995.75
715.432	1883.11
715.619	1905.63
715.807	1848.29
715.994	1815.52
716.182	1815.52
716.369	1858.53
716.556	1901.54
716.744	1786.85
716.931	1776.61
717.119	1838.05
717.306	1809.38
717.493	1879.01
717.681	1889.25
717.868	1756.13
718.055	1848.29
718.242	1821.67
718.43	1815.52
718.617	1819.62
718.804	1795.04
718.991	1903.59
719.179	1711.08
719.366	1731.56
719.553	1817.57
719.74	1672.17
719.927	1848.29
720.114	1749.99
720.301	1809.38
720.488	1711.08
720.676	1737.7
720.863	1637.35
721.05	1749.99
721.237	1725.41
721.424	1733.61
721.611	1700.84
721.798	1762.28
721.985	1782.76
722.172	1623.02
722.358	1680.36
722.545	1649.64
722.732	1680.36
722.919	1692.65
723.106	1663.97
723.293	1596.39
723.48	1612.78
723.667	1577.96
723.853	1678.31
724.04	1670.12
724.227	1661.93
724.414	1682.41
724.6	1600.49
724.787	1614.82
724.974	1594.34
725.161	1639.4
725.347	1629.16
725.534	1594.34
725.72	1668.07
725.907	1692.65
726.094	1614.82
726.28	1606.63
726.467	1565.67
726.653	1586.15
726.84	1528.81
727.027	1586.15
727.213	1590.25
727.4	1551.34
727.586	1561.58
727.773	1600.49
727.959	1496.04
728.145	1633.26
728.332	1532.9
728.518	1518.57
728.705	1559.53
728.891	1541.1
729.077	1559.53
729.264	1485.8
729.45	1647.59
729.636	1539.05
729.823	1584.1
730.009	1549.29
730.195	1459.18
730.382	1510.38
730.568	1590.25
730.754	1504.23
730.94	1641.45
731.126	1442.79
731.313	1551.34
731.499	1575.91
731.685	1549.29
731.871	1479.66
732.057	1471.47
732.243	1393.64
732.429	1479.66
732.615	1412.07
732.801	1518.57
732.987	1498.09
733.173	1422.31
733.359	1575.91
733.545	1399.79
733.731	1471.47
733.917	1491.95
734.103	1522.66
734.289	1401.83
734.475	1446.89
734.661	1410.03
734.847	1467.37
735.033	1399.79
735.219	1377.26
735.404	1526.76
735.59	1426.41
735.776	1428.46
735.962	1397.74
736.148	1412.07
736.333	1444.84
736.519	1383.4
736.705	1369.07
736.89	1459.18
737.076	1397.74
737.262	1387.5
737.447	1477.61
737.633	1403.88
737.819	1465.32
738.004	1352.68
738.19	1358.83
738.375	1403.88
738.561	1438.7
738.747	1432.55
738.932	1412.07
739.118	1385.45
739.303	1326.06
739.489	1442.79
739.674	1326.06
739.859	1319.92
740.045	1477.61
740.23	1336.3
740.416	1338.35
740.601	1395.69
740.786	1403.88
740.972	1360.88
741.157	1248.24
741.342	1321.96
741.528	1297.39
741.713	1295.34
741.898	1274.86
742.084	1336.3
742.269	1278.96
742.454	1334.25
742.639	1350.64
742.824	1332.2
743.01	1270.76
743.195	1381.35
743.38	1209.33
743.565	1207.28
743.75	1117.17
743.935	1274.86
744.12	1199.09
744.305	1172.46
744.49	1203.18
744.675	1172.46
744.86	1242.09
745.045	1258.48
745.23	1188.85
745.415	1197.04
745.6	1209.33
745.785	1242.09
745.97	1227.76
746.155	1201.13
746.34	1108.98
746.525	1186.8
746.71	1303.53
746.895	1139.69
747.079	1176.56
747.264	1139.69
747.449	1164.27
747.634	1092.59
747.819	1133.55
748.003	1063.92
748.188	1115.12
748.373	1108.98
748.557	1119.21
748.742	1197.04
748.927	1117.17
749.111	998.38
749.296	1057.78
749.481	1072.11
749.665	1131.5
749.85	1049.58
750.034	1049.58
750.219	967.67
750.404	910.32
750.588	1008.62
750.773	986.1
750.957	1025.01
751.141	945.14
751.326	1010.67
751.51	1008.62
751.695	906.23
751.879	945.14
752.064	1008.62
752.248	998.38
752.432	988.14
752.617	951.28
752.801	910.32
752.985	955.38
753.17	975.86
753.354	928.75
753.538	787.44
753.722	838.64
753.907	869.36
754.091	869.36
754.275	938.99
754.459	982
754.643	855.03
754.828	879.6
755.012	879.6
755.196	844.79
755.38	895.99
755.564	852.98
755.748	801.78
755.932	836.6
756.116	799.73
756.3	752.63
756.484	861.17
756.668	818.16
756.852	721.91
757.036	857.07
757.22	832.5
757.404	795.64
757.588	812.02
757.772	783.35
757.956	775.16
758.14	799.73
758.323	895.99
758.507	826.36
758.691	766.96
758.875	752.63
759.059	672.76
759.242	734.2
759.426	803.83
759.61	779.25
759.794	754.68
759.977	760.82
760.161	734.2
760.345	738.29
760.528	758.77
760.712	748.53
760.895	719.86
761.079	734.2
761.263	701.43
761.446	691.19
761.63	687.09
761.813	713.72
761.997	656.37
762.18	709.62
762.364	683
762.547	633.85
762.731	605.17
762.914	674.81
763.098	570.36
763.281	609.27
763.464	609.27
763.648	582.65
763.831	668.66
764.015	715.77
764.198	680.95
764.381	666.61
764.564	650.23
764.748	613.37
764.931	711.67
765.114	631.8
765.297	551.93
765.481	584.7
765.664	642.04
765.847	570.36
766.03	627.7
766.213	543.74
766.397	592.89
766.58	568.31
766.763	658.42
766.946	496.63
767.129	625.65
767.312	556.02
767.495	549.88
767.678	646.13
767.861	580.6
768.044	521.21
768.227	531.45
768.41	603.13
768.593	629.75
768.776	574.46
768.959	558.07
769.142	580.6
769.324	560.12
769.507	547.83
769.69	582.65
769.873	566.26
770.056	605.17
770.239	523.26
770.421	578.55
770.604	631.8
770.787	498.68
770.97	525.3
771.152	584.7
771.335	410.62
771.518	613.37
771.7	551.93
771.883	535.54
772.066	543.74
772.248	601.08
772.431	527.35
772.613	510.97
772.796	478.2
772.978	429.05
773.161	486.39
773.343	470.01
773.526	447.48
773.708	545.78
773.891	523.26
774.073	459.77
774.256	402.43
774.438	533.5
774.621	388.09
774.803	543.74
774.985	398.33
775.168	484.34
775.35	490.49
775.532	558.07
775.715	549.88
775.897	424.95
776.079	478.2
776.261	478.2
776.444	375.8
776.626	447.48
776.808	441.34
776.99	388.09
777.173	420.86
777.355	418.81
777.537	420.86
777.719	394.23
777.901	353.27
778.083	447.48
778.265	359.42
778.447	498.68
778.629	429.05
778.811	408.57
778.993	482.3
779.175	412.67
779.357	422.91
779.539	363.51
779.721	271.36
779.903	388.09
780.085	365.56
780.267	291.84
780.449	316.41
780.631	396.28
780.812	359.42
780.994	353.27
781.176	308.22
781.358	351.23
781.54	394.23
781.721	371.71
781.903	402.43
782.085	324.6
782.267	353.27
782.448	271.36
782.63	295.93
782.812	240.64
782.993	228.35
783.175	365.56
783.357	273.4
783.538	308.22
783.72	281.6
783.901	351.23
784.083	379.9
784.264	259.07
784.446	216.06
784.627	295.93
784.809	283.64
784.99	248.83
785.172	308.22
785.353	259.07
785.535	263.16
785.716	281.6
785.897	306.17
786.079	257.02
786.26	277.5
786.441	340.99
786.623	304.12
786.804	252.92
786.985	222.2
787.167	259.07
787.348	234.49
787.529	254.97
787.71	197.63
787.891	199.68
788.073	293.88
788.254	246.78
788.435	291.84
788.616	285.69
788.797	232.44
788.978	226.3
789.159	263.16
789.34	246.78
789.522	250.88
789.703	195.58
789.884	304.12
790.065	201.72
790.246	168.96
790.427	207.87
790.607	191.49
790.788	244.73
790.969	214.01
791.15	201.72
791.331	232.44
791.512	218.11
791.693	207.87
791.874	234.49
792.054	281.6
792.235	297.98
792.416	175.1
792.597	177.15
792.778	222.2
792.958	222.2
793.139	138.24
793.32	222.2
793.5	171.01
793.681	271.36
793.862	230.4
794.042	199.68
794.223	154.62
794.404	158.72
794.584	195.58
794.765	115.71
794.945	232.44
795.126	248.83
795.306	154.62
795.487	113.66
795.667	130.05
795.848	179.2
796.028	187.39
796.209	181.25
796.389	132.09
796.57	160.77
796.75	119.81
796.93	123.9
797.111	140.29
797.291	175.1
797.471	160.77
797.652	136.19
797.832	103.42
798.012	185.34
798.192	162.81
798.373	111.61
798.553	150.53
798.733	123.9
798.913	164.86
799.093	121.85
799.274	189.44
799.454	171.01
799.634	74.75
799.814	168.96
799.994	144.38
800.174	183.29
800.354	136.19
800.534	66.56
800.714	70.65
800.894	132.09
801.074	156.67
801.254	166.91
801.434	130.05
801.614	123.9
801.794	125.95
801.974	338.94
802.154	109.57
802.334	148.48
802.514	177.15
802.693	152.57
802.873	97.28
803.053	82.94
803.233	95.23
803.413	201.72
803.592	154.62
803.772	74.75
803.952	80.89
804.131	91.13
804.311	142.33
804.491	89.09
804.67	68.61
804.85	62.46
805.03	35.84
805.209	123.9
805.389	99.33
805.568	148.48
805.748	111.61
805.928	150.53
806.107	132.09
806.287	160.77
806.466	91.13
806.646	60.42
806.825	158.72
807.004	44.03
807.184	148.48
807.363	95.23
807.543	58.37
807.722	134.14
807.901	113.66
808.081	166.91
808.26	7.17
808.439	99.33
808.619	68.61
808.798	76.8
808.977	123.9
809.156	115.71
809.336	173.05
809.515	115.71
809.694	9.22
809.873	119.81
810.052	115.71
810.231	33.79
810.411	105.47
810.59	68.61
810.769	9.22
810.948	136.19
811.127	109.57
811.306	66.56
811.485	70.65
811.664	17.41
811.843	29.7
812.022	74.75
812.201	80.89
812.38	62.46
812.559	99.33
812.737	111.61
812.916	41.98
813.095	33.79
813.274	87.04
813.453	160.77
813.632	58.37
813.811	35.84
813.989	21.5
814.168	44.03
814.347	58.37
814.526	48.13
814.704	76.8
814.883	29.7
815.062	41.98
815.24	41.98
815.419	33.79
815.598	66.56
815.776	74.75
815.955	84.99
816.133	29.7
816.312	76.8
816.49	115.71
816.669	64.51
816.847	128
817.026	78.85
817.204	84.99
817.383	48.13
817.561	146.43
817.74	64.51
817.918	134.14
818.097	31.74
818.275	91.13
818.453	62.46
818.632	121.85
818.81	111.61
818.988	66.56
819.167	11.26
819.345	82.94
819.523	144.38
819.701	17.41
819.879	31.74
820.058	23.55
820.236	25.6
820.414	27.65
820.592	89.09
820.77	58.37
820.948	19.46
821.127	37.89
821.305	54.27
821.483	-31.74
821.661	109.57
821.839	74.75
822.017	33.79
822.195	56.32
822.373	58.37
822.551	54.27
822.729	70.65
822.907	-23.55
823.085	93.18
823.262	31.74
823.44	33.79
823.618	62.46
823.796	27.65
823.974	-13.31
824.152	-39.94
824.329	35.84
824.507	62.46
824.685	52.22
824.863	41.98
825.04	11.26
825.218	115.71
825.396	25.6
825.574	62.46
825.751	72.7
825.929	46.08
826.107	-19.46
826.284	105.47
826.462	50.18
826.639	93.18
826.817	58.37
826.994	-3.07
827.172	54.27
827.349	154.62
827.527	44.03
827.704	62.46
827.882	27.65
828.059	-5.12
828.237	56.32
828.414	3.07
828.591	66.56
828.769	19.46
828.946	-31.74
829.124	35.84
829.301	9.22
829.478	97.28
829.655	-48.13
829.833	-3.07
830.01	9.22
830.187	31.74
830.364	80.89
830.542	-21.5
830.719	31.74
830.896	58.37
831.073	58.37
831.25	48.13
831.427	33.79
831.604	44.03
831.782	41.98
831.959	93.18
832.136	15.36
832.313	46.08
832.49	-41.98
832.667	13.31
832.844	-29.7
833.021	68.61
833.198	54.27
833.374	50.18
833.551	27.65
833.728	19.46
833.905	66.56
834.082	-35.84
834.259	35.84
834.436	60.42
834.612	-33.79
834.789	35.84
834.966	-25.6
835.143	35.84
835.319	-3.07
835.496	-21.5
835.673	76.8
835.85	33.79
836.026	52.22
836.203	19.46
836.38	-15.36
836.556	21.5
836.733	21.5
836.909	-3.07
837.086	25.6
837.262	37.89
837.439	9.22
837.616	58.37
837.792	-3.07
837.968	66.56
838.145	-37.89
838.321	9.22
838.498	17.41
838.674	11.26
838.851	78.85
839.027	-7.17
839.203	33.79
839.38	39.94
839.556	-31.74
839.732	33.79
839.909	-35.84
840.085	-11.26
840.261	11.26
840.437	-7.17
840.614	7.17
840.79	19.46
840.966	-7.17
841.142	-52.22
841.318	23.55
841.494	-66.56
841.671	41.98
841.847	-21.5
842.023	-15.36
842.199	46.08
842.375	7.17
842.551	9.22
842.727	23.55
842.903	44.03
843.079	-13.31
843.255	11.26
843.431	-11.26
843.607	35.84
843.783	-23.55
843.959	13.31
844.134	-39.94
844.31	25.6
844.486	-11.26
844.662	31.74
844.838	-13.31
845.013	89.09
845.189	-27.65
845.365	15.36
845.541	-52.22
845.716	-11.26
845.892	-13.31
846.068	68.61
846.244	41.98
846.419	13.31
846.595	-13.31
846.77	19.46
846.946	-31.74
847.122	-68.61
847.297	9.22
847.473	35.84
847.648	87.04
847.824	35.84
847.999	39.94
848.175	50.18
848.35	84.99
848.526	7.17
848.701	21.5
848.876	37.89
849.052	-5.12
849.227	-7.17
849.403	13.31
849.578	-3.07
849.753	39.94
849.929	-46.08
850.104	-66.56
850.279	23.55
850.454	17.41
850.63	29.7
850.805	23.55
850.98	13.31
851.155	-37.89
851.33	-15.36
851.505	-9.22
851.681	41.98
851.856	-11.26
852.031	54.27
852.206	121.85
852.381	-70.65
852.556	-15.36
852.731	68.61
852.906	19.46
853.081	7.17
853.256	-5.12
853.431	31.74
853.606	1.02
853.781	-3.07
853.956	-23.55
854.131	-31.74
854.305	5.12
854.48	-7.17
854.655	-76.8
854.83	1.02
855.005	-29.7
855.18	-13.31
855.354	11.26
855.529	7.17
855.704	-11.26
855.879	-31.74
856.053	-46.08
856.228	-52.22
856.403	-15.36
856.577	41.98
856.752	-27.65
856.926	-17.41
857.101	11.26
857.276	56.32
857.45	-29.7
857.625	37.89
857.799	-78.85
857.974	52.22
858.148	-29.7
858.323	-21.5
858.497	-35.84
858.672	-41.98
858.846	-1.02
859.02	1.02
859.195	44.03
859.369	-5.12
859.543	-21.5
859.718	33.79
859.892	-5.12
860.066	23.55
860.241	29.7
860.415	-29.7
860.589	-19.46
860.763	48.13
860.938	23.55
861.112	-9.22
861.286	-39.94
861.46	-7.17
861.634	-13.31
861.808	37.89
861.982	3.07
862.157	-13.31
862.331	-72.7
862.505	-78.85
862.679	-64.51
862.853	-1.02
863.027	44.03
863.201	23.55
863.375	-101.37
863.549	25.6
863.722	-17.41
863.896	41.98
864.07	-93.18
864.244	-29.7
864.418	41.98
864.592	-48.13
864.766	-89.09
864.939	-29.7
865.113	-29.7
865.287	3.07
865.461	-27.65
865.634	-21.5
865.808	41.98
865.982	-41.98
866.156	-27.65
866.329	-50.18
866.503	-27.65
866.676	-19.46
866.85	-9.22
867.024	-1.02
867.197	-5.12
867.371	-23.55
867.544	-5.12
867.718	-35.84
867.891	11.26
868.065	-35.84
868.238	-5.12
868.412	-25.6
868.585	11.26
868.759	-68.61
868.932	-52.22
869.105	-15.36
869.279	-72.7
869.452	9.22
869.625	-39.94
869.799	-35.84
869.972	-48.13
870.145	-39.94
870.319	31.74
870.492	-54.27
870.665	21.5
870.838	-9.22
871.011	-60.42
871.185	-82.94
871.358	-15.36
871.531	27.65
871.704	1.02
871.877	9.22
872.05	3.07
872.223	-50.18
872.396	-52.22
872.569	25.6
872.742	-58.37
872.915	-60.42
873.088	-29.7
873.261	-44.03
873.434	68.61
873.607	15.36
873.78	-41.98
873.953	-44.03
874.126	-80.89
874.299	-29.7
874.471	-39.94
874.644	48.13
874.817	54.27
874.99	-5.12
875.163	-39.94
875.335	-27.65
875.508	-109.57
875.681	1.02
875.853	1.02
876.026	3.07
876.199	-72.7
876.371	17.41
876.544	-27.65
876.717	-15.36
876.889	39.94
877.062	3.07
877.234	7.17
877.407	31.74
877.579	-9.22
877.752	25.6
877.924	-19.46
878.097	-5.12
878.269	-3.07
878.442	-7.17
878.614	-11.26
878.786	-7.17
878.959	-27.65
879.131	-23.55
879.303	-13.31
879.476	-1.02
879.648	-9.22
879.82	-7.17
879.993	-35.84
880.165	-35.84
880.337	-29.7
880.509	-39.94
880.681	-60.42
880.854	-35.84
881.026	-13.31
881.198	44.03
881.37	-37.89
881.542	-3.07
881.714	11.26
881.886	-97.28
882.058	-23.55
882.23	-41.98
882.402	-52.22
882.574	-5.12
882.746	7.17
882.918	-29.7
883.09	-31.74
883.262	-1.02
883.434	-54.27
883.606	-54.27
883.778	-17.41
883.95	1.02
884.122	-9.22
884.293	-115.71
884.465	-50.18
884.637	-39.94
884.809	-58.37
884.98	-25.6
885.152	-33.79
885.324	-64.51
885.496	-9.22
885.667	13.31
885.839	-107.52
886.011	27.65
886.182	-19.46
886.354	-7.17
886.525	-19.46
886.697	-15.36
886.869	-21.5
887.04	1.02
887.212	31.74
887.383	-25.6
887.555	35.84
887.726	-23.55
887.897	-19.46
888.069	17.41
888.24	29.7
888.412	-23.55
888.583	1.02
888.754	-46.08
888.926	-58.37
889.097	-54.27
889.268	-46.08
889.44	-87.04
889.611	-5.12
889.782	-29.7
889.953	-17.41
890.125	17.41
890.296	-62.46
890.467	-66.56
890.638	-27.65
890.809	50.18
890.98	-29.7
891.151	11.26
891.323	-60.42
891.494	-13.31
891.665	1.02
891.836	-35.84
892.007	19.46
892.178	-3.07
892.349	-56.32
892.52	-13.31
892.691	13.31
892.862	50.18
893.032	-29.7
893.203	9.22
893.374	-15.36
893.545	27.65
893.716	-35.84
893.887	27.65
894.057	27.65
894.228	-15.36
894.399	-56.32
894.57	-17.41
894.74	-48.13
894.911	-19.46
895.082	3.07
895.253	-9.22
895.423	-87.04
895.594	19.46
895.764	-15.36
895.935	-29.7
896.106	31.74
896.276	15.36
896.447	17.41
896.617	-17.41
896.788	-107.52
896.958	31.74
897.129	-27.65
897.299	-37.89
897.47	-23.55
897.64	17.41
897.81	-21.5
897.981	-17.41
898.151	-46.08
898.322	-25.6
898.492	-103.42
898.662	-39.94
898.832	-5.12
899.003	-58.37
899.173	11.26
899.343	13.31
899.513	17.41
