Data from USB4F104151__17__12-58-33-419.txt Node

Date: Fri Mar 14 12:58:33 EDT 2025
User: louis
Spectrometer: USB4F10415
Trigger mode: 4
Integration Time (sec): 1.000000E-2
Scans to average: 1
Electric dark correction enabled: true
Nonlinearity correction enabled: false
Boxcar width: 0
XAxis mode: Wavelengths
Number of Pixels in Spectrum: 3648
>>>>>Begin Spectral Data<<<<<
178.204	-7.17
178.424	-7.17
178.644	-7.17
178.864	-44.03
179.084	-3.07
179.304	-68.61
179.524	-25.6
179.744	93.18
179.964	66.56
180.184	-27.65
180.404	-15.36
180.624	58.37
180.844	5.12
181.064	-41.98
181.283	-27.65
181.503	29.7
181.723	-46.08
181.943	23.55
182.163	13.31
182.383	33.79
182.602	60.42
182.822	-35.84
183.042	-15.36
183.262	44.03
183.482	68.61
183.701	-39.94
183.921	23.55
184.141	23.55
184.361	64.51
184.58	-1.02
184.8	80.89
185.02	11.26
185.239	82.94
185.459	58.37
185.679	9.22
185.898	-31.74
186.118	31.74
186.338	-17.41
186.557	64.51
186.777	37.89
186.997	58.37
187.216	33.79
187.436	-33.79
187.655	7.17
187.875	33.79
188.095	23.55
188.314	19.46
188.534	66.56
188.753	46.08
188.973	9.22
189.192	-5.12
189.412	-13.31
189.631	9.22
189.851	33.79
190.07	33.79
190.29	-23.55
190.509	50.18
190.729	7.17
190.948	87.04
191.168	144.38
191.387	87.04
191.607	-23.55
191.826	25.6
192.045	-5.12
192.265	9.22
192.484	111.61
192.704	25.6
192.923	19.46
193.142	46.08
193.362	93.18
193.581	35.84
193.8	-17.41
194.02	89.09
194.239	78.85
194.458	33.79
194.678	27.65
194.897	66.56
195.116	64.51
195.335	39.94
195.555	35.84
195.774	117.76
195.993	82.94
196.212	35.84
196.432	35.84
196.651	68.61
196.87	25.6
197.089	56.32
197.308	87.04
197.528	-11.26
197.747	41.98
197.966	31.74
198.185	56.32
198.404	15.36
198.623	19.46
198.842	39.94
199.062	66.56
199.281	60.42
199.5	-21.5
199.719	41.98
199.938	50.18
200.157	60.42
200.376	89.09
200.595	48.13
200.814	41.98
201.033	19.46
201.252	97.28
201.471	56.32
201.69	60.42
201.909	70.65
202.128	-5.12
202.347	19.46
202.566	62.46
202.785	5.12
203.004	-1.02
203.223	78.85
203.442	142.33
203.661	-7.17
203.879	-9.22
204.098	15.36
204.317	-7.17
204.536	50.18
204.755	31.74
204.974	31.74
205.193	25.6
205.411	-31.74
205.63	-13.31
205.849	58.37
206.068	44.03
206.287	9.22
206.505	11.26
206.724	58.37
206.943	-7.17
207.162	35.84
207.381	19.46
207.599	70.65
207.818	66.56
208.037	7.17
208.255	9.22
208.474	64.51
208.693	27.65
208.911	64.51
209.13	-15.36
209.349	91.13
209.567	21.5
209.786	115.71
210.005	31.74
210.223	31.74
210.442	9.22
210.661	13.31
210.879	7.17
211.098	70.65
211.316	58.37
211.535	3.07
211.753	-11.26
211.972	-48.13
212.191	21.5
212.409	1.02
212.628	15.36
212.846	46.08
213.065	7.17
213.283	-7.17
213.502	72.7
213.72	62.46
213.938	80.89
214.157	19.46
214.375	74.75
214.594	66.56
214.812	54.27
215.031	99.33
215.249	19.46
215.467	87.04
215.686	95.23
215.904	76.8
216.122	37.89
216.341	52.22
216.559	-29.7
216.778	37.89
216.996	39.94
217.214	-21.5
217.432	70.65
217.651	15.36
217.869	41.98
218.087	31.74
218.306	-7.17
218.524	64.51
218.742	-5.12
218.96	-5.12
219.179	9.22
219.397	109.57
219.615	-37.89
219.833	5.12
220.051	39.94
220.27	29.7
220.488	15.36
220.706	72.7
220.924	-3.07
221.142	31.74
221.36	50.18
221.578	80.89
221.796	64.51
222.015	64.51
222.233	11.26
222.451	-7.17
222.669	-1.02
222.887	33.79
223.105	19.46
223.323	60.42
223.541	33.79
223.759	119.81
223.977	31.74
224.195	46.08
224.413	-19.46
224.631	44.03
224.849	68.61
225.067	-15.36
225.285	17.41
225.503	56.32
225.721	1.02
225.939	-1.02
226.157	76.8
226.375	31.74
226.592	-25.6
226.81	-1.02
227.028	105.47
227.246	39.94
227.464	-21.5
227.682	113.66
227.9	41.98
228.117	5.12
228.335	-25.6
228.553	56.32
228.771	58.37
228.989	27.65
229.206	35.84
229.424	-46.08
229.642	7.17
229.86	46.08
230.077	5.12
230.295	-27.65
230.513	31.74
230.731	54.27
230.948	19.46
231.166	82.94
231.384	76.8
231.601	39.94
231.819	-17.41
232.037	66.56
232.254	25.6
232.472	64.51
232.689	25.6
232.907	89.09
233.125	44.03
233.342	-9.22
233.56	64.51
233.777	84.99
233.995	39.94
234.213	5.12
234.43	-33.79
234.648	113.66
234.865	52.22
235.083	27.65
235.3	-31.74
235.518	48.13
235.735	58.37
235.953	84.99
236.17	-29.7
236.388	-11.26
236.605	-1.02
236.822	33.79
237.04	25.6
237.257	44.03
237.475	31.74
237.692	70.65
237.909	35.84
238.127	13.31
238.344	89.09
238.562	82.94
238.779	23.55
238.996	5.12
239.214	-50.18
239.431	58.37
239.648	54.27
239.865	54.27
240.083	-7.17
240.3	109.57
240.517	80.89
240.735	62.46
240.952	35.84
241.169	15.36
241.386	46.08
241.603	-29.7
241.821	97.28
242.038	89.09
242.255	56.32
242.472	-46.08
242.689	39.94
242.907	1.02
243.124	52.22
243.341	23.55
243.558	35.84
243.775	1.02
243.992	7.17
244.209	23.55
244.426	74.75
244.643	50.18
244.86	5.12
245.078	19.46
245.295	13.31
245.512	41.98
245.729	-3.07
245.946	72.7
246.163	11.26
246.38	27.65
246.597	44.03
246.814	111.61
247.031	13.31
247.248	39.94
247.464	60.42
247.681	9.22
247.898	21.5
248.115	64.51
248.332	-15.36
248.549	54.27
248.766	31.74
248.983	60.42
249.2	21.5
249.417	-1.02
249.633	-25.6
249.85	46.08
250.067	44.03
250.284	48.13
250.501	33.79
250.717	50.18
250.934	50.18
251.151	62.46
251.368	50.18
251.585	31.74
251.801	68.61
252.018	64.51
252.235	11.26
252.451	113.66
252.668	-17.41
252.885	70.65
253.102	-23.55
253.318	74.75
253.535	-39.94
253.752	3.07
253.968	9.22
254.185	15.36
254.401	3.07
254.618	87.04
254.835	27.65
255.051	68.61
255.268	15.36
255.484	46.08
255.701	150.53
255.917	56.32
256.134	58.37
256.351	48.13
256.567	-1.02
256.784	64.51
257	15.36
257.217	35.84
257.433	54.27
257.65	99.33
257.866	50.18
258.082	107.52
258.299	62.46
258.515	-15.36
258.732	60.42
258.948	91.13
259.165	93.18
259.381	-1.02
259.597	17.41
259.814	87.04
260.03	27.65
260.246	-17.41
260.463	5.12
260.679	66.56
260.895	-3.07
261.112	35.84
261.328	11.26
261.544	-23.55
261.761	25.6
261.977	27.65
262.193	13.31
262.409	60.42
262.626	128
262.842	58.37
263.058	11.26
263.274	46.08
263.49	21.5
263.707	58.37
263.923	9.22
264.139	-25.6
264.355	-7.17
264.571	41.98
264.787	-5.12
265.004	41.98
265.22	84.99
265.436	-27.65
265.652	52.22
265.868	31.74
266.084	33.79
266.3	13.31
266.516	50.18
266.732	39.94
266.948	31.74
267.164	84.99
267.38	-9.22
267.596	56.32
267.812	1.02
268.028	66.56
268.244	78.85
268.46	-25.6
268.676	41.98
268.892	56.32
269.108	68.61
269.324	27.65
269.54	52.22
269.756	76.8
269.972	27.65
270.188	48.13
270.403	-48.13
270.619	89.09
270.835	-11.26
271.051	41.98
271.267	95.23
271.483	-41.98
271.698	37.89
271.914	113.66
272.13	41.98
272.346	52.22
272.562	-19.46
272.777	72.7
272.993	48.13
273.209	33.79
273.425	82.94
273.64	41.98
273.856	-17.41
274.072	60.42
274.287	46.08
274.503	64.51
274.719	60.42
274.934	17.41
275.15	31.74
275.366	7.17
275.581	17.41
275.797	31.74
276.012	3.07
276.228	46.08
276.444	-31.74
276.659	117.76
276.875	13.31
277.09	9.22
277.306	33.79
277.521	64.51
277.737	72.7
277.952	-13.31
278.168	-15.36
278.383	56.32
278.599	44.03
278.814	19.46
279.03	-56.32
279.245	66.56
279.461	58.37
279.676	-9.22
279.892	62.46
280.107	44.03
280.322	130.05
280.538	44.03
280.753	-13.31
280.969	-13.31
281.184	35.84
281.399	70.65
281.615	7.17
281.83	68.61
282.045	37.89
282.26	44.03
282.476	-3.07
282.691	39.94
282.906	41.98
283.122	54.27
283.337	-5.12
283.552	-13.31
283.767	66.56
283.983	33.79
284.198	60.42
284.413	58.37
284.628	33.79
284.843	62.46
285.058	60.42
285.274	101.37
285.489	-5.12
285.704	37.89
285.919	-29.7
286.134	25.6
286.349	31.74
286.564	46.08
286.779	23.55
286.995	19.46
287.21	-41.98
287.425	5.12
287.64	76.8
287.855	109.57
288.07	1.02
288.285	89.09
288.5	119.81
288.715	37.89
288.93	3.07
289.145	7.17
289.36	7.17
289.575	25.6
289.79	39.94
290.004	35.84
290.219	15.36
290.434	-19.46
290.649	46.08
290.864	54.27
291.079	68.61
291.294	62.46
291.509	109.57
291.724	15.36
291.938	54.27
292.153	7.17
292.368	13.31
292.583	41.98
292.798	7.17
293.012	76.8
293.227	48.13
293.442	68.61
293.657	70.65
293.871	66.56
294.086	9.22
294.301	23.55
294.516	52.22
294.73	17.41
294.945	44.03
295.16	103.42
295.374	93.18
295.589	48.13
295.804	-27.65
296.018	25.6
296.233	27.65
296.447	72.7
296.662	31.74
296.877	33.79
297.091	80.89
297.306	54.27
297.52	37.89
297.735	125.95
297.949	56.32
298.164	68.61
298.378	41.98
298.593	-17.41
298.807	72.7
299.022	48.13
299.236	-15.36
299.451	17.41
299.665	93.18
299.88	39.94
300.094	44.03
300.309	-9.22
300.523	1.02
300.737	-7.17
300.952	56.32
301.166	13.31
301.381	31.74
301.595	31.74
301.809	37.89
302.024	58.37
302.238	-3.07
302.452	-3.07
302.667	17.41
302.881	140.29
303.095	39.94
303.309	27.65
303.524	-17.41
303.738	39.94
303.952	68.61
304.166	-41.98
304.381	17.41
304.595	60.42
304.809	-39.94
305.023	50.18
305.237	66.56
305.452	52.22
305.666	41.98
305.88	7.17
306.094	-37.89
306.308	13.31
306.522	25.6
306.736	21.5
306.95	58.37
307.164	29.7
307.379	115.71
307.593	-7.17
307.807	87.04
308.021	44.03
308.235	60.42
308.449	17.41
308.663	76.8
308.877	125.95
309.091	84.99
309.305	115.71
309.519	46.08
309.733	-54.27
309.947	25.6
310.161	89.09
310.374	56.32
310.588	33.79
310.802	-21.5
311.016	142.33
311.23	-5.12
311.444	95.23
311.658	19.46
311.872	66.56
312.085	56.32
312.299	-5.12
312.513	37.89
312.727	66.56
312.941	48.13
313.154	41.98
313.368	19.46
313.582	62.46
313.796	87.04
314.009	3.07
314.223	-39.94
314.437	44.03
314.651	50.18
314.864	44.03
315.078	44.03
315.292	25.6
315.505	35.84
315.719	46.08
315.933	21.5
316.146	15.36
316.36	15.36
316.573	95.23
316.787	70.65
317.001	64.51
317.214	23.55
317.428	54.27
317.641	50.18
317.855	82.94
318.068	3.07
318.282	123.9
318.495	31.74
318.709	58.37
318.922	46.08
319.136	37.89
319.349	11.26
319.563	31.74
319.776	21.5
319.99	17.41
320.203	7.17
320.417	11.26
320.63	11.26
320.843	35.84
321.057	136.19
321.27	74.75
321.483	68.61
321.697	119.81
321.91	95.23
322.124	7.17
322.337	17.41
322.55	17.41
322.763	27.65
322.977	-35.84
323.19	11.26
323.403	23.55
323.617	7.17
323.83	56.32
324.043	125.95
324.256	21.5
324.469	37.89
324.683	58.37
324.896	46.08
325.109	64.51
325.322	31.74
325.535	66.56
325.748	41.98
325.962	66.56
326.175	31.74
326.388	-11.26
326.601	95.23
326.814	46.08
327.027	74.75
327.24	66.56
327.453	33.79
327.666	35.84
327.879	7.17
328.092	121.85
328.305	44.03
328.518	5.12
328.731	72.7
328.944	37.89
329.157	35.84
329.37	66.56
329.583	-5.12
329.796	68.61
330.009	3.07
330.222	121.85
330.435	-21.5
330.648	66.56
330.861	107.52
331.073	15.36
331.286	95.23
331.499	48.13
331.712	64.51
331.925	3.07
332.138	48.13
332.35	95.23
332.563	31.74
332.776	21.5
332.989	48.13
333.202	130.05
333.414	82.94
333.627	54.27
333.84	58.37
334.053	62.46
334.265	56.32
334.478	-7.17
334.691	-35.84
334.903	89.09
335.116	72.7
335.329	41.98
335.541	111.61
335.754	66.56
335.966	33.79
336.179	19.46
336.392	3.07
336.604	-1.02
336.817	39.94
337.029	11.26
337.242	62.46
337.454	13.31
337.667	23.55
337.88	48.13
338.092	58.37
338.305	58.37
338.517	21.5
338.729	50.18
338.942	64.51
339.154	-21.5
339.367	7.17
339.579	76.8
339.792	17.41
340.004	74.75
340.217	25.6
340.429	130.05
340.641	33.79
340.854	31.74
341.066	21.5
341.278	-13.31
341.491	41.98
341.703	115.71
341.915	93.18
342.128	17.41
342.34	15.36
342.552	91.13
342.764	56.32
342.977	89.09
343.189	46.08
343.401	113.66
343.613	-13.31
343.826	-35.84
344.038	64.51
344.25	54.27
344.462	19.46
344.674	60.42
344.886	50.18
345.099	80.89
345.311	9.22
345.523	50.18
345.735	5.12
345.947	80.89
346.159	105.47
346.371	31.74
346.583	44.03
346.795	72.7
347.007	-52.22
347.219	48.13
347.431	103.42
347.643	25.6
347.855	-27.65
348.067	27.65
348.279	50.18
348.491	17.41
348.703	91.13
348.915	-13.31
349.127	13.31
349.339	-35.84
349.551	11.26
349.763	-25.6
349.975	-9.22
350.187	128
350.399	99.33
350.61	54.27
350.822	95.23
351.034	50.18
351.246	15.36
351.458	60.42
351.669	84.99
351.881	21.5
352.093	107.52
352.305	-11.26
352.517	105.47
352.728	39.94
352.94	97.28
353.152	1.02
353.363	-37.89
353.575	15.36
353.787	13.31
353.999	46.08
354.21	31.74
354.422	-25.6
354.633	97.28
354.845	70.65
355.057	21.5
355.268	37.89
355.48	66.56
355.692	-27.65
355.903	58.37
356.115	-15.36
356.326	68.61
356.538	58.37
356.749	21.5
356.961	66.56
357.172	91.13
357.384	-7.17
357.595	48.13
357.807	74.75
358.018	93.18
358.23	11.26
358.441	17.41
358.653	128
358.864	64.51
359.075	29.7
359.287	89.09
359.498	105.47
359.709	9.22
359.921	-13.31
360.132	44.03
360.344	50.18
360.555	9.22
360.766	52.22
360.977	35.84
361.189	64.51
361.4	-17.41
361.611	-11.26
361.823	5.12
362.034	97.28
362.245	54.27
362.456	136.19
362.667	52.22
362.879	21.5
363.09	25.6
363.301	87.04
363.512	58.37
363.723	64.51
363.935	3.07
364.146	-37.89
364.357	41.98
364.568	46.08
364.779	48.13
364.99	142.33
365.201	33.79
365.412	60.42
365.623	11.26
365.834	9.22
366.045	-37.89
366.256	89.09
366.467	7.17
366.678	41.98
366.889	150.53
367.1	99.33
367.311	56.32
367.522	-13.31
367.733	11.26
367.944	76.8
368.155	-1.02
368.366	89.09
368.577	39.94
368.788	31.74
368.999	-13.31
369.209	-15.36
369.42	54.27
369.631	105.47
369.842	-33.79
370.053	17.41
370.264	11.26
370.474	74.75
370.685	50.18
370.896	44.03
371.107	48.13
371.317	66.56
371.528	44.03
371.739	7.17
371.95	39.94
372.16	64.51
372.371	46.08
372.582	29.7
372.792	80.89
373.003	64.51
373.214	76.8
373.424	62.46
373.635	-25.6
373.846	68.61
374.056	39.94
374.267	-7.17
374.477	-19.46
374.688	99.33
374.898	39.94
375.109	11.26
375.319	76.8
375.53	19.46
375.74	-1.02
375.951	7.17
376.161	-13.31
376.372	70.65
376.582	70.65
376.793	31.74
377.003	3.07
377.214	39.94
377.424	66.56
377.635	68.61
377.845	41.98
378.055	50.18
378.266	97.28
378.476	60.42
378.686	23.55
378.897	78.85
379.107	74.75
379.317	76.8
379.528	-29.7
379.738	23.55
379.948	37.89
380.158	21.5
380.369	44.03
380.579	62.46
380.789	66.56
380.999	76.8
381.21	41.98
381.42	35.84
381.63	52.22
381.84	132.09
382.05	31.74
382.261	27.65
382.471	21.5
382.681	66.56
382.891	95.23
383.101	121.85
383.311	60.42
383.521	95.23
383.731	-9.22
383.941	58.37
384.151	23.55
384.361	13.31
384.571	78.85
384.781	89.09
384.991	97.28
385.201	5.12
385.411	76.8
385.621	93.18
385.831	17.41
386.041	52.22
386.251	15.36
386.461	54.27
386.671	95.23
386.881	41.98
387.091	97.28
387.301	62.46
387.511	-62.46
387.72	74.75
387.93	35.84
388.14	50.18
388.35	89.09
388.56	52.22
388.769	76.8
388.979	1.02
389.189	54.27
389.399	60.42
389.609	113.66
389.818	66.56
390.028	21.5
390.238	31.74
390.447	54.27
390.657	66.56
390.867	15.36
391.076	7.17
391.286	5.12
391.496	70.65
391.705	39.94
391.915	41.98
392.125	-19.46
392.334	130.05
392.544	91.13
392.753	70.65
392.963	56.32
393.172	82.94
393.382	60.42
393.591	109.57
393.801	25.6
394.01	89.09
394.22	70.65
394.429	82.94
394.639	54.27
394.848	80.89
395.058	54.27
395.267	66.56
395.477	27.65
395.686	76.8
395.895	56.32
396.105	109.57
396.314	72.7
396.524	58.37
396.733	60.42
396.942	60.42
397.152	23.55
397.361	93.18
397.57	121.85
397.78	107.52
397.989	64.51
398.198	171.01
398.407	44.03
398.617	58.37
398.826	82.94
399.035	56.32
399.244	60.42
399.453	93.18
399.663	87.04
399.872	111.61
400.081	33.79
400.29	105.47
400.499	142.33
400.708	56.32
400.917	140.29
401.127	66.56
401.336	134.14
401.545	138.24
401.754	84.99
401.963	64.51
402.172	54.27
402.381	111.61
402.59	91.13
402.799	107.52
403.008	78.85
403.217	171.01
403.426	89.09
403.635	95.23
403.844	103.42
404.053	125.95
404.262	44.03
404.471	164.86
404.68	117.76
404.888	242.68
405.097	115.71
405.306	187.39
405.515	164.86
405.724	152.57
405.933	117.76
406.142	107.52
406.35	125.95
406.559	164.86
406.768	60.42
406.977	107.52
407.185	199.68
407.394	136.19
407.603	171.01
407.812	103.42
408.02	187.39
408.229	154.62
408.438	132.09
408.646	205.82
408.855	123.9
409.064	156.67
409.272	166.91
409.481	195.58
409.69	189.44
409.898	259.07
410.107	248.83
410.315	265.21
410.524	158.72
410.733	230.4
410.941	220.16
411.15	277.5
411.358	295.93
411.567	279.55
411.775	193.53
411.984	304.12
412.192	240.64
412.401	246.78
412.609	279.55
412.818	406.52
413.026	334.84
413.234	336.89
413.443	281.6
413.651	392.19
413.86	365.56
414.068	410.62
414.276	392.19
414.485	427
414.693	427
414.901	498.68
415.11	414.71
415.318	443.39
415.526	455.67
415.734	533.5
415.943	539.64
416.151	490.49
416.359	506.87
416.567	615.41
416.776	642.04
416.984	617.46
417.192	650.23
417.4	695.29
417.608	621.56
417.817	697.33
418.025	814.07
418.233	752.63
418.441	689.14
418.649	760.82
418.857	836.6
419.065	840.69
419.273	803.83
419.481	877.55
419.689	930.8
419.897	1051.63
420.105	928.75
420.313	1008.62
420.521	1086.45
420.729	1076.21
420.937	975.86
421.145	1088.5
421.353	1147.89
421.561	1252.33
421.769	1250.28
421.977	1354.73
422.185	1240.05
422.393	1412.07
422.601	1512.42
422.809	1424.36
423.017	1588.2
423.224	1557.48
423.432	1594.34
423.64	1649.64
423.848	1725.41
424.056	1631.21
424.263	1768.42
424.471	1745.89
424.679	1844.2
424.887	2030.56
425.094	1973.22
425.302	1917.92
425.51	2137.06
425.718	2233.31
425.925	2137.06
426.133	2257.89
426.341	2354.14
426.548	2388.96
426.756	2405.34
426.964	2532.31
427.171	2630.62
427.379	2665.43
427.586	2761.69
427.794	2833.36
428.001	3068.88
428.209	3068.88
428.417	3034.07
428.624	3316.69
428.832	3365.84
429.039	3195.86
429.247	3222.48
429.454	3681.22
429.662	3746.76
429.869	3683.27
430.076	3830.73
430.284	3763.14
430.491	3935.17
430.699	4109.25
430.906	4121.54
431.114	4080.58
431.321	4281.28
431.528	4391.87
431.736	4690.87
431.943	4948.92
432.15	4760.5
432.358	4740.02
432.565	5045.17
432.772	5100.47
432.979	5309.36
433.187	5489.58
433.394	5456.81
433.601	5913.51
433.808	5794.73
434.016	5809.06
434.223	6075.3
434.43	6388.64
434.637	6308.77
434.844	6724.51
435.052	6691.74
435.259	6761.37
435.466	6695.83
435.673	6777.75
435.88	7244.69
436.087	7465.87
436.294	7291.79
436.501	7345.04
436.708	7469.97
436.915	7801.74
437.122	8053.64
437.329	8057.73
437.537	8395.65
437.743	8379.26
437.95	8442.75
438.157	8993.65
438.364	9106.29
438.571	8979.32
438.778	9306.99
438.985	10081.13
439.192	9585.52
439.399	9958.25
439.606	9841.51
439.813	10085.22
440.02	10875.74
440.227	10709.85
440.433	10523.49
440.64	11176.79
440.847	10851.16
441.054	11166.55
441.261	12022.6
441.467	11672.4
441.674	12028.74
441.881	12647.23
442.088	12403.52
442.294	12419.91
442.501	12733.25
442.708	12942.14
442.914	13396.79
443.121	14271.27
443.328	13495.09
443.534	14451.49
443.741	14258.98
443.948	14086.95
444.154	14863.13
444.361	14992.16
444.568	15158.04
444.774	15010.59
444.981	15211.29
445.187	15569.68
445.394	16288.52
445.6	16130.83
445.807	17605.36
446.013	16825.09
446.22	17480.44
446.426	17961.71
446.633	17881.84
446.839	18434.79
447.046	17744.63
447.252	19198.68
447.459	19006.17
447.665	18926.3
447.871	19716.82
448.078	20558.53
448.284	19749.59
448.491	20323.02
448.697	21158.59
448.903	21529.27
449.11	21424.83
449.316	21285.56
449.522	21451.45
449.728	22198.96
449.935	22377.13
450.141	22026.93
450.347	22760.1
450.553	22108.85
450.76	22313.64
450.966	23394.97
451.172	23095.97
451.378	23775.89
451.584	22674.09
451.791	23364.25
451.997	23653.02
452.203	23911.06
452.409	23995.03
452.615	23995.03
452.821	23122.59
453.027	22768.29
453.233	23816.85
453.44	23143.07
453.646	23415.45
453.852	23571.1
454.058	23947.92
454.264	23173.79
454.47	23554.71
454.676	22989.47
454.882	23882.39
455.088	21934.77
455.294	22080.18
455.5	22575.78
455.705	22919.84
455.911	21668.53
456.117	21234.36
456.323	21023.42
456.529	19929.81
456.735	20630.21
456.941	20378.31
457.147	19946.19
457.352	19372.76
457.558	19120.86
457.764	19184.35
457.97	18920.16
458.176	18264.81
458.381	18291.43
458.587	17558.26
458.793	17564.4
458.999	16489.22
459.204	17867.5
459.41	16882.43
459.616	16349.96
459.821	16233.22
460.027	16102.15
460.233	15778.58
460.438	15045.4
460.644	15221.53
460.85	14379.81
461.055	14295.85
461.261	14127.91
461.466	13218.61
461.672	12845.88
461.878	13787.95
462.083	12696.38
462.289	12630.85
462.494	12493.63
462.7	11754.32
462.905	11553.62
463.111	11844.43
463.316	11957.07
463.522	11832.14
463.727	11637.58
463.932	11844.43
464.138	11731.79
464.343	11498.32
464.549	11256.66
464.754	11684.69
464.959	11479.89
465.165	11576.14
465.37	11068.25
465.575	10789.72
465.781	11262.8
465.986	11289.43
466.191	10818.39
466.397	10593.12
466.602	10195.81
466.807	10511.2
467.012	10443.62
467.218	10294.11
467.423	10472.29
467.628	10427.23
467.833	10922.84
468.038	10361.7
468.244	10099.56
468.449	10457.95
468.654	10150.76
468.859	10122.09
469.064	9943.91
469.269	9597.81
469.474	9726.83
469.679	9900.9
469.885	9642.86
470.09	9792.36
470.295	9642.86
470.5	9417.58
470.705	9556.85
470.91	9380.72
471.115	9212.79
471.32	9464.69
471.525	9356.15
471.73	8954.74
471.935	9157.49
472.139	8694.65
472.344	8817.53
472.549	8919.93
472.754	8674.17
472.959	8678.27
473.164	8297.35
473.369	8235.91
473.574	8680.32
473.778	8481.66
473.983	8459.13
474.188	8207.23
474.393	7785.35
474.598	8070.02
474.802	7775.11
475.007	7756.68
475.212	7887.75
475.417	7592.84
475.621	7592.84
475.826	7615.37
476.031	7469.97
476.235	7322.51
476.44	7480.21
476.645	7222.16
476.849	7181.2
477.054	7271.31
477.259	7064.47
477.463	7199.63
477.668	6906.77
477.872	6964.12
478.077	6833.05
478.282	6620.06
478.486	6882.2
478.691	6579.1
478.895	6730.65
479.1	6687.64
479.304	6675.35
479.509	6421.41
479.713	6376.35
479.918	6169.51
480.122	6271.9
480.326	6362.01
480.531	6450.08
480.735	6251.42
480.94	6292.38
481.144	6341.54
481.348	6192.03
481.553	6276
481.757	6065.06
481.961	6204.32
482.166	6306.72
482.37	6097.83
482.574	5983.14
482.778	6044.58
482.983	6288.29
483.187	6077.35
483.391	5991.33
483.595	6011.81
483.8	5987.24
484.004	6073.25
484.208	6226.85
484.412	6161.31
484.616	6189.99
484.821	6071.2
485.025	5907.37
485.229	6212.51
485.433	6101.92
485.637	6192.03
485.841	6073.25
486.045	5852.07
486.249	6007.72
486.453	5964.71
486.657	6253.47
486.861	6175.65
487.065	6085.54
487.269	6058.92
487.473	5958.57
487.677	6073.25
487.881	6192.03
488.085	6095.78
488.289	5929.89
488.493	6067.11
488.697	6175.65
488.901	6122.4
489.105	6224.8
489.309	6151.07
489.512	6257.57
489.716	6157.22
489.92	6302.62
490.124	6214.56
490.328	6255.52
490.531	6073.25
490.735	6251.42
490.939	6335.39
491.143	6269.86
491.346	6284.19
491.55	6462.37
491.754	6458.27
491.958	6331.3
492.161	6292.38
492.365	6435.74
492.569	6468.51
492.772	6491.04
492.976	6423.45
493.18	6515.61
493.383	6683.55
493.587	6624.15
493.79	6785.94
493.994	6568.86
494.197	6675.35
494.401	6798.23
494.605	6603.68
494.808	7099.28
495.012	6904.73
495.215	6980.5
495.419	7115.67
495.622	7089.04
495.825	7183.25
496.029	7095.19
496.232	7463.82
496.436	7140.24
496.639	7424.91
496.843	7437.2
497.046	7580.56
497.249	7642
497.453	7633.8
497.656	7680.91
497.859	7754.63
498.063	7912.33
498.266	8006.53
498.469	7850.89
498.673	8137.6
498.876	8244.1
499.079	8207.23
499.282	8338.3
499.485	8352.64
499.689	8565.63
499.892	8698.75
500.095	8625.02
500.298	8854.39
500.501	8751.99
500.705	9223.03
500.908	9216.88
501.111	9069.43
501.314	9433.97
501.517	9266.03
501.72	9649
501.923	9487.22
502.126	9798.51
502.329	9921.38
502.532	10081.13
502.735	10175.33
502.938	10152.81
503.141	10281.83
503.344	10433.38
503.547	10267.49
503.75	10627.93
503.953	10795.87
504.156	10789.72
504.359	11006.81
504.562	10939.23
504.765	11502.42
504.968	11164.5
505.17	11686.73
505.373	11553.62
505.576	11869
505.779	11955.02
505.982	11959.11
506.185	12346.18
506.387	12229.45
506.59	12270.4
506.793	12620.61
506.996	12426.05
507.198	12999.48
507.401	12860.22
507.604	12915.51
507.807	13292.34
508.009	13466.42
508.212	13482.8
508.415	13632.3
508.617	13675.31
508.82	13812.53
509.022	13794.09
509.225	14400.29
509.428	14443.3
509.63	14512.93
509.833	14451.49
510.035	14977.82
510.238	14758.69
510.44	15282.97
510.643	15491.86
510.845	15317.78
511.048	15395.61
511.25	15876.88
511.453	16020.24
511.655	16067.34
511.858	16302.86
512.06	16511.75
512.262	16565
512.465	16442.12
512.667	16788.22
512.87	16818.94
513.072	17066.75
513.274	17375.99
513.477	17728.24
513.679	17552.12
513.881	17715.95
514.084	17949.42
514.286	17857.26
514.488	18318.06
514.69	18905.82
514.893	18682.59
515.095	18975.45
515.297	19327.71
515.499	19208.92
515.701	19632.85
515.904	19720.92
516.106	19604.18
516.308	20054.73
516.51	20032.21
516.712	20323.02
516.914	20585.16
517.116	20490.95
517.318	20718.28
517.52	21041.85
517.722	20916.93
517.925	21830.32
518.127	21740.21
518.329	21639.86
518.531	21738.16
518.733	21967.54
518.935	22500.01
519.136	22303.4
519.338	22491.82
519.54	22938.27
519.742	23243.42
519.944	22981.28
520.146	23661.21
520.348	23427.74
520.55	23636.63
520.752	23829.14
520.954	24355.47
521.155	23917.2
521.357	24709.77
521.559	24615.56
521.761	25084.55
521.963	25246.33
522.164	25379.45
522.366	25068.16
522.568	25682.55
522.77	25477.76
522.971	26124.91
523.173	25662.07
523.375	25875.06
523.576	26114.67
523.778	26317.42
523.98	26597.99
524.181	26870.37
524.383	27056.74
524.584	27073.12
524.786	27157.09
524.988	27279.97
525.189	27552.35
525.391	27314.78
525.592	27529.82
525.794	27912.79
525.995	27894.36
526.197	27814.49
526.398	28058.2
526.6	28189.27
526.801	28183.12
527.003	28367.44
527.204	28330.58
527.406	28668.49
527.607	28910.15
527.808	28887.62
528.01	28664.39
528.211	28832.33
528.412	29205.06
528.614	28861
528.815	29180.48
529.016	29594.17
529.218	29481.53
529.419	29426.24
529.62	29659.71
529.822	29426.24
530.023	29372.99
530.224	29604.41
530.425	29872.7
530.626	29553.21
530.828	29612.6
531.029	30040.63
531.23	29854.26
531.431	29936.18
531.632	30085.68
531.833	29960.76
532.035	29932.09
532.236	29690.43
532.437	30222.9
532.638	30044.73
532.839	30388.78
533.04	30554.67
533.241	30040.63
533.442	30454.32
533.643	30329.39
533.844	30198.32
534.045	30034.49
534.246	30097.97
534.447	30566.96
534.648	30130.74
534.849	30298.67
535.05	30190.13
535.251	30255.67
535.451	29719.1
535.652	30378.54
535.853	30247.47
536.054	30456.37
536.255	30450.22
536.456	29944.38
536.657	30683.69
536.857	30313.01
537.058	30106.16
537.259	30366.26
537.46	30472.75
537.66	30298.67
537.861	30425.65
538.062	30081.59
538.263	30513.71
538.463	30386.74
538.664	30265.91
538.865	30458.42
539.065	30616.11
539.266	30192.18
539.466	30687.79
539.667	30014.01
539.868	30448.18
540.068	30386.74
540.269	30274.1
540.469	30423.6
540.67	29919.8
540.87	30173.75
541.071	30120.5
541.271	30370.35
541.472	30452.27
541.672	30014.01
541.873	30181.94
542.073	29499.97
542.274	30562.86
542.474	30065.21
542.675	30083.64
542.875	30376.5
543.075	30188.08
543.276	30059.06
543.476	30171.7
543.676	30014.01
543.877	30243.38
544.077	30128.69
544.277	30192.18
544.478	30126.64
544.678	30278.19
544.878	30073.4
545.078	29927.99
545.279	29723.19
545.479	29641.28
545.679	29897.27
545.879	29987.38
546.079	29872.7
546.28	29983.29
546.48	29856.31
546.68	30124.6
546.88	30087.73
547.08	30151.22
547.28	30106.16
547.48	29762.11
547.68	29715
547.88	29418.05
548.081	30210.61
548.281	29868.6
548.481	30110.26
548.681	30102.07
548.881	29940.28
549.081	30067.25
549.28	29276.74
549.48	30138.93
549.68	29829.69
549.88	30247.47
550.08	29620.8
550.28	30163.51
550.48	29895.22
550.68	30140.98
550.88	29854.26
551.08	29676.09
551.279	30048.82
551.479	29626.94
551.679	29764.15
551.879	29690.43
552.079	29907.51
552.278	29792.83
552.478	29645.37
552.678	29739.58
552.878	30007.86
553.077	29692.47
553.277	29342.27
553.477	29653.56
553.676	29807.16
553.876	29588.03
554.076	29545.02
554.275	29555.26
554.475	29196.87
554.674	29350.46
554.874	29553.21
555.074	29137.48
555.273	29620.8
555.473	29440.57
555.672	29338.18
555.872	29215.3
556.071	29631.04
556.271	29563.45
556.47	29119.04
556.67	28791.37
556.869	29043.27
557.068	29344.32
557.268	29035.08
557.467	29166.15
557.667	29143.62
557.866	29268.55
558.065	29250.11
558.265	28611.15
558.464	28955.21
558.663	29016.65
558.863	28738.12
559.062	28994.12
559.261	28430.93
559.461	29067.84
559.66	28539.47
559.859	28918.34
560.058	28523.08
560.258	28666.44
560.457	28504.65
560.656	28592.72
560.855	28297.81
561.054	28748.36
561.253	28144.21
561.453	28289.62
561.652	28592.72
561.851	28840.52
562.05	28140.11
562.249	28129.87
562.448	28351.06
562.647	28252.75
562.846	28017.24
563.045	28043.86
563.244	28050
563.443	27953.75
563.642	27462.24
563.841	28027.48
564.04	27501.15
564.239	28240.47
564.438	27677.27
564.637	27703.9
564.836	27957.85
565.035	27507.29
565.234	27546.2
565.432	27460.19
565.631	27339.36
565.83	27720.28
566.029	27292.26
566.228	27353.69
566.427	27435.61
566.625	27034.21
566.824	26780.26
567.023	27138.66
567.222	26677.86
567.42	27261.54
567.619	27087.46
567.818	26952.29
568.016	26694.25
568.215	27005.54
568.414	26577.51
568.612	26770.02
568.811	26661.48
569.01	26608.23
569.208	26204.78
569.407	26712.68
569.605	26139.25
569.804	26522.22
570.002	26225.26
570.201	26665.58
570.4	26298.99
570.598	26323.57
570.797	25868.92
570.995	26053.23
571.193	25735.8
571.392	26237.55
571.59	25502.33
571.789	25621.11
571.987	25952.88
572.186	25608.83
572.384	25236.09
572.582	25571.96
572.781	25731.7
572.979	25180.8
573.177	25580.15
573.376	25369.21
573.574	25152.13
573.772	25488
573.971	25178.75
574.169	24806.02
574.367	24738.44
574.565	24935.04
574.763	24822.41
574.962	24638.09
575.16	24324.75
575.358	24670.86
575.556	24287.89
575.754	25070.21
575.952	24185.49
576.151	24689.29
576.349	24017.55
576.547	24212.11
576.745	24527.5
576.943	24396.43
577.141	24191.63
577.339	24101.52
577.537	23980.69
577.735	24060.56
577.933	23423.64
578.131	23962.26
578.329	23915.16
578.527	23556.76
578.725	23851.67
578.923	23620.25
579.121	23313.05
579.319	23591.58
579.516	23319.2
579.714	23249.57
579.912	23448.22
580.11	23155.36
580.308	23040.67
580.506	23095.97
580.704	22696.61
580.901	22948.51
581.099	23040.67
581.297	22803.11
581.495	22588.07
581.692	22837.92
581.89	22563.5
582.088	22835.88
582.285	22610.6
582.483	22448.81
582.681	22547.11
582.878	22422.19
583.076	22323.88
583.274	22248.11
583.471	21985.97
583.669	22276.78
583.866	21969.58
584.064	22139.57
584.262	22002.35
584.459	22033.07
584.657	21709.49
584.854	22006.45
585.052	21623.48
585.249	21963.44
585.447	21955.25
585.644	21596.85
585.841	21623.48
586.039	21791.41
586.236	21424.83
586.434	21263.04
586.631	21207.74
586.828	21369.53
587.026	21134.01
587.223	20605.64
587.42	21064.38
587.618	21000.9
587.815	20720.32
588.012	20968.13
588.21	20865.73
588.407	20746.95
588.604	20853.44
588.801	20396.74
588.999	20515.53
589.196	20576.97
589.393	20923.07
589.59	20443.85
589.787	20177.61
589.984	20265.67
590.182	20050.64
590.379	20179.66
590.576	20292.3
590.773	20314.83
590.97	19770.07
591.167	19933.9
591.364	19931.86
591.561	19966.67
591.758	19620.56
591.955	19634.9
592.152	19899.09
592.349	19720.92
592.546	19604.18
592.743	19339.99
592.94	19339.99
593.137	19356.38
593.334	19423.96
593.531	18979.55
593.727	19239.64
593.924	19184.35
594.121	19129.05
594.318	18885.34
594.515	18752.23
594.712	19268.31
594.908	18862.82
595.105	18899.68
595.302	18842.34
595.499	18909.92
595.696	19004.13
595.892	18508.52
596.089	18674.4
596.286	18737.89
596.482	18492.13
596.679	18563.81
596.876	18572
597.072	18285.29
597.269	18193.13
597.466	18051.82
597.662	18098.92
597.859	18107.12
598.055	17971.95
598.252	17883.89
598.448	18041.58
598.645	17924.85
598.841	17861.36
599.038	17941.23
599.234	17613.56
599.431	17742.58
599.627	17636.08
599.824	17478.39
600.02	17453.81
600.217	17525.49
600.413	17228.54
600.609	17249.02
600.806	17234.68
601.002	17070.84
601.198	17193.72
601.395	17095.42
601.591	17269.5
601.787	16990.97
601.984	16759.55
602.18	16958.21
602.376	16849.66
602.572	16620.29
602.769	16716.54
602.965	16593.67
603.161	16728.83
603.357	16458.5
603.553	16491.27
603.75	16558.85
603.946	16364.29
604.142	16509.7
604.338	16147.21
604.534	16263.94
604.73	15921.93
604.926	16106.25
605.122	16134.92
605.318	15952.65
605.514	16061.19
605.71	15821.58
605.906	15858.45
606.102	15997.71
606.298	15571.73
606.494	15926.03
606.69	15952.65
606.886	15745.81
607.082	15786.77
607.278	15858.45
607.474	15272.73
607.67	15794.96
607.866	15586.07
608.062	15700.75
608.257	15301.4
608.453	15328.02
608.649	15541.01
608.845	15201.05
609.041	15516.44
609.236	15430.42
609.432	15272.73
609.628	15289.11
609.824	15205.14
610.019	14977.82
610.215	15242.01
610.411	15280.92
610.606	14959.39
610.802	15149.85
610.998	15035.16
611.193	14949.15
611.389	14912.28
611.584	14828.32
611.78	14723.87
611.976	14670.62
612.171	14756.64
612.367	14725.92
612.562	14777.12
612.758	14433.06
612.953	14426.92
613.149	14793.5
613.344	14603.04
613.539	14687.01
613.735	14674.72
613.93	14535.46
614.126	14465.83
614.321	14764.83
614.517	14385.96
614.712	14299.94
614.907	14445.35
615.103	14486.31
615.298	14529.31
615.493	14582.56
615.688	13990.7
615.884	14605.09
616.079	14152.49
616.274	14064.43
616.47	14076.71
616.665	14267.17
616.86	13992.75
617.055	13935.4
617.25	14031.66
617.445	13925.16
617.641	13916.97
617.836	14023.47
618.031	13611.82
618.226	14072.62
618.421	13646.64
618.616	13812.53
618.811	13632.3
619.006	13589.3
619.201	13472.56
619.396	13540.15
619.591	13511.47
619.786	13548.34
619.981	13341.49
620.176	13304.63
620.371	13255.48
620.566	13396.79
620.761	13040.44
620.956	13116.22
621.151	12931.9
621.346	13118.26
621.541	12874.56
621.735	12804.92
621.93	12696.38
622.125	12815.16
622.32	12374.85
622.515	12571.46
622.709	12446.53
622.904	12483.39
623.099	12475.2
623.294	12278.6
623.488	12069.7
623.683	12399.43
623.878	12198.73
624.072	12211.01
624.267	12221.25
624.462	11764.56
624.656	11985.74
624.851	11811.66
625.046	12112.71
625.24	11799.37
625.435	11678.54
625.629	11529.04
625.824	11645.77
626.018	11406.16
626.213	11322.2
626.407	11330.39
626.602	11092.82
626.796	11217.75
626.991	11144.02
627.185	11336.53
627.38	11037.53
627.574	11017.05
627.768	10793.82
627.963	10842.97
628.157	10707.8
628.352	10750.81
628.546	10429.28
628.74	10818.39
628.935	10709.85
629.129	10345.31
629.323	10419.04
629.517	10419.04
629.712	10480.48
629.906	10416.99
630.1	10185.57
630.294	10238.82
630.489	10271.59
630.683	10015.59
630.877	10068.84
631.071	9857.9
631.265	9978.73
631.459	9911.14
631.653	9810.79
631.848	9689.96
632.042	9704.3
632.236	9489.26
632.43	9624.43
632.624	9636.72
632.818	9571.18
633.012	9554.8
633.206	9390.96
633.4	9350
633.594	9339.76
633.788	9329.52
633.982	9386.86
634.176	9282.42
634.369	9132.92
634.563	9132.92
634.757	9046.9
634.951	8889.21
635.145	9100.15
635.339	8956.79
635.533	8897.4
635.726	8782.71
635.92	8612.73
636.114	8708.99
636.308	8602.49
636.501	8637.31
636.695	8686.46
636.889	8518.53
637.083	8346.5
637.276	8412.03
637.47	8586.11
637.664	8362.88
637.857	8323.97
638.051	8287.11
638.244	7998.34
638.438	8149.89
638.632	8147.84
638.825	7926.66
639.019	8035.21
639.212	7902.09
639.406	8141.7
639.599	7945.09
639.793	8027.01
639.986	7945.09
640.18	7734.15
640.373	7707.53
640.567	7732.11
640.76	7756.68
640.954	7605.13
641.147	7592.84
641.34	7619.47
641.534	7529.36
641.727	7734.15
641.92	7476.11
642.114	7240.59
642.307	7289.74
642.5	7302.03
642.694	7043.99
642.887	6892.44
643.08	7216.02
643.273	7158.67
643.467	7097.24
643.66	6921.11
643.853	7060.37
644.046	6886.29
644.239	6882.2
644.432	6863.77
644.626	6863.77
644.819	6724.51
645.012	6755.22
645.205	6646.68
645.398	6720.41
645.591	6845.34
645.784	6636.44
645.977	6656.92
646.17	6532
646.363	6493.08
646.556	6538.14
646.749	6341.54
646.942	6450.08
647.135	6392.73
647.328	6325.15
647.521	6202.27
647.714	6216.61
647.907	6269.86
648.099	6153.12
648.292	6273.95
648.485	6069.16
648.678	6007.72
648.871	5940.13
649.064	6003.62
649.256	6052.77
649.449	5915.56
649.642	5833.64
649.835	5977
650.027	5841.83
650.22	5872.55
650.413	5692.33
650.605	5714.86
650.798	5919.65
650.991	5473.2
651.183	5591.98
651.376	5561.26
651.568	5708.71
651.761	5458.86
651.954	5608.36
652.146	5563.31
652.339	5471.15
652.531	5411.76
652.724	5346.22
652.916	5309.36
653.109	5446.57
653.301	5409.71
653.494	5301.17
653.686	5284.78
653.879	5325.74
654.071	5327.79
654.263	5254.06
654.456	5110.71
654.648	5133.23
654.84	4971.44
655.033	5063.6
655.225	5016.5
655.417	5051.31
655.61	5026.74
655.802	5131.19
655.994	4893.62
656.186	4953.01
656.379	4834.23
656.571	4961.2
656.763	4840.37
656.955	4770.74
657.148	4922.29
657.34	4711.35
657.532	4754.36
657.724	4635.58
657.916	4649.91
658.108	4647.87
658.3	4694.97
658.492	4580.28
658.684	4563.9
658.876	4561.85
659.068	4582.33
659.26	4678.58
659.452	4498.36
659.644	4441.02
659.836	4361.15
660.028	4365.25
660.22	4338.62
660.412	4398.01
660.604	4348.86
660.796	4293.57
660.988	4223.94
661.18	4166.59
661.372	4074.43
661.563	4295.61
661.755	4156.35
661.947	4324.29
662.139	4209.6
662.331	4137.92
662.522	3963.84
662.714	4064.19
662.906	4017.09
663.097	3982.28
663.289	3963.84
663.481	3955.65
663.673	3816.39
663.864	3963.84
664.056	3820.49
664.247	3800.01
664.439	3845.06
664.631	3965.89
664.822	3828.68
665.014	3908.55
665.205	3832.77
665.397	3800.01
665.588	3857.35
665.78	3640.26
665.971	3595.21
666.163	3605.45
666.354	3750.85
666.546	3744.71
666.737	3593.16
666.929	3566.54
667.12	3640.26
667.311	3591.11
667.503	3591.11
667.694	3613.64
667.885	3513.29
668.077	3539.91
668.268	3384.27
668.459	3470.28
668.651	3402.7
668.842	3474.38
669.033	3437.52
669.224	3394.51
669.416	3429.32
669.607	3425.23
669.798	3337.17
669.989	3341.26
670.18	3220.43
670.371	3294.16
670.563	3177.42
670.754	3361.74
670.945	3316.69
671.136	3285.97
671.327	3296.21
671.518	3259.34
671.709	3191.76
671.9	3148.75
672.091	3171.28
672.282	3070.93
672.473	3066.83
672.664	3122.13
672.855	3089.36
673.046	3144.66
673.237	3056.59
673.428	3007.44
673.619	2962.39
673.809	2997.2
674	3042.26
674.191	3042.26
674.382	3163.09
674.573	2980.82
674.764	3120.08
674.954	3032.02
675.145	3044.31
675.336	2946
675.527	2909.14
675.717	2966.48
675.908	2960.34
676.099	2876.37
676.289	2952.15
676.48	2935.76
676.671	2755.54
676.861	2907.09
677.052	2782.17
677.243	2782.17
677.433	2837.46
677.624	2816.98
677.814	2829.27
678.005	2800.6
678.195	2831.32
678.386	2759.64
678.576	2728.92
678.767	2804.69
678.957	2749.4
679.148	2823.12
679.338	2769.88
679.529	2706.39
679.719	2743.25
679.909	2786.26
680.1	2679.77
680.29	2761.69
680.481	2690.01
680.671	2814.93
680.861	2706.39
681.052	2583.51
681.242	2700.25
681.432	2733.01
681.622	2628.57
681.813	2601.94
682.003	2759.64
682.193	2573.27
682.383	2681.82
682.573	2776.02
682.764	2657.24
682.954	2612.18
683.144	2649.05
683.334	2655.19
683.524	2595.8
683.714	2657.24
683.904	2567.13
684.094	2569.18
684.284	2718.68
684.474	2585.56
684.664	2626.52
684.854	2632.66
685.044	2548.7
685.234	2509.79
685.424	2491.35
685.614	2501.59
685.804	2563.03
685.994	2577.37
686.184	2659.29
686.374	2497.5
686.564	2399.2
686.753	2532.31
686.943	2511.83
687.133	2468.83
687.323	2477.02
687.513	2499.55
687.702	2450.39
687.892	2554.84
688.082	2401.24
688.272	2382.81
688.461	2550.75
688.651	2487.26
688.841	2425.82
689.03	2317.28
689.22	2397.15
689.41	2454.49
689.599	2470.87
689.789	2345.95
689.979	2292.7
690.168	2431.96
690.358	2378.72
690.547	2235.36
690.737	2409.44
690.926	2302.94
691.116	2137.06
691.305	2417.63
691.495	2296.8
691.684	2233.31
691.874	2442.2
692.063	2300.89
692.252	2319.32
692.442	2442.2
692.631	2421.72
692.82	2315.23
693.01	2329.56
693.199	2253.79
693.388	2210.78
693.578	2243.55
693.767	2300.89
693.956	2218.97
694.146	2200.54
694.335	2106.34
694.524	2169.82
694.713	2247.65
694.902	2216.93
695.092	2261.98
695.281	2157.54
695.47	2233.31
695.659	2216.93
695.848	2083.81
696.037	2151.39
696.226	2126.82
696.415	2169.82
696.604	2114.53
696.793	2145.25
696.982	2196.45
697.171	2122.72
697.36	2196.45
697.549	2200.54
697.738	2081.76
697.927	2059.23
698.116	2081.76
698.305	2141.15
698.494	2128.86
698.683	2075.62
698.872	2028.51
699.061	2106.34
699.25	2032.61
699.438	2071.52
699.627	2053.09
699.816	2110.43
700.005	2067.42
700.193	2083.81
700.382	2137.06
700.571	2028.51
700.76	2038.75
700.948	1979.36
701.137	2020.32
701.326	2083.81
701.514	1995.75
701.703	2010.08
701.892	2042.85
702.08	2083.81
702.269	1897.44
702.457	1911.78
702.646	2024.42
702.834	2010.08
703.023	2032.61
703.212	2001.89
703.4	1991.65
703.589	2016.23
703.777	2075.62
703.965	1950.69
704.154	2089.95
704.342	1979.36
704.531	1844.2
704.719	1987.55
704.907	1901.54
705.096	1995.75
705.284	1948.64
705.472	2010.08
705.661	1993.7
705.849	1907.68
706.037	1940.45
706.226	2057.18
706.414	1809.38
706.602	1858.53
706.79	1891.3
706.979	1944.55
707.167	2014.18
707.355	1870.82
707.543	1745.89
707.731	1907.68
707.919	1895.4
708.107	1858.53
708.296	1797.09
708.484	1891.3
708.672	1885.16
708.86	1874.92
709.048	1887.2
709.236	1743.85
709.424	1919.97
709.612	1809.38
709.8	1917.92
709.988	1862.63
710.176	1967.07
710.364	1762.28
710.551	1852.39
710.739	1836
710.927	1858.53
711.115	1840.1
711.303	1838.05
711.491	1819.62
711.679	1825.76
711.866	1768.42
712.054	1854.44
712.242	1682.41
712.43	1743.85
712.617	1776.61
712.805	1752.04
712.993	1842.15
713.181	1809.38
713.368	1721.32
713.556	1760.23
713.744	1803.24
713.931	1743.85
714.119	1686.5
714.306	1752.04
714.494	1817.57
714.682	1680.36
714.869	1772.52
715.057	1674.21
715.244	1729.51
715.432	1735.65
715.619	1790.95
715.807	1565.67
715.994	1602.54
716.182	1770.47
716.369	1651.69
716.556	1733.61
716.744	1698.79
716.931	1620.97
717.119	1676.26
717.306	1659.88
717.493	1678.31
717.681	1729.51
717.868	1725.41
718.055	1661.93
718.242	1676.26
718.43	1741.8
718.617	1692.65
718.804	1684.45
718.991	1623.02
719.179	1749.99
719.366	1676.26
719.553	1606.63
719.74	1557.48
719.927	1666.02
720.114	1582.06
720.301	1637.35
720.488	1575.91
720.676	1635.3
720.863	1661.93
721.05	1537
721.237	1600.49
721.424	1629.16
721.611	1661.93
721.798	1620.97
721.985	1545.19
722.172	1637.35
722.358	1600.49
722.545	1653.73
722.732	1481.71
722.919	1586.15
723.106	1647.59
723.293	1508.33
723.48	1594.34
723.667	1586.15
723.853	1502.19
724.04	1565.67
724.227	1580.01
724.414	1637.35
724.6	1614.82
724.787	1520.62
724.974	1459.18
725.161	1604.58
725.347	1592.3
725.534	1655.78
725.72	1541.1
725.907	1557.48
726.094	1543.14
726.28	1432.55
726.467	1553.38
726.653	1473.51
726.84	1580.01
727.027	1467.37
727.213	1549.29
727.4	1590.25
727.586	1586.15
727.773	1555.43
727.959	1485.8
728.145	1651.69
728.332	1487.85
728.518	1571.82
728.705	1655.78
728.891	1489.9
729.077	1512.42
729.264	1410.03
729.45	1506.28
729.636	1555.43
729.823	1461.23
730.009	1545.19
730.195	1561.58
730.382	1573.86
730.568	1457.13
730.754	1375.21
730.94	1522.66
731.126	1506.28
731.313	1547.24
731.499	1446.89
731.685	1446.89
731.871	1463.27
732.057	1502.19
732.243	1375.21
732.429	1453.03
732.615	1498.09
732.801	1407.98
732.987	1491.95
733.173	1399.79
733.359	1432.55
733.545	1448.94
733.731	1440.75
733.917	1412.07
734.103	1446.89
734.289	1369.07
734.475	1430.51
734.661	1528.81
734.847	1465.32
735.033	1428.46
735.219	1377.26
735.404	1473.51
735.59	1489.9
735.776	1407.98
735.962	1410.03
736.148	1442.79
736.333	1469.42
736.519	1424.36
736.705	1426.41
736.89	1432.55
737.076	1475.56
737.262	1354.73
737.447	1387.5
737.633	1405.93
737.819	1369.07
738.004	1430.51
738.19	1434.6
738.375	1268.72
738.561	1430.51
738.747	1385.45
738.932	1367.02
739.118	1272.81
739.303	1358.83
739.489	1377.26
739.674	1418.22
739.859	1377.26
740.045	1418.22
740.23	1405.93
740.416	1227.76
740.601	1410.03
740.786	1385.45
740.972	1268.72
741.157	1367.02
741.342	1254.38
741.528	1311.72
741.713	1418.22
741.898	1319.92
742.084	1416.17
742.269	1315.82
742.454	1371.12
742.639	1315.82
742.824	1319.92
743.01	1274.86
743.195	1364.97
743.38	1281
743.565	1317.87
743.75	1307.63
743.935	1221.61
744.12	1371.12
744.305	1242.09
744.49	1227.76
744.675	1254.38
744.86	1295.34
745.045	1254.38
745.23	1293.29
745.415	1266.67
745.6	1338.35
745.785	1186.8
745.97	1188.85
746.155	1221.61
746.34	1203.18
746.525	1293.29
746.71	1135.6
746.895	1141.74
747.079	1194.99
747.264	1143.79
747.449	1172.46
747.634	1164.27
747.819	1137.65
748.003	1094.64
748.188	1172.46
748.373	1170.41
748.557	1139.69
748.742	1213.42
748.927	1059.82
749.111	1078.26
749.296	1039.34
749.481	1147.89
749.665	1180.65
749.85	975.86
750.034	1180.65
750.219	1088.5
750.404	1029.1
750.588	1008.62
750.773	1027.06
750.957	1092.59
751.141	1045.49
751.326	1096.69
751.51	1082.35
751.695	1151.98
751.879	1082.35
752.064	1080.3
752.248	994.29
752.432	1072.11
752.617	1016.82
752.801	1068.02
752.985	1002.48
753.17	1063.92
753.354	949.23
753.538	949.23
753.722	961.52
753.907	959.47
754.091	959.47
754.275	898.03
754.459	1104.88
754.643	924.66
754.828	900.08
755.012	902.13
755.196	869.36
755.38	963.57
755.564	938.99
755.748	875.51
755.932	918.51
756.116	904.18
756.3	840.69
756.484	895.99
756.668	912.37
756.852	967.67
757.036	859.12
757.22	846.84
757.404	924.66
757.588	842.74
757.772	846.84
757.956	812.02
758.14	799.73
758.323	867.31
758.507	932.85
758.691	822.26
758.875	775.16
759.059	859.12
759.242	762.87
759.426	754.68
759.61	826.36
759.794	803.83
759.977	826.36
760.161	801.78
760.345	758.77
760.528	777.2
760.712	801.78
760.895	738.29
761.079	754.68
761.263	748.53
761.446	748.53
761.63	687.09
761.813	732.15
761.997	730.1
762.18	758.77
762.364	668.66
762.547	754.68
762.731	683
762.914	764.92
763.098	719.86
763.281	775.16
763.464	654.33
763.648	809.97
763.831	709.62
764.015	607.22
764.198	721.91
764.381	683
764.564	707.57
764.748	646.13
764.931	623.61
765.114	596.98
765.297	752.63
765.481	719.86
765.664	568.31
765.847	656.37
766.03	629.75
766.213	592.89
766.397	625.65
766.58	619.51
766.763	611.32
766.946	680.95
767.129	672.76
767.312	660.47
767.495	678.9
767.678	635.89
767.861	678.9
768.044	709.62
768.227	584.7
768.41	617.46
768.593	670.71
768.776	672.76
768.959	625.65
769.142	699.38
769.324	596.98
769.507	582.65
769.69	564.22
769.873	601.08
770.056	637.94
770.239	566.26
770.421	572.41
770.604	572.41
770.787	619.51
770.97	527.35
771.152	613.37
771.335	580.6
771.518	596.98
771.7	601.08
771.883	541.69
772.066	490.49
772.248	549.88
772.431	539.64
772.613	623.61
772.796	558.07
772.978	568.31
773.161	564.22
773.343	584.7
773.526	506.87
773.708	515.06
773.891	476.15
774.073	486.39
774.256	537.59
774.438	564.22
774.621	486.39
774.803	558.07
774.985	427
775.168	562.17
775.35	451.58
775.532	572.41
775.715	484.34
775.897	500.73
776.079	541.69
776.261	531.45
776.444	424.95
776.626	394.23
776.808	482.3
776.99	470.01
777.173	424.95
777.355	551.93
777.537	494.58
777.719	437.24
777.901	494.58
778.083	408.57
778.265	449.53
778.447	429.05
778.629	451.58
778.811	429.05
778.993	431.1
779.175	353.27
779.357	406.52
779.539	424.95
779.721	400.38
779.903	402.43
780.085	457.72
780.267	467.96
780.449	336.89
780.631	414.71
780.812	443.39
780.994	427
781.176	367.61
781.358	404.47
781.54	375.8
781.721	375.8
781.903	410.62
782.085	336.89
782.267	361.47
782.448	377.85
782.63	398.33
782.812	388.09
782.993	379.9
783.175	433.15
783.357	340.99
783.538	347.13
783.72	404.47
783.901	267.26
784.083	343.03
784.264	359.42
784.446	287.74
784.627	349.18
784.809	386.04
784.99	334.84
785.172	326.65
785.353	340.99
785.535	392.19
785.716	326.65
785.897	289.79
786.079	349.18
786.26	314.36
786.441	377.85
786.623	279.55
786.804	320.51
786.985	244.73
787.167	287.74
787.348	273.4
787.529	277.5
787.71	297.98
787.891	252.92
788.073	306.17
788.254	197.63
788.435	345.08
788.616	252.92
788.797	263.16
788.978	273.4
789.159	261.12
789.34	250.88
789.522	140.29
789.703	316.41
789.884	269.31
790.065	277.5
790.246	232.44
790.427	226.3
790.607	189.44
790.788	302.08
790.969	269.31
791.15	246.78
791.331	207.87
791.512	240.64
791.693	297.98
791.874	312.32
792.054	242.68
792.235	326.65
792.416	222.2
792.597	242.68
792.778	242.68
792.958	252.92
793.139	254.97
793.32	220.16
793.5	191.49
793.681	222.2
793.862	246.78
794.042	273.4
794.223	168.96
794.404	291.84
794.584	203.77
794.765	209.92
794.945	201.72
795.126	224.25
795.306	205.82
795.487	205.82
795.667	183.29
795.848	220.16
796.028	216.06
796.209	302.08
796.389	240.64
796.57	267.26
796.75	203.77
796.93	160.77
797.111	154.62
797.291	195.58
797.471	152.57
797.652	246.78
797.832	140.29
798.012	209.92
798.192	232.44
798.373	189.44
798.553	252.92
798.733	179.2
798.913	187.39
799.093	158.72
799.274	148.48
799.454	246.78
799.634	203.77
799.814	269.31
799.994	193.53
800.174	218.11
800.354	173.05
800.534	187.39
800.714	179.2
800.894	140.29
801.074	107.52
801.254	152.57
801.434	177.15
801.614	195.58
801.794	99.33
801.974	379.9
802.154	123.9
802.334	177.15
802.514	164.86
802.693	132.09
802.873	171.01
803.053	154.62
803.233	191.49
803.413	154.62
803.592	177.15
803.772	164.86
803.952	242.68
804.131	177.15
804.311	160.77
804.491	144.38
804.67	179.2
804.85	162.81
805.03	123.9
805.209	177.15
805.389	74.75
805.568	197.63
805.748	162.81
805.928	164.86
806.107	220.16
806.287	177.15
806.466	111.61
806.646	93.18
806.825	148.48
807.004	171.01
807.184	111.61
807.363	164.86
807.543	150.53
807.722	152.57
807.901	103.42
808.081	228.35
808.26	132.09
808.439	226.3
808.619	138.24
808.798	130.05
808.977	173.05
809.156	105.47
809.336	146.43
809.515	105.47
809.694	54.27
809.873	168.96
810.052	154.62
810.231	93.18
810.411	148.48
810.59	168.96
810.769	80.89
810.948	162.81
811.127	89.09
811.306	70.65
811.485	130.05
811.664	203.77
811.843	103.42
812.022	121.85
812.201	109.57
812.38	125.95
812.559	107.52
812.737	121.85
812.916	119.81
813.095	84.99
813.274	162.81
813.453	128
813.632	93.18
813.811	148.48
813.989	35.84
814.168	162.81
814.347	132.09
814.526	54.27
814.704	84.99
814.883	175.1
815.062	175.1
815.24	82.94
815.419	107.52
815.598	148.48
815.776	123.9
815.955	105.47
816.133	164.86
816.312	113.66
816.49	17.41
816.669	89.09
816.847	109.57
817.026	132.09
817.204	128
817.383	95.23
817.561	103.42
817.74	144.38
817.918	58.37
818.097	103.42
818.275	31.74
818.453	132.09
818.632	128
818.81	115.71
818.988	15.36
819.167	107.52
819.345	60.42
819.523	138.24
819.701	7.17
819.879	68.61
820.058	113.66
820.236	115.71
820.414	146.43
820.592	123.9
820.77	19.46
820.948	117.76
821.127	31.74
821.305	39.94
821.483	89.09
821.661	76.8
821.839	95.23
822.017	93.18
822.195	101.37
822.373	101.37
822.551	84.99
822.729	123.9
822.907	48.13
823.085	105.47
823.262	82.94
823.44	56.32
823.618	121.85
823.796	58.37
823.974	162.81
824.152	125.95
824.329	103.42
824.507	89.09
824.685	68.61
824.863	41.98
825.04	82.94
825.218	150.53
825.396	103.42
825.574	64.51
825.751	62.46
825.929	78.85
826.107	93.18
826.284	29.7
826.462	103.42
826.639	97.28
826.817	99.33
826.994	58.37
827.172	117.76
827.349	56.32
827.527	117.76
827.704	68.61
827.882	93.18
828.059	93.18
828.237	70.65
828.414	60.42
828.591	29.7
828.769	146.43
828.946	-1.02
829.124	95.23
829.301	99.33
829.478	39.94
829.655	48.13
829.833	134.14
830.01	37.89
830.187	107.52
830.364	97.28
830.542	78.85
830.719	84.99
830.896	68.61
831.073	76.8
831.25	68.61
831.427	78.85
831.604	19.46
831.782	56.32
831.959	44.03
832.136	80.89
832.313	103.42
832.49	44.03
832.667	115.71
832.844	46.08
833.021	82.94
833.198	80.89
833.374	101.37
833.551	117.76
833.728	117.76
833.905	60.42
834.082	171.01
834.259	117.76
834.436	121.85
834.612	70.65
834.789	101.37
834.966	115.71
835.143	154.62
835.319	41.98
835.496	39.94
835.673	15.36
835.85	17.41
836.026	66.56
836.203	93.18
836.38	-15.36
836.556	105.47
836.733	1.02
836.909	31.74
837.086	48.13
837.262	11.26
837.439	29.7
837.616	15.36
837.792	125.95
837.968	72.7
838.145	27.65
838.321	-9.22
838.498	80.89
838.674	80.89
838.851	80.89
839.027	46.08
839.203	44.03
839.38	35.84
839.556	50.18
839.732	76.8
839.909	58.37
840.085	76.8
840.261	41.98
840.437	80.89
840.614	46.08
840.79	84.99
840.966	19.46
841.142	64.51
841.318	48.13
841.494	31.74
841.671	50.18
841.847	58.37
842.023	21.5
842.199	78.85
842.375	50.18
842.551	9.22
842.727	23.55
842.903	64.51
843.079	29.7
843.255	111.61
843.431	56.32
843.607	48.13
843.783	87.04
843.959	99.33
844.134	41.98
844.31	109.57
844.486	13.31
844.662	7.17
844.838	99.33
845.013	23.55
845.189	101.37
845.365	50.18
845.541	-31.74
845.716	50.18
845.892	46.08
846.068	58.37
846.244	107.52
846.419	80.89
846.595	7.17
846.77	37.89
846.946	66.56
847.122	52.22
847.297	37.89
847.473	138.24
847.648	46.08
847.824	23.55
847.999	56.32
848.175	35.84
848.35	93.18
848.526	60.42
848.701	70.65
848.876	58.37
849.052	48.13
849.227	89.09
849.403	56.32
849.578	115.71
849.753	-35.84
849.929	58.37
850.104	39.94
850.279	87.04
850.454	48.13
850.63	72.7
850.805	46.08
850.98	58.37
851.155	70.65
851.33	80.89
851.505	23.55
851.681	113.66
851.856	27.65
852.031	27.65
852.206	64.51
852.381	33.79
852.556	21.5
852.731	31.74
852.906	23.55
853.081	7.17
853.256	-52.22
853.431	80.89
853.606	33.79
853.781	19.46
853.956	15.36
854.131	50.18
854.305	-33.79
854.48	84.99
854.655	44.03
854.83	27.65
855.005	-7.17
855.18	27.65
855.354	84.99
855.529	-50.18
855.704	-3.07
855.879	56.32
856.053	52.22
856.228	74.75
856.403	23.55
856.577	33.79
856.752	-27.65
856.926	19.46
857.101	115.71
857.276	37.89
857.45	31.74
857.625	117.76
857.799	101.37
857.974	89.09
858.148	60.42
858.323	56.32
858.497	-15.36
858.672	33.79
858.846	60.42
859.02	41.98
859.195	66.56
859.369	-5.12
859.543	17.41
859.718	-15.36
859.892	31.74
860.066	121.85
860.241	3.07
860.415	27.65
860.589	11.26
860.763	72.7
860.938	-19.46
861.112	74.75
861.286	-17.41
861.46	60.42
861.634	-27.65
861.808	78.85
861.982	-41.98
862.157	-13.31
862.331	23.55
862.505	78.85
862.679	27.65
862.853	35.84
863.027	-11.26
863.201	50.18
863.375	-35.84
863.549	-3.07
863.722	91.13
863.896	70.65
864.07	-21.5
864.244	60.42
864.418	9.22
864.592	29.7
864.766	46.08
864.939	-21.5
865.113	48.13
865.287	37.89
865.461	56.32
865.634	29.7
865.808	91.13
865.982	52.22
866.156	21.5
866.329	-1.02
866.503	76.8
866.676	41.98
866.85	29.7
867.024	48.13
867.197	27.65
867.371	54.27
867.544	66.56
867.718	68.61
867.891	44.03
868.065	25.6
868.238	1.02
868.412	58.37
868.585	89.09
868.759	39.94
868.932	50.18
869.105	84.99
869.279	93.18
869.452	11.26
869.625	23.55
869.799	1.02
869.972	-21.5
870.145	17.41
870.319	58.37
870.492	109.57
870.665	-3.07
870.838	-17.41
871.011	41.98
871.185	52.22
871.358	66.56
871.531	39.94
871.704	-1.02
871.877	-66.56
872.05	48.13
872.223	142.33
872.396	-7.17
872.569	-7.17
872.742	39.94
872.915	70.65
873.088	27.65
873.261	15.36
873.434	44.03
873.607	-13.31
873.78	52.22
873.953	21.5
874.126	5.12
874.299	68.61
874.471	5.12
874.644	44.03
874.817	27.65
874.99	80.89
875.163	-17.41
875.335	62.46
875.508	23.55
875.681	15.36
875.853	-3.07
876.026	58.37
876.199	11.26
876.371	-7.17
876.544	-29.7
876.717	62.46
876.889	50.18
877.062	89.09
877.234	62.46
877.407	31.74
877.579	-50.18
877.752	-21.5
877.924	41.98
878.097	44.03
878.269	35.84
878.442	33.79
878.614	-9.22
878.786	33.79
878.959	84.99
879.131	39.94
879.303	52.22
879.476	27.65
879.648	15.36
879.82	78.85
879.993	37.89
880.165	62.46
880.337	11.26
880.509	50.18
880.681	7.17
880.854	-33.79
881.026	68.61
881.198	50.18
881.37	-9.22
881.542	17.41
881.714	-21.5
881.886	23.55
882.058	25.6
882.23	23.55
882.402	56.32
882.574	48.13
882.746	17.41
882.918	66.56
883.09	41.98
883.262	-1.02
883.434	25.6
883.606	23.55
883.778	46.08
883.95	80.89
884.122	-9.22
884.293	56.32
884.465	7.17
884.637	17.41
884.809	-17.41
884.98	21.5
885.152	-74.75
885.324	48.13
885.496	11.26
885.667	-17.41
885.839	3.07
886.011	46.08
886.182	93.18
886.354	64.51
886.525	19.46
886.697	25.6
886.869	17.41
887.04	44.03
887.212	56.32
887.383	31.74
887.555	9.22
887.726	-15.36
887.897	-15.36
888.069	29.7
888.24	33.79
888.412	17.41
888.583	9.22
888.754	13.31
888.926	62.46
889.097	9.22
889.268	-31.74
889.44	66.56
889.611	50.18
889.782	33.79
889.953	21.5
890.125	66.56
890.296	54.27
890.467	7.17
890.638	13.31
890.809	7.17
890.98	7.17
891.151	25.6
891.323	46.08
891.494	23.55
891.665	91.13
891.836	35.84
892.007	-5.12
892.178	5.12
892.349	66.56
892.52	-25.6
892.691	17.41
892.862	-33.79
893.032	37.89
893.203	23.55
893.374	21.5
893.545	37.89
893.716	-5.12
893.887	25.6
894.057	50.18
894.228	17.41
894.399	-50.18
894.57	9.22
894.74	7.17
894.911	7.17
895.082	23.55
895.253	-9.22
895.423	33.79
895.594	48.13
895.764	1.02
895.935	33.79
896.106	-33.79
896.276	23.55
896.447	41.98
896.617	-15.36
896.788	84.99
896.958	23.55
897.129	70.65
897.299	17.41
897.47	33.79
897.64	-21.5
897.81	-15.36
897.981	-5.12
898.151	105.47
898.322	44.03
898.492	-23.55
898.662	97.28
898.832	25.6
899.003	-1.02
899.173	5.12
899.343	23.55
899.513	-11.26
