Data from USB4F104151__53__12-59-14-444.txt Node

Date: Fri Mar 14 12:59:14 EDT 2025
User: louis
Spectrometer: USB4F10415
Trigger mode: 4
Integration Time (sec): 1.000000E-2
Scans to average: 1
Electric dark correction enabled: true
Nonlinearity correction enabled: false
Boxcar width: 0
XAxis mode: Wavelengths
Number of Pixels in Spectrum: 3648
>>>>>Begin Spectral Data<<<<<
178.204	23.89
178.424	23.89
178.644	23.89
178.864	-115.37
179.084	-68.27
179.304	-58.03
179.524	42.32
179.744	7.51
179.964	58.71
180.184	38.23
180.404	11.61
180.624	-62.12
180.844	1.37
181.064	-55.98
181.283	38.23
181.503	-58.03
181.723	36.18
181.943	-90.79
182.163	60.76
182.383	-2.73
182.602	-51.88
182.822	44.37
183.042	3.41
183.262	3.41
183.482	-10.92
183.701	32.08
183.921	17.75
184.141	-78.51
184.361	48.47
184.58	-29.35
184.8	1.37
185.02	-23.21
185.239	58.71
185.459	-33.45
185.679	60.76
185.898	-103.08
186.118	66.9
186.338	-15.02
186.557	85.33
186.777	-68.27
186.997	40.28
187.216	11.61
187.436	-68.27
187.655	87.38
187.875	3.41
188.095	17.75
188.314	-19.11
188.534	-15.02
188.753	-55.98
188.973	-47.79
189.192	40.28
189.412	-19.11
189.631	13.65
189.851	-8.87
190.07	60.76
190.29	-33.45
190.509	23.89
190.729	1.37
190.948	3.41
191.168	3.41
191.387	40.28
191.607	-10.92
191.826	-21.16
192.045	36.18
192.265	-17.07
192.484	-45.74
192.704	13.65
192.923	-0.68
193.142	-4.78
193.362	-21.16
193.581	11.61
193.8	21.84
194.02	-37.55
194.239	-86.7
194.458	21.84
194.678	17.75
194.897	-8.87
195.116	-15.02
195.335	50.52
195.555	40.28
195.774	-29.35
195.993	58.71
196.212	21.84
196.432	30.04
196.651	-12.97
196.87	15.7
197.089	30.04
197.308	-47.79
197.528	38.23
197.747	-58.03
197.966	27.99
198.185	68.95
198.404	40.28
198.623	7.51
198.842	19.8
199.062	44.37
199.281	11.61
199.5	3.41
199.719	40.28
199.938	25.94
200.157	5.46
200.376	52.56
200.595	-19.11
200.814	13.65
201.033	79.19
201.252	-21.16
201.471	32.08
201.69	15.7
201.909	50.52
202.128	95.57
202.347	1.37
202.566	46.42
202.785	-90.79
203.004	9.56
203.223	48.47
203.442	54.61
203.661	27.99
203.879	52.56
204.098	9.56
204.317	13.65
204.536	21.84
204.755	109.91
204.974	3.41
205.193	73.04
205.411	17.75
205.63	38.23
205.849	34.13
206.068	-19.11
206.287	-64.17
206.505	25.94
206.724	-43.69
206.943	-17.07
207.162	-2.73
207.381	-27.31
207.599	-45.74
207.818	17.75
208.037	36.18
208.255	-29.35
208.474	11.61
208.693	27.99
208.911	15.7
209.13	-2.73
209.349	68.95
209.567	50.52
209.786	-72.36
210.005	-2.73
210.223	-6.83
210.442	19.8
210.661	21.84
210.879	-4.78
211.098	-0.68
211.316	40.28
211.535	32.08
211.753	23.89
211.972	-6.83
212.191	1.37
212.409	19.8
212.628	27.99
212.846	-19.11
213.065	27.99
213.283	42.32
213.502	-12.97
213.72	-21.16
213.938	-33.45
214.157	-29.35
214.375	23.89
214.594	-23.21
214.812	27.99
215.031	48.47
215.249	-66.22
215.467	-37.55
215.686	91.48
215.904	83.28
216.122	68.95
216.341	-76.46
216.559	-19.11
216.778	-2.73
216.996	54.61
217.214	44.37
217.432	-12.97
217.651	93.52
217.869	99.67
218.087	5.46
218.306	56.66
218.524	-2.73
218.742	5.46
218.96	23.89
219.179	19.8
219.397	-0.68
219.615	-8.87
219.833	-19.11
220.051	-12.97
220.27	75.09
220.488	-45.74
220.706	-41.64
220.924	36.18
221.142	-25.26
221.36	23.89
221.578	25.94
221.796	11.61
222.015	68.95
222.233	23.89
222.451	52.56
222.669	-25.26
222.887	23.89
223.105	118.1
223.323	32.08
223.541	-33.45
223.759	25.94
223.977	25.94
224.195	85.33
224.413	3.41
224.631	7.51
224.849	81.24
225.067	62.8
225.285	-51.88
225.503	9.56
225.721	-19.11
225.939	-2.73
226.157	-2.73
226.375	109.91
226.592	64.85
226.81	27.99
227.028	-17.07
227.246	30.04
227.464	19.8
227.682	21.84
227.9	48.47
228.117	-2.73
228.335	21.84
228.553	32.08
228.771	-12.97
228.989	3.41
229.206	-66.22
229.424	66.9
229.642	73.04
229.86	52.56
230.077	46.42
230.295	-37.55
230.513	-86.7
230.731	54.61
230.948	54.61
231.166	62.8
231.384	44.37
231.601	56.66
231.819	30.04
232.037	-12.97
232.254	85.33
232.472	36.18
232.689	-17.07
232.907	32.08
233.125	34.13
233.342	1.37
233.56	23.89
233.777	-2.73
233.995	93.52
234.213	75.09
234.43	36.18
234.648	60.76
234.865	-43.69
235.083	44.37
235.3	34.13
235.518	-19.11
235.735	48.47
235.953	30.04
236.17	34.13
236.388	64.85
236.605	103.76
236.822	27.99
237.04	7.51
237.257	68.95
237.475	62.8
237.692	13.65
237.909	64.85
238.127	-41.64
238.344	32.08
238.562	-4.78
238.779	-10.92
238.996	21.84
239.214	27.99
239.431	60.76
239.648	21.84
239.865	27.99
240.083	15.7
240.3	95.57
240.517	40.28
240.735	36.18
240.952	-47.79
241.169	71
241.386	9.56
241.603	62.8
241.821	19.8
242.038	21.84
242.255	56.66
242.472	-4.78
242.689	64.85
242.907	50.52
243.124	-8.87
243.341	-8.87
243.558	-15.02
243.775	60.76
243.992	3.41
244.209	34.13
244.426	54.61
244.643	30.04
244.86	-62.12
245.078	-12.97
245.295	103.76
245.512	19.8
245.729	-49.83
245.946	48.47
246.163	36.18
246.38	34.13
246.597	-35.5
246.814	5.46
247.031	-82.6
247.248	40.28
247.464	7.51
247.681	-66.22
247.898	36.18
248.115	71
248.332	-21.16
248.549	48.47
248.766	30.04
248.983	-55.98
249.2	32.08
249.417	-31.4
249.633	3.41
249.85	40.28
250.067	19.8
250.284	-2.73
250.501	66.9
250.717	-2.73
250.934	21.84
251.151	-19.11
251.368	13.65
251.585	-12.97
251.801	21.84
252.018	50.52
252.235	52.56
252.451	27.99
252.668	68.95
252.885	-12.97
253.102	56.66
253.318	32.08
253.535	15.7
253.752	27.99
253.968	-37.55
254.185	15.7
254.401	13.65
254.618	32.08
254.835	1.37
255.051	23.89
255.268	1.37
255.484	54.61
255.701	-49.83
255.917	44.37
256.134	-33.45
256.351	-27.31
256.567	-49.83
256.784	11.61
257	25.94
257.217	40.28
257.433	-33.45
257.65	52.56
257.866	-2.73
258.082	64.85
258.299	-0.68
258.515	75.09
258.732	40.28
258.948	-21.16
259.165	3.41
259.381	-15.02
259.597	-33.45
259.814	7.51
260.03	-6.83
260.246	81.24
260.463	13.65
260.679	15.7
260.895	62.8
261.112	40.28
261.328	3.41
261.544	3.41
261.761	40.28
261.977	-23.21
262.193	-12.97
262.409	32.08
262.626	-6.83
262.842	-21.16
263.058	27.99
263.274	64.85
263.49	71
263.707	-27.31
263.923	42.32
264.139	-10.92
264.355	56.66
264.571	54.61
264.787	15.7
265.004	36.18
265.22	-23.21
265.436	17.75
265.652	5.46
265.868	-27.31
266.084	19.8
266.3	71
266.516	42.32
266.732	-41.64
266.948	-35.5
267.164	30.04
267.38	9.56
267.596	19.8
267.812	56.66
268.028	-35.5
268.244	38.23
268.46	132.44
268.676	75.09
268.892	-2.73
269.108	42.32
269.324	-12.97
269.54	71
269.756	17.75
269.972	-19.11
270.188	21.84
270.403	-10.92
270.619	60.76
270.835	11.61
271.051	-23.21
271.267	15.7
271.483	-15.02
271.698	11.61
271.914	-2.73
272.13	23.89
272.346	3.41
272.562	7.51
272.777	13.65
272.993	23.89
273.209	56.66
273.425	87.38
273.64	44.37
273.856	-29.35
274.072	-12.97
274.287	-31.4
274.503	13.65
274.719	91.48
274.934	-70.31
275.15	-74.41
275.366	62.8
275.581	-33.45
275.797	85.33
276.012	-53.93
276.228	-19.11
276.444	27.99
276.659	7.51
276.875	34.13
277.09	54.61
277.306	93.52
277.521	3.41
277.737	52.56
277.952	-6.83
278.168	40.28
278.383	21.84
278.599	-41.64
278.814	-12.97
279.03	-4.78
279.245	7.51
279.461	32.08
279.676	-0.68
279.892	-10.92
280.107	-33.45
280.322	7.51
280.538	9.56
280.753	-15.02
280.969	-4.78
281.184	-8.87
281.399	11.61
281.615	85.33
281.83	68.95
282.045	19.8
282.26	40.28
282.476	23.89
282.691	97.62
282.906	-41.64
283.122	-19.11
283.337	75.09
283.552	58.71
283.767	19.8
283.983	-10.92
284.198	1.37
284.413	36.18
284.628	27.99
284.843	15.7
285.058	-68.27
285.274	5.46
285.489	-23.21
285.704	-2.73
285.919	50.52
286.134	-6.83
286.349	7.51
286.564	13.65
286.779	15.7
286.995	32.08
287.21	-49.83
287.425	19.8
287.64	-21.16
287.855	83.28
288.07	17.75
288.285	-4.78
288.5	-27.31
288.715	13.65
288.93	3.41
289.145	77.14
289.36	62.8
289.575	-60.07
289.79	-2.73
290.004	44.37
290.219	3.41
290.434	50.52
290.649	-74.41
290.864	-19.11
291.079	-2.73
291.294	48.47
291.509	-33.45
291.724	15.7
291.938	9.56
292.153	-12.97
292.368	-27.31
292.583	-72.36
292.798	19.8
293.012	3.41
293.227	-41.64
293.442	77.14
293.657	40.28
293.871	13.65
294.086	-45.74
294.301	25.94
294.516	34.13
294.73	3.41
294.945	13.65
295.16	36.18
295.374	9.56
295.589	17.75
295.804	-23.21
296.018	19.8
296.233	-8.87
296.447	38.23
296.662	46.42
296.877	40.28
297.091	-19.11
297.306	-10.92
297.52	19.8
297.735	40.28
297.949	-27.31
298.164	30.04
298.378	25.94
298.593	32.08
298.807	-23.21
299.022	-53.93
299.236	52.56
299.451	3.41
299.665	25.94
299.88	68.95
300.094	-21.16
300.309	-31.4
300.523	40.28
300.737	75.09
300.952	-21.16
301.166	34.13
301.381	-8.87
301.595	44.37
301.809	68.95
302.024	17.75
302.238	-8.87
302.452	15.7
302.667	77.14
302.881	56.66
303.095	-15.02
303.309	-10.92
303.524	30.04
303.738	30.04
303.952	-12.97
304.166	81.24
304.381	-10.92
304.595	52.56
304.809	21.84
305.023	87.38
305.237	-2.73
305.452	52.56
305.666	11.61
305.88	34.13
306.094	30.04
306.308	36.18
306.522	32.08
306.736	36.18
306.95	-27.31
307.164	23.89
307.379	5.46
307.593	-21.16
307.807	36.18
308.021	23.89
308.235	60.76
308.449	-0.68
308.663	85.33
308.877	1.37
309.091	-17.07
309.305	-4.78
309.519	15.7
309.733	-0.68
309.947	-27.31
310.161	68.95
310.374	48.47
310.588	-90.79
310.802	-2.73
311.016	44.37
311.23	19.8
311.444	77.14
311.658	34.13
311.872	19.8
312.085	38.23
312.299	52.56
312.513	32.08
312.727	5.46
312.941	19.8
313.154	19.8
313.368	66.9
313.582	48.47
313.796	-19.11
314.009	56.66
314.223	81.24
314.437	40.28
314.651	3.41
314.864	48.47
315.078	21.84
315.292	7.51
315.505	-68.27
315.719	42.32
315.933	-2.73
316.146	-27.31
316.36	50.52
316.573	-12.97
316.787	1.37
317.001	58.71
317.214	13.65
317.428	83.28
317.641	13.65
317.855	-21.16
318.068	-19.11
318.282	44.37
318.495	11.61
318.709	23.89
318.922	11.61
319.136	42.32
319.349	64.85
319.563	21.84
319.776	-2.73
319.99	52.56
320.203	5.46
320.417	85.33
320.63	52.56
320.843	64.85
321.057	7.51
321.27	-4.78
321.483	-33.45
321.697	23.89
321.91	46.42
322.124	-10.92
322.337	36.18
322.55	-8.87
322.763	-2.73
322.977	30.04
323.19	1.37
323.403	58.71
323.617	-37.55
323.83	73.04
324.043	-29.35
324.256	1.37
324.469	21.84
324.683	19.8
324.896	-21.16
325.109	-2.73
325.322	-51.88
325.535	-6.83
325.748	3.41
325.962	34.13
326.175	9.56
326.388	48.47
326.601	60.76
326.814	83.28
327.027	-2.73
327.24	91.48
327.453	27.99
327.666	42.32
327.879	85.33
328.092	48.47
328.305	34.13
328.518	-0.68
328.731	77.14
328.944	85.33
329.157	-17.07
329.37	-4.78
329.583	161.11
329.796	91.48
330.009	25.94
330.222	54.61
330.435	44.37
330.648	23.89
330.861	42.32
331.073	-19.11
331.286	38.23
331.499	60.76
331.712	11.61
331.925	-0.68
332.138	54.61
332.35	81.24
332.563	21.84
332.776	62.8
332.989	-0.68
333.202	68.95
333.414	7.51
333.627	77.14
333.84	30.04
334.053	5.46
334.265	32.08
334.478	85.33
334.691	-21.16
334.903	87.38
335.116	-4.78
335.329	60.76
335.541	-8.87
335.754	38.23
335.966	11.61
336.179	68.95
336.392	79.19
336.604	75.09
336.817	3.41
337.029	-0.68
337.242	17.75
337.454	91.48
337.667	21.84
337.88	52.56
338.092	13.65
338.305	89.43
338.517	30.04
338.729	38.23
338.942	27.99
339.154	62.8
339.367	-49.83
339.579	-45.74
339.792	3.41
340.004	-43.69
340.217	-47.79
340.429	64.85
340.641	89.43
340.854	11.61
341.066	-43.69
341.278	7.51
341.491	-2.73
341.703	7.51
341.915	36.18
342.128	95.57
342.34	13.65
342.552	34.13
342.764	-4.78
342.977	-19.11
343.189	30.04
343.401	32.08
343.613	58.71
343.826	-41.64
344.038	-25.26
344.25	-19.11
344.462	52.56
344.674	38.23
344.886	46.42
345.099	68.95
345.311	62.8
345.523	44.37
345.735	-0.68
345.947	48.47
346.159	83.28
346.371	21.84
346.583	15.7
346.795	56.66
347.007	13.65
347.219	32.08
347.431	-19.11
347.643	83.28
347.855	1.37
348.067	40.28
348.279	-19.11
348.491	19.8
348.703	52.56
348.915	77.14
349.127	5.46
349.339	44.37
349.551	38.23
349.763	-12.97
349.975	36.18
350.187	9.56
350.399	32.08
350.61	5.46
350.822	-0.68
351.034	118.1
351.246	17.75
351.458	-15.02
351.669	-8.87
351.881	64.85
352.093	-19.11
352.305	101.72
352.517	64.85
352.728	27.99
352.94	-29.35
353.152	-2.73
353.363	-29.35
353.575	30.04
353.787	64.85
353.999	-4.78
354.21	9.56
354.422	27.99
354.633	-6.83
354.845	-10.92
355.057	11.61
355.268	21.84
355.48	25.94
355.692	-6.83
355.903	58.71
356.115	11.61
356.326	-4.78
356.538	-8.87
356.749	15.7
356.961	9.56
357.172	-6.83
357.384	44.37
357.595	91.48
357.807	48.47
358.018	38.23
358.23	38.23
358.441	23.89
358.653	46.42
358.864	-49.83
359.075	-10.92
359.287	79.19
359.498	93.52
359.709	40.28
359.921	54.61
360.132	101.72
360.344	62.8
360.555	27.99
360.766	46.42
360.977	42.32
361.189	21.84
361.4	46.42
361.611	13.65
361.823	27.99
362.034	32.08
362.245	62.8
362.456	-12.97
362.667	23.89
362.879	3.41
363.09	52.56
363.301	38.23
363.512	11.61
363.723	-29.35
363.935	-8.87
364.146	52.56
364.357	66.9
364.568	5.46
364.779	91.48
364.99	-19.11
365.201	46.42
365.412	68.95
365.623	-60.07
365.834	40.28
366.045	68.95
366.256	105.81
366.467	-0.68
366.678	32.08
366.889	3.41
367.1	30.04
367.311	-90.79
367.522	36.18
367.733	46.42
367.944	5.46
368.155	-8.87
368.366	-15.02
368.577	83.28
368.788	23.89
368.999	-19.11
369.209	11.61
369.42	27.99
369.631	5.46
369.842	93.52
370.053	27.99
370.264	40.28
370.474	-51.88
370.685	-25.26
370.896	60.76
371.107	52.56
371.317	23.89
371.528	62.8
371.739	36.18
371.95	-17.07
372.16	77.14
372.371	32.08
372.582	136.53
372.792	50.52
373.003	44.37
373.214	15.7
373.424	48.47
373.635	-15.02
373.846	32.08
374.056	81.24
374.267	23.89
374.477	-45.74
374.688	30.04
374.898	19.8
375.109	81.24
375.319	52.56
375.53	95.57
375.74	38.23
375.951	62.8
376.161	40.28
376.372	54.61
376.582	-17.07
376.793	-8.87
377.003	52.56
377.214	62.8
377.424	3.41
377.635	52.56
377.845	-62.12
378.055	13.65
378.266	23.89
378.476	-10.92
378.686	64.85
378.897	38.23
379.107	23.89
379.317	42.32
379.528	11.61
379.738	23.89
379.948	13.65
380.158	32.08
380.369	38.23
380.579	91.48
380.789	101.72
380.999	23.89
381.21	36.18
381.42	46.42
381.63	-19.11
381.84	-37.55
382.05	25.94
382.261	114
382.471	3.41
382.681	-10.92
382.891	42.32
383.101	25.94
383.311	46.42
383.521	5.46
383.731	30.04
383.941	71
384.151	19.8
384.361	40.28
384.571	50.52
384.781	-17.07
384.991	27.99
385.201	54.61
385.411	-35.5
385.621	114
385.831	27.99
386.041	-17.07
386.251	60.76
386.461	48.47
386.671	62.8
386.881	64.85
387.091	38.23
387.301	21.84
387.511	46.42
387.72	17.75
387.93	11.61
388.14	15.7
388.35	56.66
388.56	46.42
388.769	-0.68
388.979	79.19
389.189	-4.78
389.399	-6.83
389.609	-23.21
389.818	150.87
390.028	27.99
390.238	30.04
390.447	44.37
390.657	62.8
390.867	-39.59
391.076	44.37
391.286	48.47
391.496	-49.83
391.705	-4.78
391.915	46.42
392.125	23.89
392.334	42.32
392.544	36.18
392.753	-4.78
392.963	56.66
393.172	97.62
393.382	36.18
393.591	48.47
393.801	-4.78
394.01	95.57
394.22	27.99
394.429	34.13
394.639	17.75
394.848	114
395.058	42.32
395.267	62.8
395.477	56.66
395.686	109.91
395.895	34.13
396.105	46.42
396.314	30.04
396.524	40.28
396.733	85.33
396.942	126.29
397.152	19.8
397.361	107.86
397.57	3.41
397.78	27.99
397.989	62.8
398.198	52.56
398.407	-0.68
398.617	81.24
398.826	46.42
399.035	23.89
399.244	77.14
399.453	85.33
399.663	95.57
399.872	62.8
400.081	46.42
400.29	83.28
400.499	15.7
400.708	83.28
400.917	21.84
401.127	52.56
401.336	19.8
401.545	71
401.754	126.29
401.963	111.96
402.172	40.28
402.381	40.28
402.59	44.37
402.799	97.62
403.008	85.33
403.217	68.95
403.426	32.08
403.635	187.73
403.844	71
404.053	23.89
404.262	-0.68
404.471	109.91
404.68	64.85
404.888	73.04
405.097	73.04
405.306	114
405.515	75.09
405.724	159.06
405.933	120.15
406.142	109.91
406.35	85.33
406.559	150.87
406.768	126.29
406.977	191.83
407.185	114
407.394	93.52
407.603	118.1
407.812	81.24
408.02	200.02
408.229	62.8
408.438	134.48
408.646	177.49
408.855	128.34
409.064	154.96
409.272	99.67
409.481	114
409.69	120.15
409.898	136.53
410.107	118.1
410.315	226.64
410.524	236.88
410.733	236.88
410.941	216.4
411.15	290.13
411.358	210.26
411.567	236.88
411.775	238.93
411.984	245.07
412.192	253.27
412.401	292.18
412.609	259.41
412.818	275.79
413.026	286.03
413.234	384.34
413.443	306.51
413.651	310.61
413.86	341.33
414.068	324.94
414.276	361.81
414.485	341.33
414.693	380.24
414.901	437.58
415.11	460.11
415.318	402.77
415.526	453.97
415.734	408.91
415.943	353.62
416.151	456.01
416.359	501.07
416.567	468.3
416.776	566.6
416.984	537.93
417.192	472.4
417.4	599.37
417.608	490.83
417.817	673.1
418.025	673.1
418.233	628.04
418.441	605.52
418.649	724.3
418.857	744.78
419.065	728.39
419.273	673.1
419.481	726.35
419.689	847.18
419.897	849.22
420.105	902.47
420.313	933.19
420.521	933.19
420.729	922.95
420.937	937.29
421.145	1088.84
421.353	1056.07
421.561	1082.69
421.769	1045.83
421.977	1185.09
422.185	1137.99
422.393	1256.77
422.601	1307.97
422.809	1307.97
423.017	1297.73
423.224	1346.88
423.432	1365.31
423.64	1449.28
423.848	1606.97
424.056	1439.04
424.263	1537.34
424.471	1805.63
424.679	1727.8
424.887	1701.18
425.094	1766.71
425.302	1762.62
425.51	1766.71
425.718	1951.03
425.925	1932.6
426.133	1971.51
426.341	2061.62
426.548	2196.79
426.756	2266.42
426.964	2121.01
427.171	2377.01
427.379	2487.6
427.586	2444.59
427.794	2559.28
428.001	2686.25
428.209	2811.18
428.417	2831.66
428.624	2968.87
428.832	2940.2
429.039	2917.67
429.247	2921.77
429.454	3101.99
429.662	3407.14
429.869	3185.96
430.076	3362.08
430.284	3386.66
430.491	3429.66
430.699	3415.33
430.906	3667.23
431.114	3695.9
431.321	3878.17
431.528	3896.6
431.736	4265.24
431.943	4240.66
432.15	4103.45
432.358	4168.98
432.565	4547.86
432.772	4500.75
432.979	4746.51
433.187	4912.39
433.394	4789.52
433.601	5207.3
433.808	5147.91
434.016	5094.66
434.223	5459.2
434.43	5694.72
434.637	5641.47
434.844	5948.67
435.052	6180.09
435.259	6055.16
435.466	6096.12
435.673	6016.25
435.88	6341.88
436.087	6851.82
436.294	6821.1
436.501	6651.12
436.708	6825.2
436.915	6923.5
437.122	7165.16
437.329	7281.89
437.537	7417.06
437.743	7642.34
437.95	7781.6
438.157	7959.77
438.364	8137.95
438.571	8119.51
438.778	8301.78
438.985	8907.98
439.192	8479.96
439.399	9028.81
439.606	8721.62
439.813	9295.05
440.02	9790.66
440.227	9671.87
440.433	9589.95
440.64	10036.41
440.847	9839.81
441.054	10267.83
441.261	10654.9
441.467	10624.18
441.674	10853.55
441.881	11216.04
442.088	11197.61
442.294	11195.56
442.501	11388.07
442.708	11711.65
442.914	12250.27
443.121	12635.28
443.328	12434.58
443.534	13169.8
443.741	12672.15
443.948	12631.19
444.154	13517.96
444.361	13649.03
444.568	13597.83
444.774	13579.4
444.981	13984.9
445.187	14032
445.394	14779.51
445.6	14634.1
445.807	15891.55
446.013	15432.81
446.22	15420.52
446.426	16464.99
446.633	16622.68
446.839	17134.67
447.046	16383.07
447.252	17187.92
447.459	17271.89
447.665	17275.98
447.871	18201.66
448.078	18723.9
448.284	17953.86
448.491	18347.07
448.697	19194.93
448.903	19688.49
449.11	19618.86
449.316	19405.87
449.522	19520.56
449.728	20050.98
449.935	20311.07
450.141	20161.57
450.347	20837.4
450.553	20493.34
450.76	20554.78
450.966	21224.47
451.172	20810.78
451.378	21861.38
451.584	21312.53
451.791	21556.24
451.997	21801.99
452.203	22242.31
452.409	22107.14
452.615	21892.1
452.821	21312.53
453.027	20894.74
453.233	22250.5
453.44	21296.14
453.646	21371.92
453.852	21353.49
454.058	21830.66
454.264	21251.09
454.47	21486.61
454.676	21079.06
454.882	22180.87
455.088	20233.25
455.294	20317.22
455.5	20927.51
455.705	20999.19
455.911	20278.3
456.117	19819.56
456.323	19319.85
456.529	18490.43
456.735	19166.26
456.941	18877.49
457.147	18402.36
457.352	17697.86
457.558	17734.73
457.764	17701.96
457.97	17398.86
458.176	16913.49
458.381	16981.07
458.587	16211.04
458.793	16395.36
458.999	15279.21
459.204	16546.9
459.41	16047.2
459.616	15193.2
459.821	15053.94
460.027	15000.69
460.233	14609.53
460.438	13651.08
460.644	14011.52
460.85	13323.4
461.055	13214.86
461.261	13102.22
461.466	12098.72
461.672	11773.09
461.878	12493.97
462.083	11807.91
462.289	11513
462.494	11359.4
462.7	10876.08
462.905	10808.5
463.111	10912.94
463.316	11146.41
463.522	10804.4
463.727	10931.37
463.932	10912.94
464.138	10833.07
464.343	10728.63
464.549	10734.77
464.754	10960.05
464.959	10622.13
465.165	10788.02
465.37	10288.31
465.575	10083.52
465.781	10362.04
465.986	10458.29
466.191	10024.12
466.397	10015.93
466.602	9587.91
466.807	9577.67
467.012	9729.22
467.218	9444.55
467.423	9647.3
467.628	9749.7
467.833	9880.77
468.038	9743.55
468.244	9356.49
468.449	9751.74
468.654	9563.33
468.859	9360.58
469.064	9630.91
469.269	8848.59
469.474	9084.11
469.679	9071.82
469.885	8957.13
470.09	8991.95
470.295	9024.72
470.5	8821.97
470.705	8907.98
470.91	8678.61
471.115	8461.52
471.32	8805.58
471.525	8647.89
471.73	8518.87
471.935	8645.84
472.139	8340.69
472.344	8273.11
472.549	8183
472.754	8051.93
472.959	7929.05
473.164	7771.36
473.369	7789.79
473.574	7890.14
473.778	7945.44
473.983	7824.61
474.188	7679.2
474.393	7326.95
474.598	7531.75
474.802	7386.34
475.007	7443.68
475.212	7382.24
475.417	7185.64
475.621	7140.58
475.826	7199.98
476.031	7070.95
476.235	6872.3
476.44	7021.8
476.645	6925.55
476.849	6925.55
477.054	6798.57
477.259	6569.2
477.463	6857.96
477.668	6677.74
477.872	6561.01
478.077	6409.46
478.282	6294.77
478.486	6257.91
478.691	6139.13
478.895	6159.61
479.1	6075.64
479.304	6360.31
479.509	5862.65
479.713	6120.7
479.918	6003.96
480.122	5973.24
480.326	6008.06
480.531	5954.81
480.735	5930.23
480.94	5819.64
481.144	6112.5
481.348	5790.97
481.553	5727.49
481.757	5801.21
481.961	6036.73
482.166	5780.73
482.37	5637.38
482.574	5674.24
482.778	5778.69
482.983	5864.7
483.187	5750.01
483.391	5688.57
483.595	5717.25
483.8	5655.81
484.004	5917.95
484.208	5917.95
484.412	5838.08
484.616	5760.25
484.821	5924.09
485.025	5659.9
485.229	5729.53
485.433	5741.82
485.637	5725.44
485.841	5635.33
486.045	5631.23
486.249	5713.15
486.453	5739.77
486.657	5854.46
486.861	5680.38
487.065	5647.62
487.269	5690.62
487.473	5696.77
487.677	5897.47
487.881	5799.16
488.085	5836.03
488.289	5731.58
488.493	5774.59
488.697	5754.11
488.901	5770.49
489.105	5825.79
489.309	5956.86
489.512	5803.26
489.716	5868.8
489.92	5770.49
490.124	5897.47
490.328	5995.77
490.531	5797.12
490.735	5989.63
490.939	6006.01
491.143	6089.98
491.346	5872.89
491.55	6180.09
491.754	6053.11
491.958	6126.84
492.161	6059.26
492.365	6059.26
492.569	6053.11
492.772	6112.5
492.976	6124.79
493.18	6198.52
493.383	6253.81
493.587	6466.8
493.79	6524.15
493.994	6395.12
494.197	6585.58
494.401	6495.47
494.605	6479.09
494.808	6728.94
495.012	6778.09
495.215	6671.6
495.419	6782.19
495.622	6589.68
495.825	7023.85
496.029	6747.37
496.232	6968.55
496.436	7034.09
496.639	7058.67
496.843	7111.91
497.046	7167.21
497.249	7273.7
497.453	7271.65
497.656	7306.47
497.859	7488.74
498.063	7640.29
498.266	7650.53
498.469	7650.53
498.673	7681.25
498.876	7988.44
499.079	8017.11
499.282	7994.59
499.485	8322.26
499.689	8334.55
499.892	8383.7
500.095	8479.96
500.298	8617.17
500.501	8424.66
500.705	8869.07
500.908	8733.9
501.111	8928.46
501.314	9102.54
501.517	9102.54
501.72	9147.59
501.923	9315.53
502.126	9657.54
502.329	9651.39
502.532	9753.79
502.735	9903.29
502.938	9972.93
503.141	10007.74
503.344	10067.13
503.547	10114.23
503.75	10321.08
503.953	10650.8
504.156	10579.12
504.359	10724.53
504.562	10767.54
504.765	11060.4
504.968	11252.91
505.17	11189.42
505.373	11377.83
505.576	11771.04
505.779	11619.49
505.982	11873.44
506.185	12256.41
506.387	12231.83
506.59	12174.49
506.793	12651.67
506.996	12397.72
507.198	12940.43
507.401	12737.68
507.604	12924.05
507.807	13485.19
508.009	13364.36
508.212	13550.73
508.415	13536.39
508.617	13880.45
508.82	13927.55
509.022	13892.74
509.225	14462.07
509.428	14548.09
509.63	14603.38
509.833	14781.56
510.035	15027.31
510.238	14781.56
510.44	14924.91
510.643	15518.82
510.845	15653.99
511.048	15731.81
511.25	15740.01
511.453	15813.73
511.655	16616.54
511.858	16163.93
512.06	16256.09
512.262	16690.26
512.465	16641.11
512.667	16897.11
512.87	17151.06
513.072	17507.4
513.274	17826.89
513.477	17980.48
513.679	18119.74
513.881	18426.94
514.084	18148.42
514.286	18349.12
514.488	18740.28
514.69	19223.6
514.893	19387.44
515.095	19217.46
515.297	19391.53
515.499	19715.11
515.701	19850.28
515.904	19993.64
516.106	20263.97
516.308	20327.46
516.51	20589.6
516.712	20861.97
516.914	21117.97
517.116	21359.63
517.318	21449.74
517.52	21773.32
517.722	21769.23
517.925	22170.63
518.127	22408.19
518.329	22402.05
518.531	22619.13
518.733	22803.45
518.935	23264.24
519.136	23231.47
519.338	23692.27
519.54	23714.8
519.742	23964.65
519.944	23811.05
520.146	24476.64
520.348	24591.33
520.55	24605.66
520.752	24824.79
520.954	25316.31
521.155	24941.53
521.357	25336.79
521.559	25912.27
521.761	26293.19
521.963	25930.7
522.164	26352.58
522.366	26584
522.568	26719.17
522.77	26633.15
522.971	27059.13
523.173	26948.54
523.375	27300.79
523.576	27464.63
523.778	27880.36
523.98	28079.02
524.181	28388.26
524.383	28273.57
524.584	28189.61
524.786	28447.65
524.988	28576.67
525.189	28707.74
525.391	29201.3
525.592	29430.68
525.794	29236.12
525.995	29315.99
526.197	28806.05
526.398	29571.99
526.6	29965.2
526.801	30051.21
527.003	30327.69
527.204	30032.78
527.406	30385.03
527.607	30376.84
527.808	30374.79
528.01	30253.96
528.211	30704.51
528.412	31173.5
528.614	31171.45
528.815	30960.51
529.016	31269.75
529.218	31343.48
529.419	31353.72
529.62	31615.86
529.822	31155.07
530.023	31767.41
530.224	31239.03
530.425	31570.8
530.626	30919.55
530.828	31267.7
531.029	32037.74
531.23	31648.63
531.431	31730.55
531.632	31857.52
531.833	31679.35
532.035	31738.74
532.236	32150.38
532.437	32113.52
532.638	31738.74
532.839	32033.64
533.04	32312.17
533.241	32177
533.442	32508.77
533.643	32289.64
533.844	32160.62
534.045	32445.29
534.246	32275.3
534.447	32660.32
534.648	32033.64
534.849	32017.26
535.05	31890.29
535.251	32613.22
535.451	31951.73
535.652	32496.49
535.853	32277.35
536.054	32213.87
536.255	32230.25
536.456	32351.08
536.657	32824.16
536.857	31951.73
537.058	32537.44
537.259	32852.83
537.46	32572.26
537.66	32174.95
537.861	32203.63
538.062	32043.88
538.263	32580.45
538.463	32600.93
538.664	32310.12
538.865	32379.75
539.065	32770.91
539.266	32398.18
539.466	32844.64
539.667	32258.92
539.868	32418.66
540.068	32836.45
540.269	32152.43
540.469	32455.53
540.67	32443.24
540.87	32199.53
541.071	32433
541.271	32523.11
541.472	32525.16
541.672	32166.76
541.873	32115.56
542.073	31908.72
542.274	32691.04
542.474	32441.19
542.675	31886.19
542.875	32740.19
543.075	32230.25
543.276	32254.83
543.476	32705.38
543.676	32306.02
543.877	32400.23
544.077	32154.47
544.277	32398.18
544.478	32267.11
544.678	32531.3
544.878	32553.83
545.078	32564.07
545.279	32054.12
545.479	32328.55
545.679	32469.86
545.879	32342.89
546.079	32602.98
546.28	32301.93
546.48	32101.23
546.68	32570.21
546.88	32611.17
547.08	32387.94
547.28	32158.57
547.48	32179.05
547.68	32342.89
547.88	31906.67
548.081	32629.6
548.281	32447.33
548.481	32308.07
548.681	32496.49
548.881	32115.56
549.081	32164.71
549.28	32353.13
549.48	32351.08
549.68	32011.12
549.88	32525.16
550.08	31964.01
550.28	32365.42
550.48	32113.52
550.68	32406.37
550.88	31845.23
551.08	32291.69
551.279	32394.09
551.479	32152.43
551.679	32207.72
551.879	32353.13
552.079	32023.4
552.278	32301.93
552.478	32187.24
552.678	32140.14
552.878	32521.06
553.077	31970.16
553.277	31947.63
553.477	32205.67
553.676	32142.19
553.876	32326.5
554.076	32228.2
554.275	32086.89
554.475	31511.41
554.674	31916.91
554.874	32080.75
555.074	31411.06
555.273	31783.79
555.473	32082.8
555.672	31460.21
555.872	31542.13
556.071	31964.01
556.271	32080.75
556.47	31314.81
556.67	31482.74
556.869	31794.03
557.068	31470.45
557.268	31370.1
557.467	31677.3
557.667	31476.6
557.866	31382.39
558.065	31400.82
558.265	31290.23
558.464	31167.35
558.663	31775.6
558.863	31216.51
559.062	31380.34
559.261	30968.7
559.461	31566.71
559.66	30964.6
559.859	31185.79
560.058	31181.69
560.258	31492.98
560.457	30952.32
560.656	31189.88
560.855	30739.33
561.054	30927.74
561.253	30733.18
561.453	30958.46
561.652	30450.56
561.851	30792.58
562.05	30671.75
562.249	30352.26
562.448	30925.69
562.647	30856.06
562.846	30370.69
563.045	30344.07
563.244	30180.23
563.443	30571.39
563.642	30204.81
563.841	30620.55
564.04	30280.58
564.239	30247.82
564.438	29805.45
564.637	30126.99
564.836	29899.66
565.035	30040.97
565.234	29936.52
565.432	30081.93
565.631	29838.22
565.83	29795.21
566.029	29813.65
566.228	29535.12
566.427	29617.04
566.625	29379.48
566.824	29270.93
567.023	29571.99
567.222	28924.83
567.42	29674.38
567.619	29076.38
567.818	29004.7
568.016	29135.77
568.215	29291.41
568.414	28830.62
568.612	29514.64
568.811	28945.31
569.01	28836.77
569.208	28439.46
569.407	28685.22
569.605	28509.09
569.804	28746.65
570.002	28533.67
570.201	28588.96
570.4	28591.01
570.598	28298.15
570.797	28220.33
570.995	28076.97
571.193	28005.29
571.392	28359.59
571.59	28062.63
571.789	27833.26
571.987	28033.96
572.186	27773.87
572.384	27468.72
572.582	27560.88
572.781	27808.69
572.979	27571.12
573.177	27732.91
573.376	27349.94
573.574	27237.3
573.772	27343.8
573.971	27114.42
574.169	27095.99
574.367	27001.79
574.565	27014.07
574.763	26956.73
574.962	26616.77
575.16	26512.32
575.358	26584
575.556	26696.64
575.754	26977.21
575.952	26368.96
576.151	26770.36
576.349	26235.85
576.547	26221.51
576.745	26297.28
576.943	26229.7
577.141	26002.38
577.339	25973.71
577.537	26160.07
577.735	26029
577.933	25951.18
578.131	26006.47
578.329	25725.9
578.527	25535.44
578.725	25656.27
578.923	25723.85
579.121	25125.85
579.319	25261.01
579.516	25867.21
579.714	25484.24
579.912	25269.2
580.11	25502.67
580.308	25115.61
580.506	25084.89
580.704	24931.29
580.901	24945.62
581.099	24873.95
581.297	24611.81
581.495	24798.17
581.692	24765.4
581.89	24452.06
582.088	24759.26
582.285	24478.69
582.483	24382.43
582.681	24531.94
582.878	24490.98
583.076	24148.96
583.274	24407.01
583.471	23866.35
583.669	24140.77
583.866	23895.02
584.064	24058.85
584.262	23423.98
584.459	23978.98
584.657	23743.47
584.854	23712.75
585.052	23337.97
585.249	23464.94
585.447	23542.77
585.644	23065.59
585.841	23137.27
586.039	23430.13
586.236	22610.94
586.434	23204.85
586.631	22895.61
586.828	23186.42
587.026	22836.22
587.223	22750.2
587.42	22977.53
587.618	22770.68
587.815	22539.26
588.012	22434.81
588.21	22553.6
588.407	22602.75
588.604	22395.9
588.801	22518.78
588.999	22096.9
589.196	22637.56
589.393	22211.59
589.59	21945.35
589.787	22199.3
589.984	21961.73
590.182	21836.81
590.379	22057.99
590.576	21902.34
590.773	21562.38
590.97	21693.45
591.167	21801.99
591.364	21292.05
591.561	21576.72
591.758	21466.13
591.955	21167.12
592.152	21423.12
592.349	21265.42
592.546	21115.92
592.743	21173.27
592.94	20876.31
593.137	21150.74
593.334	21390.35
593.531	20792.34
593.727	21117.97
593.924	20780.06
594.121	20665.37
594.318	20997.14
594.515	20454.43
594.712	20542.49
594.908	20237.34
595.105	20558.88
595.302	20341.79
595.499	20608.03
595.696	20214.82
595.892	20069.41
596.089	19944.49
596.286	20118.56
596.482	19954.72
596.679	20200.48
596.876	19985.44
597.072	19885.09
597.269	19921.96
597.466	19450.92
597.662	19487.79
597.859	19606.57
598.055	19725.35
598.252	19264.56
598.448	19422.25
598.645	19536.94
598.841	19319.85
599.038	19260.46
599.234	19258.42
599.431	19014.71
599.627	18936.88
599.824	19190.83
600.02	19096.63
600.217	18986.04
600.413	18768.95
600.609	18893.88
600.806	18906.16
601.002	18828.34
601.198	18465.85
601.395	18570.3
601.591	18529.34
601.787	18494.52
601.984	18428.99
602.18	18551.87
602.376	18433.08
602.572	18082.88
602.769	18435.13
602.965	17980.48
603.161	18058.31
603.357	18183.23
603.553	18209.86
603.75	17890.37
603.946	17855.56
604.142	18093.12
604.338	17620.04
604.534	17884.23
604.73	17644.62
604.926	17728.58
605.122	17839.17
605.318	17298.51
605.514	17419.34
605.71	17153.1
605.906	17505.35
606.102	17232.97
606.298	17415.24
606.494	17300.56
606.69	17235.02
606.886	17042.51
607.082	17187.92
607.278	17167.44
607.474	16606.3
607.67	16911.44
607.866	16854.1
608.062	16946.26
608.257	16757.85
608.453	16888.92
608.649	16712.79
608.845	16860.24
609.041	16753.75
609.236	16776.28
609.432	16598.1
609.628	16534.62
609.824	16616.54
610.019	16432.22
610.215	16469.08
610.411	16657.5
610.606	16602.2
610.802	16077.92
610.998	16333.92
611.193	16024.67
611.389	16153.69
611.584	16272.48
611.78	15991.91
611.976	16194.65
612.171	16071.78
612.367	16016.48
612.562	15936.61
612.758	15959.14
612.953	15756.39
613.149	16084.06
613.344	15871.08
613.539	16073.82
613.735	15756.39
613.93	15930.47
614.126	15701.09
614.321	15823.97
614.517	15680.61
614.712	15682.66
614.907	15545.45
615.103	15850.6
615.298	15416.43
615.493	15713.38
615.688	15346.8
615.884	15795.3
616.079	15299.69
616.274	15307.88
616.47	15293.55
616.665	15498.34
616.86	15365.23
617.055	15209.58
617.25	15082.61
617.445	15240.3
617.641	14875.76
617.836	15264.88
618.031	15041.65
618.226	15203.44
618.421	14722.16
618.616	15144.05
618.811	14990.45
619.006	15045.74
619.201	14472.31
619.396	14646.39
619.591	14584.95
619.786	14568.57
619.981	14335.1
620.176	14554.23
620.371	14173.31
620.566	14265.47
620.761	14365.82
620.956	14320.76
621.151	14068.86
621.346	14093.44
621.541	13655.17
621.735	14021.76
621.93	13780.1
622.125	13765.76
622.32	13390.98
622.515	13884.55
622.709	13378.7
622.904	13411.46
623.099	13423.75
623.294	13515.91
623.488	13161.61
623.683	13134.99
623.878	13073.55
624.072	13108.37
624.267	13018.25
624.462	12981.39
624.656	12922
624.851	12883.09
625.046	12596.37
625.24	12676.24
625.435	12600.47
625.629	12625.04
625.824	12270.75
626.018	12364.95
626.213	12111
626.407	12119.2
626.602	12188.83
626.796	12340.38
626.991	12280.99
627.185	12260.51
627.38	12000.41
627.574	11936.93
627.768	11730.08
627.963	11826.34
628.157	11781.28
628.352	11652.26
628.546	11586.72
628.74	11795.62
628.935	11343.02
629.129	11484.33
629.323	11488.42
629.517	11338.92
629.712	11279.53
629.906	11263.15
630.1	11152.56
630.294	11234.47
630.489	10972.33
630.683	11103.4
630.877	10761.39
631.071	10861.74
631.265	10892.46
631.459	10794.16
631.653	10826.93
631.848	10611.89
632.042	10503.35
632.236	10618.04
632.43	10462.39
632.624	10456.25
632.818	10194.11
633.012	10120.38
633.206	10259.64
633.4	10364.09
633.594	10081.47
633.788	10083.52
633.982	10161.34
634.176	9952.45
634.369	10013.88
634.563	9850.05
634.757	9761.98
634.951	9852.09
635.145	9852.09
635.339	9649.35
635.533	9671.87
635.726	9649.35
635.92	9508.04
636.114	9630.91
636.308	9542.85
636.501	9391.3
636.695	9338.05
636.889	9276.62
637.083	9231.56
637.276	9071.82
637.47	9219.27
637.664	9202.89
637.857	9082.06
638.051	9125.07
638.244	8983.76
638.438	9010.38
638.632	8885.45
638.825	8797.39
639.019	8615.12
639.212	8678.61
639.406	8576.21
639.599	8735.95
639.793	8707.28
639.986	8352.98
640.18	8738
640.373	8312.02
640.567	8260.82
640.76	8369.37
640.954	8328.41
641.147	8180.95
641.34	8158.42
641.534	8244.44
641.727	8350.93
641.92	8266.97
642.114	8056.03
642.307	8015.07
642.5	7873.76
642.694	7861.47
642.887	7640.29
643.08	7832.8
643.273	7888.09
643.467	7746.78
643.66	7451.88
643.853	7484.64
644.046	7482.6
644.239	7417.06
644.432	7482.6
644.626	7564.51
644.819	7462.12
645.012	7339.24
645.205	7261.41
645.398	7212.26
645.591	7214.31
645.784	7165.16
645.977	7011.56
646.17	7138.54
646.363	6966.51
646.556	7029.99
646.749	7130.34
646.942	6837.48
647.135	6956.27
647.328	6653.17
647.521	6917.36
647.714	6716.65
647.907	6730.99
648.099	6563.06
648.292	6681.84
648.485	6393.08
648.678	6583.54
648.871	6653.17
649.064	6479.09
649.256	6479.09
649.449	6442.23
649.642	6419.7
649.835	6446.32
650.027	6348.02
650.22	6221.05
650.413	6259.96
650.605	6202.61
650.798	6255.86
650.991	6327.54
651.183	6059.26
651.376	5913.85
651.568	6149.37
651.761	6065.4
651.954	6028.54
652.146	5960.95
652.339	5952.76
652.531	5790.97
652.724	5938.43
652.916	5747.97
653.109	5838.08
653.301	5971.19
653.494	5801.21
653.686	5627.14
653.879	5719.29
654.071	5623.04
654.263	5610.75
654.456	5473.54
654.648	5612.8
654.84	5508.35
655.033	5430.53
655.225	5469.44
655.417	5399.81
655.61	5401.86
655.802	5346.56
655.994	5186.82
656.186	5436.67
656.379	5225.73
656.571	5272.84
656.763	4988.17
656.955	5229.83
657.148	5182.73
657.34	5070.09
657.532	4988.17
657.724	5115.14
657.916	5197.06
658.108	5121.29
658.3	4977.93
658.492	4996.36
658.684	4957.45
658.876	4922.63
659.068	4947.21
659.26	4746.51
659.452	4885.77
659.644	4658.45
659.836	4742.41
660.028	4814.09
660.22	4726.03
660.412	4721.93
660.604	4666.64
660.796	4695.31
660.988	4545.81
661.18	4545.81
661.372	4461.84
661.563	4556.05
661.755	4523.28
661.947	4613.39
662.139	4515.09
662.331	4472.08
662.522	4322.58
662.714	4461.84
662.906	4427.03
663.097	4406.55
663.289	4222.23
663.481	4289.81
663.673	4201.75
663.864	4195.61
664.056	4177.17
664.247	4207.89
664.439	4046.1
664.631	4207.89
664.822	4015.38
665.014	4109.59
665.205	4125.97
665.397	4060.44
665.588	3958.04
665.78	3958.04
665.971	4076.82
666.163	3906.84
666.354	4027.67
666.546	3939.61
666.737	3906.84
666.929	3843.35
667.12	3743
667.311	3798.3
667.503	3738.91
667.694	3806.49
667.885	3663.13
668.077	3781.92
668.268	3865.88
668.459	3759.39
668.651	3650.85
668.842	3755.29
669.033	3700
669.224	3568.93
669.416	3634.46
669.607	3646.75
669.798	3697.95
669.989	3542.3
670.18	3468.58
670.371	3573.02
670.563	3499.3
670.754	3573.02
670.945	3503.39
671.136	3530.02
671.327	3562.78
671.518	3421.47
671.709	3525.92
671.9	3433.76
672.091	3476.77
672.282	3482.91
672.473	3394.85
672.664	3351.84
672.855	3310.88
673.046	3421.47
673.237	3405.09
673.428	3241.25
673.619	3407.14
673.809	3282.21
674	3339.55
674.191	3335.46
674.382	3210.53
674.573	3245.35
674.764	3192.1
674.954	3267.88
675.145	3126.57
675.336	3194.15
675.527	3153.19
675.717	3138.85
675.908	3063.08
676.099	3204.39
676.289	3132.71
676.48	3196.2
676.671	3116.33
676.861	3161.38
677.052	3048.74
677.243	3079.46
677.433	3163.43
677.624	3042.6
677.814	2962.73
678.005	3087.65
678.195	3058.98
678.386	3104.04
678.576	3020.07
678.767	2909.48
678.957	3089.7
679.148	2915.62
679.338	3022.12
679.529	3032.36
679.719	2958.63
679.909	2979.11
680.1	2919.72
680.29	2938.15
680.481	2929.96
680.671	2960.68
680.861	2901.29
681.052	2956.58
681.242	3018.02
681.432	2966.82
681.622	2962.73
681.813	3003.69
682.003	2880.81
682.193	2823.47
682.383	3075.37
682.573	2886.95
682.764	2972.97
682.954	2884.91
683.144	2772.27
683.334	2889
683.524	2805.03
683.714	2821.42
683.904	2819.37
684.094	2872.62
684.284	2829.61
684.474	2927.91
684.664	2891.05
684.854	2829.61
685.044	2921.77
685.234	2757.93
685.424	2917.67
685.614	2716.97
685.804	2829.61
685.994	2794.79
686.184	2827.56
686.374	2946.34
686.564	2835.75
686.753	2788.65
686.943	2719.02
687.133	2755.88
687.323	2878.76
687.513	2774.31
687.702	2835.75
687.892	2733.36
688.082	2706.73
688.272	2727.21
688.461	2706.73
688.651	2825.51
688.841	2702.64
689.03	2682.16
689.22	2608.43
689.41	2776.36
689.599	2723.12
689.789	2741.55
689.979	2641.2
690.168	2694.44
690.358	2688.3
690.547	2575.66
690.737	2727.21
690.926	2624.81
691.116	2624.81
691.305	2665.77
691.495	2563.37
691.684	2628.91
691.874	2635.05
692.063	2612.53
692.252	2626.86
692.442	2592.05
692.631	2606.38
692.82	2606.38
693.01	2585.9
693.199	2614.57
693.388	2530.61
693.578	2571.57
693.767	2481.46
693.956	2530.61
694.146	2567.47
694.335	2508.08
694.524	2551.09
694.713	2460.98
694.902	2657.58
695.092	2393.39
695.281	2581.81
695.47	2489.65
695.659	2444.59
695.848	2444.59
696.037	2577.71
696.226	2514.22
696.415	2438.45
696.604	2592.05
696.793	2495.79
696.982	2493.74
697.171	2538.8
697.36	2569.52
697.549	2477.36
697.738	2465.07
697.927	2395.44
698.116	2477.36
698.305	2534.7
698.494	2446.64
698.683	2438.45
698.872	2428.21
699.061	2327.86
699.25	2344.24
699.438	2420.02
699.627	2311.47
699.816	2329.91
700.005	2370.87
700.193	2352.43
700.382	2391.34
700.571	2340.15
700.76	2325.81
700.948	2413.87
701.137	2276.66
701.326	2321.71
701.514	2309.43
701.703	2313.52
701.892	2358.58
702.08	2446.64
702.269	2329.91
702.457	2250.03
702.646	2319.67
702.834	2293.04
703.023	2321.71
703.212	2293.04
703.4	2336.05
703.589	2321.71
703.777	2219.32
703.965	2305.33
704.154	2309.43
704.342	2233.65
704.531	2284.85
704.719	2284.85
704.907	2290.99
705.096	2239.8
705.284	2215.22
705.472	2100.53
705.661	2198.84
705.849	2239.8
706.037	2149.68
706.226	2221.36
706.414	2161.97
706.602	2168.12
706.79	2252.08
706.979	2168.12
707.167	2080.05
707.355	2149.68
707.543	2147.64
707.731	2092.34
707.919	2108.73
708.107	2186.55
708.296	2159.92
708.484	2078.01
708.672	2114.87
708.86	2133.3
709.048	2143.54
709.236	2084.15
709.424	2164.02
709.612	2151.73
709.8	2104.63
709.988	2075.96
710.176	2065.72
710.364	2196.79
710.551	2051.38
710.739	1955.13
710.927	2186.55
711.115	2088.25
711.303	2125.11
711.491	2061.62
711.679	2090.29
711.866	2059.57
712.054	1977.66
712.242	2035
712.43	1963.32
712.617	2026.81
712.805	2018.61
712.993	2100.53
713.181	1946.94
713.368	1998.13
713.556	2098.49
713.744	1895.74
713.931	1987.89
714.119	1965.37
714.306	1981.75
714.494	2020.66
714.682	1959.22
714.869	2026.81
715.057	1996.09
715.244	1893.69
715.432	1883.45
715.619	1957.18
715.807	1899.83
715.994	1846.59
716.182	1910.07
716.369	1928.5
716.556	2000.18
716.744	1881.4
716.931	1895.74
717.119	1946.94
717.306	1830.2
717.493	1801.53
717.681	1885.5
717.868	1858.87
718.055	1838.39
718.242	1891.64
718.43	1867.06
718.617	1899.83
718.804	1860.92
718.991	1817.91
719.179	1801.53
719.366	1867.06
719.553	1801.53
719.74	1711.42
719.927	1832.25
720.114	1758.52
720.301	1832.25
720.488	1873.21
720.676	1768.76
720.863	1830.2
721.05	1760.57
721.237	1819.96
721.424	1793.34
721.611	1838.39
721.798	1801.53
721.985	1838.39
722.172	1690.94
722.358	1727.8
722.545	1809.72
722.732	1709.37
722.919	1781.05
723.106	1754.43
723.293	1735.99
723.48	1637.69
723.667	1682.75
723.853	1635.64
724.04	1764.67
724.227	1713.47
724.414	1690.94
724.6	1709.37
724.787	1641.79
724.974	1721.66
725.161	1629.5
725.347	1721.66
725.534	1680.7
725.72	1668.41
725.907	1666.36
726.094	1682.75
726.28	1703.23
726.467	1590.59
726.653	1668.41
726.84	1670.46
727.027	1561.92
727.213	1686.84
727.4	1545.53
727.586	1619.26
727.773	1633.6
727.959	1563.97
728.145	1664.32
728.332	1533.25
728.518	1576.25
728.705	1559.87
728.891	1555.77
729.077	1555.77
729.264	1512.77
729.45	1629.5
729.636	1682.75
729.823	1586.49
730.009	1611.07
730.195	1547.58
730.382	1506.62
730.568	1606.97
730.754	1570.11
730.94	1527.1
731.126	1537.34
731.313	1545.53
731.499	1510.72
731.685	1541.44
731.871	1553.73
732.057	1563.97
732.243	1649.98
732.429	1574.21
732.615	1453.38
732.801	1529.15
732.987	1463.61
733.173	1531.2
733.359	1580.35
733.545	1492.29
733.731	1441.09
733.917	1469.76
734.103	1459.52
734.289	1477.95
734.475	1447.23
734.661	1467.71
734.847	1469.76
735.033	1516.86
735.219	1537.34
735.404	1578.3
735.59	1465.66
735.776	1467.71
735.962	1518.91
736.148	1563.97
736.333	1359.17
736.519	1475.9
736.705	1553.73
736.89	1496.38
737.076	1459.52
737.262	1494.33
737.447	1379.65
737.633	1500.48
737.819	1400.13
738.004	1340.74
738.19	1449.28
738.375	1461.57
738.561	1447.23
738.747	1365.31
738.932	1430.85
739.118	1453.38
739.303	1367.36
739.489	1389.89
739.674	1361.22
739.859	1420.61
740.045	1336.64
740.23	1334.59
740.416	1367.36
740.601	1465.66
740.786	1410.37
740.972	1340.74
741.157	1473.85
741.342	1330.5
741.528	1342.78
741.713	1359.17
741.898	1262.91
742.084	1355.07
742.269	1393.98
742.454	1172.8
742.639	1273.15
742.824	1330.5
743.01	1197.38
743.195	1299.78
743.38	1224
743.565	1322.31
743.75	1279.3
743.935	1264.96
744.12	1262.91
744.305	1205.57
744.49	1344.83
744.675	1244.48
744.86	1256.77
745.045	1324.35
745.23	1285.44
745.415	1258.82
745.6	1191.24
745.785	1254.72
745.97	1228.1
746.155	1152.32
746.34	1213.76
746.525	1176.9
746.71	1224
746.895	1236.29
747.079	1219.91
747.264	1183.04
747.449	1168.71
747.634	1242.43
747.819	1133.89
748.003	1121.6
748.188	1146.18
748.373	1166.66
748.557	1060.17
748.742	1086.79
748.927	1121.6
749.111	1144.13
749.296	1127.75
749.481	1146.18
749.665	1123.65
749.85	1099.08
750.034	1043.78
750.219	1037.64
750.404	1084.74
750.588	1076.55
750.773	996.68
750.957	1004.87
751.141	1105.22
751.326	908.62
751.51	1074.5
751.695	990.53
751.879	963.91
752.064	1078.6
752.248	986.44
752.432	1015.11
752.617	1013.06
752.801	953.67
752.985	998.73
753.17	992.58
753.354	996.68
753.538	961.86
753.722	945.48
753.907	904.52
754.091	965.96
754.275	963.91
754.459	906.57
754.643	912.71
754.828	857.42
755.012	896.33
755.196	886.09
755.38	857.42
755.564	892.23
755.748	822.6
755.932	814.41
756.116	865.61
756.3	888.14
756.484	802.12
756.668	752.97
756.852	834.89
757.036	863.56
757.22	820.55
757.404	855.37
757.588	939.33
757.772	814.41
757.956	783.69
758.14	836.94
758.323	836.94
758.507	853.32
758.691	761.16
758.875	750.92
759.059	806.22
759.242	736.59
759.426	626
759.61	843.08
759.794	793.93
759.977	755.02
760.161	761.16
760.345	740.68
760.528	824.65
760.712	697.67
760.895	707.91
761.079	666.96
761.263	709.96
761.446	699.72
761.63	714.06
761.813	732.49
761.997	699.72
762.18	742.73
762.364	746.83
762.547	701.77
762.731	619.85
762.914	701.77
763.098	662.86
763.281	675.15
763.464	726.35
763.648	671.05
763.831	621.9
764.015	623.95
764.198	671.05
764.381	666.96
764.564	632.14
764.748	619.85
764.931	718.15
765.114	630.09
765.297	685.39
765.481	644.43
765.664	640.33
765.847	671.05
766.03	582.99
766.213	607.56
766.397	687.43
766.58	597.32
766.763	609.61
766.946	630.09
767.129	628.04
767.312	595.28
767.495	707.91
767.678	582.99
767.861	566.6
768.044	591.18
768.227	626
768.41	572.75
768.593	554.32
768.776	634.19
768.959	582.99
769.142	599.37
769.324	601.42
769.507	556.36
769.69	582.99
769.873	623.95
770.056	593.23
770.239	539.98
770.421	552.27
770.604	638.28
770.787	636.24
770.97	628.04
771.152	613.71
771.335	572.75
771.518	527.69
771.7	564.56
771.883	599.37
772.066	496.97
772.248	544.08
772.431	490.83
772.613	539.98
772.796	478.54
772.978	513.36
773.161	505.17
773.343	488.78
773.526	486.73
773.708	568.65
773.891	556.36
774.073	464.21
774.256	453.97
774.438	570.7
774.621	576.84
774.803	544.08
774.985	505.17
775.168	447.82
775.35	546.12
775.532	447.82
775.715	505.17
775.897	472.4
776.079	556.36
776.261	462.16
776.444	460.11
776.626	433.49
776.808	511.31
776.99	429.39
777.173	492.88
777.355	435.53
777.537	433.49
777.719	441.68
777.901	451.92
778.083	445.77
778.265	431.44
778.447	486.73
778.629	390.48
778.811	382.29
778.993	382.29
779.175	347.47
779.357	462.16
779.539	492.88
779.721	370
779.903	472.4
780.085	488.78
780.267	423.25
780.449	363.86
780.631	449.87
780.812	439.63
780.994	382.29
781.176	322.9
781.358	372.05
781.54	347.47
781.721	363.86
781.903	335.18
782.085	423.25
782.267	339.28
782.448	292.18
782.63	343.38
782.812	361.81
782.993	306.51
783.175	326.99
783.357	322.9
783.538	355.66
783.72	318.8
783.901	363.86
784.083	324.94
784.264	421.2
784.446	353.62
784.627	353.62
784.809	355.66
784.99	413.01
785.172	339.28
785.353	370
785.535	294.22
785.716	310.61
785.897	216.4
786.079	300.37
786.26	273.75
786.441	243.03
786.623	169.3
786.804	240.98
786.985	263.51
787.167	339.28
787.348	361.81
787.529	290.13
787.71	269.65
787.891	290.13
788.073	251.22
788.254	240.98
788.435	314.7
788.616	267.6
788.797	238.93
788.978	253.27
789.159	238.93
789.34	255.31
789.522	318.8
789.703	265.55
789.884	251.22
790.065	179.54
790.246	243.03
790.427	169.3
790.607	275.79
790.788	251.22
790.969	245.07
791.15	208.21
791.331	249.17
791.512	220.5
791.693	222.55
791.874	247.12
792.054	236.88
792.235	226.64
792.416	255.31
792.597	232.79
792.778	197.97
792.958	277.84
793.139	230.74
793.32	283.98
793.5	238.93
793.681	189.78
793.862	191.83
794.042	183.63
794.223	140.63
794.404	175.44
794.584	140.63
794.765	218.45
794.945	202.07
795.126	228.69
795.306	169.3
795.487	208.21
795.667	195.92
795.848	277.84
796.028	226.64
796.209	183.63
796.389	171.35
796.57	177.49
796.75	261.46
796.93	140.63
797.111	240.98
797.291	206.16
797.471	150.87
797.652	161.11
797.832	210.26
798.012	240.98
798.192	212.31
798.373	161.11
798.553	191.83
798.733	154.96
798.913	81.24
799.093	238.93
799.274	150.87
799.454	222.55
799.634	114
799.814	212.31
799.994	204.11
800.174	275.79
800.354	224.59
800.534	232.79
800.714	130.39
800.894	144.72
801.074	107.86
801.254	175.44
801.434	175.44
801.614	95.57
801.794	144.72
801.974	400.72
802.154	126.29
802.334	159.06
802.514	259.41
802.693	71
802.873	154.96
803.053	91.48
803.233	171.35
803.413	159.06
803.592	150.87
803.772	101.72
803.952	148.82
804.131	97.62
804.311	146.77
804.491	169.3
804.67	114
804.85	62.8
805.03	187.73
805.209	189.78
805.389	120.15
805.568	191.83
805.748	105.81
805.928	103.76
806.107	111.96
806.287	111.96
806.466	173.39
806.646	105.81
806.825	114
807.004	114
807.184	200.02
807.363	159.06
807.543	46.42
807.722	175.44
807.901	132.44
808.081	73.04
808.26	66.9
808.439	138.58
808.619	124.24
808.798	165.2
808.977	97.62
809.156	105.81
809.336	77.14
809.515	152.91
809.694	85.33
809.873	99.67
810.052	93.52
810.231	134.48
810.411	142.68
810.59	150.87
810.769	64.85
810.948	124.24
811.127	66.9
811.306	159.06
811.485	118.1
811.664	175.44
811.843	91.48
812.022	111.96
812.201	111.96
812.38	89.43
812.559	79.19
812.737	71
812.916	109.91
813.095	173.39
813.274	95.57
813.453	83.28
813.632	114
813.811	95.57
813.989	107.86
814.168	101.72
814.347	124.24
814.526	132.44
814.704	163.15
814.883	126.29
815.062	154.96
815.24	52.56
815.419	122.2
815.598	91.48
815.776	93.52
815.955	122.2
816.133	62.8
816.312	60.76
816.49	95.57
816.669	79.19
816.847	132.44
817.026	109.91
817.204	126.29
817.383	77.14
817.561	23.89
817.74	101.72
817.918	140.63
818.097	36.18
818.275	46.42
818.453	83.28
818.632	48.47
818.81	81.24
818.988	73.04
819.167	58.71
819.345	25.94
819.523	116.05
819.701	120.15
819.879	114
820.058	71
820.236	89.43
820.414	-19.11
820.592	95.57
820.77	118.1
820.948	56.66
821.127	54.61
821.305	93.52
821.483	3.41
821.661	40.28
821.839	27.99
822.017	83.28
822.195	95.57
822.373	146.77
822.551	146.77
822.729	97.62
822.907	-47.79
823.085	101.72
823.262	52.56
823.44	116.05
823.618	25.94
823.796	93.52
823.974	17.75
824.152	103.76
824.329	150.87
824.507	118.1
824.685	-23.21
824.863	177.49
825.04	68.95
825.218	134.48
825.396	21.84
825.574	48.47
825.751	73.04
825.929	66.9
826.107	46.42
826.284	34.13
826.462	136.53
826.639	9.56
826.817	25.94
826.994	159.06
827.172	71
827.349	142.68
827.527	-45.74
827.704	11.61
827.882	116.05
828.059	120.15
828.237	79.19
828.414	54.61
828.591	15.7
828.769	44.37
828.946	62.8
829.124	101.72
829.301	79.19
829.478	60.76
829.655	27.99
829.833	52.56
830.01	48.47
830.187	85.33
830.364	13.65
830.542	56.66
830.719	27.99
830.896	99.67
831.073	148.82
831.25	60.76
831.427	52.56
831.604	77.14
831.782	60.76
831.959	77.14
832.136	32.08
832.313	128.34
832.49	109.91
832.667	75.09
832.844	-45.74
833.021	52.56
833.198	-12.97
833.374	77.14
833.551	66.9
833.728	27.99
833.905	64.85
834.082	9.56
834.259	30.04
834.436	1.37
834.612	-12.97
834.789	11.61
834.966	56.66
835.143	68.95
835.319	21.84
835.496	-8.87
835.673	36.18
835.85	30.04
836.026	120.15
836.203	44.37
836.38	40.28
836.556	93.52
836.733	36.18
836.909	91.48
837.086	40.28
837.262	27.99
837.439	56.66
837.616	-6.83
837.792	36.18
837.968	79.19
838.145	38.23
838.321	11.61
838.498	32.08
838.674	46.42
838.851	-41.64
839.027	71
839.203	62.8
839.38	75.09
839.556	-53.93
839.732	128.34
839.909	101.72
840.085	44.37
840.261	79.19
840.437	38.23
840.614	-58.03
840.79	54.61
840.966	68.95
841.142	68.95
841.318	38.23
841.494	21.84
841.671	36.18
841.847	44.37
842.023	38.23
842.199	7.51
842.375	107.86
842.551	7.51
842.727	73.04
842.903	75.09
843.079	-12.97
843.255	122.2
843.431	21.84
843.607	25.94
843.783	11.61
843.959	99.67
844.134	-17.07
844.31	-6.83
844.486	-39.59
844.662	19.8
844.838	-12.97
845.013	-21.16
845.189	93.52
845.365	19.8
845.541	64.85
845.716	101.72
845.892	46.42
846.068	-0.68
846.244	23.89
846.419	-88.75
846.595	52.56
846.77	-19.11
846.946	17.75
847.122	5.46
847.297	36.18
847.473	103.76
847.648	-47.79
847.824	75.09
847.999	36.18
848.175	21.84
848.35	27.99
848.526	-25.26
848.701	30.04
848.876	3.41
849.052	30.04
849.227	21.84
849.403	109.91
849.578	64.85
849.753	-27.31
849.929	-0.68
850.104	32.08
850.279	130.39
850.454	95.57
850.63	-4.78
850.805	3.41
850.98	-33.45
851.155	-0.68
851.33	52.56
851.505	15.7
851.681	48.47
851.856	-8.87
852.031	44.37
852.206	-17.07
852.381	-2.73
852.556	77.14
852.731	-0.68
852.906	34.13
853.081	27.99
853.256	27.99
853.431	64.85
853.606	23.89
853.781	77.14
853.956	15.7
854.131	-2.73
854.305	17.75
854.48	-23.21
854.655	19.8
854.83	11.61
855.005	-47.79
855.18	7.51
855.354	-47.79
855.529	62.8
855.704	1.37
855.879	97.62
856.053	-15.02
856.228	9.56
856.403	23.89
856.577	9.56
856.752	36.18
856.926	60.76
857.101	7.51
857.276	-4.78
857.45	5.46
857.625	19.8
857.799	-111.27
857.974	-2.73
858.148	-41.64
858.323	40.28
858.497	-19.11
858.672	-19.11
858.846	52.56
859.02	21.84
859.195	5.46
859.369	25.94
859.543	-58.03
859.718	44.37
859.892	27.99
860.066	50.52
860.241	19.8
860.415	-21.16
860.589	-29.35
860.763	52.56
860.938	25.94
861.112	-2.73
861.286	-27.31
861.46	-31.4
861.634	-23.21
861.808	19.8
861.982	-27.31
862.157	11.61
862.331	13.65
862.505	17.75
862.679	-8.87
862.853	-19.11
863.027	1.37
863.201	23.89
863.375	11.61
863.549	-33.45
863.722	15.7
863.896	3.41
864.07	44.37
864.244	52.56
864.418	-17.07
864.592	71
864.766	-72.36
864.939	-33.45
865.113	-0.68
865.287	13.65
865.461	-27.31
865.634	77.14
865.808	-31.4
865.982	30.04
866.156	-39.59
866.329	7.51
866.503	11.61
866.676	58.71
866.85	-4.78
867.024	7.51
867.197	60.76
867.371	23.89
867.544	-8.87
867.718	1.37
867.891	9.56
868.065	44.37
868.238	9.56
868.412	64.85
868.585	-35.5
868.759	-33.45
868.932	-23.21
869.105	44.37
869.279	-72.36
869.452	-27.31
869.625	62.8
869.799	40.28
869.972	44.37
870.145	54.61
870.319	-74.41
870.492	44.37
870.665	11.61
870.838	-29.35
871.011	-8.87
871.185	5.46
871.358	-10.92
871.531	-68.27
871.704	-45.74
871.877	-19.11
872.05	-4.78
872.223	56.66
872.396	-43.69
872.569	73.04
872.742	3.41
872.915	27.99
873.088	-92.84
873.261	-58.03
873.434	-8.87
873.607	23.89
873.78	-47.79
873.953	-60.07
874.126	30.04
874.299	81.24
874.471	40.28
874.644	7.51
874.817	13.65
874.99	34.13
875.163	38.23
875.335	13.65
875.508	7.51
875.681	-23.21
875.853	30.04
876.026	-41.64
876.199	-33.45
876.371	11.61
876.544	3.41
876.717	-0.68
876.889	3.41
877.062	42.32
877.234	73.04
877.407	-6.83
877.579	-53.93
877.752	13.65
877.924	66.9
878.097	-12.97
878.269	19.8
878.442	-43.69
878.614	21.84
878.786	-23.21
878.959	44.37
879.131	21.84
879.303	23.89
879.476	-33.45
879.648	-27.31
879.82	27.99
879.993	23.89
880.165	30.04
880.337	-21.16
880.509	38.23
880.681	-58.03
880.854	40.28
881.026	-8.87
881.198	-25.26
881.37	13.65
881.542	-23.21
881.714	11.61
881.886	11.61
882.058	-21.16
882.23	-25.26
882.402	-62.12
882.574	-2.73
882.746	-31.4
882.918	3.41
883.09	-41.64
883.262	36.18
883.434	-12.97
883.606	3.41
883.778	5.46
883.95	-25.26
884.122	-25.26
884.293	-6.83
884.465	5.46
884.637	30.04
884.809	5.46
884.98	11.61
885.152	-68.27
885.324	-4.78
885.496	38.23
885.667	-15.02
885.839	-29.35
886.011	42.32
886.182	-39.59
886.354	-2.73
886.525	-25.26
886.697	77.14
886.869	-23.21
887.04	60.76
887.212	48.47
887.383	44.37
887.555	3.41
887.726	-8.87
887.897	17.75
888.069	-23.21
888.24	38.23
888.412	44.37
888.583	-8.87
888.754	97.62
888.926	-27.31
889.097	-4.78
889.268	-10.92
889.44	95.57
889.611	5.46
889.782	-8.87
889.953	-2.73
890.125	3.41
890.296	-8.87
890.467	21.84
890.638	-37.55
890.809	-35.5
890.98	27.99
891.151	-4.78
891.323	-0.68
891.494	50.52
891.665	38.23
891.836	-29.35
892.007	-4.78
892.178	21.84
892.349	23.89
892.52	21.84
892.691	7.51
892.862	-29.35
893.032	13.65
893.203	5.46
893.374	13.65
893.545	-15.02
893.716	11.61
893.887	99.67
894.057	73.04
894.228	-21.16
894.399	15.7
894.57	-4.78
894.74	-19.11
894.911	19.8
895.082	5.46
895.253	-43.69
895.423	9.56
895.594	-6.83
895.764	9.56
895.935	-41.64
896.106	5.46
896.276	5.46
896.447	7.51
896.617	-15.02
896.788	62.8
896.958	13.65
897.129	36.18
897.299	-19.11
897.47	-0.68
897.64	32.08
897.81	48.47
897.981	11.61
898.151	3.41
898.322	42.32
898.492	-39.59
898.662	17.75
898.832	32.08
899.003	17.75
899.173	36.18
899.343	-70.31
899.513	5.46
