Data from USB4F104151__14__12-58-30-000.txt Node

Date: Fri Mar 14 12:58:30 EDT 2025
User: louis
Spectrometer: USB4F10415
Trigger mode: 4
Integration Time (sec): 1.000000E-2
Scans to average: 1
Electric dark correction enabled: true
Nonlinearity correction enabled: false
Boxcar width: 0
XAxis mode: Wavelengths
Number of Pixels in Spectrum: 3648
>>>>>Begin Spectral Data<<<<<
178.204	-10.24
178.424	-10.24
178.644	-10.24
178.864	-16.38
179.084	-20.48
179.304	8.19
179.524	18.43
179.744	-34.82
179.964	34.82
180.184	-14.34
180.404	20.48
180.624	49.15
180.844	6.14
181.064	-83.97
181.283	26.62
181.503	-8.19
181.723	-22.53
181.943	-59.39
182.163	-55.3
182.383	-30.72
182.602	18.43
182.822	12.29
183.042	-55.3
183.262	55.3
183.482	20.48
183.701	-26.62
183.921	-40.96
184.141	-14.34
184.361	-71.68
184.58	26.62
184.8	-20.48
185.02	102.4
185.239	-22.53
185.459	-20.48
185.679	-16.38
185.898	-12.29
186.118	40.96
186.338	71.68
186.557	8.19
186.777	-12.29
186.997	-10.24
187.216	51.2
187.436	55.3
187.655	22.53
187.875	30.72
188.095	20.48
188.314	-28.67
188.534	-14.34
188.753	-8.19
188.973	61.44
189.192	-10.24
189.412	55.3
189.631	-45.06
189.851	-12.29
190.07	38.91
190.29	43.01
190.509	22.53
190.729	18.43
190.948	45.06
191.168	149.5
191.387	-6.14
191.607	8.19
191.826	28.67
192.045	-18.43
192.265	96.25
192.484	38.91
192.704	6.14
192.923	-8.19
193.142	4.1
193.362	-28.67
193.581	-0
193.8	45.06
194.02	16.38
194.239	-69.63
194.458	30.72
194.678	-36.86
194.897	86.01
195.116	26.62
195.335	24.58
195.555	16.38
195.774	-22.53
195.993	-59.39
196.212	83.97
196.432	-10.24
196.651	16.38
196.87	-16.38
197.089	143.36
197.308	47.1
197.528	-4.1
197.747	12.29
197.966	20.48
198.185	24.58
198.404	28.67
198.623	8.19
198.842	-6.14
199.062	16.38
199.281	36.86
199.5	-0
199.719	32.77
199.938	-34.82
200.157	6.14
200.376	-0
200.595	32.77
200.814	20.48
201.033	-4.1
201.252	32.77
201.471	12.29
201.69	10.24
201.909	4.1
202.128	-18.43
202.347	40.96
202.566	-34.82
202.785	-10.24
203.004	53.25
203.223	55.3
203.442	28.67
203.661	38.91
203.879	4.1
204.098	49.15
204.317	-47.1
204.536	20.48
204.755	-16.38
204.974	-40.96
205.193	-14.34
205.411	-10.24
205.63	40.96
205.849	14.34
206.068	-12.29
206.287	24.58
206.505	38.91
206.724	53.25
206.943	6.14
207.162	6.14
207.381	10.24
207.599	-106.49
207.818	-6.14
208.037	-34.82
208.255	16.38
208.474	20.48
208.693	-18.43
208.911	24.58
209.13	28.67
209.349	16.38
209.567	75.77
209.786	83.97
210.005	-45.06
210.223	49.15
210.442	63.49
210.661	-36.86
210.879	14.34
211.098	45.06
211.316	-43.01
211.535	26.62
211.753	-4.1
211.972	-26.62
212.191	55.3
212.409	63.49
212.628	-18.43
212.846	4.1
213.065	63.49
213.283	63.49
213.502	55.3
213.72	18.43
213.938	-32.77
214.157	73.73
214.375	-12.29
214.594	-24.58
214.812	43.01
215.031	43.01
215.249	-18.43
215.467	51.2
215.686	22.53
215.904	63.49
216.122	6.14
216.341	-10.24
216.559	16.38
216.778	4.1
216.996	55.3
217.214	-0
217.432	45.06
217.651	-43.01
217.869	18.43
218.087	40.96
218.306	14.34
218.524	57.34
218.742	51.2
218.96	4.1
219.179	73.73
219.397	14.34
219.615	16.38
219.833	22.53
220.051	40.96
220.27	32.77
220.488	14.34
220.706	-38.91
220.924	4.1
221.142	30.72
221.36	-47.1
221.578	55.3
221.796	30.72
222.015	24.58
222.233	32.77
222.451	22.53
222.669	55.3
222.887	-40.96
223.105	24.58
223.323	28.67
223.541	-43.01
223.759	59.39
223.977	43.01
224.195	53.25
224.413	-12.29
224.631	-30.72
224.849	-0
225.067	40.96
225.285	34.82
225.503	-22.53
225.721	10.24
225.939	47.1
226.157	14.34
226.375	65.53
226.592	45.06
226.81	-36.86
227.028	59.39
227.246	-0
227.464	53.25
227.682	73.73
227.9	36.86
228.117	18.43
228.335	20.48
228.553	-8.19
228.771	-55.3
228.989	104.45
229.206	-38.91
229.424	-6.14
229.642	8.19
229.86	-30.72
230.077	-0
230.295	-6.14
230.513	98.3
230.731	57.34
230.948	38.91
231.166	-30.72
231.384	45.06
231.601	8.19
231.819	-20.48
232.037	-8.19
232.254	30.72
232.472	30.72
232.689	16.38
232.907	112.64
233.125	-10.24
233.342	18.43
233.56	49.15
233.777	-4.1
233.995	32.77
234.213	77.82
234.43	-0
234.648	-47.1
234.865	16.38
235.083	-43.01
235.3	20.48
235.518	10.24
235.735	28.67
235.953	63.49
236.17	-45.06
236.388	-10.24
236.605	-2.05
236.822	4.1
237.04	47.1
237.257	14.34
237.475	-53.25
237.692	114.69
237.909	131.07
238.127	-59.39
238.344	18.43
238.562	75.77
238.779	20.48
238.996	-0
239.214	86.01
239.431	24.58
239.648	-16.38
239.865	-24.58
240.083	20.48
240.3	-28.67
240.517	-65.54
240.735	-18.43
240.952	12.29
241.169	26.62
241.386	55.3
241.603	-8.19
241.821	10.24
242.038	55.3
242.255	-28.67
242.472	24.58
242.689	-36.86
242.907	81.92
243.124	16.38
243.341	59.39
243.558	-6.14
243.775	53.25
243.992	-10.24
244.209	38.91
244.426	75.77
244.643	57.34
244.86	26.62
245.078	28.67
245.295	26.62
245.512	22.53
245.729	55.3
245.946	36.86
246.163	-2.05
246.38	30.72
246.597	45.06
246.814	-59.39
247.031	-24.58
247.248	-10.24
247.464	49.15
247.681	49.15
247.898	8.19
248.115	43.01
248.332	-12.29
248.549	49.15
248.766	20.48
248.983	38.91
249.2	90.11
249.417	59.39
249.633	30.72
249.85	8.19
250.067	18.43
250.284	6.14
250.501	69.63
250.717	36.86
250.934	-30.72
251.151	-45.06
251.368	-34.82
251.585	45.06
251.801	-10.24
252.018	47.1
252.235	16.38
252.451	14.34
252.668	22.53
252.885	8.19
253.102	24.58
253.318	2.05
253.535	83.97
253.752	2.05
253.968	14.34
254.185	18.43
254.401	-30.72
254.618	-2.05
254.835	67.58
255.051	55.3
255.268	24.58
255.484	-26.62
255.701	-0
255.917	-16.38
256.134	2.05
256.351	-16.38
256.567	-28.67
256.784	40.96
257	-0
257.217	30.72
257.433	61.44
257.65	-16.38
257.866	-22.53
258.082	-2.05
258.299	-18.43
258.515	34.82
258.732	45.06
258.948	30.72
259.165	26.62
259.381	16.38
259.597	-18.43
259.814	24.58
260.03	67.58
260.246	12.29
260.463	26.62
260.679	40.96
260.895	12.29
261.112	53.25
261.328	-26.62
261.544	-32.77
261.761	-8.19
261.977	-14.34
262.193	83.97
262.409	16.38
262.626	40.96
262.842	63.49
263.058	67.58
263.274	63.49
263.49	38.91
263.707	-14.34
263.923	12.29
264.139	-22.53
264.355	22.53
264.571	22.53
264.787	55.3
265.004	36.86
265.22	61.44
265.436	-10.24
265.652	108.54
265.868	65.53
266.084	57.34
266.3	92.16
266.516	6.14
266.732	34.82
266.948	28.67
267.164	104.45
267.38	53.25
267.596	-14.34
267.812	6.14
268.028	30.72
268.244	-26.62
268.46	-69.63
268.676	59.39
268.892	26.62
269.108	-8.19
269.324	30.72
269.54	16.38
269.756	-16.38
269.972	28.67
270.188	26.62
270.403	-0
270.619	-2.05
270.835	98.3
271.051	-6.14
271.267	32.77
271.483	-2.05
271.698	34.82
271.914	-40.96
272.13	-18.43
272.346	71.68
272.562	10.24
272.777	-4.1
272.993	-18.43
273.209	81.92
273.425	63.49
273.64	51.2
273.856	40.96
274.072	45.06
274.287	-55.3
274.503	-12.29
274.719	-6.14
274.934	10.24
275.15	6.14
275.366	-6.14
275.581	12.29
275.797	30.72
276.012	-20.48
276.228	63.49
276.444	-26.62
276.659	47.1
276.875	-55.3
277.09	36.86
277.306	-18.43
277.521	-6.14
277.737	12.29
277.952	32.77
278.168	55.3
278.383	63.49
278.599	-6.14
278.814	28.67
279.03	47.1
279.245	-0
279.461	67.58
279.676	49.15
279.892	-2.05
280.107	8.19
280.322	114.69
280.538	24.58
280.753	16.38
280.969	-22.53
281.184	18.43
281.399	86.01
281.615	6.14
281.83	-4.1
282.045	30.72
282.26	32.77
282.476	-16.38
282.691	83.97
282.906	45.06
283.122	-26.62
283.337	-36.86
283.552	22.53
283.767	-18.43
283.983	-20.48
284.198	10.24
284.413	18.43
284.628	-45.06
284.843	16.38
285.058	-10.24
285.274	38.91
285.489	16.38
285.704	-2.05
285.919	30.72
286.134	47.1
286.349	43.01
286.564	8.19
286.779	10.24
286.995	-51.2
287.21	34.82
287.425	32.77
287.64	43.01
287.855	34.82
288.07	-34.82
288.285	-6.14
288.5	98.3
288.715	49.15
288.93	-0
289.145	4.1
289.36	-2.05
289.575	-14.34
289.79	47.1
290.004	43.01
290.219	-0
290.434	49.15
290.649	-0
290.864	18.43
291.079	-38.91
291.294	-0
291.509	20.48
291.724	2.05
291.938	-24.58
292.153	18.43
292.368	-2.05
292.583	63.49
292.798	75.77
293.012	8.19
293.227	-32.77
293.442	49.15
293.657	-12.29
293.871	26.62
294.086	-0
294.301	34.82
294.516	6.14
294.73	-10.24
294.945	-57.34
295.16	24.58
295.374	-2.05
295.589	47.1
295.804	-0
296.018	28.67
296.233	122.88
296.447	53.25
296.662	-30.72
296.877	43.01
297.091	57.34
297.306	6.14
297.52	-22.53
297.735	18.43
297.949	6.14
298.164	-43.01
298.378	45.06
298.593	-24.58
298.807	16.38
299.022	-2.05
299.236	8.19
299.451	59.39
299.665	18.43
299.88	57.34
300.094	40.96
300.309	-4.1
300.523	12.29
300.737	40.96
300.952	14.34
301.166	106.49
301.381	24.58
301.595	-4.1
301.809	26.62
302.024	-57.34
302.238	-2.05
302.452	10.24
302.667	65.53
302.881	2.05
303.095	51.2
303.309	-36.86
303.524	10.24
303.738	26.62
303.952	-55.3
304.166	38.91
304.381	38.91
304.595	-24.58
304.809	14.34
305.023	67.58
305.237	12.29
305.452	-49.15
305.666	34.82
305.88	-4.1
306.094	-20.48
306.308	-22.53
306.522	61.44
306.736	57.34
306.95	63.49
307.164	-49.15
307.379	4.1
307.593	71.68
307.807	-30.72
308.021	-22.53
308.235	6.14
308.449	-30.72
308.663	-2.05
308.877	59.39
309.091	-51.2
309.305	49.15
309.519	-59.39
309.733	-8.19
309.947	-57.34
310.161	43.01
310.374	-8.19
310.588	16.38
310.802	32.77
311.016	-2.05
311.23	12.29
311.444	8.19
311.658	24.58
311.872	59.39
312.085	98.3
312.299	47.1
312.513	-2.05
312.727	55.3
312.941	-18.43
313.154	36.86
313.368	51.2
313.582	-43.01
313.796	6.14
314.009	47.1
314.223	28.67
314.437	67.58
314.651	81.92
314.864	-28.67
315.078	-20.48
315.292	14.34
315.505	2.05
315.719	55.3
315.933	63.49
316.146	83.97
316.36	6.14
316.573	67.58
316.787	12.29
317.001	-14.34
317.214	-30.72
317.428	40.96
317.641	77.82
317.855	63.49
318.068	16.38
318.282	47.1
318.495	112.64
318.709	-10.24
318.922	20.48
319.136	36.86
319.349	-2.05
319.563	49.15
319.776	-10.24
319.99	86.01
320.203	22.53
320.417	30.72
320.63	116.73
320.843	34.82
321.057	30.72
321.27	88.06
321.483	-28.67
321.697	38.91
321.91	73.73
322.124	36.86
322.337	86.01
322.55	32.77
322.763	-75.77
322.977	-6.14
323.19	51.2
323.403	32.77
323.617	45.06
323.83	22.53
324.043	59.39
324.256	67.58
324.469	18.43
324.683	16.38
324.896	10.24
325.109	-49.15
325.322	-2.05
325.535	59.39
325.748	40.96
325.962	-30.72
326.175	-26.62
326.388	-16.38
326.601	12.29
326.814	-0
327.027	-14.34
327.24	34.82
327.453	-16.38
327.666	81.92
327.879	8.19
328.092	22.53
328.305	-2.05
328.518	-20.48
328.731	55.3
328.944	38.91
329.157	8.19
329.37	36.86
329.583	43.01
329.796	92.16
330.009	22.53
330.222	22.53
330.435	-12.29
330.648	30.72
330.861	18.43
331.073	-0
331.286	69.63
331.499	14.34
331.712	40.96
331.925	24.58
332.138	32.77
332.35	38.91
332.563	-63.49
332.776	30.72
332.989	59.39
333.202	55.3
333.414	-53.25
333.627	-20.48
333.84	10.24
334.053	90.11
334.265	-12.29
334.478	12.29
334.691	10.24
334.903	-26.62
335.116	34.82
335.329	16.38
335.541	34.82
335.754	6.14
335.966	49.15
336.179	-0
336.392	12.29
336.604	114.69
336.817	79.87
337.029	14.34
337.242	16.38
337.454	-45.06
337.667	-51.2
337.88	16.38
338.092	10.24
338.305	90.11
338.517	67.58
338.729	-10.24
338.942	2.05
339.154	47.1
339.367	-16.38
339.579	22.53
339.792	-28.67
340.004	43.01
340.217	-6.14
340.429	38.91
340.641	36.86
340.854	-8.19
341.066	55.3
341.278	22.53
341.491	59.39
341.703	18.43
341.915	-14.34
342.128	67.58
342.34	4.1
342.552	-20.48
342.764	10.24
342.977	6.14
343.189	63.49
343.401	51.2
343.613	-34.82
343.826	2.05
344.038	98.3
344.25	22.53
344.462	24.58
344.674	30.72
344.886	22.53
345.099	-2.05
345.311	53.25
345.523	36.86
345.735	32.77
345.947	30.72
346.159	-14.34
346.371	28.67
346.583	92.16
346.795	20.48
347.007	8.19
347.219	22.53
347.431	47.1
347.643	18.43
347.855	18.43
348.067	-6.14
348.279	26.62
348.491	22.53
348.703	-0
348.915	-59.39
349.127	77.82
349.339	14.34
349.551	26.62
349.763	34.82
349.975	-24.58
350.187	34.82
350.399	53.25
350.61	30.72
350.822	8.19
351.034	-14.34
351.246	90.11
351.458	92.16
351.669	-43.01
351.881	36.86
352.093	6.14
352.305	88.06
352.517	16.38
352.728	24.58
352.94	-0
353.152	22.53
353.363	-36.86
353.575	16.38
353.787	63.49
353.999	47.1
354.21	45.06
354.422	-2.05
354.633	67.58
354.845	77.82
355.057	55.3
355.268	69.63
355.48	14.34
355.692	18.43
355.903	-10.24
356.115	18.43
356.326	2.05
356.538	47.1
356.749	26.62
356.961	71.68
357.172	14.34
357.384	-34.82
357.595	51.2
357.807	-6.14
358.018	43.01
358.23	45.06
358.441	-10.24
358.653	38.91
358.864	18.43
359.075	24.58
359.287	43.01
359.498	26.62
359.709	2.05
359.921	14.34
360.132	32.77
360.344	98.3
360.555	-22.53
360.766	16.38
360.977	-2.05
361.189	88.06
361.4	45.06
361.611	65.53
361.823	-0
362.034	47.1
362.245	28.67
362.456	16.38
362.667	36.86
362.879	49.15
363.09	16.38
363.301	45.06
363.512	28.67
363.723	49.15
363.935	16.38
364.146	67.58
364.357	-75.77
364.568	71.68
364.779	34.82
364.99	16.38
365.201	38.91
365.412	51.2
365.623	-51.2
365.834	30.72
366.045	8.19
366.256	65.53
366.467	-20.48
366.678	16.38
366.889	-73.73
367.1	-10.24
367.311	40.96
367.522	94.21
367.733	100.35
367.944	38.91
368.155	18.43
368.366	38.91
368.577	43.01
368.788	-20.48
368.999	73.73
369.209	49.15
369.42	88.06
369.631	6.14
369.842	-26.62
370.053	88.06
370.264	16.38
370.474	28.67
370.685	-16.38
370.896	40.96
371.107	-28.67
371.317	14.34
371.528	8.19
371.739	2.05
371.95	-4.1
372.16	-16.38
372.371	-38.91
372.582	22.53
372.792	2.05
373.003	51.2
373.214	40.96
373.424	100.35
373.635	30.72
373.846	65.53
374.056	24.58
374.267	-4.1
374.477	38.91
374.688	-14.34
374.898	26.62
375.109	-10.24
375.319	2.05
375.53	40.96
375.74	32.77
375.951	73.73
376.161	22.53
376.372	47.1
376.582	102.4
376.793	-8.19
377.003	102.4
377.214	16.38
377.424	77.82
377.635	36.86
377.845	-30.72
378.055	45.06
378.266	-32.77
378.476	30.72
378.686	63.49
378.897	79.87
379.107	16.38
379.317	79.87
379.528	59.39
379.738	116.73
379.948	16.38
380.158	49.15
380.369	43.01
380.579	-0
380.789	55.3
380.999	-14.34
381.21	90.11
381.42	122.88
381.63	57.34
381.84	-38.91
382.05	-6.14
382.261	20.48
382.471	59.39
382.681	-12.29
382.891	43.01
383.101	51.2
383.311	20.48
383.521	40.96
383.731	92.16
383.941	-51.2
384.151	16.38
384.361	45.06
384.571	47.1
384.781	63.49
384.991	10.24
385.201	83.97
385.411	-18.43
385.621	49.15
385.831	20.48
386.041	75.77
386.251	55.3
386.461	10.24
386.671	40.96
386.881	-6.14
387.091	16.38
387.301	-10.24
387.511	-55.3
387.72	14.34
387.93	-55.3
388.14	-4.1
388.35	65.53
388.56	-34.82
388.769	-0
388.979	79.87
389.189	24.58
389.399	57.34
389.609	51.2
389.818	63.49
390.028	10.24
390.238	24.58
390.447	-2.05
390.657	69.63
390.867	20.48
391.076	-4.1
391.286	63.49
391.496	26.62
391.705	-6.14
391.915	14.34
392.125	30.72
392.334	49.15
392.544	65.53
392.753	104.45
392.963	24.58
393.172	-12.29
393.382	-0
393.591	18.43
393.801	6.14
394.01	30.72
394.22	49.15
394.429	65.53
394.639	40.96
394.848	-40.96
395.058	55.3
395.267	-8.19
395.477	57.34
395.686	57.34
395.895	104.45
396.105	65.53
396.314	30.72
396.524	65.53
396.733	-12.29
396.942	79.87
397.152	49.15
397.361	104.45
397.57	79.87
397.78	-30.72
397.989	59.39
398.198	69.63
398.407	28.67
398.617	71.68
398.826	75.77
399.035	-16.38
399.244	18.43
399.453	49.15
399.663	61.44
399.872	32.77
400.081	22.53
400.29	38.91
400.499	2.05
400.708	88.06
400.917	49.15
401.127	32.77
401.336	12.29
401.545	57.34
401.754	106.49
401.963	73.73
402.172	69.63
402.381	104.45
402.59	73.73
402.799	63.49
403.008	167.93
403.217	135.17
403.426	65.53
403.635	100.35
403.844	30.72
404.053	49.15
404.262	114.69
404.471	108.54
404.68	53.25
404.888	79.87
405.097	53.25
405.306	88.06
405.515	63.49
405.724	151.55
405.933	81.92
406.142	79.87
406.35	126.97
406.559	92.16
406.768	92.16
406.977	161.79
407.185	145.41
407.394	131.07
407.603	120.83
407.812	81.92
408.02	73.73
408.229	126.97
408.438	178.17
408.646	120.83
408.855	114.69
409.064	169.98
409.272	75.77
409.481	135.17
409.69	159.74
409.898	212.99
410.107	141.31
410.315	163.84
410.524	206.84
410.733	122.88
410.941	122.88
411.15	180.22
411.358	141.31
411.567	178.17
411.775	196.6
411.984	212.99
412.192	237.56
412.401	290.81
412.609	266.24
412.818	268.28
413.026	294.91
413.234	212.99
413.443	284.67
413.651	286.72
413.86	352.25
414.068	374.78
414.276	292.86
414.485	296.96
414.693	370.68
414.901	329.72
415.11	368.63
415.318	368.63
415.526	442.36
415.734	403.45
415.943	477.18
416.151	501.75
416.359	485.37
416.567	458.74
416.776	491.51
416.984	550.9
417.192	548.86
417.4	499.7
417.608	552.95
417.817	514.04
418.025	565.24
418.233	647.16
418.441	655.35
418.649	636.92
418.857	669.69
419.065	741.36
419.273	620.53
419.481	806.9
419.689	694.26
419.897	784.37
420.105	854
420.313	841.72
420.521	835.57
420.729	980.98
420.937	952.31
421.145	980.98
421.353	1060.85
421.561	1060.85
421.769	1046.51
421.977	1097.71
422.185	1157.1
422.393	1075.18
422.601	1210.35
422.809	1218.54
423.017	1236.97
423.224	1398.76
423.432	1415.15
423.64	1298.41
423.848	1433.58
424.056	1439.72
424.263	1499.11
424.471	1548.26
424.679	1566.7
424.887	1683.43
425.094	1738.73
425.302	1636.33
425.51	1808.36
425.718	1720.29
425.925	1855.46
426.133	1964
426.341	1998.82
426.548	2088.93
426.756	2095.07
426.964	2086.88
427.171	2258.91
427.379	2299.87
427.586	2355.16
427.794	2443.23
428.001	2437.08
428.209	2705.37
428.417	2572.25
428.624	2783.19
428.832	2787.29
429.039	2750.42
429.247	2695.13
429.454	3061.71
429.662	3194.83
429.869	2967.51
430.076	3237.84
430.284	3160.02
430.491	3243.98
430.699	3485.64
430.906	3524.55
431.114	3571.66
431.321	3684.3
431.528	3749.83
431.736	3911.62
431.943	4108.23
432.15	3944.39
432.358	4024.26
432.565	4448.19
432.772	4208.58
432.979	4585.4
433.187	4634.55
433.394	4528.06
433.601	4855.73
433.808	5072.82
434.016	4904.89
434.223	5085.11
434.43	5248.94
434.637	5175.22
434.844	5566.38
435.052	5760.94
435.259	5502.89
435.466	5734.31
435.673	5654.44
435.88	6010.79
436.087	6436.77
436.294	6377.37
436.501	6215.59
436.708	6287.26
436.915	6449.05
437.122	6936.47
437.329	6909.85
437.537	7061.4
437.743	7368.59
437.95	7145.36
438.157	7606.16
438.364	7722.89
438.571	7749.51
438.778	7798.66
438.985	8478.59
439.192	8140.68
439.399	8275.84
439.606	8228.74
439.813	8722.3
440.02	9363.31
440.227	9156.47
440.433	8888.18
440.64	9041.78
440.847	9209.72
441.054	9404.27
441.261	10096.49
441.467	9871.21
441.674	10270.56
441.881	10510.18
442.088	10411.87
442.294	10389.35
442.501	10792.8
442.708	11190.1
442.914	11304.79
443.121	11884.36
443.328	11591.5
443.534	12615.49
443.741	12128.07
443.948	11800.4
444.154	12949.31
444.361	12580.67
444.568	12635.97
444.774	12787.52
444.981	13010.75
445.187	13328.18
445.394	13936.43
445.6	13793.07
445.807	14849.82
446.013	14313.25
446.22	14690.08
446.426	15363.86
446.633	15236.89
446.839	15785.74
447.046	15378.2
447.252	16066.31
447.459	16285.45
447.665	16197.38
447.871	16916.22
448.078	17405.69
448.284	16449.28
448.491	17215.23
448.697	17868.53
448.903	18087.66
449.11	18147.05
449.316	17770.22
449.522	18134.76
449.728	18663.14
449.935	18906.85
450.141	19080.92
450.347	19320.54
450.553	18749.15
450.76	19003.1
450.966	19537.62
451.172	19470.04
451.378	19969.74
451.584	19554.01
451.791	20000.46
451.997	20135.63
452.203	20457.16
452.409	20403.91
452.615	20379.34
452.821	19511
453.027	19443.42
453.233	20655.81
453.44	19605.2
453.646	20158.16
453.852	20018.89
454.058	20356.81
454.264	19783.38
454.47	20104.91
454.676	19467.99
454.882	20494.02
455.088	18194.15
455.294	18966.24
455.5	18865.89
455.705	19467.99
455.911	18403.05
456.117	18153.19
456.323	17907.44
456.529	16871.17
456.735	17719.03
456.941	17309.43
457.147	17051.39
457.352	16369.41
457.558	16471.81
457.764	16516.87
457.97	16246.54
458.176	15451.92
458.381	15939.34
458.587	14862.11
458.793	15310.61
458.999	14090.02
459.204	15249.18
459.41	14624.54
459.616	13631.28
459.821	13635.38
460.027	13672.24
460.233	13322.04
460.438	12844.86
460.644	12846.91
460.85	12425.03
461.055	12207.94
461.261	12134.21
461.466	11267.92
461.672	10897.24
461.878	11693.9
462.083	10733.4
462.289	10657.63
462.494	10467.17
462.7	10121.06
462.905	9860.97
463.111	10157.92
463.316	10266.47
463.522	10041.19
463.727	10092.39
463.932	9983.85
464.138	9936.74
464.343	9934.7
464.549	9613.17
464.754	10055.53
464.959	9959.27
465.165	9652.08
465.37	9428.85
465.575	9291.63
465.781	9535.34
465.986	9621.36
466.191	9205.62
466.397	9064.31
466.602	8548.22
466.807	8806.27
467.012	9029.49
467.218	8888.18
467.423	8599.42
467.628	8968.06
467.833	9230.2
468.038	8576.89
468.244	8486.78
468.449	8976.25
468.654	8722.3
468.859	8591.23
469.064	8685.44
469.269	8224.64
469.474	8318.85
469.679	8345.47
469.885	8169.35
470.09	8331.14
470.295	8265.6
470.5	7929.73
470.705	8114.05
470.91	7851.91
471.115	7759.75
471.32	8011.65
471.525	7962.5
471.73	7692.17
471.935	7845.77
472.139	7423.89
472.344	7448.46
472.549	7446.41
472.754	7470.99
472.959	7337.87
473.164	6961.05
473.369	7004.05
473.574	7251.86
473.778	7057.3
473.983	7004.05
474.188	7098.26
474.393	6692.76
474.598	6756.25
474.802	6858.65
475.007	6608.8
475.212	6700.95
475.417	6569.88
475.621	6461.34
475.826	6475.68
476.031	6387.61
476.235	6184.87
476.44	6311.84
476.645	6168.48
476.849	6328.22
477.054	6148
477.259	6131.62
477.463	6027.17
477.668	5865.38
477.872	5844.9
478.077	5928.87
478.282	5558.19
478.486	5672.87
478.691	5713.83
478.895	5611.43
479.1	5625.77
479.304	5402.54
479.509	5359.53
479.713	5480.36
479.918	5291.95
480.122	5255.09
480.326	5400.49
480.531	5279.66
480.735	5269.42
480.94	5390.25
481.144	5382.06
481.348	5103.54
481.553	5248.94
481.757	5175.22
481.961	5173.17
482.166	5294
482.37	5271.47
482.574	5132.21
482.778	5111.73
482.983	5250.99
483.187	5195.7
483.391	5306.29
483.595	5281.71
483.8	5212.08
484.004	5230.51
484.208	5273.52
484.412	5205.94
484.616	5121.97
484.821	5316.53
485.025	5236.66
485.229	5216.18
485.433	5181.36
485.637	5193.65
485.841	5048.24
486.045	5253.04
486.249	5111.73
486.453	5085.11
486.657	5261.23
486.861	5140.4
487.065	5025.72
487.269	5177.26
487.473	5152.69
487.677	5257.14
487.881	5298.1
488.085	5175.22
488.289	5236.66
488.493	5228.46
488.697	5285.81
488.901	5277.62
489.105	5291.95
489.309	5152.69
489.512	5330.86
489.716	5318.57
489.92	5234.61
490.124	5248.94
490.328	5330.86
490.531	5140.4
490.735	5216.18
490.939	5334.96
491.143	5455.79
491.346	5363.63
491.55	5658.54
491.754	5533.61
491.958	5502.89
492.161	5468.08
492.365	5433.26
492.569	5480.36
492.772	5392.3
492.976	5547.95
493.18	5451.69
493.383	5636.01
493.587	5846.95
493.79	5711.78
493.994	5736.36
494.197	5762.98
494.401	5760.94
494.605	5799.85
494.808	5916.58
495.012	5949.35
495.215	5838.76
495.419	6014.88
495.622	5883.81
495.825	6121.38
496.029	6045.6
496.232	6080.42
496.436	6174.63
496.639	6395.81
496.843	6322.08
497.046	6305.7
497.249	6539.16
497.453	6430.62
497.656	6524.83
497.859	6643.61
498.063	6848.41
498.266	6842.26
498.469	6877.08
498.673	6856.6
498.876	6934.42
499.079	7073.68
499.282	7055.25
499.485	7059.35
499.689	7239.57
499.892	7268.24
500.095	7479.18
500.298	7692.17
500.501	7583.63
500.705	7751.56
500.908	7903.11
501.111	7944.07
501.314	7923.59
501.517	8124.29
501.72	8261.51
501.923	8060.8
502.126	8316.8
502.329	8384.38
502.532	8583.04
502.735	8826.75
502.938	8830.84
503.141	8726.39
503.344	8927.1
503.547	8748.92
503.75	9086.84
503.953	9207.67
504.156	9410.42
504.359	9420.66
504.562	9609.07
504.765	9731.95
504.968	9625.45
505.17	9807.72
505.373	9985.9
505.576	10147.69
505.779	10188.64
505.982	10260.32
506.185	10606.43
506.387	10661.73
506.59	10622.81
506.793	11050.84
506.996	10741.6
507.198	11218.77
507.401	11237.2
507.604	11376.47
507.807	11458.39
508.009	11603.79
508.212	11571.02
508.415	11843.4
508.617	12013.38
508.82	11890.51
509.022	11980.62
509.225	12349.25
509.428	12476.23
509.63	12760.89
509.833	12543.81
510.035	13205.3
510.238	12916.54
510.44	13076.28
510.643	13133.62
510.845	13336.37
511.048	13459.25
511.25	13690.67
511.453	13815.6
511.655	14229.29
511.858	14096.17
512.06	14165.8
512.262	14233.38
512.465	14366.5
512.667	14769.95
512.87	14714.66
513.072	14647.07
513.274	15103.77
513.477	15630.1
513.679	15460.12
513.881	15642.39
514.084	15814.41
514.286	15779.6
514.488	15935.24
514.69	16484.1
514.893	16303.88
515.095	16717.57
515.297	16492.29
515.499	16762.62
515.701	16969.47
515.904	17172.22
516.106	17352.44
516.308	17448.69
516.51	17815.28
516.712	17716.98
516.914	17907.44
517.116	18325.22
517.318	18204.39
517.52	18181.87
517.722	18564.84
517.925	18849.5
518.127	18978.53
518.329	19068.64
518.531	18990.81
518.733	19580.63
518.935	19701.46
519.136	19611.35
519.338	20004.56
519.54	20317.9
519.742	20399.82
519.944	20422.34
520.146	20631.24
520.348	20772.55
520.55	20977.34
520.752	21001.92
520.954	21460.66
521.155	21403.32
521.357	21536.44
521.559	21784.24
521.761	22023.86
521.963	21753.52
522.164	22206.13
522.366	22320.81
522.568	22329
522.77	22832.8
522.971	22943.39
523.173	22832.8
523.375	23035.55
523.576	22924.96
523.778	23162.53
523.98	23584.41
524.181	23715.48
524.383	23561.88
524.584	23897.75
524.786	23586.46
524.988	24163.98
525.189	24663.69
525.391	24299.15
525.592	24299.15
525.794	24786.57
525.995	24780.42
526.197	24589.96
526.398	24772.23
526.6	24948.36
526.801	25370.24
527.003	25181.82
527.204	25288.32
527.406	25474.68
527.607	25175.68
527.808	25685.62
528.01	25245.31
528.211	25652.86
528.412	26297.97
528.614	25962.1
528.815	26144.37
529.016	26513
529.218	25988.72
529.419	25968.24
529.62	26283.63
529.822	26244.72
530.023	26416.75
530.224	26117.75
530.425	26267.25
530.626	26029.68
530.828	26093.17
531.029	27096.67
531.23	26584.68
531.431	26568.3
531.632	26408.56
531.833	26734.18
532.035	26492.52
532.236	26744.42
532.437	26920.55
532.638	26662.51
532.839	26742.38
533.04	26967.65
533.241	26674.79
533.442	27190.88
533.643	27121.25
533.844	26955.36
534.045	27203.17
534.246	26852.97
534.447	27098.72
534.648	26779.24
534.849	27197.03
535.05	26586.73
535.251	26730.09
535.451	27039.33
535.652	27332.19
535.853	27086.43
536.054	27106.91
536.255	27151.97
536.456	26988.13
536.657	27455.07
536.857	27117.15
537.058	26990.18
537.259	27088.48
537.46	26846.82
537.66	26924.65
537.861	27324
538.062	26967.65
538.263	27123.3
538.463	27178.59
538.664	26936.93
538.865	27039.33
539.065	27479.64
539.266	26738.28
539.466	27242.08
539.667	26613.35
539.868	27151.97
540.068	27162.21
540.269	27088.48
540.469	27147.87
540.67	26824.29
540.87	26795.62
541.071	27108.96
541.271	27035.24
541.472	27049.57
541.672	27219.55
541.873	27025
542.073	26699.37
542.274	27287.14
542.474	27194.98
542.675	26754.66
542.875	27074.15
543.075	26725.99
543.276	26762.86
543.476	27018.85
543.676	26746.47
543.877	26963.56
544.077	27082.34
544.277	26529.39
544.478	27029.09
544.678	26959.46
544.878	26891.88
545.078	26891.88
545.279	26789.48
545.479	26953.32
545.679	26947.17
545.879	26838.63
546.079	26629.74
546.28	26711.66
546.48	26713.7
546.68	26998.37
546.88	27008.61
547.08	27025
547.28	26842.73
547.48	26812.01
547.68	26562.15
547.88	26588.78
548.081	26912.36
548.281	26832.49
548.481	26855.01
548.681	26967.65
548.881	26689.13
549.081	26699.37
549.28	26697.32
549.48	26822.25
549.68	26572.39
549.88	27053.67
550.08	26906.21
550.28	26930.79
550.48	26625.64
550.68	27061.86
550.88	26617.45
551.08	26639.98
551.279	26609.26
551.479	26492.52
551.679	26515.05
551.879	26201.71
552.079	26375.79
552.278	26318.45
552.478	26447.47
552.678	26287.73
552.878	26715.75
553.077	26510.96
553.277	26476.14
553.477	26633.83
553.676	26392.17
553.876	26398.32
554.076	26214
554.275	26166.9
554.475	25917.04
554.674	26091.12
554.874	26474.09
555.074	26396.27
555.273	26510.96
555.473	26490.48
555.672	26220.14
555.872	26308.21
556.071	26316.4
556.271	26402.41
556.47	26236.53
556.67	25876.09
556.869	26170.99
557.068	26324.59
557.268	25892.47
557.467	26279.53
557.667	25687.67
557.866	25810.55
558.065	26263.15
558.265	25831.03
558.464	25427.58
558.663	26035.83
558.863	25380.48
559.062	26250.86
559.261	25470.59
559.461	26013.3
559.66	25529.98
559.859	25679.48
560.058	24997.51
560.258	25552.51
560.457	25306.75
560.656	25613.95
560.855	25560.7
561.054	25810.55
561.253	25044.61
561.453	25210.5
561.652	25259.65
561.851	25325.18
562.05	25171.58
562.249	25097.86
562.448	25566.84
562.647	25089.67
562.846	25060.99
563.045	25015.94
563.244	24888.96
563.443	25464.44
563.642	24551.05
563.841	24917.64
564.04	24768.13
564.239	24864.39
564.438	24805
564.637	24872.58
564.836	24706.69
565.035	24479.37
565.234	24551.05
565.432	24858.24
565.631	24501.9
565.83	24508.04
566.029	24250
566.228	24346.25
566.427	24141.46
566.625	24088.21
566.824	23871.12
567.023	24348.3
567.222	23846.55
567.42	24323.72
567.619	23836.31
567.818	23791.25
568.016	24002.19
568.215	24000.15
568.414	24018.58
568.612	23828.12
568.811	23531.16
569.01	23664.28
569.208	23334.56
569.407	23668.37
569.605	23242.4
569.804	23475.87
570.002	23094.94
570.201	23148.19
570.4	23248.54
570.598	23133.85
570.797	23053.98
570.995	22709.93
571.193	22732.45
571.392	23111.33
571.59	22707.88
571.789	22761.12
571.987	22716.07
572.186	22847.14
572.384	22560.42
572.582	22752.93
572.781	22621.86
572.979	22339.24
573.177	22474.41
573.376	22410.92
573.574	22113.97
573.772	22458.03
573.971	22245.04
574.169	21696.18
574.367	22126.25
574.565	22165.17
574.763	21907.12
574.962	22099.63
575.16	21597.88
575.358	21833.39
575.556	21649.08
575.754	21946.03
575.952	21575.35
576.151	21829.3
576.349	21565.11
576.547	21505.72
576.745	21425.85
576.943	21522.1
577.141	21202.62
577.339	21397.18
577.537	20975.3
577.735	20920
577.933	21073.6
578.131	21272.25
578.329	21073.6
578.527	20848.32
578.725	20795.07
578.923	21112.51
579.121	20782.79
579.319	20596.42
579.516	20836.03
579.714	20793.03
579.912	20702.92
580.11	20360.91
580.308	20612.81
580.506	20457.16
580.704	20154.06
580.901	20319.95
581.099	20416.2
581.297	19943.12
581.495	20102.86
581.692	20240.08
581.89	19865.3
582.088	20078.29
582.285	20074.19
582.483	19959.5
582.681	19893.97
582.878	19732.18
583.076	19683.03
583.274	19965.65
583.471	19521.24
583.669	19554.01
583.866	19486.42
584.064	19642.07
584.262	19214.04
584.459	19375.83
584.657	19281.63
584.854	19447.51
585.052	18853.6
585.249	18966.24
585.447	19054.3
585.644	18988.77
585.841	18949.85
586.039	18890.46
586.236	18751.2
586.434	18700
586.631	18626.28
586.828	18773.73
587.026	18536.17
587.223	18642.66
587.42	18470.63
587.618	18654.95
587.815	18271.98
588.012	18366.18
588.21	18159.34
588.407	18564.84
588.604	18020.08
588.801	18095.85
588.999	18024.17
589.196	17942.25
589.393	18061.04
589.59	18171.63
589.787	17927.92
589.984	17678.07
590.182	17854.19
590.379	17829.62
590.576	17583.86
590.773	17860.34
590.97	17516.28
591.167	17587.96
591.364	17346.3
591.561	17727.22
591.758	17383.16
591.955	17297.14
592.152	17352.44
592.349	17211.13
592.546	17131.26
592.743	17241.85
592.94	16848.64
593.137	17035
593.334	17151.74
593.531	16844.54
593.727	16797.44
593.924	16779.01
594.121	16717.57
594.318	16690.95
594.515	16463.62
594.712	16756.48
594.908	16764.67
595.105	16609.03
595.302	16457.48
595.499	16793.34
595.696	16377.61
595.892	16228.1
596.089	16338.69
596.286	16267.02
596.482	16275.21
596.679	16176.91
596.876	16035.6
597.072	16047.88
597.269	15939.34
597.466	15963.92
597.662	15718.16
597.859	15826.7
598.055	16033.55
598.252	15777.55
598.448	15783.7
598.645	15898.38
598.841	15476.5
599.038	15531.8
599.234	15609.62
599.431	15464.21
599.627	15390.49
599.824	15329.05
600.02	15261.46
600.217	15271.7
600.413	15236.89
600.609	15142.68
600.806	14901.02
601.002	15314.71
601.198	14810.91
601.395	15279.89
601.591	15206.17
601.787	14907.16
601.984	14767.9
602.18	14984.99
602.376	14692.13
602.572	14896.92
602.769	14630.69
602.965	14587.68
603.161	14767.9
603.357	14477.09
603.553	14497.57
603.75	14597.92
603.946	14343.97
604.142	14434.08
604.338	14247.72
604.534	14393.12
604.73	14049.07
604.926	14120.74
605.122	14221.09
605.318	13967.15
605.514	13999.91
605.71	13936.43
605.906	14024.49
606.102	14180.14
606.298	14272.29
606.494	13702.96
606.69	13807.41
606.886	13850.41
607.082	13565.74
607.278	13854.51
607.474	13547.31
607.67	13649.71
607.866	13508.4
608.062	13649.71
608.257	13696.81
608.453	13508.4
608.649	13543.22
608.845	13285.17
609.041	13420.34
609.236	13469.49
609.432	13391.67
609.628	13180.73
609.824	13496.11
610.019	13096.76
610.215	13186.87
610.411	13223.73
610.606	13055.8
610.802	13303.6
610.998	13158.2
611.193	13133.62
611.389	12975.93
611.584	12703.55
611.78	12994.36
611.976	12883.77
612.171	13031.23
612.367	13063.99
612.562	12883.77
612.758	12697.41
612.953	12678.97
613.149	13012.79
613.344	12666.69
613.539	12842.81
613.735	12463.94
613.93	12767.04
614.126	12752.7
614.321	12742.46
614.517	12760.89
614.712	12599.1
614.907	12478.27
615.103	12650.3
615.298	12445.51
615.493	12619.58
615.688	12310.34
615.884	12781.37
616.079	12257.09
616.274	12492.61
616.47	12230.47
616.665	12177.22
616.86	12304.2
617.055	12259.14
617.25	12179.27
617.445	12250.95
617.641	11982.67
617.836	12021.58
618.031	12087.11
618.226	12031.82
618.421	11949.9
618.616	11933.51
618.811	11630.41
619.006	12064.58
619.201	11786.06
619.396	11847.5
619.591	11743.05
619.786	11757.39
619.981	11403.09
620.176	11724.62
620.371	11382.61
620.566	11579.22
620.761	11269.97
620.956	11446.1
621.151	11157.33
621.346	11362.13
621.541	11122.52
621.735	11212.63
621.93	10954.58
622.125	11159.38
622.32	11134.81
622.515	11005.78
622.709	10794.84
622.904	10819.42
623.099	10708.83
623.294	10753.88
623.488	10721.12
623.683	10731.36
623.878	10475.36
624.072	10454.88
624.267	10430.3
624.462	10403.68
624.656	10323.81
624.851	10528.61
625.046	10346.34
625.24	10393.44
625.435	10069.86
625.629	10022.76
625.824	9983.85
626.018	9863.02
626.213	9848.68
626.407	9871.21
626.602	9658.22
626.796	9774.95
626.991	9834.35
627.185	9566.06
627.38	9617.26
627.574	9494.38
627.768	9518.96
627.963	9428.85
628.157	9310.07
628.352	9334.64
628.546	9172.85
628.74	9355.12
628.935	9029.49
629.129	9162.61
629.323	8875.9
629.517	8937.34
629.712	9054.07
629.906	9039.73
630.1	8779.64
630.294	8984.44
630.489	9027.45
630.683	8822.65
630.877	8761.21
631.071	8628.09
631.265	8529.79
631.459	8685.44
631.653	8544.13
631.848	8589.18
632.042	8464.25
632.236	8415.1
632.43	8449.92
632.624	8503.17
632.818	8413.06
633.012	8214.4
633.206	8300.42
633.4	8195.97
633.594	8103.81
633.788	8157.06
633.982	8152.96
634.176	8089.48
634.369	8025.99
634.563	7892.87
634.757	7550.86
634.951	8025.99
635.145	7862.15
635.339	7763.85
635.533	7640.97
635.726	7618.44
635.92	7620.49
636.114	7643.02
636.308	7751.56
636.501	7520.14
636.695	7362.45
636.889	7436.17
637.083	7305.1
637.276	7339.92
637.47	7311.25
637.664	7217.04
637.857	7325.58
638.051	7178.13
638.244	7229.33
638.438	7358.35
638.632	7128.98
638.825	6983.57
639.019	6991.77
639.212	6999.96
639.406	6967.19
639.599	7204.75
639.793	6977.43
639.986	6789.02
640.18	6854.55
640.373	6717.34
640.567	6647.71
640.76	6678.43
640.954	6672.28
641.147	6590.36
641.34	6522.78
641.534	6436.77
641.727	6698.91
641.92	6438.81
642.114	6473.63
642.307	6485.92
642.5	6268.83
642.694	6324.13
642.887	6160.29
643.08	6205.35
643.273	6262.69
643.467	6148
643.66	6109.09
643.853	6119.33
644.046	6100.9
644.239	5889.96
644.432	5887.91
644.626	5973.92
644.819	5883.81
645.012	5801.9
645.205	5717.93
645.398	5949.35
645.591	5711.78
645.784	5842.85
645.977	5617.58
646.17	5650.35
646.363	5576.62
646.556	5629.87
646.749	5523.37
646.942	5633.96
647.135	5449.64
647.328	5494.7
647.521	5265.33
647.714	5253.04
647.907	5394.35
648.099	5283.76
648.292	5414.83
648.485	5289.9
648.678	5214.13
648.871	5207.98
649.064	5267.38
649.256	5214.13
649.449	5167.03
649.642	5044.15
649.835	4990.9
650.027	5023.67
650.22	5085.11
650.413	4908.98
650.605	4974.52
650.798	4966.32
650.991	4915.12
651.183	4765.62
651.376	4761.53
651.568	4888.5
651.761	4624.31
651.954	4659.13
652.146	4681.66
652.339	4747.19
652.531	4802.49
652.724	4792.25
652.916	4587.45
653.109	4773.82
653.301	4603.83
653.494	4665.27
653.686	4480.96
653.879	4505.53
654.071	4345.79
654.263	4476.86
654.456	4476.86
654.648	4509.63
654.84	4425.66
655.033	4366.27
655.225	4403.13
655.417	4257.73
655.61	4315.07
655.802	4294.59
655.994	4278.21
656.186	4265.92
656.379	4241.34
656.571	4081.6
656.763	4155.33
656.955	4042.69
657.148	4153.28
657.34	4028.35
657.532	4030.4
657.724	4059.07
657.916	4024.26
658.108	3999.68
658.3	3913.67
658.492	4028.35
658.684	3940.29
658.876	3940.29
659.068	3858.37
659.26	3704.78
659.452	3772.36
659.644	3753.93
659.836	3694.54
660.028	3778.5
660.22	3751.88
660.412	3764.17
660.604	3829.7
660.796	3645.38
660.988	3606.47
661.18	3684.3
661.372	3639.24
661.563	3629
661.755	3598.28
661.947	3569.61
662.139	3653.58
662.331	3422.16
662.522	3475.4
662.714	3504.07
662.906	3436.49
663.097	3510.22
663.289	3479.5
663.481	3377.1
663.673	3305.42
663.864	3336.14
664.056	3315.66
664.247	3311.57
664.439	3344.33
664.631	3305.42
664.822	3248.08
665.014	3295.18
665.205	3309.52
665.397	3241.93
665.588	3291.09
665.78	3094.48
665.971	3180.5
666.163	3219.41
666.354	3039.19
666.546	3149.78
666.737	3039.19
666.929	3033.04
667.12	3114.96
667.311	3088.34
667.503	2990.03
667.694	3135.44
667.885	2908.12
668.077	3153.87
668.268	3143.63
668.459	2930.64
668.651	3047.38
668.842	2914.26
669.033	2959.31
669.224	2908.12
669.416	3028.95
669.607	2840.53
669.798	2965.46
669.989	2971.6
670.18	2883.54
670.371	2961.36
670.563	2826.2
670.754	2891.73
670.945	2738.13
671.136	2783.19
671.327	2756.57
671.518	2699.22
671.709	2826.2
671.9	2701.27
672.091	2627.54
672.282	2670.55
672.473	2631.64
672.664	2752.47
672.855	2723.8
673.046	2699.22
673.237	2705.37
673.428	2650.07
673.619	2666.46
673.809	2592.73
674	2570.2
674.191	2686.93
674.382	2537.43
674.573	2617.3
674.764	2572.25
674.954	2607.06
675.145	2480.09
675.336	2643.93
675.527	2527.19
675.717	2572.25
675.908	2564.06
676.099	2611.16
676.289	2475.99
676.48	2463.71
676.671	2541.53
676.861	2484.19
677.052	2607.06
677.243	2580.44
677.433	2471.9
677.624	2562.01
677.814	2412.51
678.005	2484.19
678.195	2500.57
678.386	2422.75
678.576	2389.98
678.767	2486.23
678.957	2463.71
679.148	2455.51
679.338	2367.45
679.529	2316.25
679.719	2316.25
679.909	2394.08
680.1	2344.92
680.29	2361.31
680.481	2328.54
680.671	2324.44
680.861	2398.17
681.052	2379.74
681.242	2375.64
681.432	2324.44
681.622	2459.61
681.813	2281.44
682.003	2359.26
682.193	2265.05
682.383	2314.2
682.573	2396.12
682.764	2236.38
682.954	2287.58
683.144	2324.44
683.334	2285.53
683.524	2385.88
683.714	2342.88
683.904	2260.96
684.094	2342.88
684.284	2359.26
684.474	2324.44
684.664	2252.77
684.854	2312.16
685.044	2344.92
685.234	2244.57
685.424	2318.3
685.614	2258.91
685.804	2242.53
685.994	2310.11
686.184	2316.25
686.374	2230.24
686.564	2195.42
686.753	2324.44
686.943	2238.43
687.133	2187.23
687.323	2254.81
687.513	2203.61
687.702	2211.81
687.892	2068.45
688.082	2252.77
688.272	2258.91
688.461	2277.34
688.651	2111.46
688.841	2068.45
689.03	2148.32
689.22	2154.46
689.41	2129.89
689.599	2209.76
689.789	2113.5
689.979	2099.17
690.168	2154.46
690.358	2107.36
690.547	2144.22
690.737	2138.08
690.926	2093.02
691.116	2101.22
691.305	2125.79
691.495	2170.85
691.684	2084.83
691.874	2107.36
692.063	2136.03
692.252	2064.35
692.442	2000.87
692.631	2031.58
692.82	1976.29
693.01	1998.82
693.199	2011.11
693.388	2056.16
693.578	2039.78
693.767	1986.53
693.956	1959.91
694.146	1961.95
694.335	1984.48
694.524	2095.07
694.713	1966.05
694.902	2029.54
695.092	1951.71
695.281	1996.77
695.47	2037.73
695.659	1996.77
695.848	1949.67
696.037	1990.63
696.226	1923.04
696.415	2043.87
696.604	1933.28
696.793	1972.19
696.982	1933.28
697.171	1974.24
697.36	2074.59
697.549	1925.09
697.738	1996.77
697.927	1900.51
698.116	1990.63
698.305	1925.09
698.494	1918.95
698.683	1761.25
698.872	1900.51
699.061	1933.28
699.25	1918.95
699.438	1902.56
699.627	1902.56
699.816	1939.43
700.005	1918.95
700.193	1828.84
700.382	1957.86
700.571	1781.73
700.76	1937.38
700.948	1802.21
701.137	1941.47
701.326	1902.56
701.514	1767.4
701.703	1765.35
701.892	1914.85
702.08	1843.17
702.269	1890.28
702.457	1900.51
702.646	1896.42
702.834	1837.03
703.023	1912.8
703.212	1810.4
703.4	1855.46
703.589	1822.69
703.777	1892.32
703.965	1810.4
704.154	1875.94
704.342	1804.26
704.531	1810.4
704.719	1796.07
704.907	1824.74
705.096	1751.01
705.284	1775.59
705.472	1761.25
705.661	1734.63
705.849	1822.69
706.037	1695.72
706.226	1794.02
706.414	1769.44
706.602	1720.29
706.79	1763.3
706.979	1734.63
707.167	1685.48
707.355	1832.93
707.543	1710.05
707.731	1771.49
707.919	1849.32
708.107	1712.1
708.296	1675.24
708.484	1662.95
708.672	1738.73
708.86	1687.53
709.048	1767.4
709.236	1701.86
709.424	1734.63
709.612	1751.01
709.8	1738.73
709.988	1699.81
710.176	1705.96
710.364	1734.63
710.551	1724.39
710.739	1808.36
710.927	1662.95
711.115	1742.82
711.303	1671.14
711.491	1708.01
711.679	1658.85
711.866	1669.09
712.054	1626.09
712.242	1673.19
712.43	1695.72
712.617	1658.85
712.805	1757.16
712.993	1714.15
713.181	1613.8
713.368	1681.38
713.556	1572.84
713.744	1636.33
713.931	1716.2
714.119	1726.44
714.306	1689.57
714.494	1771.49
714.682	1658.85
714.869	1605.61
715.057	1591.27
715.244	1644.52
715.432	1695.72
715.619	1529.83
715.807	1589.22
715.994	1574.89
716.182	1593.32
716.369	1529.83
716.556	1669.09
716.744	1568.74
716.931	1529.83
717.119	1634.28
717.306	1585.13
717.493	1572.84
717.681	1591.27
717.868	1615.85
718.055	1581.03
718.242	1660.9
718.43	1636.33
718.617	1554.41
718.804	1572.84
718.991	1546.22
719.179	1529.83
719.366	1593.32
719.553	1644.52
719.74	1499.11
719.927	1468.39
720.114	1499.11
720.301	1595.37
720.488	1490.92
720.676	1611.75
720.863	1527.78
721.05	1538.02
721.237	1558.5
721.424	1497.07
721.611	1501.16
721.798	1546.22
721.985	1458.15
722.172	1535.98
722.358	1503.21
722.545	1552.36
722.732	1497.07
722.919	1466.35
723.106	1517.54
723.293	1589.22
723.48	1531.88
723.667	1484.78
723.853	1429.48
724.04	1576.94
724.227	1439.72
724.414	1497.07
724.6	1437.67
724.787	1456.11
724.974	1388.52
725.161	1466.35
725.347	1406.95
725.534	1492.97
725.72	1474.54
725.907	1404.91
726.094	1460.2
726.28	1392.62
726.467	1490.92
726.653	1400.81
726.84	1441.77
727.027	1458.15
727.213	1392.62
727.4	1484.78
727.586	1443.82
727.773	1460.2
727.959	1386.47
728.145	1425.39
728.332	1419.24
728.518	1505.26
728.705	1495.02
728.891	1339.37
729.077	1406.95
729.264	1370.09
729.45	1427.43
729.636	1370.09
729.823	1439.72
730.009	1445.87
730.195	1435.63
730.382	1353.71
730.568	1501.16
730.754	1396.71
730.94	1396.71
731.126	1468.39
731.313	1435.63
731.499	1558.5
731.685	1460.2
731.871	1327.08
732.057	1343.47
732.243	1419.24
732.429	1390.57
732.615	1441.77
732.801	1400.81
732.987	1454.06
733.173	1378.28
733.359	1359.85
733.545	1413.1
733.731	1325.04
733.917	1464.3
734.103	1378.28
734.289	1433.58
734.475	1384.43
734.661	1492.97
734.847	1380.33
735.033	1431.53
735.219	1335.28
735.404	1376.23
735.59	1310.7
735.776	1474.54
735.962	1402.86
736.148	1357.8
736.333	1406.95
736.519	1474.54
736.705	1417.19
736.89	1374.19
737.076	1329.13
737.262	1275.88
737.447	1421.29
737.633	1411.05
737.819	1339.37
738.004	1312.75
738.19	1366
738.375	1349.61
738.561	1343.47
738.747	1361.9
738.932	1306.6
739.118	1394.67
739.303	1378.28
739.489	1368.04
739.674	1380.33
739.859	1146.86
740.045	1376.23
740.23	1286.12
740.416	1288.17
740.601	1286.12
740.786	1310.7
740.972	1282.03
741.157	1189.87
741.342	1304.56
741.528	1249.26
741.713	1267.69
741.898	1284.08
742.084	1398.76
742.269	1306.6
742.454	1251.31
742.639	1296.36
742.824	1310.7
743.01	1239.02
743.195	1343.47
743.38	1206.25
743.565	1196.01
743.75	1275.88
743.935	1226.73
744.12	1243.12
744.305	1286.12
744.49	1273.84
744.675	1157.1
744.86	1210.35
745.045	1171.44
745.23	1224.69
745.415	1204.21
745.6	1159.15
745.785	1204.21
745.97	1138.67
746.155	1134.57
746.34	1171.44
746.525	1128.43
746.71	1239.02
746.895	1120.24
747.079	1146.86
747.264	1079.28
747.449	1161.2
747.634	1036.27
747.819	1142.77
748.003	1114.09
748.188	1140.72
748.373	1134.57
748.557	1003.5
748.742	1042.42
748.927	1032.18
749.111	1048.56
749.296	1077.23
749.481	1054.7
749.665	1071.09
749.85	1075.18
750.034	987.12
750.219	1124.33
750.404	1056.75
750.588	999.41
750.773	966.64
750.957	999.41
751.141	980.98
751.326	1001.46
751.51	962.55
751.695	927.73
751.879	923.63
752.064	993.26
752.248	1015.79
752.432	980.98
752.617	970.74
752.801	866.29
752.985	952.31
753.17	886.77
753.354	948.21
753.538	921.59
753.722	923.63
753.907	937.97
754.091	890.87
754.275	802.8
754.459	901.11
754.643	923.63
754.828	849.91
755.012	808.95
755.196	915.44
755.38	870.39
755.564	835.57
755.748	790.52
755.932	841.72
756.116	860.15
756.3	905.2
756.484	735.22
756.668	854
756.852	854
757.036	772.08
757.22	804.85
757.404	808.95
757.588	763.89
757.772	776.18
757.956	817.14
758.14	862.19
758.323	819.19
758.507	770.04
758.691	817.14
758.875	759.8
759.059	757.75
759.242	757.75
759.426	745.46
759.61	759.8
759.794	688.12
759.977	782.32
760.161	765.94
760.345	704.5
760.528	663.54
760.712	741.36
760.895	684.02
761.079	706.55
761.263	690.17
761.446	710.65
761.63	745.46
761.813	655.35
761.997	696.31
762.18	759.8
762.364	593.91
762.547	677.88
762.731	720.88
762.914	716.79
763.098	694.26
763.281	641.01
763.464	679.93
763.648	702.45
763.831	686.07
764.015	614.39
764.198	702.45
764.381	651.25
764.564	643.06
764.748	663.54
764.931	720.88
765.114	636.92
765.297	659.45
765.481	608.25
765.664	614.39
765.847	514.04
766.03	542.71
766.213	604.15
766.397	645.11
766.58	571.38
766.763	591.86
766.946	604.15
767.129	571.38
767.312	534.52
767.495	663.54
767.678	542.71
767.861	612.34
768.044	632.82
768.227	598.01
768.41	575.48
768.593	589.81
768.776	565.24
768.959	620.53
769.142	479.22
769.324	589.81
769.507	614.39
769.69	626.68
769.873	524.28
770.056	651.25
770.239	524.28
770.421	526.33
770.604	530.42
770.787	542.71
770.97	538.62
771.152	458.74
771.335	542.71
771.518	608.25
771.7	550.9
771.883	559.1
772.066	505.85
772.248	528.38
772.431	555
772.613	555
772.796	528.38
772.978	509.94
773.161	569.34
773.343	499.7
773.526	546.81
773.708	491.51
773.891	419.83
774.073	493.56
774.256	495.61
774.438	507.9
774.621	485.37
774.803	559.1
774.985	497.66
775.168	542.71
775.35	448.51
775.532	452.6
775.715	407.55
775.897	450.55
776.079	436.22
776.261	448.51
776.444	466.94
776.626	471.03
776.808	333.82
776.99	450.55
777.173	456.7
777.355	485.37
777.537	468.98
777.719	485.37
777.901	475.13
778.083	387.07
778.265	382.97
778.447	393.21
778.629	317.44
778.811	366.59
778.993	409.59
779.175	475.13
779.357	417.79
779.539	374.78
779.721	385.02
779.903	385.02
780.085	432.12
780.267	409.59
780.449	352.25
780.631	403.45
780.812	456.7
780.994	376.83
781.176	329.72
781.358	358.39
781.54	374.78
781.721	350.2
781.903	401.4
782.085	428.03
782.267	436.22
782.448	292.86
782.63	356.35
782.812	362.49
782.993	325.63
783.175	303.1
783.357	393.21
783.538	331.77
783.72	303.1
783.901	329.72
784.083	299
784.264	288.76
784.446	303.1
784.627	301.05
784.809	256
784.99	307.2
785.172	299
785.353	192.51
785.535	260.09
785.716	366.59
785.897	305.15
786.079	313.34
786.26	299
786.441	274.43
786.623	253.95
786.804	315.39
786.985	344.06
787.167	288.76
787.348	317.44
787.529	241.66
787.71	169.98
787.891	249.85
788.073	188.41
788.254	251.9
788.435	264.19
788.616	364.54
788.797	219.13
788.978	288.76
789.159	278.52
789.34	231.42
789.522	305.15
789.703	235.52
789.884	245.76
790.065	229.37
790.246	284.67
790.427	215.04
790.607	233.47
790.788	210.94
790.969	231.42
791.15	157.69
791.331	153.6
791.512	223.23
791.693	221.18
791.874	276.48
792.054	268.28
792.235	200.7
792.416	161.79
792.597	169.98
792.778	192.51
792.958	258.04
793.139	249.85
793.32	268.28
793.5	202.75
793.681	161.79
793.862	126.97
794.042	202.75
794.223	163.84
794.404	262.14
794.584	239.61
794.765	221.18
794.945	174.08
795.126	194.56
795.306	268.28
795.487	221.18
795.667	208.89
795.848	135.17
796.028	133.12
796.209	210.94
796.389	161.79
796.57	180.22
796.75	157.69
796.93	208.89
797.111	190.46
797.291	126.97
797.471	159.74
797.652	180.22
797.832	194.56
798.012	270.33
798.192	178.17
798.373	153.6
798.553	114.69
798.733	155.65
798.913	212.99
799.093	153.6
799.274	167.93
799.454	153.6
799.634	174.08
799.814	163.84
799.994	139.26
800.174	145.41
800.354	161.79
800.534	188.41
800.714	96.25
800.894	135.17
801.074	139.26
801.254	116.73
801.434	129.02
801.614	118.78
801.794	143.36
801.974	356.35
802.154	180.22
802.334	104.45
802.514	124.93
802.693	133.12
802.873	149.5
803.053	188.41
803.233	102.4
803.413	145.41
803.592	120.83
803.772	131.07
803.952	141.31
804.131	98.3
804.311	163.84
804.491	167.93
804.67	145.41
804.85	163.84
805.03	188.41
805.209	204.8
805.389	139.26
805.568	114.69
805.748	169.98
805.928	122.88
806.107	178.17
806.287	110.59
806.466	172.03
806.646	83.97
806.825	126.97
807.004	133.12
807.184	151.55
807.363	114.69
807.543	165.89
807.722	137.21
807.901	180.22
808.081	172.03
808.26	169.98
808.439	139.26
808.619	153.6
808.798	102.4
808.977	59.39
809.156	79.87
809.336	67.58
809.515	108.54
809.694	57.34
809.873	129.02
810.052	141.31
810.231	79.87
810.411	145.41
810.59	104.45
810.769	55.3
810.948	161.79
811.127	98.3
811.306	155.65
811.485	131.07
811.664	96.25
811.843	86.01
812.022	73.73
812.201	143.36
812.38	186.37
812.559	110.59
812.737	108.54
812.916	94.21
813.095	131.07
813.274	59.39
813.453	98.3
813.632	100.35
813.811	71.68
813.989	65.53
814.168	40.96
814.347	92.16
814.526	79.87
814.704	57.34
814.883	114.69
815.062	106.49
815.24	108.54
815.419	65.53
815.598	88.06
815.776	94.21
815.955	129.02
816.133	34.82
816.312	57.34
816.49	67.58
816.669	45.06
816.847	112.64
817.026	59.39
817.204	55.3
817.383	65.53
817.561	114.69
817.74	94.21
817.918	30.72
818.097	124.93
818.275	73.73
818.453	104.45
818.632	2.05
818.81	71.68
818.988	26.62
819.167	-0
819.345	120.83
819.523	112.64
819.701	45.06
819.879	38.91
820.058	92.16
820.236	114.69
820.414	63.49
820.592	55.3
820.77	77.82
820.948	106.49
821.127	102.4
821.305	73.73
821.483	55.3
821.661	126.97
821.839	63.49
822.017	137.21
822.195	53.25
822.373	77.82
822.551	40.96
822.729	75.77
822.907	53.25
823.085	67.58
823.262	32.77
823.44	86.01
823.618	32.77
823.796	45.06
823.974	59.39
824.152	88.06
824.329	16.38
824.507	22.53
824.685	26.62
824.863	102.4
825.04	43.01
825.218	-8.19
825.396	20.48
825.574	81.92
825.751	67.58
825.929	81.92
826.107	67.58
826.284	73.73
826.462	32.77
826.639	108.54
826.817	45.06
826.994	73.73
827.172	-63.49
827.349	88.06
827.527	22.53
827.704	49.15
827.882	53.25
828.059	32.77
828.237	-43.01
828.414	131.07
828.591	104.45
828.769	20.48
828.946	45.06
829.124	63.49
829.301	38.91
829.478	26.62
829.655	47.1
829.833	69.63
830.01	6.14
830.187	86.01
830.364	32.77
830.542	-4.1
830.719	98.3
830.896	12.29
831.073	49.15
831.25	20.48
831.427	90.11
831.604	81.92
831.782	28.67
831.959	63.49
832.136	92.16
832.313	32.77
832.49	20.48
832.667	-34.82
832.844	4.1
833.021	110.59
833.198	47.1
833.374	36.86
833.551	83.97
833.728	45.06
833.905	49.15
834.082	116.73
834.259	4.1
834.436	59.39
834.612	2.05
834.789	8.19
834.966	126.97
835.143	53.25
835.319	59.39
835.496	79.87
835.673	26.62
835.85	20.48
836.026	69.63
836.203	26.62
836.38	18.43
836.556	10.24
836.733	34.82
836.909	55.3
837.086	96.25
837.262	45.06
837.439	57.34
837.616	67.58
837.792	12.29
837.968	43.01
838.145	-2.05
838.321	34.82
838.498	59.39
838.674	75.77
838.851	86.01
839.027	18.43
839.203	135.17
839.38	6.14
839.556	92.16
839.732	4.1
839.909	67.58
840.085	30.72
840.261	61.44
840.437	18.43
840.614	45.06
840.79	40.96
840.966	16.38
841.142	106.49
841.318	-4.1
841.494	28.67
841.671	2.05
841.847	12.29
842.023	69.63
842.199	22.53
842.375	86.01
842.551	40.96
842.727	30.72
842.903	81.92
843.079	12.29
843.255	67.58
843.431	49.15
843.607	18.43
843.783	59.39
843.959	90.11
844.134	57.34
844.31	-8.19
844.486	40.96
844.662	90.11
844.838	57.34
845.013	30.72
845.189	-18.43
845.365	-0
845.541	4.1
845.716	12.29
845.892	53.25
846.068	20.48
846.244	30.72
846.419	63.49
846.595	26.62
846.77	-26.62
846.946	73.73
847.122	16.38
847.297	10.24
847.473	22.53
847.648	65.53
847.824	18.43
847.999	-34.82
848.175	-26.62
848.35	38.91
848.526	-16.38
848.701	-2.05
848.876	10.24
849.052	71.68
849.227	73.73
849.403	34.82
849.578	71.68
849.753	61.44
849.929	71.68
850.104	-18.43
850.279	30.72
850.454	4.1
850.63	32.77
850.805	10.24
850.98	73.73
851.155	-38.91
851.33	-18.43
851.505	-14.34
851.681	75.77
851.856	38.91
852.031	30.72
852.206	59.39
852.381	-26.62
852.556	43.01
852.731	63.49
852.906	24.58
853.081	24.58
853.256	38.91
853.431	26.62
853.606	30.72
853.781	14.34
853.956	8.19
854.131	-0
854.305	32.77
854.48	-8.19
854.655	10.24
854.83	24.58
855.005	-16.38
855.18	32.77
855.354	47.1
855.529	-4.1
855.704	-8.19
855.879	55.3
856.053	57.34
856.228	-14.34
856.403	-10.24
856.577	-16.38
856.752	-47.1
856.926	43.01
857.101	77.82
857.276	26.62
857.45	-49.15
857.625	43.01
857.799	61.44
857.974	38.91
858.148	-45.06
858.323	24.58
858.497	-0
858.672	26.62
858.846	-57.34
859.02	47.1
859.195	12.29
859.369	36.86
859.543	22.53
859.718	-8.19
859.892	55.3
860.066	26.62
860.241	-0
860.415	-0
860.589	24.58
860.763	6.14
860.938	-20.48
861.112	47.1
861.286	34.82
861.46	-26.62
861.634	-28.67
861.808	51.2
861.982	22.53
862.157	43.01
862.331	40.96
862.505	14.34
862.679	34.82
862.853	-43.01
863.027	65.53
863.201	8.19
863.375	-45.06
863.549	-18.43
863.722	8.19
863.896	-14.34
864.07	22.53
864.244	-30.72
864.418	2.05
864.592	-8.19
864.766	36.86
864.939	-6.14
865.113	-45.06
865.287	24.58
865.461	-43.01
865.634	-18.43
865.808	-0
865.982	14.34
866.156	-22.53
866.329	-20.48
866.503	49.15
866.676	-43.01
866.85	-8.19
867.024	-24.58
867.197	-43.01
867.371	-26.62
867.544	14.34
867.718	-38.91
867.891	100.35
868.065	30.72
868.238	26.62
868.412	16.38
868.585	57.34
868.759	-49.15
868.932	-36.86
869.105	4.1
869.279	-20.48
869.452	53.25
869.625	18.43
869.799	18.43
869.972	38.91
870.145	20.48
870.319	-26.62
870.492	20.48
870.665	-51.2
870.838	-20.48
871.011	-34.82
871.185	-10.24
871.358	47.1
871.531	43.01
871.704	-55.3
871.877	53.25
872.05	12.29
872.223	4.1
872.396	38.91
872.569	-30.72
872.742	8.19
872.915	63.49
873.088	-18.43
873.261	32.77
873.434	10.24
873.607	26.62
873.78	47.1
873.953	57.34
874.126	-10.24
874.299	28.67
874.471	81.92
874.644	6.14
874.817	-49.15
874.99	-14.34
875.163	6.14
875.335	24.58
875.508	-14.34
875.681	34.82
875.853	24.58
876.026	-24.58
876.199	43.01
876.371	30.72
876.544	47.1
876.717	24.58
876.889	-2.05
877.062	12.29
877.234	10.24
877.407	81.92
877.579	-0
877.752	8.19
877.924	32.77
878.097	18.43
878.269	28.67
878.442	-61.44
878.614	-20.48
878.786	-10.24
878.959	14.34
879.131	34.82
879.303	18.43
879.476	77.82
879.648	-4.1
879.82	-4.1
879.993	-30.72
880.165	30.72
880.337	-4.1
880.509	14.34
880.681	43.01
880.854	32.77
881.026	-18.43
881.198	88.06
881.37	-65.54
881.542	55.3
881.714	-47.1
881.886	-24.58
882.058	32.77
882.23	-45.06
882.402	-49.15
882.574	83.97
882.746	26.62
882.918	16.38
883.09	-26.62
883.262	-26.62
883.434	59.39
883.606	6.14
883.778	-34.82
883.95	63.49
884.122	65.53
884.293	40.96
884.465	-4.1
884.637	12.29
884.809	-14.34
884.98	-40.96
885.152	16.38
885.324	-0
885.496	28.67
885.667	14.34
885.839	22.53
886.011	28.67
886.182	18.43
886.354	14.34
886.525	14.34
886.697	-28.67
886.869	24.58
887.04	-30.72
887.212	-63.49
887.383	-34.82
887.555	26.62
887.726	79.87
887.897	-57.34
888.069	63.49
888.24	20.48
888.412	24.58
888.583	16.38
888.754	-4.1
888.926	18.43
889.097	-8.19
889.268	26.62
889.44	-10.24
889.611	-12.29
889.782	-55.3
889.953	-22.53
890.125	16.38
890.296	38.91
890.467	-10.24
890.638	-8.19
890.809	-57.34
890.98	22.53
891.151	67.58
891.323	-28.67
891.494	-6.14
891.665	8.19
891.836	4.1
892.007	-0
892.178	8.19
892.349	14.34
892.52	-6.14
892.691	12.29
892.862	38.91
893.032	-8.19
893.203	16.38
893.374	-4.1
893.545	49.15
893.716	-36.86
893.887	47.1
894.057	-2.05
894.228	-8.19
894.399	26.62
894.57	45.06
894.74	16.38
894.911	-6.14
895.082	-36.86
895.253	-43.01
895.423	75.77
895.594	26.62
895.764	30.72
895.935	73.73
896.106	36.86
896.276	8.19
896.447	43.01
896.617	30.72
896.788	4.1
896.958	-10.24
897.129	32.77
897.299	-2.05
897.47	-108.54
897.64	-2.05
897.81	-2.05
897.981	69.63
898.151	-55.3
898.322	-14.34
898.492	-22.53
898.662	-6.14
898.832	-77.82
899.003	-49.15
899.173	32.77
899.343	16.38
899.513	-10.24
