Data from USB4F104151__45__11-36-59-643.txt Node

Date: Fri Mar 14 11:36:59 EDT 2025
User: louis
Spectrometer: USB4F10415
Trigger mode: 4
Integration Time (sec): 2.000000E-2
Scans to average: 1
Electric dark correction enabled: true
Nonlinearity correction enabled: false
Boxcar width: 0
XAxis mode: Wavelengths
Number of Pixels in Spectrum: 3648
>>>>>Begin Spectral Data<<<<<
178.204	-22.36
178.424	-22.36
178.644	-22.36
178.864	-57.17
179.084	-44.88
179.304	-38.74
179.524	16.55
179.744	75.95
179.964	16.55
180.184	32.94
180.404	-28.5
180.624	20.65
180.844	-12.12
181.064	-44.88
181.283	-36.69
181.503	-5.97
181.723	4.27
181.943	24.75
182.163	127.14
182.383	-30.55
182.602	41.13
182.822	77.99
183.042	55.47
183.262	77.99
183.482	20.65
183.701	-16.21
183.921	-44.88
184.141	32.94
184.361	82.09
184.58	45.23
184.8	-8.02
185.02	49.32
185.239	59.56
185.459	53.42
185.679	30.89
185.898	8.36
186.118	63.66
186.338	59.56
186.557	37.03
186.777	24.75
186.997	84.14
187.216	2.22
187.436	-10.07
187.655	24.75
187.875	37.03
188.095	22.7
188.314	32.94
188.534	30.89
188.753	8.36
188.973	28.84
189.192	82.09
189.412	-1.88
189.631	18.6
189.851	-1.88
190.07	84.14
190.29	28.84
190.509	67.75
190.729	-38.74
190.948	65.71
191.168	96.43
191.387	-20.31
191.607	59.56
191.826	2.22
192.045	4.27
192.265	116.9
192.484	39.08
192.704	41.13
192.923	18.6
193.142	71.85
193.362	-12.12
193.581	51.37
193.8	45.23
194.02	26.79
194.239	20.65
194.458	75.95
194.678	96.43
194.897	55.47
195.116	-8.02
195.335	-5.97
195.555	34.99
195.774	-38.74
195.993	20.65
196.212	32.94
196.432	61.61
196.651	-18.26
196.87	41.13
197.089	84.14
197.308	53.42
197.528	-24.4
197.747	-24.4
197.966	43.18
198.185	-12.12
198.404	63.66
198.623	34.99
198.842	37.03
199.062	37.03
199.281	43.18
199.5	-1.88
199.719	-10.07
199.938	28.84
200.157	41.13
200.376	84.14
200.595	34.99
200.814	57.51
201.033	10.41
201.252	0.17
201.471	-8.02
201.69	98.47
201.909	57.51
202.128	22.7
202.347	45.23
202.566	57.51
202.785	4.27
203.004	-32.6
203.223	137.38
203.442	-28.5
203.661	2.22
203.879	37.03
204.098	18.6
204.317	-5.97
204.536	-10.07
204.755	53.42
204.974	121
205.193	86.19
205.411	51.37
205.63	4.27
205.849	4.27
206.068	-38.74
206.287	45.23
206.505	0.17
206.724	-34.64
206.943	55.47
207.162	61.61
207.381	-36.69
207.599	61.61
207.818	-57.17
208.037	24.75
208.255	32.94
208.474	2.22
208.693	8.36
208.911	18.6
209.13	51.37
209.349	82.09
209.567	75.95
209.786	80.04
210.005	-8.02
210.223	45.23
210.442	-18.26
210.661	0.17
210.879	18.6
211.098	53.42
211.316	65.71
211.535	26.79
211.753	32.94
211.972	69.8
212.191	-10.07
212.409	12.46
212.628	37.03
212.846	32.94
213.065	61.61
213.283	20.65
213.502	51.37
213.72	-10.07
213.938	53.42
214.157	30.89
214.375	30.89
214.594	-16.21
214.812	45.23
215.031	-1.88
215.249	37.03
215.467	-1.88
215.686	28.84
215.904	45.23
216.122	8.36
216.341	65.71
216.559	53.42
216.778	73.9
216.996	110.76
217.214	-3.93
217.432	26.79
217.651	-104.28
217.869	49.32
218.087	41.13
218.306	-20.31
218.524	26.79
218.742	26.79
218.96	41.13
219.179	20.65
219.397	37.03
219.615	-20.31
219.833	20.65
220.051	18.6
220.27	65.71
220.488	0.17
220.706	26.79
220.924	20.65
221.142	28.84
221.36	8.36
221.578	-12.12
221.796	-22.36
222.015	-28.5
222.233	80.04
222.451	43.18
222.669	-3.93
222.887	49.32
223.105	-20.31
223.323	4.27
223.541	69.8
223.759	-3.93
223.977	14.51
224.195	32.94
224.413	69.8
224.631	-28.5
224.849	6.31
225.067	41.13
225.285	2.22
225.503	12.46
225.721	34.99
225.939	106.67
226.157	26.79
226.375	90.28
226.592	24.75
226.81	51.37
227.028	20.65
227.246	45.23
227.464	12.46
227.682	57.51
227.9	49.32
228.117	41.13
228.335	6.31
228.553	-14.17
228.771	22.7
228.989	10.41
229.206	75.95
229.424	73.9
229.642	10.41
229.86	53.42
230.077	-1.88
230.295	-46.93
230.513	80.04
230.731	-3.93
230.948	14.51
231.166	61.61
231.384	6.31
231.601	53.42
231.819	67.75
232.037	20.65
232.254	67.75
232.472	84.14
232.689	-12.12
232.907	67.75
233.125	-65.36
233.342	69.8
233.56	-1.88
233.777	53.42
233.995	26.79
234.213	82.09
234.43	53.42
234.648	-28.5
234.865	24.75
235.083	20.65
235.3	2.22
235.518	12.46
235.735	37.03
235.953	90.28
236.17	65.71
236.388	77.99
236.605	20.65
236.822	-8.02
237.04	-14.17
237.257	53.42
237.475	24.75
237.692	57.51
237.909	26.79
238.127	-40.79
238.344	47.27
238.562	73.9
238.779	28.84
238.996	30.89
239.214	22.7
239.431	114.86
239.648	53.42
239.865	10.41
240.083	34.99
240.3	24.75
240.517	-48.98
240.735	43.18
240.952	30.89
241.169	84.14
241.386	-8.02
241.603	43.18
241.821	37.03
242.038	43.18
242.255	94.38
242.472	-73.56
242.689	32.94
242.907	2.22
243.124	61.61
243.341	10.41
243.558	-8.02
243.775	16.55
243.992	-42.84
244.209	22.7
244.426	121
244.643	30.89
244.86	-20.31
245.078	28.84
245.295	47.27
245.512	4.27
245.729	4.27
245.946	102.57
246.163	30.89
246.38	-22.36
246.597	39.08
246.814	53.42
247.031	57.51
247.248	-14.17
247.464	12.46
247.681	104.62
247.898	90.28
248.115	75.95
248.332	-14.17
248.549	59.56
248.766	112.81
248.983	45.23
249.2	30.89
249.417	94.38
249.633	18.6
249.85	73.9
250.067	8.36
250.284	77.99
250.501	69.8
250.717	10.41
250.934	37.03
251.151	86.19
251.368	8.36
251.585	43.18
251.801	53.42
252.018	-3.93
252.235	86.19
252.451	65.71
252.668	20.65
252.885	110.76
253.102	61.61
253.318	22.7
253.535	84.14
253.752	0.17
253.968	0.17
254.185	41.13
254.401	-8.02
254.618	37.03
254.835	-8.02
255.051	28.84
255.268	32.94
255.484	41.13
255.701	0.17
255.917	135.34
256.134	-26.45
256.351	-36.69
256.567	-63.32
256.784	18.6
257	-10.07
257.217	53.42
257.433	98.47
257.65	32.94
257.866	28.84
258.082	-18.26
258.299	86.19
258.515	30.89
258.732	-44.88
258.948	-42.84
259.165	41.13
259.381	-32.6
259.597	53.42
259.814	16.55
260.03	37.03
260.246	-28.5
260.463	-28.5
260.679	51.37
260.895	57.51
261.112	34.99
261.328	16.55
261.544	49.32
261.761	16.55
261.977	-16.21
262.193	-8.02
262.409	-26.45
262.626	-3.93
262.842	28.84
263.058	-30.55
263.274	34.99
263.49	51.37
263.707	82.09
263.923	16.55
264.139	71.85
264.355	26.79
264.571	100.52
264.787	45.23
265.004	18.6
265.22	16.55
265.436	65.71
265.652	26.79
265.868	57.51
266.084	-32.6
266.3	24.75
266.516	-40.79
266.732	77.99
266.948	39.08
267.164	96.43
267.38	53.42
267.596	86.19
267.812	43.18
268.028	-30.55
268.244	2.22
268.46	30.89
268.676	18.6
268.892	-8.02
269.108	-94.04
269.324	53.42
269.54	6.31
269.756	16.55
269.972	-24.4
270.188	10.41
270.403	57.51
270.619	73.9
270.835	65.71
271.051	37.03
271.267	45.23
271.483	71.85
271.698	6.31
271.914	14.51
272.13	20.65
272.346	34.99
272.562	16.55
272.777	80.04
272.993	61.61
273.209	32.94
273.425	24.75
273.64	71.85
273.856	-22.36
274.072	-34.64
274.287	-8.02
274.503	2.22
274.719	69.8
274.934	18.6
275.15	6.31
275.366	12.46
275.581	32.94
275.797	-28.5
276.012	-12.12
276.228	20.65
276.444	57.51
276.659	37.03
276.875	12.46
277.09	69.8
277.306	8.36
277.521	26.79
277.737	18.6
277.952	88.23
278.168	65.71
278.383	88.23
278.599	41.13
278.814	12.46
279.03	14.51
279.245	65.71
279.461	-8.02
279.676	45.23
279.892	16.55
280.107	16.55
280.322	32.94
280.538	30.89
280.753	41.13
280.969	67.75
281.184	49.32
281.399	4.27
281.615	-3.93
281.83	73.9
282.045	47.27
282.26	4.27
282.476	8.36
282.691	61.61
282.906	14.51
283.122	-12.12
283.337	8.36
283.552	30.89
283.767	57.51
283.983	77.99
284.198	30.89
284.413	34.99
284.628	20.65
284.843	53.42
285.058	92.33
285.274	-3.93
285.489	37.03
285.704	10.41
285.919	12.46
286.134	26.79
286.349	12.46
286.564	-51.03
286.779	24.75
286.995	30.89
287.21	-40.79
287.425	26.79
287.64	8.36
287.855	80.04
288.07	-20.31
288.285	37.03
288.5	24.75
288.715	34.99
288.93	98.47
289.145	-16.21
289.36	4.27
289.575	28.84
289.79	14.51
290.004	106.67
290.219	-38.74
290.434	18.6
290.649	-53.08
290.864	12.46
291.079	28.84
291.294	41.13
291.509	28.84
291.724	84.14
291.938	12.46
292.153	77.99
292.368	69.8
292.583	22.7
292.798	4.27
293.012	32.94
293.227	67.75
293.442	43.18
293.657	24.75
293.871	53.42
294.086	77.99
294.301	49.32
294.516	4.27
294.73	26.79
294.945	-16.21
295.16	12.46
295.374	71.85
295.589	22.7
295.804	28.84
296.018	-8.02
296.233	49.32
296.447	47.27
296.662	61.61
296.877	30.89
297.091	86.19
297.306	116.9
297.52	45.23
297.735	-16.21
297.949	34.99
298.164	37.03
298.378	53.42
298.593	-28.5
298.807	-1.88
299.022	10.41
299.236	-8.02
299.451	22.7
299.665	47.27
299.88	65.71
300.094	45.23
300.309	30.89
300.523	26.79
300.737	82.09
300.952	47.27
301.166	24.75
301.381	-3.93
301.595	61.61
301.809	49.32
302.024	-28.5
302.238	75.95
302.452	49.32
302.667	39.08
302.881	94.38
303.095	39.08
303.309	71.85
303.524	30.89
303.738	55.47
303.952	0.17
304.166	4.27
304.381	69.8
304.595	51.37
304.809	41.13
305.023	37.03
305.237	28.84
305.452	49.32
305.666	-1.88
305.88	53.42
306.094	55.47
306.308	-28.5
306.522	67.75
306.736	30.89
306.95	-44.88
307.164	63.66
307.379	26.79
307.593	32.94
307.807	22.7
308.021	104.62
308.235	22.7
308.449	16.55
308.663	59.56
308.877	41.13
309.091	30.89
309.305	22.7
309.519	67.75
309.733	28.84
309.947	4.27
310.161	26.79
310.374	6.31
310.588	-12.12
310.802	37.03
311.016	16.55
311.23	22.7
311.444	18.6
311.658	53.42
311.872	28.84
312.085	69.8
312.299	110.76
312.513	39.08
312.727	37.03
312.941	14.51
313.154	20.65
313.368	28.84
313.582	34.99
313.796	100.52
314.009	45.23
314.223	53.42
314.437	30.89
314.651	118.95
314.864	20.65
315.078	16.55
315.292	-32.6
315.505	61.61
315.719	67.75
315.933	53.42
316.146	32.94
316.36	-1.88
316.573	51.37
316.787	6.31
317.001	131.24
317.214	-51.03
317.428	16.55
317.641	-1.88
317.855	61.61
318.068	8.36
318.282	82.09
318.495	82.09
318.709	77.99
318.922	28.84
319.136	63.66
319.349	12.46
319.563	6.31
319.776	4.27
319.99	41.13
320.203	20.65
320.417	45.23
320.63	32.94
320.843	-3.93
321.057	45.23
321.27	37.03
321.483	24.75
321.697	100.52
321.91	45.23
322.124	43.18
322.337	86.19
322.55	41.13
322.763	45.23
322.977	12.46
323.19	45.23
323.403	4.27
323.617	69.8
323.83	10.41
324.043	-3.93
324.256	24.75
324.469	10.41
324.683	43.18
324.896	2.22
325.109	61.61
325.322	-14.17
325.535	30.89
325.748	-55.12
325.962	41.13
326.175	-24.4
326.388	8.36
326.601	20.65
326.814	45.23
327.027	-46.93
327.24	43.18
327.453	-16.21
327.666	53.42
327.879	67.75
328.092	98.47
328.305	47.27
328.518	-16.21
328.731	67.75
328.944	82.09
329.157	14.51
329.37	-28.5
329.583	75.95
329.796	59.56
330.009	-28.5
330.222	63.66
330.435	34.99
330.648	51.37
330.861	-44.88
331.073	45.23
331.286	92.33
331.499	63.66
331.712	24.75
331.925	47.27
332.138	4.27
332.35	59.56
332.563	51.37
332.776	125.1
332.989	8.36
333.202	108.71
333.414	75.95
333.627	8.36
333.84	24.75
334.053	53.42
334.265	34.99
334.478	63.66
334.691	24.75
334.903	75.95
335.116	24.75
335.329	51.37
335.541	-8.02
335.754	65.71
335.966	43.18
336.179	-32.6
336.392	18.6
336.604	-28.5
336.817	-3.93
337.029	34.99
337.242	8.36
337.454	6.31
337.667	47.27
337.88	32.94
338.092	30.89
338.305	0.17
338.517	2.22
338.729	102.57
338.942	45.23
339.154	10.41
339.367	51.37
339.579	41.13
339.792	45.23
340.004	86.19
340.217	51.37
340.429	41.13
340.641	32.94
340.854	28.84
341.066	51.37
341.278	22.7
341.491	63.66
341.703	43.18
341.915	28.84
342.128	24.75
342.34	-8.02
342.552	26.79
342.764	75.95
342.977	0.17
343.189	84.14
343.401	118.95
343.613	30.89
343.826	18.6
344.038	65.71
344.25	-36.69
344.462	2.22
344.674	-10.07
344.886	32.94
345.099	43.18
345.311	-28.5
345.523	0.17
345.735	73.9
345.947	-34.64
346.159	-30.55
346.371	18.6
346.583	8.36
346.795	176.3
347.007	32.94
347.219	90.28
347.431	37.03
347.643	4.27
347.855	84.14
348.067	57.51
348.279	0.17
348.491	30.89
348.703	24.75
348.915	67.75
349.127	73.9
349.339	57.51
349.551	2.22
349.763	73.9
349.975	32.94
350.187	65.71
350.399	57.51
350.61	24.75
350.822	51.37
351.034	69.8
351.246	2.22
351.458	104.62
351.669	49.32
351.881	28.84
352.093	20.65
352.305	84.14
352.517	102.57
352.728	4.27
352.94	67.75
353.152	32.94
353.363	59.56
353.575	28.84
353.787	71.85
353.999	-22.36
354.21	20.65
354.422	45.23
354.633	-28.5
354.845	47.27
355.057	43.18
355.268	41.13
355.48	45.23
355.692	41.13
355.903	-42.84
356.115	30.89
356.326	43.18
356.538	65.71
356.749	-46.93
356.961	63.66
357.172	2.22
357.384	94.38
357.595	116.9
357.807	-30.55
358.018	18.6
358.23	8.36
358.441	88.23
358.653	41.13
358.864	22.7
359.075	-5.97
359.287	28.84
359.498	69.8
359.709	139.43
359.921	43.18
360.132	53.42
360.344	59.56
360.555	-3.93
360.766	96.43
360.977	-12.12
361.189	69.8
361.4	39.08
361.611	73.9
361.823	53.42
362.034	61.61
362.245	-77.65
362.456	6.31
362.667	75.95
362.879	12.46
363.09	-14.17
363.301	22.7
363.512	67.75
363.723	16.55
363.935	34.99
364.146	26.79
364.357	24.75
364.568	57.51
364.779	63.66
364.99	20.65
365.201	57.51
365.412	73.9
365.623	-77.65
365.834	88.23
366.045	-3.93
366.256	18.6
366.467	118.95
366.678	24.75
366.889	67.75
367.1	43.18
367.311	61.61
367.522	92.33
367.733	77.99
367.944	49.32
368.155	41.13
368.366	51.37
368.577	2.22
368.788	59.56
368.999	37.03
369.209	63.66
369.42	45.23
369.631	37.03
369.842	49.32
370.053	24.75
370.264	16.55
370.474	12.46
370.685	65.71
370.896	18.6
371.107	106.67
371.317	51.37
371.528	4.27
371.739	-5.97
371.95	59.56
372.16	34.99
372.371	-5.97
372.582	10.41
372.792	67.75
373.003	88.23
373.214	86.19
373.424	57.51
373.635	39.08
373.846	37.03
374.056	-36.69
374.267	133.29
374.477	65.71
374.688	-3.93
374.898	16.55
375.109	10.41
375.319	41.13
375.53	-5.97
375.74	0.17
375.951	59.56
376.161	41.13
376.372	10.41
376.582	41.13
376.793	80.04
377.003	-20.31
377.214	69.8
377.424	63.66
377.635	63.66
377.845	-18.26
378.055	69.8
378.266	34.99
378.476	14.51
378.686	37.03
378.897	67.75
379.107	34.99
379.317	51.37
379.528	75.95
379.738	71.85
379.948	12.46
380.158	80.04
380.369	45.23
380.579	110.76
380.789	-34.64
380.999	26.79
381.21	94.38
381.42	121
381.63	14.51
381.84	84.14
382.05	51.37
382.261	96.43
382.471	69.8
382.681	55.47
382.891	65.71
383.101	51.37
383.311	80.04
383.521	10.41
383.731	67.75
383.941	98.47
384.151	73.9
384.361	20.65
384.571	18.6
384.781	96.43
384.991	75.95
385.201	147.62
385.411	63.66
385.621	10.41
385.831	22.7
386.041	73.9
386.251	47.27
386.461	28.84
386.671	47.27
386.881	71.85
387.091	32.94
387.301	61.61
387.511	45.23
387.72	57.51
387.93	28.84
388.14	-28.5
388.35	28.84
388.56	26.79
388.769	24.75
388.979	86.19
389.189	-14.17
389.399	28.84
389.609	63.66
389.818	71.85
390.028	90.28
390.238	67.75
390.447	-34.64
390.657	6.31
390.867	-20.31
391.076	75.95
391.286	151.72
391.496	75.95
391.705	28.84
391.915	51.37
392.125	92.33
392.334	51.37
392.544	110.76
392.753	39.08
392.963	43.18
393.172	-14.17
393.382	-14.17
393.591	65.71
393.801	24.75
394.01	73.9
394.22	94.38
394.429	41.13
394.639	53.42
394.848	18.6
395.058	59.56
395.267	-40.79
395.477	77.99
395.686	106.67
395.895	102.57
396.105	57.51
396.314	49.32
396.524	92.33
396.733	0.17
396.942	77.99
397.152	110.76
397.361	88.23
397.57	73.9
397.78	86.19
397.989	24.75
398.198	116.9
398.407	104.62
398.617	8.36
398.826	61.61
399.035	82.09
399.244	116.9
399.453	118.95
399.663	61.61
399.872	80.04
400.081	6.31
400.29	131.24
400.499	47.27
400.708	143.53
400.917	86.19
401.127	67.75
401.336	100.52
401.545	94.38
401.754	157.86
401.963	71.85
402.172	69.8
402.381	69.8
402.59	43.18
402.799	47.27
403.008	90.28
403.217	75.95
403.426	164.01
403.635	112.81
403.844	108.71
404.053	100.52
404.262	127.14
404.471	155.82
404.68	102.57
404.888	96.43
405.097	73.9
405.306	77.99
405.515	96.43
405.724	139.43
405.933	102.57
406.142	149.67
406.35	161.96
406.559	106.67
406.768	166.06
406.977	135.34
407.185	108.71
407.394	164.01
407.603	151.72
407.812	166.06
408.02	168.1
408.229	125.1
408.438	135.34
408.646	133.29
408.855	106.67
409.064	219.3
409.272	166.06
409.481	239.78
409.69	184.49
409.898	184.49
410.107	250.02
410.315	168.1
410.524	192.68
410.733	276.65
410.941	241.83
411.15	282.79
411.358	282.79
411.567	299.17
411.775	286.89
411.984	245.93
412.192	223.4
412.401	297.13
412.609	327.85
412.818	258.21
413.026	237.74
413.234	348.33
413.443	385.19
413.651	307.37
413.86	366.76
414.068	354.47
414.276	463.01
414.485	374.95
414.693	450.72
414.901	485.54
415.11	508.07
415.318	446.63
415.526	495.78
415.734	551.07
415.943	532.64
416.151	495.78
416.359	585.89
416.567	583.84
416.776	503.97
416.984	655.52
417.192	610.47
417.4	618.66
417.608	589.99
417.817	805.02
418.025	737.44
418.233	762.02
418.441	721.06
418.649	729.25
418.857	755.87
419.065	854.17
419.273	841.89
419.481	891.04
419.689	886.94
419.897	1022.11
420.105	897.18
420.313	999.58
420.521	1130.65
420.729	1093.79
420.937	1073.31
421.145	1097.88
421.353	1231
421.561	1253.53
421.769	1314.97
421.977	1263.77
422.185	1392.79
422.393	1312.92
422.601	1536.15
422.809	1427.6
423.017	1515.67
423.224	1597.59
423.432	1577.11
423.64	1540.24
423.848	1876.11
424.056	1720.46
424.263	1851.53
424.471	1779.86
424.679	1845.39
424.887	2007.18
425.094	2029.71
425.302	2095.24
425.51	2117.77
425.718	2211.98
425.925	2183.31
426.133	2338.95
426.341	2414.73
426.548	2578.56
426.756	2586.76
426.964	2601.09
427.171	2754.69
427.379	2787.46
427.586	2738.3
427.794	2889.85
428.001	3076.22
428.209	3219.58
428.417	3129.47
428.624	3356.79
428.832	3541.11
429.039	3246.2
429.247	3375.22
429.454	3760.24
429.662	3954.8
429.869	3532.92
430.076	3915.89
430.284	3833.97
430.491	4022.38
430.699	4118.64
430.906	4128.88
431.114	4204.65
431.321	4341.86
431.528	4368.49
431.736	4806.75
431.943	5066.85
432.15	4851.81
432.358	4810.85
432.565	5199.96
432.772	5316.7
432.979	5451.86
433.187	5582.93
433.394	5589.08
433.601	5843.03
433.808	5976.14
434.016	5812.31
434.223	6084.69
434.43	6635.59
434.637	6230.09
434.844	6770.76
435.052	6969.41
435.259	6897.73
435.466	6918.21
435.673	6824
435.88	7594.04
436.087	7708.73
436.294	7704.63
436.501	7567.42
436.708	7614.52
436.915	7901.23
437.122	8337.45
437.329	8196.14
437.537	8540.2
437.743	8665.13
437.95	8609.83
438.157	9134.11
438.364	9281.57
438.571	9480.22
438.778	9381.92
438.985	10442.76
439.192	9734.17
439.399	10043.41
439.606	9846.8
439.813	10557.45
440.02	10909.7
440.227	10874.88
440.433	10788.87
440.64	11204.61
440.847	11239.42
441.054	11460.6
441.261	12062.71
441.467	12126.19
441.674	12300.27
441.881	12722.15
442.088	12773.35
442.294	12578.79
442.501	13082.6
442.708	13066.21
442.914	13504.48
443.121	14309.33
443.328	14118.87
443.534	14849.99
443.741	14362.58
443.948	14256.08
444.154	15124.42
444.361	15204.29
444.568	15200.19
444.774	15349.7
444.981	15503.29
445.187	15794.11
445.394	16529.33
445.6	16367.54
445.807	17932.19
446.013	17227.68
446.22	17532.83
446.426	18100.12
446.633	18413.46
446.839	18937.74
447.046	18071.45
447.252	19259.27
447.459	19240.84
447.665	19011.46
447.871	19939.19
448.078	20817.77
448.284	19621.76
448.491	20270.97
448.697	21243.75
448.903	21686.11
449.11	21432.16
449.316	21325.67
449.522	21350.24
449.728	22003.55
449.935	22064.99
450.141	22345.56
450.347	22675.28
450.553	22366.04
450.76	22294.36
450.966	22962
451.172	22716.24
451.378	23455.56
451.584	22992.72
451.791	23551.81
451.997	23209.8
452.203	24018.75
452.409	23863.1
452.615	23611.2
452.821	23099.21
453.027	22505.3
453.233	23990.08
453.44	23123.79
453.646	23387.97
453.852	23502.66
454.058	23693.12
454.264	22892.37
454.47	23439.17
454.676	22861.65
454.882	24012.6
455.088	21702.5
455.294	22024.03
455.5	22345.56
455.705	22529.87
455.911	21614.43
456.117	21208.94
456.323	20774.77
456.529	19664.77
456.735	20451.19
456.941	20064.12
457.147	19668.86
457.352	18847.63
457.558	19054.47
457.764	18958.22
457.97	18509.71
458.176	18278.29
458.381	17999.77
458.587	17293.22
458.793	17426.34
458.999	16179.12
459.204	17659.81
459.41	16891.82
459.616	15701.95
459.821	15951.8
460.027	15845.3
460.233	15585.21
460.438	14706.63
460.644	15126.47
460.85	14284.75
461.055	14016.47
461.261	13985.75
461.466	12726.25
461.672	12660.71
461.878	13436.89
462.083	12541.93
462.289	12431.34
462.494	12404.72
462.7	11640.83
462.905	11309.05
463.111	11939.83
463.316	11700.22
463.522	11651.06
463.727	11610.11
463.932	11476.99
464.138	11546.62
464.343	11532.28
464.549	11249.66
464.754	11620.35
464.959	11710.46
465.165	11118.59
465.37	10962.95
465.575	10420.24
465.781	11210.75
465.986	11143.17
466.191	10784.77
466.397	10635.27
466.602	10006.55
466.807	10358.8
467.012	10072.08
467.218	10260.49
467.423	10149.9
467.628	10266.64
467.833	10418.19
468.038	10197.01
468.244	9920.53
468.449	10514.44
468.654	9936.92
468.859	9918.48
469.064	9914.39
469.269	9584.66
469.474	9521.18
469.679	9730.07
469.885	9334.81
470.09	9631.77
470.295	9662.49
470.5	9539.61
470.705	9455.64
470.91	9347.1
471.115	9166.88
471.32	9250.85
471.525	9048.1
471.73	8865.83
471.935	8937.51
472.139	8570.92
472.344	8667.17
472.549	8638.5
472.754	8656.93
472.959	8224.81
473.164	8319.02
473.369	8126.51
473.574	8593.45
473.778	8071.22
473.983	8200.24
474.188	8020.02
474.393	7860.27
474.598	7778.36
474.802	7966.77
475.007	7743.54
475.212	7764.02
475.417	7422.01
475.621	7485.5
475.826	7587.89
476.031	7391.29
476.235	7393.34
476.44	7260.22
476.645	7221.31
476.849	7022.66
477.054	7002.18
477.259	6912.07
477.463	7106.62
477.668	6795.33
477.872	6924.35
478.077	6649.93
478.282	6692.93
478.486	6621.25
478.691	6670.4
478.895	6451.27
479.1	6541.38
479.304	6580.29
479.509	6336.59
479.713	6494.28
479.918	6324.3
480.122	6195.28
480.326	6373.45
480.531	6287.43
480.735	6129.74
480.94	6180.94
481.144	6330.44
481.348	6152.27
481.553	6277.19
481.757	5988.43
481.961	6035.53
482.166	6051.92
482.37	6185.04
482.574	6029.39
482.778	5908.56
482.983	6307.91
483.187	5943.38
483.391	6101.07
483.595	5883.98
483.8	5851.22
484.004	6166.6
484.208	6221.9
484.412	5978.19
484.616	5926.99
484.821	5972.05
485.025	5947.47
485.229	5904.46
485.433	5863.51
485.637	6088.78
485.841	5982.29
486.045	5869.65
486.249	5840.98
486.453	5853.27
486.657	6010.96
486.861	5959.76
487.065	5828.69
487.269	5914.7
487.473	5759.06
487.677	6133.84
487.881	6105.17
488.085	5961.81
488.289	6123.6
488.493	6099.02
488.697	6045.77
488.901	6043.73
489.105	5947.47
489.309	6213.71
489.512	5967.95
489.716	6029.39
489.92	6096.97
490.124	6033.49
490.328	6156.36
490.531	6090.83
490.735	6060.11
490.939	6191.18
491.143	5912.66
491.346	6148.17
491.55	6137.93
491.754	6352.97
491.958	6420.55
492.161	6273.1
492.365	6260.81
492.569	6314.06
492.772	6258.76
492.976	6424.65
493.18	6475.85
493.383	6541.38
493.587	6426.7
493.79	6631.49
493.994	6492.23
494.197	6672.45
494.401	6502.47
494.605	6715.46
494.808	6727.75
495.012	6940.74
495.215	6899.78
495.419	6871.11
495.622	6801.47
495.825	6961.22
496.029	6867.01
496.232	7147.58
496.436	7045.18
496.639	7256.12
496.843	7049.28
497.046	7221.31
497.249	7487.54
497.453	7462.97
497.656	7536.7
497.859	7569.46
498.063	7680.05
498.266	8075.31
498.469	7727.16
498.673	7864.37
498.876	7995.44
499.079	8071.22
499.282	7907.38
499.485	8261.68
499.689	8286.25
499.892	8273.96
500.095	8292.4
500.298	8710.18
500.501	8583.21
500.705	8679.46
500.908	8734.76
501.111	8923.17
501.314	8912.93
501.517	9082.91
501.72	9207.84
501.923	9015.33
502.126	9426.97
502.329	9412.64
502.532	9394.2
502.735	9545.75
502.938	9740.31
503.141	9875.48
503.344	9973.78
503.547	10039.31
503.75	10303.5
503.953	10172.43
504.156	10178.58
504.359	10426.38
504.562	10749.96
504.765	10704.9
504.968	10778.63
505.17	10950.66
505.373	10928.13
505.576	11202.56
505.779	11184.13
505.982	11358.21
506.185	11384.83
506.387	11423.74
506.59	11671.54
506.793	11872.25
506.996	11778.04
507.198	12253.17
507.401	12206.06
507.604	12216.3
507.807	12404.72
508.009	12574.7
508.212	12826.6
508.415	12916.71
508.617	12847.08
508.82	13029.35
509.022	13090.79
509.225	13357.02
509.428	13316.06
509.63	13553.63
509.833	13506.52
510.035	14233.55
510.238	13783
510.44	14065.62
510.643	14088.15
510.845	14301.14
511.048	14104.53
511.25	14673.87
511.453	14622.67
511.655	15118.28
511.858	14792.65
512.06	15015.88
512.262	15073.22
512.465	15157.19
512.667	15433.66
512.87	15400.9
513.072	15456.19
513.274	15830.97
513.477	16086.97
513.679	16056.25
513.881	16093.11
514.084	16342.96
514.286	16195.51
514.488	16467.89
514.69	16775.08
514.893	16920.49
515.095	17170.34
515.297	17299.36
515.499	17260.45
515.701	17477.54
515.904	17512.35
516.106	17981.34
516.308	17985.43
516.51	18173.85
516.712	17915.8
516.914	18309.01
517.116	18562.96
517.318	18825.1
517.52	18802.57
517.722	18874.25
517.925	19111.82
518.127	19337.09
518.329	19230.6
518.531	19027.85
518.733	19652.48
518.935	20115.32
519.136	19965.82
519.338	20225.91
519.54	19984.25
519.742	20193.14
519.944	20287.35
520.146	20821.87
520.348	20692.85
520.55	21036.91
520.752	21272.42
520.954	21507.94
521.155	21311.33
521.357	21665.63
521.559	21561.19
521.761	22271.83
521.963	21800.8
522.164	22058.84
522.366	22357.85
522.568	22755.15
522.77	22511.44
522.971	22847.31
523.173	22808.4
523.375	23080.78
523.576	22722.38
523.778	23099.21
523.98	23443.27
524.181	23265.1
524.383	23443.27
524.584	23605.06
524.786	23664.45
524.988	23691.07
525.189	23988.03
525.391	24244.02
525.592	24426.29
525.794	24547.12
525.995	24459.06
526.197	24430.39
526.398	24631.09
526.6	24819.5
526.801	24880.94
527.003	24817.46
527.204	25009.97
527.406	25106.22
527.607	25358.12
527.808	25296.68
528.01	25126.7
528.211	25423.65
528.412	25612.07
528.614	25429.8
528.815	25620.26
529.016	25872.16
529.218	25696.03
529.419	25810.72
529.62	25716.51
529.822	25902.88
530.023	25896.74
530.224	25999.13
530.425	25868.06
530.626	26074.91
530.828	26048.29
531.029	26627.86
531.23	26042.14
531.431	26328.86
531.632	26453.78
531.833	26322.71
532.035	26550.04
532.236	26627.86
532.437	26447.64
532.638	26373.91
532.839	26742.55
533.04	26715.92
533.241	26218.27
533.442	26597.14
533.643	26648.34
533.844	26367.77
534.045	26529.56
534.246	26513.17
534.447	27062.03
534.648	26304.28
534.849	26576.66
535.05	26378.01
535.251	26611.48
535.451	26679.06
535.652	26515.22
535.853	27006.73
536.054	26869.52
536.255	26560.28
536.456	25974.56
536.657	26935.06
536.857	26849.04
537.058	26662.68
537.259	26779.41
537.46	26513.17
537.66	26771.22
537.861	26711.83
538.062	26601.24
538.263	27139.85
538.463	26668.82
538.664	26588.95
538.865	26846.99
539.065	26961.68
539.266	26537.75
539.466	26951.44
539.667	26464.02
539.868	27272.97
540.068	26629.91
540.269	26853.14
540.469	26881.81
540.67	26533.65
540.87	26836.75
541.071	26636.05
541.271	26949.39
541.472	26371.86
541.672	26820.37
541.873	26513.17
542.073	26386.2
542.274	27066.13
542.474	26486.55
542.675	26480.41
542.875	26879.76
543.075	26621.72
543.276	26513.17
543.476	26752.79
543.676	26459.93
543.877	26920.72
544.077	26318.62
544.277	26400.54
544.478	26482.45
544.678	26617.62
544.878	26711.83
545.078	26545.94
545.279	26713.88
545.479	26107.68
545.679	26480.41
545.879	26447.64
546.079	26580.76
546.28	26261.27
546.48	26328.86
546.68	26830.61
546.88	26816.27
547.08	26732.31
547.28	26388.25
547.48	26347.29
547.68	26369.82
547.88	26294.04
548.081	26328.86
548.281	26535.7
548.481	26388.25
548.681	26576.66
548.881	26662.68
549.081	26328.86
549.28	26277.66
549.48	26359.58
549.68	26074.91
549.88	26443.54
550.08	26230.55
550.28	26298.14
550.48	26289.95
550.68	26478.36
550.88	26152.73
551.08	25835.3
551.279	26277.66
551.479	26197.79
551.679	26408.73
551.879	25982.75
552.079	26330.9
552.278	26169.12
552.478	26203.93
552.678	26527.51
552.878	26283.8
553.077	26418.97
553.277	25956.13
553.477	26533.65
553.676	25976.61
553.876	26390.3
554.076	26033.95
554.275	26097.44
554.475	25607.97
554.674	25978.65
554.874	26154.78
555.074	26191.64
555.273	26175.26
555.473	26113.82
555.672	25849.63
555.872	25761.57
556.071	26021.66
556.271	26140.44
556.47	25947.93
556.67	25706.27
556.869	25798.43
557.068	25753.38
557.268	25638.69
557.467	25579.3
557.667	25579.3
557.866	25575.2
558.065	25526.05
558.265	25468.71
558.464	25589.54
558.663	25575.2
558.863	25450.28
559.062	25599.78
559.261	25521.96
559.461	25790.24
559.66	25366.31
559.859	25321.26
560.058	25339.69
560.258	25354.02
560.457	24663.86
560.656	25509.67
560.855	25003.82
561.054	25222.95
561.253	24983.34
561.453	25116.46
561.652	25032.49
561.851	25124.65
562.05	24971.05
562.249	24735.54
562.448	25134.89
562.647	24958.77
562.846	24635.19
563.045	24833.84
563.244	24536.88
563.443	24612.66
563.642	24258.36
563.841	24729.39
564.04	24694.58
564.239	24710.96
564.438	24581.94
564.637	24504.12
564.836	24375.09
565.035	23818.05
565.234	24125.24
565.432	24500.02
565.631	24067.9
565.83	24014.65
566.029	24063.8
566.228	24004.41
566.427	23992.12
566.625	23842.62
566.824	23740.22
567.023	23689.03
567.222	23705.41
567.42	23820.1
567.619	23471.94
567.818	23480.13
568.016	23398.21
568.215	23641.92
568.414	23357.25
568.612	23283.53
568.811	23355.21
569.01	23373.64
569.208	23107.4
569.407	23220.04
569.605	22826.83
569.804	23295.82
570.002	22837.07
570.201	23146.31
570.4	22916.94
570.598	22562.64
570.797	22396.76
570.995	22951.76
571.193	22345.56
571.392	22853.45
571.59	22411.09
571.789	22644.56
571.987	22775.63
572.186	22574.93
572.384	22574.93
572.582	22388.57
572.781	22552.4
572.979	22103.9
573.177	22021.98
573.376	22681.42
573.574	22056.79
573.772	21925.72
573.971	21727.07
574.169	21960.54
574.367	21886.81
574.565	22253.4
574.763	21768.03
574.962	21788.51
575.16	21528.42
575.358	21735.26
575.556	21098.34
575.754	21694.3
575.952	21170.02
576.151	21765.98
576.349	21036.91
576.547	21380.96
576.745	21274.47
576.943	21522.27
577.141	21151.59
577.339	21094.25
577.537	21239.65
577.735	21174.12
577.933	21098.34
578.131	20920.17
578.329	20950.89
578.527	20754.29
578.725	20899.69
578.923	20989.8
579.121	20606.83
579.319	20668.27
579.516	20545.39
579.714	20682.61
579.912	20766.57
580.11	20420.47
580.308	20543.35
580.506	20275.06
580.704	20060.02
580.901	20125.56
581.099	20373.36
581.297	20152.18
581.495	19988.35
581.692	20113.27
581.89	19890.04
582.088	20017.02
582.285	20025.21
582.483	19877.76
582.681	19847.04
582.878	19480.45
583.076	19642.24
583.274	19922.81
583.471	19873.66
583.669	19697.53
583.866	19435.39
584.064	19582.85
584.262	19222.41
584.459	19423.11
584.657	19206.02
584.854	19425.15
585.052	19083.14
585.249	19275.65
585.447	19165.06
585.644	18986.89
585.841	19093.38
586.039	19130.25
586.236	18911.11
586.434	18880.39
586.631	18608.01
586.828	19203.97
587.026	18972.55
587.223	18550.67
587.42	18227.09
587.618	18778
587.815	18415.51
588.012	18399.12
588.21	18198.42
588.407	18530.19
588.604	18337.68
588.801	18360.21
588.999	18249.62
589.196	18337.68
589.393	18114.45
589.59	18014.1
589.787	17811.35
589.984	17766.3
590.182	17948.57
590.379	18065.3
590.576	17596.32
590.773	17581.98
590.97	17610.65
591.167	17731.48
591.364	17528.74
591.561	17508.26
591.758	17307.55
591.955	17368.99
592.152	17567.65
592.349	17223.59
592.546	17418.14
592.743	17199.01
592.94	17205.16
593.137	17270.69
593.334	17123.24
593.531	17061.8
593.727	17215.4
593.924	17129.38
594.121	16902.06
594.318	16928.68
594.515	16961.45
594.712	17084.33
594.908	16727.98
595.105	16676.78
595.302	16433.07
595.499	16822.19
595.696	16392.11
595.892	16267.19
596.089	16388.02
596.286	16639.92
596.482	16496.56
596.679	16562.09
596.876	16361.39
597.072	16179.12
597.269	16189.36
597.466	16267.19
597.662	15988.66
597.859	16279.47
598.055	16152.5
598.252	16013.24
598.448	16101.3
598.645	15957.94
598.841	15787.96
599.038	15710.14
599.234	15921.08
599.431	15753.15
599.627	15624.12
599.824	15536.06
600.02	15636.41
600.217	15718.33
600.413	15411.14
600.609	15407.04
600.806	15253.44
601.002	15468.48
601.198	15112.13
601.395	15034.31
601.591	15222.72
601.787	15112.13
601.984	15058.88
602.18	15126.47
602.376	15001.54
602.572	14741.45
602.769	14899.14
602.965	14903.24
603.161	14743.5
603.357	14794.7
603.553	14718.92
603.75	14753.74
603.946	14591.95
604.142	14680.01
604.338	14299.09
604.534	14415.82
604.73	14538.7
604.926	14329.81
605.122	14507.98
605.318	14370.77
605.514	14194.64
605.71	14333.9
605.906	14141.39
606.102	14092.24
606.298	14360.53
606.494	14129.11
606.69	14225.36
606.886	14163.92
607.082	13778.9
607.278	14153.68
607.474	13668.31
607.67	14026.71
607.866	13830.1
608.062	14053.33
608.257	13727.71
608.453	13778.9
608.649	14045.14
608.845	13805.53
609.041	13670.36
609.236	13705.18
609.432	13656.03
609.628	13799.38
609.824	13701.08
610.019	13631.45
610.215	13785.05
610.411	13496.28
610.606	13623.26
610.802	13295.58
610.998	13770.71
611.193	13479.9
611.389	13273.06
611.584	13228
611.78	13279.2
611.976	13211.62
612.171	13295.58
612.367	13469.66
612.562	12996.58
612.758	13043.68
612.953	13141.99
613.149	13193.19
613.344	12965.86
613.539	13160.42
613.735	13225.95
613.93	13158.37
614.126	13158.37
614.321	13187.04
614.517	12941.29
614.712	12980.2
614.907	12922.85
615.103	13115.36
615.298	12931.05
615.493	13027.3
615.688	12705.77
615.884	12722.15
616.079	12986.34
616.274	12922.85
616.47	12781.54
616.665	12830.69
616.86	12591.08
617.055	12738.54
617.25	12695.53
617.445	12775.4
617.641	12490.73
617.836	12412.91
618.031	12521.45
618.226	12339.18
618.421	12523.5
618.616	12662.76
618.811	12435.44
619.006	12679.15
619.201	12150.77
619.396	12470.25
619.591	12091.38
619.786	12079.09
619.981	11878.39
620.176	12218.35
620.371	11952.12
620.566	12140.53
620.761	12058.61
620.956	11747.32
621.151	11612.15
621.346	11886.58
621.541	11712.5
621.735	11823.09
621.93	11634.68
622.125	11591.67
622.32	11257.85
622.515	11618.3
622.709	11309.05
622.904	11431.93
623.099	11339.77
623.294	11266.05
623.488	11188.22
623.683	11198.46
623.878	10979.33
624.072	11071.49
624.267	11014.15
624.462	10895.36
624.656	10852.36
624.851	10815.49
625.046	10754.05
625.24	10659.85
625.435	10512.39
625.629	10612.74
625.824	10414.09
626.018	10534.92
626.213	10303.5
626.407	10459.15
626.602	10348.56
626.796	10223.63
626.991	10192.91
627.185	10110.99
627.38	10143.76
627.574	10010.64
627.768	10037.27
627.963	9922.58
628.157	9842.71
628.352	9871.38
628.546	9611.29
628.74	9973.78
628.935	9654.3
629.129	9629.72
629.323	9560.09
629.517	9363.48
629.712	9433.11
629.906	9404.44
630.1	9230.37
630.294	9453.59
630.489	9207.84
630.683	9267.23
630.877	9211.93
631.071	9113.63
631.265	9080.86
631.459	8783.91
631.653	8878.12
631.848	8966.18
632.042	8853.54
632.236	8970.27
632.43	8804.39
632.624	8914.98
632.818	8720.42
633.012	8712.23
633.206	8597.54
633.4	8482.86
633.594	8628.26
633.788	8429.61
633.982	8423.47
634.176	8409.13
634.369	8235.05
634.563	8255.53
634.757	8167.47
634.951	8261.68
635.145	8269.87
635.339	8165.42
635.533	8163.37
635.726	7960.63
635.92	8163.37
636.114	8017.97
636.308	7778.36
636.501	7864.37
636.695	7743.54
636.889	7706.68
637.083	7850.03
637.276	7733.3
637.47	7759.92
637.664	7487.54
637.857	7643.19
638.051	7641.14
638.244	7407.67
638.438	7530.55
638.632	7389.24
638.825	7436.35
639.019	7340.09
639.212	7284.8
639.406	7241.79
639.599	7159.87
639.793	7254.08
639.986	7024.7
640.18	7182.4
640.373	7307.32
640.567	7047.23
640.76	6965.31
640.954	7012.42
641.147	6967.36
641.34	6875.2
641.534	7073.85
641.727	6774.85
641.92	6791.24
642.114	6694.98
642.307	6768.71
642.5	6893.63
642.694	6744.13
642.887	6629.45
643.08	6621.25
643.273	6852.67
643.467	6414.41
643.66	6559.81
643.853	6570.05
644.046	6404.17
644.239	6539.33
644.432	6406.22
644.626	6371.4
644.819	6477.9
645.012	6352.97
645.205	6371.4
645.398	6334.54
645.591	6301.77
645.784	6309.96
645.977	6045.77
646.17	6129.74
646.363	6060.11
646.556	5986.38
646.749	6015.05
646.942	6027.34
647.135	6062.16
647.328	5886.03
647.521	5879.89
647.714	5787.73
647.907	5929.04
648.099	5820.5
648.292	5922.9
648.485	5795.92
648.678	5777.49
648.871	5765.2
649.064	5597.27
649.256	5652.56
649.449	5576.79
649.642	5584.98
649.835	5529.69
650.027	5513.3
650.22	5539.93
650.413	5607.51
650.605	5458.01
650.798	5236.83
650.991	5353.56
651.183	5285.98
651.376	5163.1
651.568	5249.11
651.761	5343.32
651.954	5355.61
652.146	5271.64
652.339	5064.8
652.531	5269.59
652.724	5050.46
652.916	5156.96
653.109	5142.62
653.301	5103.71
653.494	5068.89
653.686	4976.73
653.879	4982.88
654.071	5075.04
654.263	5025.89
654.456	5079.13
654.648	4970.59
654.84	4849.76
655.033	4900.96
655.225	4790.37
655.417	4841.57
655.61	4788.32
655.802	4812.9
655.994	4604
656.186	4589.67
656.379	4741.22
656.571	4687.97
656.763	4606.05
656.955	4708.45
657.148	4698.21
657.34	4614.24
657.532	4534.37
657.724	4638.82
657.916	4591.72
658.108	4540.52
658.3	4380.78
658.492	4491.37
658.684	4364.39
658.876	4423.78
659.068	4360.3
659.26	4434.02
659.452	4417.64
659.644	4286.57
659.836	4278.38
660.028	4264.04
660.22	4141.16
660.412	4239.47
660.604	4096.11
660.796	4292.71
660.988	4237.42
661.18	4257.9
661.372	4214.89
661.563	4200.55
661.755	3993.71
661.947	4020.33
662.139	4067.44
662.331	4135.02
662.522	3983.47
662.714	4120.68
662.906	3860.59
663.097	3829.87
663.289	3979.37
663.481	3893.36
663.673	3858.54
663.864	3852.4
664.056	3840.11
664.247	3938.41
664.439	3866.74
664.631	3735.67
664.822	3745.91
665.014	3762.29
665.205	3833.97
665.397	3795.06
665.588	3913.84
665.78	3793.01
665.971	3795.06
666.163	3633.27
666.354	3639.41
666.546	3657.84
666.737	3649.65
666.929	3657.84
667.12	3567.73
667.311	3518.58
667.503	3625.08
667.694	3592.31
667.885	3645.56
668.077	3637.36
668.268	3461.24
668.459	3616.88
668.651	3606.64
668.842	3555.44
669.033	3395.7
669.224	3483.77
669.416	3479.67
669.607	3541.11
669.798	3477.62
669.989	3387.51
670.18	3313.78
670.371	3444.85
670.563	3276.92
670.754	3412.09
670.945	3311.74
671.136	3326.07
671.327	3264.63
671.518	3346.55
671.709	3440.76
671.9	3326.07
672.091	3231.87
672.282	3199.1
672.473	3203.19
672.664	3117.18
672.855	3283.06
673.046	3397.75
673.237	3395.7
673.428	3231.87
673.619	3281.02
673.809	3262.58
674	3281.02
674.191	3262.58
674.382	3195
674.573	3266.68
674.764	3180.67
674.954	3147.9
675.145	3166.33
675.336	3184.76
675.527	3147.9
675.717	3190.91
675.908	3039.36
676.099	3240.06
676.289	3139.71
676.48	3278.97
676.671	3117.18
676.861	3219.58
677.052	3162.23
677.243	3018.88
677.433	2994.3
677.624	3088.51
677.814	3022.97
678.005	3201.15
678.195	3086.46
678.386	2957.44
678.576	3065.98
678.767	3033.21
678.957	3025.02
679.148	3022.97
679.338	3104.89
679.529	3057.79
679.719	2961.53
679.909	3061.88
680.1	3074.17
680.29	3033.21
680.481	3020.92
680.671	3016.83
680.861	3037.31
681.052	2965.63
681.242	3022.97
681.432	3027.07
681.622	2957.44
681.813	2898.05
682.003	3000.44
682.193	2953.34
682.383	2990.21
682.573	3139.71
682.764	2986.11
682.954	3039.36
683.144	2906.24
683.334	3000.44
683.524	2971.77
683.714	3086.46
683.904	3022.97
684.094	2912.38
684.284	3000.44
684.474	2877.57
684.664	2932.86
684.854	2975.87
685.044	2930.81
685.234	2910.33
685.424	2828.42
685.614	2832.51
685.804	2803.84
685.994	2879.61
686.184	2926.72
686.374	2910.33
686.564	2814.08
686.753	2814.08
686.943	2756.74
687.133	2779.26
687.323	2848.9
687.513	2924.67
687.702	2695.3
687.892	2740.35
688.082	2736.26
688.272	2674.82
688.461	2605.19
688.651	2750.59
688.841	2795.65
689.03	2668.67
689.22	2642.05
689.41	2521.22
689.599	2621.57
689.789	2560.13
689.979	2687.11
690.168	2629.76
690.358	2642.05
690.547	2543.75
690.737	2590.85
690.926	2590.85
691.116	2498.69
691.305	2588.8
691.495	2418.82
691.684	2392.2
691.874	2531.46
692.063	2480.26
692.252	2447.49
692.442	2492.55
692.631	2449.54
692.82	2402.44
693.01	2304.14
693.199	2338.95
693.388	2281.61
693.578	2259.08
693.767	2302.09
693.956	2322.57
694.146	2449.54
694.335	2320.52
694.524	2164.87
694.713	2273.42
694.902	2324.62
695.092	2322.57
695.281	2306.18
695.47	2273.42
695.659	2205.83
695.848	2199.69
696.037	2105.48
696.226	2216.07
696.415	2199.69
696.604	2183.31
696.793	2185.35
696.982	2156.68
697.171	2248.84
697.36	2156.68
697.549	2117.77
697.738	2224.26
697.927	2136.2
698.116	2162.83
698.305	2115.72
698.494	2066.57
698.683	2042
698.872	2080.91
699.061	2062.48
699.25	2109.58
699.438	2097.29
699.627	2068.62
699.816	2099.34
700.005	2060.43
700.193	2142.35
700.382	2154.63
700.571	2097.29
700.76	1949.84
700.948	1960.08
701.137	1962.12
701.326	2085
701.514	2072.72
701.703	1978.51
701.892	1976.46
702.08	2072.72
702.269	2115.72
702.457	2013.32
702.646	1867.92
702.834	2037.9
703.023	1990.8
703.212	2130.06
703.4	2066.57
703.589	2087.05
703.777	2015.37
703.965	2052.24
704.154	2011.28
704.342	2154.63
704.531	2152.59
704.719	2052.24
704.907	2146.44
705.096	1953.93
705.284	1890.45
705.472	2068.62
705.661	2087.05
705.849	2005.13
706.037	1917.07
706.226	2095.24
706.414	2033.8
706.602	2066.57
706.79	2068.62
706.979	2031.76
707.167	2142.35
707.355	2068.62
707.543	2066.57
707.731	2101.39
707.919	1904.78
708.107	1986.7
708.296	1984.65
708.484	2056.33
708.672	1996.94
708.86	2039.95
709.048	2060.43
709.236	2134.15
709.424	2054.28
709.612	2134.15
709.8	2085
709.988	2087.05
710.176	2158.73
710.364	2134.15
710.551	2031.76
710.739	2142.35
710.927	2066.57
711.115	2189.45
711.303	2132.11
711.491	2166.92
711.679	1982.6
711.866	2037.9
712.054	2185.35
712.242	2095.24
712.43	2175.11
712.617	2179.21
712.805	2191.5
712.993	2236.55
713.181	2085
713.368	2302.09
713.556	2160.78
713.744	2173.07
713.931	2267.27
714.119	2259.08
714.306	2082.95
714.494	2189.45
714.682	2254.98
714.869	2148.49
715.057	2150.54
715.244	2082.95
715.432	2154.63
715.619	2158.73
715.807	2244.74
715.994	2291.85
716.182	2185.35
716.369	2246.79
716.556	2236.55
716.744	2156.68
716.931	2240.65
717.119	2234.5
717.306	2338.95
717.493	2300.04
717.681	2297.99
717.868	2265.22
718.055	2295.94
718.242	2166.92
718.43	2195.59
718.617	2214.02
718.804	2066.57
718.991	2314.38
719.179	2240.65
719.366	2269.32
719.553	2357.38
719.74	2476.16
719.927	2257.03
720.114	2334.86
720.301	2357.38
720.488	2359.43
720.676	2173.07
720.863	2297.99
721.05	2334.86
721.237	2314.38
721.424	2371.72
721.611	2367.62
721.798	2398.34
721.985	2338.95
722.172	2322.57
722.358	2265.22
722.545	2261.13
722.732	2449.54
722.919	2396.29
723.106	2527.36
723.293	2306.18
723.48	2353.29
723.667	2404.49
723.853	2361.48
724.04	2431.11
724.227	2371.72
724.414	2414.73
724.6	2422.92
724.787	2467.97
724.974	2349.19
725.161	2443.4
725.347	2437.25
725.534	2486.4
725.72	2418.82
725.907	2345.09
726.094	2439.3
726.28	2461.83
726.467	2445.45
726.653	2459.78
726.84	2502.79
727.027	2494.6
727.213	2420.87
727.4	2388.1
727.586	2566.28
727.773	2492.55
727.959	2437.25
728.145	2494.6
728.332	2506.88
728.518	2433.16
728.705	2494.6
728.891	2402.44
729.077	2553.99
729.264	2480.26
729.45	2488.45
729.636	2510.98
729.823	2551.94
730.009	2564.23
730.195	2543.75
730.382	2543.75
730.568	2408.58
730.754	2510.98
730.94	2474.12
731.126	2576.52
731.313	2578.56
731.499	2553.99
731.685	2549.89
731.871	2633.86
732.057	2574.47
732.243	2490.5
732.429	2535.56
732.615	2539.65
732.801	2510.98
732.987	2543.75
733.173	2558.08
733.359	2580.61
733.545	2486.4
733.731	2490.5
733.917	2615.43
734.103	2429.06
734.289	2566.28
734.475	2558.08
734.661	2570.37
734.847	2646.15
735.033	2564.23
735.219	2599.04
735.404	2633.86
735.59	2525.32
735.776	2490.5
735.962	2625.67
736.148	2646.15
736.333	2551.94
736.519	2590.85
736.705	2642.05
736.89	2490.5
737.076	2582.66
737.262	2515.08
737.447	2422.92
737.633	2617.47
737.819	2672.77
738.004	2467.97
738.19	2480.26
738.375	2437.25
738.561	2470.02
738.747	2500.74
738.932	2517.12
739.118	2494.6
739.303	2480.26
739.489	2525.32
739.674	2398.34
739.859	2480.26
740.045	2527.36
740.23	2355.33
740.416	2427.01
740.601	2623.62
740.786	2402.44
740.972	2482.31
741.157	2345.09
741.342	2363.53
741.528	2431.11
741.713	2418.82
741.898	2441.35
742.084	2386.05
742.269	2472.07
742.454	2476.16
742.639	2451.59
742.824	2359.43
743.01	2484.36
743.195	2347.14
743.38	2367.62
743.565	2519.17
743.75	2418.82
743.935	2441.35
744.12	2265.22
744.305	2349.19
744.49	2396.29
744.675	2302.09
744.86	2207.88
745.045	2277.51
745.23	2226.31
745.415	2300.04
745.6	2326.66
745.785	2246.79
745.97	2228.36
746.155	2113.67
746.34	2240.65
746.525	2265.22
746.71	2197.64
746.895	2183.31
747.079	2177.16
747.264	2189.45
747.449	2214.02
747.634	2248.84
747.819	2148.49
748.003	2115.72
748.188	2173.07
748.373	2064.52
748.557	2042
748.742	2078.86
748.927	1968.27
749.111	1958.03
749.296	1953.93
749.481	2097.29
749.665	1974.41
749.85	1947.79
750.034	1937.55
750.219	1898.64
750.404	1992.84
750.588	1976.46
750.773	1872.01
750.957	1994.89
751.141	1847.44
751.326	1929.36
751.51	1933.45
751.695	1888.4
751.879	1790.1
752.064	1845.39
752.248	1802.38
752.432	1874.06
752.617	1732.75
752.801	1749.14
752.985	1798.29
753.17	1773.71
753.354	1757.33
753.538	1798.29
753.722	1716.37
753.907	1697.94
754.091	1640.59
754.275	1593.49
754.459	1699.98
754.643	1669.27
754.828	1718.42
755.012	1616.02
755.196	1638.55
755.38	1552.53
755.564	1568.91
755.748	1648.79
755.932	1519.76
756.116	1618.07
756.3	1591.44
756.484	1525.91
756.668	1482.9
756.852	1534.1
757.036	1548.44
757.22	1456.28
757.404	1575.06
757.588	1472.66
757.772	1400.98
757.956	1458.32
758.14	1388.69
758.323	1400.98
758.507	1339.54
758.691	1509.52
758.875	1425.56
759.059	1452.18
759.242	1409.17
759.426	1441.94
759.61	1495.19
759.794	1460.37
759.977	1345.69
760.161	1466.52
760.345	1345.69
760.528	1364.12
760.712	1306.77
760.895	1323.16
761.079	1286.3
761.263	1339.54
761.446	1286.3
761.63	1259.67
761.813	1296.53
761.997	1364.12
762.18	1214.62
762.364	1267.86
762.547	1216.66
762.731	1224.86
762.914	1208.47
763.098	1304.73
763.281	1214.62
763.464	1196.18
763.648	1228.95
763.831	1253.53
764.015	1241.24
764.198	1212.57
764.381	1257.62
764.564	1241.24
764.748	1185.94
764.931	1187.99
765.114	1142.94
765.297	1163.42
765.481	1167.51
765.664	1140.89
765.847	1212.57
766.03	1083.55
766.213	1140.89
766.397	981.15
766.58	1161.37
766.763	1087.64
766.946	1063.07
767.129	1099.93
767.312	1151.13
767.495	1022.11
767.678	1069.21
767.861	1140.89
768.044	1126.55
768.227	1120.41
768.41	1081.5
768.593	1048.73
768.776	991.39
768.959	991.39
769.142	1020.06
769.324	1069.21
769.507	985.24
769.69	1054.87
769.873	1106.07
770.056	1075.35
770.239	968.86
770.421	936.09
770.604	903.32
770.787	1015.96
770.97	1007.77
771.152	946.33
771.335	1001.63
771.518	938.14
771.7	987.29
771.883	1032.35
772.066	831.65
772.248	886.94
772.431	878.75
772.613	932
772.796	870.56
772.978	878.75
773.161	925.85
773.343	880.8
773.526	907.42
773.708	845.98
773.891	815.26
774.073	950.43
774.256	870.56
774.438	843.93
774.621	825.5
774.803	891.04
774.985	944.28
775.168	784.54
775.35	757.92
775.532	870.56
775.715	837.79
775.897	696.48
776.079	807.07
776.261	856.22
776.444	792.73
776.626	780.45
776.808	772.25
776.99	835.74
777.173	737.44
777.355	741.54
777.537	747.68
777.719	692.38
777.901	688.29
778.083	606.37
778.265	790.69
778.447	823.45
778.629	762.02
778.811	626.85
778.993	727.2
779.175	809.12
779.357	630.95
779.539	657.57
779.721	704.67
779.903	745.63
780.085	602.27
780.267	716.96
780.449	637.09
780.631	708.77
780.812	671.9
780.994	661.66
781.176	628.9
781.358	581.79
781.54	616.61
781.721	665.76
781.903	641.18
782.085	585.89
782.267	608.42
782.448	589.99
782.63	639.14
782.812	659.62
782.993	577.7
783.175	600.23
783.357	520.35
783.538	544.93
783.72	557.22
783.901	538.79
784.083	503.97
784.264	563.36
784.446	594.08
784.627	516.26
784.809	604.32
784.99	532.64
785.172	522.4
785.353	528.55
785.535	522.4
785.716	501.92
785.897	585.89
786.079	446.63
786.26	493.73
786.441	471.2
786.623	456.87
786.804	483.49
786.985	555.17
787.167	479.4
787.348	465.06
787.529	495.78
787.71	401.57
787.891	520.35
788.073	473.25
788.254	477.35
788.435	544.93
788.616	399.52
788.797	497.83
788.978	463.01
789.159	434.34
789.34	467.11
789.522	385.19
789.703	454.82
789.884	520.35
790.065	405.67
790.246	446.63
790.427	307.37
790.607	417.96
790.788	415.91
790.969	354.47
791.15	426.15
791.331	358.57
791.512	377
791.693	360.61
791.874	340.13
792.054	381.09
792.235	362.66
792.416	360.61
792.597	395.43
792.778	399.52
792.958	387.24
793.139	364.71
793.32	385.19
793.5	407.72
793.681	426.15
793.862	374.95
794.042	381.09
794.223	299.17
794.404	317.61
794.584	356.52
794.765	356.52
794.945	327.85
795.126	282.79
795.306	405.67
795.487	264.36
795.667	348.33
795.848	432.29
796.028	385.19
796.209	352.42
796.389	309.41
796.57	309.41
796.75	315.56
796.93	342.18
797.111	377
797.291	293.03
797.471	252.07
797.652	290.98
797.832	344.23
798.012	333.99
798.192	327.85
798.373	235.69
798.553	260.26
798.733	305.32
798.913	307.37
799.093	290.98
799.274	327.85
799.454	282.79
799.634	229.54
799.814	297.13
799.994	313.51
800.174	307.37
800.354	225.45
800.534	284.84
800.714	295.08
800.894	290.98
801.074	237.74
801.254	327.85
801.434	270.5
801.614	213.16
801.794	295.08
801.974	577.7
802.154	299.17
802.334	229.54
802.514	286.89
802.693	204.97
802.873	256.17
803.053	229.54
803.233	286.89
803.413	243.88
803.592	209.06
803.772	184.49
803.952	256.17
804.131	168.1
804.311	196.78
804.491	245.93
804.67	209.06
804.85	233.64
805.03	266.41
805.209	225.45
805.389	211.11
805.568	290.98
805.748	301.22
805.928	215.21
806.107	264.36
806.287	225.45
806.466	194.73
806.646	209.06
806.825	231.59
807.004	217.26
807.184	198.82
807.363	211.11
807.543	254.12
807.722	219.3
807.901	198.82
808.081	227.5
808.26	172.2
808.439	256.17
808.619	180.39
808.798	223.4
808.977	239.78
809.156	225.45
809.336	149.67
809.515	176.3
809.694	188.58
809.873	209.06
810.052	225.45
810.231	184.49
810.411	225.45
810.59	190.63
810.769	233.64
810.948	217.26
811.127	215.21
811.306	198.82
811.485	102.57
811.664	170.15
811.843	223.4
812.022	188.58
812.201	174.25
812.38	157.86
812.559	127.14
812.737	270.5
812.916	168.1
813.095	161.96
813.274	211.11
813.453	223.4
813.632	135.34
813.811	200.87
813.989	182.44
814.168	168.1
814.347	188.58
814.526	137.38
814.704	147.62
814.883	176.3
815.062	182.44
815.24	280.74
815.419	121
815.598	127.14
815.776	147.62
815.955	147.62
816.133	209.06
816.312	159.91
816.49	166.06
816.669	204.97
816.847	125.1
817.026	192.68
817.204	137.38
817.383	133.29
817.561	131.24
817.74	209.06
817.918	184.49
818.097	123.05
818.275	188.58
818.453	155.82
818.632	180.39
818.81	88.23
818.988	104.62
819.167	182.44
819.345	202.92
819.523	159.91
819.701	127.14
819.879	147.62
820.058	112.81
820.236	170.15
820.414	209.06
820.592	143.53
820.77	129.19
820.948	110.76
821.127	200.87
821.305	161.96
821.483	106.67
821.661	180.39
821.839	98.47
822.017	137.38
822.195	147.62
822.373	133.29
822.551	100.52
822.729	155.82
822.907	147.62
823.085	182.44
823.262	84.14
823.44	149.67
823.618	102.57
823.796	149.67
823.974	155.82
824.152	80.04
824.329	188.58
824.507	168.1
824.685	67.75
824.863	137.38
825.04	172.2
825.218	172.2
825.396	116.9
825.574	90.28
825.751	125.1
825.929	139.43
826.107	100.52
826.284	135.34
826.462	75.95
826.639	90.28
826.817	88.23
826.994	71.85
827.172	110.76
827.349	125.1
827.527	28.84
827.704	45.23
827.882	145.58
828.059	116.9
828.237	86.19
828.414	69.8
828.591	139.43
828.769	108.71
828.946	67.75
829.124	123.05
829.301	129.19
829.478	112.81
829.655	176.3
829.833	73.9
830.01	137.38
830.187	100.52
830.364	77.99
830.542	22.7
830.719	161.96
830.896	207.02
831.073	137.38
831.25	219.3
831.427	112.81
831.604	108.71
831.782	121
831.959	77.99
832.136	86.19
832.313	135.34
832.49	121
832.667	127.14
832.844	153.77
833.021	53.42
833.198	24.75
833.374	82.09
833.551	188.58
833.728	34.99
833.905	84.14
834.082	94.38
834.259	153.77
834.436	149.67
834.612	39.08
834.789	123.05
834.966	80.04
835.143	149.67
835.319	82.09
835.496	73.9
835.673	118.95
835.85	104.62
836.026	127.14
836.203	53.42
836.38	57.51
836.556	59.56
836.733	139.43
836.909	71.85
837.086	127.14
837.262	39.08
837.439	112.81
837.616	73.9
837.792	166.06
837.968	94.38
838.145	43.18
838.321	98.47
838.498	110.76
838.674	108.71
838.851	114.86
839.027	34.99
839.203	180.39
839.38	41.13
839.556	110.76
839.732	123.05
839.909	-22.36
840.085	28.84
840.261	90.28
840.437	135.34
840.614	57.51
840.79	121
840.966	84.14
841.142	125.1
841.318	88.23
841.494	71.85
841.671	73.9
841.847	82.09
842.023	77.99
842.199	55.47
842.375	86.19
842.551	55.47
842.727	80.04
842.903	176.3
843.079	104.62
843.255	77.99
843.431	110.76
843.607	65.71
843.783	84.14
843.959	112.81
844.134	45.23
844.31	86.19
844.486	18.6
844.662	55.47
844.838	57.51
845.013	94.38
845.189	75.95
845.365	86.19
845.541	75.95
845.716	65.71
845.892	30.89
846.068	49.32
846.244	69.8
846.419	123.05
846.595	32.94
846.77	57.51
846.946	102.57
847.122	47.27
847.297	61.61
847.473	69.8
847.648	71.85
847.824	84.14
847.999	28.84
848.175	-5.97
848.35	96.43
848.526	61.61
848.701	49.32
848.876	55.47
849.052	73.9
849.227	53.42
849.403	69.8
849.578	151.72
849.753	116.9
849.929	12.46
850.104	30.89
850.279	-12.12
850.454	86.19
850.63	57.51
850.805	-3.93
850.98	24.75
851.155	80.04
851.33	-32.6
851.505	41.13
851.681	110.76
851.856	32.94
852.031	92.33
852.206	57.51
852.381	71.85
852.556	61.61
852.731	98.47
852.906	86.19
853.081	14.51
853.256	53.42
853.431	73.9
853.606	-14.17
853.781	49.32
853.956	24.75
854.131	67.75
854.305	100.52
854.48	-12.12
854.655	116.9
854.83	77.99
855.005	61.61
855.18	59.56
855.354	43.18
855.529	37.03
855.704	0.17
855.879	57.51
856.053	2.22
856.228	47.27
856.403	37.03
856.577	-3.93
856.752	28.84
856.926	20.65
857.101	69.8
857.276	84.14
857.45	28.84
857.625	157.86
857.799	45.23
857.974	73.9
858.148	6.31
858.323	39.08
858.497	37.03
858.672	61.61
858.846	24.75
859.02	55.47
859.195	53.42
859.369	63.66
859.543	0.17
859.718	47.27
859.892	110.76
860.066	51.37
860.241	6.31
860.415	-1.88
860.589	28.84
860.763	26.79
860.938	12.46
861.112	28.84
861.286	4.27
861.46	20.65
861.634	16.55
861.808	53.42
861.982	2.22
862.157	34.99
862.331	28.84
862.505	22.7
862.679	47.27
862.853	45.23
863.027	20.65
863.201	0.17
863.375	49.32
863.549	41.13
863.722	-24.4
863.896	2.22
864.07	-24.4
864.244	61.61
864.418	49.32
864.592	12.46
864.766	30.89
864.939	20.65
865.113	24.75
865.287	59.56
865.461	12.46
865.634	12.46
865.808	28.84
865.982	-22.36
866.156	-20.31
866.329	-36.69
866.503	-18.26
866.676	69.8
866.85	30.89
867.024	-16.21
867.197	61.61
867.371	22.7
867.544	41.13
867.718	77.99
867.891	-16.21
868.065	20.65
868.238	45.23
868.412	55.47
868.585	28.84
868.759	45.23
868.932	-34.64
869.105	63.66
869.279	-10.07
869.452	45.23
869.625	77.99
869.799	65.71
869.972	-10.07
870.145	-8.02
870.319	-32.6
870.492	8.36
870.665	26.79
870.838	-14.17
871.011	18.6
871.185	45.23
871.358	47.27
871.531	-28.5
871.704	37.03
871.877	20.65
872.05	-40.79
872.223	26.79
872.396	12.46
872.569	75.95
872.742	-77.65
872.915	-1.88
873.088	12.46
873.261	73.9
873.434	41.13
873.607	53.42
873.78	-28.5
873.953	-22.36
874.126	-8.02
874.299	12.46
874.471	96.43
874.644	-1.88
874.817	-12.12
874.99	30.89
875.163	-1.88
875.335	14.51
875.508	12.46
875.681	75.95
875.853	18.6
876.026	41.13
876.199	-24.4
876.371	84.14
876.544	59.56
876.717	16.55
876.889	18.6
877.062	49.32
877.234	-22.36
877.407	10.41
877.579	-3.93
877.752	8.36
877.924	45.23
878.097	77.99
878.269	4.27
878.442	69.8
878.614	-28.5
878.786	8.36
878.959	59.56
879.131	84.14
879.303	37.03
879.476	14.51
879.648	77.99
879.82	-40.79
879.993	71.85
880.165	39.08
880.337	-1.88
880.509	37.03
880.681	24.75
880.854	18.6
881.026	92.33
881.198	30.89
881.37	37.03
881.542	-14.17
881.714	-30.55
881.886	10.41
882.058	100.52
882.23	24.75
882.402	-51.03
882.574	22.7
882.746	34.99
882.918	51.37
883.09	18.6
883.262	-26.45
883.434	86.19
883.606	-5.97
883.778	-20.31
883.95	59.56
884.122	20.65
884.293	80.04
884.465	90.28
884.637	51.37
884.809	43.18
884.98	37.03
885.152	-61.27
885.324	-8.02
885.496	61.61
885.667	118.95
885.839	-77.65
886.011	18.6
886.182	45.23
886.354	69.8
886.525	10.41
886.697	2.22
886.869	34.99
887.04	-28.5
887.212	51.37
887.383	26.79
887.555	-8.02
887.726	65.71
887.897	-3.93
888.069	-5.97
888.24	-14.17
888.412	112.81
888.583	-5.97
888.754	0.17
888.926	26.79
889.097	-12.12
889.268	34.99
889.44	-8.02
889.611	51.37
889.782	-44.88
889.953	4.27
890.125	69.8
890.296	-30.55
890.467	16.55
890.638	32.94
890.809	-5.97
890.98	16.55
891.151	51.37
891.323	-5.97
891.494	39.08
891.665	-57.17
891.836	47.27
892.007	-42.84
892.178	51.37
892.349	45.23
892.52	-20.31
892.691	20.65
892.862	41.13
893.032	-12.12
893.203	28.84
893.374	-28.5
893.545	88.23
893.716	-12.12
893.887	-8.02
894.057	-42.84
894.228	-61.27
894.399	22.7
894.57	26.79
894.74	102.57
894.911	2.22
895.082	-28.5
895.253	24.75
895.423	69.8
895.594	94.38
895.764	41.13
895.935	2.22
896.106	2.22
896.276	-24.4
896.447	0.17
896.617	-32.6
896.788	-16.21
896.958	20.65
897.129	-24.4
897.299	49.32
897.47	-55.12
897.64	-73.56
897.81	65.71
897.981	75.95
898.151	-48.98
898.322	14.51
898.492	12.46
898.662	-69.46
898.832	-26.45
899.003	43.18
899.173	65.71
899.343	59.56
899.513	22.7
